SpectraSuite Data File
++++++++++++++++++++++++++++++++++++
Date: Sun Apr 03 19:55:48 CEST 2016
User: root
Dark Spectrum Present: No
Reference Spectrum Present: No
Number of Sampled Component Spectra: 1
Spectrometers: USB4C02835
Integration Time (usec): 10000 (USB4C02835)
Spectra Averaged: 1 (USB4C02835)
Boxcar Smoothing: 0 (USB4C02835)
Correct for Electrical Dark: No (USB4C02835)
Strobe/Lamp Enabled: No (USB4C02835)
Correct for Detector Non-linearity: No (USB4C02835)
Correct for Stray Light: No (USB4C02835)
Number of Pixels in Processed Spectrum: 3648
>>>>>Begin Processed Spectral Data<<<<<
177.47	1296.36
177.69	1296.36
177.91	1296.36
178.13	1230.83
178.36	1251.31
178.58	1277.93
178.80	1259.50
179.02	1267.69
179.24	1314.80
179.46	1288.17
179.68	1255.40
179.90	1277.93
180.13	1314.80
180.35	1208.30
180.57	1282.03
180.79	1279.98
181.01	1214.45
181.23	1249.26
181.45	1253.36
181.67	1273.84
181.90	1261.55
182.12	1251.31
182.34	1236.97
182.56	1236.97
182.78	1230.83
183.00	1249.26
183.22	1265.64
183.44	1191.92
183.66	1255.40
183.89	1316.84
184.11	1284.08
184.33	1292.27
184.55	1273.84
184.77	1269.74
184.99	1259.50
185.21	1236.97
185.43	1265.64
185.65	1232.88
185.87	1224.69
186.10	1316.84
186.32	1230.83
186.54	1267.69
186.76	1224.69
186.98	1243.12
187.20	1279.98
187.42	1282.03
187.64	1333.23
187.86	1337.32
188.08	1241.07
188.30	1236.97
188.52	1308.65
188.75	1282.03
188.97	1269.74
189.19	1216.49
189.41	1269.74
189.63	1263.60
189.85	1255.40
190.07	1261.55
190.29	1300.46
190.51	1212.40
190.73	1308.65
190.95	1310.70
191.17	1236.97
191.39	1179.63
191.61	1279.98
191.84	1298.41
192.06	1302.51
192.28	1261.55
192.50	1212.40
192.72	1245.16
192.94	1318.89
193.16	1255.40
193.38	1183.73
193.60	1282.03
193.82	1222.64
194.04	1310.70
194.26	1331.18
194.48	1243.12
194.70	1290.22
194.92	1198.06
195.14	1306.60
195.36	1290.22
195.58	1292.27
195.80	1224.69
196.02	1277.93
196.24	1257.45
196.46	1247.21
196.69	1279.98
196.91	1257.45
197.13	1255.40
197.35	1302.51
197.57	1351.66
197.79	1200.11
198.01	1273.84
198.23	1286.12
198.45	1294.32
198.67	1236.97
198.89	1247.21
199.11	1298.41
199.33	1196.01
199.55	1288.17
199.77	1302.51
199.99	1282.03
200.21	1347.56
200.43	1296.36
200.65	1193.97
200.87	1243.12
201.09	1239.02
201.31	1226.73
201.53	1288.17
201.75	1353.71
201.97	1228.78
202.19	1208.30
202.41	1234.93
202.63	1275.88
202.85	1277.93
203.07	1261.55
203.29	1265.64
203.51	1245.16
203.73	1296.36
203.95	1234.93
204.17	1279.98
204.39	1255.40
204.61	1251.31
204.83	1222.64
205.05	1243.12
205.27	1284.08
205.49	1310.70
205.71	1292.27
205.93	1322.99
206.15	1236.97
206.37	1290.22
206.59	1179.63
206.81	1216.49
207.03	1257.45
207.25	1263.60
207.47	1277.93
207.69	1327.08
207.91	1304.56
208.13	1282.03
208.34	1302.51
208.56	1202.16
208.78	1236.97
209.00	1196.01
209.22	1288.17
209.44	1206.25
209.66	1284.08
209.88	1308.65
210.10	1298.41
210.32	1189.87
210.54	1288.17
210.76	1271.79
210.98	1296.36
211.20	1210.35
211.42	1353.71
211.64	1282.03
211.86	1255.40
212.08	1292.27
212.30	1277.93
212.52	1290.22
212.74	1279.98
212.96	1267.69
213.17	1335.28
213.39	1347.56
213.61	1271.79
213.83	1259.50
214.05	1277.93
214.27	1245.16
214.49	1296.36
214.71	1232.88
214.93	1304.56
215.15	1265.64
215.37	1308.65
215.59	1241.07
215.81	1253.36
216.03	1327.08
216.24	1251.31
216.46	1204.21
216.68	1304.56
216.90	1241.07
217.12	1290.22
217.34	1296.36
217.56	1247.21
217.78	1277.93
218.00	1318.89
218.22	1236.97
218.44	1273.84
218.66	1282.03
218.87	1253.36
219.09	1286.12
219.31	1302.51
219.53	1179.63
219.75	1325.04
219.97	1259.50
220.19	1208.30
220.41	1327.08
220.63	1263.60
220.85	1300.46
221.06	1290.22
221.28	1255.40
221.50	1259.50
221.72	1318.89
221.94	1222.64
222.16	1347.56
222.38	1263.60
222.60	1308.65
222.82	1228.78
223.03	1271.79
223.25	1325.04
223.47	1306.60
223.69	1380.33
223.91	1165.29
224.13	1216.49
224.35	1292.27
224.57	1206.25
224.78	1255.40
225.00	1232.88
225.22	1263.60
225.44	1255.40
225.66	1275.88
225.88	1263.60
226.10	1239.02
226.32	1220.59
226.53	1267.69
226.75	1288.17
226.97	1290.22
227.19	1310.70
227.41	1314.80
227.63	1249.26
227.85	1261.55
228.06	1308.65
228.28	1306.60
228.50	1314.80
228.72	1357.80
228.94	1230.83
229.16	1220.59
229.37	1204.21
229.59	1265.64
229.81	1243.12
230.03	1255.40
230.25	1239.02
230.47	1226.73
230.69	1269.74
230.90	1335.28
231.12	1243.12
231.34	1300.46
231.56	1275.88
231.78	1257.45
232.00	1251.31
232.21	1228.78
232.43	1265.64
232.65	1306.60
232.87	1298.41
233.09	1247.21
233.30	1282.03
233.52	1212.40
233.74	1277.93
233.96	1275.88
234.18	1251.31
234.40	1261.55
234.61	1265.64
234.83	1308.65
235.05	1290.22
235.27	1304.56
235.49	1298.41
235.70	1247.21
235.92	1339.37
236.14	1245.16
236.36	1284.08
236.58	1261.55
236.79	1247.21
237.01	1247.21
237.23	1234.93
237.45	1275.88
237.67	1222.64
237.88	1302.51
238.10	1290.22
238.32	1232.88
238.54	1234.93
238.76	1314.80
238.97	1255.40
239.19	1255.40
239.41	1150.96
239.63	1208.30
239.85	1308.65
240.06	1212.40
240.28	1267.69
240.50	1322.99
240.72	1275.88
240.93	1322.99
241.15	1345.52
241.37	1282.03
241.59	1265.64
241.81	1220.59
242.02	1279.98
242.24	1267.69
242.46	1288.17
242.68	1296.36
242.89	1329.13
243.11	1304.56
243.33	1220.59
243.55	1177.58
243.76	1284.08
243.98	1269.74
244.20	1210.35
244.42	1273.84
244.64	1251.31
244.85	1253.36
245.07	1220.59
245.29	1273.84
245.51	1216.49
245.72	1249.26
245.94	1265.64
246.16	1265.64
246.38	1304.56
246.59	1210.35
246.81	1312.75
247.03	1290.22
247.24	1302.51
247.46	1265.64
247.68	1263.60
247.90	1316.84
248.11	1251.31
248.33	1279.98
248.55	1282.03
248.77	1279.98
248.98	1286.12
249.20	1277.93
249.42	1294.32
249.64	1259.50
249.85	1255.40
250.07	1243.12
250.29	1327.08
250.50	1261.55
250.72	1263.60
250.94	1267.69
251.16	1273.84
251.37	1245.16
251.59	1310.70
251.81	1296.36
252.02	1216.49
252.24	1200.11
252.46	1226.73
252.68	1175.53
252.89	1191.92
253.11	1224.69
253.33	1216.49
253.54	1261.55
253.76	1261.55
253.98	1279.98
254.20	1269.74
254.41	1210.35
254.63	1298.41
254.85	1290.22
255.06	1247.21
255.28	1298.41
255.50	1214.45
255.71	1294.32
255.93	1220.59
256.15	1304.56
256.36	1159.15
256.58	1220.59
256.80	1257.45
257.02	1228.78
257.23	1302.51
257.45	1257.45
257.67	1273.84
257.88	1224.69
258.10	1222.64
258.32	1220.59
258.53	1257.45
258.75	1220.59
258.97	1241.07
259.18	1255.40
259.40	1241.07
259.62	1261.55
259.83	1337.32
260.05	1228.78
260.27	1273.84
260.48	1312.75
260.70	1249.26
260.92	1288.17
261.13	1253.36
261.35	1243.12
261.57	1290.22
261.78	1263.60
262.00	1312.75
262.22	1312.75
262.43	1335.28
262.65	1318.89
262.86	1290.22
263.08	1214.45
263.30	1265.64
263.51	1202.16
263.73	1259.50
263.95	1279.98
264.16	1239.02
264.38	1245.16
264.60	1314.80
264.81	1273.84
265.03	1298.41
265.25	1261.55
265.46	1206.25
265.68	1253.36
265.89	1345.52
266.11	1269.74
266.33	1329.13
266.54	1241.07
266.76	1279.98
266.98	1294.32
267.19	1249.26
267.41	1300.46
267.62	1277.93
267.84	1310.70
268.06	1239.02
268.27	1263.60
268.49	1253.36
268.70	1249.26
268.92	1245.16
269.14	1284.08
269.35	1275.88
269.57	1226.73
269.79	1282.03
270.00	1230.83
270.22	1329.13
270.43	1208.30
270.65	1265.64
270.87	1241.07
271.08	1241.07
271.30	1288.17
271.51	1304.56
271.73	1230.83
271.95	1269.74
272.16	1322.99
272.38	1249.26
272.59	1308.65
272.81	1253.36
273.02	1226.73
273.24	1271.79
273.46	1337.32
273.67	1290.22
273.89	1204.21
274.10	1302.51
274.32	1239.02
274.54	1183.73
274.75	1251.31
274.97	1279.98
275.18	1275.88
275.40	1239.02
275.61	1320.94
275.83	1286.12
276.05	1329.13
276.26	1279.98
276.48	1261.55
276.69	1259.50
276.91	1222.64
277.12	1208.30
277.34	1220.59
277.55	1273.84
277.77	1282.03
277.99	1269.74
278.20	1310.70
278.42	1275.88
278.63	1277.93
278.85	1181.68
279.06	1304.56
279.28	1222.64
279.49	1312.75
279.71	1302.51
279.93	1185.77
280.14	1245.16
280.36	1234.93
280.57	1257.45
280.79	1216.49
281.00	1316.84
281.22	1298.41
281.43	1265.64
281.65	1322.99
281.86	1279.98
282.08	1228.78
282.29	1327.08
282.51	1271.79
282.73	1249.26
282.94	1288.17
283.16	1314.80
283.37	1191.92
283.59	1322.99
283.80	1251.31
284.02	1245.16
284.23	1343.47
284.45	1302.51
284.66	1232.88
284.88	1294.32
285.09	1241.07
285.31	1234.93
285.52	1304.56
285.74	1241.07
285.95	1269.74
286.17	1214.45
286.38	1286.12
286.60	1267.69
286.81	1173.49
287.03	1316.84
287.24	1337.32
287.46	1277.93
287.67	1277.93
287.89	1351.66
288.10	1314.80
288.32	1292.27
288.53	1271.79
288.75	1269.74
288.96	1261.55
289.18	1302.51
289.39	1341.42
289.61	1284.08
289.82	1331.18
290.04	1189.87
290.25	1263.60
290.47	1232.88
290.68	1284.08
290.90	1286.12
291.11	1284.08
291.33	1294.32
291.54	1257.45
291.76	1259.50
291.97	1322.99
292.18	1298.41
292.40	1226.73
292.61	1273.84
292.83	1243.12
293.04	1331.18
293.26	1288.17
293.47	1257.45
293.69	1265.64
293.90	1220.59
294.12	1261.55
294.33	1279.98
294.55	1284.08
294.76	1265.64
294.97	1253.36
295.19	1249.26
295.40	1277.93
295.62	1347.56
295.83	1318.89
296.05	1247.21
296.26	1202.16
296.48	1265.64
296.69	1216.49
296.90	1302.51
297.12	1228.78
297.33	1263.60
297.55	1245.16
297.76	1198.06
297.98	1294.32
298.19	1243.12
298.41	1279.98
298.62	1271.79
298.83	1290.22
299.05	1236.97
299.26	1228.78
299.48	1175.53
299.69	1277.93
299.90	1300.46
300.12	1234.93
300.33	1298.41
300.55	1234.93
300.76	1224.69
300.98	1318.89
301.19	1279.98
301.40	1271.79
301.62	1271.79
301.83	1212.40
302.05	1265.64
302.26	1263.60
302.47	1253.36
302.69	1275.88
302.90	1239.02
303.12	1277.93
303.33	1320.94
303.54	1279.98
303.76	1331.18
303.97	1359.85
304.19	1230.83
304.40	1300.46
304.61	1257.45
304.83	1273.84
305.04	1312.75
305.26	1304.56
305.47	1273.84
305.68	1292.27
305.90	1300.46
306.11	1306.60
306.33	1257.45
306.54	1236.97
306.75	1267.69
306.97	1306.60
307.18	1296.36
307.39	1273.84
307.61	1275.88
307.82	1239.02
308.04	1318.89
308.25	1273.84
308.46	1191.92
308.68	1304.56
308.89	1253.36
309.10	1249.26
309.32	1339.37
309.53	1263.60
309.74	1271.79
309.96	1230.83
310.17	1232.88
310.39	1275.88
310.60	1286.12
310.81	1296.36
311.03	1236.97
311.24	1255.40
311.45	1329.13
311.67	1273.84
311.88	1247.21
312.09	1273.84
312.31	1306.60
312.52	1339.37
312.73	1267.69
312.95	1206.25
313.16	1243.12
313.37	1202.16
313.59	1286.12
313.80	1261.55
314.01	1279.98
314.23	1232.88
314.44	1282.03
314.65	1255.40
314.87	1308.65
315.08	1286.12
315.29	1259.50
315.51	1263.60
315.72	1202.16
315.93	1329.13
316.15	1337.32
316.36	1228.78
316.57	1290.22
316.79	1279.98
317.00	1320.94
317.21	1257.45
317.43	1175.53
317.64	1314.80
317.85	1269.74
318.07	1249.26
318.28	1277.93
318.49	1220.59
318.70	1243.12
318.92	1286.12
319.13	1325.04
319.34	1292.27
319.56	1298.41
319.77	1243.12
319.98	1298.41
320.20	1214.45
320.41	1226.73
320.62	1282.03
320.83	1257.45
321.05	1208.30
321.26	1241.07
321.47	1288.17
321.69	1366.00
321.90	1368.04
322.11	1310.70
322.32	1202.16
322.54	1300.46
322.75	1353.71
322.96	1271.79
323.18	1341.42
323.39	1269.74
323.60	1247.21
323.81	1300.46
324.03	1228.78
324.24	1292.27
324.45	1214.45
324.66	1222.64
324.88	1298.41
325.09	1312.75
325.30	1193.97
325.52	1288.17
325.73	1304.56
325.94	1253.36
326.15	1351.66
326.37	1327.08
326.58	1316.84
326.79	1310.70
327.00	1261.55
327.22	1269.74
327.43	1300.46
327.64	1337.32
327.85	1263.60
328.07	1265.64
328.28	1251.31
328.49	1282.03
328.70	1294.32
328.92	1259.50
329.13	1249.26
329.34	1255.40
329.55	1339.37
329.76	1241.07
329.98	1220.59
330.19	1271.79
330.40	1210.35
330.61	1286.12
330.83	1218.54
331.04	1196.01
331.25	1206.25
331.46	1298.41
331.68	1259.50
331.89	1267.69
332.10	1310.70
332.31	1255.40
332.52	1216.49
332.74	1300.46
332.95	1224.69
333.16	1288.17
333.37	1218.54
333.58	1224.69
333.80	1310.70
334.01	1210.35
334.22	1228.78
334.43	1267.69
334.64	1245.16
334.86	1275.88
335.07	1255.40
335.28	1259.50
335.49	1185.77
335.70	1257.45
335.92	1290.22
336.13	1255.40
336.34	1263.60
336.55	1255.40
336.76	1261.55
336.98	1271.79
337.19	1294.32
337.40	1286.12
337.61	1302.51
337.82	1220.59
338.04	1286.12
338.25	1271.79
338.46	1218.54
338.67	1314.80
338.88	1312.75
339.09	1198.06
339.31	1230.83
339.52	1261.55
339.73	1298.41
339.94	1261.55
340.15	1286.12
340.36	1249.26
340.58	1304.56
340.79	1294.32
341.00	1286.12
341.21	1239.02
341.42	1232.88
341.63	1255.40
341.85	1269.74
342.06	1249.26
342.27	1279.98
342.48	1261.55
342.69	1226.73
342.90	1198.06
343.12	1263.60
343.33	1279.98
343.54	1273.84
343.75	1316.84
343.96	1318.89
344.17	1232.88
344.38	1292.27
344.60	1255.40
344.81	1247.21
345.02	1265.64
345.23	1290.22
345.44	1298.41
345.65	1290.22
345.86	1265.64
346.07	1236.97
346.29	1290.22
346.50	1228.78
346.71	1241.07
346.92	1212.40
347.13	1232.88
347.34	1247.21
347.55	1263.60
347.76	1204.21
347.98	1249.26
348.19	1212.40
348.40	1292.27
348.61	1245.16
348.82	1284.08
349.03	1282.03
349.24	1288.17
349.45	1277.93
349.66	1241.07
349.88	1271.79
350.09	1255.40
350.30	1310.70
350.51	1216.49
350.72	1300.46
350.93	1193.97
351.14	1185.77
351.35	1271.79
351.56	1173.49
351.77	1216.49
351.99	1265.64
352.20	1320.94
352.41	1222.64
352.62	1230.83
352.83	1220.59
353.04	1257.45
353.25	1261.55
353.46	1314.80
353.67	1331.18
353.88	1241.07
354.09	1249.26
354.30	1320.94
354.52	1279.98
354.73	1275.88
354.94	1292.27
355.15	1273.84
355.36	1269.74
355.57	1298.41
355.78	1273.84
355.99	1329.13
356.20	1300.46
356.41	1241.07
356.62	1222.64
356.83	1308.65
357.04	1300.46
357.25	1271.79
357.46	1353.71
357.68	1279.98
357.89	1329.13
358.10	1230.83
358.31	1251.31
358.52	1335.28
358.73	1284.08
358.94	1181.68
359.15	1329.13
359.36	1302.51
359.57	1185.77
359.78	1257.45
359.99	1327.08
360.20	1247.21
360.41	1286.12
360.62	1222.64
360.83	1220.59
361.04	1247.21
361.25	1265.64
361.46	1284.08
361.67	1271.79
361.88	1200.11
362.09	1316.84
362.30	1279.98
362.51	1304.56
362.72	1302.51
362.93	1269.74
363.14	1284.08
363.35	1265.64
363.56	1255.40
363.78	1234.93
363.99	1187.82
364.20	1220.59
364.41	1277.93
364.62	1327.08
364.83	1284.08
365.04	1304.56
365.25	1288.17
365.46	1355.76
365.67	1286.12
365.88	1173.49
366.09	1255.40
366.30	1277.93
366.51	1296.36
366.72	1294.32
366.93	1267.69
367.14	1298.41
367.35	1228.78
367.56	1302.51
367.77	1282.03
367.98	1243.12
368.18	1263.60
368.39	1296.36
368.60	1251.31
368.81	1267.69
369.02	1206.25
369.23	1202.16
369.44	1241.07
369.65	1185.77
369.86	1257.45
370.07	1302.51
370.28	1218.54
370.49	1249.26
370.70	1279.98
370.91	1234.93
371.12	1265.64
371.33	1253.36
371.54	1300.46
371.75	1232.88
371.96	1290.22
372.17	1191.92
372.38	1376.24
372.59	1183.73
372.80	1247.21
373.01	1243.12
373.22	1349.61
373.43	1179.63
373.64	1292.27
373.85	1339.37
374.06	1236.97
374.26	1271.79
374.47	1224.69
374.68	1273.84
374.89	1269.74
375.10	1310.70
375.31	1331.18
375.52	1265.64
375.73	1282.03
375.94	1253.36
376.15	1279.98
376.36	1263.60
376.57	1251.31
376.78	1245.16
376.99	1224.69
377.20	1255.40
377.40	1275.88
377.61	1294.32
377.82	1261.55
378.03	1210.35
378.24	1269.74
378.45	1239.02
378.66	1265.64
378.87	1261.55
379.08	1288.17
379.29	1267.69
379.50	1236.97
379.71	1206.25
379.91	1218.54
380.12	1228.78
380.33	1320.94
380.54	1193.97
380.75	1275.88
380.96	1259.50
381.17	1261.55
381.38	1247.21
381.59	1236.97
381.80	1259.50
382.00	1263.60
382.21	1271.79
382.42	1288.17
382.63	1271.79
382.84	1267.69
383.05	1286.12
383.26	1337.32
383.47	1220.59
383.68	1249.26
383.88	1310.70
384.09	1230.83
384.30	1302.51
384.51	1333.23
384.72	1212.40
384.93	1292.27
385.14	1222.64
385.35	1259.50
385.55	1236.97
385.76	1298.41
385.97	1218.54
386.18	1267.69
386.39	1220.59
386.60	1232.88
386.81	1271.79
387.02	1255.40
387.22	1177.58
387.43	1249.26
387.64	1300.46
387.85	1296.36
388.06	1290.22
388.27	1277.93
388.48	1277.93
388.68	1259.50
388.89	1239.02
389.10	1247.21
389.31	1329.13
389.52	1331.18
389.73	1275.88
389.93	1269.74
390.14	1300.46
390.35	1331.18
390.56	1308.65
390.77	1273.84
390.98	1290.22
391.18	1327.08
391.39	1253.36
391.60	1196.01
391.81	1218.54
392.02	1351.66
392.23	1292.27
392.43	1282.03
392.64	1234.93
392.85	1251.31
393.06	1247.21
393.27	1257.45
393.47	1347.56
393.68	1236.97
393.89	1322.99
394.10	1189.87
394.31	1282.03
394.52	1273.84
394.72	1265.64
394.93	1210.35
395.14	1253.36
395.35	1277.93
395.56	1290.22
395.76	1234.93
395.97	1322.99
396.18	1273.84
396.39	1249.26
396.60	1341.42
396.80	1191.92
397.01	1290.22
397.22	1271.79
397.43	1249.26
397.64	1253.36
397.84	1273.84
398.05	1298.41
398.26	1296.36
398.47	1279.98
398.67	1271.79
398.88	1302.51
399.09	1327.08
399.30	1245.16
399.51	1224.69
399.71	1218.54
399.92	1290.22
400.13	1249.26
400.34	1245.16
400.54	1193.97
400.75	1134.57
400.96	1306.60
401.17	1310.70
401.37	1220.59
401.58	1380.33
401.79	1222.64
402.00	1265.64
402.21	1263.60
402.41	1255.40
402.62	1243.12
402.83	1279.98
403.04	1277.93
403.24	1263.60
403.45	1345.52
403.66	1306.60
403.87	1290.22
404.07	1239.02
404.28	1245.16
404.49	1333.23
404.70	1249.26
404.90	1284.08
405.11	1302.51
405.32	1236.97
405.52	1210.35
405.73	1263.60
405.94	1208.30
406.15	1232.88
406.35	1249.26
406.56	1314.80
406.77	1275.88
406.98	1239.02
407.18	1243.12
407.39	1292.27
407.60	1288.17
407.80	1245.16
408.01	1234.93
408.22	1263.60
408.43	1306.60
408.63	1277.93
408.84	1277.93
409.05	1298.41
409.25	1232.88
409.46	1296.36
409.67	1210.35
409.88	1310.70
410.08	1275.88
410.29	1296.36
410.50	1282.03
410.70	1218.54
410.91	1202.16
411.12	1228.78
411.32	1322.99
411.53	1259.50
411.74	1228.78
411.95	1241.07
412.15	1279.98
412.36	1273.84
412.57	1230.83
412.77	1308.65
412.98	1306.60
413.19	1286.12
413.39	1257.45
413.60	1271.79
413.81	1294.32
414.01	1292.27
414.22	1241.07
414.43	1208.30
414.63	1277.93
414.84	1275.88
415.05	1306.60
415.25	1269.74
415.46	1282.03
415.67	1236.97
415.87	1302.51
416.08	1286.12
416.29	1277.93
416.49	1318.89
416.70	1232.88
416.91	1314.80
417.11	1271.79
417.32	1275.88
417.53	1257.45
417.73	1228.78
417.94	1212.40
418.15	1218.54
418.35	1347.56
418.56	1290.22
418.77	1257.45
418.97	1239.02
419.18	1316.84
419.38	1318.89
419.59	1263.60
419.80	1312.75
420.00	1368.04
420.21	1310.70
420.42	1263.60
420.62	1230.83
420.83	1243.12
421.04	1308.65
421.24	1202.16
421.45	1339.37
421.65	1347.56
421.86	1175.53
422.07	1320.94
422.27	1255.40
422.48	1349.61
422.69	1277.93
422.89	1259.50
423.10	1263.60
423.30	1241.07
423.51	1273.84
423.72	1359.85
423.92	1366.00
424.13	1243.12
424.33	1216.49
424.54	1308.65
424.75	1282.03
424.95	1282.03
425.16	1292.27
425.36	1298.41
425.57	1267.69
425.78	1286.12
425.98	1247.21
426.19	1288.17
426.39	1210.35
426.60	1294.32
426.81	1253.36
427.01	1214.45
427.22	1290.22
427.42	1167.34
427.63	1226.73
427.83	1214.45
428.04	1267.69
428.25	1302.51
428.45	1273.84
428.66	1273.84
428.86	1302.51
429.07	1189.87
429.28	1306.60
429.48	1253.36
429.69	1298.41
429.89	1232.88
430.10	1271.79
430.30	1310.70
430.51	1294.32
430.71	1226.73
430.92	1275.88
431.13	1312.75
431.33	1265.64
431.54	1273.84
431.74	1308.65
431.95	1257.45
432.15	1212.40
432.36	1224.69
432.56	1232.88
432.77	1277.93
432.98	1306.60
433.18	1292.27
433.39	1239.02
433.59	1216.49
433.80	1296.36
434.00	1304.56
434.21	1243.12
434.41	1300.46
434.62	1302.51
434.82	1224.69
435.03	1265.64
435.23	1279.98
435.44	1290.22
435.64	1236.97
435.85	1331.18
436.06	1296.36
436.26	1300.46
436.47	1347.56
436.67	1277.93
436.88	1312.75
437.08	1298.41
437.29	1263.60
437.49	1296.36
437.70	1216.49
437.90	1322.99
438.11	1261.55
438.31	1302.51
438.52	1320.94
438.72	1290.22
438.93	1261.55
439.13	1286.12
439.34	1329.13
439.54	1325.04
439.75	1216.49
439.95	1239.02
440.16	1306.60
440.36	1239.02
440.57	1282.03
440.77	1337.32
440.98	1277.93
441.18	1312.75
441.39	1308.65
441.59	1267.69
441.80	1298.41
442.00	1298.41
442.21	1282.03
442.41	1282.03
442.62	1191.92
442.82	1243.12
443.02	1347.56
443.23	1247.21
443.43	1269.74
443.64	1245.16
443.84	1214.45
444.05	1216.49
444.25	1249.26
444.46	1228.78
444.66	1255.40
444.87	1265.64
445.07	1230.83
445.28	1200.11
445.48	1251.31
445.69	1226.73
445.89	1339.37
446.09	1273.84
446.30	1259.50
446.50	1275.88
446.71	1263.60
446.91	1234.93
447.12	1296.36
447.32	1337.32
447.53	1310.70
447.73	1318.89
447.93	1288.17
448.14	1279.98
448.34	1173.49
448.55	1255.40
448.75	1322.99
448.96	1298.41
449.16	1284.08
449.36	1224.69
449.57	1322.99
449.77	1261.55
449.98	1290.22
450.18	1214.45
450.39	1316.84
450.59	1290.22
450.79	1269.74
451.00	1249.26
451.20	1304.56
451.41	1298.41
451.61	1322.99
451.81	1316.84
452.02	1265.64
452.22	1265.64
452.43	1353.71
452.63	1239.02
452.84	1277.93
453.04	1349.61
453.24	1279.98
453.45	1279.98
453.65	1273.84
453.86	1347.56
454.06	1322.99
454.26	1267.69
454.47	1279.98
454.67	1298.41
454.87	1245.16
455.08	1253.36
455.28	1230.83
455.49	1269.74
455.69	1251.31
455.89	1296.36
456.10	1292.27
456.30	1216.49
456.51	1372.14
456.71	1247.21
456.91	1277.93
457.12	1300.46
457.32	1236.97
457.52	1296.36
457.73	1232.88
457.93	1249.26
458.14	1292.27
458.34	1255.40
458.54	1222.64
458.75	1286.12
458.95	1265.64
459.15	1308.65
459.36	1232.88
459.56	1308.65
459.76	1316.84
459.97	1247.21
460.17	1226.73
460.37	1277.93
460.58	1230.83
460.78	1277.93
460.99	1234.93
461.19	1241.07
461.39	1243.12
461.60	1312.75
461.80	1302.51
462.00	1294.32
462.21	1277.93
462.41	1300.46
462.61	1306.60
462.82	1255.40
463.02	1275.88
463.22	1239.02
463.43	1257.45
463.63	1228.78
463.83	1226.73
464.04	1257.45
464.24	1245.16
464.44	1273.84
464.64	1294.32
464.85	1275.88
465.05	1261.55
465.25	1310.70
465.46	1318.89
465.66	1312.75
465.86	1312.75
466.07	1290.22
466.27	1302.51
466.47	1265.64
466.68	1376.24
466.88	1288.17
467.08	1220.59
467.29	1265.64
467.49	1306.60
467.69	1243.12
467.89	1267.69
468.10	1298.41
468.30	1288.17
468.50	1257.45
468.71	1265.64
468.91	1265.64
469.11	1292.27
469.31	1288.17
469.52	1271.79
469.72	1302.51
469.92	1259.50
470.13	1220.59
470.33	1267.69
470.53	1236.97
470.73	1271.79
470.94	1312.75
471.14	1263.60
471.34	1216.49
471.54	1253.36
471.75	1288.17
471.95	1259.50
472.15	1308.65
472.36	1241.07
472.56	1273.84
472.76	1189.87
472.96	1259.50
473.17	1261.55
473.37	1241.07
473.57	1253.36
473.77	1279.98
473.98	1327.08
474.18	1271.79
474.38	1275.88
474.58	1257.45
474.79	1277.93
474.99	1306.60
475.19	1228.78
475.39	1331.18
475.60	1269.74
475.80	1290.22
476.00	1253.36
476.20	1322.99
476.41	1253.36
476.61	1310.70
476.81	1267.69
477.01	1294.32
477.21	1271.79
477.42	1232.88
477.62	1253.36
477.82	1232.88
478.02	1212.40
478.23	1251.31
478.43	1234.93
478.63	1216.49
478.83	1282.03
479.03	1302.51
479.24	1325.04
479.44	1198.06
479.64	1249.26
479.84	1275.88
480.04	1181.68
480.25	1298.41
480.45	1263.60
480.65	1306.60
480.85	1284.08
481.06	1220.59
481.26	1245.16
481.46	1249.26
481.66	1267.69
481.86	1239.02
482.06	1257.45
482.27	1245.16
482.47	1290.22
482.67	1292.27
482.87	1331.18
483.07	1341.42
483.28	1316.84
483.48	1257.45
483.68	1126.38
483.88	1273.84
484.08	1236.97
484.29	1222.64
484.49	1288.17
484.69	1218.54
484.89	1255.40
485.09	1306.60
485.29	1200.11
485.50	1306.60
485.70	1220.59
485.90	1249.26
486.10	1273.84
486.30	1273.84
486.50	1224.69
486.71	1234.93
486.91	1265.64
487.11	1302.51
487.31	1236.97
487.51	1302.51
487.71	1304.56
487.91	1294.32
488.12	1271.79
488.32	1318.89
488.52	1247.21
488.72	1300.46
488.92	1249.26
489.12	1243.12
489.32	1271.79
489.53	1251.31
489.73	1251.31
489.93	1245.16
490.13	1290.22
490.33	1312.75
490.53	1286.12
490.73	1265.64
490.94	1247.21
491.14	1355.76
491.34	1273.84
491.54	1271.79
491.74	1288.17
491.94	1265.64
492.14	1253.36
492.34	1282.03
492.54	1273.84
492.75	1269.74
492.95	1284.08
493.15	1279.98
493.35	1318.89
493.55	1241.07
493.75	1363.95
493.95	1257.45
494.15	1312.75
494.35	1290.22
494.56	1232.88
494.76	1234.93
494.96	1267.69
495.16	1253.36
495.36	1284.08
495.56	1232.88
495.76	1261.55
495.96	1255.40
496.16	1300.46
496.36	1298.41
496.56	1320.94
496.77	1292.27
496.97	1241.07
497.17	1306.60
497.37	1273.84
497.57	1259.50
497.77	1279.98
497.97	1249.26
498.17	1265.64
498.37	1312.75
498.57	1292.27
498.77	1279.98
498.97	1247.21
499.17	1308.65
499.38	1255.40
499.58	1261.55
499.78	1284.08
499.98	1312.75
500.18	1331.18
500.38	1310.70
500.58	1345.52
500.78	1288.17
500.98	1251.31
501.18	1236.97
501.38	1247.21
501.58	1230.83
501.78	1312.75
501.98	1310.70
502.18	1271.79
502.38	1308.65
502.58	1284.08
502.78	1277.93
502.98	1294.32
503.18	1267.69
503.38	1234.93
503.59	1292.27
503.79	1308.65
503.99	1265.64
504.19	1296.36
504.39	1310.70
504.59	1296.36
504.79	1263.60
504.99	1304.56
505.19	1267.69
505.39	1314.80
505.59	1310.70
505.79	1302.51
505.99	1288.17
506.19	1208.30
506.39	1241.07
506.59	1259.50
506.79	1236.97
506.99	1318.89
507.19	1327.08
507.39	1314.80
507.59	1286.12
507.79	1259.50
507.99	1322.99
508.19	1273.84
508.39	1298.41
508.59	1277.93
508.79	1263.60
508.99	1216.49
509.19	1277.93
509.39	1284.08
509.59	1308.65
509.79	1325.04
509.99	1267.69
510.19	1337.32
510.39	1208.30
510.59	1322.99
510.79	1304.56
510.99	1247.21
511.19	1288.17
511.39	1320.94
511.59	1290.22
511.79	1290.22
511.99	1325.04
512.19	1220.59
512.38	1261.55
512.58	1284.08
512.78	1296.36
512.98	1232.88
513.18	1296.36
513.38	1290.22
513.58	1277.93
513.78	1292.27
513.98	1271.79
514.18	1308.65
514.38	1247.21
514.58	1230.83
514.78	1292.27
514.98	1314.80
515.18	1306.60
515.38	1241.07
515.58	1327.08
515.78	1275.88
515.98	1263.60
516.18	1302.51
516.38	1282.03
516.57	1286.12
516.77	1282.03
516.97	1292.27
517.17	1329.13
517.37	1202.16
517.57	1300.46
517.77	1298.41
517.97	1339.37
518.17	1310.70
518.37	1216.49
518.57	1249.26
518.77	1294.32
518.97	1232.88
519.16	1257.45
519.36	1286.12
519.56	1247.21
519.76	1224.69
519.96	1228.78
520.16	1304.56
520.36	1296.36
520.56	1308.65
520.76	1286.12
520.96	1288.17
521.16	1298.41
521.35	1255.40
521.55	1343.47
521.75	1341.42
521.95	1337.32
522.15	1308.65
522.35	1277.93
522.55	1230.83
522.75	1271.79
522.95	1230.83
523.14	1167.34
523.34	1288.17
523.54	1302.51
523.74	1290.22
523.94	1236.97
524.14	1312.75
524.34	1304.56
524.54	1236.97
524.73	1210.35
524.93	1329.13
525.13	1275.88
525.33	1320.94
525.53	1290.22
525.73	1247.21
525.93	1322.99
526.13	1300.46
526.32	1249.26
526.52	1257.45
526.72	1273.84
526.92	1257.45
527.12	1232.88
527.32	1279.98
527.52	1296.36
527.71	1265.64
527.91	1261.55
528.11	1286.12
528.31	1288.17
528.51	1181.68
528.71	1331.18
528.90	1263.60
529.10	1241.07
529.30	1243.12
529.50	1318.89
529.70	1320.94
529.90	1290.22
530.09	1304.56
530.29	1292.27
530.49	1296.36
530.69	1265.64
530.89	1316.84
531.09	1318.89
531.28	1255.40
531.48	1226.73
531.68	1347.56
531.88	1296.36
532.08	1282.03
532.28	1329.13
532.47	1271.79
532.67	1294.32
532.87	1351.66
533.07	1329.13
533.27	1245.16
533.46	1351.66
533.66	1294.32
533.86	1279.98
534.06	1269.74
534.26	1325.04
534.45	1304.56
534.65	1288.17
534.85	1292.27
535.05	1345.52
535.25	1257.45
535.44	1239.02
535.64	1349.61
535.84	1361.90
536.04	1243.12
536.24	1251.31
536.43	1347.56
536.63	1267.69
536.83	1290.22
537.03	1216.49
537.22	1329.13
537.42	1298.41
537.62	1310.70
537.82	1292.27
538.02	1298.41
538.21	1253.36
538.41	1275.88
538.61	1218.54
538.81	1304.56
539.00	1232.88
539.20	1236.97
539.40	1333.23
539.60	1259.50
539.79	1257.45
539.99	1333.23
540.19	1312.75
540.39	1345.52
540.58	1275.88
540.78	1234.93
540.98	1310.70
541.18	1355.76
541.37	1279.98
541.57	1273.84
541.77	1241.07
541.97	1318.89
542.16	1282.03
542.36	1351.66
542.56	1327.08
542.76	1249.26
542.95	1306.60
543.15	1273.84
543.35	1337.32
543.54	1282.03
543.74	1316.84
543.94	1232.88
544.14	1253.36
544.33	1314.80
544.53	1273.84
544.73	1196.01
544.93	1327.08
545.12	1282.03
545.32	1314.80
545.52	1243.12
545.71	1279.98
545.91	1271.79
546.11	1327.08
546.30	1261.55
546.50	1376.24
546.70	1224.69
546.90	1224.69
547.09	1304.56
547.29	1279.98
547.49	1335.28
547.68	1282.03
547.88	1241.07
548.08	1263.60
548.27	1349.61
548.47	1320.94
548.67	1304.56
548.87	1239.02
549.06	1296.36
549.26	1349.61
549.46	1310.70
549.65	1316.84
549.85	1335.28
550.05	1310.70
550.24	1253.36
550.44	1298.41
550.64	1331.18
550.83	1282.03
551.03	1363.95
551.23	1353.71
551.42	1282.03
551.62	1255.40
551.82	1302.51
552.01	1267.69
552.21	1290.22
552.41	1355.76
552.60	1282.03
552.80	1253.36
553.00	1259.50
553.19	1284.08
553.39	1263.60
553.59	1277.93
553.78	1273.84
553.98	1345.52
554.17	1282.03
554.37	1241.07
554.57	1298.41
554.76	1249.26
554.96	1310.70
555.16	1230.83
555.35	1265.64
555.55	1337.32
555.75	1282.03
555.94	1277.93
556.14	1271.79
556.33	1298.41
556.53	1363.95
556.73	1300.46
556.92	1304.56
557.12	1282.03
557.32	1265.64
557.51	1259.50
557.71	1261.55
557.90	1296.36
558.10	1249.26
558.30	1316.84
558.49	1286.12
558.69	1288.17
558.88	1294.32
559.08	1271.79
559.28	1243.12
559.47	1208.30
559.67	1234.93
559.86	1349.61
560.06	1273.84
560.26	1286.12
560.45	1308.65
560.65	1253.36
560.84	1320.94
561.04	1224.69
561.24	1284.08
561.43	1243.12
561.63	1265.64
561.82	1310.70
562.02	1191.92
562.22	1275.88
562.41	1224.69
562.61	1312.75
562.80	1265.64
563.00	1355.76
563.19	1294.32
563.39	1325.04
563.59	1290.22
563.78	1304.56
563.98	1263.60
564.17	1271.79
564.37	1234.93
564.56	1343.47
564.76	1310.70
564.96	1181.68
565.15	1294.32
565.35	1279.98
565.54	1249.26
565.74	1347.56
565.93	1345.52
566.13	1386.47
566.32	1302.51
566.52	1286.12
566.71	1218.54
566.91	1312.75
567.11	1296.36
567.30	1292.27
567.50	1271.79
567.69	1302.51
567.89	1243.12
568.08	1329.13
568.28	1251.31
568.47	1247.21
568.67	1251.31
568.86	1282.03
569.06	1204.21
569.25	1279.98
569.45	1273.84
569.64	1251.31
569.84	1284.08
570.04	1316.84
570.23	1228.78
570.43	1288.17
570.62	1253.36
570.82	1327.08
571.01	1271.79
571.21	1222.64
571.40	1257.45
571.60	1370.09
571.79	1306.60
571.99	1267.69
572.18	1275.88
572.38	1413.10
572.57	1277.93
572.77	1282.03
572.96	1361.90
573.16	1232.88
573.35	1351.66
573.55	1241.07
573.74	1302.51
573.94	1265.64
574.13	1294.32
574.33	1273.84
574.52	1212.40
574.71	1335.28
574.91	1316.84
575.10	1247.21
575.30	1322.99
575.49	1245.16
575.69	1224.69
575.88	1271.79
576.08	1286.12
576.27	1314.80
576.47	1234.93
576.66	1310.70
576.86	1284.08
577.05	1269.74
577.25	1269.74
577.44	1306.60
577.64	1396.71
577.83	1277.93
578.02	1282.03
578.22	1247.21
578.41	1282.03
578.61	1304.56
578.80	1279.98
579.00	1322.99
579.19	1257.45
579.39	1255.40
579.58	1329.13
579.77	1222.64
579.97	1251.31
580.16	1277.93
580.36	1325.04
580.55	1292.27
580.75	1366.00
580.94	1290.22
581.13	1296.36
581.33	1298.41
581.52	1253.36
581.72	1263.60
581.91	1290.22
582.11	1312.75
582.30	1224.69
582.49	1275.88
582.69	1343.47
582.88	1279.98
583.08	1284.08
583.27	1306.60
583.47	1282.03
583.66	1230.83
583.85	1277.93
584.05	1249.26
584.24	1308.65
584.44	1255.40
584.63	1312.75
584.82	1232.88
585.02	1302.51
585.21	1288.17
585.41	1341.42
585.60	1359.85
585.79	1261.55
585.99	1271.79
586.18	1247.21
586.37	1306.60
586.57	1275.88
586.76	1306.60
586.96	1187.82
587.15	1300.46
587.34	1257.45
587.54	1224.69
587.73	1361.90
587.93	1277.93
588.12	1230.83
588.31	1300.46
588.51	1292.27
588.70	1329.13
588.89	1261.55
589.09	1245.16
589.28	1292.27
589.47	1269.74
589.67	1320.94
589.86	1331.18
590.06	1282.03
590.25	1267.69
590.44	1261.55
590.64	1167.34
590.83	1300.46
591.02	1331.18
591.22	1253.36
591.41	1290.22
591.60	1288.17
591.80	1226.73
591.99	1304.56
592.18	1245.16
592.38	1249.26
592.57	1290.22
592.76	1296.36
592.96	1327.08
593.15	1314.80
593.34	1236.97
593.54	1314.80
593.73	1349.61
593.92	1290.22
594.12	1263.60
594.31	1318.89
594.50	1271.79
594.70	1271.79
594.89	1298.41
595.08	1198.06
595.28	1259.50
595.47	1265.64
595.66	1314.80
595.86	1273.84
596.05	1292.27
596.24	1282.03
596.43	1290.22
596.63	1302.51
596.82	1222.64
597.01	1310.70
597.21	1331.18
597.40	1267.69
597.59	1269.74
597.79	1255.40
597.98	1310.70
598.17	1271.79
598.36	1290.22
598.56	1239.02
598.75	1341.42
598.94	1220.59
599.14	1304.56
599.33	1308.65
599.52	1282.03
599.71	1284.08
599.91	1222.64
600.10	1306.60
600.29	1331.18
600.48	1245.16
600.68	1359.85
600.87	1345.52
601.06	1322.99
601.26	1294.32
601.45	1380.33
601.64	1265.64
601.83	1306.60
602.03	1216.49
602.22	1269.74
602.41	1312.75
602.60	1325.04
602.80	1277.93
602.99	1339.37
603.18	1273.84
603.37	1304.56
603.57	1220.59
603.76	1300.46
603.95	1304.56
604.14	1310.70
604.34	1302.51
604.53	1322.99
604.72	1243.12
604.91	1261.55
605.10	1239.02
605.30	1271.79
605.49	1345.52
605.68	1298.41
605.87	1277.93
606.07	1216.49
606.26	1267.69
606.45	1196.01
606.64	1290.22
606.84	1298.41
607.03	1351.66
607.22	1263.60
607.41	1263.60
607.60	1255.40
607.80	1300.46
607.99	1325.04
608.18	1341.42
608.37	1320.94
608.56	1343.47
608.76	1318.89
608.95	1249.26
609.14	1351.66
609.33	1275.88
609.52	1322.99
609.72	1259.50
609.91	1290.22
610.10	1279.98
610.29	1302.51
610.48	1253.36
610.68	1296.36
610.87	1300.46
611.06	1222.64
611.25	1232.88
611.44	1286.12
611.63	1241.07
611.83	1282.03
612.02	1269.74
612.21	1308.65
612.40	1382.38
612.59	1236.97
612.79	1306.60
612.98	1306.60
613.17	1265.64
613.36	1275.88
613.55	1290.22
613.74	1265.64
613.93	1265.64
614.13	1230.83
614.32	1273.84
614.51	1239.02
614.70	1279.98
614.89	1306.60
615.08	1294.32
615.28	1314.80
615.47	1304.56
615.66	1193.97
615.85	1310.70
616.04	1298.41
616.23	1294.32
616.42	1273.84
616.62	1263.60
616.81	1234.93
617.00	1263.60
617.19	1392.62
617.38	1218.54
617.57	1284.08
617.76	1249.26
617.95	1234.93
618.15	1341.42
618.34	1331.18
618.53	1269.74
618.72	1368.04
618.91	1314.80
619.10	1327.08
619.29	1333.23
619.48	1263.60
619.68	1314.80
619.87	1376.24
620.06	1226.73
620.25	1222.64
620.44	1312.75
620.63	1312.75
620.82	1275.88
621.01	1325.04
621.20	1304.56
621.39	1257.45
621.59	1218.54
621.78	1318.89
621.97	1265.64
622.16	1273.84
622.35	1263.60
622.54	1247.21
622.73	1329.13
622.92	1212.40
623.11	1271.79
623.30	1306.60
623.49	1376.24
623.68	1318.89
623.88	1275.88
624.07	1267.69
624.26	1249.26
624.45	1296.36
624.64	1292.27
624.83	1214.45
625.02	1251.31
625.21	1351.66
625.40	1322.99
625.59	1359.85
625.78	1261.55
625.97	1333.23
626.16	1284.08
626.35	1183.73
626.54	1310.70
626.74	1261.55
626.93	1298.41
627.12	1298.41
627.31	1263.60
627.50	1288.17
627.69	1320.94
627.88	1345.52
628.07	1273.84
628.26	1298.41
628.45	1290.22
628.64	1245.16
628.83	1269.74
629.02	1308.65
629.21	1337.32
629.40	1286.12
629.59	1304.56
629.78	1284.08
629.97	1300.46
630.16	1322.99
630.35	1279.98
630.54	1322.99
630.73	1251.31
630.92	1306.60
631.11	1343.47
631.30	1343.47
631.49	1341.42
631.68	1607.66
631.87	2340.83
632.06	3960.77
632.25	3794.89
632.44	4861.88
632.63	6494.11
632.82	9195.38
633.01	16312.07
633.20	38497.72
633.39	53542.10
633.58	48311.58
633.77	32251.41
633.96	16822.02
634.15	8075.14
634.34	5408.69
634.53	4294.59
634.72	2922.45
634.91	2109.41
635.10	1906.66
635.29	1802.21
635.48	1644.52
635.67	1677.29
635.86	1503.21
636.05	1488.87
636.24	1394.67
636.43	1368.04
636.62	1312.75
636.81	1339.37
637.00	1370.09
637.19	1249.26
637.38	1320.94
637.57	1310.70
637.76	1331.18
637.95	1286.12
638.14	1249.26
638.33	1245.16
638.52	1271.79
638.71	1318.89
638.89	1376.24
639.08	1341.42
639.27	1282.03
639.46	1366.00
639.65	1306.60
639.84	1236.97
640.03	1290.22
640.22	1304.56
640.41	1292.27
640.60	1245.16
640.79	1290.22
640.98	1308.65
641.17	1296.36
641.36	1361.90
641.55	1345.52
641.74	1247.21
641.92	1322.99
642.11	1339.37
642.30	1349.61
642.49	1222.64
642.68	1308.65
642.87	1310.70
643.06	1222.64
643.25	1296.36
643.44	1308.65
643.63	1322.99
643.82	1333.23
644.00	1255.40
644.19	1271.79
644.38	1355.76
644.57	1282.03
644.76	1345.52
644.95	1306.60
645.14	1286.12
645.33	1355.76
645.52	1208.30
645.71	1286.12
645.89	1224.69
646.08	1257.45
646.27	1345.52
646.46	1329.13
646.65	1259.50
646.84	1294.32
647.03	1290.22
647.22	1241.07
647.40	1296.36
647.59	1310.70
647.78	1247.21
647.97	1333.23
648.16	1255.40
648.35	1275.88
648.54	1275.88
648.73	1302.51
648.91	1228.78
649.10	1292.27
649.29	1310.70
649.48	1271.79
649.67	1255.40
649.86	1339.37
650.05	1236.97
650.23	1322.99
650.42	1230.83
650.61	1234.93
650.80	1333.23
650.99	1296.36
651.18	1236.97
651.36	1279.98
651.55	1292.27
651.74	1247.21
651.93	1294.32
652.12	1253.36
652.31	1277.93
652.49	1255.40
652.68	1288.17
652.87	1261.55
653.06	1261.55
653.25	1359.85
653.44	1239.02
653.62	1247.21
653.81	1263.60
654.00	1224.69
654.19	1296.36
654.38	1269.74
654.56	1263.60
654.75	1286.12
654.94	1267.69
655.13	1249.26
655.32	1236.97
655.51	1255.40
655.69	1310.70
655.88	1331.18
656.07	1304.56
656.26	1218.54
656.45	1312.75
656.63	1247.21
656.82	1222.64
657.01	1378.28
657.20	1292.27
657.38	1314.80
657.57	1241.07
657.76	1292.27
657.95	1220.59
658.14	1292.27
658.32	1202.16
658.51	1298.41
658.70	1310.70
658.89	1269.74
659.08	1288.17
659.26	1296.36
659.45	1273.84
659.64	1236.97
659.83	1249.26
660.01	1290.22
660.20	1366.00
660.39	1306.60
660.58	1296.36
660.76	1312.75
660.95	1318.89
661.14	1200.11
661.33	1196.01
661.51	1288.17
661.70	1296.36
661.89	1267.69
662.08	1335.28
662.26	1241.07
662.45	1300.46
662.64	1302.51
662.83	1257.45
663.01	1298.41
663.20	1294.32
663.39	1271.79
663.58	1322.99
663.76	1273.84
663.95	1269.74
664.14	1304.56
664.32	1257.45
664.51	1325.04
664.70	1226.73
664.89	1314.80
665.07	1298.41
665.26	1251.31
665.45	1273.84
665.64	1222.64
665.82	1310.70
666.01	1298.41
666.20	1290.22
666.38	1234.93
666.57	1269.74
666.76	1177.58
666.95	1310.70
667.13	1288.17
667.32	1292.27
667.51	1310.70
667.69	1318.89
667.88	1282.03
668.07	1218.54
668.25	1249.26
668.44	1298.41
668.63	1318.89
668.81	1220.59
669.00	1267.69
669.19	1265.64
669.38	1312.75
669.56	1249.26
669.75	1275.88
669.94	1296.36
670.12	1239.02
670.31	1241.07
670.50	1337.32
670.68	1271.79
670.87	1267.69
671.06	1265.64
671.24	1247.21
671.43	1337.32
671.62	1245.16
671.80	1327.08
671.99	1318.89
672.18	1210.35
672.36	1368.04
672.55	1327.08
672.74	1304.56
672.92	1320.94
673.11	1263.60
673.29	1302.51
673.48	1302.51
673.67	1241.07
673.85	1341.42
674.04	1206.25
674.23	1308.65
674.41	1325.04
674.60	1325.04
674.79	1298.41
674.97	1282.03
675.16	1253.36
675.34	1263.60
675.53	1277.93
675.72	1304.56
675.90	1296.36
676.09	1325.04
676.28	1269.74
676.46	1230.83
676.65	1298.41
676.83	1243.12
677.02	1234.93
677.21	1220.59
677.39	1288.17
677.58	1265.64
677.77	1245.16
677.95	1253.36
678.14	1234.93
678.32	1243.12
678.51	1292.27
678.70	1363.95
678.88	1263.60
679.07	1232.88
679.25	1284.08
679.44	1308.65
679.63	1216.49
679.81	1284.08
680.00	1290.22
680.18	1290.22
680.37	1261.55
680.55	1263.60
680.74	1275.88
680.93	1267.69
681.11	1251.31
681.30	1282.03
681.48	1306.60
681.67	1294.32
681.85	1320.94
682.04	1232.88
682.23	1253.36
682.41	1257.45
682.60	1277.93
682.78	1251.31
682.97	1216.49
683.15	1257.45
683.34	1232.88
683.53	1257.45
683.71	1284.08
683.90	1247.21
684.08	1216.49
684.27	1241.07
684.45	1239.02
684.64	1185.77
684.82	1251.31
685.01	1298.41
685.19	1245.16
685.38	1288.17
685.57	1300.46
685.75	1267.69
685.94	1269.74
686.12	1279.98
686.31	1261.55
686.49	1275.88
686.68	1243.12
686.86	1271.79
687.05	1239.02
687.23	1249.26
687.42	1265.64
687.60	1279.98
687.79	1292.27
687.97	1298.41
688.16	1294.32
688.34	1269.74
688.53	1200.11
688.71	1269.74
688.90	1261.55
689.08	1325.04
689.27	1263.60
689.45	1259.50
689.64	1232.88
689.82	1216.49
690.01	1279.98
690.19	1282.03
690.38	1304.56
690.56	1294.32
690.75	1222.64
690.93	1347.56
691.12	1189.87
691.30	1257.45
691.49	1304.56
691.67	1351.66
691.86	1224.69
692.04	1214.45
692.23	1228.78
692.41	1206.25
692.60	1357.80
692.78	1376.24
692.97	1222.64
693.15	1320.94
693.34	1308.65
693.52	1327.08
693.71	1320.94
693.89	1290.22
694.08	1325.04
694.26	1206.25
694.44	1241.07
694.63	1331.18
694.81	1263.60
695.00	1269.74
695.18	1236.97
695.37	1298.41
695.55	1351.66
695.74	1277.93
695.92	1294.32
696.10	1196.01
696.29	1273.84
696.47	1327.08
696.66	1226.73
696.84	1253.36
697.03	1169.39
697.21	1347.56
697.40	1304.56
697.58	1316.84
697.76	1263.60
697.95	1208.30
698.13	1327.08
698.32	1230.83
698.50	1232.88
698.68	1249.26
698.87	1273.84
699.05	1150.96
699.24	1279.98
699.42	1261.55
699.61	1273.84
699.79	1236.97
699.97	1261.55
700.16	1290.22
700.34	1292.27
700.53	1312.75
700.71	1273.84
700.89	1310.70
701.08	1263.60
701.26	1239.02
701.45	1269.74
701.63	1265.64
701.81	1253.36
702.00	1322.99
702.18	1214.45
702.37	1241.07
702.55	1275.88
702.73	1208.30
702.92	1320.94
703.10	1257.45
703.28	1257.45
703.47	1153.01
703.65	1286.12
703.84	1265.64
704.02	1249.26
704.20	1335.28
704.39	1202.16
704.57	1191.92
704.75	1245.16
704.94	1331.18
705.12	1316.84
705.30	1259.50
705.49	1302.51
705.67	1302.51
705.86	1204.21
706.04	1288.17
706.22	1243.12
706.41	1255.40
706.59	1296.36
706.77	1263.60
706.96	1296.36
707.14	1296.36
707.32	1228.78
707.51	1273.84
707.69	1296.36
707.87	1271.79
708.06	1239.02
708.24	1271.79
708.42	1312.75
708.61	1298.41
708.79	1200.11
708.97	1345.52
709.16	1267.69
709.34	1273.84
709.52	1247.21
709.71	1245.16
709.89	1288.17
710.07	1292.27
710.26	1263.60
710.44	1290.22
710.62	1316.84
710.80	1308.65
710.99	1220.59
711.17	1208.30
711.35	1257.45
711.54	1310.70
711.72	1296.36
711.90	1245.16
712.09	1273.84
712.27	1306.60
712.45	1316.84
712.63	1263.60
712.82	1294.32
713.00	1263.60
713.18	1273.84
713.37	1300.46
713.55	1241.07
713.73	1288.17
713.91	1241.07
714.10	1249.26
714.28	1290.22
714.46	1304.56
714.65	1370.09
714.83	1249.26
715.01	1230.83
715.19	1224.69
715.38	1277.93
715.56	1212.40
715.74	1314.80
715.92	1232.88
716.11	1316.84
716.29	1302.51
716.47	1236.97
716.65	1314.80
716.84	1224.69
717.02	1253.36
717.20	1310.70
717.38	1312.75
717.57	1241.07
717.75	1247.21
717.93	1290.22
718.11	1255.40
718.30	1224.69
718.48	1267.69
718.66	1316.84
718.84	1222.64
719.03	1275.88
719.21	1261.55
719.39	1318.89
719.57	1302.51
719.75	1261.55
719.94	1277.93
720.12	1226.73
720.30	1251.31
720.48	1279.98
720.67	1314.80
720.85	1245.16
721.03	1261.55
721.21	1179.63
721.39	1191.92
721.58	1261.55
721.76	1273.84
721.94	1204.21
722.12	1396.71
722.30	1261.55
722.49	1275.88
722.67	1267.69
722.85	1298.41
723.03	1298.41
723.21	1224.69
723.40	1277.93
723.58	1232.88
723.76	1255.40
723.94	1284.08
724.12	1292.27
724.30	1318.89
724.49	1284.08
724.67	1327.08
724.85	1234.93
725.03	1222.64
725.21	1245.16
725.40	1204.21
725.58	1335.28
725.76	1271.79
725.94	1271.79
726.12	1308.65
726.30	1357.80
726.49	1249.26
726.67	1269.74
726.85	1241.07
727.03	1275.88
727.21	1279.98
727.39	1232.88
727.57	1243.12
727.76	1306.60
727.94	1288.17
728.12	1251.31
728.30	1220.59
728.48	1249.26
728.66	1314.80
728.84	1253.36
729.03	1214.45
729.21	1292.27
729.39	1290.22
729.57	1243.12
729.75	1204.21
729.93	1290.22
730.11	1282.03
730.30	1263.60
730.48	1265.64
730.66	1277.93
730.84	1265.64
731.02	1249.26
731.20	1273.84
731.38	1271.79
731.56	1259.50
731.74	1196.01
731.93	1232.88
732.11	1279.98
732.29	1271.79
732.47	1224.69
732.65	1300.46
732.83	1230.83
733.01	1292.27
733.19	1222.64
733.37	1206.25
733.56	1286.12
733.74	1333.23
733.92	1257.45
734.10	1292.27
734.28	1247.21
734.46	1210.35
734.64	1224.69
734.82	1253.36
735.00	1226.73
735.18	1200.11
735.36	1234.93
735.54	1245.16
735.73	1271.79
735.91	1294.32
736.09	1275.88
736.27	1306.60
736.45	1204.21
736.63	1243.12
736.81	1191.92
736.99	1282.03
737.17	1241.07
737.35	1269.74
737.53	1292.27
737.71	1300.46
737.89	1220.59
738.07	1175.53
738.25	1247.21
738.43	1257.45
738.61	1314.80
738.80	1251.31
738.98	1349.61
739.16	1275.88
739.34	1251.31
739.52	1216.49
739.70	1296.36
739.88	1214.45
740.06	1325.04
740.24	1290.22
740.42	1261.55
740.60	1161.20
740.78	1282.03
740.96	1196.01
741.14	1273.84
741.32	1335.28
741.50	1290.22
741.68	1302.51
741.86	1355.76
742.04	1306.60
742.22	1327.08
742.40	1316.84
742.58	1241.07
742.76	1277.93
742.94	1257.45
743.12	1228.78
743.30	1271.79
743.48	1359.85
743.66	1300.46
743.84	1294.32
744.02	1290.22
744.20	1175.53
744.38	1292.27
744.56	1232.88
744.74	1257.45
744.92	1337.32
745.10	1230.83
745.28	1273.84
745.46	1165.29
745.64	1327.08
745.82	1261.55
746.00	1302.51
746.18	1292.27
746.36	1163.25
746.54	1253.36
746.72	1298.41
746.90	1279.98
747.08	1292.27
747.26	1284.08
747.44	1286.12
747.62	1224.69
747.80	1343.47
747.98	1302.51
748.15	1267.69
748.33	1284.08
748.51	1314.80
748.69	1214.45
748.87	1261.55
749.05	1318.89
749.23	1200.11
749.41	1294.32
749.59	1239.02
749.77	1300.46
749.95	1284.08
750.13	1261.55
750.31	1245.16
750.49	1269.74
750.67	1271.79
750.85	1304.56
751.03	1279.98
751.20	1273.84
751.38	1247.21
751.56	1337.32
751.74	1325.04
751.92	1320.94
752.10	1249.26
752.28	1290.22
752.46	1243.12
752.64	1251.31
752.82	1282.03
753.00	1267.69
753.18	1333.23
753.35	1327.08
753.53	1329.13
753.71	1234.93
753.89	1294.32
754.07	1214.45
754.25	1347.56
754.43	1306.60
754.61	1222.64
754.79	1357.80
754.97	1306.60
755.14	1290.22
755.32	1247.21
755.50	1198.06
755.68	1294.32
755.86	1265.64
756.04	1241.07
756.22	1341.42
756.40	1339.37
756.57	1267.69
756.75	1241.07
756.93	1269.74
757.11	1329.13
757.29	1253.36
757.47	1226.73
757.65	1267.69
757.82	1267.69
758.00	1279.98
758.18	1226.73
758.36	1327.08
758.54	1298.41
758.72	1290.22
758.90	1294.32
759.07	1249.26
759.25	1239.02
759.43	1294.32
759.61	1259.50
759.79	1171.44
759.97	1343.47
760.15	1282.03
760.32	1298.41
760.50	1265.64
760.68	1261.55
760.86	1226.73
761.04	1263.60
761.22	1318.89
761.39	1214.45
761.57	1271.79
761.75	1284.08
761.93	1298.41
762.11	1329.13
762.28	1261.55
762.46	1322.99
762.64	1226.73
762.82	1204.21
763.00	1294.32
763.18	1288.17
763.35	1296.36
763.53	1232.88
763.71	1286.12
763.89	1265.64
764.07	1300.46
764.24	1279.98
764.42	1251.31
764.60	1216.49
764.78	1185.77
764.96	1288.17
765.13	1304.56
765.31	1312.75
765.49	1257.45
765.67	1288.17
765.84	1224.69
766.02	1175.53
766.20	1343.47
766.38	1343.47
766.56	1171.44
766.73	1271.79
766.91	1298.41
767.09	1255.40
767.27	1255.40
767.44	1368.04
767.62	1251.31
767.80	1257.45
767.98	1249.26
768.15	1277.93
768.33	1290.22
768.51	1306.60
768.69	1284.08
768.87	1279.98
769.04	1236.97
769.22	1320.94
769.40	1312.75
769.58	1282.03
769.75	1263.60
769.93	1273.84
770.11	1251.31
770.28	1253.36
770.46	1204.21
770.64	1255.40
770.82	1265.64
770.99	1269.74
771.17	1200.11
771.35	1296.36
771.53	1245.16
771.70	1265.64
771.88	1255.40
772.06	1208.30
772.23	1288.17
772.41	1247.21
772.59	1273.84
772.77	1249.26
772.94	1173.49
773.12	1265.64
773.30	1271.79
773.47	1218.54
773.65	1255.40
773.83	1247.21
774.01	1300.46
774.18	1255.40
774.36	1239.02
774.54	1253.36
774.71	1290.22
774.89	1234.93
775.07	1282.03
775.24	1261.55
775.42	1279.98
775.60	1251.31
775.78	1204.21
775.95	1269.74
776.13	1253.36
776.31	1218.54
776.48	1236.97
776.66	1249.26
776.84	1241.07
777.01	1204.21
777.19	1257.45
777.37	1200.11
777.54	1292.27
777.72	1249.26
777.90	1341.42
778.07	1257.45
778.25	1320.94
778.43	1308.65
778.60	1263.60
778.78	1292.27
778.96	1316.84
779.13	1277.93
779.31	1302.51
779.49	1245.16
779.66	1263.60
779.84	1259.50
780.01	1269.74
780.19	1216.49
780.37	1275.88
780.54	1306.60
780.72	1216.49
780.90	1236.97
781.07	1273.84
781.25	1271.79
781.43	1259.50
781.60	1296.36
781.78	1351.66
781.95	1318.89
782.13	1249.26
782.31	1226.73
782.48	1269.74
782.66	1320.94
782.83	1290.22
783.01	1314.80
783.19	1335.28
783.36	1257.45
783.54	1290.22
783.72	1286.12
783.89	1247.21
784.07	1310.70
784.24	1239.02
784.42	1282.03
784.60	1259.50
784.77	1273.84
784.95	1228.78
785.12	1228.78
785.30	1329.13
785.47	1249.26
785.65	1226.73
785.83	1263.60
786.00	1312.75
786.18	1220.59
786.35	1265.64
786.53	1253.36
786.71	1253.36
786.88	1273.84
787.06	1257.45
787.23	1327.08
787.41	1247.21
787.58	1296.36
787.76	1239.02
787.94	1269.74
788.11	1243.12
788.29	1200.11
788.46	1284.08
788.64	1343.47
788.81	1224.69
788.99	1257.45
789.16	1239.02
789.34	1298.41
789.52	1239.02
789.69	1241.07
789.87	1318.89
790.04	1251.31
790.22	1277.93
790.39	1327.08
790.57	1259.50
790.74	1329.13
790.92	1290.22
791.09	1239.02
791.27	1249.26
791.44	1333.23
791.62	1224.69
791.79	1288.17
791.97	1218.54
792.15	1255.40
792.32	1286.12
792.50	1290.22
792.67	1253.36
792.85	1302.51
793.02	1298.41
793.20	1282.03
793.37	1335.28
793.55	1224.69
793.72	1298.41
793.90	1222.64
794.07	1245.16
794.25	1282.03
794.42	1224.69
794.60	1249.26
794.77	1277.93
794.95	1304.56
795.12	1206.25
795.30	1177.58
795.47	1271.79
795.65	1243.12
795.82	1216.49
796.00	1255.40
796.17	1228.78
796.34	1279.98
796.52	1335.28
796.69	1216.49
796.87	1239.02
797.04	1245.16
797.22	1302.51
797.39	1239.02
797.57	1243.12
797.74	1251.31
797.92	1300.46
798.09	1282.03
798.27	1220.59
798.44	1234.93
798.62	1234.93
798.79	1263.60
798.96	1245.16
799.14	1208.30
799.31	1236.97
799.49	1212.40
799.66	1230.83
799.84	1269.74
800.01	1331.18
800.19	1257.45
800.36	1253.36
800.53	1296.36
800.71	1310.70
800.88	1314.80
801.06	1269.74
801.23	1263.60
801.41	1314.80
801.58	1249.26
801.75	1208.30
801.93	1302.51
802.10	1263.60
802.28	1300.46
802.45	1265.64
802.63	1234.93
802.80	1282.03
802.97	1259.50
803.15	1282.03
803.32	1322.99
803.50	1251.31
803.67	1239.02
803.84	1241.07
804.02	1255.40
804.19	1181.68
804.37	1234.93
804.54	1290.22
804.71	1318.89
804.89	1247.21
805.06	1255.40
805.24	1284.08
805.41	1320.94
805.58	1273.84
805.76	1318.89
805.93	1218.54
806.10	1294.32
806.28	1316.84
806.45	1271.79
806.63	1314.80
806.80	1306.60
806.97	1247.21
807.15	1298.41
807.32	1269.74
807.49	1322.99
807.67	1261.55
807.84	1269.74
808.01	1310.70
808.19	1343.47
808.36	1216.49
808.54	1275.88
808.71	1265.64
808.88	1224.69
809.06	1224.69
809.23	1279.98
809.40	1251.31
809.58	1300.46
809.75	1224.69
809.92	1269.74
810.10	1245.16
810.27	1257.45
810.44	1222.64
810.62	1310.70
810.79	1275.88
810.96	1230.83
811.14	1298.41
811.31	1306.60
811.48	1322.99
811.66	1243.12
811.83	1279.98
812.00	1310.70
812.18	1232.88
812.35	1273.84
812.52	1277.93
812.69	1294.32
812.87	1265.64
813.04	1308.65
813.21	1290.22
813.39	1263.60
813.56	1282.03
813.73	1308.65
813.91	1230.83
814.08	1261.55
814.25	1382.38
814.42	1232.88
814.60	1208.30
814.77	1296.36
814.94	1255.40
815.12	1206.25
815.29	1253.36
815.46	1290.22
815.63	1271.79
815.81	1292.27
815.98	1249.26
816.15	1253.36
816.33	1273.84
816.50	1165.29
816.67	1298.41
816.84	1245.16
817.02	1302.51
817.19	1314.80
817.36	1294.32
817.53	1345.52
817.71	1288.17
817.88	1279.98
818.05	1253.36
818.22	1212.40
818.40	1179.63
818.57	1300.46
818.74	1241.07
818.91	1257.45
819.09	1187.82
819.26	1267.69
819.43	1267.69
819.60	1267.69
819.78	1263.60
819.95	1216.49
820.12	1279.98
820.29	1239.02
820.47	1210.35
820.64	1322.99
820.81	1230.83
820.98	1241.07
821.15	1239.02
821.33	1267.69
821.50	1286.12
821.67	1206.25
821.84	1204.21
822.02	1273.84
822.19	1284.08
822.36	1331.18
822.53	1241.07
822.70	1232.88
822.88	1304.56
823.05	1310.70
823.22	1279.98
823.39	1343.47
823.56	1214.45
823.74	1220.59
823.91	1275.88
824.08	1241.07
824.25	1310.70
824.42	1277.93
824.60	1228.78
824.77	1271.79
824.94	1271.79
825.11	1249.26
825.28	1243.12
825.45	1292.27
825.63	1294.32
825.80	1259.50
825.97	1200.11
826.14	1216.49
826.31	1302.51
826.48	1232.88
826.66	1290.22
826.83	1241.07
827.00	1247.21
827.17	1284.08
827.34	1269.74
827.51	1173.49
827.69	1292.27
827.86	1384.43
828.03	1292.27
828.20	1312.75
828.37	1267.69
828.54	1284.08
828.71	1366.00
828.89	1314.80
829.06	1355.76
829.23	1263.60
829.40	1298.41
829.57	1220.59
829.74	1302.51
829.91	1298.41
830.09	1294.32
830.26	1243.12
830.43	1322.99
830.60	1249.26
830.77	1257.45
830.94	1286.12
831.11	1226.73
831.28	1208.30
831.46	1277.93
831.63	1282.03
831.80	1333.23
831.97	1255.40
832.14	1304.56
832.31	1333.23
832.48	1294.32
832.65	1234.93
832.82	1316.84
832.99	1208.30
833.17	1271.79
833.34	1255.40
833.51	1236.97
833.68	1345.52
833.85	1222.64
834.02	1208.30
834.19	1245.16
834.36	1226.73
834.53	1273.84
834.70	1261.55
834.87	1243.12
835.04	1269.74
835.22	1241.07
835.39	1310.70
835.56	1224.69
835.73	1208.30
835.90	1224.69
836.07	1286.12
836.24	1259.50
836.41	1220.59
836.58	1247.21
836.75	1251.31
836.92	1234.93
837.09	1306.60
837.26	1327.08
837.43	1226.73
837.60	1302.51
837.77	1257.45
837.94	1263.60
838.12	1320.94
838.29	1202.16
838.46	1296.36
838.63	1239.02
838.80	1234.93
838.97	1251.31
839.14	1296.36
839.31	1247.21
839.48	1234.93
839.65	1304.56
839.82	1253.36
839.99	1306.60
840.16	1277.93
840.33	1341.42
840.50	1292.27
840.67	1302.51
840.84	1273.84
841.01	1286.12
841.18	1265.64
841.35	1269.74
841.52	1308.65
841.69	1296.36
841.86	1345.52
842.03	1263.60
842.20	1284.08
842.37	1298.41
842.54	1282.03
842.71	1255.40
842.88	1243.12
843.05	1304.56
843.22	1310.70
843.39	1269.74
843.56	1376.24
843.73	1316.84
843.90	1284.08
844.07	1271.79
844.24	1329.13
844.41	1282.03
844.58	1322.99
844.75	1220.59
844.92	1228.78
845.09	1284.08
845.26	1249.26
845.43	1288.17
845.60	1269.74
845.77	1337.32
845.94	1286.12
846.10	1271.79
846.27	1222.64
846.44	1259.50
846.61	1253.36
846.78	1316.84
846.95	1257.45
847.12	1265.64
847.29	1236.97
847.46	1269.74
847.63	1230.83
847.80	1288.17
847.97	1271.79
848.14	1273.84
848.31	1316.84
848.48	1271.79
848.65	1232.88
848.82	1294.32
848.98	1255.40
849.15	1279.98
849.32	1267.69
849.49	1251.31
849.66	1296.36
849.83	1357.80
850.00	1247.21
850.17	1247.21
850.34	1273.84
850.51	1341.42
850.68	1288.17
850.85	1325.04
851.01	1302.51
851.18	1339.37
851.35	1294.32
851.52	1267.69
851.69	1273.84
851.86	1263.60
852.03	1189.87
852.20	1302.51
852.37	1224.69
852.53	1212.40
852.70	1277.93
852.87	1224.69
853.04	1253.36
853.21	1257.45
853.38	1226.73
853.55	1261.55
853.72	1247.21
853.89	1269.74
854.05	1294.32
854.22	1284.08
854.39	1271.79
854.56	1286.12
854.73	1249.26
854.90	1279.98
855.07	1294.32
855.23	1320.94
855.40	1181.68
855.57	1208.30
855.74	1335.28
855.91	1226.73
856.08	1351.66
856.25	1216.49
856.41	1290.22
856.58	1279.98
856.75	1271.79
856.92	1212.40
857.09	1275.88
857.26	1249.26
857.42	1249.26
857.59	1239.02
857.76	1329.13
857.93	1269.74
858.10	1292.27
858.27	1245.16
858.43	1355.76
858.60	1220.59
858.77	1308.65
858.94	1294.32
859.11	1249.26
859.27	1222.64
859.44	1204.21
859.61	1288.17
859.78	1259.50
859.95	1249.26
860.12	1277.93
860.28	1302.51
860.45	1214.45
860.62	1277.93
860.79	1339.37
860.95	1255.40
861.12	1245.16
861.29	1265.64
861.46	1255.40
861.63	1290.22
861.79	1282.03
861.96	1292.27
862.13	1282.03
862.30	1267.69
862.47	1306.60
862.63	1193.97
862.80	1277.93
862.97	1265.64
863.14	1251.31
863.30	1265.64
863.47	1243.12
863.64	1277.93
863.81	1265.64
863.97	1304.56
864.14	1263.60
864.31	1251.31
864.48	1263.60
864.65	1269.74
864.81	1200.11
864.98	1337.32
865.15	1253.36
865.32	1284.08
865.48	1247.21
865.65	1267.69
865.82	1259.50
865.98	1284.08
866.15	1173.49
866.32	1226.73
866.49	1282.03
866.65	1239.02
866.82	1257.45
866.99	1302.51
867.16	1204.21
867.32	1333.23
867.49	1273.84
867.66	1286.12
867.83	1308.65
867.99	1247.21
868.16	1277.93
868.33	1277.93
868.49	1329.13
868.66	1255.40
868.83	1259.50
868.99	1322.99
869.16	1230.83
869.33	1265.64
869.50	1224.69
869.66	1226.73
869.83	1261.55
870.00	1263.60
870.16	1253.36
870.33	1230.83
870.50	1253.36
870.66	1308.65
870.83	1214.45
871.00	1189.87
871.17	1265.64
871.33	1284.08
871.50	1273.84
871.67	1329.13
871.83	1232.88
872.00	1277.93
872.17	1241.07
872.33	1232.88
872.50	1261.55
872.67	1263.60
872.83	1222.64
873.00	1267.69
873.17	1253.36
873.33	1304.56
873.50	1294.32
873.67	1171.44
873.83	1208.30
874.00	1284.08
874.16	1253.36
874.33	1247.21
874.50	1277.93
874.66	1310.70
874.83	1273.84
875.00	1255.40
875.16	1273.84
875.33	1347.56
875.50	1282.03
875.66	1232.88
875.83	1263.60
875.99	1232.88
876.16	1294.32
876.33	1259.50
876.49	1214.45
876.66	1277.93
876.83	1312.75
876.99	1290.22
877.16	1279.98
877.32	1265.64
877.49	1267.69
877.66	1253.36
877.82	1273.84
877.99	1286.12
878.15	1361.90
878.32	1322.99
878.49	1249.26
878.65	1220.59
878.82	1286.12
878.98	1284.08
879.15	1204.21
879.32	1245.16
879.48	1273.84
879.65	1236.97
879.81	1208.30
879.98	1232.88
880.15	1253.36
880.31	1253.36
880.48	1279.98
880.64	1277.93
880.81	1282.03
880.97	1191.92
881.14	1273.84
881.31	1251.31
881.47	1290.22
881.64	1269.74
881.80	1259.50
881.97	1282.03
882.13	1286.12
882.30	1236.97
882.47	1290.22
882.63	1279.98
882.80	1314.80
882.96	1290.22
883.13	1337.32
883.29	1316.84
883.46	1263.60
883.62	1370.09
883.79	1257.45
883.95	1228.78
884.12	1216.49
884.29	1304.56
884.45	1267.69
884.62	1216.49
884.78	1284.08
884.95	1249.26
885.11	1279.98
885.28	1343.47
885.44	1232.88
885.61	1249.26
885.77	1198.06
885.94	1308.65
886.10	1284.08
886.27	1257.45
886.43	1263.60
886.60	1251.31
886.76	1290.22
886.93	1220.59
887.09	1226.73
887.26	1282.03
887.42	1290.22
887.59	1282.03
887.75	1279.98
887.92	1236.97
888.08	1335.28
888.25	1279.98
888.41	1279.98
888.58	1331.18
888.74	1314.80
888.91	1249.26
>>>>>End Processed Spectral Data<<<<<
