SpectraSuite Data File
++++++++++++++++++++++++++++++++++++
Date: Sun Apr 03 19:55:28 CEST 2016
User: root
Dark Spectrum Present: No
Reference Spectrum Present: No
Number of Sampled Component Spectra: 1
Spectrometers: USB4C02835
Integration Time (usec): 10000 (USB4C02835)
Spectra Averaged: 1 (USB4C02835)
Boxcar Smoothing: 0 (USB4C02835)
Correct for Electrical Dark: No (USB4C02835)
Strobe/Lamp Enabled: No (USB4C02835)
Correct for Detector Non-linearity: No (USB4C02835)
Correct for Stray Light: No (USB4C02835)
Number of Pixels in Processed Spectrum: 3648
>>>>>Begin Processed Spectral Data<<<<<
177.47	1228.78
177.69	1228.78
177.91	1228.78
178.13	1230.83
178.36	1255.40
178.58	1216.49
178.80	1353.71
179.02	1236.97
179.24	1249.26
179.46	1304.56
179.68	1355.76
179.90	1306.60
180.13	1306.60
180.35	1226.73
180.57	1271.79
180.79	1253.36
181.01	1261.55
181.23	1339.37
181.45	1296.36
181.67	1251.31
181.90	1226.73
182.12	1253.36
182.34	1277.93
182.56	1251.31
182.78	1251.31
183.00	1161.20
183.22	1286.12
183.44	1263.60
183.66	1290.22
183.89	1230.83
184.11	1228.78
184.33	1292.27
184.55	1253.36
184.77	1343.47
184.99	1366.00
185.21	1292.27
185.43	1257.45
185.65	1249.26
185.87	1286.12
186.10	1265.64
186.32	1247.21
186.54	1247.21
186.76	1279.98
186.98	1277.93
187.20	1357.80
187.42	1261.55
187.64	1277.93
187.86	1284.08
188.08	1230.83
188.30	1224.69
188.52	1312.75
188.75	1222.64
188.97	1368.04
189.19	1269.74
189.41	1316.84
189.63	1234.93
189.85	1271.79
190.07	1316.84
190.29	1265.64
190.51	1251.31
190.73	1275.88
190.95	1263.60
191.17	1269.74
191.39	1265.64
191.61	1234.93
191.84	1273.84
192.06	1243.12
192.28	1271.79
192.50	1275.88
192.72	1327.08
192.94	1292.27
193.16	1329.13
193.38	1263.60
193.60	1261.55
193.82	1200.11
194.04	1312.75
194.26	1286.12
194.48	1292.27
194.70	1253.36
194.92	1236.97
195.14	1249.26
195.36	1179.63
195.58	1312.75
195.80	1282.03
196.02	1220.59
196.24	1232.88
196.46	1255.40
196.69	1251.31
196.91	1253.36
197.13	1308.65
197.35	1230.83
197.57	1243.12
197.79	1267.69
198.01	1300.46
198.23	1255.40
198.45	1263.60
198.67	1224.69
198.89	1255.40
199.11	1226.73
199.33	1277.93
199.55	1263.60
199.77	1234.93
199.99	1286.12
200.21	1267.69
200.43	1206.25
200.65	1275.88
200.87	1239.02
201.09	1249.26
201.31	1236.97
201.53	1271.79
201.75	1234.93
201.97	1265.64
202.19	1200.11
202.41	1288.17
202.63	1300.46
202.85	1255.40
203.07	1257.45
203.29	1249.26
203.51	1294.32
203.73	1322.99
203.95	1257.45
204.17	1243.12
204.39	1288.17
204.61	1302.51
204.83	1228.78
205.05	1271.79
205.27	1261.55
205.49	1363.95
205.71	1277.93
205.93	1279.98
206.15	1228.78
206.37	1267.69
206.59	1167.34
206.81	1169.39
207.03	1224.69
207.25	1306.60
207.47	1288.17
207.69	1253.36
207.91	1290.22
208.13	1226.73
208.34	1146.86
208.56	1253.36
208.78	1257.45
209.00	1277.93
209.22	1298.41
209.44	1320.94
209.66	1275.88
209.88	1310.70
210.10	1284.08
210.32	1232.88
210.54	1363.95
210.76	1249.26
210.98	1273.84
211.20	1300.46
211.42	1267.69
211.64	1306.60
211.86	1318.89
212.08	1294.32
212.30	1271.79
212.52	1290.22
212.74	1312.75
212.96	1286.12
213.17	1277.93
213.39	1210.35
213.61	1232.88
213.83	1282.03
214.05	1243.12
214.27	1226.73
214.49	1290.22
214.71	1249.26
214.93	1339.37
215.15	1181.68
215.37	1284.08
215.59	1234.93
215.81	1306.60
216.03	1259.50
216.24	1218.54
216.46	1228.78
216.68	1302.51
216.90	1198.06
217.12	1327.08
217.34	1267.69
217.56	1279.98
217.78	1259.50
218.00	1304.56
218.22	1257.45
218.44	1271.79
218.66	1214.45
218.87	1335.28
219.09	1241.07
219.31	1249.26
219.53	1269.74
219.75	1341.42
219.97	1249.26
220.19	1224.69
220.41	1343.47
220.63	1271.79
220.85	1304.56
221.06	1261.55
221.28	1292.27
221.50	1288.17
221.72	1314.80
221.94	1257.45
222.16	1224.69
222.38	1331.18
222.60	1320.94
222.82	1320.94
223.03	1239.02
223.25	1232.88
223.47	1245.16
223.69	1226.73
223.91	1288.17
224.13	1239.02
224.35	1263.60
224.57	1314.80
224.78	1314.80
225.00	1173.49
225.22	1255.40
225.44	1269.74
225.66	1249.26
225.88	1368.04
226.10	1284.08
226.32	1312.75
226.53	1249.26
226.75	1298.41
226.97	1290.22
227.19	1279.98
227.41	1243.12
227.63	1257.45
227.85	1261.55
228.06	1206.25
228.28	1290.22
228.50	1282.03
228.72	1247.21
228.94	1210.35
229.16	1206.25
229.37	1327.08
229.59	1267.69
229.81	1273.84
230.03	1224.69
230.25	1269.74
230.47	1329.13
230.69	1263.60
230.90	1214.45
231.12	1245.16
231.34	1247.21
231.56	1294.32
231.78	1292.27
232.00	1353.71
232.21	1239.02
232.43	1304.56
232.65	1304.56
232.87	1198.06
233.09	1249.26
233.30	1204.21
233.52	1243.12
233.74	1288.17
233.96	1232.88
234.18	1187.82
234.40	1271.79
234.61	1286.12
234.83	1288.17
235.05	1257.45
235.27	1302.51
235.49	1304.56
235.70	1333.23
235.92	1292.27
236.14	1322.99
236.36	1288.17
236.58	1351.66
236.79	1322.99
237.01	1286.12
237.23	1263.60
237.45	1325.04
237.67	1288.17
237.88	1263.60
238.10	1304.56
238.32	1239.02
238.54	1273.84
238.76	1261.55
238.97	1265.64
239.19	1306.60
239.41	1294.32
239.63	1333.23
239.85	1206.25
240.06	1257.45
240.28	1310.70
240.50	1251.31
240.72	1247.21
240.93	1241.07
241.15	1304.56
241.37	1302.51
241.59	1214.45
241.81	1282.03
242.02	1312.75
242.24	1263.60
242.46	1306.60
242.68	1220.59
242.89	1306.60
243.11	1245.16
243.33	1230.83
243.55	1228.78
243.76	1308.65
243.98	1249.26
244.20	1296.36
244.42	1251.31
244.64	1370.09
244.85	1273.84
245.07	1245.16
245.29	1271.79
245.51	1302.51
245.72	1277.93
245.94	1267.69
246.16	1275.88
246.38	1296.36
246.59	1331.18
246.81	1265.64
247.03	1265.64
247.24	1306.60
247.46	1249.26
247.68	1300.46
247.90	1236.97
248.11	1288.17
248.33	1232.88
248.55	1232.88
248.77	1259.50
248.98	1296.36
249.20	1210.35
249.42	1247.21
249.64	1279.98
249.85	1339.37
250.07	1282.03
250.29	1241.07
250.50	1267.69
250.72	1257.45
250.94	1300.46
251.16	1310.70
251.37	1253.36
251.59	1191.92
251.81	1173.49
252.02	1228.78
252.24	1245.16
252.46	1273.84
252.68	1282.03
252.89	1241.07
253.11	1191.92
253.33	1241.07
253.54	1282.03
253.76	1277.93
253.98	1226.73
254.20	1269.74
254.41	1251.31
254.63	1255.40
254.85	1284.08
255.06	1282.03
255.28	1243.12
255.50	1327.08
255.71	1222.64
255.93	1212.40
256.15	1222.64
256.36	1294.32
256.58	1251.31
256.80	1257.45
257.02	1314.80
257.23	1206.25
257.45	1273.84
257.67	1357.80
257.88	1249.26
258.10	1273.84
258.32	1251.31
258.53	1228.78
258.75	1263.60
258.97	1290.22
259.18	1228.78
259.40	1288.17
259.62	1279.98
259.83	1374.19
260.05	1271.79
260.27	1261.55
260.48	1228.78
260.70	1259.50
260.92	1296.36
261.13	1267.69
261.35	1267.69
261.57	1212.40
261.78	1312.75
262.00	1271.79
262.22	1261.55
262.43	1257.45
262.65	1273.84
262.86	1314.80
263.08	1220.59
263.30	1269.74
263.51	1243.12
263.73	1286.12
263.95	1290.22
264.16	1218.54
264.38	1277.93
264.60	1202.16
264.81	1263.60
265.03	1265.64
265.25	1228.78
265.46	1251.31
265.68	1296.36
265.89	1339.37
266.11	1302.51
266.33	1290.22
266.54	1222.64
266.76	1234.93
266.98	1273.84
267.19	1318.89
267.41	1267.69
267.62	1290.22
267.84	1265.64
268.06	1359.85
268.27	1228.78
268.49	1331.18
268.70	1294.32
268.92	1265.64
269.14	1241.07
269.35	1214.45
269.57	1236.97
269.79	1320.94
270.00	1284.08
270.22	1298.41
270.43	1245.16
270.65	1236.97
270.87	1296.36
271.08	1282.03
271.30	1265.64
271.51	1239.02
271.73	1279.98
271.95	1304.56
272.16	1249.26
272.38	1234.93
272.59	1286.12
272.81	1265.64
273.02	1269.74
273.24	1220.59
273.46	1202.16
273.67	1271.79
273.89	1247.21
274.10	1302.51
274.32	1294.32
274.54	1306.60
274.75	1306.60
274.97	1236.97
275.18	1288.17
275.40	1329.13
275.61	1224.69
275.83	1257.45
276.05	1220.59
276.26	1325.04
276.48	1269.74
276.69	1216.49
276.91	1333.23
277.12	1288.17
277.34	1253.36
277.55	1239.02
277.77	1210.35
277.99	1249.26
278.20	1314.80
278.42	1288.17
278.63	1253.36
278.85	1241.07
279.06	1265.64
279.28	1261.55
279.49	1277.93
279.71	1294.32
279.93	1279.98
280.14	1318.89
280.36	1241.07
280.57	1329.13
280.79	1236.97
281.00	1241.07
281.22	1191.92
281.43	1263.60
281.65	1279.98
281.86	1320.94
282.08	1286.12
282.29	1257.45
282.51	1304.56
282.73	1294.32
282.94	1247.21
283.16	1310.70
283.37	1239.02
283.59	1282.03
283.80	1243.12
284.02	1269.74
284.23	1177.58
284.45	1282.03
284.66	1234.93
284.88	1228.78
285.09	1265.64
285.31	1277.93
285.52	1261.55
285.74	1259.50
285.95	1253.36
286.17	1347.56
286.38	1294.32
286.60	1185.77
286.81	1304.56
287.03	1292.27
287.24	1232.88
287.46	1245.16
287.67	1314.80
287.89	1181.68
288.10	1251.31
288.32	1267.69
288.53	1232.88
288.75	1286.12
288.96	1253.36
289.18	1208.30
289.39	1185.77
289.61	1292.27
289.82	1230.83
290.04	1282.03
290.25	1304.56
290.47	1343.47
290.68	1331.18
290.90	1279.98
291.11	1261.55
291.33	1286.12
291.54	1300.46
291.76	1226.73
291.97	1230.83
292.18	1232.88
292.40	1224.69
292.61	1204.21
292.83	1306.60
293.04	1282.03
293.26	1212.40
293.47	1159.15
293.69	1267.69
293.90	1261.55
294.12	1257.45
294.33	1230.83
294.55	1259.50
294.76	1241.07
294.97	1243.12
295.19	1279.98
295.40	1232.88
295.62	1249.26
295.83	1286.12
296.05	1300.46
296.26	1271.79
296.48	1253.36
296.69	1230.83
296.90	1290.22
297.12	1310.70
297.33	1208.30
297.55	1327.08
297.76	1290.22
297.98	1267.69
298.19	1310.70
298.41	1218.54
298.62	1357.80
298.83	1329.13
299.05	1279.98
299.26	1259.50
299.48	1249.26
299.69	1245.16
299.90	1290.22
300.12	1224.69
300.33	1253.36
300.55	1325.04
300.76	1245.16
300.98	1249.26
301.19	1275.88
301.40	1304.56
301.62	1282.03
301.83	1259.50
302.05	1253.36
302.26	1261.55
302.47	1216.49
302.69	1271.79
302.90	1320.94
303.12	1257.45
303.33	1241.07
303.54	1308.65
303.76	1271.79
303.97	1196.01
304.19	1279.98
304.40	1300.46
304.61	1290.22
304.83	1257.45
305.04	1247.21
305.26	1214.45
305.47	1314.80
305.68	1290.22
305.90	1214.45
306.11	1204.21
306.33	1259.50
306.54	1288.17
306.75	1226.73
306.97	1290.22
307.18	1243.12
307.39	1304.56
307.61	1308.65
307.82	1259.50
308.04	1236.97
308.25	1236.97
308.46	1263.60
308.68	1310.70
308.89	1259.50
309.10	1269.74
309.32	1306.60
309.53	1206.25
309.74	1343.47
309.96	1249.26
310.17	1273.84
310.39	1259.50
310.60	1370.09
310.81	1222.64
311.03	1298.41
311.24	1265.64
311.45	1265.64
311.67	1310.70
311.88	1269.74
312.09	1288.17
312.31	1277.93
312.52	1193.97
312.73	1302.51
312.95	1271.79
313.16	1239.02
313.37	1282.03
313.59	1249.26
313.80	1214.45
314.01	1200.11
314.23	1269.74
314.44	1255.40
314.65	1292.27
314.87	1286.12
315.08	1273.84
315.29	1263.60
315.51	1263.60
315.72	1259.50
315.93	1267.69
316.15	1298.41
316.36	1239.02
316.57	1218.54
316.79	1261.55
317.00	1296.36
317.21	1275.88
317.43	1271.79
317.64	1312.75
317.85	1265.64
318.07	1261.55
318.28	1222.64
318.49	1310.70
318.70	1257.45
318.92	1290.22
319.13	1243.12
319.34	1288.17
319.56	1298.41
319.77	1351.66
319.98	1224.69
320.20	1183.73
320.41	1302.51
320.62	1234.93
320.83	1249.26
321.05	1304.56
321.26	1273.84
321.47	1228.78
321.69	1230.83
321.90	1253.36
322.11	1247.21
322.32	1224.69
322.54	1282.03
322.75	1247.21
322.96	1277.93
323.18	1304.56
323.39	1255.40
323.60	1245.16
323.81	1282.03
324.03	1261.55
324.24	1251.31
324.45	1277.93
324.66	1271.79
324.88	1275.88
325.09	1261.55
325.30	1236.97
325.52	1265.64
325.73	1249.26
325.94	1310.70
326.15	1320.94
326.37	1370.09
326.58	1275.88
326.79	1282.03
327.00	1255.40
327.22	1310.70
327.43	1294.32
327.64	1255.40
327.85	1325.04
328.07	1255.40
328.28	1288.17
328.49	1214.45
328.70	1253.36
328.92	1232.88
329.13	1275.88
329.34	1273.84
329.55	1290.22
329.76	1226.73
329.98	1196.01
330.19	1224.69
330.40	1257.45
330.61	1210.35
330.83	1269.74
331.04	1314.80
331.25	1296.36
331.46	1232.88
331.68	1288.17
331.89	1208.30
332.10	1239.02
332.31	1269.74
332.52	1267.69
332.74	1249.26
332.95	1185.77
333.16	1241.07
333.37	1243.12
333.58	1257.45
333.80	1355.76
334.01	1310.70
334.22	1275.88
334.43	1275.88
334.64	1214.45
334.86	1265.64
335.07	1232.88
335.28	1380.33
335.49	1271.79
335.70	1265.64
335.92	1257.45
336.13	1265.64
336.34	1277.93
336.55	1241.07
336.76	1239.02
336.98	1279.98
337.19	1347.56
337.40	1312.75
337.61	1279.98
337.82	1226.73
338.04	1333.23
338.25	1187.82
338.46	1255.40
338.67	1304.56
338.88	1249.26
339.09	1306.60
339.31	1273.84
339.52	1261.55
339.73	1329.13
339.94	1208.30
340.15	1265.64
340.36	1286.12
340.58	1259.50
340.79	1247.21
341.00	1243.12
341.21	1259.50
341.42	1271.79
341.63	1243.12
341.85	1277.93
342.06	1296.36
342.27	1206.25
342.48	1204.21
342.69	1226.73
342.90	1306.60
343.12	1218.54
343.33	1263.60
343.54	1294.32
343.75	1345.52
343.96	1220.59
344.17	1265.64
344.38	1263.60
344.60	1308.65
344.81	1310.70
345.02	1304.56
345.23	1243.12
345.44	1341.42
345.65	1286.12
345.86	1265.64
346.07	1263.60
346.29	1279.98
346.50	1236.97
346.71	1230.83
346.92	1232.88
347.13	1249.26
347.34	1196.01
347.55	1212.40
347.76	1279.98
347.98	1253.36
348.19	1282.03
348.40	1261.55
348.61	1286.12
348.82	1329.13
349.03	1273.84
349.24	1282.03
349.45	1228.78
349.66	1286.12
349.88	1245.16
350.09	1298.41
350.30	1259.50
350.51	1183.73
350.72	1310.70
350.93	1220.59
351.14	1187.82
351.35	1269.74
351.56	1253.36
351.77	1228.78
351.99	1355.76
352.20	1288.17
352.41	1245.16
352.62	1273.84
352.83	1222.64
353.04	1253.36
353.25	1226.73
353.46	1294.32
353.67	1271.79
353.88	1273.84
354.09	1261.55
354.30	1322.99
354.52	1232.88
354.73	1282.03
354.94	1198.06
355.15	1290.22
355.36	1290.22
355.57	1269.74
355.78	1284.08
355.99	1265.64
356.20	1327.08
356.41	1296.36
356.62	1241.07
356.83	1325.04
357.04	1222.64
357.25	1286.12
357.46	1265.64
357.68	1261.55
357.89	1245.16
358.10	1239.02
358.31	1298.41
358.52	1269.74
358.73	1282.03
358.94	1363.95
359.15	1271.79
359.36	1331.18
359.57	1271.79
359.78	1226.73
359.99	1216.49
360.20	1193.97
360.41	1286.12
360.62	1335.28
360.83	1241.07
361.04	1216.49
361.25	1263.60
361.46	1267.69
361.67	1296.36
361.88	1202.16
362.09	1234.93
362.30	1277.93
362.51	1232.88
362.72	1279.98
362.93	1277.93
363.14	1255.40
363.35	1257.45
363.56	1249.26
363.78	1239.02
363.99	1282.03
364.20	1234.93
364.41	1302.51
364.62	1208.30
364.83	1314.80
365.04	1298.41
365.25	1308.65
365.46	1269.74
365.67	1275.88
365.88	1247.21
366.09	1232.88
366.30	1312.75
366.51	1241.07
366.72	1189.87
366.93	1290.22
367.14	1263.60
367.35	1320.94
367.56	1288.17
367.77	1284.08
367.98	1247.21
368.18	1339.37
368.39	1302.51
368.60	1271.79
368.81	1288.17
369.02	1310.70
369.23	1282.03
369.44	1247.21
369.65	1226.73
369.86	1277.93
370.07	1259.50
370.28	1282.03
370.49	1263.60
370.70	1298.41
370.91	1273.84
371.12	1234.93
371.33	1333.23
371.54	1208.30
371.75	1241.07
371.96	1222.64
372.17	1288.17
372.38	1232.88
372.59	1271.79
372.80	1279.98
373.01	1236.97
373.22	1279.98
373.43	1279.98
373.64	1206.25
373.85	1239.02
374.06	1296.36
374.26	1359.85
374.47	1251.31
374.68	1279.98
374.89	1249.26
375.10	1279.98
375.31	1255.40
375.52	1212.40
375.73	1339.37
375.94	1210.35
376.15	1282.03
376.36	1232.88
376.57	1257.45
376.78	1269.74
376.99	1255.40
377.20	1349.61
377.40	1255.40
377.61	1294.32
377.82	1345.52
378.03	1228.78
378.24	1337.32
378.45	1269.74
378.66	1273.84
378.87	1255.40
379.08	1322.99
379.29	1232.88
379.50	1273.84
379.71	1265.64
379.91	1284.08
380.12	1220.59
380.33	1279.98
380.54	1267.69
380.75	1224.69
380.96	1222.64
381.17	1245.16
381.38	1265.64
381.59	1279.98
381.80	1318.89
382.00	1279.98
382.21	1320.94
382.42	1257.45
382.63	1290.22
382.84	1355.76
383.05	1206.25
383.26	1282.03
383.47	1269.74
383.68	1253.36
383.88	1234.93
384.09	1279.98
384.30	1261.55
384.51	1247.21
384.72	1245.16
384.93	1273.84
385.14	1300.46
385.35	1257.45
385.55	1234.93
385.76	1308.65
385.97	1263.60
386.18	1331.18
386.39	1249.26
386.60	1327.08
386.81	1251.31
387.02	1263.60
387.22	1269.74
387.43	1210.35
387.64	1273.84
387.85	1282.03
388.06	1261.55
388.27	1234.93
388.48	1298.41
388.68	1347.56
388.89	1189.87
389.10	1322.99
389.31	1286.12
389.52	1232.88
389.73	1257.45
389.93	1200.11
390.14	1335.28
390.35	1228.78
390.56	1218.54
390.77	1282.03
390.98	1173.49
391.18	1263.60
391.39	1265.64
391.60	1259.50
391.81	1239.02
392.02	1245.16
392.23	1345.52
392.43	1337.32
392.64	1300.46
392.85	1292.27
393.06	1259.50
393.27	1286.12
393.47	1265.64
393.68	1263.60
393.89	1251.31
394.10	1232.88
394.31	1220.59
394.52	1306.60
394.72	1265.64
394.93	1275.88
395.14	1271.79
395.35	1298.41
395.56	1296.36
395.76	1345.52
395.97	1277.93
396.18	1296.36
396.39	1277.93
396.60	1339.37
396.80	1253.36
397.01	1341.42
397.22	1253.36
397.43	1277.93
397.64	1294.32
397.84	1214.45
398.05	1290.22
398.26	1255.40
398.47	1308.65
398.67	1271.79
398.88	1296.36
399.09	1341.42
399.30	1263.60
399.51	1255.40
399.71	1245.16
399.92	1308.65
400.13	1343.47
400.34	1212.40
400.54	1245.16
400.75	1241.07
400.96	1196.01
401.17	1273.84
401.37	1286.12
401.58	1236.97
401.79	1263.60
402.00	1298.41
402.21	1232.88
402.41	1216.49
402.62	1269.74
402.83	1316.84
403.04	1200.11
403.24	1345.52
403.45	1243.12
403.66	1249.26
403.87	1284.08
404.07	1314.80
404.28	1257.45
404.49	1335.28
404.70	1275.88
404.90	1273.84
405.11	1208.30
405.32	1343.47
405.52	1343.47
405.73	1210.35
405.94	1335.28
406.15	1218.54
406.35	1193.97
406.56	1304.56
406.77	1329.13
406.98	1314.80
407.18	1257.45
407.39	1310.70
407.60	1214.45
407.80	1228.78
408.01	1314.80
408.22	1279.98
408.43	1249.26
408.63	1257.45
408.84	1255.40
409.05	1226.73
409.25	1236.97
409.46	1200.11
409.67	1212.40
409.88	1261.55
410.08	1228.78
410.29	1247.21
410.50	1210.35
410.70	1312.75
410.91	1198.06
411.12	1261.55
411.32	1288.17
411.53	1251.31
411.74	1263.60
411.95	1290.22
412.15	1236.97
412.36	1265.64
412.57	1245.16
412.77	1261.55
412.98	1257.45
413.19	1255.40
413.39	1239.02
413.60	1370.09
413.81	1218.54
414.01	1241.07
414.22	1228.78
414.43	1259.50
414.63	1253.36
414.84	1273.84
415.05	1253.36
415.25	1253.36
415.46	1282.03
415.67	1261.55
415.87	1181.68
416.08	1273.84
416.29	1239.02
416.49	1234.93
416.70	1253.36
416.91	1253.36
417.11	1286.12
417.32	1257.45
417.53	1208.30
417.73	1279.98
417.94	1282.03
418.15	1269.74
418.35	1355.76
418.56	1267.69
418.77	1282.03
418.97	1359.85
419.18	1226.73
419.38	1257.45
419.59	1208.30
419.80	1302.51
420.00	1300.46
420.21	1298.41
420.42	1216.49
420.62	1292.27
420.83	1347.56
421.04	1265.64
421.24	1279.98
421.45	1282.03
421.65	1282.03
421.86	1212.40
422.07	1286.12
422.27	1277.93
422.48	1265.64
422.69	1261.55
422.89	1257.45
423.10	1290.22
423.30	1218.54
423.51	1216.49
423.72	1263.60
423.92	1355.76
424.13	1269.74
424.33	1308.65
424.54	1294.32
424.75	1296.36
424.95	1261.55
425.16	1308.65
425.36	1247.21
425.57	1339.37
425.78	1275.88
425.98	1282.03
426.19	1310.70
426.39	1275.88
426.60	1320.94
426.81	1265.64
427.01	1312.75
427.22	1318.89
427.42	1245.16
427.63	1249.26
427.83	1335.28
428.04	1255.40
428.25	1302.51
428.45	1294.32
428.66	1222.64
428.86	1271.79
429.07	1265.64
429.28	1304.56
429.48	1306.60
429.69	1298.41
429.89	1230.83
430.10	1257.45
430.30	1312.75
430.51	1296.36
430.71	1212.40
430.92	1261.55
431.13	1241.07
431.33	1273.84
431.54	1241.07
431.74	1247.21
431.95	1294.32
432.15	1267.69
432.36	1263.60
432.56	1273.84
432.77	1290.22
432.98	1204.21
433.18	1259.50
433.39	1251.31
433.59	1193.97
433.80	1257.45
434.00	1322.99
434.21	1292.27
434.41	1239.02
434.62	1337.32
434.82	1357.80
435.03	1284.08
435.23	1239.02
435.44	1269.74
435.64	1304.56
435.85	1290.22
436.06	1267.69
436.26	1210.35
436.47	1245.16
436.67	1222.64
436.88	1243.12
437.08	1300.46
437.29	1177.58
437.49	1224.69
437.70	1247.21
437.90	1232.88
438.11	1263.60
438.31	1273.84
438.52	1316.84
438.72	1230.83
438.93	1308.65
439.13	1277.93
439.34	1251.31
439.54	1298.41
439.75	1314.80
439.95	1282.03
440.16	1333.23
440.36	1327.08
440.57	1279.98
440.77	1314.80
440.98	1241.07
441.18	1318.89
441.39	1247.21
441.59	1312.75
441.80	1247.21
442.00	1269.74
442.21	1279.98
442.41	1245.16
442.62	1263.60
442.82	1284.08
443.02	1216.49
443.23	1241.07
443.43	1269.74
443.64	1279.98
443.84	1298.41
444.05	1267.69
444.25	1312.75
444.46	1253.36
444.66	1308.65
444.87	1329.13
445.07	1249.26
445.28	1378.28
445.48	1247.21
445.69	1279.98
445.89	1363.95
446.09	1304.56
446.30	1400.81
446.50	1236.97
446.71	1275.88
446.91	1265.64
447.12	1290.22
447.32	1349.61
447.53	1314.80
447.73	1290.22
447.93	1271.79
448.14	1308.65
448.34	1322.99
448.55	1282.03
448.75	1273.84
448.96	1253.36
449.16	1312.75
449.36	1337.32
449.57	1261.55
449.77	1275.88
449.98	1224.69
450.18	1257.45
450.39	1251.31
450.59	1263.60
450.79	1247.21
451.00	1232.88
451.20	1214.45
451.41	1232.88
451.61	1212.40
451.81	1200.11
452.02	1189.87
452.22	1314.80
452.43	1372.14
452.63	1241.07
452.84	1261.55
453.04	1208.30
453.24	1259.50
453.45	1236.97
453.65	1318.89
453.86	1343.47
454.06	1290.22
454.26	1255.40
454.47	1247.21
454.67	1316.84
454.87	1249.26
455.08	1228.78
455.28	1357.80
455.49	1304.56
455.69	1230.83
455.89	1261.55
456.10	1298.41
456.30	1286.12
456.51	1314.80
456.71	1292.27
456.91	1271.79
457.12	1345.52
457.32	1296.36
457.52	1306.60
457.73	1249.26
457.93	1304.56
458.14	1277.93
458.34	1263.60
458.54	1314.80
458.75	1247.21
458.95	1349.61
459.15	1314.80
459.36	1265.64
459.56	1271.79
459.76	1286.12
459.97	1257.45
460.17	1284.08
460.37	1263.60
460.58	1286.12
460.78	1314.80
460.99	1331.18
461.19	1290.22
461.39	1304.56
461.60	1275.88
461.80	1282.03
462.00	1241.07
462.21	1282.03
462.41	1288.17
462.61	1300.46
462.82	1296.36
463.02	1331.18
463.22	1322.99
463.43	1173.49
463.63	1261.55
463.83	1345.52
464.04	1284.08
464.24	1288.17
464.44	1236.97
464.64	1329.13
464.85	1279.98
465.05	1216.49
465.25	1204.21
465.46	1261.55
465.66	1226.73
465.86	1277.93
466.07	1284.08
466.27	1337.32
466.47	1269.74
466.68	1318.89
466.88	1318.89
467.08	1261.55
467.29	1263.60
467.49	1218.54
467.69	1312.75
467.89	1279.98
468.10	1271.79
468.30	1298.41
468.50	1312.75
468.71	1325.04
468.91	1241.07
469.11	1261.55
469.31	1265.64
469.52	1249.26
469.72	1214.45
469.92	1255.40
470.13	1314.80
470.33	1230.83
470.53	1251.31
470.73	1310.70
470.94	1318.89
471.14	1247.21
471.34	1267.69
471.54	1355.76
471.75	1271.79
471.95	1251.31
472.15	1282.03
472.36	1269.74
472.56	1257.45
472.76	1288.17
472.96	1261.55
473.17	1251.31
473.37	1257.45
473.57	1234.93
473.77	1193.97
473.98	1314.80
474.18	1298.41
474.38	1284.08
474.58	1292.27
474.79	1275.88
474.99	1249.26
475.19	1320.94
475.39	1273.84
475.60	1245.16
475.80	1339.37
476.00	1279.98
476.20	1216.49
476.41	1220.59
476.61	1236.97
476.81	1236.97
477.01	1189.87
477.21	1271.79
477.42	1259.50
477.62	1175.53
477.82	1230.83
478.02	1220.59
478.23	1251.31
478.43	1214.45
478.63	1249.26
478.83	1290.22
479.03	1226.73
479.24	1259.50
479.44	1212.40
479.64	1273.84
479.84	1282.03
480.04	1284.08
480.25	1249.26
480.45	1259.50
480.65	1331.18
480.85	1263.60
481.06	1271.79
481.26	1220.59
481.46	1261.55
481.66	1273.84
481.86	1228.78
482.06	1351.66
482.27	1314.80
482.47	1255.40
482.67	1265.64
482.87	1220.59
483.07	1255.40
483.28	1284.08
483.48	1249.26
483.68	1245.16
483.88	1298.41
484.08	1247.21
484.29	1263.60
484.49	1241.07
484.69	1306.60
484.89	1304.56
485.09	1253.36
485.29	1273.84
485.50	1273.84
485.70	1286.12
485.90	1249.26
486.10	1290.22
486.30	1167.34
486.50	1249.26
486.71	1228.78
486.91	1263.60
487.11	1294.32
487.31	1255.40
487.51	1286.12
487.71	1257.45
487.91	1290.22
488.12	1261.55
488.32	1271.79
488.52	1265.64
488.72	1214.45
488.92	1245.16
489.12	1339.37
489.32	1216.49
489.53	1224.69
489.73	1296.36
489.93	1263.60
490.13	1257.45
490.33	1343.47
490.53	1265.64
490.73	1271.79
490.94	1312.75
491.14	1294.32
491.34	1265.64
491.54	1241.07
491.74	1277.93
491.94	1314.80
492.14	1267.69
492.34	1310.70
492.54	1263.60
492.75	1257.45
492.95	1183.73
493.15	1239.02
493.35	1312.75
493.55	1271.79
493.75	1198.06
493.95	1200.11
494.15	1265.64
494.35	1302.51
494.56	1243.12
494.76	1247.21
494.96	1316.84
495.16	1193.97
495.36	1228.78
495.56	1296.36
495.76	1294.32
495.96	1308.65
496.16	1310.70
496.36	1294.32
496.56	1308.65
496.77	1251.31
496.97	1318.89
497.17	1296.36
497.37	1263.60
497.57	1290.22
497.77	1277.93
497.97	1294.32
498.17	1322.99
498.37	1279.98
498.57	1271.79
498.77	1288.17
498.97	1302.51
499.17	1296.36
499.38	1282.03
499.58	1249.26
499.78	1232.88
499.98	1296.36
500.18	1288.17
500.38	1306.60
500.58	1206.25
500.78	1279.98
500.98	1257.45
501.18	1366.00
501.38	1220.59
501.58	1255.40
501.78	1255.40
501.98	1155.05
502.18	1263.60
502.38	1286.12
502.58	1261.55
502.78	1202.16
502.98	1306.60
503.18	1310.70
503.38	1308.65
503.59	1245.16
503.79	1232.88
503.99	1349.61
504.19	1355.76
504.39	1269.74
504.59	1277.93
504.79	1249.26
504.99	1286.12
505.19	1249.26
505.39	1286.12
505.59	1210.35
505.79	1292.27
505.99	1241.07
506.19	1290.22
506.39	1314.80
506.59	1255.40
506.79	1259.50
506.99	1234.93
507.19	1325.04
507.39	1314.80
507.59	1239.02
507.79	1277.93
507.99	1202.16
508.19	1302.51
508.39	1331.18
508.59	1275.88
508.79	1226.73
508.99	1327.08
509.19	1271.79
509.39	1269.74
509.59	1222.64
509.79	1261.55
509.99	1361.90
510.19	1333.23
510.39	1263.60
510.59	1222.64
510.79	1277.93
510.99	1261.55
511.19	1265.64
511.39	1363.95
511.59	1288.17
511.79	1290.22
511.99	1269.74
512.19	1214.45
512.38	1251.31
512.58	1245.16
512.78	1222.64
512.98	1247.21
513.18	1249.26
513.38	1298.41
513.58	1275.88
513.78	1243.12
513.98	1331.18
514.18	1228.78
514.38	1208.30
514.58	1302.51
514.78	1320.94
514.98	1275.88
515.18	1306.60
515.38	1329.13
515.58	1288.17
515.78	1255.40
515.98	1366.00
516.18	1257.45
516.38	1284.08
516.57	1286.12
516.77	1247.21
516.97	1267.69
517.17	1206.25
517.37	1302.51
517.57	1222.64
517.77	1298.41
517.97	1279.98
518.17	1333.23
518.37	1243.12
518.57	1284.08
518.77	1286.12
518.97	1322.99
519.16	1290.22
519.36	1257.45
519.56	1298.41
519.76	1298.41
519.96	1325.04
520.16	1267.69
520.36	1218.54
520.56	1273.84
520.76	1279.98
520.96	1271.79
521.16	1288.17
521.35	1230.83
521.55	1333.23
521.75	1282.03
521.95	1257.45
522.15	1347.56
522.35	1298.41
522.55	1263.60
522.75	1306.60
522.95	1265.64
523.14	1316.84
523.34	1294.32
523.54	1263.60
523.74	1251.31
523.94	1251.31
524.14	1320.94
524.34	1331.18
524.54	1273.84
524.73	1265.64
524.93	1275.88
525.13	1329.13
525.33	1234.93
525.53	1378.28
525.73	1363.95
525.93	1314.80
526.13	1279.98
526.32	1300.46
526.52	1277.93
526.72	1363.95
526.92	1339.37
527.12	1273.84
527.32	1361.90
527.52	1255.40
527.71	1298.41
527.91	1277.93
528.11	1277.93
528.31	1271.79
528.51	1351.66
528.71	1314.80
528.90	1320.94
529.10	1249.26
529.30	1308.65
529.50	1257.45
529.70	1282.03
529.90	1263.60
530.09	1302.51
530.29	1230.83
530.49	1230.83
530.69	1230.83
530.89	1325.04
531.09	1255.40
531.28	1245.16
531.48	1236.97
531.68	1351.66
531.88	1322.99
532.08	1306.60
532.28	1294.32
532.47	1247.21
532.67	1277.93
532.87	1341.42
533.07	1312.75
533.27	1312.75
533.46	1335.28
533.66	1284.08
533.86	1239.02
534.06	1286.12
534.26	1294.32
534.45	1290.22
534.65	1343.47
534.85	1251.31
535.05	1325.04
535.25	1247.21
535.44	1275.88
535.64	1318.89
535.84	1265.64
536.04	1261.55
536.24	1277.93
536.43	1277.93
536.63	1282.03
536.83	1300.46
537.03	1191.92
537.22	1300.46
537.42	1214.45
537.62	1284.08
537.82	1361.90
538.02	1249.26
538.21	1302.51
538.41	1286.12
538.61	1288.17
538.81	1292.27
539.00	1370.09
539.20	1298.41
539.40	1282.03
539.60	1341.42
539.79	1284.08
539.99	1228.78
540.19	1261.55
540.39	1308.65
540.58	1310.70
540.78	1277.93
540.98	1308.65
541.18	1312.75
541.37	1239.02
541.57	1382.38
541.77	1282.03
541.97	1251.31
542.16	1255.40
542.36	1331.18
542.56	1282.03
542.76	1220.59
542.95	1316.84
543.15	1292.27
543.35	1282.03
543.54	1214.45
543.74	1286.12
543.94	1288.17
544.14	1273.84
544.33	1273.84
544.53	1232.88
544.73	1226.73
544.93	1320.94
545.12	1255.40
545.32	1337.32
545.52	1308.65
545.71	1335.28
545.91	1273.84
546.11	1279.98
546.30	1247.21
546.50	1322.99
546.70	1306.60
546.90	1288.17
547.09	1286.12
547.29	1318.89
547.49	1279.98
547.68	1259.50
547.88	1275.88
548.08	1267.69
548.27	1302.51
548.47	1232.88
548.67	1322.99
548.87	1290.22
549.06	1310.70
549.26	1241.07
549.46	1282.03
549.65	1308.65
549.85	1234.93
550.05	1296.36
550.24	1255.40
550.44	1343.47
550.64	1275.88
550.83	1286.12
551.03	1249.26
551.23	1286.12
551.42	1241.07
551.62	1241.07
551.82	1333.23
552.01	1331.18
552.21	1275.88
552.41	1316.84
552.60	1308.65
552.80	1335.28
553.00	1261.55
553.19	1351.66
553.39	1325.04
553.59	1236.97
553.78	1298.41
553.98	1265.64
554.17	1263.60
554.37	1251.31
554.57	1263.60
554.76	1286.12
554.96	1230.83
555.16	1212.40
555.35	1290.22
555.55	1310.70
555.75	1322.99
555.94	1269.74
556.14	1241.07
556.33	1318.89
556.53	1224.69
556.73	1236.97
556.92	1322.99
557.12	1239.02
557.32	1267.69
557.51	1286.12
557.71	1300.46
557.90	1296.36
558.10	1271.79
558.30	1318.89
558.49	1290.22
558.69	1366.00
558.88	1300.46
559.08	1247.21
559.28	1288.17
559.47	1245.16
559.67	1294.32
559.86	1298.41
560.06	1282.03
560.26	1343.47
560.45	1241.07
560.65	1257.45
560.84	1196.01
561.04	1279.98
561.24	1257.45
561.43	1282.03
561.63	1257.45
561.82	1312.75
562.02	1400.81
562.22	1212.40
562.41	1304.56
562.61	1341.42
562.80	1265.64
563.00	1271.79
563.19	1269.74
563.39	1282.03
563.59	1320.94
563.78	1327.08
563.98	1239.02
564.17	1386.47
564.37	1228.78
564.56	1282.03
564.76	1290.22
564.96	1245.16
565.15	1249.26
565.35	1329.13
565.54	1263.60
565.74	1265.64
565.93	1284.08
566.13	1306.60
566.32	1265.64
566.52	1267.69
566.71	1269.74
566.91	1314.80
567.11	1269.74
567.30	1267.69
567.50	1316.84
567.69	1312.75
567.89	1265.64
568.08	1396.71
568.28	1304.56
568.47	1222.64
568.67	1296.36
568.86	1386.47
569.06	1292.27
569.25	1257.45
569.45	1261.55
569.64	1335.28
569.84	1292.27
570.04	1316.84
570.23	1241.07
570.43	1279.98
570.62	1294.32
570.82	1306.60
571.01	1243.12
571.21	1214.45
571.40	1314.80
571.60	1288.17
571.79	1210.35
571.99	1292.27
572.18	1286.12
572.38	1232.88
572.57	1331.18
572.77	1329.13
572.96	1357.80
573.16	1306.60
573.35	1282.03
573.55	1271.79
573.74	1312.75
573.94	1241.07
574.13	1282.03
574.33	1241.07
574.52	1267.69
574.71	1331.18
574.91	1234.93
575.10	1300.46
575.30	1245.16
575.49	1314.80
575.69	1318.89
575.88	1282.03
576.08	1312.75
576.27	1230.83
576.47	1286.12
576.66	1339.37
576.86	1366.00
577.05	1300.46
577.25	1245.16
577.44	1212.40
577.64	1249.26
577.83	1284.08
578.02	1265.64
578.22	1232.88
578.41	1232.88
578.61	1271.79
578.80	1257.45
579.00	1331.18
579.19	1314.80
579.39	1243.12
579.58	1275.88
579.77	1277.93
579.97	1279.98
580.16	1333.23
580.36	1290.22
580.55	1263.60
580.75	1261.55
580.94	1257.45
581.13	1282.03
581.33	1185.77
581.52	1296.36
581.72	1337.32
581.91	1298.41
582.11	1282.03
582.30	1290.22
582.49	1312.75
582.69	1298.41
582.88	1304.56
583.08	1286.12
583.27	1304.56
583.47	1241.07
583.66	1296.36
583.85	1292.27
584.05	1263.60
584.24	1230.83
584.44	1286.12
584.63	1308.65
584.82	1232.88
585.02	1265.64
585.21	1300.46
585.41	1302.51
585.60	1279.98
585.79	1241.07
585.99	1241.07
586.18	1259.50
586.37	1275.88
586.57	1320.94
586.76	1284.08
586.96	1249.26
587.15	1355.76
587.34	1226.73
587.54	1277.93
587.73	1300.46
587.93	1294.32
588.12	1333.23
588.31	1318.89
588.51	1302.51
588.70	1314.80
588.89	1339.37
589.09	1306.60
589.28	1288.17
589.47	1257.45
589.67	1253.36
589.86	1259.50
590.06	1284.08
590.25	1273.84
590.44	1304.56
590.64	1277.93
590.83	1259.50
591.02	1236.97
591.22	1292.27
591.41	1282.03
591.60	1318.89
591.80	1296.36
591.99	1206.25
592.18	1212.40
592.38	1282.03
592.57	1220.59
592.76	1320.94
592.96	1329.13
593.15	1257.45
593.34	1249.26
593.54	1288.17
593.73	1290.22
593.92	1273.84
594.12	1296.36
594.31	1294.32
594.50	1249.26
594.70	1251.31
594.89	1306.60
595.08	1206.25
595.28	1314.80
595.47	1318.89
595.66	1275.88
595.86	1277.93
596.05	1292.27
596.24	1216.49
596.43	1257.45
596.63	1349.61
596.82	1290.22
597.01	1228.78
597.21	1296.36
597.40	1357.80
597.59	1294.32
597.79	1314.80
597.98	1269.74
598.17	1320.94
598.36	1198.06
598.56	1320.94
598.75	1345.52
598.94	1318.89
599.14	1296.36
599.33	1325.04
599.52	1218.54
599.71	1325.04
599.91	1218.54
600.10	1327.08
600.29	1314.80
600.48	1277.93
600.68	1292.27
600.87	1284.08
601.06	1261.55
601.26	1222.64
601.45	1312.75
601.64	1206.25
601.83	1273.84
602.03	1243.12
602.22	1263.60
602.41	1298.41
602.60	1333.23
602.80	1239.02
602.99	1267.69
603.18	1247.21
603.37	1290.22
603.57	1290.22
603.76	1263.60
603.95	1288.17
604.14	1331.18
604.34	1230.83
604.53	1263.60
604.72	1279.98
604.91	1359.85
605.10	1277.93
605.30	1267.69
605.49	1296.36
605.68	1300.46
605.87	1269.74
606.07	1277.93
606.26	1322.99
606.45	1257.45
606.64	1284.08
606.84	1294.32
607.03	1269.74
607.22	1331.18
607.41	1368.04
607.60	1306.60
607.80	1318.89
607.99	1196.01
608.18	1191.92
608.37	1327.08
608.56	1263.60
608.76	1288.17
608.95	1245.16
609.14	1316.84
609.33	1273.84
609.52	1294.32
609.72	1267.69
609.91	1271.79
610.10	1275.88
610.29	1300.46
610.48	1169.39
610.68	1298.41
610.87	1294.32
611.06	1232.88
611.25	1251.31
611.44	1318.89
611.63	1277.93
611.83	1232.88
612.02	1269.74
612.21	1226.73
612.40	1255.40
612.59	1249.26
612.79	1232.88
612.98	1320.94
613.17	1259.50
613.36	1357.80
613.55	1265.64
613.74	1339.37
613.93	1193.97
614.13	1296.36
614.32	1273.84
614.51	1279.98
614.70	1275.88
614.89	1298.41
615.08	1308.65
615.28	1308.65
615.47	1226.73
615.66	1306.60
615.85	1288.17
616.04	1249.26
616.23	1282.03
616.42	1325.04
616.62	1253.36
616.81	1218.54
617.00	1300.46
617.19	1273.84
617.38	1302.51
617.57	1220.59
617.76	1288.17
617.95	1357.80
618.15	1245.16
618.34	1243.12
618.53	1236.97
618.72	1294.32
618.91	1322.99
619.10	1331.18
619.29	1243.12
619.48	1265.64
619.68	1310.70
619.87	1314.80
620.06	1302.51
620.25	1331.18
620.44	1243.12
620.63	1273.84
620.82	1282.03
621.01	1286.12
621.20	1329.13
621.39	1275.88
621.59	1273.84
621.78	1198.06
621.97	1230.83
622.16	1300.46
622.35	1310.70
622.54	1298.41
622.73	1361.90
622.92	1220.59
623.11	1318.89
623.30	1351.66
623.49	1316.84
623.68	1306.60
623.88	1257.45
624.07	1253.36
624.26	1388.52
624.45	1271.79
624.64	1304.56
624.83	1304.56
625.02	1253.36
625.21	1255.40
625.40	1333.23
625.59	1296.36
625.78	1294.32
625.97	1292.27
626.16	1234.93
626.35	1257.45
626.54	1183.73
626.74	1232.88
626.93	1290.22
627.12	1355.76
627.31	1253.36
627.50	1380.33
627.69	1265.64
627.88	1290.22
628.07	1343.47
628.26	1304.56
628.45	1279.98
628.64	1282.03
628.83	1243.12
629.02	1322.99
629.21	1320.94
629.40	1296.36
629.59	1292.27
629.78	1292.27
629.97	1271.79
630.16	1282.03
630.35	1333.23
630.54	1331.18
630.73	1298.41
630.92	1345.52
631.11	1249.26
631.30	1298.41
631.49	1357.80
631.68	1415.15
631.87	1433.58
632.06	1542.12
632.25	1497.07
632.44	1480.68
632.63	1497.07
632.82	1578.98
633.01	1761.25
633.20	1562.60
633.39	1597.42
633.58	1556.46
633.77	1601.51
633.96	1626.09
634.15	1587.18
634.34	1576.94
634.53	1538.02
634.72	1570.79
634.91	1556.46
635.10	1515.50
635.29	1433.58
635.48	1525.74
635.67	1497.07
635.86	1511.40
636.05	1488.87
636.24	1449.96
636.43	1359.85
636.62	1406.95
636.81	1390.57
637.00	1409.00
637.19	1241.07
637.38	1298.41
637.57	1290.22
637.76	1333.23
637.95	1273.84
638.14	1322.99
638.33	1335.28
638.52	1290.22
638.71	1271.79
638.89	1302.51
639.08	1302.51
639.27	1355.76
639.46	1296.36
639.65	1310.70
639.84	1275.88
640.03	1232.88
640.22	1290.22
640.41	1290.22
640.60	1325.04
640.79	1327.08
640.98	1265.64
641.17	1294.32
641.36	1273.84
641.55	1294.32
641.74	1267.69
641.92	1290.22
642.11	1286.12
642.30	1249.26
642.49	1288.17
642.68	1320.94
642.87	1306.60
643.06	1284.08
643.25	1232.88
643.44	1292.27
643.63	1322.99
643.82	1267.69
644.00	1234.93
644.19	1331.18
644.38	1298.41
644.57	1263.60
644.76	1177.58
644.95	1275.88
645.14	1300.46
645.33	1284.08
645.52	1204.21
645.71	1286.12
645.89	1318.89
646.08	1224.69
646.27	1277.93
646.46	1343.47
646.65	1273.84
646.84	1259.50
647.03	1189.87
647.22	1345.52
647.40	1339.37
647.59	1286.12
647.78	1306.60
647.97	1261.55
648.16	1347.56
648.35	1288.17
648.54	1335.28
648.73	1273.84
648.91	1239.02
649.10	1337.32
649.29	1296.36
649.48	1218.54
649.67	1249.26
649.86	1263.60
650.05	1245.16
650.23	1288.17
650.42	1263.60
650.61	1310.70
650.80	1277.93
650.99	1294.32
651.18	1239.02
651.36	1243.12
651.55	1290.22
651.74	1298.41
651.93	1308.65
652.12	1271.79
652.31	1247.21
652.49	1314.80
652.68	1277.93
652.87	1277.93
653.06	1224.69
653.25	1241.07
653.44	1220.59
653.62	1263.60
653.81	1245.16
654.00	1279.98
654.19	1282.03
654.38	1327.08
654.56	1322.99
654.75	1249.26
654.94	1286.12
655.13	1271.79
655.32	1234.93
655.51	1210.35
655.69	1269.74
655.88	1232.88
656.07	1286.12
656.26	1302.51
656.45	1284.08
656.63	1282.03
656.82	1282.03
657.01	1263.60
657.20	1300.46
657.38	1296.36
657.57	1290.22
657.76	1300.46
657.95	1288.17
658.14	1265.64
658.32	1249.26
658.51	1259.50
658.70	1271.79
658.89	1322.99
659.08	1339.37
659.26	1265.64
659.45	1245.16
659.64	1232.88
659.83	1181.68
660.01	1265.64
660.20	1263.60
660.39	1282.03
660.58	1290.22
660.76	1255.40
660.95	1210.35
661.14	1257.45
661.33	1290.22
661.51	1257.45
661.70	1261.55
661.89	1251.31
662.08	1327.08
662.26	1296.36
662.45	1298.41
662.64	1292.27
662.83	1236.97
663.01	1271.79
663.20	1275.88
663.39	1249.26
663.58	1341.42
663.76	1335.28
663.95	1251.31
664.14	1298.41
664.32	1300.46
664.51	1322.99
664.70	1230.83
664.89	1255.40
665.07	1304.56
665.26	1243.12
665.45	1239.02
665.64	1329.13
665.82	1306.60
666.01	1282.03
666.20	1318.89
666.38	1304.56
666.57	1329.13
666.76	1269.74
666.95	1300.46
667.13	1292.27
667.32	1292.27
667.51	1271.79
667.69	1308.65
667.88	1224.69
668.07	1251.31
668.25	1343.47
668.44	1253.36
668.63	1255.40
668.81	1296.36
669.00	1339.37
669.19	1259.50
669.38	1314.80
669.56	1236.97
669.75	1296.36
669.94	1208.30
670.12	1222.64
670.31	1277.93
670.50	1351.66
670.68	1292.27
670.87	1249.26
671.06	1277.93
671.24	1284.08
671.43	1236.97
671.62	1265.64
671.80	1230.83
671.99	1351.66
672.18	1312.75
672.36	1269.74
672.55	1224.69
672.74	1249.26
672.92	1314.80
673.11	1314.80
673.29	1304.56
673.48	1288.17
673.67	1277.93
673.85	1314.80
674.04	1331.18
674.23	1247.21
674.41	1349.61
674.60	1251.31
674.79	1263.60
674.97	1322.99
675.16	1269.74
675.34	1316.84
675.53	1249.26
675.72	1353.71
675.90	1277.93
676.09	1265.64
676.28	1304.56
676.46	1265.64
676.65	1226.73
676.83	1370.09
677.02	1212.40
677.21	1316.84
677.39	1224.69
677.58	1255.40
677.77	1243.12
677.95	1259.50
678.14	1259.50
678.32	1312.75
678.51	1290.22
678.70	1277.93
678.88	1292.27
679.07	1241.07
679.25	1286.12
679.44	1390.57
679.63	1249.26
679.81	1271.79
680.00	1333.23
680.18	1249.26
680.37	1253.36
680.55	1286.12
680.74	1263.60
680.93	1269.74
681.11	1247.21
681.30	1335.28
681.48	1374.19
681.67	1339.37
681.85	1267.69
682.04	1273.84
682.23	1247.21
682.41	1275.88
682.60	1286.12
682.78	1300.46
682.97	1271.79
683.15	1249.26
683.34	1279.98
683.53	1337.32
683.71	1239.02
683.90	1206.25
684.08	1247.21
684.27	1277.93
684.45	1312.75
684.64	1255.40
684.82	1302.51
685.01	1226.73
685.19	1329.13
685.38	1273.84
685.57	1296.36
685.75	1226.73
685.94	1253.36
686.12	1183.73
686.31	1298.41
686.49	1208.30
686.68	1243.12
686.86	1216.49
687.05	1327.08
687.23	1322.99
687.42	1171.44
687.60	1333.23
687.79	1325.04
687.97	1273.84
688.16	1290.22
688.34	1249.26
688.53	1222.64
688.71	1275.88
688.90	1277.93
689.08	1230.83
689.27	1284.08
689.45	1236.97
689.64	1236.97
689.82	1212.40
690.01	1220.59
690.19	1279.98
690.38	1314.80
690.56	1263.60
690.75	1243.12
690.93	1247.21
691.12	1286.12
691.30	1286.12
691.49	1247.21
691.67	1249.26
691.86	1234.93
692.04	1271.79
692.23	1267.69
692.41	1257.45
692.60	1253.36
692.78	1286.12
692.97	1251.31
693.15	1251.31
693.34	1257.45
693.52	1288.17
693.71	1294.32
693.89	1314.80
694.08	1239.02
694.26	1279.98
694.44	1191.92
694.63	1318.89
694.81	1290.22
695.00	1208.30
695.18	1296.36
695.37	1232.88
695.55	1292.27
695.74	1208.30
695.92	1279.98
696.10	1239.02
696.29	1288.17
696.47	1255.40
696.66	1263.60
696.84	1261.55
697.03	1325.04
697.21	1325.04
697.40	1368.04
697.58	1290.22
697.76	1304.56
697.95	1300.46
698.13	1277.93
698.32	1232.88
698.50	1263.60
698.68	1288.17
698.87	1259.50
699.05	1275.88
699.24	1173.49
699.42	1327.08
699.61	1220.59
699.79	1271.79
699.97	1198.06
700.16	1267.69
700.34	1304.56
700.53	1271.79
700.71	1279.98
700.89	1329.13
701.08	1273.84
701.26	1255.40
701.45	1345.52
701.63	1259.50
701.81	1279.98
702.00	1200.11
702.18	1277.93
702.37	1226.73
702.55	1230.83
702.73	1214.45
702.92	1165.29
703.10	1265.64
703.28	1255.40
703.47	1277.93
703.65	1343.47
703.84	1271.79
704.02	1300.46
704.20	1265.64
704.39	1261.55
704.57	1241.07
704.75	1296.36
704.94	1257.45
705.12	1206.25
705.30	1200.11
705.49	1331.18
705.67	1200.11
705.86	1247.21
706.04	1282.03
706.22	1261.55
706.41	1269.74
706.59	1296.36
706.77	1322.99
706.96	1234.93
707.14	1298.41
707.32	1232.88
707.51	1286.12
707.69	1239.02
707.87	1234.93
708.06	1263.60
708.24	1308.65
708.42	1337.32
708.61	1269.74
708.79	1239.02
708.97	1296.36
709.16	1312.75
709.34	1320.94
709.52	1232.88
709.71	1239.02
709.89	1220.59
710.07	1318.89
710.26	1286.12
710.44	1304.56
710.62	1185.77
710.80	1255.40
710.99	1212.40
711.17	1245.16
711.35	1273.84
711.54	1253.36
711.72	1259.50
711.90	1282.03
712.09	1331.18
712.27	1228.78
712.45	1296.36
712.63	1277.93
712.82	1296.36
713.00	1273.84
713.18	1333.23
713.37	1279.98
713.55	1282.03
713.73	1314.80
713.91	1204.21
714.10	1239.02
714.28	1208.30
714.46	1245.16
714.65	1271.79
714.83	1249.26
715.01	1290.22
715.19	1286.12
715.38	1224.69
715.56	1331.18
715.74	1206.25
715.92	1322.99
716.11	1298.41
716.29	1306.60
716.47	1249.26
716.65	1290.22
716.84	1286.12
717.02	1259.50
717.20	1314.80
717.38	1273.84
717.57	1325.04
717.75	1183.73
717.93	1243.12
718.11	1298.41
718.30	1335.28
718.48	1251.31
718.66	1269.74
718.84	1290.22
719.03	1228.78
719.21	1312.75
719.39	1275.88
719.57	1284.08
719.75	1251.31
719.94	1325.04
720.12	1286.12
720.30	1304.56
720.48	1255.40
720.67	1263.60
720.85	1253.36
721.03	1292.27
721.21	1279.98
721.39	1325.04
721.58	1255.40
721.76	1294.32
721.94	1284.08
722.12	1269.74
722.30	1265.64
722.49	1187.82
722.67	1306.60
722.85	1247.21
723.03	1304.56
723.21	1327.08
723.40	1253.36
723.58	1286.12
723.76	1335.28
723.94	1236.97
724.12	1234.93
724.30	1245.16
724.49	1267.69
724.67	1271.79
724.85	1288.17
725.03	1230.83
725.21	1331.18
725.40	1298.41
725.58	1325.04
725.76	1255.40
725.94	1310.70
726.12	1288.17
726.30	1312.75
726.49	1243.12
726.67	1292.27
726.85	1253.36
727.03	1196.01
727.21	1259.50
727.39	1224.69
727.57	1236.97
727.76	1226.73
727.94	1298.41
728.12	1224.69
728.30	1282.03
728.48	1261.55
728.66	1206.25
728.84	1206.25
729.03	1247.21
729.21	1322.99
729.39	1345.52
729.57	1245.16
729.75	1353.71
729.93	1298.41
730.11	1273.84
730.30	1282.03
730.48	1300.46
730.66	1308.65
730.84	1277.93
731.02	1288.17
731.20	1292.27
731.38	1253.36
731.56	1247.21
731.74	1220.59
731.93	1245.16
732.11	1234.93
732.29	1312.75
732.47	1316.84
732.65	1282.03
732.83	1357.80
733.01	1261.55
733.19	1267.69
733.37	1255.40
733.56	1259.50
733.74	1220.59
733.92	1249.26
734.10	1245.16
734.28	1230.83
734.46	1290.22
734.64	1247.21
734.82	1232.88
735.00	1312.75
735.18	1241.07
735.36	1263.60
735.54	1253.36
735.73	1277.93
735.91	1327.08
736.09	1347.56
736.27	1196.01
736.45	1298.41
736.63	1243.12
736.81	1269.74
736.99	1247.21
737.17	1290.22
737.35	1234.93
737.53	1308.65
737.71	1249.26
737.89	1298.41
738.07	1261.55
738.25	1230.83
738.43	1247.21
738.61	1210.35
738.80	1218.54
738.98	1243.12
739.16	1232.88
739.34	1222.64
739.52	1187.82
739.70	1271.79
739.88	1245.16
740.06	1220.59
740.24	1214.45
740.42	1224.69
740.60	1320.94
740.78	1288.17
740.96	1265.64
741.14	1251.31
741.32	1288.17
741.50	1277.93
741.68	1198.06
741.86	1322.99
742.04	1210.35
742.22	1181.68
742.40	1263.60
742.58	1361.90
742.76	1286.12
742.94	1277.93
743.12	1261.55
743.30	1269.74
743.48	1269.74
743.66	1220.59
743.84	1218.54
744.02	1277.93
744.20	1327.08
744.38	1261.55
744.56	1247.21
744.74	1269.74
744.92	1253.36
745.10	1216.49
745.28	1239.02
745.46	1314.80
745.64	1294.32
745.82	1245.16
746.00	1294.32
746.18	1198.06
746.36	1234.93
746.54	1298.41
746.72	1314.80
746.90	1286.12
747.08	1224.69
747.26	1284.08
747.44	1292.27
747.62	1230.83
747.80	1288.17
747.98	1292.27
748.15	1290.22
748.33	1261.55
748.51	1257.45
748.69	1316.84
748.87	1361.90
749.05	1202.16
749.23	1271.79
749.41	1286.12
749.59	1212.40
749.77	1282.03
749.95	1239.02
750.13	1185.77
750.31	1304.56
750.49	1245.16
750.67	1269.74
750.85	1341.42
751.03	1251.31
751.20	1300.46
751.38	1232.88
751.56	1163.25
751.74	1282.03
751.92	1275.88
752.10	1208.30
752.28	1236.97
752.46	1230.83
752.64	1185.77
752.82	1312.75
753.00	1349.61
753.18	1204.21
753.35	1261.55
753.53	1361.90
753.71	1202.16
753.89	1269.74
754.07	1318.89
754.25	1243.12
754.43	1312.75
754.61	1302.51
754.79	1230.83
754.97	1282.03
755.14	1265.64
755.32	1202.16
755.50	1282.03
755.68	1273.84
755.86	1273.84
756.04	1296.36
756.22	1302.51
756.40	1337.32
756.57	1247.21
756.75	1228.78
756.93	1249.26
757.11	1257.45
757.29	1261.55
757.47	1251.31
757.65	1257.45
757.82	1249.26
758.00	1239.02
758.18	1193.97
758.36	1316.84
758.54	1183.73
758.72	1279.98
758.90	1271.79
759.07	1290.22
759.25	1255.40
759.43	1279.98
759.61	1300.46
759.79	1263.60
759.97	1249.26
760.15	1339.37
760.32	1353.71
760.50	1255.40
760.68	1296.36
760.86	1273.84
761.04	1351.66
761.22	1245.16
761.39	1292.27
761.57	1232.88
761.75	1218.54
761.93	1212.40
762.11	1243.12
762.28	1232.88
762.46	1259.50
762.64	1245.16
762.82	1304.56
763.00	1263.60
763.18	1279.98
763.35	1271.79
763.53	1404.91
763.71	1271.79
763.89	1161.20
764.07	1273.84
764.24	1298.41
764.42	1267.69
764.60	1265.64
764.78	1191.92
764.96	1277.93
765.13	1236.97
765.31	1275.88
765.49	1286.12
765.67	1296.36
765.84	1279.98
766.02	1286.12
766.20	1282.03
766.38	1261.55
766.56	1269.74
766.73	1318.89
766.91	1232.88
767.09	1226.73
767.27	1257.45
767.44	1247.21
767.62	1220.59
767.80	1308.65
767.98	1249.26
768.15	1255.40
768.33	1284.08
768.51	1245.16
768.69	1273.84
768.87	1290.22
769.04	1241.07
769.22	1277.93
769.40	1232.88
769.58	1282.03
769.75	1294.32
769.93	1241.07
770.11	1302.51
770.28	1318.89
770.46	1226.73
770.64	1251.31
770.82	1333.23
770.99	1290.22
771.17	1267.69
771.35	1310.70
771.53	1169.39
771.70	1251.31
771.88	1277.93
772.06	1275.88
772.23	1263.60
772.41	1216.49
772.59	1241.07
772.77	1257.45
772.94	1245.16
773.12	1382.38
773.30	1269.74
773.47	1183.73
773.65	1253.36
773.83	1210.35
774.01	1216.49
774.18	1290.22
774.36	1275.88
774.54	1306.60
774.71	1224.69
774.89	1259.50
775.07	1198.06
775.24	1259.50
775.42	1331.18
775.60	1314.80
775.78	1247.21
775.95	1277.93
776.13	1282.03
776.31	1249.26
776.48	1271.79
776.66	1230.83
776.84	1249.26
777.01	1308.65
777.19	1279.98
777.37	1245.16
777.54	1251.31
777.72	1306.60
777.90	1279.98
778.07	1249.26
778.25	1265.64
778.43	1206.25
778.60	1286.12
778.78	1214.45
778.96	1294.32
779.13	1224.69
779.31	1271.79
779.49	1267.69
779.66	1277.93
779.84	1300.46
780.01	1234.93
780.19	1333.23
780.37	1271.79
780.54	1255.40
780.72	1337.32
780.90	1257.45
781.07	1253.36
781.25	1273.84
781.43	1228.78
781.60	1282.03
781.78	1253.36
781.95	1212.40
782.13	1222.64
782.31	1300.46
782.48	1253.36
782.66	1214.45
782.83	1230.83
783.01	1355.76
783.19	1413.10
783.36	1257.45
783.54	1175.53
783.72	1312.75
783.89	1310.70
784.07	1339.37
784.24	1234.93
784.42	1271.79
784.60	1269.74
784.77	1296.36
784.95	1300.46
785.12	1329.13
785.30	1275.88
785.47	1247.21
785.65	1222.64
785.83	1255.40
786.00	1257.45
786.18	1218.54
786.35	1267.69
786.53	1245.16
786.71	1251.31
786.88	1255.40
787.06	1308.65
787.23	1357.80
787.41	1263.60
787.58	1282.03
787.76	1261.55
787.94	1263.60
788.11	1273.84
788.29	1251.31
788.46	1232.88
788.64	1271.79
788.81	1286.12
788.99	1304.56
789.16	1204.21
789.34	1304.56
789.52	1220.59
789.69	1236.97
789.87	1247.21
790.04	1294.32
790.22	1363.95
790.39	1292.27
790.57	1230.83
790.74	1247.21
790.92	1275.88
791.09	1222.64
791.27	1294.32
791.44	1230.83
791.62	1245.16
791.79	1187.82
791.97	1277.93
792.15	1316.84
792.32	1292.27
792.50	1290.22
792.67	1169.39
792.85	1187.82
793.02	1202.16
793.20	1314.80
793.37	1230.83
793.55	1255.40
793.72	1265.64
793.90	1302.51
794.07	1212.40
794.25	1316.84
794.42	1269.74
794.60	1232.88
794.77	1232.88
794.95	1267.69
795.12	1243.12
795.30	1245.16
795.47	1210.35
795.65	1294.32
795.82	1292.27
796.00	1222.64
796.17	1298.41
796.34	1255.40
796.52	1230.83
796.69	1247.21
796.87	1257.45
797.04	1306.60
797.22	1333.23
797.39	1271.79
797.57	1198.06
797.74	1329.13
797.92	1253.36
798.09	1320.94
798.27	1314.80
798.44	1263.60
798.62	1320.94
798.79	1267.69
798.96	1245.16
799.14	1318.89
799.31	1298.41
799.49	1224.69
799.66	1282.03
799.84	1228.78
800.01	1267.69
800.19	1314.80
800.36	1198.06
800.53	1273.84
800.71	1263.60
800.88	1245.16
801.06	1230.83
801.23	1232.88
801.41	1308.65
801.58	1271.79
801.75	1259.50
801.93	1284.08
802.10	1251.31
802.28	1298.41
802.45	1284.08
802.63	1288.17
802.80	1282.03
802.97	1257.45
803.15	1382.38
803.32	1222.64
803.50	1230.83
803.67	1284.08
803.84	1273.84
804.02	1222.64
804.19	1232.88
804.37	1255.40
804.54	1282.03
804.71	1230.83
804.89	1265.64
805.06	1241.07
805.24	1234.93
805.41	1314.80
805.58	1253.36
805.76	1284.08
805.93	1210.35
806.10	1249.26
806.28	1222.64
806.45	1249.26
806.63	1232.88
806.80	1304.56
806.97	1224.69
807.15	1286.12
807.32	1198.06
807.49	1294.32
807.67	1275.88
807.84	1236.97
808.01	1249.26
808.19	1320.94
808.36	1329.13
808.54	1306.60
808.71	1286.12
808.88	1245.16
809.06	1239.02
809.23	1269.74
809.40	1288.17
809.58	1230.83
809.75	1257.45
809.92	1288.17
810.10	1337.32
810.27	1255.40
810.44	1292.27
810.62	1271.79
810.79	1218.54
810.96	1279.98
811.14	1282.03
811.31	1269.74
811.48	1255.40
811.66	1183.73
811.83	1253.36
812.00	1343.47
812.18	1288.17
812.35	1372.14
812.52	1275.88
812.69	1320.94
812.87	1265.64
813.04	1236.97
813.21	1271.79
813.39	1312.75
813.56	1267.69
813.73	1304.56
813.91	1218.54
814.08	1253.36
814.25	1253.36
814.42	1216.49
814.60	1273.84
814.77	1279.98
814.94	1243.12
815.12	1269.74
815.29	1314.80
815.46	1302.51
815.63	1247.21
815.81	1265.64
815.98	1230.83
816.15	1333.23
816.33	1247.21
816.50	1308.65
816.67	1214.45
816.84	1288.17
817.02	1208.30
817.19	1302.51
817.36	1267.69
817.53	1255.40
817.71	1212.40
817.88	1228.78
818.05	1271.79
818.22	1243.12
818.40	1257.45
818.57	1239.02
818.74	1253.36
818.91	1241.07
819.09	1241.07
819.26	1261.55
819.43	1300.46
819.60	1259.50
819.78	1228.78
819.95	1257.45
820.12	1251.31
820.29	1273.84
820.47	1216.49
820.64	1247.21
820.81	1288.17
820.98	1294.32
821.15	1241.07
821.33	1298.41
821.50	1218.54
821.67	1275.88
821.84	1243.12
822.02	1269.74
822.19	1224.69
822.36	1218.54
822.53	1247.21
822.70	1286.12
822.88	1239.02
823.05	1261.55
823.22	1310.70
823.39	1261.55
823.56	1290.22
823.74	1288.17
823.91	1222.64
824.08	1294.32
824.25	1275.88
824.42	1312.75
824.60	1181.68
824.77	1243.12
824.94	1239.02
825.11	1265.64
825.28	1318.89
825.45	1269.74
825.63	1241.07
825.80	1298.41
825.97	1292.27
826.14	1251.31
826.31	1224.69
826.48	1302.51
826.66	1265.64
826.83	1296.36
827.00	1253.36
827.17	1331.18
827.34	1222.64
827.51	1187.82
827.69	1232.88
827.86	1257.45
828.03	1298.41
828.20	1282.03
828.37	1245.16
828.54	1241.07
828.71	1255.40
828.89	1286.12
829.06	1273.84
829.23	1370.09
829.40	1202.16
829.57	1265.64
829.74	1279.98
829.91	1255.40
830.09	1247.21
830.26	1269.74
830.43	1271.79
830.60	1230.83
830.77	1198.06
830.94	1302.51
831.11	1312.75
831.28	1277.93
831.46	1232.88
831.63	1226.73
831.80	1302.51
831.97	1304.56
832.14	1245.16
832.31	1273.84
832.48	1208.30
832.65	1318.89
832.82	1224.69
832.99	1241.07
833.17	1265.64
833.34	1232.88
833.51	1337.32
833.68	1230.83
833.85	1292.27
834.02	1318.89
834.19	1247.21
834.36	1230.83
834.53	1243.12
834.70	1269.74
834.87	1277.93
835.04	1312.75
835.22	1224.69
835.39	1247.21
835.56	1275.88
835.73	1247.21
835.90	1275.88
836.07	1241.07
836.24	1247.21
836.41	1292.27
836.58	1298.41
836.75	1265.64
836.92	1327.08
837.09	1310.70
837.26	1232.88
837.43	1312.75
837.60	1275.88
837.77	1290.22
837.94	1333.23
838.12	1316.84
838.29	1273.84
838.46	1296.36
838.63	1290.22
838.80	1349.61
838.97	1273.84
839.14	1249.26
839.31	1318.89
839.48	1249.26
839.65	1183.73
839.82	1316.84
839.99	1331.18
840.16	1279.98
840.33	1308.65
840.50	1271.79
840.67	1306.60
840.84	1206.25
841.01	1236.97
841.18	1345.52
841.35	1206.25
841.52	1241.07
841.69	1255.40
841.86	1320.94
842.03	1255.40
842.20	1261.55
842.37	1232.88
842.54	1279.98
842.71	1216.49
842.88	1304.56
843.05	1312.75
843.22	1290.22
843.39	1224.69
843.56	1275.88
843.73	1245.16
843.90	1179.63
844.07	1290.22
844.24	1257.45
844.41	1331.18
844.58	1292.27
844.75	1273.84
844.92	1304.56
845.09	1310.70
845.26	1273.84
845.43	1286.12
845.60	1212.40
845.77	1249.26
845.94	1239.02
846.10	1206.25
846.27	1191.92
846.44	1329.13
846.61	1269.74
846.78	1218.54
846.95	1269.74
847.12	1271.79
847.29	1228.78
847.46	1316.84
847.63	1298.41
847.80	1261.55
847.97	1247.21
848.14	1300.46
848.31	1236.97
848.48	1236.97
848.65	1255.40
848.82	1193.97
848.98	1275.88
849.15	1224.69
849.32	1261.55
849.49	1200.11
849.66	1284.08
849.83	1284.08
850.00	1230.83
850.17	1296.36
850.34	1308.65
850.51	1282.03
850.68	1263.60
850.85	1327.08
851.01	1261.55
851.18	1273.84
851.35	1214.45
851.52	1236.97
851.69	1271.79
851.86	1222.64
852.03	1275.88
852.20	1241.07
852.37	1331.18
852.53	1267.69
852.70	1265.64
852.87	1253.36
853.04	1249.26
853.21	1204.21
853.38	1294.32
853.55	1271.79
853.72	1265.64
853.89	1249.26
854.05	1296.36
854.22	1265.64
854.39	1255.40
854.56	1263.60
854.73	1279.98
854.90	1320.94
855.07	1253.36
855.23	1298.41
855.40	1357.80
855.57	1263.60
855.74	1282.03
855.91	1275.88
856.08	1253.36
856.25	1232.88
856.41	1322.99
856.58	1245.16
856.75	1277.93
856.92	1212.40
857.09	1277.93
857.26	1259.50
857.42	1232.88
857.59	1277.93
857.76	1310.70
857.93	1208.30
858.10	1271.79
858.27	1241.07
858.43	1288.17
858.60	1255.40
858.77	1214.45
858.94	1243.12
859.11	1267.69
859.27	1277.93
859.44	1271.79
859.61	1327.08
859.78	1243.12
859.95	1216.49
860.12	1241.07
860.28	1261.55
860.45	1216.49
860.62	1224.69
860.79	1263.60
860.95	1265.64
861.12	1267.69
861.29	1331.18
861.46	1232.88
861.63	1224.69
861.79	1259.50
861.96	1218.54
862.13	1273.84
862.30	1177.58
862.47	1312.75
862.63	1222.64
862.80	1273.84
862.97	1294.32
863.14	1320.94
863.30	1222.64
863.47	1271.79
863.64	1239.02
863.81	1298.41
863.97	1316.84
864.14	1261.55
864.31	1316.84
864.48	1220.59
864.65	1302.51
864.81	1312.75
864.98	1271.79
865.15	1261.55
865.32	1224.69
865.48	1265.64
865.65	1247.21
865.82	1247.21
865.98	1318.89
866.15	1296.36
866.32	1273.84
866.49	1279.98
866.65	1275.88
866.82	1232.88
866.99	1241.07
867.16	1271.79
867.32	1259.50
867.49	1259.50
867.66	1253.36
867.83	1277.93
867.99	1228.78
868.16	1251.31
868.33	1263.60
868.49	1259.50
868.66	1288.17
868.83	1249.26
868.99	1277.93
869.16	1273.84
869.33	1269.74
869.50	1279.98
869.66	1232.88
869.83	1275.88
870.00	1300.46
870.16	1228.78
870.33	1210.35
870.50	1302.51
870.66	1220.59
870.83	1245.16
871.00	1196.01
871.17	1304.56
871.33	1349.61
871.50	1245.16
871.67	1351.66
871.83	1265.64
872.00	1292.27
872.17	1239.02
872.33	1228.78
872.50	1282.03
872.67	1306.60
872.83	1234.93
873.00	1282.03
873.17	1232.88
873.33	1288.17
873.50	1343.47
873.67	1271.79
873.83	1279.98
874.00	1253.36
874.16	1245.16
874.33	1230.83
874.50	1279.98
874.66	1288.17
874.83	1298.41
875.00	1314.80
875.16	1298.41
875.33	1277.93
875.50	1255.40
875.66	1273.84
875.83	1261.55
875.99	1320.94
876.16	1232.88
876.33	1271.79
876.49	1337.32
876.66	1282.03
876.83	1263.60
876.99	1148.91
877.16	1327.08
877.32	1271.79
877.49	1261.55
877.66	1243.12
877.82	1314.80
877.99	1290.22
878.15	1271.79
878.32	1286.12
878.49	1206.25
878.65	1341.42
878.82	1275.88
878.98	1288.17
879.15	1265.64
879.32	1273.84
879.48	1322.99
879.65	1234.93
879.81	1339.37
879.98	1271.79
880.15	1314.80
880.31	1255.40
880.48	1204.21
880.64	1226.73
880.81	1245.16
880.97	1351.66
881.14	1243.12
881.31	1175.53
881.47	1265.64
881.64	1294.32
881.80	1218.54
881.97	1267.69
882.13	1239.02
882.30	1282.03
882.47	1300.46
882.63	1308.65
882.80	1183.73
882.96	1275.88
883.13	1361.90
883.29	1284.08
883.46	1265.64
883.62	1249.26
883.79	1251.31
883.95	1269.74
884.12	1263.60
884.29	1245.16
884.45	1255.40
884.62	1234.93
884.78	1331.18
884.95	1290.22
885.11	1253.36
885.28	1312.75
885.44	1267.69
885.61	1277.93
885.77	1208.30
885.94	1298.41
886.10	1304.56
886.27	1210.35
886.43	1320.94
886.60	1259.50
886.76	1220.59
886.93	1247.21
887.09	1288.17
887.26	1204.21
887.42	1255.40
887.59	1239.02
887.75	1312.75
887.92	1247.21
888.08	1183.73
888.25	1318.89
888.41	1306.60
888.58	1255.40
888.74	1269.74
888.91	1202.16
>>>>>End Processed Spectral Data<<<<<
