SpectraSuite Data File
++++++++++++++++++++++++++++++++++++
Date: Sun Apr 03 19:55:43 CEST 2016
User: root
Dark Spectrum Present: No
Reference Spectrum Present: No
Number of Sampled Component Spectra: 1
Spectrometers: USB4C02835
Integration Time (usec): 10000 (USB4C02835)
Spectra Averaged: 1 (USB4C02835)
Boxcar Smoothing: 0 (USB4C02835)
Correct for Electrical Dark: No (USB4C02835)
Strobe/Lamp Enabled: No (USB4C02835)
Correct for Detector Non-linearity: No (USB4C02835)
Correct for Stray Light: No (USB4C02835)
Number of Pixels in Processed Spectrum: 3648
>>>>>Begin Processed Spectral Data<<<<<
177.47	1239.02
177.69	1239.02
177.91	1239.02
178.13	1253.36
178.36	1298.41
178.58	1329.13
178.80	1255.40
179.02	1353.71
179.24	1290.22
179.46	1304.56
179.68	1234.93
179.90	1282.03
180.13	1273.84
180.35	1224.69
180.57	1277.93
180.79	1275.88
181.01	1206.25
181.23	1331.18
181.45	1304.56
181.67	1210.35
181.90	1327.08
182.12	1247.21
182.34	1214.45
182.56	1286.12
182.78	1241.07
183.00	1251.31
183.22	1273.84
183.44	1292.27
183.66	1189.87
183.89	1255.40
184.11	1288.17
184.33	1236.97
184.55	1214.45
184.77	1308.65
184.99	1253.36
185.21	1294.32
185.43	1222.64
185.65	1232.88
185.87	1265.64
186.10	1257.45
186.32	1320.94
186.54	1232.88
186.76	1275.88
186.98	1236.97
187.20	1259.50
187.42	1234.93
187.64	1271.79
187.86	1294.32
188.08	1255.40
188.30	1261.55
188.52	1310.70
188.75	1275.88
188.97	1318.89
189.19	1265.64
189.41	1298.41
189.63	1300.46
189.85	1245.16
190.07	1243.12
190.29	1247.21
190.51	1306.60
190.73	1249.26
190.95	1251.31
191.17	1271.79
191.39	1210.35
191.61	1322.99
191.84	1316.84
192.06	1271.79
192.28	1263.60
192.50	1253.36
192.72	1234.93
192.94	1290.22
193.16	1243.12
193.38	1282.03
193.60	1277.93
193.82	1279.98
194.04	1265.64
194.26	1214.45
194.48	1232.88
194.70	1232.88
194.92	1310.70
195.14	1337.32
195.36	1269.74
195.58	1286.12
195.80	1320.94
196.02	1265.64
196.24	1257.45
196.46	1228.78
196.69	1232.88
196.91	1259.50
197.13	1255.40
197.35	1257.45
197.57	1228.78
197.79	1208.30
198.01	1282.03
198.23	1277.93
198.45	1259.50
198.67	1333.23
198.89	1263.60
199.11	1282.03
199.33	1222.64
199.55	1224.69
199.77	1296.36
199.99	1232.88
200.21	1200.11
200.43	1284.08
200.65	1257.45
200.87	1275.88
201.09	1282.03
201.31	1347.56
201.53	1232.88
201.75	1198.06
201.97	1288.17
202.19	1320.94
202.41	1275.88
202.63	1339.37
202.85	1269.74
203.07	1243.12
203.29	1243.12
203.51	1257.45
203.73	1241.07
203.95	1296.36
204.17	1224.69
204.39	1216.49
204.61	1284.08
204.83	1282.03
205.05	1292.27
205.27	1253.36
205.49	1288.17
205.71	1296.36
205.93	1302.51
206.15	1296.36
206.37	1284.08
206.59	1236.97
206.81	1290.22
207.03	1263.60
207.25	1212.40
207.47	1282.03
207.69	1298.41
207.91	1261.55
208.13	1249.26
208.34	1255.40
208.56	1282.03
208.78	1318.89
209.00	1351.66
209.22	1265.64
209.44	1282.03
209.66	1294.32
209.88	1245.16
210.10	1255.40
210.32	1322.99
210.54	1214.45
210.76	1226.73
210.98	1249.26
211.20	1273.84
211.42	1269.74
211.64	1284.08
211.86	1224.69
212.08	1271.79
212.30	1316.84
212.52	1226.73
212.74	1249.26
212.96	1304.56
213.17	1271.79
213.39	1150.96
213.61	1329.13
213.83	1290.22
214.05	1193.97
214.27	1255.40
214.49	1263.60
214.71	1267.69
214.93	1267.69
215.15	1345.52
215.37	1189.87
215.59	1279.98
215.81	1220.59
216.03	1263.60
216.24	1304.56
216.46	1267.69
216.68	1308.65
216.90	1322.99
217.12	1331.18
217.34	1167.34
217.56	1333.23
217.78	1302.51
218.00	1302.51
218.22	1298.41
218.44	1181.68
218.66	1318.89
218.87	1298.41
219.09	1267.69
219.31	1286.12
219.53	1247.21
219.75	1206.25
219.97	1239.02
220.19	1261.55
220.41	1179.63
220.63	1277.93
220.85	1191.92
221.06	1282.03
221.28	1249.26
221.50	1249.26
221.72	1230.83
221.94	1282.03
222.16	1210.35
222.38	1241.07
222.60	1308.65
222.82	1234.93
223.03	1257.45
223.25	1286.12
223.47	1265.64
223.69	1198.06
223.91	1273.84
224.13	1249.26
224.35	1251.31
224.57	1275.88
224.78	1294.32
225.00	1247.21
225.22	1239.02
225.44	1271.79
225.66	1320.94
225.88	1279.98
226.10	1298.41
226.32	1345.52
226.53	1271.79
226.75	1220.59
226.97	1232.88
227.19	1275.88
227.41	1216.49
227.63	1275.88
227.85	1226.73
228.06	1329.13
228.28	1308.65
228.50	1236.97
228.72	1331.18
228.94	1271.79
229.16	1279.98
229.37	1304.56
229.59	1247.21
229.81	1282.03
230.03	1314.80
230.25	1290.22
230.47	1255.40
230.69	1265.64
230.90	1222.64
231.12	1282.03
231.34	1224.69
231.56	1208.30
231.78	1255.40
232.00	1296.36
232.21	1253.36
232.43	1196.01
232.65	1232.88
232.87	1249.26
233.09	1230.83
233.30	1257.45
233.52	1243.12
233.74	1265.64
233.96	1284.08
234.18	1228.78
234.40	1243.12
234.61	1300.46
234.83	1296.36
235.05	1302.51
235.27	1247.21
235.49	1226.73
235.70	1247.21
235.92	1284.08
236.14	1275.88
236.36	1318.89
236.58	1243.12
236.79	1271.79
237.01	1214.45
237.23	1282.03
237.45	1308.65
237.67	1243.12
237.88	1279.98
238.10	1292.27
238.32	1263.60
238.54	1247.21
238.76	1198.06
238.97	1282.03
239.19	1224.69
239.41	1273.84
239.63	1243.12
239.85	1255.40
240.06	1310.70
240.28	1257.45
240.50	1290.22
240.72	1284.08
240.93	1253.36
241.15	1183.73
241.37	1286.12
241.59	1253.36
241.81	1224.69
242.02	1191.92
242.24	1329.13
242.46	1300.46
242.68	1236.97
242.89	1304.56
243.11	1210.35
243.33	1228.78
243.55	1339.37
243.76	1269.74
243.98	1249.26
244.20	1320.94
244.42	1222.64
244.64	1243.12
244.85	1292.27
245.07	1269.74
245.29	1259.50
245.51	1265.64
245.72	1245.16
245.94	1245.16
246.16	1232.88
246.38	1306.60
246.59	1247.21
246.81	1230.83
247.03	1292.27
247.24	1300.46
247.46	1257.45
247.68	1277.93
247.90	1220.59
248.11	1253.36
248.33	1273.84
248.55	1214.45
248.77	1193.97
248.98	1284.08
249.20	1261.55
249.42	1263.60
249.64	1251.31
249.85	1265.64
250.07	1222.64
250.29	1273.84
250.50	1286.12
250.72	1241.07
250.94	1306.60
251.16	1284.08
251.37	1314.80
251.59	1325.04
251.81	1271.79
252.02	1290.22
252.24	1222.64
252.46	1284.08
252.68	1277.93
252.89	1296.36
253.11	1220.59
253.33	1269.74
253.54	1273.84
253.76	1255.40
253.98	1255.40
254.20	1275.88
254.41	1243.12
254.63	1255.40
254.85	1265.64
255.06	1255.40
255.28	1263.60
255.50	1259.50
255.71	1232.88
255.93	1282.03
256.15	1267.69
256.36	1232.88
256.58	1220.59
256.80	1347.56
257.02	1265.64
257.23	1224.69
257.45	1288.17
257.67	1232.88
257.88	1222.64
258.10	1232.88
258.32	1339.37
258.53	1239.02
258.75	1322.99
258.97	1284.08
259.18	1339.37
259.40	1335.28
259.62	1206.25
259.83	1355.76
260.05	1247.21
260.27	1247.21
260.48	1318.89
260.70	1206.25
260.92	1251.31
261.13	1255.40
261.35	1259.50
261.57	1279.98
261.78	1298.41
262.00	1277.93
262.22	1310.70
262.43	1198.06
262.65	1325.04
262.86	1261.55
263.08	1275.88
263.30	1269.74
263.51	1193.97
263.73	1284.08
263.95	1214.45
264.16	1308.65
264.38	1230.83
264.60	1232.88
264.81	1292.27
265.03	1337.32
265.25	1265.64
265.46	1298.41
265.68	1269.74
265.89	1271.79
266.11	1265.64
266.33	1279.98
266.54	1198.06
266.76	1288.17
266.98	1279.98
267.19	1263.60
267.41	1290.22
267.62	1282.03
267.84	1214.45
268.06	1288.17
268.27	1249.26
268.49	1245.16
268.70	1249.26
268.92	1277.93
269.14	1294.32
269.35	1247.21
269.57	1255.40
269.79	1277.93
270.00	1288.17
270.22	1273.84
270.43	1185.77
270.65	1251.31
270.87	1236.97
271.08	1204.21
271.30	1320.94
271.51	1259.50
271.73	1247.21
271.95	1249.26
272.16	1279.98
272.38	1261.55
272.59	1304.56
272.81	1316.84
273.02	1304.56
273.24	1339.37
273.46	1243.12
273.67	1282.03
273.89	1236.97
274.10	1230.83
274.32	1247.21
274.54	1249.26
274.75	1259.50
274.97	1265.64
275.18	1220.59
275.40	1327.08
275.61	1271.79
275.83	1273.84
276.05	1232.88
276.26	1279.98
276.48	1355.76
276.69	1327.08
276.91	1279.98
277.12	1271.79
277.34	1300.46
277.55	1288.17
277.77	1249.26
277.99	1294.32
278.20	1333.23
278.42	1273.84
278.63	1286.12
278.85	1273.84
279.06	1304.56
279.28	1277.93
279.49	1255.40
279.71	1366.00
279.93	1232.88
280.14	1304.56
280.36	1263.60
280.57	1308.65
280.79	1224.69
281.00	1263.60
281.22	1167.34
281.43	1298.41
281.65	1191.92
281.86	1218.54
282.08	1224.69
282.29	1251.31
282.51	1253.36
282.73	1212.40
282.94	1267.69
283.16	1255.40
283.37	1269.74
283.59	1304.56
283.80	1249.26
284.02	1243.12
284.23	1181.68
284.45	1226.73
284.66	1279.98
284.88	1181.68
285.09	1257.45
285.31	1263.60
285.52	1316.84
285.74	1245.16
285.95	1292.27
286.17	1374.19
286.38	1361.90
286.60	1271.79
286.81	1230.83
287.03	1245.16
287.24	1234.93
287.46	1306.60
287.67	1288.17
287.89	1243.12
288.10	1265.64
288.32	1265.64
288.53	1234.93
288.75	1271.79
288.96	1230.83
289.18	1247.21
289.39	1224.69
289.61	1245.16
289.82	1312.75
290.04	1279.98
290.25	1269.74
290.47	1318.89
290.68	1239.02
290.90	1312.75
291.11	1273.84
291.33	1290.22
291.54	1273.84
291.76	1320.94
291.97	1271.79
292.18	1273.84
292.40	1259.50
292.61	1214.45
292.83	1267.69
293.04	1259.50
293.26	1210.35
293.47	1347.56
293.69	1193.97
293.90	1337.32
294.12	1222.64
294.33	1314.80
294.55	1210.35
294.76	1273.84
294.97	1277.93
295.19	1327.08
295.40	1202.16
295.62	1243.12
295.83	1312.75
296.05	1226.73
296.26	1218.54
296.48	1277.93
296.69	1249.26
296.90	1298.41
297.12	1257.45
297.33	1269.74
297.55	1275.88
297.76	1216.49
297.98	1277.93
298.19	1294.32
298.41	1234.93
298.62	1185.77
298.83	1298.41
299.05	1310.70
299.26	1253.36
299.48	1304.56
299.69	1228.78
299.90	1263.60
300.12	1284.08
300.33	1341.42
300.55	1228.78
300.76	1267.69
300.98	1255.40
301.19	1286.12
301.40	1259.50
301.62	1271.79
301.83	1273.84
302.05	1214.45
302.26	1322.99
302.47	1351.66
302.69	1265.64
302.90	1314.80
303.12	1273.84
303.33	1282.03
303.54	1294.32
303.76	1267.69
303.97	1245.16
304.19	1269.74
304.40	1273.84
304.61	1294.32
304.83	1288.17
305.04	1310.70
305.26	1220.59
305.47	1290.22
305.68	1185.77
305.90	1267.69
306.11	1245.16
306.33	1306.60
306.54	1193.97
306.75	1226.73
306.97	1239.02
307.18	1247.21
307.39	1284.08
307.61	1234.93
307.82	1271.79
308.04	1269.74
308.25	1257.45
308.46	1290.22
308.68	1279.98
308.89	1251.31
309.10	1269.74
309.32	1292.27
309.53	1271.79
309.74	1241.07
309.96	1265.64
310.17	1288.17
310.39	1298.41
310.60	1288.17
310.81	1228.78
311.03	1275.88
311.24	1267.69
311.45	1314.80
311.67	1241.07
311.88	1226.73
312.09	1318.89
312.31	1257.45
312.52	1277.93
312.73	1314.80
312.95	1316.84
313.16	1247.21
313.37	1241.07
313.59	1224.69
313.80	1234.93
314.01	1275.88
314.23	1241.07
314.44	1366.00
314.65	1249.26
314.87	1316.84
315.08	1290.22
315.29	1185.77
315.51	1275.88
315.72	1279.98
315.93	1288.17
316.15	1282.03
316.36	1228.78
316.57	1196.01
316.79	1296.36
317.00	1302.51
317.21	1220.59
317.43	1273.84
317.64	1263.60
317.85	1320.94
318.07	1302.51
318.28	1259.50
318.49	1316.84
318.70	1271.79
318.92	1243.12
319.13	1284.08
319.34	1273.84
319.56	1308.65
319.77	1286.12
319.98	1267.69
320.20	1310.70
320.41	1263.60
320.62	1261.55
320.83	1261.55
321.05	1275.88
321.26	1247.21
321.47	1257.45
321.69	1279.98
321.90	1241.07
322.11	1189.87
322.32	1310.70
322.54	1372.14
322.75	1183.73
322.96	1275.88
323.18	1306.60
323.39	1236.97
323.60	1286.12
323.81	1208.30
324.03	1239.02
324.24	1327.08
324.45	1220.59
324.66	1253.36
324.88	1257.45
325.09	1259.50
325.30	1302.51
325.52	1261.55
325.73	1292.27
325.94	1247.21
326.15	1239.02
326.37	1312.75
326.58	1257.45
326.79	1312.75
327.00	1236.97
327.22	1218.54
327.43	1198.06
327.64	1243.12
327.85	1269.74
328.07	1286.12
328.28	1247.21
328.49	1306.60
328.70	1277.93
328.92	1247.21
329.13	1304.56
329.34	1267.69
329.55	1249.26
329.76	1257.45
329.98	1224.69
330.19	1263.60
330.40	1282.03
330.61	1208.30
330.83	1236.97
331.04	1175.53
331.25	1261.55
331.46	1216.49
331.68	1208.30
331.89	1234.93
332.10	1290.22
332.31	1333.23
332.52	1298.41
332.74	1245.16
332.95	1302.51
333.16	1228.78
333.37	1257.45
333.58	1263.60
333.80	1253.36
334.01	1245.16
334.22	1284.08
334.43	1218.54
334.64	1257.45
334.86	1210.35
335.07	1173.49
335.28	1222.64
335.49	1257.45
335.70	1298.41
335.92	1265.64
336.13	1316.84
336.34	1310.70
336.55	1220.59
336.76	1294.32
336.98	1265.64
337.19	1187.82
337.40	1298.41
337.61	1243.12
337.82	1265.64
338.04	1259.50
338.25	1198.06
338.46	1339.37
338.67	1296.36
338.88	1249.26
339.09	1294.32
339.31	1275.88
339.52	1263.60
339.73	1259.50
339.94	1193.97
340.15	1255.40
340.36	1273.84
340.58	1265.64
340.79	1288.17
341.00	1273.84
341.21	1251.31
341.42	1296.36
341.63	1210.35
341.85	1265.64
342.06	1302.51
342.27	1320.94
342.48	1331.18
342.69	1279.98
342.90	1288.17
343.12	1275.88
343.33	1310.70
343.54	1245.16
343.75	1259.50
343.96	1267.69
344.17	1189.87
344.38	1306.60
344.60	1257.45
344.81	1212.40
345.02	1243.12
345.23	1204.21
345.44	1275.88
345.65	1214.45
345.86	1304.56
346.07	1253.36
346.29	1193.97
346.50	1224.69
346.71	1339.37
346.92	1294.32
347.13	1263.60
347.34	1257.45
347.55	1282.03
347.76	1304.56
347.98	1286.12
348.19	1261.55
348.40	1187.82
348.61	1279.98
348.82	1318.89
349.03	1239.02
349.24	1259.50
349.45	1232.88
349.66	1261.55
349.88	1279.98
350.09	1263.60
350.30	1226.73
350.51	1345.52
350.72	1239.02
350.93	1243.12
351.14	1224.69
351.35	1273.84
351.56	1239.02
351.77	1282.03
351.99	1308.65
352.20	1267.69
352.41	1236.97
352.62	1243.12
352.83	1298.41
353.04	1275.88
353.25	1206.25
353.46	1292.27
353.67	1279.98
353.88	1212.40
354.09	1234.93
354.30	1265.64
354.52	1247.21
354.73	1257.45
354.94	1206.25
355.15	1259.50
355.36	1282.03
355.57	1249.26
355.78	1214.45
355.99	1247.21
356.20	1261.55
356.41	1239.02
356.62	1241.07
356.83	1202.16
357.04	1351.66
357.25	1304.56
357.46	1271.79
357.68	1257.45
357.89	1173.49
358.10	1275.88
358.31	1251.31
358.52	1298.41
358.73	1226.73
358.94	1298.41
359.15	1286.12
359.36	1279.98
359.57	1275.88
359.78	1198.06
359.99	1245.16
360.20	1329.13
360.41	1239.02
360.62	1214.45
360.83	1341.42
361.04	1318.89
361.25	1271.79
361.46	1298.41
361.67	1269.74
361.88	1273.84
362.09	1200.11
362.30	1234.93
362.51	1232.88
362.72	1308.65
362.93	1275.88
363.14	1249.26
363.35	1263.60
363.56	1292.27
363.78	1236.97
363.99	1275.88
364.20	1273.84
364.41	1243.12
364.62	1286.12
364.83	1302.51
365.04	1284.08
365.25	1312.75
365.46	1310.70
365.67	1239.02
365.88	1214.45
366.09	1267.69
366.30	1220.59
366.51	1363.95
366.72	1247.21
366.93	1253.36
367.14	1208.30
367.35	1271.79
367.56	1230.83
367.77	1232.88
367.98	1234.93
368.18	1343.47
368.39	1212.40
368.60	1325.04
368.81	1269.74
369.02	1282.03
369.23	1206.25
369.44	1243.12
369.65	1284.08
369.86	1290.22
370.07	1259.50
370.28	1312.75
370.49	1220.59
370.70	1255.40
370.91	1271.79
371.12	1304.56
371.33	1275.88
371.54	1241.07
371.75	1316.84
371.96	1222.64
372.17	1269.74
372.38	1370.09
372.59	1269.74
372.80	1304.56
373.01	1277.93
373.22	1327.08
373.43	1206.25
373.64	1249.26
373.85	1259.50
374.06	1312.75
374.26	1310.70
374.47	1273.84
374.68	1257.45
374.89	1294.32
375.10	1253.36
375.31	1216.49
375.52	1200.11
375.73	1308.65
375.94	1263.60
376.15	1310.70
376.36	1255.40
376.57	1239.02
376.78	1220.59
376.99	1228.78
377.20	1300.46
377.40	1265.64
377.61	1288.17
377.82	1292.27
378.03	1239.02
378.24	1286.12
378.45	1253.36
378.66	1228.78
378.87	1271.79
379.08	1284.08
379.29	1249.26
379.50	1271.79
379.71	1304.56
379.91	1282.03
380.12	1267.69
380.33	1269.74
380.54	1304.56
380.75	1259.50
380.96	1271.79
381.17	1249.26
381.38	1259.50
381.59	1212.40
381.80	1236.97
382.00	1288.17
382.21	1302.51
382.42	1234.93
382.63	1273.84
382.84	1335.28
383.05	1269.74
383.26	1200.11
383.47	1294.32
383.68	1261.55
383.88	1282.03
384.09	1275.88
384.30	1310.70
384.51	1322.99
384.72	1288.17
384.93	1200.11
385.14	1218.54
385.35	1304.56
385.55	1245.16
385.76	1271.79
385.97	1304.56
386.18	1263.60
386.39	1286.12
386.60	1253.36
386.81	1239.02
387.02	1320.94
387.22	1249.26
387.43	1249.26
387.64	1325.04
387.85	1286.12
388.06	1267.69
388.27	1228.78
388.48	1251.31
388.68	1263.60
388.89	1259.50
389.10	1234.93
389.31	1232.88
389.52	1249.26
389.73	1218.54
389.93	1302.51
390.14	1290.22
390.35	1298.41
390.56	1290.22
390.77	1310.70
390.98	1251.31
391.18	1265.64
391.39	1298.41
391.60	1282.03
391.81	1259.50
392.02	1269.74
392.23	1212.40
392.43	1335.28
392.64	1249.26
392.85	1279.98
393.06	1308.65
393.27	1241.07
393.47	1298.41
393.68	1265.64
393.89	1230.83
394.10	1284.08
394.31	1232.88
394.52	1302.51
394.72	1206.25
394.93	1329.13
395.14	1232.88
395.35	1239.02
395.56	1253.36
395.76	1294.32
395.97	1304.56
396.18	1275.88
396.39	1265.64
396.60	1292.27
396.80	1232.88
397.01	1331.18
397.22	1288.17
397.43	1224.69
397.64	1349.61
397.84	1220.59
398.05	1300.46
398.26	1226.73
398.47	1239.02
398.67	1273.84
398.88	1241.07
399.09	1314.80
399.30	1255.40
399.51	1277.93
399.71	1189.87
399.92	1251.31
400.13	1275.88
400.34	1249.26
400.54	1292.27
400.75	1290.22
400.96	1255.40
401.17	1290.22
401.37	1191.92
401.58	1261.55
401.79	1292.27
402.00	1224.69
402.21	1267.69
402.41	1263.60
402.62	1286.12
402.83	1245.16
403.04	1191.92
403.24	1243.12
403.45	1243.12
403.66	1261.55
403.87	1265.64
404.07	1290.22
404.28	1312.75
404.49	1318.89
404.70	1257.45
404.90	1257.45
405.11	1196.01
405.32	1339.37
405.52	1275.88
405.73	1232.88
405.94	1243.12
406.15	1282.03
406.35	1267.69
406.56	1249.26
406.77	1257.45
406.98	1304.56
407.18	1277.93
407.39	1253.36
407.60	1267.69
407.80	1249.26
408.01	1210.35
408.22	1273.84
408.43	1255.40
408.63	1279.98
408.84	1277.93
409.05	1288.17
409.25	1310.70
409.46	1241.07
409.67	1327.08
409.88	1322.99
410.08	1232.88
410.29	1220.59
410.50	1234.93
410.70	1226.73
410.91	1224.69
411.12	1290.22
411.32	1286.12
411.53	1353.71
411.74	1255.40
411.95	1230.83
412.15	1310.70
412.36	1236.97
412.57	1224.69
412.77	1224.69
412.98	1288.17
413.19	1341.42
413.39	1269.74
413.60	1368.04
413.81	1196.01
414.01	1314.80
414.22	1286.12
414.43	1294.32
414.63	1251.31
414.84	1288.17
415.05	1298.41
415.25	1298.41
415.46	1239.02
415.67	1165.29
415.87	1243.12
416.08	1284.08
416.29	1302.51
416.49	1265.64
416.70	1269.74
416.91	1208.30
417.11	1269.74
417.32	1243.12
417.53	1249.26
417.73	1329.13
417.94	1247.21
418.15	1228.78
418.35	1322.99
418.56	1261.55
418.77	1325.04
418.97	1214.45
419.18	1232.88
419.38	1222.64
419.59	1275.88
419.80	1284.08
420.00	1269.74
420.21	1189.87
420.42	1267.69
420.62	1259.50
420.83	1253.36
421.04	1267.69
421.24	1253.36
421.45	1249.26
421.65	1257.45
421.86	1275.88
422.07	1267.69
422.27	1228.78
422.48	1234.93
422.69	1288.17
422.89	1279.98
423.10	1296.36
423.30	1294.32
423.51	1325.04
423.72	1286.12
423.92	1257.45
424.13	1253.36
424.33	1253.36
424.54	1239.02
424.75	1335.28
424.95	1327.08
425.16	1314.80
425.36	1198.06
425.57	1228.78
425.78	1218.54
425.98	1284.08
426.19	1273.84
426.39	1306.60
426.60	1314.80
426.81	1275.88
427.01	1351.66
427.22	1292.27
427.42	1265.64
427.63	1292.27
427.83	1222.64
428.04	1259.50
428.25	1310.70
428.45	1308.65
428.66	1245.16
428.86	1277.93
429.07	1316.84
429.28	1296.36
429.48	1241.07
429.69	1220.59
429.89	1263.60
430.10	1247.21
430.30	1239.02
430.51	1249.26
430.71	1214.45
430.92	1241.07
431.13	1198.06
431.33	1279.98
431.54	1288.17
431.74	1296.36
431.95	1294.32
432.15	1249.26
432.36	1236.97
432.56	1292.27
432.77	1265.64
432.98	1327.08
433.18	1290.22
433.39	1226.73
433.59	1206.25
433.80	1286.12
434.00	1310.70
434.21	1198.06
434.41	1363.95
434.62	1202.16
434.82	1322.99
435.03	1290.22
435.23	1282.03
435.44	1247.21
435.64	1224.69
435.85	1206.25
436.06	1239.02
436.26	1247.21
436.47	1298.41
436.67	1310.70
436.88	1265.64
437.08	1245.16
437.29	1275.88
437.49	1259.50
437.70	1290.22
437.90	1251.31
438.11	1222.64
438.31	1265.64
438.52	1206.25
438.72	1267.69
438.93	1263.60
439.13	1290.22
439.34	1341.42
439.54	1224.69
439.75	1300.46
439.95	1298.41
440.16	1245.16
440.36	1277.93
440.57	1284.08
440.77	1216.49
440.98	1259.50
441.18	1292.27
441.39	1189.87
441.59	1261.55
441.80	1327.08
442.00	1318.89
442.21	1236.97
442.41	1261.55
442.62	1232.88
442.82	1300.46
443.02	1288.17
443.23	1288.17
443.43	1210.35
443.64	1245.16
443.84	1236.97
444.05	1265.64
444.25	1255.40
444.46	1263.60
444.66	1290.22
444.87	1273.84
445.07	1236.97
445.28	1335.28
445.48	1265.64
445.69	1312.75
445.89	1333.23
446.09	1224.69
446.30	1243.12
446.50	1265.64
446.71	1304.56
446.91	1277.93
447.12	1339.37
447.32	1243.12
447.53	1206.25
447.73	1183.73
447.93	1230.83
448.14	1271.79
448.34	1257.45
448.55	1312.75
448.75	1286.12
448.96	1267.69
449.16	1251.31
449.36	1245.16
449.57	1279.98
449.77	1306.60
449.98	1257.45
450.18	1288.17
450.39	1251.31
450.59	1318.89
450.79	1312.75
451.00	1232.88
451.20	1386.47
451.41	1312.75
451.61	1306.60
451.81	1236.97
452.02	1282.03
452.22	1339.37
452.43	1275.88
452.63	1220.59
452.84	1206.25
453.04	1267.69
453.24	1366.00
453.45	1251.31
453.65	1265.64
453.86	1234.93
454.06	1300.46
454.26	1265.64
454.47	1241.07
454.67	1320.94
454.87	1320.94
455.08	1310.70
455.28	1271.79
455.49	1296.36
455.69	1282.03
455.89	1366.00
456.10	1257.45
456.30	1214.45
456.51	1277.93
456.71	1290.22
456.91	1337.32
457.12	1243.12
457.32	1218.54
457.52	1198.06
457.73	1273.84
457.93	1239.02
458.14	1288.17
458.34	1245.16
458.54	1298.41
458.75	1243.12
458.95	1300.46
459.15	1277.93
459.36	1226.73
459.56	1234.93
459.76	1308.65
459.97	1282.03
460.17	1230.83
460.37	1296.36
460.58	1273.84
460.78	1271.79
460.99	1275.88
461.19	1200.11
461.39	1273.84
461.60	1296.36
461.80	1277.93
462.00	1271.79
462.21	1329.13
462.41	1294.32
462.61	1286.12
462.82	1290.22
463.02	1327.08
463.22	1167.34
463.43	1243.12
463.63	1331.18
463.83	1265.64
464.04	1308.65
464.24	1275.88
464.44	1204.21
464.64	1294.32
464.85	1286.12
465.05	1257.45
465.25	1273.84
465.46	1255.40
465.66	1277.93
465.86	1275.88
466.07	1220.59
466.27	1322.99
466.47	1314.80
466.68	1265.64
466.88	1325.04
467.08	1359.85
467.29	1259.50
467.49	1255.40
467.69	1292.27
467.89	1288.17
468.10	1259.50
468.30	1245.16
468.50	1241.07
468.71	1273.84
468.91	1236.97
469.11	1251.31
469.31	1271.79
469.52	1282.03
469.72	1282.03
469.92	1236.97
470.13	1210.35
470.33	1191.92
470.53	1325.04
470.73	1277.93
470.94	1322.99
471.14	1355.76
471.34	1304.56
471.54	1288.17
471.75	1202.16
471.95	1263.60
472.15	1265.64
472.36	1294.32
472.56	1349.61
472.76	1300.46
472.96	1243.12
473.17	1253.36
473.37	1273.84
473.57	1265.64
473.77	1263.60
473.98	1265.64
474.18	1312.75
474.38	1265.64
474.58	1312.75
474.79	1247.21
474.99	1269.74
475.19	1286.12
475.39	1214.45
475.60	1236.97
475.80	1236.97
476.00	1294.32
476.20	1230.83
476.41	1251.31
476.61	1222.64
476.81	1208.30
477.01	1302.51
477.21	1308.65
477.42	1253.36
477.62	1284.08
477.82	1222.64
478.02	1261.55
478.23	1300.46
478.43	1327.08
478.63	1282.03
478.83	1288.17
479.03	1249.26
479.24	1306.60
479.44	1257.45
479.64	1269.74
479.84	1277.93
480.04	1312.75
480.25	1259.50
480.45	1251.31
480.65	1279.98
480.85	1257.45
481.06	1220.59
481.26	1288.17
481.46	1284.08
481.66	1245.16
481.86	1271.79
482.06	1304.56
482.27	1273.84
482.47	1263.60
482.67	1331.18
482.87	1275.88
483.07	1282.03
483.28	1271.79
483.48	1247.21
483.68	1247.21
483.88	1267.69
484.08	1193.97
484.29	1284.08
484.49	1286.12
484.69	1290.22
484.89	1239.02
485.09	1253.36
485.29	1255.40
485.50	1257.45
485.70	1257.45
485.90	1294.32
486.10	1286.12
486.30	1282.03
486.50	1269.74
486.71	1279.98
486.91	1392.62
487.11	1247.21
487.31	1273.84
487.51	1261.55
487.71	1339.37
487.91	1228.78
488.12	1255.40
488.32	1239.02
488.52	1267.69
488.72	1273.84
488.92	1232.88
489.12	1310.70
489.32	1316.84
489.53	1312.75
489.73	1218.54
489.93	1339.37
490.13	1257.45
490.33	1320.94
490.53	1312.75
490.73	1355.76
490.94	1277.93
491.14	1249.26
491.34	1261.55
491.54	1271.79
491.74	1218.54
491.94	1267.69
492.14	1298.41
492.34	1290.22
492.54	1271.79
492.75	1296.36
492.95	1200.11
493.15	1286.12
493.35	1275.88
493.55	1298.41
493.75	1288.17
493.95	1279.98
494.15	1247.21
494.35	1345.52
494.56	1329.13
494.76	1316.84
494.96	1249.26
495.16	1226.73
495.36	1255.40
495.56	1208.30
495.76	1343.47
495.96	1282.03
496.16	1290.22
496.36	1284.08
496.56	1294.32
496.77	1232.88
496.97	1308.65
497.17	1335.28
497.37	1247.21
497.57	1222.64
497.77	1212.40
497.97	1261.55
498.17	1232.88
498.37	1279.98
498.57	1175.53
498.77	1241.07
498.97	1259.50
499.17	1273.84
499.38	1286.12
499.58	1198.06
499.78	1239.02
499.98	1288.17
500.18	1234.93
500.38	1257.45
500.58	1286.12
500.78	1263.60
500.98	1214.45
501.18	1300.46
501.38	1310.70
501.58	1243.12
501.78	1230.83
501.98	1314.80
502.18	1312.75
502.38	1292.27
502.58	1271.79
502.78	1282.03
502.98	1249.26
503.18	1277.93
503.38	1259.50
503.59	1259.50
503.79	1267.69
503.99	1249.26
504.19	1318.89
504.39	1226.73
504.59	1320.94
504.79	1314.80
504.99	1226.73
505.19	1310.70
505.39	1296.36
505.59	1253.36
505.79	1253.36
505.99	1236.97
506.19	1271.79
506.39	1271.79
506.59	1329.13
506.79	1216.49
506.99	1273.84
507.19	1279.98
507.39	1302.51
507.59	1296.36
507.79	1239.02
507.99	1314.80
508.19	1310.70
508.39	1267.69
508.59	1243.12
508.79	1273.84
508.99	1322.99
509.19	1292.27
509.39	1251.31
509.59	1304.56
509.79	1210.35
509.99	1273.84
510.19	1304.56
510.39	1222.64
510.59	1226.73
510.79	1228.78
510.99	1298.41
511.19	1316.84
511.39	1265.64
511.59	1331.18
511.79	1271.79
511.99	1298.41
512.19	1296.36
512.38	1273.84
512.58	1310.70
512.78	1329.13
512.98	1308.65
513.18	1263.60
513.38	1261.55
513.58	1279.98
513.78	1337.32
513.98	1245.16
514.18	1243.12
514.38	1232.88
514.58	1331.18
514.78	1294.32
514.98	1245.16
515.18	1314.80
515.38	1259.50
515.58	1314.80
515.78	1228.78
515.98	1269.74
516.18	1220.59
516.38	1273.84
516.57	1224.69
516.77	1265.64
516.97	1322.99
517.17	1290.22
517.37	1304.56
517.57	1212.40
517.77	1308.65
517.97	1310.70
518.17	1261.55
518.37	1304.56
518.57	1292.27
518.77	1357.80
518.97	1322.99
519.16	1349.61
519.36	1232.88
519.56	1232.88
519.76	1296.36
519.96	1243.12
520.16	1366.00
520.36	1318.89
520.56	1294.32
520.76	1351.66
520.96	1181.68
521.16	1302.51
521.35	1212.40
521.55	1337.32
521.75	1259.50
521.95	1310.70
522.15	1284.08
522.35	1222.64
522.55	1288.17
522.75	1241.07
522.95	1269.74
523.14	1193.97
523.34	1288.17
523.54	1314.80
523.74	1251.31
523.94	1279.98
524.14	1267.69
524.34	1290.22
524.54	1255.40
524.73	1271.79
524.93	1298.41
525.13	1259.50
525.33	1298.41
525.53	1177.58
525.73	1277.93
525.93	1261.55
526.13	1261.55
526.32	1255.40
526.52	1271.79
526.72	1327.08
526.92	1230.83
527.12	1310.70
527.32	1286.12
527.52	1316.84
527.71	1255.40
527.91	1331.18
528.11	1234.93
528.31	1329.13
528.51	1261.55
528.71	1296.36
528.90	1286.12
529.10	1269.74
529.30	1273.84
529.50	1216.49
529.70	1322.99
529.90	1216.49
530.09	1327.08
530.29	1212.40
530.49	1257.45
530.69	1298.41
530.89	1290.22
531.09	1212.40
531.28	1269.74
531.48	1257.45
531.68	1259.50
531.88	1228.78
532.08	1290.22
532.28	1271.79
532.47	1288.17
532.67	1292.27
532.87	1232.88
533.07	1335.28
533.27	1284.08
533.46	1257.45
533.66	1275.88
533.86	1292.27
534.06	1318.89
534.26	1243.12
534.45	1331.18
534.65	1314.80
534.85	1322.99
535.05	1325.04
535.25	1304.56
535.44	1269.74
535.64	1245.16
535.84	1273.84
536.04	1247.21
536.24	1316.84
536.43	1259.50
536.63	1296.36
536.83	1288.17
537.03	1294.32
537.22	1320.94
537.42	1322.99
537.62	1255.40
537.82	1314.80
538.02	1304.56
538.21	1282.03
538.41	1271.79
538.61	1312.75
538.81	1277.93
539.00	1247.21
539.20	1294.32
539.40	1255.40
539.60	1282.03
539.79	1255.40
539.99	1261.55
540.19	1363.95
540.39	1243.12
540.58	1312.75
540.78	1261.55
540.98	1310.70
541.18	1263.60
541.37	1267.69
541.57	1302.51
541.77	1327.08
541.97	1271.79
542.16	1302.51
542.36	1333.23
542.56	1333.23
542.76	1292.27
542.95	1372.14
543.15	1341.42
543.35	1241.07
543.54	1288.17
543.74	1288.17
543.94	1269.74
544.14	1253.36
544.33	1277.93
544.53	1300.46
544.73	1279.98
544.93	1310.70
545.12	1236.97
545.32	1337.32
545.52	1292.27
545.71	1267.69
545.91	1288.17
546.11	1277.93
546.30	1206.25
546.50	1255.40
546.70	1294.32
546.90	1265.64
547.09	1322.99
547.29	1290.22
547.49	1261.55
547.68	1290.22
547.88	1171.44
548.08	1316.84
548.27	1320.94
548.47	1257.45
548.67	1302.51
548.87	1247.21
549.06	1314.80
549.26	1275.88
549.46	1290.22
549.65	1214.45
549.85	1265.64
550.05	1306.60
550.24	1314.80
550.44	1298.41
550.64	1230.83
550.83	1245.16
551.03	1318.89
551.23	1288.17
551.42	1296.36
551.62	1247.21
551.82	1290.22
552.01	1302.51
552.21	1331.18
552.41	1327.08
552.60	1269.74
552.80	1322.99
553.00	1239.02
553.19	1302.51
553.39	1286.12
553.59	1351.66
553.78	1331.18
553.98	1337.32
554.17	1339.37
554.37	1275.88
554.57	1245.16
554.76	1288.17
554.96	1230.83
555.16	1318.89
555.35	1296.36
555.55	1277.93
555.75	1263.60
555.94	1251.31
556.14	1349.61
556.33	1337.32
556.53	1255.40
556.73	1247.21
556.92	1318.89
557.12	1339.37
557.32	1230.83
557.51	1259.50
557.71	1316.84
557.90	1310.70
558.10	1282.03
558.30	1294.32
558.49	1224.69
558.69	1177.58
558.88	1196.01
559.08	1249.26
559.28	1253.36
559.47	1269.74
559.67	1228.78
559.86	1316.84
560.06	1282.03
560.26	1208.30
560.45	1302.51
560.65	1353.71
560.84	1300.46
561.04	1312.75
561.24	1263.60
561.43	1322.99
561.63	1294.32
561.82	1253.36
562.02	1247.21
562.22	1296.36
562.41	1261.55
562.61	1320.94
562.80	1273.84
563.00	1392.62
563.19	1298.41
563.39	1310.70
563.59	1339.37
563.78	1345.52
563.98	1249.26
564.17	1265.64
564.37	1329.13
564.56	1259.50
564.76	1318.89
564.96	1314.80
565.15	1261.55
565.35	1249.26
565.54	1224.69
565.74	1294.32
565.93	1275.88
566.13	1306.60
566.32	1279.98
566.52	1279.98
566.71	1302.51
566.91	1220.59
567.11	1329.13
567.30	1302.51
567.50	1273.84
567.69	1380.33
567.89	1286.12
568.08	1234.93
568.28	1273.84
568.47	1314.80
568.67	1249.26
568.86	1294.32
569.06	1263.60
569.25	1294.32
569.45	1228.78
569.64	1241.07
569.84	1204.21
570.04	1232.88
570.23	1331.18
570.43	1335.28
570.62	1337.32
570.82	1380.33
571.01	1185.77
571.21	1308.65
571.40	1271.79
571.60	1284.08
571.79	1288.17
571.99	1228.78
572.18	1312.75
572.38	1300.46
572.57	1347.56
572.77	1284.08
572.96	1312.75
573.16	1298.41
573.35	1224.69
573.55	1335.28
573.74	1347.56
573.94	1284.08
574.13	1251.31
574.33	1290.22
574.52	1302.51
574.71	1331.18
574.91	1284.08
575.10	1306.60
575.30	1261.55
575.49	1277.93
575.69	1271.79
575.88	1255.40
576.08	1245.16
576.27	1314.80
576.47	1232.88
576.66	1249.26
576.86	1333.23
577.05	1202.16
577.25	1253.36
577.44	1337.32
577.64	1296.36
577.83	1249.26
578.02	1263.60
578.22	1343.47
578.41	1308.65
578.61	1259.50
578.80	1218.54
579.00	1286.12
579.19	1288.17
579.39	1343.47
579.58	1163.25
579.77	1265.64
579.97	1372.14
580.16	1288.17
580.36	1298.41
580.55	1282.03
580.75	1241.07
580.94	1282.03
581.13	1314.80
581.33	1269.74
581.52	1370.09
581.72	1294.32
581.91	1282.03
582.11	1255.40
582.30	1353.71
582.49	1216.49
582.69	1279.98
582.88	1277.93
583.08	1304.56
583.27	1249.26
583.47	1263.60
583.66	1247.21
583.85	1247.21
584.05	1300.46
584.24	1222.64
584.44	1279.98
584.63	1255.40
584.82	1247.21
585.02	1265.64
585.21	1279.98
585.41	1333.23
585.60	1269.74
585.79	1335.28
585.99	1255.40
586.18	1296.36
586.37	1298.41
586.57	1265.64
586.76	1310.70
586.96	1259.50
587.15	1220.59
587.34	1230.83
587.54	1218.54
587.73	1243.12
587.93	1345.52
588.12	1253.36
588.31	1288.17
588.51	1331.18
588.70	1294.32
588.89	1198.06
589.09	1325.04
589.28	1226.73
589.47	1273.84
589.67	1361.90
589.86	1322.99
590.06	1353.71
590.25	1310.70
590.44	1255.40
590.64	1304.56
590.83	1290.22
591.02	1261.55
591.22	1284.08
591.41	1296.36
591.60	1296.36
591.80	1200.11
591.99	1265.64
592.18	1261.55
592.38	1288.17
592.57	1312.75
592.76	1259.50
592.96	1279.98
593.15	1255.40
593.34	1279.98
593.54	1339.37
593.73	1361.90
593.92	1263.60
594.12	1322.99
594.31	1239.02
594.50	1267.69
594.70	1298.41
594.89	1339.37
595.08	1294.32
595.28	1271.79
595.47	1245.16
595.66	1331.18
595.86	1249.26
596.05	1300.46
596.24	1304.56
596.43	1263.60
596.63	1257.45
596.82	1255.40
597.01	1277.93
597.21	1316.84
597.40	1257.45
597.59	1251.31
597.79	1226.73
597.98	1325.04
598.17	1259.50
598.36	1273.84
598.56	1271.79
598.75	1249.26
598.94	1263.60
599.14	1327.08
599.33	1286.12
599.52	1245.16
599.71	1337.32
599.91	1296.36
600.10	1273.84
600.29	1241.07
600.48	1288.17
600.68	1314.80
600.87	1304.56
601.06	1282.03
601.26	1288.17
601.45	1331.18
601.64	1294.32
601.83	1249.26
602.03	1382.38
602.22	1296.36
602.41	1277.93
602.60	1343.47
602.80	1306.60
602.99	1308.65
603.18	1245.16
603.37	1343.47
603.57	1322.99
603.76	1314.80
603.95	1226.73
604.14	1275.88
604.34	1261.55
604.53	1196.01
604.72	1279.98
604.91	1277.93
605.10	1329.13
605.30	1239.02
605.49	1232.88
605.68	1255.40
605.87	1275.88
606.07	1318.89
606.26	1228.78
606.45	1306.60
606.64	1286.12
606.84	1259.50
607.03	1243.12
607.22	1304.56
607.41	1275.88
607.60	1277.93
607.80	1298.41
607.99	1259.50
608.18	1239.02
608.37	1310.70
608.56	1279.98
608.76	1279.98
608.95	1349.61
609.14	1296.36
609.33	1347.56
609.52	1261.55
609.72	1298.41
609.91	1298.41
610.10	1349.61
610.29	1239.02
610.48	1267.69
610.68	1255.40
610.87	1308.65
611.06	1290.22
611.25	1298.41
611.44	1228.78
611.63	1361.90
611.83	1304.56
612.02	1288.17
612.21	1263.60
612.40	1249.26
612.59	1337.32
612.79	1288.17
612.98	1308.65
613.17	1304.56
613.36	1292.27
613.55	1300.46
613.74	1288.17
613.93	1267.69
614.13	1306.60
614.32	1310.70
614.51	1265.64
614.70	1290.22
614.89	1304.56
615.08	1267.69
615.28	1337.32
615.47	1220.59
615.66	1214.45
615.85	1314.80
616.04	1282.03
616.23	1306.60
616.42	1298.41
616.62	1267.69
616.81	1261.55
617.00	1294.32
617.19	1265.64
617.38	1257.45
617.57	1298.41
617.76	1261.55
617.95	1265.64
618.15	1279.98
618.34	1288.17
618.53	1171.44
618.72	1314.80
618.91	1253.36
619.10	1239.02
619.29	1269.74
619.48	1218.54
619.68	1292.27
619.87	1241.07
620.06	1331.18
620.25	1290.22
620.44	1279.98
620.63	1241.07
620.82	1257.45
621.01	1335.28
621.20	1306.60
621.39	1306.60
621.59	1269.74
621.78	1265.64
621.97	1306.60
622.16	1294.32
622.35	1304.56
622.54	1386.47
622.73	1284.08
622.92	1310.70
623.11	1282.03
623.30	1302.51
623.49	1300.46
623.68	1241.07
623.88	1265.64
624.07	1284.08
624.26	1327.08
624.45	1239.02
624.64	1249.26
624.83	1372.14
625.02	1222.64
625.21	1284.08
625.40	1316.84
625.59	1257.45
625.78	1382.38
625.97	1329.13
626.16	1320.94
626.35	1259.50
626.54	1298.41
626.74	1282.03
626.93	1302.51
627.12	1337.32
627.31	1263.60
627.50	1271.79
627.69	1228.78
627.88	1265.64
628.07	1288.17
628.26	1327.08
628.45	1265.64
628.64	1329.13
628.83	1265.64
629.02	1331.18
629.21	1306.60
629.40	1261.55
629.59	1282.03
629.78	1265.64
629.97	1284.08
630.16	1302.51
630.35	1347.56
630.54	1318.89
630.73	1337.32
630.92	1298.41
631.11	1298.41
631.30	1353.71
631.49	1288.17
631.68	1329.13
631.87	1419.24
632.06	1542.12
632.25	1445.87
632.44	1495.02
632.63	1431.53
632.82	1462.25
633.01	1439.72
633.20	1531.88
633.39	1454.06
633.58	1484.78
633.77	1470.44
633.96	1509.35
634.15	1468.39
634.34	1406.95
634.53	1386.47
634.72	1490.92
634.91	1484.78
635.10	1404.91
635.29	1517.54
635.48	1497.07
635.67	1447.91
635.86	1427.43
636.05	1568.74
636.24	1454.06
636.43	1509.35
636.62	1433.58
636.81	1447.91
637.00	1437.67
637.19	1361.90
637.38	1443.82
637.57	1325.04
637.76	1327.08
637.95	1331.18
638.14	1351.66
638.33	1320.94
638.52	1290.22
638.71	1300.46
638.89	1345.52
639.08	1288.17
639.27	1380.33
639.46	1261.55
639.65	1224.69
639.84	1279.98
640.03	1259.50
640.22	1296.36
640.41	1296.36
640.60	1232.88
640.79	1247.21
640.98	1298.41
641.17	1239.02
641.36	1282.03
641.55	1228.78
641.74	1261.55
641.92	1236.97
642.11	1337.32
642.30	1310.70
642.49	1318.89
642.68	1271.79
642.87	1251.31
643.06	1232.88
643.25	1220.59
643.44	1288.17
643.63	1245.16
643.82	1275.88
644.00	1273.84
644.19	1247.21
644.38	1304.56
644.57	1316.84
644.76	1286.12
644.95	1288.17
645.14	1271.79
645.33	1286.12
645.52	1226.73
645.71	1286.12
645.89	1212.40
646.08	1302.51
646.27	1294.32
646.46	1261.55
646.65	1351.66
646.84	1357.80
647.03	1282.03
647.22	1286.12
647.40	1263.60
647.59	1267.69
647.78	1298.41
647.97	1333.23
648.16	1224.69
648.35	1247.21
648.54	1339.37
648.73	1292.27
648.91	1253.36
649.10	1288.17
649.29	1228.78
649.48	1216.49
649.67	1282.03
649.86	1284.08
650.05	1263.60
650.23	1259.50
650.42	1284.08
650.61	1265.64
650.80	1234.93
650.99	1284.08
651.18	1228.78
651.36	1312.75
651.55	1279.98
651.74	1292.27
651.93	1271.79
652.12	1331.18
652.31	1298.41
652.49	1279.98
652.68	1314.80
652.87	1347.56
653.06	1249.26
653.25	1232.88
653.44	1271.79
653.62	1249.26
653.81	1290.22
654.00	1212.40
654.19	1232.88
654.38	1300.46
654.56	1304.56
654.75	1296.36
654.94	1245.16
655.13	1267.69
655.32	1302.51
655.51	1257.45
655.69	1216.49
655.88	1275.88
656.07	1257.45
656.26	1273.84
656.45	1310.70
656.63	1259.50
656.82	1179.63
657.01	1302.51
657.20	1265.64
657.38	1220.59
657.57	1271.79
657.76	1251.31
657.95	1257.45
658.14	1363.95
658.32	1253.36
658.51	1290.22
658.70	1261.55
658.89	1273.84
659.08	1273.84
659.26	1288.17
659.45	1273.84
659.64	1290.22
659.83	1263.60
660.01	1304.56
660.20	1206.25
660.39	1255.40
660.58	1273.84
660.76	1232.88
660.95	1257.45
661.14	1304.56
661.33	1232.88
661.51	1275.88
661.70	1236.97
661.89	1314.80
662.08	1325.04
662.26	1282.03
662.45	1224.69
662.64	1347.56
662.83	1308.65
663.01	1357.80
663.20	1243.12
663.39	1159.15
663.58	1239.02
663.76	1290.22
663.95	1304.56
664.14	1236.97
664.32	1239.02
664.51	1286.12
664.70	1308.65
664.89	1312.75
665.07	1236.97
665.26	1224.69
665.45	1232.88
665.64	1279.98
665.82	1306.60
666.01	1304.56
666.20	1267.69
666.38	1226.73
666.57	1308.65
666.76	1261.55
666.95	1245.16
667.13	1296.36
667.32	1271.79
667.51	1230.83
667.69	1337.32
667.88	1294.32
668.07	1230.83
668.25	1251.31
668.44	1232.88
668.63	1253.36
668.81	1249.26
669.00	1249.26
669.19	1310.70
669.38	1314.80
669.56	1322.99
669.75	1296.36
669.94	1286.12
670.12	1296.36
670.31	1210.35
670.50	1277.93
670.68	1249.26
670.87	1239.02
671.06	1261.55
671.24	1263.60
671.43	1308.65
671.62	1265.64
671.80	1259.50
671.99	1247.21
672.18	1245.16
672.36	1290.22
672.55	1322.99
672.74	1245.16
672.92	1335.28
673.11	1300.46
673.29	1255.40
673.48	1277.93
673.67	1292.27
673.85	1265.64
674.04	1218.54
674.23	1216.49
674.41	1259.50
674.60	1265.64
674.79	1202.16
674.97	1290.22
675.16	1234.93
675.34	1310.70
675.53	1255.40
675.72	1302.51
675.90	1322.99
676.09	1251.31
676.28	1245.16
676.46	1234.93
676.65	1208.30
676.83	1239.02
677.02	1271.79
677.21	1275.88
677.39	1224.69
677.58	1261.55
677.77	1247.21
677.95	1347.56
678.14	1212.40
678.32	1239.02
678.51	1232.88
678.70	1249.26
678.88	1282.03
679.07	1208.30
679.25	1224.69
679.44	1265.64
679.63	1181.68
679.81	1241.07
680.00	1265.64
680.18	1286.12
680.37	1331.18
680.55	1165.29
680.74	1243.12
680.93	1234.93
681.11	1259.50
681.30	1275.88
681.48	1275.88
681.67	1288.17
681.85	1255.40
682.04	1234.93
682.23	1378.28
682.41	1216.49
682.60	1261.55
682.78	1249.26
682.97	1320.94
683.15	1372.14
683.34	1200.11
683.53	1249.26
683.71	1263.60
683.90	1318.89
684.08	1292.27
684.27	1228.78
684.45	1263.60
684.64	1273.84
684.82	1261.55
685.01	1312.75
685.19	1288.17
685.38	1173.49
685.57	1220.59
685.75	1263.60
685.94	1247.21
686.12	1298.41
686.31	1269.74
686.49	1298.41
686.68	1206.25
686.86	1224.69
687.05	1239.02
687.23	1288.17
687.42	1269.74
687.60	1271.79
687.79	1355.76
687.97	1232.88
688.16	1331.18
688.34	1255.40
688.53	1267.69
688.71	1306.60
688.90	1294.32
689.08	1337.32
689.27	1257.45
689.45	1263.60
689.64	1325.04
689.82	1249.26
690.01	1204.21
690.19	1298.41
690.38	1239.02
690.56	1269.74
690.75	1271.79
690.93	1224.69
691.12	1304.56
691.30	1318.89
691.49	1253.36
691.67	1230.83
691.86	1277.93
692.04	1273.84
692.23	1255.40
692.41	1286.12
692.60	1290.22
692.78	1292.27
692.97	1216.49
693.15	1339.37
693.34	1224.69
693.52	1286.12
693.71	1257.45
693.89	1212.40
694.08	1290.22
694.26	1300.46
694.44	1259.50
694.63	1275.88
694.81	1261.55
695.00	1351.66
695.18	1208.30
695.37	1292.27
695.55	1206.25
695.74	1331.18
695.92	1261.55
696.10	1378.28
696.29	1290.22
696.47	1279.98
696.66	1212.40
696.84	1277.93
697.03	1269.74
697.21	1271.79
697.40	1269.74
697.58	1347.56
697.76	1210.35
697.95	1306.60
698.13	1193.97
698.32	1349.61
698.50	1232.88
698.68	1298.41
698.87	1249.26
699.05	1347.56
699.24	1290.22
699.42	1300.46
699.61	1230.83
699.79	1306.60
699.97	1282.03
700.16	1247.21
700.34	1267.69
700.53	1249.26
700.71	1292.27
700.89	1236.97
701.08	1241.07
701.26	1226.73
701.45	1236.97
701.63	1236.97
701.81	1306.60
702.00	1308.65
702.18	1298.41
702.37	1279.98
702.55	1275.88
702.73	1253.36
702.92	1306.60
703.10	1296.36
703.28	1298.41
703.47	1343.47
703.65	1249.26
703.84	1290.22
704.02	1261.55
704.20	1236.97
704.39	1273.84
704.57	1288.17
704.75	1261.55
704.94	1288.17
705.12	1251.31
705.30	1263.60
705.49	1314.80
705.67	1349.61
705.86	1306.60
706.04	1249.26
706.22	1263.60
706.41	1257.45
706.59	1263.60
706.77	1290.22
706.96	1259.50
707.14	1298.41
707.32	1251.31
707.51	1292.27
707.69	1257.45
707.87	1232.88
708.06	1304.56
708.24	1239.02
708.42	1206.25
708.61	1314.80
708.79	1269.74
708.97	1204.21
709.16	1234.93
709.34	1318.89
709.52	1337.32
709.71	1394.67
709.89	1232.88
710.07	1263.60
710.26	1327.08
710.44	1288.17
710.62	1216.49
710.80	1247.21
710.99	1304.56
711.17	1300.46
711.35	1222.64
711.54	1304.56
711.72	1355.76
711.90	1284.08
712.09	1300.46
712.27	1275.88
712.45	1269.74
712.63	1290.22
712.82	1282.03
713.00	1288.17
713.18	1279.98
713.37	1277.93
713.55	1228.78
713.73	1206.25
713.91	1261.55
714.10	1288.17
714.28	1265.64
714.46	1282.03
714.65	1271.79
714.83	1214.45
715.01	1288.17
715.19	1245.16
715.38	1294.32
715.56	1343.47
715.74	1341.42
715.92	1218.54
716.11	1347.56
716.29	1271.79
716.47	1288.17
716.65	1273.84
716.84	1234.93
717.02	1243.12
717.20	1234.93
717.38	1261.55
717.57	1261.55
717.75	1329.13
717.93	1279.98
718.11	1273.84
718.30	1239.02
718.48	1290.22
718.66	1290.22
718.84	1226.73
719.03	1314.80
719.21	1288.17
719.39	1263.60
719.57	1331.18
719.75	1243.12
719.94	1279.98
720.12	1341.42
720.30	1277.93
720.48	1275.88
720.67	1290.22
720.85	1241.07
721.03	1239.02
721.21	1331.18
721.39	1304.56
721.58	1251.31
721.76	1257.45
721.94	1263.60
722.12	1210.35
722.30	1337.32
722.49	1263.60
722.67	1267.69
722.85	1308.65
723.03	1290.22
723.21	1329.13
723.40	1265.64
723.58	1249.26
723.76	1298.41
723.94	1216.49
724.12	1275.88
724.30	1277.93
724.49	1236.97
724.67	1269.74
724.85	1241.07
725.03	1263.60
725.21	1284.08
725.40	1255.40
725.58	1173.49
725.76	1269.74
725.94	1269.74
726.12	1232.88
726.30	1202.16
726.49	1296.36
726.67	1204.21
726.85	1222.64
727.03	1249.26
727.21	1247.21
727.39	1251.31
727.57	1249.26
727.76	1230.83
727.94	1333.23
728.12	1306.60
728.30	1208.30
728.48	1265.64
728.66	1282.03
728.84	1206.25
729.03	1232.88
729.21	1247.21
729.39	1302.51
729.57	1275.88
729.75	1302.51
729.93	1216.49
730.11	1269.74
730.30	1222.64
730.48	1347.56
730.66	1253.36
730.84	1251.31
731.02	1306.60
731.20	1300.46
731.38	1325.04
731.56	1384.43
731.74	1275.88
731.93	1245.16
732.11	1279.98
732.29	1206.25
732.47	1232.88
732.65	1241.07
732.83	1253.36
733.01	1263.60
733.19	1318.89
733.37	1226.73
733.56	1259.50
733.74	1279.98
733.92	1294.32
734.10	1300.46
734.28	1179.63
734.46	1236.97
734.64	1322.99
734.82	1261.55
735.00	1273.84
735.18	1329.13
735.36	1230.83
735.54	1196.01
735.73	1198.06
735.91	1282.03
736.09	1282.03
736.27	1279.98
736.45	1200.11
736.63	1265.64
736.81	1331.18
736.99	1292.27
737.17	1245.16
737.35	1173.49
737.53	1279.98
737.71	1325.04
737.89	1288.17
738.07	1275.88
738.25	1255.40
738.43	1232.88
738.61	1316.84
738.80	1306.60
738.98	1292.27
739.16	1214.45
739.34	1269.74
739.52	1263.60
739.70	1271.79
739.88	1273.84
740.06	1265.64
740.24	1306.60
740.42	1335.28
740.60	1296.36
740.78	1196.01
740.96	1241.07
741.14	1284.08
741.32	1245.16
741.50	1265.64
741.68	1226.73
741.86	1331.18
742.04	1222.64
742.22	1234.93
742.40	1204.21
742.58	1298.41
742.76	1220.59
742.94	1279.98
743.12	1267.69
743.30	1282.03
743.48	1214.45
743.66	1312.75
743.84	1253.36
744.02	1261.55
744.20	1253.36
744.38	1277.93
744.56	1257.45
744.74	1263.60
744.92	1181.68
745.10	1265.64
745.28	1277.93
745.46	1269.74
745.64	1239.02
745.82	1253.36
746.00	1206.25
746.18	1294.32
746.36	1310.70
746.54	1218.54
746.72	1322.99
746.90	1331.18
747.08	1284.08
747.26	1249.26
747.44	1232.88
747.62	1245.16
747.80	1279.98
747.98	1275.88
748.15	1253.36
748.33	1290.22
748.51	1290.22
748.69	1134.57
748.87	1296.36
749.05	1269.74
749.23	1257.45
749.41	1288.17
749.59	1277.93
749.77	1216.49
749.95	1294.32
750.13	1247.21
750.31	1318.89
750.49	1251.31
750.67	1292.27
750.85	1275.88
751.03	1247.21
751.20	1302.51
751.38	1318.89
751.56	1196.01
751.74	1284.08
751.92	1314.80
752.10	1257.45
752.28	1325.04
752.46	1308.65
752.64	1253.36
752.82	1185.77
753.00	1322.99
753.18	1279.98
753.35	1286.12
753.53	1296.36
753.71	1318.89
753.89	1263.60
754.07	1200.11
754.25	1265.64
754.43	1245.16
754.61	1212.40
754.79	1314.80
754.97	1339.37
755.14	1212.40
755.32	1259.50
755.50	1271.79
755.68	1210.35
755.86	1202.16
756.04	1284.08
756.22	1314.80
756.40	1228.78
756.57	1249.26
756.75	1247.21
756.93	1302.51
757.11	1245.16
757.29	1284.08
757.47	1249.26
757.65	1253.36
757.82	1265.64
758.00	1310.70
758.18	1265.64
758.36	1300.46
758.54	1298.41
758.72	1306.60
758.90	1290.22
759.07	1216.49
759.25	1312.75
759.43	1196.01
759.61	1245.16
759.79	1292.27
759.97	1255.40
760.15	1241.07
760.32	1214.45
760.50	1249.26
760.68	1304.56
760.86	1296.36
761.04	1257.45
761.22	1275.88
761.39	1245.16
761.57	1306.60
761.75	1286.12
761.93	1241.07
762.11	1208.30
762.28	1286.12
762.46	1265.64
762.64	1265.64
762.82	1245.16
763.00	1310.70
763.18	1279.98
763.35	1247.21
763.53	1290.22
763.71	1234.93
763.89	1245.16
764.07	1259.50
764.24	1269.74
764.42	1361.90
764.60	1257.45
764.78	1265.64
764.96	1374.19
765.13	1208.30
765.31	1228.78
765.49	1282.03
765.67	1290.22
765.84	1187.82
766.02	1273.84
766.20	1327.08
766.38	1298.41
766.56	1286.12
766.73	1265.64
766.91	1286.12
767.09	1273.84
767.27	1306.60
767.44	1282.03
767.62	1282.03
767.80	1257.45
767.98	1257.45
768.15	1275.88
768.33	1306.60
768.51	1282.03
768.69	1269.74
768.87	1236.97
769.04	1298.41
769.22	1294.32
769.40	1335.28
769.58	1245.16
769.75	1265.64
769.93	1224.69
770.11	1208.30
770.28	1290.22
770.46	1226.73
770.64	1273.84
770.82	1257.45
770.99	1296.36
771.17	1267.69
771.35	1273.84
771.53	1245.16
771.70	1314.80
771.88	1249.26
772.06	1271.79
772.23	1247.21
772.41	1279.98
772.59	1224.69
772.77	1208.30
772.94	1263.60
773.12	1277.93
773.30	1273.84
773.47	1187.82
773.65	1277.93
773.83	1275.88
774.01	1185.77
774.18	1343.47
774.36	1273.84
774.54	1255.40
774.71	1230.83
774.89	1308.65
775.07	1269.74
775.24	1312.75
775.42	1292.27
775.60	1257.45
775.78	1224.69
775.95	1261.55
776.13	1251.31
776.31	1271.79
776.48	1351.66
776.66	1249.26
776.84	1286.12
777.01	1343.47
777.19	1273.84
777.37	1206.25
777.54	1282.03
777.72	1271.79
777.90	1257.45
778.07	1191.92
778.25	1333.23
778.43	1304.56
778.60	1294.32
778.78	1265.64
778.96	1294.32
779.13	1245.16
779.31	1214.45
779.49	1255.40
779.66	1316.84
779.84	1216.49
780.01	1288.17
780.19	1277.93
780.37	1271.79
780.54	1296.36
780.72	1271.79
780.90	1230.83
781.07	1198.06
781.25	1232.88
781.43	1230.83
781.60	1320.94
781.78	1275.88
781.95	1320.94
782.13	1257.45
782.31	1239.02
782.48	1273.84
782.66	1279.98
782.83	1304.56
783.01	1206.25
783.19	1234.93
783.36	1239.02
783.54	1308.65
783.72	1234.93
783.89	1337.32
784.07	1257.45
784.24	1261.55
784.42	1257.45
784.60	1279.98
784.77	1239.02
784.95	1275.88
785.12	1251.31
785.30	1241.07
785.47	1337.32
785.65	1230.83
785.83	1196.01
786.00	1234.93
786.18	1249.26
786.35	1251.31
786.53	1302.51
786.71	1290.22
786.88	1253.36
787.06	1196.01
787.23	1245.16
787.41	1247.21
787.58	1251.31
787.76	1273.84
787.94	1265.64
788.11	1241.07
788.29	1282.03
788.46	1335.28
788.64	1251.31
788.81	1269.74
788.99	1249.26
789.16	1331.18
789.34	1288.17
789.52	1267.69
789.69	1247.21
789.87	1261.55
790.04	1247.21
790.22	1239.02
790.39	1226.73
790.57	1345.52
790.74	1282.03
790.92	1267.69
791.09	1265.64
791.27	1257.45
791.44	1261.55
791.62	1198.06
791.79	1308.65
791.97	1232.88
792.15	1245.16
792.32	1243.12
792.50	1302.51
792.67	1269.74
792.85	1218.54
793.02	1265.64
793.20	1318.89
793.37	1261.55
793.55	1232.88
793.72	1243.12
793.90	1212.40
794.07	1277.93
794.25	1245.16
794.42	1294.32
794.60	1339.37
794.77	1243.12
794.95	1224.69
795.12	1331.18
795.30	1294.32
795.47	1206.25
795.65	1273.84
795.82	1302.51
796.00	1284.08
796.17	1292.27
796.34	1294.32
796.52	1306.60
796.69	1329.13
796.87	1222.64
797.04	1366.00
797.22	1329.13
797.39	1290.22
797.57	1339.37
797.74	1218.54
797.92	1224.69
798.09	1327.08
798.27	1275.88
798.44	1267.69
798.62	1292.27
798.79	1288.17
798.96	1243.12
799.14	1247.21
799.31	1236.97
799.49	1279.98
799.66	1273.84
799.84	1341.42
800.01	1228.78
800.19	1306.60
800.36	1214.45
800.53	1296.36
800.71	1306.60
800.88	1339.37
801.06	1277.93
801.23	1253.36
801.41	1322.99
801.58	1255.40
801.75	1228.78
801.93	1275.88
802.10	1288.17
802.28	1249.26
802.45	1249.26
802.63	1181.68
802.80	1198.06
802.97	1273.84
803.15	1327.08
803.32	1294.32
803.50	1302.51
803.67	1239.02
803.84	1241.07
804.02	1279.98
804.19	1331.18
804.37	1228.78
804.54	1220.59
804.71	1282.03
804.89	1202.16
805.06	1322.99
805.24	1253.36
805.41	1241.07
805.58	1345.52
805.76	1265.64
805.93	1200.11
806.10	1222.64
806.28	1189.87
806.45	1265.64
806.63	1265.64
806.80	1273.84
806.97	1265.64
807.15	1255.40
807.32	1339.37
807.49	1267.69
807.67	1253.36
807.84	1165.29
808.01	1206.25
808.19	1288.17
808.36	1282.03
808.54	1325.04
808.71	1284.08
808.88	1273.84
809.06	1267.69
809.23	1277.93
809.40	1230.83
809.58	1249.26
809.75	1243.12
809.92	1271.79
810.10	1316.84
810.27	1327.08
810.44	1290.22
810.62	1277.93
810.79	1257.45
810.96	1331.18
811.14	1331.18
811.31	1263.60
811.48	1257.45
811.66	1310.70
811.83	1245.16
812.00	1312.75
812.18	1243.12
812.35	1320.94
812.52	1290.22
812.69	1234.93
812.87	1318.89
813.04	1279.98
813.21	1290.22
813.39	1226.73
813.56	1300.46
813.73	1288.17
813.91	1273.84
814.08	1296.36
814.25	1265.64
814.42	1259.50
814.60	1234.93
814.77	1306.60
814.94	1234.93
815.12	1228.78
815.29	1380.33
815.46	1247.21
815.63	1200.11
815.81	1279.98
815.98	1230.83
816.15	1327.08
816.33	1261.55
816.50	1292.27
816.67	1265.64
816.84	1263.60
817.02	1202.16
817.19	1232.88
817.36	1327.08
817.53	1251.31
817.71	1220.59
817.88	1214.45
818.05	1191.92
818.22	1245.16
818.40	1220.59
818.57	1277.93
818.74	1308.65
818.91	1257.45
819.09	1200.11
819.26	1343.47
819.43	1257.45
819.60	1210.35
819.78	1247.21
819.95	1304.56
820.12	1232.88
820.29	1249.26
820.47	1286.12
820.64	1306.60
820.81	1232.88
820.98	1290.22
821.15	1310.70
821.33	1316.84
821.50	1312.75
821.67	1302.51
821.84	1247.21
822.02	1232.88
822.19	1236.97
822.36	1308.65
822.53	1273.84
822.70	1216.49
822.88	1265.64
823.05	1288.17
823.22	1241.07
823.39	1259.50
823.56	1249.26
823.74	1247.21
823.91	1316.84
824.08	1247.21
824.25	1282.03
824.42	1304.56
824.60	1224.69
824.77	1273.84
824.94	1263.60
825.11	1306.60
825.28	1226.73
825.45	1316.84
825.63	1329.13
825.80	1316.84
825.97	1282.03
826.14	1329.13
826.31	1337.32
826.48	1245.16
826.66	1247.21
826.83	1296.36
827.00	1226.73
827.17	1290.22
827.34	1273.84
827.51	1210.35
827.69	1245.16
827.86	1284.08
828.03	1251.31
828.20	1325.04
828.37	1316.84
828.54	1196.01
828.71	1296.36
828.89	1284.08
829.06	1261.55
829.23	1230.83
829.40	1232.88
829.57	1282.03
829.74	1261.55
829.91	1277.93
830.09	1247.21
830.26	1224.69
830.43	1245.16
830.60	1310.70
830.77	1253.36
830.94	1253.36
831.11	1265.64
831.28	1277.93
831.46	1263.60
831.63	1345.52
831.80	1277.93
831.97	1245.16
832.14	1296.36
832.31	1273.84
832.48	1239.02
832.65	1257.45
832.82	1243.12
832.99	1290.22
833.17	1259.50
833.34	1277.93
833.51	1230.83
833.68	1247.21
833.85	1275.88
834.02	1284.08
834.19	1306.60
834.36	1208.30
834.53	1208.30
834.70	1222.64
834.87	1255.40
835.04	1255.40
835.22	1271.79
835.39	1277.93
835.56	1273.84
835.73	1241.07
835.90	1282.03
836.07	1206.25
836.24	1269.74
836.41	1320.94
836.58	1210.35
836.75	1265.64
836.92	1288.17
837.09	1271.79
837.26	1263.60
837.43	1263.60
837.60	1257.45
837.77	1247.21
837.94	1249.26
838.12	1279.98
838.29	1277.93
838.46	1261.55
838.63	1320.94
838.80	1273.84
838.97	1310.70
839.14	1228.78
839.31	1206.25
839.48	1249.26
839.65	1245.16
839.82	1249.26
839.99	1306.60
840.16	1314.80
840.33	1251.31
840.50	1333.23
840.67	1302.51
840.84	1267.69
841.01	1265.64
841.18	1253.36
841.35	1249.26
841.52	1271.79
841.69	1265.64
841.86	1271.79
842.03	1257.45
842.20	1273.84
842.37	1294.32
842.54	1261.55
842.71	1249.26
842.88	1259.50
843.05	1232.88
843.22	1310.70
843.39	1314.80
843.56	1339.37
843.73	1208.30
843.90	1329.13
844.07	1286.12
844.24	1288.17
844.41	1234.93
844.58	1216.49
844.75	1269.74
844.92	1294.32
845.09	1322.99
845.26	1294.32
845.43	1239.02
845.60	1310.70
845.77	1298.41
845.94	1243.12
846.10	1271.79
846.27	1218.54
846.44	1249.26
846.61	1220.59
846.78	1243.12
846.95	1343.47
847.12	1306.60
847.29	1232.88
847.46	1247.21
847.63	1218.54
847.80	1257.45
847.97	1222.64
848.14	1273.84
848.31	1239.02
848.48	1230.83
848.65	1267.69
848.82	1249.26
848.98	1341.42
849.15	1267.69
849.32	1290.22
849.49	1181.68
849.66	1232.88
849.83	1206.25
850.00	1312.75
850.17	1224.69
850.34	1327.08
850.51	1361.90
850.68	1243.12
850.85	1257.45
851.01	1208.30
851.18	1261.55
851.35	1296.36
851.52	1181.68
851.69	1241.07
851.86	1322.99
852.03	1253.36
852.20	1273.84
852.37	1284.08
852.53	1196.01
852.70	1210.35
852.87	1257.45
853.04	1259.50
853.21	1241.07
853.38	1241.07
853.55	1218.54
853.72	1257.45
853.89	1355.76
854.05	1273.84
854.22	1265.64
854.39	1259.50
854.56	1243.12
854.73	1273.84
854.90	1261.55
855.07	1292.27
855.23	1218.54
855.40	1286.12
855.57	1277.93
855.74	1320.94
855.91	1183.73
856.08	1294.32
856.25	1304.56
856.41	1253.36
856.58	1255.40
856.75	1294.32
856.92	1241.07
857.09	1212.40
857.26	1261.55
857.42	1282.03
857.59	1255.40
857.76	1282.03
857.93	1212.40
858.10	1253.36
858.27	1224.69
858.43	1247.21
858.60	1243.12
858.77	1271.79
858.94	1181.68
859.11	1245.16
859.27	1263.60
859.44	1329.13
859.61	1322.99
859.78	1236.97
859.95	1286.12
860.12	1284.08
860.28	1308.65
860.45	1220.59
860.62	1275.88
860.79	1177.58
860.95	1312.75
861.12	1257.45
861.29	1234.93
861.46	1165.29
861.63	1206.25
861.79	1261.55
861.96	1247.21
862.13	1265.64
862.30	1255.40
862.47	1282.03
862.63	1286.12
862.80	1308.65
862.97	1322.99
863.14	1247.21
863.30	1247.21
863.47	1269.74
863.64	1267.69
863.81	1236.97
863.97	1318.89
864.14	1279.98
864.31	1249.26
864.48	1282.03
864.65	1284.08
864.81	1249.26
864.98	1243.12
865.15	1265.64
865.32	1257.45
865.48	1279.98
865.65	1253.36
865.82	1271.79
865.98	1265.64
866.15	1292.27
866.32	1282.03
866.49	1220.59
866.65	1273.84
866.82	1232.88
866.99	1257.45
867.16	1232.88
867.32	1279.98
867.49	1239.02
867.66	1300.46
867.83	1255.40
867.99	1239.02
868.16	1318.89
868.33	1312.75
868.49	1296.36
868.66	1204.21
868.83	1261.55
868.99	1241.07
869.16	1236.97
869.33	1261.55
869.50	1284.08
869.66	1218.54
869.83	1284.08
870.00	1265.64
870.16	1257.45
870.33	1292.27
870.50	1251.31
870.66	1228.78
870.83	1351.66
871.00	1257.45
871.17	1279.98
871.33	1224.69
871.50	1226.73
871.67	1202.16
871.83	1322.99
872.00	1230.83
872.17	1284.08
872.33	1265.64
872.50	1275.88
872.67	1212.40
872.83	1224.69
873.00	1359.85
873.17	1255.40
873.33	1271.79
873.50	1331.18
873.67	1210.35
873.83	1234.93
874.00	1322.99
874.16	1275.88
874.33	1255.40
874.50	1359.85
874.66	1193.97
874.83	1271.79
875.00	1290.22
875.16	1300.46
875.33	1296.36
875.50	1292.27
875.66	1236.97
875.83	1329.13
875.99	1292.27
876.16	1261.55
876.33	1261.55
876.49	1282.03
876.66	1241.07
876.83	1298.41
876.99	1308.65
877.16	1286.12
877.32	1239.02
877.49	1327.08
877.66	1269.74
877.82	1271.79
877.99	1277.93
878.15	1277.93
878.32	1308.65
878.49	1265.64
878.65	1288.17
878.82	1191.92
878.98	1277.93
879.15	1284.08
879.32	1185.77
879.48	1286.12
879.65	1193.97
879.81	1279.98
879.98	1288.17
880.15	1282.03
880.31	1298.41
880.48	1226.73
880.64	1187.82
880.81	1255.40
880.97	1212.40
881.14	1286.12
881.31	1200.11
881.47	1345.52
881.64	1202.16
881.80	1239.02
881.97	1212.40
882.13	1279.98
882.30	1316.84
882.47	1232.88
882.63	1255.40
882.80	1236.97
882.96	1282.03
883.13	1312.75
883.29	1306.60
883.46	1234.93
883.62	1208.30
883.79	1292.27
883.95	1279.98
884.12	1253.36
884.29	1294.32
884.45	1265.64
884.62	1312.75
884.78	1228.78
884.95	1314.80
885.11	1249.26
885.28	1282.03
885.44	1316.84
885.61	1232.88
885.77	1267.69
885.94	1290.22
886.10	1273.84
886.27	1202.16
886.43	1224.69
886.60	1279.98
886.76	1208.30
886.93	1249.26
887.09	1298.41
887.26	1302.51
887.42	1279.98
887.59	1245.16
887.75	1306.60
887.92	1273.84
888.08	1249.26
888.25	1220.59
888.41	1239.02
888.58	1204.21
888.74	1294.32
888.91	1261.55
>>>>>End Processed Spectral Data<<<<<
