SpectraSuite Data File
++++++++++++++++++++++++++++++++++++
Date: Sun Apr 03 19:55:30 CEST 2016
User: root
Dark Spectrum Present: No
Reference Spectrum Present: No
Number of Sampled Component Spectra: 1
Spectrometers: USB4C02835
Integration Time (usec): 10000 (USB4C02835)
Spectra Averaged: 1 (USB4C02835)
Boxcar Smoothing: 0 (USB4C02835)
Correct for Electrical Dark: No (USB4C02835)
Strobe/Lamp Enabled: No (USB4C02835)
Correct for Detector Non-linearity: No (USB4C02835)
Correct for Stray Light: No (USB4C02835)
Number of Pixels in Processed Spectrum: 3648
>>>>>Begin Processed Spectral Data<<<<<
177.47	1206.25
177.69	1206.25
177.91	1206.25
178.13	1294.32
178.36	1257.45
178.58	1261.55
178.80	1282.03
179.02	1288.17
179.24	1257.45
179.46	1247.21
179.68	1351.66
179.90	1314.80
180.13	1273.84
180.35	1249.26
180.57	1286.12
180.79	1322.99
181.01	1167.34
181.23	1282.03
181.45	1257.45
181.67	1228.78
181.90	1222.64
182.12	1275.88
182.34	1259.50
182.56	1275.88
182.78	1241.07
183.00	1249.26
183.22	1271.79
183.44	1263.60
183.66	1228.78
183.89	1251.31
184.11	1296.36
184.33	1286.12
184.55	1275.88
184.77	1247.21
184.99	1296.36
185.21	1300.46
185.43	1253.36
185.65	1327.08
185.87	1247.21
186.10	1257.45
186.32	1279.98
186.54	1273.84
186.76	1169.39
186.98	1245.16
187.20	1257.45
187.42	1308.65
187.64	1259.50
187.86	1247.21
188.08	1267.69
188.30	1304.56
188.52	1282.03
188.75	1222.64
188.97	1339.37
189.19	1257.45
189.41	1222.64
189.63	1300.46
189.85	1245.16
190.07	1222.64
190.29	1232.88
190.51	1243.12
190.73	1273.84
190.95	1298.41
191.17	1249.26
191.39	1302.51
191.61	1263.60
191.84	1198.06
192.06	1316.84
192.28	1298.41
192.50	1241.07
192.72	1265.64
192.94	1255.40
193.16	1249.26
193.38	1273.84
193.60	1243.12
193.82	1193.97
194.04	1255.40
194.26	1259.50
194.48	1230.83
194.70	1259.50
194.92	1167.34
195.14	1241.07
195.36	1255.40
195.58	1265.64
195.80	1249.26
196.02	1253.36
196.24	1251.31
196.46	1273.84
196.69	1191.92
196.91	1263.60
197.13	1298.41
197.35	1234.93
197.57	1220.59
197.79	1308.65
198.01	1236.97
198.23	1306.60
198.45	1263.60
198.67	1206.25
198.89	1273.84
199.11	1298.41
199.33	1341.42
199.55	1290.22
199.77	1320.94
199.99	1296.36
200.21	1261.55
200.43	1265.64
200.65	1269.74
200.87	1263.60
201.09	1257.45
201.31	1296.36
201.53	1271.79
201.75	1261.55
201.97	1294.32
202.19	1251.31
202.41	1255.40
202.63	1355.76
202.85	1269.74
203.07	1312.75
203.29	1220.59
203.51	1359.85
203.73	1230.83
203.95	1300.46
204.17	1333.23
204.39	1253.36
204.61	1236.97
204.83	1322.99
205.05	1259.50
205.27	1247.21
205.49	1239.02
205.71	1234.93
205.93	1337.32
206.15	1200.11
206.37	1259.50
206.59	1206.25
206.81	1271.79
207.03	1294.32
207.25	1267.69
207.47	1257.45
207.69	1322.99
207.91	1320.94
208.13	1253.36
208.34	1232.88
208.56	1286.12
208.78	1312.75
209.00	1284.08
209.22	1308.65
209.44	1183.73
209.66	1212.40
209.88	1263.60
210.10	1263.60
210.32	1263.60
210.54	1306.60
210.76	1273.84
210.98	1243.12
211.20	1255.40
211.42	1196.01
211.64	1314.80
211.86	1290.22
212.08	1294.32
212.30	1271.79
212.52	1273.84
212.74	1255.40
212.96	1288.17
213.17	1241.07
213.39	1257.45
213.61	1325.04
213.83	1335.28
214.05	1251.31
214.27	1265.64
214.49	1261.55
214.71	1259.50
214.93	1282.03
215.15	1282.03
215.37	1265.64
215.59	1279.98
215.81	1214.45
216.03	1234.93
216.24	1224.69
216.46	1208.30
216.68	1187.82
216.90	1284.08
217.12	1290.22
217.34	1304.56
217.56	1288.17
217.78	1257.45
218.00	1241.07
218.22	1304.56
218.44	1273.84
218.66	1202.16
218.87	1282.03
219.09	1273.84
219.31	1236.97
219.53	1196.01
219.75	1294.32
219.97	1331.18
220.19	1239.02
220.41	1286.12
220.63	1255.40
220.85	1296.36
221.06	1290.22
221.28	1234.93
221.50	1251.31
221.72	1290.22
221.94	1204.21
222.16	1255.40
222.38	1296.36
222.60	1239.02
222.82	1290.22
223.03	1279.98
223.25	1255.40
223.47	1269.74
223.69	1320.94
223.91	1320.94
224.13	1335.28
224.35	1284.08
224.57	1296.36
224.78	1357.80
225.00	1196.01
225.22	1269.74
225.44	1198.06
225.66	1316.84
225.88	1261.55
226.10	1236.97
226.32	1290.22
226.53	1282.03
226.75	1241.07
226.97	1236.97
227.19	1232.88
227.41	1261.55
227.63	1312.75
227.85	1220.59
228.06	1279.98
228.28	1310.70
228.50	1296.36
228.72	1277.93
228.94	1310.70
229.16	1290.22
229.37	1249.26
229.59	1245.16
229.81	1220.59
230.03	1271.79
230.25	1212.40
230.47	1232.88
230.69	1247.21
230.90	1267.69
231.12	1292.27
231.34	1204.21
231.56	1339.37
231.78	1267.69
232.00	1247.21
232.21	1286.12
232.43	1331.18
232.65	1230.83
232.87	1322.99
233.09	1261.55
233.30	1206.25
233.52	1277.93
233.74	1249.26
233.96	1241.07
234.18	1249.26
234.40	1302.51
234.61	1259.50
234.83	1275.88
235.05	1273.84
235.27	1275.88
235.49	1306.60
235.70	1224.69
235.92	1263.60
236.14	1302.51
236.36	1300.46
236.58	1216.49
236.79	1271.79
237.01	1239.02
237.23	1304.56
237.45	1257.45
237.67	1271.79
237.88	1257.45
238.10	1239.02
238.32	1296.36
238.54	1298.41
238.76	1243.12
238.97	1263.60
239.19	1202.16
239.41	1265.64
239.63	1310.70
239.85	1247.21
240.06	1294.32
240.28	1320.94
240.50	1269.74
240.72	1308.65
240.93	1351.66
241.15	1210.35
241.37	1275.88
241.59	1357.80
241.81	1341.42
242.02	1212.40
242.24	1279.98
242.46	1304.56
242.68	1290.22
242.89	1320.94
243.11	1314.80
243.33	1261.55
243.55	1255.40
243.76	1255.40
243.98	1304.56
244.20	1277.93
244.42	1282.03
244.64	1273.84
244.85	1288.17
245.07	1282.03
245.29	1261.55
245.51	1277.93
245.72	1230.83
245.94	1255.40
246.16	1327.08
246.38	1232.88
246.59	1253.36
246.81	1314.80
247.03	1187.82
247.24	1255.40
247.46	1236.97
247.68	1292.27
247.90	1257.45
248.11	1312.75
248.33	1255.40
248.55	1261.55
248.77	1304.56
248.98	1265.64
249.20	1239.02
249.42	1277.93
249.64	1214.45
249.85	1288.17
250.07	1273.84
250.29	1239.02
250.50	1292.27
250.72	1273.84
250.94	1253.36
251.16	1239.02
251.37	1294.32
251.59	1239.02
251.81	1265.64
252.02	1339.37
252.24	1308.65
252.46	1279.98
252.68	1243.12
252.89	1222.64
253.11	1288.17
253.33	1236.97
253.54	1314.80
253.76	1345.52
253.98	1251.31
254.20	1214.45
254.41	1282.03
254.63	1282.03
254.85	1277.93
255.06	1185.77
255.28	1236.97
255.50	1253.36
255.71	1302.51
255.93	1273.84
256.15	1230.83
256.36	1269.74
256.58	1294.32
256.80	1308.65
257.02	1247.21
257.23	1245.16
257.45	1241.07
257.67	1265.64
257.88	1243.12
258.10	1290.22
258.32	1247.21
258.53	1255.40
258.75	1251.31
258.97	1312.75
259.18	1271.79
259.40	1216.49
259.62	1331.18
259.83	1312.75
260.05	1279.98
260.27	1247.21
260.48	1257.45
260.70	1234.93
260.92	1243.12
261.13	1255.40
261.35	1183.73
261.57	1257.45
261.78	1279.98
262.00	1286.12
262.22	1288.17
262.43	1249.26
262.65	1243.12
262.86	1288.17
263.08	1294.32
263.30	1243.12
263.51	1245.16
263.73	1284.08
263.95	1294.32
264.16	1267.69
264.38	1320.94
264.60	1290.22
264.81	1318.89
265.03	1220.59
265.25	1191.92
265.46	1261.55
265.68	1251.31
265.89	1269.74
266.11	1212.40
266.33	1290.22
266.54	1230.83
266.76	1290.22
266.98	1185.77
267.19	1347.56
267.41	1275.88
267.62	1230.83
267.84	1257.45
268.06	1253.36
268.27	1204.21
268.49	1337.32
268.70	1310.70
268.92	1286.12
269.14	1224.69
269.35	1275.88
269.57	1269.74
269.79	1269.74
270.00	1222.64
270.22	1282.03
270.43	1236.97
270.65	1239.02
270.87	1271.79
271.08	1243.12
271.30	1236.97
271.51	1294.32
271.73	1228.78
271.95	1245.16
272.16	1296.36
272.38	1341.42
272.59	1214.45
272.81	1288.17
273.02	1220.59
273.24	1239.02
273.46	1351.66
273.67	1284.08
273.89	1298.41
274.10	1247.21
274.32	1302.51
274.54	1239.02
274.75	1275.88
274.97	1286.12
275.18	1275.88
275.40	1300.46
275.61	1310.70
275.83	1343.47
276.05	1284.08
276.26	1239.02
276.48	1234.93
276.69	1314.80
276.91	1220.59
277.12	1232.88
277.34	1300.46
277.55	1292.27
277.77	1300.46
277.99	1232.88
278.20	1271.79
278.42	1304.56
278.63	1282.03
278.85	1345.52
279.06	1312.75
279.28	1271.79
279.49	1312.75
279.71	1263.60
279.93	1220.59
280.14	1265.64
280.36	1230.83
280.57	1234.93
280.79	1245.16
281.00	1243.12
281.22	1255.40
281.43	1320.94
281.65	1306.60
281.86	1331.18
282.08	1236.97
282.29	1257.45
282.51	1269.74
282.73	1216.49
282.94	1193.97
283.16	1263.60
283.37	1243.12
283.59	1261.55
283.80	1316.84
284.02	1257.45
284.23	1247.21
284.45	1288.17
284.66	1253.36
284.88	1288.17
285.09	1269.74
285.31	1273.84
285.52	1241.07
285.74	1300.46
285.95	1316.84
286.17	1308.65
286.38	1177.58
286.60	1275.88
286.81	1253.36
287.03	1251.31
287.24	1230.83
287.46	1277.93
287.67	1316.84
287.89	1275.88
288.10	1284.08
288.32	1286.12
288.53	1247.21
288.75	1282.03
288.96	1269.74
289.18	1310.70
289.39	1292.27
289.61	1263.60
289.82	1302.51
290.04	1243.12
290.25	1302.51
290.47	1228.78
290.68	1288.17
290.90	1279.98
291.11	1232.88
291.33	1167.34
291.54	1259.50
291.76	1288.17
291.97	1249.26
292.18	1296.36
292.40	1214.45
292.61	1355.76
292.83	1245.16
293.04	1271.79
293.26	1290.22
293.47	1206.25
293.69	1277.93
293.90	1247.21
294.12	1284.08
294.33	1255.40
294.55	1216.49
294.76	1236.97
294.97	1253.36
295.19	1316.84
295.40	1318.89
295.62	1230.83
295.83	1200.11
296.05	1296.36
296.26	1269.74
296.48	1247.21
296.69	1234.93
296.90	1308.65
297.12	1243.12
297.33	1222.64
297.55	1298.41
297.76	1265.64
297.98	1245.16
298.19	1216.49
298.41	1224.69
298.62	1277.93
298.83	1191.92
299.05	1292.27
299.26	1275.88
299.48	1249.26
299.69	1232.88
299.90	1269.74
300.12	1204.21
300.33	1232.88
300.55	1236.97
300.76	1357.80
300.98	1282.03
301.19	1245.16
301.40	1255.40
301.62	1273.84
301.83	1290.22
302.05	1267.69
302.26	1292.27
302.47	1218.54
302.69	1241.07
302.90	1232.88
303.12	1183.73
303.33	1183.73
303.54	1269.74
303.76	1202.16
303.97	1277.93
304.19	1255.40
304.40	1251.31
304.61	1236.97
304.83	1224.69
305.04	1245.16
305.26	1306.60
305.47	1296.36
305.68	1273.84
305.90	1253.36
306.11	1236.97
306.33	1273.84
306.54	1222.64
306.75	1259.50
306.97	1226.73
307.18	1183.73
307.39	1220.59
307.61	1220.59
307.82	1200.11
308.04	1288.17
308.25	1267.69
308.46	1298.41
308.68	1267.69
308.89	1331.18
309.10	1247.21
309.32	1200.11
309.53	1267.69
309.74	1253.36
309.96	1351.66
310.17	1277.93
310.39	1302.51
310.60	1255.40
310.81	1308.65
311.03	1312.75
311.24	1255.40
311.45	1253.36
311.67	1304.56
311.88	1261.55
312.09	1286.12
312.31	1269.74
312.52	1243.12
312.73	1286.12
312.95	1271.79
313.16	1220.59
313.37	1320.94
313.59	1275.88
313.80	1255.40
314.01	1263.60
314.23	1239.02
314.44	1314.80
314.65	1228.78
314.87	1298.41
315.08	1257.45
315.29	1298.41
315.51	1335.28
315.72	1294.32
315.93	1271.79
316.15	1292.27
316.36	1161.20
316.57	1310.70
316.79	1265.64
317.00	1259.50
317.21	1267.69
317.43	1308.65
317.64	1232.88
317.85	1275.88
318.07	1279.98
318.28	1329.13
318.49	1331.18
318.70	1292.27
318.92	1161.20
319.13	1210.35
319.34	1331.18
319.56	1314.80
319.77	1306.60
319.98	1279.98
320.20	1286.12
320.41	1243.12
320.62	1284.08
320.83	1345.52
321.05	1241.07
321.26	1312.75
321.47	1337.32
321.69	1222.64
321.90	1230.83
322.11	1226.73
322.32	1284.08
322.54	1286.12
322.75	1224.69
322.96	1288.17
323.18	1284.08
323.39	1286.12
323.60	1310.70
323.81	1302.51
324.03	1218.54
324.24	1259.50
324.45	1290.22
324.66	1353.71
324.88	1239.02
325.09	1236.97
325.30	1239.02
325.52	1304.56
325.73	1245.16
325.94	1353.71
326.15	1259.50
326.37	1261.55
326.58	1224.69
326.79	1279.98
327.00	1175.53
327.22	1251.31
327.43	1273.84
327.64	1255.40
327.85	1310.70
328.07	1239.02
328.28	1279.98
328.49	1300.46
328.70	1216.49
328.92	1335.28
329.13	1216.49
329.34	1271.79
329.55	1279.98
329.76	1298.41
329.98	1277.93
330.19	1322.99
330.40	1271.79
330.61	1216.49
330.83	1288.17
331.04	1226.73
331.25	1308.65
331.46	1304.56
331.68	1187.82
331.89	1279.98
332.10	1267.69
332.31	1257.45
332.52	1259.50
332.74	1261.55
332.95	1251.31
333.16	1216.49
333.37	1325.04
333.58	1259.50
333.80	1249.26
334.01	1269.74
334.22	1245.16
334.43	1206.25
334.64	1259.50
334.86	1251.31
335.07	1247.21
335.28	1273.84
335.49	1320.94
335.70	1200.11
335.92	1310.70
336.13	1316.84
336.34	1232.88
336.55	1241.07
336.76	1316.84
336.98	1185.77
337.19	1255.40
337.40	1259.50
337.61	1277.93
337.82	1304.56
338.04	1277.93
338.25	1196.01
338.46	1150.96
338.67	1282.03
338.88	1282.03
339.09	1249.26
339.31	1296.36
339.52	1300.46
339.73	1261.55
339.94	1255.40
340.15	1228.78
340.36	1290.22
340.58	1288.17
340.79	1214.45
341.00	1290.22
341.21	1265.64
341.42	1314.80
341.63	1331.18
341.85	1257.45
342.06	1257.45
342.27	1271.79
342.48	1267.69
342.69	1191.92
342.90	1290.22
343.12	1290.22
343.33	1257.45
343.54	1265.64
343.75	1226.73
343.96	1298.41
344.17	1255.40
344.38	1265.64
344.60	1232.88
344.81	1191.92
345.02	1325.04
345.23	1216.49
345.44	1261.55
345.65	1288.17
345.86	1222.64
346.07	1267.69
346.29	1277.93
346.50	1249.26
346.71	1306.60
346.92	1257.45
347.13	1183.73
347.34	1290.22
347.55	1261.55
347.76	1228.78
347.98	1241.07
348.19	1249.26
348.40	1277.93
348.61	1288.17
348.82	1308.65
349.03	1255.40
349.24	1245.16
349.45	1253.36
349.66	1200.11
349.88	1275.88
350.09	1282.03
350.30	1218.54
350.51	1265.64
350.72	1265.64
350.93	1263.60
351.14	1304.56
351.35	1312.75
351.56	1269.74
351.77	1269.74
351.99	1243.12
352.20	1337.32
352.41	1241.07
352.62	1284.08
352.83	1282.03
353.04	1173.49
353.25	1224.69
353.46	1247.21
353.67	1181.68
353.88	1296.36
354.09	1222.64
354.30	1241.07
354.52	1308.65
354.73	1245.16
354.94	1296.36
355.15	1263.60
355.36	1288.17
355.57	1236.97
355.78	1273.84
355.99	1232.88
356.20	1298.41
356.41	1294.32
356.62	1284.08
356.83	1232.88
357.04	1269.74
357.25	1202.16
357.46	1290.22
357.68	1337.32
357.89	1206.25
358.10	1193.97
358.31	1337.32
358.52	1255.40
358.73	1320.94
358.94	1257.45
359.15	1271.79
359.36	1275.88
359.57	1279.98
359.78	1304.56
359.99	1329.13
360.20	1253.36
360.41	1292.27
360.62	1351.66
360.83	1257.45
361.04	1216.49
361.25	1265.64
361.46	1243.12
361.67	1251.31
361.88	1253.36
362.09	1245.16
362.30	1282.03
362.51	1196.01
362.72	1259.50
362.93	1273.84
363.14	1347.56
363.35	1300.46
363.56	1288.17
363.78	1206.25
363.99	1292.27
364.20	1294.32
364.41	1243.12
364.62	1265.64
364.83	1191.92
365.04	1282.03
365.25	1306.60
365.46	1253.36
365.67	1298.41
365.88	1298.41
366.09	1331.18
366.30	1226.73
366.51	1236.97
366.72	1206.25
366.93	1232.88
367.14	1386.47
367.35	1230.83
367.56	1210.35
367.77	1253.36
367.98	1308.65
368.18	1320.94
368.39	1265.64
368.60	1282.03
368.81	1228.78
369.02	1226.73
369.23	1263.60
369.44	1361.90
369.65	1208.30
369.86	1304.56
370.07	1275.88
370.28	1286.12
370.49	1236.97
370.70	1226.73
370.91	1198.06
371.12	1331.18
371.33	1232.88
371.54	1263.60
371.75	1286.12
371.96	1208.30
372.17	1196.01
372.38	1204.21
372.59	1189.87
372.80	1339.37
373.01	1271.79
373.22	1175.53
373.43	1322.99
373.64	1341.42
373.85	1277.93
374.06	1279.98
374.26	1296.36
374.47	1277.93
374.68	1234.93
374.89	1290.22
375.10	1261.55
375.31	1234.93
375.52	1275.88
375.73	1183.73
375.94	1277.93
376.15	1298.41
376.36	1300.46
376.57	1265.64
376.78	1245.16
376.99	1277.93
377.20	1312.75
377.40	1325.04
377.61	1220.59
377.82	1279.98
378.03	1273.84
378.24	1251.31
378.45	1212.40
378.66	1224.69
378.87	1282.03
379.08	1300.46
379.29	1253.36
379.50	1292.27
379.71	1275.88
379.91	1279.98
380.12	1294.32
380.33	1193.97
380.54	1234.93
380.75	1288.17
380.96	1247.21
381.17	1333.23
381.38	1273.84
381.59	1294.32
381.80	1282.03
382.00	1296.36
382.21	1243.12
382.42	1300.46
382.63	1300.46
382.84	1296.36
383.05	1239.02
383.26	1310.70
383.47	1294.32
383.68	1314.80
383.88	1284.08
384.09	1243.12
384.30	1318.89
384.51	1245.16
384.72	1247.21
384.93	1255.40
385.14	1282.03
385.35	1279.98
385.55	1257.45
385.76	1288.17
385.97	1277.93
386.18	1239.02
386.39	1257.45
386.60	1251.31
386.81	1277.93
387.02	1300.46
387.22	1267.69
387.43	1271.79
387.64	1271.79
387.85	1277.93
388.06	1263.60
388.27	1259.50
388.48	1263.60
388.68	1255.40
388.89	1294.32
389.10	1304.56
389.31	1214.45
389.52	1263.60
389.73	1296.36
389.93	1243.12
390.14	1261.55
390.35	1341.42
390.56	1284.08
390.77	1204.21
390.98	1241.07
391.18	1282.03
391.39	1220.59
391.60	1306.60
391.81	1236.97
392.02	1306.60
392.23	1277.93
392.43	1273.84
392.64	1247.21
392.85	1277.93
393.06	1185.77
393.27	1193.97
393.47	1265.64
393.68	1271.79
393.89	1314.80
394.10	1247.21
394.31	1255.40
394.52	1263.60
394.72	1230.83
394.93	1304.56
395.14	1249.26
395.35	1210.35
395.56	1263.60
395.76	1241.07
395.97	1286.12
396.18	1322.99
396.39	1212.40
396.60	1249.26
396.80	1224.69
397.01	1267.69
397.22	1341.42
397.43	1298.41
397.64	1239.02
397.84	1304.56
398.05	1277.93
398.26	1314.80
398.47	1159.15
398.67	1312.75
398.88	1288.17
399.09	1239.02
399.30	1189.87
399.51	1322.99
399.71	1179.63
399.92	1257.45
400.13	1277.93
400.34	1267.69
400.54	1198.06
400.75	1247.21
400.96	1290.22
401.17	1232.88
401.37	1224.69
401.58	1263.60
401.79	1224.69
402.00	1267.69
402.21	1243.12
402.41	1277.93
402.62	1282.03
402.83	1228.78
403.04	1308.65
403.24	1187.82
403.45	1273.84
403.66	1239.02
403.87	1234.93
404.07	1275.88
404.28	1253.36
404.49	1345.52
404.70	1249.26
404.90	1306.60
405.11	1359.85
405.32	1261.55
405.52	1269.74
405.73	1273.84
405.94	1290.22
406.15	1282.03
406.35	1300.46
406.56	1314.80
406.77	1265.64
406.98	1318.89
407.18	1290.22
407.39	1220.59
407.60	1290.22
407.80	1220.59
408.01	1236.97
408.22	1247.21
408.43	1187.82
408.63	1343.47
408.84	1273.84
409.05	1247.21
409.25	1331.18
409.46	1282.03
409.67	1349.61
409.88	1329.13
410.08	1306.60
410.29	1216.49
410.50	1269.74
410.70	1286.12
410.91	1322.99
411.12	1232.88
411.32	1241.07
411.53	1298.41
411.74	1277.93
411.95	1232.88
412.15	1284.08
412.36	1261.55
412.57	1271.79
412.77	1282.03
412.98	1269.74
413.19	1282.03
413.39	1265.64
413.60	1228.78
413.81	1230.83
414.01	1259.50
414.22	1210.35
414.43	1257.45
414.63	1253.36
414.84	1224.69
415.05	1204.21
415.25	1245.16
415.46	1310.70
415.67	1282.03
415.87	1298.41
416.08	1294.32
416.29	1333.23
416.49	1136.62
416.70	1191.92
416.91	1259.50
417.11	1232.88
417.32	1171.44
417.53	1175.53
417.73	1261.55
417.94	1279.98
418.15	1302.51
418.35	1294.32
418.56	1249.26
418.77	1277.93
418.97	1224.69
419.18	1298.41
419.38	1226.73
419.59	1228.78
419.80	1310.70
420.00	1222.64
420.21	1294.32
420.42	1243.12
420.62	1314.80
420.83	1257.45
421.04	1255.40
421.24	1218.54
421.45	1353.71
421.65	1290.22
421.86	1361.90
422.07	1343.47
422.27	1187.82
422.48	1337.32
422.69	1255.40
422.89	1196.01
423.10	1239.02
423.30	1322.99
423.51	1294.32
423.72	1314.80
423.92	1261.55
424.13	1275.88
424.33	1239.02
424.54	1275.88
424.75	1251.31
424.95	1298.41
425.16	1265.64
425.36	1228.78
425.57	1243.12
425.78	1292.27
425.98	1222.64
426.19	1261.55
426.39	1304.56
426.60	1267.69
426.81	1232.88
427.01	1300.46
427.22	1298.41
427.42	1247.21
427.63	1320.94
427.83	1331.18
428.04	1279.98
428.25	1331.18
428.45	1327.08
428.66	1318.89
428.86	1325.04
429.07	1279.98
429.28	1298.41
429.48	1267.69
429.69	1318.89
429.89	1236.97
430.10	1253.36
430.30	1273.84
430.51	1372.14
430.71	1298.41
430.92	1245.16
431.13	1273.84
431.33	1251.31
431.54	1234.93
431.74	1312.75
431.95	1271.79
432.15	1284.08
432.36	1304.56
432.56	1230.83
432.77	1302.51
432.98	1263.60
433.18	1275.88
433.39	1245.16
433.59	1226.73
433.80	1263.60
434.00	1249.26
434.21	1228.78
434.41	1210.35
434.62	1251.31
434.82	1261.55
435.03	1224.69
435.23	1279.98
435.44	1279.98
435.64	1234.93
435.85	1320.94
436.06	1290.22
436.26	1249.26
436.47	1320.94
436.67	1247.21
436.88	1298.41
437.08	1298.41
437.29	1265.64
437.49	1304.56
437.70	1308.65
437.90	1310.70
438.11	1298.41
438.31	1191.92
438.52	1247.21
438.72	1257.45
438.93	1279.98
439.13	1312.75
439.34	1306.60
439.54	1265.64
439.75	1265.64
439.95	1273.84
440.16	1236.97
440.36	1263.60
440.57	1275.88
440.77	1243.12
440.98	1296.36
441.18	1282.03
441.39	1314.80
441.59	1159.15
441.80	1269.74
442.00	1265.64
442.21	1224.69
442.41	1349.61
442.62	1236.97
442.82	1402.86
443.02	1292.27
443.23	1277.93
443.43	1288.17
443.64	1269.74
443.84	1236.97
444.05	1345.52
444.25	1222.64
444.46	1267.69
444.66	1372.14
444.87	1298.41
445.07	1259.50
445.28	1236.97
445.48	1245.16
445.69	1224.69
445.89	1224.69
446.09	1253.36
446.30	1179.63
446.50	1277.93
446.71	1286.12
446.91	1271.79
447.12	1279.98
447.32	1263.60
447.53	1247.21
447.73	1290.22
447.93	1275.88
448.14	1337.32
448.34	1196.01
448.55	1241.07
448.75	1353.71
448.96	1187.82
449.16	1236.97
449.36	1337.32
449.57	1239.02
449.77	1296.36
449.98	1290.22
450.18	1294.32
450.39	1200.11
450.59	1279.98
450.79	1322.99
451.00	1277.93
451.20	1288.17
451.41	1312.75
451.61	1234.93
451.81	1290.22
452.02	1296.36
452.22	1279.98
452.43	1228.78
452.63	1296.36
452.84	1316.84
453.04	1271.79
453.24	1273.84
453.45	1247.21
453.65	1339.37
453.86	1335.28
454.06	1249.26
454.26	1310.70
454.47	1263.60
454.67	1298.41
454.87	1273.84
455.08	1292.27
455.28	1234.93
455.49	1282.03
455.69	1247.21
455.89	1255.40
456.10	1216.49
456.30	1249.26
456.51	1331.18
456.71	1279.98
456.91	1279.98
457.12	1261.55
457.32	1239.02
457.52	1331.18
457.73	1320.94
457.93	1304.56
458.14	1286.12
458.34	1296.36
458.54	1304.56
458.75	1318.89
458.95	1273.84
459.15	1296.36
459.36	1290.22
459.56	1341.42
459.76	1261.55
459.97	1282.03
460.17	1271.79
460.37	1277.93
460.58	1255.40
460.78	1361.90
460.99	1300.46
461.19	1198.06
461.39	1226.73
461.60	1267.69
461.80	1228.78
462.00	1245.16
462.21	1247.21
462.41	1294.32
462.61	1236.97
462.82	1253.36
463.02	1220.59
463.22	1247.21
463.43	1247.21
463.63	1347.56
463.83	1320.94
464.04	1298.41
464.24	1312.75
464.44	1298.41
464.64	1288.17
464.85	1269.74
465.05	1267.69
465.25	1290.22
465.46	1282.03
465.66	1314.80
465.86	1279.98
466.07	1253.36
466.27	1300.46
466.47	1255.40
466.68	1267.69
466.88	1294.32
467.08	1241.07
467.29	1331.18
467.49	1255.40
467.69	1212.40
467.89	1286.12
468.10	1292.27
468.30	1169.39
468.50	1265.64
468.71	1273.84
468.91	1296.36
469.11	1273.84
469.31	1286.12
469.52	1249.26
469.72	1288.17
469.92	1234.93
470.13	1282.03
470.33	1282.03
470.53	1288.17
470.73	1271.79
470.94	1292.27
471.14	1261.55
471.34	1261.55
471.54	1308.65
471.75	1226.73
471.95	1236.97
472.15	1202.16
472.36	1255.40
472.56	1343.47
472.76	1314.80
472.96	1255.40
473.17	1261.55
473.37	1191.92
473.57	1224.69
473.77	1255.40
473.98	1322.99
474.18	1325.04
474.38	1308.65
474.58	1257.45
474.79	1331.18
474.99	1292.27
475.19	1273.84
475.39	1230.83
475.60	1279.98
475.80	1304.56
476.00	1347.56
476.20	1310.70
476.41	1290.22
476.61	1208.30
476.81	1249.26
477.01	1288.17
477.21	1253.36
477.42	1302.51
477.62	1271.79
477.82	1288.17
478.02	1269.74
478.23	1247.21
478.43	1320.94
478.63	1234.93
478.83	1292.27
479.03	1325.04
479.24	1294.32
479.44	1296.36
479.64	1351.66
479.84	1288.17
480.04	1294.32
480.25	1353.71
480.45	1314.80
480.65	1265.64
480.85	1286.12
481.06	1343.47
481.26	1261.55
481.46	1265.64
481.66	1275.88
481.86	1314.80
482.06	1257.45
482.27	1282.03
482.47	1341.42
482.67	1318.89
482.87	1277.93
483.07	1343.47
483.28	1279.98
483.48	1230.83
483.68	1267.69
483.88	1175.53
484.08	1245.16
484.29	1230.83
484.49	1310.70
484.69	1257.45
484.89	1241.07
485.09	1298.41
485.29	1267.69
485.50	1290.22
485.70	1271.79
485.90	1370.09
486.10	1243.12
486.30	1249.26
486.50	1275.88
486.71	1267.69
486.91	1279.98
487.11	1376.24
487.31	1273.84
487.51	1353.71
487.71	1208.30
487.91	1241.07
488.12	1284.08
488.32	1239.02
488.52	1331.18
488.72	1339.37
488.92	1232.88
489.12	1308.65
489.32	1308.65
489.53	1267.69
489.73	1318.89
489.93	1286.12
490.13	1196.01
490.33	1216.49
490.53	1261.55
490.73	1282.03
490.94	1325.04
491.14	1322.99
491.34	1282.03
491.54	1314.80
491.74	1261.55
491.94	1277.93
492.14	1232.88
492.34	1282.03
492.54	1286.12
492.75	1284.08
492.95	1320.94
493.15	1282.03
493.35	1284.08
493.55	1279.98
493.75	1273.84
493.95	1310.70
494.15	1294.32
494.35	1320.94
494.56	1245.16
494.76	1239.02
494.96	1261.55
495.16	1206.25
495.36	1294.32
495.56	1284.08
495.76	1249.26
495.96	1236.97
496.16	1343.47
496.36	1230.83
496.56	1218.54
496.77	1251.31
496.97	1296.36
497.17	1191.92
497.37	1284.08
497.57	1296.36
497.77	1251.31
497.97	1300.46
498.17	1257.45
498.37	1327.08
498.57	1277.93
498.77	1288.17
498.97	1251.31
499.17	1322.99
499.38	1294.32
499.58	1273.84
499.78	1298.41
499.98	1314.80
500.18	1296.36
500.38	1247.21
500.58	1277.93
500.78	1333.23
500.98	1241.07
501.18	1286.12
501.38	1277.93
501.58	1255.40
501.78	1236.97
501.98	1273.84
502.18	1300.46
502.38	1331.18
502.58	1327.08
502.78	1255.40
502.98	1363.95
503.18	1273.84
503.38	1286.12
503.59	1265.64
503.79	1230.83
503.99	1298.41
504.19	1304.56
504.39	1298.41
504.59	1310.70
504.79	1208.30
504.99	1255.40
505.19	1288.17
505.39	1284.08
505.59	1288.17
505.79	1230.83
505.99	1224.69
506.19	1257.45
506.39	1322.99
506.59	1253.36
506.79	1265.64
506.99	1243.12
507.19	1339.37
507.39	1259.50
507.59	1333.23
507.79	1284.08
507.99	1273.84
508.19	1304.56
508.39	1257.45
508.59	1273.84
508.79	1259.50
508.99	1181.68
509.19	1257.45
509.39	1294.32
509.59	1298.41
509.79	1282.03
509.99	1349.61
510.19	1273.84
510.39	1255.40
510.59	1222.64
510.79	1300.46
510.99	1253.36
511.19	1251.31
511.39	1267.69
511.59	1277.93
511.79	1243.12
511.99	1288.17
512.19	1349.61
512.38	1294.32
512.58	1306.60
512.78	1306.60
512.98	1216.49
513.18	1320.94
513.38	1308.65
513.58	1302.51
513.78	1249.26
513.98	1337.32
514.18	1329.13
514.38	1298.41
514.58	1269.74
514.78	1300.46
514.98	1251.31
515.18	1204.21
515.38	1347.56
515.58	1333.23
515.78	1333.23
515.98	1294.32
516.18	1304.56
516.38	1247.21
516.57	1298.41
516.77	1284.08
516.97	1310.70
517.17	1282.03
517.37	1320.94
517.57	1292.27
517.77	1234.93
517.97	1296.36
518.17	1316.84
518.37	1273.84
518.57	1335.28
518.77	1316.84
518.97	1236.97
519.16	1355.76
519.36	1277.93
519.56	1261.55
519.76	1294.32
519.96	1339.37
520.16	1208.30
520.36	1345.52
520.56	1306.60
520.76	1241.07
520.96	1216.49
521.16	1333.23
521.35	1271.79
521.55	1327.08
521.75	1333.23
521.95	1191.92
522.15	1312.75
522.35	1253.36
522.55	1251.31
522.75	1239.02
522.95	1220.59
523.14	1241.07
523.34	1220.59
523.54	1290.22
523.74	1267.69
523.94	1269.74
524.14	1222.64
524.34	1310.70
524.54	1275.88
524.73	1271.79
524.93	1255.40
525.13	1263.60
525.33	1296.36
525.53	1255.40
525.73	1292.27
525.93	1269.74
526.13	1271.79
526.32	1316.84
526.52	1322.99
526.72	1370.09
526.92	1279.98
527.12	1271.79
527.32	1249.26
527.52	1273.84
527.71	1304.56
527.91	1308.65
528.11	1298.41
528.31	1261.55
528.51	1273.84
528.71	1247.21
528.90	1271.79
529.10	1355.76
529.30	1294.32
529.50	1234.93
529.70	1331.18
529.90	1275.88
530.09	1337.32
530.29	1271.79
530.49	1259.50
530.69	1314.80
530.89	1294.32
531.09	1257.45
531.28	1273.84
531.48	1265.64
531.68	1269.74
531.88	1302.51
532.08	1261.55
532.28	1206.25
532.47	1263.60
532.67	1271.79
532.87	1279.98
533.07	1325.04
533.27	1273.84
533.46	1267.69
533.66	1292.27
533.86	1249.26
534.06	1204.21
534.26	1277.93
534.45	1290.22
534.65	1294.32
534.85	1243.12
535.05	1331.18
535.25	1304.56
535.44	1298.41
535.64	1245.16
535.84	1245.16
536.04	1210.35
536.24	1267.69
536.43	1298.41
536.63	1304.56
536.83	1245.16
537.03	1290.22
537.22	1257.45
537.42	1279.98
537.62	1322.99
537.82	1306.60
538.02	1265.64
538.21	1288.17
538.41	1302.51
538.61	1314.80
538.81	1296.36
539.00	1304.56
539.20	1320.94
539.40	1288.17
539.60	1226.73
539.79	1329.13
539.99	1302.51
540.19	1376.24
540.39	1279.98
540.58	1372.14
540.78	1269.74
540.98	1290.22
541.18	1263.60
541.37	1310.70
541.57	1288.17
541.77	1273.84
541.97	1331.18
542.16	1243.12
542.36	1331.18
542.56	1279.98
542.76	1271.79
542.95	1298.41
543.15	1267.69
543.35	1282.03
543.54	1251.31
543.74	1277.93
543.94	1275.88
544.14	1345.52
544.33	1255.40
544.53	1265.64
544.73	1189.87
544.93	1228.78
545.12	1222.64
545.32	1298.41
545.52	1253.36
545.71	1200.11
545.91	1255.40
546.11	1224.69
546.30	1214.45
546.50	1296.36
546.70	1257.45
546.90	1253.36
547.09	1286.12
547.29	1308.65
547.49	1298.41
547.68	1273.84
547.88	1286.12
548.08	1275.88
548.27	1302.51
548.47	1306.60
548.67	1304.56
548.87	1265.64
549.06	1239.02
549.26	1271.79
549.46	1316.84
549.65	1218.54
549.85	1212.40
550.05	1308.65
550.24	1318.89
550.44	1267.69
550.64	1331.18
550.83	1298.41
551.03	1249.26
551.23	1320.94
551.42	1329.13
551.62	1263.60
551.82	1314.80
552.01	1284.08
552.21	1228.78
552.41	1286.12
552.60	1318.89
552.80	1286.12
553.00	1275.88
553.19	1249.26
553.39	1269.74
553.59	1284.08
553.78	1230.83
553.98	1355.76
554.17	1327.08
554.37	1327.08
554.57	1310.70
554.76	1261.55
554.96	1282.03
555.16	1200.11
555.35	1249.26
555.55	1316.84
555.75	1290.22
555.94	1288.17
556.14	1257.45
556.33	1255.40
556.53	1236.97
556.73	1273.84
556.92	1277.93
557.12	1304.56
557.32	1312.75
557.51	1290.22
557.71	1290.22
557.90	1284.08
558.10	1232.88
558.30	1306.60
558.49	1245.16
558.69	1261.55
558.88	1296.36
559.08	1271.79
559.28	1208.30
559.47	1302.51
559.67	1294.32
559.86	1230.83
560.06	1236.97
560.26	1322.99
560.45	1269.74
560.65	1292.27
560.84	1167.34
561.04	1345.52
561.24	1282.03
561.43	1245.16
561.63	1265.64
561.82	1286.12
562.02	1282.03
562.22	1294.32
562.41	1247.21
562.61	1277.93
562.80	1290.22
563.00	1226.73
563.19	1269.74
563.39	1294.32
563.59	1257.45
563.78	1273.84
563.98	1292.27
564.17	1347.56
564.37	1243.12
564.56	1284.08
564.76	1247.21
564.96	1269.74
565.15	1269.74
565.35	1351.66
565.54	1275.88
565.74	1241.07
565.93	1230.83
566.13	1284.08
566.32	1318.89
566.52	1273.84
566.71	1277.93
566.91	1335.28
567.11	1271.79
567.30	1259.50
567.50	1239.02
567.69	1390.57
567.89	1286.12
568.08	1259.50
568.28	1286.12
568.47	1241.07
568.67	1333.23
568.86	1185.77
569.06	1249.26
569.25	1193.97
569.45	1329.13
569.64	1298.41
569.84	1300.46
570.04	1284.08
570.23	1288.17
570.43	1320.94
570.62	1253.36
570.82	1245.16
571.01	1314.80
571.21	1251.31
571.40	1251.31
571.60	1294.32
571.79	1296.36
571.99	1314.80
572.18	1357.80
572.38	1292.27
572.57	1226.73
572.77	1236.97
572.96	1361.90
573.16	1241.07
573.35	1298.41
573.55	1294.32
573.74	1265.64
573.94	1236.97
574.13	1275.88
574.33	1316.84
574.52	1404.91
574.71	1294.32
574.91	1261.55
575.10	1279.98
575.30	1294.32
575.49	1232.88
575.69	1296.36
575.88	1189.87
576.08	1245.16
576.27	1261.55
576.47	1275.88
576.66	1257.45
576.86	1243.12
577.05	1312.75
577.25	1277.93
577.44	1239.02
577.64	1322.99
577.83	1224.69
578.02	1150.96
578.22	1259.50
578.41	1204.21
578.61	1275.88
578.80	1212.40
579.00	1277.93
579.19	1347.56
579.39	1300.46
579.58	1257.45
579.77	1271.79
579.97	1353.71
580.16	1282.03
580.36	1253.36
580.55	1245.16
580.75	1251.31
580.94	1263.60
581.13	1322.99
581.33	1271.79
581.52	1316.84
581.72	1277.93
581.91	1236.97
582.11	1255.40
582.30	1300.46
582.49	1249.26
582.69	1322.99
582.88	1247.21
583.08	1282.03
583.27	1253.36
583.47	1183.73
583.66	1302.51
583.85	1288.17
584.05	1286.12
584.24	1310.70
584.44	1239.02
584.63	1296.36
584.82	1255.40
585.02	1228.78
585.21	1353.71
585.41	1267.69
585.60	1220.59
585.79	1228.78
585.99	1175.53
586.18	1294.32
586.37	1265.64
586.57	1198.06
586.76	1279.98
586.96	1288.17
587.15	1320.94
587.34	1275.88
587.54	1271.79
587.73	1226.73
587.93	1312.75
588.12	1282.03
588.31	1316.84
588.51	1171.44
588.70	1273.84
588.89	1312.75
589.09	1329.13
589.28	1279.98
589.47	1259.50
589.67	1279.98
589.86	1284.08
590.06	1298.41
590.25	1370.09
590.44	1261.55
590.64	1286.12
590.83	1286.12
591.02	1218.54
591.22	1298.41
591.41	1261.55
591.60	1239.02
591.80	1359.85
591.99	1253.36
592.18	1200.11
592.38	1253.36
592.57	1286.12
592.76	1302.51
592.96	1275.88
593.15	1298.41
593.34	1265.64
593.54	1298.41
593.73	1279.98
593.92	1275.88
594.12	1265.64
594.31	1277.93
594.50	1273.84
594.70	1261.55
594.89	1366.00
595.08	1269.74
595.28	1304.56
595.47	1314.80
595.66	1290.22
595.86	1259.50
596.05	1325.04
596.24	1261.55
596.43	1282.03
596.63	1239.02
596.82	1265.64
597.01	1230.83
597.21	1288.17
597.40	1236.97
597.59	1292.27
597.79	1316.84
597.98	1224.69
598.17	1241.07
598.36	1339.37
598.56	1316.84
598.75	1275.88
598.94	1337.32
599.14	1312.75
599.33	1290.22
599.52	1327.08
599.71	1245.16
599.91	1300.46
600.10	1265.64
600.29	1269.74
600.48	1355.76
600.68	1320.94
600.87	1271.79
601.06	1290.22
601.26	1222.64
601.45	1339.37
601.64	1214.45
601.83	1329.13
602.03	1308.65
602.22	1273.84
602.41	1271.79
602.60	1302.51
602.80	1290.22
602.99	1306.60
603.18	1306.60
603.37	1282.03
603.57	1282.03
603.76	1230.83
603.95	1189.87
604.14	1273.84
604.34	1239.02
604.53	1249.26
604.72	1343.47
604.91	1306.60
605.10	1300.46
605.30	1247.21
605.49	1304.56
605.68	1261.55
605.87	1249.26
606.07	1294.32
606.26	1251.31
606.45	1310.70
606.64	1236.97
606.84	1282.03
607.03	1284.08
607.22	1288.17
607.41	1273.84
607.60	1345.52
607.80	1316.84
607.99	1253.36
608.18	1300.46
608.37	1277.93
608.56	1239.02
608.76	1296.36
608.95	1282.03
609.14	1271.79
609.33	1284.08
609.52	1325.04
609.72	1265.64
609.91	1294.32
610.10	1294.32
610.29	1255.40
610.48	1216.49
610.68	1322.99
610.87	1220.59
611.06	1329.13
611.25	1320.94
611.44	1200.11
611.63	1320.94
611.83	1294.32
612.02	1259.50
612.21	1316.84
612.40	1259.50
612.59	1286.12
612.79	1267.69
612.98	1329.13
613.17	1239.02
613.36	1314.80
613.55	1308.65
613.74	1331.18
613.93	1286.12
614.13	1257.45
614.32	1282.03
614.51	1196.01
614.70	1230.83
614.89	1273.84
615.08	1265.64
615.28	1308.65
615.47	1224.69
615.66	1343.47
615.85	1353.71
616.04	1314.80
616.23	1300.46
616.42	1263.60
616.62	1306.60
616.81	1196.01
617.00	1269.74
617.19	1304.56
617.38	1318.89
617.57	1331.18
617.76	1232.88
617.95	1298.41
618.15	1167.34
618.34	1318.89
618.53	1253.36
618.72	1282.03
618.91	1290.22
619.10	1347.56
619.29	1255.40
619.48	1306.60
619.68	1318.89
619.87	1257.45
620.06	1222.64
620.25	1296.36
620.44	1355.76
620.63	1316.84
620.82	1279.98
621.01	1269.74
621.20	1382.38
621.39	1318.89
621.59	1277.93
621.78	1224.69
621.97	1290.22
622.16	1294.32
622.35	1273.84
622.54	1298.41
622.73	1282.03
622.92	1255.40
623.11	1316.84
623.30	1310.70
623.49	1234.93
623.68	1298.41
623.88	1359.85
624.07	1318.89
624.26	1257.45
624.45	1300.46
624.64	1298.41
624.83	1249.26
625.02	1382.38
625.21	1265.64
625.40	1333.23
625.59	1259.50
625.78	1351.66
625.97	1355.76
626.16	1236.97
626.35	1329.13
626.54	1261.55
626.74	1347.56
626.93	1286.12
627.12	1267.69
627.31	1267.69
627.50	1314.80
627.69	1249.26
627.88	1245.16
628.07	1312.75
628.26	1290.22
628.45	1325.04
628.64	1277.93
628.83	1312.75
629.02	1370.09
629.21	1343.47
629.40	1273.84
629.59	1355.76
629.78	1304.56
629.97	1333.23
630.16	1257.45
630.35	1259.50
630.54	1355.76
630.73	1388.52
630.92	1304.56
631.11	1286.12
631.30	1331.18
631.49	1339.37
631.68	1361.90
631.87	1474.54
632.06	1478.63
632.25	1363.95
632.44	1486.83
632.63	1388.52
632.82	1386.47
633.01	1449.96
633.20	1429.48
633.39	1503.21
633.58	1390.57
633.77	1386.47
633.96	1474.54
634.15	1443.82
634.34	1431.53
634.53	1368.04
634.72	1445.87
634.91	1476.59
635.10	1454.06
635.29	1460.20
635.48	1488.87
635.67	1460.20
635.86	1427.43
636.05	1435.63
636.24	1441.77
636.43	1353.71
636.62	1417.19
636.81	1372.14
637.00	1386.47
637.19	1409.00
637.38	1382.38
637.57	1374.19
637.76	1353.71
637.95	1374.19
638.14	1402.86
638.33	1261.55
638.52	1335.28
638.71	1210.35
638.89	1304.56
639.08	1388.52
639.27	1265.64
639.46	1294.32
639.65	1257.45
639.84	1247.21
640.03	1239.02
640.22	1327.08
640.41	1308.65
640.60	1234.93
640.79	1314.80
640.98	1234.93
641.17	1282.03
641.36	1333.23
641.55	1292.27
641.74	1271.79
641.92	1222.64
642.11	1277.93
642.30	1308.65
642.49	1216.49
642.68	1363.95
642.87	1296.36
643.06	1376.24
643.25	1353.71
643.44	1247.21
643.63	1284.08
643.82	1265.64
644.00	1220.59
644.19	1349.61
644.38	1273.84
644.57	1259.50
644.76	1216.49
644.95	1335.28
645.14	1294.32
645.33	1361.90
645.52	1310.70
645.71	1343.47
645.89	1279.98
646.08	1232.88
646.27	1165.29
646.46	1288.17
646.65	1204.21
646.84	1288.17
647.03	1363.95
647.22	1306.60
647.40	1296.36
647.59	1269.74
647.78	1230.83
647.97	1232.88
648.16	1216.49
648.35	1253.36
648.54	1261.55
648.73	1273.84
648.91	1249.26
649.10	1296.36
649.29	1314.80
649.48	1247.21
649.67	1173.49
649.86	1273.84
650.05	1359.85
650.23	1296.36
650.42	1300.46
650.61	1275.88
650.80	1298.41
650.99	1363.95
651.18	1208.30
651.36	1359.85
651.55	1247.21
651.74	1288.17
651.93	1265.64
652.12	1265.64
652.31	1255.40
652.49	1320.94
652.68	1245.16
652.87	1304.56
653.06	1296.36
653.25	1284.08
653.44	1257.45
653.62	1376.24
653.81	1294.32
654.00	1302.51
654.19	1239.02
654.38	1329.13
654.56	1296.36
654.75	1220.59
654.94	1253.36
655.13	1265.64
655.32	1294.32
655.51	1300.46
655.69	1224.69
655.88	1296.36
656.07	1212.40
656.26	1269.74
656.45	1224.69
656.63	1259.50
656.82	1228.78
657.01	1312.75
657.20	1255.40
657.38	1228.78
657.57	1196.01
657.76	1294.32
657.95	1273.84
658.14	1257.45
658.32	1220.59
658.51	1277.93
658.70	1333.23
658.89	1329.13
659.08	1265.64
659.26	1286.12
659.45	1234.93
659.64	1302.51
659.83	1243.12
660.01	1316.84
660.20	1265.64
660.39	1341.42
660.58	1304.56
660.76	1347.56
660.95	1243.12
661.14	1325.04
661.33	1273.84
661.51	1247.21
661.70	1275.88
661.89	1259.50
662.08	1298.41
662.26	1236.97
662.45	1333.23
662.64	1220.59
662.83	1255.40
663.01	1226.73
663.20	1208.30
663.39	1329.13
663.58	1230.83
663.76	1286.12
663.95	1296.36
664.14	1265.64
664.32	1290.22
664.51	1183.73
664.70	1282.03
664.89	1204.21
665.07	1253.36
665.26	1241.07
665.45	1263.60
665.64	1304.56
665.82	1251.31
666.01	1298.41
666.20	1193.97
666.38	1206.25
666.57	1232.88
666.76	1232.88
666.95	1253.36
667.13	1312.75
667.32	1273.84
667.51	1329.13
667.69	1341.42
667.88	1277.93
668.07	1349.61
668.25	1277.93
668.44	1265.64
668.63	1253.36
668.81	1251.31
669.00	1196.01
669.19	1316.84
669.38	1253.36
669.56	1243.12
669.75	1255.40
669.94	1241.07
670.12	1271.79
670.31	1269.74
670.50	1243.12
670.68	1286.12
670.87	1171.44
671.06	1234.93
671.24	1273.84
671.43	1269.74
671.62	1247.21
671.80	1298.41
671.99	1335.28
672.18	1271.79
672.36	1251.31
672.55	1249.26
672.74	1282.03
672.92	1339.37
673.11	1284.08
673.29	1288.17
673.48	1257.45
673.67	1335.28
673.85	1271.79
674.04	1193.97
674.23	1275.88
674.41	1257.45
674.60	1253.36
674.79	1253.36
674.97	1290.22
675.16	1335.28
675.34	1308.65
675.53	1308.65
675.72	1331.18
675.90	1255.40
676.09	1257.45
676.28	1275.88
676.46	1298.41
676.65	1312.75
676.83	1271.79
677.02	1267.69
677.21	1292.27
677.39	1249.26
677.58	1216.49
677.77	1236.97
677.95	1277.93
678.14	1241.07
678.32	1279.98
678.51	1245.16
678.70	1200.11
678.88	1271.79
679.07	1335.28
679.25	1247.21
679.44	1253.36
679.63	1296.36
679.81	1318.89
680.00	1304.56
680.18	1306.60
680.37	1232.88
680.55	1179.63
680.74	1314.80
680.93	1265.64
681.11	1206.25
681.30	1292.27
681.48	1286.12
681.67	1245.16
681.85	1241.07
682.04	1310.70
682.23	1294.32
682.41	1251.31
682.60	1198.06
682.78	1208.30
682.97	1265.64
683.15	1290.22
683.34	1265.64
683.53	1322.99
683.71	1294.32
683.90	1232.88
684.08	1220.59
684.27	1308.65
684.45	1232.88
684.64	1331.18
684.82	1288.17
685.01	1253.36
685.19	1335.28
685.38	1202.16
685.57	1228.78
685.75	1343.47
685.94	1236.97
686.12	1239.02
686.31	1236.97
686.49	1277.93
686.68	1228.78
686.86	1255.40
687.05	1298.41
687.23	1292.27
687.42	1214.45
687.60	1269.74
687.79	1222.64
687.97	1277.93
688.16	1236.97
688.34	1273.84
688.53	1267.69
688.71	1210.35
688.90	1284.08
689.08	1284.08
689.27	1318.89
689.45	1316.84
689.64	1251.31
689.82	1222.64
690.01	1263.60
690.19	1310.70
690.38	1282.03
690.56	1236.97
690.75	1214.45
690.93	1308.65
691.12	1286.12
691.30	1265.64
691.49	1306.60
691.67	1294.32
691.86	1292.27
692.04	1357.80
692.23	1273.84
692.41	1255.40
692.60	1247.21
692.78	1218.54
692.97	1259.50
693.15	1343.47
693.34	1249.26
693.52	1273.84
693.71	1251.31
693.89	1271.79
694.08	1269.74
694.26	1298.41
694.44	1308.65
694.63	1296.36
694.81	1255.40
695.00	1279.98
695.18	1208.30
695.37	1267.69
695.55	1257.45
695.74	1228.78
695.92	1239.02
696.10	1279.98
696.29	1267.69
696.47	1277.93
696.66	1263.60
696.84	1243.12
697.03	1241.07
697.21	1247.21
697.40	1322.99
697.58	1247.21
697.76	1288.17
697.95	1310.70
698.13	1316.84
698.32	1286.12
698.50	1189.87
698.68	1251.31
698.87	1312.75
699.05	1290.22
699.24	1226.73
699.42	1310.70
699.61	1288.17
699.79	1290.22
699.97	1218.54
700.16	1347.56
700.34	1214.45
700.53	1263.60
700.71	1267.69
700.89	1216.49
701.08	1294.32
701.26	1204.21
701.45	1286.12
701.63	1226.73
701.81	1343.47
702.00	1204.21
702.18	1234.93
702.37	1226.73
702.55	1288.17
702.73	1249.26
702.92	1255.40
703.10	1271.79
703.28	1386.47
703.47	1339.37
703.65	1314.80
703.84	1279.98
704.02	1261.55
704.20	1228.78
704.39	1265.64
704.57	1255.40
704.75	1271.79
704.94	1241.07
705.12	1255.40
705.30	1193.97
705.49	1259.50
705.67	1312.75
705.86	1312.75
706.04	1345.52
706.22	1224.69
706.41	1273.84
706.59	1191.92
706.77	1271.79
706.96	1294.32
707.14	1232.88
707.32	1306.60
707.51	1339.37
707.69	1271.79
707.87	1286.12
708.06	1345.52
708.24	1232.88
708.42	1232.88
708.61	1302.51
708.79	1220.59
708.97	1253.36
709.16	1271.79
709.34	1247.21
709.52	1261.55
709.71	1302.51
709.89	1261.55
710.07	1216.49
710.26	1271.79
710.44	1279.98
710.62	1259.50
710.80	1288.17
710.99	1216.49
711.17	1232.88
711.35	1267.69
711.54	1292.27
711.72	1257.45
711.90	1267.69
712.09	1239.02
712.27	1259.50
712.45	1239.02
712.63	1173.49
712.82	1226.73
713.00	1245.16
713.18	1288.17
713.37	1306.60
713.55	1271.79
713.73	1198.06
713.91	1273.84
714.10	1331.18
714.28	1245.16
714.46	1269.74
714.65	1263.60
714.83	1282.03
715.01	1277.93
715.19	1269.74
715.38	1273.84
715.56	1284.08
715.74	1284.08
715.92	1191.92
716.11	1331.18
716.29	1234.93
716.47	1212.40
716.65	1310.70
716.84	1251.31
717.02	1273.84
717.20	1259.50
717.38	1263.60
717.57	1257.45
717.75	1288.17
717.93	1308.65
718.11	1230.83
718.30	1259.50
718.48	1320.94
718.66	1269.74
718.84	1175.53
719.03	1279.98
719.21	1279.98
719.39	1314.80
719.57	1255.40
719.75	1347.56
719.94	1261.55
720.12	1249.26
720.30	1243.12
720.48	1232.88
720.67	1255.40
720.85	1249.26
721.03	1288.17
721.21	1282.03
721.39	1239.02
721.58	1298.41
721.76	1189.87
721.94	1222.64
722.12	1298.41
722.30	1265.64
722.49	1257.45
722.67	1177.58
722.85	1290.22
723.03	1218.54
723.21	1255.40
723.40	1232.88
723.58	1298.41
723.76	1222.64
723.94	1216.49
724.12	1255.40
724.30	1204.21
724.49	1308.65
724.67	1288.17
724.85	1259.50
725.03	1226.73
725.21	1265.64
725.40	1282.03
725.58	1282.03
725.76	1341.42
725.94	1265.64
726.12	1288.17
726.30	1241.07
726.49	1265.64
726.67	1200.11
726.85	1222.64
727.03	1337.32
727.21	1290.22
727.39	1247.21
727.57	1273.84
727.76	1261.55
727.94	1236.97
728.12	1155.05
728.30	1253.36
728.48	1290.22
728.66	1257.45
728.84	1234.93
729.03	1300.46
729.21	1257.45
729.39	1243.12
729.57	1284.08
729.75	1251.31
729.93	1296.36
730.11	1275.88
730.30	1282.03
730.48	1302.51
730.66	1210.35
730.84	1380.33
731.02	1204.21
731.20	1269.74
731.38	1222.64
731.56	1226.73
731.74	1325.04
731.93	1294.32
732.11	1288.17
732.29	1271.79
732.47	1249.26
732.65	1259.50
732.83	1284.08
733.01	1259.50
733.19	1251.31
733.37	1279.98
733.56	1243.12
733.74	1279.98
733.92	1208.30
734.10	1277.93
734.28	1189.87
734.46	1273.84
734.64	1296.36
734.82	1337.32
735.00	1261.55
735.18	1265.64
735.36	1212.40
735.54	1257.45
735.73	1251.31
735.91	1247.21
736.09	1310.70
736.27	1265.64
736.45	1314.80
736.63	1298.41
736.81	1257.45
736.99	1292.27
737.17	1288.17
737.35	1275.88
737.53	1282.03
737.71	1210.35
737.89	1294.32
738.07	1271.79
738.25	1247.21
738.43	1247.21
738.61	1284.08
738.80	1271.79
738.98	1296.36
739.16	1290.22
739.34	1265.64
739.52	1304.56
739.70	1257.45
739.88	1312.75
740.06	1320.94
740.24	1302.51
740.42	1236.97
740.60	1284.08
740.78	1253.36
740.96	1288.17
741.14	1271.79
741.32	1318.89
741.50	1325.04
741.68	1265.64
741.86	1206.25
742.04	1325.04
742.22	1259.50
742.40	1284.08
742.58	1271.79
742.76	1380.33
742.94	1308.65
743.12	1294.32
743.30	1263.60
743.48	1236.97
743.66	1277.93
743.84	1318.89
744.02	1247.21
744.20	1394.67
744.38	1243.12
744.56	1312.75
744.74	1292.27
744.92	1167.34
745.10	1279.98
745.28	1286.12
745.46	1277.93
745.64	1273.84
745.82	1228.78
746.00	1302.51
746.18	1298.41
746.36	1255.40
746.54	1282.03
746.72	1273.84
746.90	1306.60
747.08	1271.79
747.26	1320.94
747.44	1329.13
747.62	1261.55
747.80	1222.64
747.98	1245.16
748.15	1265.64
748.33	1325.04
748.51	1279.98
748.69	1310.70
748.87	1335.28
749.05	1208.30
749.23	1298.41
749.41	1255.40
749.59	1296.36
749.77	1251.31
749.95	1241.07
750.13	1255.40
750.31	1361.90
750.49	1341.42
750.67	1241.07
750.85	1304.56
751.03	1273.84
751.20	1230.83
751.38	1189.87
751.56	1257.45
751.74	1253.36
751.92	1292.27
752.10	1239.02
752.28	1236.97
752.46	1284.08
752.64	1212.40
752.82	1271.79
753.00	1300.46
753.18	1275.88
753.35	1251.31
753.53	1271.79
753.71	1282.03
753.89	1329.13
754.07	1261.55
754.25	1222.64
754.43	1159.15
754.61	1306.60
754.79	1378.28
754.97	1286.12
755.14	1273.84
755.32	1249.26
755.50	1236.97
755.68	1226.73
755.86	1259.50
756.04	1193.97
756.22	1251.31
756.40	1308.65
756.57	1298.41
756.75	1310.70
756.93	1304.56
757.11	1257.45
757.29	1290.22
757.47	1269.74
757.65	1263.60
757.82	1290.22
758.00	1232.88
758.18	1359.85
758.36	1341.42
758.54	1265.64
758.72	1300.46
758.90	1204.21
759.07	1185.77
759.25	1306.60
759.43	1279.98
759.61	1286.12
759.79	1300.46
759.97	1204.21
760.15	1253.36
760.32	1298.41
760.50	1279.98
760.68	1241.07
760.86	1279.98
761.04	1273.84
761.22	1320.94
761.39	1290.22
761.57	1210.35
761.75	1290.22
761.93	1232.88
762.11	1243.12
762.28	1265.64
762.46	1302.51
762.64	1265.64
762.82	1265.64
763.00	1333.23
763.18	1316.84
763.35	1316.84
763.53	1306.60
763.71	1314.80
763.89	1292.27
764.07	1308.65
764.24	1300.46
764.42	1279.98
764.60	1263.60
764.78	1239.02
764.96	1198.06
765.13	1363.95
765.31	1288.17
765.49	1269.74
765.67	1249.26
765.84	1234.93
766.02	1259.50
766.20	1306.60
766.38	1191.92
766.56	1277.93
766.73	1214.45
766.91	1216.49
767.09	1300.46
767.27	1175.53
767.44	1284.08
767.62	1189.87
767.80	1239.02
767.98	1243.12
768.15	1261.55
768.33	1183.73
768.51	1286.12
768.69	1212.40
768.87	1247.21
769.04	1263.60
769.22	1273.84
769.40	1218.54
769.58	1218.54
769.75	1273.84
769.93	1253.36
770.11	1204.21
770.28	1322.99
770.46	1234.93
770.64	1232.88
770.82	1308.65
770.99	1288.17
771.17	1222.64
771.35	1288.17
771.53	1239.02
771.70	1222.64
771.88	1320.94
772.06	1290.22
772.23	1230.83
772.41	1290.22
772.59	1318.89
772.77	1318.89
772.94	1277.93
773.12	1314.80
773.30	1253.36
773.47	1318.89
773.65	1275.88
773.83	1282.03
774.01	1314.80
774.18	1220.59
774.36	1230.83
774.54	1257.45
774.71	1218.54
774.89	1279.98
775.07	1314.80
775.24	1296.36
775.42	1218.54
775.60	1255.40
775.78	1243.12
775.95	1302.51
776.13	1245.16
776.31	1320.94
776.48	1234.93
776.66	1261.55
776.84	1249.26
777.01	1296.36
777.19	1226.73
777.37	1226.73
777.54	1275.88
777.72	1249.26
777.90	1300.46
778.07	1269.74
778.25	1236.97
778.43	1335.28
778.60	1263.60
778.78	1259.50
778.96	1288.17
779.13	1259.50
779.31	1236.97
779.49	1230.83
779.66	1279.98
779.84	1253.36
780.01	1236.97
780.19	1255.40
780.37	1265.64
780.54	1279.98
780.72	1314.80
780.90	1296.36
781.07	1288.17
781.25	1232.88
781.43	1249.26
781.60	1288.17
781.78	1271.79
781.95	1267.69
782.13	1259.50
782.31	1273.84
782.48	1255.40
782.66	1183.73
782.83	1230.83
783.01	1271.79
783.19	1294.32
783.36	1216.49
783.54	1230.83
783.72	1296.36
783.89	1269.74
784.07	1222.64
784.24	1269.74
784.42	1263.60
784.60	1216.49
784.77	1320.94
784.95	1355.76
785.12	1265.64
785.30	1263.60
785.47	1290.22
785.65	1322.99
785.83	1245.16
786.00	1267.69
786.18	1316.84
786.35	1325.04
786.53	1263.60
786.71	1273.84
786.88	1239.02
787.06	1284.08
787.23	1282.03
787.41	1257.45
787.58	1329.13
787.76	1249.26
787.94	1261.55
788.11	1255.40
788.29	1265.64
788.46	1228.78
788.64	1271.79
788.81	1255.40
788.99	1320.94
789.16	1204.21
789.34	1271.79
789.52	1206.25
789.69	1247.21
789.87	1273.84
790.04	1363.95
790.22	1261.55
790.39	1337.32
790.57	1277.93
790.74	1253.36
790.92	1277.93
791.09	1255.40
791.27	1204.21
791.44	1247.21
791.62	1316.84
791.79	1286.12
791.97	1206.25
792.15	1290.22
792.32	1298.41
792.50	1271.79
792.67	1279.98
792.85	1241.07
793.02	1273.84
793.20	1282.03
793.37	1241.07
793.55	1226.73
793.72	1308.65
793.90	1310.70
794.07	1294.32
794.25	1263.60
794.42	1220.59
794.60	1288.17
794.77	1286.12
794.95	1196.01
795.12	1234.93
795.30	1306.60
795.47	1259.50
795.65	1269.74
795.82	1216.49
796.00	1271.79
796.17	1200.11
796.34	1290.22
796.52	1316.84
796.69	1308.65
796.87	1300.46
797.04	1249.26
797.22	1255.40
797.39	1249.26
797.57	1269.74
797.74	1327.08
797.92	1206.25
798.09	1292.27
798.27	1275.88
798.44	1265.64
798.62	1200.11
798.79	1259.50
798.96	1273.84
799.14	1267.69
799.31	1320.94
799.49	1329.13
799.66	1271.79
799.84	1325.04
800.01	1329.13
800.19	1298.41
800.36	1245.16
800.53	1216.49
800.71	1279.98
800.88	1298.41
801.06	1216.49
801.23	1327.08
801.41	1234.93
801.58	1261.55
801.75	1247.21
801.93	1310.70
802.10	1312.75
802.28	1312.75
802.45	1290.22
802.63	1288.17
802.80	1300.46
802.97	1304.56
803.15	1310.70
803.32	1320.94
803.50	1224.69
803.67	1228.78
803.84	1273.84
804.02	1249.26
804.19	1257.45
804.37	1263.60
804.54	1247.21
804.71	1273.84
804.89	1279.98
805.06	1298.41
805.24	1279.98
805.41	1282.03
805.58	1284.08
805.76	1271.79
805.93	1228.78
806.10	1273.84
806.28	1271.79
806.45	1193.97
806.63	1275.88
806.80	1253.36
806.97	1284.08
807.15	1222.64
807.32	1230.83
807.49	1361.90
807.67	1239.02
807.84	1247.21
808.01	1228.78
808.19	1263.60
808.36	1279.98
808.54	1167.34
808.71	1288.17
808.88	1296.36
809.06	1216.49
809.23	1277.93
809.40	1251.31
809.58	1279.98
809.75	1279.98
809.92	1312.75
810.10	1378.28
810.27	1275.88
810.44	1275.88
810.62	1275.88
810.79	1212.40
810.96	1226.73
811.14	1265.64
811.31	1286.12
811.48	1267.69
811.66	1265.64
811.83	1331.18
812.00	1265.64
812.18	1292.27
812.35	1239.02
812.52	1318.89
812.69	1361.90
812.87	1306.60
813.04	1226.73
813.21	1302.51
813.39	1269.74
813.56	1347.56
813.73	1331.18
813.91	1284.08
814.08	1257.45
814.25	1327.08
814.42	1224.69
814.60	1189.87
814.77	1300.46
814.94	1255.40
815.12	1212.40
815.29	1296.36
815.46	1218.54
815.63	1288.17
815.81	1255.40
815.98	1189.87
816.15	1312.75
816.33	1288.17
816.50	1245.16
816.67	1222.64
816.84	1159.15
817.02	1224.69
817.19	1288.17
817.36	1273.84
817.53	1239.02
817.71	1294.32
817.88	1161.20
818.05	1243.12
818.22	1298.41
818.40	1259.50
818.57	1243.12
818.74	1234.93
818.91	1241.07
819.09	1247.21
819.26	1243.12
819.43	1263.60
819.60	1325.04
819.78	1300.46
819.95	1228.78
820.12	1230.83
820.29	1232.88
820.47	1255.40
820.64	1249.26
820.81	1265.64
820.98	1296.36
821.15	1230.83
821.33	1220.59
821.50	1263.60
821.67	1353.71
821.84	1212.40
822.02	1279.98
822.19	1353.71
822.36	1230.83
822.53	1265.64
822.70	1288.17
822.88	1218.54
823.05	1288.17
823.22	1320.94
823.39	1245.16
823.56	1310.70
823.74	1282.03
823.91	1251.31
824.08	1288.17
824.25	1269.74
824.42	1329.13
824.60	1196.01
824.77	1273.84
824.94	1265.64
825.11	1253.36
825.28	1329.13
825.45	1284.08
825.63	1294.32
825.80	1310.70
825.97	1218.54
826.14	1329.13
826.31	1308.65
826.48	1224.69
826.66	1310.70
826.83	1220.59
827.00	1304.56
827.17	1247.21
827.34	1282.03
827.51	1265.64
827.69	1189.87
827.86	1245.16
828.03	1228.78
828.20	1296.36
828.37	1263.60
828.54	1290.22
828.71	1282.03
828.89	1292.27
829.06	1335.28
829.23	1279.98
829.40	1290.22
829.57	1259.50
829.74	1282.03
829.91	1259.50
830.09	1245.16
830.26	1265.64
830.43	1196.01
830.60	1273.84
830.77	1241.07
830.94	1257.45
831.11	1232.88
831.28	1257.45
831.46	1275.88
831.63	1306.60
831.80	1212.40
831.97	1249.26
832.14	1204.21
832.31	1298.41
832.48	1345.52
832.65	1222.64
832.82	1232.88
832.99	1314.80
833.17	1200.11
833.34	1226.73
833.51	1279.98
833.68	1286.12
833.85	1308.65
834.02	1341.42
834.19	1230.83
834.36	1212.40
834.53	1257.45
834.70	1271.79
834.87	1263.60
835.04	1269.74
835.22	1191.92
835.39	1224.69
835.56	1216.49
835.73	1261.55
835.90	1277.93
836.07	1312.75
836.24	1361.90
836.41	1185.77
836.58	1290.22
836.75	1216.49
836.92	1267.69
837.09	1198.06
837.26	1236.97
837.43	1253.36
837.60	1216.49
837.77	1241.07
837.94	1239.02
838.12	1265.64
838.29	1255.40
838.46	1286.12
838.63	1257.45
838.80	1353.71
838.97	1257.45
839.14	1206.25
839.31	1218.54
839.48	1232.88
839.65	1261.55
839.82	1331.18
839.99	1349.61
840.16	1265.64
840.33	1241.07
840.50	1298.41
840.67	1306.60
840.84	1226.73
841.01	1302.51
841.18	1290.22
841.35	1271.79
841.52	1298.41
841.69	1218.54
841.86	1243.12
842.03	1300.46
842.20	1339.37
842.37	1298.41
842.54	1255.40
842.71	1290.22
842.88	1279.98
843.05	1193.97
843.22	1282.03
843.39	1222.64
843.56	1292.27
843.73	1320.94
843.90	1316.84
844.07	1208.30
844.24	1222.64
844.41	1247.21
844.58	1216.49
844.75	1247.21
844.92	1327.08
845.09	1249.26
845.26	1245.16
845.43	1286.12
845.60	1249.26
845.77	1239.02
845.94	1216.49
846.10	1275.88
846.27	1257.45
846.44	1302.51
846.61	1263.60
846.78	1218.54
846.95	1331.18
847.12	1288.17
847.29	1277.93
847.46	1251.31
847.63	1378.28
847.80	1243.12
847.97	1253.36
848.14	1288.17
848.31	1279.98
848.48	1257.45
848.65	1222.64
848.82	1185.77
848.98	1327.08
849.15	1279.98
849.32	1302.51
849.49	1267.69
849.66	1245.16
849.83	1204.21
850.00	1296.36
850.17	1275.88
850.34	1308.65
850.51	1290.22
850.68	1347.56
850.85	1286.12
851.01	1263.60
851.18	1263.60
851.35	1294.32
851.52	1292.27
851.69	1302.51
851.86	1226.73
852.03	1216.49
852.20	1234.93
852.37	1306.60
852.53	1284.08
852.70	1210.35
852.87	1265.64
853.04	1236.97
853.21	1271.79
853.38	1294.32
853.55	1273.84
853.72	1279.98
853.89	1224.69
854.05	1318.89
854.22	1230.83
854.39	1288.17
854.56	1335.28
854.73	1271.79
854.90	1302.51
855.07	1290.22
855.23	1277.93
855.40	1224.69
855.57	1347.56
855.74	1277.93
855.91	1228.78
856.08	1259.50
856.25	1263.60
856.41	1296.36
856.58	1304.56
856.75	1269.74
856.92	1349.61
857.09	1308.65
857.26	1247.21
857.42	1206.25
857.59	1230.83
857.76	1345.52
857.93	1306.60
858.10	1282.03
858.27	1288.17
858.43	1298.41
858.60	1290.22
858.77	1208.30
858.94	1290.22
859.11	1277.93
859.27	1257.45
859.44	1163.25
859.61	1304.56
859.78	1228.78
859.95	1216.49
860.12	1216.49
860.28	1275.88
860.45	1316.84
860.62	1230.83
860.79	1273.84
860.95	1222.64
861.12	1263.60
861.29	1218.54
861.46	1239.02
861.63	1304.56
861.79	1267.69
861.96	1222.64
862.13	1320.94
862.30	1286.12
862.47	1255.40
862.63	1304.56
862.80	1255.40
862.97	1253.36
863.14	1279.98
863.30	1304.56
863.47	1259.50
863.64	1267.69
863.81	1251.31
863.97	1288.17
864.14	1263.60
864.31	1273.84
864.48	1249.26
864.65	1331.18
864.81	1257.45
864.98	1335.28
865.15	1302.51
865.32	1290.22
865.48	1263.60
865.65	1253.36
865.82	1265.64
865.98	1282.03
866.15	1292.27
866.32	1220.59
866.49	1222.64
866.65	1232.88
866.82	1167.34
866.99	1275.88
867.16	1253.36
867.32	1226.73
867.49	1294.32
867.66	1263.60
867.83	1245.16
867.99	1333.23
868.16	1370.09
868.33	1275.88
868.49	1196.01
868.66	1255.40
868.83	1302.51
868.99	1282.03
869.16	1372.14
869.33	1282.03
869.50	1249.26
869.66	1257.45
869.83	1327.08
870.00	1288.17
870.16	1241.07
870.33	1290.22
870.50	1277.93
870.66	1261.55
870.83	1335.28
871.00	1257.45
871.17	1265.64
871.33	1273.84
871.50	1193.97
871.67	1263.60
871.83	1236.97
872.00	1226.73
872.17	1241.07
872.33	1312.75
872.50	1300.46
872.67	1243.12
872.83	1288.17
873.00	1243.12
873.17	1212.40
873.33	1294.32
873.50	1265.64
873.67	1310.70
873.83	1257.45
874.00	1210.35
874.16	1249.26
874.33	1261.55
874.50	1279.98
874.66	1273.84
874.83	1288.17
875.00	1273.84
875.16	1351.66
875.33	1206.25
875.50	1253.36
875.66	1228.78
875.83	1320.94
875.99	1257.45
876.16	1284.08
876.33	1251.31
876.49	1290.22
876.66	1218.54
876.83	1292.27
876.99	1277.93
877.16	1263.60
877.32	1212.40
877.49	1316.84
877.66	1210.35
877.82	1232.88
877.99	1265.64
878.15	1290.22
878.32	1282.03
878.49	1298.41
878.65	1265.64
878.82	1298.41
878.98	1234.93
879.15	1322.99
879.32	1288.17
879.48	1269.74
879.65	1308.65
879.81	1210.35
879.98	1267.69
880.15	1241.07
880.31	1314.80
880.48	1224.69
880.64	1304.56
880.81	1325.04
880.97	1322.99
881.14	1286.12
881.31	1277.93
881.47	1245.16
881.64	1261.55
881.80	1257.45
881.97	1175.53
882.13	1247.21
882.30	1282.03
882.47	1292.27
882.63	1216.49
882.80	1288.17
882.96	1253.36
883.13	1318.89
883.29	1261.55
883.46	1275.88
883.62	1271.79
883.79	1251.31
883.95	1222.64
884.12	1298.41
884.29	1294.32
884.45	1247.21
884.62	1239.02
884.78	1277.93
884.95	1214.45
885.11	1322.99
885.28	1292.27
885.44	1247.21
885.61	1202.16
885.77	1304.56
885.94	1210.35
886.10	1312.75
886.27	1251.31
886.43	1277.93
886.60	1216.49
886.76	1259.50
886.93	1290.22
887.09	1339.37
887.26	1269.74
887.42	1298.41
887.59	1265.64
887.75	1241.07
887.92	1247.21
888.08	1282.03
888.25	1263.60
888.41	1245.16
888.58	1288.17
888.74	1239.02
888.91	1261.55
>>>>>End Processed Spectral Data<<<<<
