SpectraSuite Data File
++++++++++++++++++++++++++++++++++++
Date: Sun Apr 03 19:55:35 CEST 2016
User: root
Dark Spectrum Present: No
Reference Spectrum Present: No
Number of Sampled Component Spectra: 1
Spectrometers: USB4C02835
Integration Time (usec): 10000 (USB4C02835)
Spectra Averaged: 1 (USB4C02835)
Boxcar Smoothing: 0 (USB4C02835)
Correct for Electrical Dark: No (USB4C02835)
Strobe/Lamp Enabled: No (USB4C02835)
Correct for Detector Non-linearity: No (USB4C02835)
Correct for Stray Light: No (USB4C02835)
Number of Pixels in Processed Spectrum: 3648
>>>>>Begin Processed Spectral Data<<<<<
177.47	1251.31
177.69	1251.31
177.91	1251.31
178.13	1271.79
178.36	1325.04
178.58	1232.88
178.80	1318.89
179.02	1271.79
179.24	1275.88
179.46	1306.60
179.68	1294.32
179.90	1212.40
180.13	1241.07
180.35	1306.60
180.57	1320.94
180.79	1212.40
181.01	1296.36
181.23	1239.02
181.45	1329.13
181.67	1279.98
181.90	1282.03
182.12	1228.78
182.34	1273.84
182.56	1228.78
182.78	1271.79
183.00	1386.47
183.22	1273.84
183.44	1327.08
183.66	1296.36
183.89	1257.45
184.11	1331.18
184.33	1275.88
184.55	1226.73
184.77	1273.84
184.99	1243.12
185.21	1275.88
185.43	1294.32
185.65	1288.17
185.87	1257.45
186.10	1226.73
186.32	1265.64
186.54	1167.34
186.76	1302.51
186.98	1247.21
187.20	1259.50
187.42	1284.08
187.64	1224.69
187.86	1267.69
188.08	1271.79
188.30	1329.13
188.52	1263.60
188.75	1249.26
188.97	1265.64
189.19	1251.31
189.41	1329.13
189.63	1267.69
189.85	1290.22
190.07	1241.07
190.29	1220.59
190.51	1247.21
190.73	1284.08
190.95	1312.75
191.17	1306.60
191.39	1249.26
191.61	1302.51
191.84	1228.78
192.06	1222.64
192.28	1239.02
192.50	1226.73
192.72	1327.08
192.94	1343.47
193.16	1327.08
193.38	1216.49
193.60	1271.79
193.82	1282.03
194.04	1327.08
194.26	1261.55
194.48	1257.45
194.70	1310.70
194.92	1267.69
195.14	1292.27
195.36	1265.64
195.58	1251.31
195.80	1243.12
196.02	1314.80
196.24	1228.78
196.46	1216.49
196.69	1304.56
196.91	1265.64
197.13	1239.02
197.35	1282.03
197.57	1265.64
197.79	1267.69
198.01	1329.13
198.23	1245.16
198.45	1251.31
198.67	1239.02
198.89	1302.51
199.11	1228.78
199.33	1277.93
199.55	1275.88
199.77	1189.87
199.99	1267.69
200.21	1300.46
200.43	1339.37
200.65	1257.45
200.87	1255.40
201.09	1316.84
201.31	1243.12
201.53	1366.00
201.75	1249.26
201.97	1302.51
202.19	1300.46
202.41	1290.22
202.63	1282.03
202.85	1286.12
203.07	1210.35
203.29	1277.93
203.51	1331.18
203.73	1267.69
203.95	1249.26
204.17	1341.42
204.39	1277.93
204.61	1214.45
204.83	1212.40
205.05	1193.97
205.27	1282.03
205.49	1265.64
205.71	1204.21
205.93	1284.08
206.15	1306.60
206.37	1275.88
206.59	1255.40
206.81	1222.64
207.03	1277.93
207.25	1136.62
207.47	1230.83
207.69	1247.21
207.91	1275.88
208.13	1304.56
208.34	1241.07
208.56	1243.12
208.78	1234.93
209.00	1230.83
209.22	1345.52
209.44	1290.22
209.66	1239.02
209.88	1308.65
210.10	1239.02
210.32	1257.45
210.54	1271.79
210.76	1335.28
210.98	1296.36
211.20	1312.75
211.42	1241.07
211.64	1224.69
211.86	1333.23
212.08	1286.12
212.30	1273.84
212.52	1302.51
212.74	1327.08
212.96	1271.79
213.17	1286.12
213.39	1304.56
213.61	1220.59
213.83	1275.88
214.05	1224.69
214.27	1271.79
214.49	1292.27
214.71	1247.21
214.93	1257.45
215.15	1308.65
215.37	1282.03
215.59	1253.36
215.81	1279.98
216.03	1277.93
216.24	1337.32
216.46	1312.75
216.68	1355.76
216.90	1251.31
217.12	1273.84
217.34	1241.07
217.56	1275.88
217.78	1243.12
218.00	1249.26
218.22	1290.22
218.44	1314.80
218.66	1290.22
218.87	1337.32
219.09	1294.32
219.31	1308.65
219.53	1273.84
219.75	1249.26
219.97	1267.69
220.19	1265.64
220.41	1296.36
220.63	1325.04
220.85	1245.16
221.06	1302.51
221.28	1267.69
221.50	1298.41
221.72	1267.69
221.94	1282.03
222.16	1251.31
222.38	1298.41
222.60	1277.93
222.82	1282.03
223.03	1271.79
223.25	1241.07
223.47	1243.12
223.69	1308.65
223.91	1273.84
224.13	1290.22
224.35	1282.03
224.57	1243.12
224.78	1259.50
225.00	1284.08
225.22	1275.88
225.44	1251.31
225.66	1296.36
225.88	1230.83
226.10	1249.26
226.32	1288.17
226.53	1230.83
226.75	1204.21
226.97	1220.59
227.19	1251.31
227.41	1298.41
227.63	1320.94
227.85	1335.28
228.06	1224.69
228.28	1202.16
228.50	1271.79
228.72	1302.51
228.94	1251.31
229.16	1224.69
229.37	1216.49
229.59	1269.74
229.81	1247.21
230.03	1257.45
230.25	1210.35
230.47	1279.98
230.69	1310.70
230.90	1310.70
231.12	1331.18
231.34	1275.88
231.56	1224.69
231.78	1331.18
232.00	1261.55
232.21	1236.97
232.43	1304.56
232.65	1255.40
232.87	1230.83
233.09	1255.40
233.30	1273.84
233.52	1255.40
233.74	1310.70
233.96	1236.97
234.18	1257.45
234.40	1318.89
234.61	1314.80
234.83	1263.60
235.05	1200.11
235.27	1296.36
235.49	1282.03
235.70	1261.55
235.92	1312.75
236.14	1236.97
236.36	1329.13
236.58	1273.84
236.79	1230.83
237.01	1224.69
237.23	1320.94
237.45	1140.72
237.67	1239.02
237.88	1247.21
238.10	1335.28
238.32	1212.40
238.54	1245.16
238.76	1298.41
238.97	1261.55
239.19	1171.44
239.41	1329.13
239.63	1230.83
239.85	1202.16
240.06	1243.12
240.28	1312.75
240.50	1290.22
240.72	1304.56
240.93	1191.92
241.15	1335.28
241.37	1296.36
241.59	1384.43
241.81	1271.79
242.02	1241.07
242.24	1314.80
242.46	1290.22
242.68	1286.12
242.89	1247.21
243.11	1316.84
243.33	1255.40
243.55	1245.16
243.76	1308.65
243.98	1279.98
244.20	1218.54
244.42	1263.60
244.64	1263.60
244.85	1216.49
245.07	1259.50
245.29	1267.69
245.51	1263.60
245.72	1222.64
245.94	1224.69
246.16	1261.55
246.38	1314.80
246.59	1241.07
246.81	1275.88
247.03	1275.88
247.24	1370.09
247.46	1230.83
247.68	1298.41
247.90	1269.74
248.11	1312.75
248.33	1286.12
248.55	1210.35
248.77	1335.28
248.98	1363.95
249.20	1306.60
249.42	1255.40
249.64	1312.75
249.85	1376.24
250.07	1261.55
250.29	1275.88
250.50	1251.31
250.72	1263.60
250.94	1331.18
251.16	1267.69
251.37	1282.03
251.59	1259.50
251.81	1277.93
252.02	1255.40
252.24	1222.64
252.46	1292.27
252.68	1183.73
252.89	1265.64
253.11	1298.41
253.33	1304.56
253.54	1277.93
253.76	1286.12
253.98	1261.55
254.20	1292.27
254.41	1232.88
254.63	1290.22
254.85	1257.45
255.06	1243.12
255.28	1224.69
255.50	1294.32
255.71	1327.08
255.93	1259.50
256.15	1292.27
256.36	1271.79
256.58	1218.54
256.80	1263.60
257.02	1204.21
257.23	1286.12
257.45	1236.97
257.67	1220.59
257.88	1230.83
258.10	1279.98
258.32	1269.74
258.53	1245.16
258.75	1335.28
258.97	1234.93
259.18	1269.74
259.40	1273.84
259.62	1241.07
259.83	1337.32
260.05	1263.60
260.27	1279.98
260.48	1273.84
260.70	1234.93
260.92	1150.96
261.13	1210.35
261.35	1257.45
261.57	1224.69
261.78	1263.60
262.00	1269.74
262.22	1269.74
262.43	1290.22
262.65	1345.52
262.86	1263.60
263.08	1269.74
263.30	1288.17
263.51	1234.93
263.73	1298.41
263.95	1273.84
264.16	1212.40
264.38	1214.45
264.60	1222.64
264.81	1222.64
265.03	1232.88
265.25	1318.89
265.46	1322.99
265.68	1279.98
265.89	1298.41
266.11	1284.08
266.33	1263.60
266.54	1247.21
266.76	1232.88
266.98	1263.60
267.19	1193.97
267.41	1271.79
267.62	1218.54
267.84	1220.59
268.06	1265.64
268.27	1273.84
268.49	1290.22
268.70	1310.70
268.92	1222.64
269.14	1263.60
269.35	1214.45
269.57	1279.98
269.79	1198.06
270.00	1302.51
270.22	1265.64
270.43	1275.88
270.65	1236.97
270.87	1282.03
271.08	1234.93
271.30	1286.12
271.51	1284.08
271.73	1259.50
271.95	1255.40
272.16	1249.26
272.38	1294.32
272.59	1251.31
272.81	1230.83
273.02	1316.84
273.24	1249.26
273.46	1253.36
273.67	1261.55
273.89	1243.12
274.10	1267.69
274.32	1261.55
274.54	1302.51
274.75	1245.16
274.97	1339.37
275.18	1224.69
275.40	1359.85
275.61	1380.33
275.83	1267.69
276.05	1191.92
276.26	1228.78
276.48	1253.36
276.69	1253.36
276.91	1236.97
277.12	1196.01
277.34	1220.59
277.55	1275.88
277.77	1255.40
277.99	1294.32
278.20	1261.55
278.42	1304.56
278.63	1239.02
278.85	1216.49
279.06	1288.17
279.28	1257.45
279.49	1300.46
279.71	1261.55
279.93	1257.45
280.14	1290.22
280.36	1292.27
280.57	1263.60
280.79	1177.58
281.00	1236.97
281.22	1275.88
281.43	1255.40
281.65	1230.83
281.86	1286.12
282.08	1210.35
282.29	1239.02
282.51	1337.32
282.73	1183.73
282.94	1232.88
283.16	1263.60
283.37	1306.60
283.59	1263.60
283.80	1206.25
284.02	1243.12
284.23	1263.60
284.45	1232.88
284.66	1279.98
284.88	1212.40
285.09	1277.93
285.31	1290.22
285.52	1273.84
285.74	1275.88
285.95	1304.56
286.17	1298.41
286.38	1282.03
286.60	1222.64
286.81	1320.94
287.03	1216.49
287.24	1286.12
287.46	1306.60
287.67	1267.69
287.89	1220.59
288.10	1232.88
288.32	1314.80
288.53	1312.75
288.75	1296.36
288.96	1275.88
289.18	1220.59
289.39	1279.98
289.61	1294.32
289.82	1302.51
290.04	1214.45
290.25	1312.75
290.47	1279.98
290.68	1275.88
290.90	1314.80
291.11	1257.45
291.33	1249.26
291.54	1298.41
291.76	1253.36
291.97	1304.56
292.18	1275.88
292.40	1224.69
292.61	1279.98
292.83	1220.59
293.04	1277.93
293.26	1302.51
293.47	1183.73
293.69	1366.00
293.90	1259.50
294.12	1245.16
294.33	1271.79
294.55	1249.26
294.76	1277.93
294.97	1226.73
295.19	1243.12
295.40	1196.01
295.62	1286.12
295.83	1312.75
296.05	1335.28
296.26	1259.50
296.48	1271.79
296.69	1243.12
296.90	1265.64
297.12	1284.08
297.33	1251.31
297.55	1267.69
297.76	1294.32
297.98	1290.22
298.19	1310.70
298.41	1253.36
298.62	1333.23
298.83	1316.84
299.05	1296.36
299.26	1253.36
299.48	1320.94
299.69	1247.21
299.90	1214.45
300.12	1218.54
300.33	1200.11
300.55	1253.36
300.76	1284.08
300.98	1282.03
301.19	1247.21
301.40	1245.16
301.62	1208.30
301.83	1300.46
302.05	1243.12
302.26	1251.31
302.47	1312.75
302.69	1251.31
302.90	1318.89
303.12	1255.40
303.33	1255.40
303.54	1253.36
303.76	1263.60
303.97	1308.65
304.19	1234.93
304.40	1236.97
304.61	1193.97
304.83	1243.12
305.04	1267.69
305.26	1292.27
305.47	1251.31
305.68	1249.26
305.90	1273.84
306.11	1261.55
306.33	1232.88
306.54	1275.88
306.75	1222.64
306.97	1275.88
307.18	1251.31
307.39	1263.60
307.61	1312.75
307.82	1294.32
308.04	1196.01
308.25	1284.08
308.46	1247.21
308.68	1263.60
308.89	1331.18
309.10	1312.75
309.32	1265.64
309.53	1257.45
309.74	1243.12
309.96	1300.46
310.17	1351.66
310.39	1251.31
310.60	1245.16
310.81	1327.08
311.03	1253.36
311.24	1185.77
311.45	1286.12
311.67	1290.22
311.88	1247.21
312.09	1265.64
312.31	1325.04
312.52	1249.26
312.73	1279.98
312.95	1259.50
313.16	1206.25
313.37	1298.41
313.59	1327.08
313.80	1368.04
314.01	1343.47
314.23	1232.88
314.44	1320.94
314.65	1257.45
314.87	1292.27
315.08	1284.08
315.29	1247.21
315.51	1236.97
315.72	1284.08
315.93	1288.17
316.15	1259.50
316.36	1306.60
316.57	1318.89
316.79	1279.98
317.00	1257.45
317.21	1263.60
317.43	1259.50
317.64	1300.46
317.85	1320.94
318.07	1273.84
318.28	1249.26
318.49	1282.03
318.70	1363.95
318.92	1224.69
319.13	1239.02
319.34	1314.80
319.56	1288.17
319.77	1228.78
319.98	1306.60
320.20	1306.60
320.41	1306.60
320.62	1290.22
320.83	1257.45
321.05	1304.56
321.26	1271.79
321.47	1265.64
321.69	1320.94
321.90	1253.36
322.11	1282.03
322.32	1222.64
322.54	1271.79
322.75	1277.93
322.96	1232.88
323.18	1275.88
323.39	1249.26
323.60	1236.97
323.81	1236.97
324.03	1259.50
324.24	1253.36
324.45	1335.28
324.66	1306.60
324.88	1267.69
325.09	1243.12
325.30	1255.40
325.52	1251.31
325.73	1251.31
325.94	1279.98
326.15	1271.79
326.37	1263.60
326.58	1239.02
326.79	1257.45
327.00	1257.45
327.22	1257.45
327.43	1271.79
327.64	1228.78
327.85	1357.80
328.07	1282.03
328.28	1265.64
328.49	1314.80
328.70	1306.60
328.92	1320.94
329.13	1288.17
329.34	1275.88
329.55	1198.06
329.76	1269.74
329.98	1236.97
330.19	1183.73
330.40	1241.07
330.61	1277.93
330.83	1279.98
331.04	1284.08
331.25	1243.12
331.46	1325.04
331.68	1239.02
331.89	1224.69
332.10	1308.65
332.31	1230.83
332.52	1327.08
332.74	1257.45
332.95	1286.12
333.16	1265.64
333.37	1228.78
333.58	1304.56
333.80	1282.03
334.01	1261.55
334.22	1300.46
334.43	1216.49
334.64	1296.36
334.86	1196.01
335.07	1245.16
335.28	1314.80
335.49	1263.60
335.70	1265.64
335.92	1325.04
336.13	1214.45
336.34	1245.16
336.55	1265.64
336.76	1224.69
336.98	1157.10
337.19	1216.49
337.40	1284.08
337.61	1284.08
337.82	1308.65
338.04	1312.75
338.25	1296.36
338.46	1222.64
338.67	1273.84
338.88	1189.87
339.09	1247.21
339.31	1259.50
339.52	1273.84
339.73	1279.98
339.94	1312.75
340.15	1300.46
340.36	1183.73
340.58	1241.07
340.79	1198.06
341.00	1222.64
341.21	1339.37
341.42	1228.78
341.63	1247.21
341.85	1271.79
342.06	1279.98
342.27	1310.70
342.48	1245.16
342.69	1214.45
342.90	1273.84
343.12	1214.45
343.33	1245.16
343.54	1325.04
343.75	1277.93
343.96	1312.75
344.17	1310.70
344.38	1224.69
344.60	1279.98
344.81	1236.97
345.02	1224.69
345.23	1333.23
345.44	1251.31
345.65	1243.12
345.86	1290.22
346.07	1284.08
346.29	1306.60
346.50	1284.08
346.71	1306.60
346.92	1249.26
347.13	1273.84
347.34	1333.23
347.55	1255.40
347.76	1239.02
347.98	1236.97
348.19	1212.40
348.40	1249.26
348.61	1183.73
348.82	1298.41
349.03	1322.99
349.24	1298.41
349.45	1302.51
349.66	1265.64
349.88	1284.08
350.09	1236.97
350.30	1257.45
350.51	1282.03
350.72	1239.02
350.93	1294.32
351.14	1261.55
351.35	1273.84
351.56	1329.13
351.77	1234.93
351.99	1318.89
352.20	1253.36
352.41	1302.51
352.62	1294.32
352.83	1306.60
353.04	1253.36
353.25	1290.22
353.46	1191.92
353.67	1253.36
353.88	1286.12
354.09	1208.30
354.30	1300.46
354.52	1249.26
354.73	1288.17
354.94	1298.41
355.15	1279.98
355.36	1261.55
355.57	1300.46
355.78	1245.16
355.99	1236.97
356.20	1310.70
356.41	1353.71
356.62	1267.69
356.83	1253.36
357.04	1312.75
357.25	1322.99
357.46	1271.79
357.68	1310.70
357.89	1208.30
358.10	1251.31
358.31	1273.84
358.52	1275.88
358.73	1322.99
358.94	1222.64
359.15	1275.88
359.36	1351.66
359.57	1290.22
359.78	1282.03
359.99	1279.98
360.20	1269.74
360.41	1288.17
360.62	1271.79
360.83	1318.89
361.04	1236.97
361.25	1302.51
361.46	1200.11
361.67	1259.50
361.88	1277.93
362.09	1265.64
362.30	1216.49
362.51	1298.41
362.72	1200.11
362.93	1288.17
363.14	1306.60
363.35	1267.69
363.56	1255.40
363.78	1279.98
363.99	1251.31
364.20	1322.99
364.41	1286.12
364.62	1257.45
364.83	1355.76
365.04	1247.21
365.25	1298.41
365.46	1329.13
365.67	1271.79
365.88	1191.92
366.09	1208.30
366.30	1286.12
366.51	1269.74
366.72	1224.69
366.93	1253.36
367.14	1253.36
367.35	1269.74
367.56	1275.88
367.77	1241.07
367.98	1200.11
368.18	1300.46
368.39	1232.88
368.60	1220.59
368.81	1204.21
369.02	1259.50
369.23	1247.21
369.44	1200.11
369.65	1208.30
369.86	1239.02
370.07	1234.93
370.28	1318.89
370.49	1222.64
370.70	1290.22
370.91	1224.69
371.12	1294.32
371.33	1259.50
371.54	1245.16
371.75	1312.75
371.96	1318.89
372.17	1247.21
372.38	1241.07
372.59	1292.27
372.80	1327.08
373.01	1220.59
373.22	1232.88
373.43	1273.84
373.64	1310.70
373.85	1232.88
374.06	1314.80
374.26	1226.73
374.47	1259.50
374.68	1185.77
374.89	1273.84
375.10	1306.60
375.31	1224.69
375.52	1239.02
375.73	1353.71
375.94	1196.01
376.15	1228.78
376.36	1241.07
376.57	1234.93
376.78	1245.16
376.99	1206.25
377.20	1241.07
377.40	1247.21
377.61	1245.16
377.82	1284.08
378.03	1357.80
378.24	1269.74
378.45	1236.97
378.66	1255.40
378.87	1247.21
379.08	1314.80
379.29	1218.54
379.50	1265.64
379.71	1249.26
379.91	1251.31
380.12	1306.60
380.33	1386.47
380.54	1304.56
380.75	1239.02
380.96	1208.30
381.17	1290.22
381.38	1239.02
381.59	1318.89
381.80	1277.93
382.00	1286.12
382.21	1298.41
382.42	1239.02
382.63	1216.49
382.84	1282.03
383.05	1277.93
383.26	1282.03
383.47	1247.21
383.68	1224.69
383.88	1284.08
384.09	1273.84
384.30	1296.36
384.51	1290.22
384.72	1224.69
384.93	1273.84
385.14	1296.36
385.35	1245.16
385.55	1212.40
385.76	1284.08
385.97	1239.02
386.18	1249.26
386.39	1284.08
386.60	1212.40
386.81	1279.98
387.02	1290.22
387.22	1218.54
387.43	1290.22
387.64	1296.36
387.85	1277.93
388.06	1269.74
388.27	1275.88
388.48	1247.21
388.68	1249.26
388.89	1183.73
389.10	1341.42
389.31	1259.50
389.52	1361.90
389.73	1251.31
389.93	1247.21
390.14	1320.94
390.35	1263.60
390.56	1220.59
390.77	1335.28
390.98	1318.89
391.18	1292.27
391.39	1247.21
391.60	1249.26
391.81	1265.64
392.02	1243.12
392.23	1241.07
392.43	1286.12
392.64	1310.70
392.85	1273.84
393.06	1298.41
393.27	1296.36
393.47	1279.98
393.68	1251.31
393.89	1341.42
394.10	1267.69
394.31	1320.94
394.52	1263.60
394.72	1269.74
394.93	1304.56
395.14	1298.41
395.35	1239.02
395.56	1310.70
395.76	1277.93
395.97	1273.84
396.18	1189.87
396.39	1290.22
396.60	1298.41
396.80	1251.31
397.01	1216.49
397.22	1292.27
397.43	1275.88
397.64	1239.02
397.84	1292.27
398.05	1169.39
398.26	1193.97
398.47	1179.63
398.67	1247.21
398.88	1282.03
399.09	1277.93
399.30	1282.03
399.51	1345.52
399.71	1286.12
399.92	1325.04
400.13	1234.93
400.34	1230.83
400.54	1210.35
400.75	1265.64
400.96	1249.26
401.17	1253.36
401.37	1232.88
401.58	1286.12
401.79	1243.12
402.00	1249.26
402.21	1259.50
402.41	1259.50
402.62	1269.74
402.83	1275.88
403.04	1351.66
403.24	1234.93
403.45	1243.12
403.66	1232.88
403.87	1298.41
404.07	1282.03
404.28	1259.50
404.49	1245.16
404.70	1316.84
404.90	1271.79
405.11	1245.16
405.32	1263.60
405.52	1314.80
405.73	1236.97
405.94	1220.59
406.15	1241.07
406.35	1312.75
406.56	1327.08
406.77	1318.89
406.98	1247.21
407.18	1191.92
407.39	1284.08
407.60	1247.21
407.80	1288.17
408.01	1279.98
408.22	1288.17
408.43	1275.88
408.63	1286.12
408.84	1247.21
409.05	1345.52
409.25	1284.08
409.46	1284.08
409.67	1257.45
409.88	1296.36
410.08	1308.65
410.29	1234.93
410.50	1298.41
410.70	1239.02
410.91	1220.59
411.12	1224.69
411.32	1232.88
411.53	1339.37
411.74	1288.17
411.95	1318.89
412.15	1232.88
412.36	1335.28
412.57	1214.45
412.77	1290.22
412.98	1275.88
413.19	1300.46
413.39	1279.98
413.60	1329.13
413.81	1247.21
414.01	1183.73
414.22	1314.80
414.43	1234.93
414.63	1259.50
414.84	1243.12
415.05	1300.46
415.25	1196.01
415.46	1282.03
415.67	1253.36
415.87	1265.64
416.08	1200.11
416.29	1204.21
416.49	1286.12
416.70	1275.88
416.91	1331.18
417.11	1331.18
417.32	1290.22
417.53	1241.07
417.73	1296.36
417.94	1243.12
418.15	1271.79
418.35	1210.35
418.56	1267.69
418.77	1257.45
418.97	1220.59
419.18	1247.21
419.38	1267.69
419.59	1286.12
419.80	1251.31
420.00	1279.98
420.21	1261.55
420.42	1329.13
420.62	1310.70
420.83	1228.78
421.04	1294.32
421.24	1251.31
421.45	1286.12
421.65	1282.03
421.86	1267.69
422.07	1290.22
422.27	1339.37
422.48	1196.01
422.69	1294.32
422.89	1247.21
423.10	1298.41
423.30	1232.88
423.51	1255.40
423.72	1343.47
423.92	1263.60
424.13	1290.22
424.33	1355.76
424.54	1214.45
424.75	1267.69
424.95	1216.49
425.16	1234.93
425.36	1249.26
425.57	1228.78
425.78	1267.69
425.98	1273.84
426.19	1239.02
426.39	1232.88
426.60	1327.08
426.81	1261.55
427.01	1169.39
427.22	1222.64
427.42	1257.45
427.63	1224.69
427.83	1327.08
428.04	1273.84
428.25	1345.52
428.45	1255.40
428.66	1320.94
428.86	1226.73
429.07	1241.07
429.28	1325.04
429.48	1316.84
429.69	1275.88
429.89	1284.08
430.10	1273.84
430.30	1206.25
430.51	1292.27
430.71	1279.98
430.92	1251.31
431.13	1273.84
431.33	1304.56
431.54	1286.12
431.74	1290.22
431.95	1263.60
432.15	1294.32
432.36	1269.74
432.56	1296.36
432.77	1204.21
432.98	1259.50
433.18	1273.84
433.39	1267.69
433.59	1290.22
433.80	1230.83
434.00	1249.26
434.21	1255.40
434.41	1265.64
434.62	1228.78
434.82	1329.13
435.03	1310.70
435.23	1275.88
435.44	1300.46
435.64	1226.73
435.85	1322.99
436.06	1329.13
436.26	1247.21
436.47	1282.03
436.67	1310.70
436.88	1249.26
437.08	1288.17
437.29	1271.79
437.49	1306.60
437.70	1234.93
437.90	1327.08
438.11	1191.92
438.31	1271.79
438.52	1284.08
438.72	1216.49
438.93	1249.26
439.13	1349.61
439.34	1173.49
439.54	1292.27
439.75	1251.31
439.95	1335.28
440.16	1263.60
440.36	1247.21
440.57	1310.70
440.77	1306.60
440.98	1222.64
441.18	1239.02
441.39	1169.39
441.59	1224.69
441.80	1269.74
442.00	1267.69
442.21	1267.69
442.41	1279.98
442.62	1208.30
442.82	1288.17
443.02	1284.08
443.23	1279.98
443.43	1372.14
443.64	1200.11
443.84	1243.12
444.05	1273.84
444.25	1259.50
444.46	1331.18
444.66	1298.41
444.87	1259.50
445.07	1271.79
445.28	1308.65
445.48	1230.83
445.69	1296.36
445.89	1282.03
446.09	1304.56
446.30	1312.75
446.50	1212.40
446.71	1263.60
446.91	1361.90
447.12	1282.03
447.32	1228.78
447.53	1284.08
447.73	1339.37
447.93	1245.16
448.14	1265.64
448.34	1284.08
448.55	1214.45
448.75	1275.88
448.96	1302.51
449.16	1232.88
449.36	1269.74
449.57	1241.07
449.77	1329.13
449.98	1271.79
450.18	1265.64
450.39	1290.22
450.59	1269.74
450.79	1296.36
451.00	1294.32
451.20	1286.12
451.41	1255.40
451.61	1222.64
451.81	1249.26
452.02	1286.12
452.22	1306.60
452.43	1265.64
452.63	1304.56
452.84	1259.50
453.04	1363.95
453.24	1257.45
453.45	1333.23
453.65	1286.12
453.86	1312.75
454.06	1275.88
454.26	1292.27
454.47	1296.36
454.67	1263.60
454.87	1255.40
455.08	1253.36
455.28	1322.99
455.49	1296.36
455.69	1255.40
455.89	1310.70
456.10	1261.55
456.30	1247.21
456.51	1282.03
456.71	1314.80
456.91	1261.55
457.12	1234.93
457.32	1236.97
457.52	1247.21
457.73	1282.03
457.93	1320.94
458.14	1191.92
458.34	1271.79
458.54	1271.79
458.75	1288.17
458.95	1255.40
459.15	1339.37
459.36	1275.88
459.56	1224.69
459.76	1263.60
459.97	1290.22
460.17	1277.93
460.37	1329.13
460.58	1288.17
460.78	1366.00
460.99	1214.45
461.19	1247.21
461.39	1253.36
461.60	1288.17
461.80	1304.56
462.00	1271.79
462.21	1241.07
462.41	1193.97
462.61	1208.30
462.82	1208.30
463.02	1271.79
463.22	1236.97
463.43	1286.12
463.63	1150.96
463.83	1212.40
464.04	1290.22
464.24	1331.18
464.44	1318.89
464.64	1267.69
464.85	1267.69
465.05	1218.54
465.25	1255.40
465.46	1304.56
465.66	1296.36
465.86	1333.23
466.07	1322.99
466.27	1329.13
466.47	1312.75
466.68	1249.26
466.88	1288.17
467.08	1288.17
467.29	1294.32
467.49	1255.40
467.69	1298.41
467.89	1296.36
468.10	1318.89
468.30	1306.60
468.50	1320.94
468.71	1257.45
468.91	1288.17
469.11	1318.89
469.31	1322.99
469.52	1265.64
469.72	1292.27
469.92	1294.32
470.13	1232.88
470.33	1245.16
470.53	1230.83
470.73	1255.40
470.94	1259.50
471.14	1306.60
471.34	1304.56
471.54	1339.37
471.75	1277.93
471.95	1288.17
472.15	1273.84
472.36	1222.64
472.56	1269.74
472.76	1269.74
472.96	1228.78
473.17	1300.46
473.37	1351.66
473.57	1273.84
473.77	1304.56
473.98	1257.45
474.18	1282.03
474.38	1284.08
474.58	1265.64
474.79	1288.17
474.99	1257.45
475.19	1316.84
475.39	1239.02
475.60	1284.08
475.80	1273.84
476.00	1259.50
476.20	1212.40
476.41	1288.17
476.61	1288.17
476.81	1249.26
477.01	1302.51
477.21	1314.80
477.42	1275.88
477.62	1320.94
477.82	1294.32
478.02	1222.64
478.23	1300.46
478.43	1282.03
478.63	1304.56
478.83	1224.69
479.03	1290.22
479.24	1286.12
479.44	1263.60
479.64	1255.40
479.84	1331.18
480.04	1263.60
480.25	1253.36
480.45	1263.60
480.65	1298.41
480.85	1284.08
481.06	1277.93
481.26	1279.98
481.46	1255.40
481.66	1284.08
481.86	1259.50
482.06	1282.03
482.27	1212.40
482.47	1314.80
482.67	1236.97
482.87	1288.17
483.07	1288.17
483.28	1267.69
483.48	1245.16
483.68	1296.36
483.88	1333.23
484.08	1236.97
484.29	1265.64
484.49	1284.08
484.69	1314.80
484.89	1290.22
485.09	1374.19
485.29	1320.94
485.50	1292.27
485.70	1241.07
485.90	1247.21
486.10	1247.21
486.30	1345.52
486.50	1255.40
486.71	1220.59
486.91	1282.03
487.11	1271.79
487.31	1277.93
487.51	1279.98
487.71	1222.64
487.91	1308.65
488.12	1261.55
488.32	1343.47
488.52	1257.45
488.72	1273.84
488.92	1300.46
489.12	1290.22
489.32	1312.75
489.53	1310.70
489.73	1294.32
489.93	1241.07
490.13	1284.08
490.33	1255.40
490.53	1204.21
490.73	1312.75
490.94	1247.21
491.14	1263.60
491.34	1245.16
491.54	1308.65
491.74	1304.56
491.94	1355.76
492.14	1269.74
492.34	1306.60
492.54	1275.88
492.75	1288.17
492.95	1265.64
493.15	1261.55
493.35	1306.60
493.55	1290.22
493.75	1251.31
493.95	1277.93
494.15	1277.93
494.35	1222.64
494.56	1310.70
494.76	1282.03
494.96	1284.08
495.16	1331.18
495.36	1218.54
495.56	1239.02
495.76	1316.84
495.96	1282.03
496.16	1300.46
496.36	1290.22
496.56	1253.36
496.77	1286.12
496.97	1271.79
497.17	1265.64
497.37	1282.03
497.57	1228.78
497.77	1271.79
497.97	1347.56
498.17	1298.41
498.37	1310.70
498.57	1247.21
498.77	1275.88
498.97	1318.89
499.17	1251.31
499.38	1294.32
499.58	1325.04
499.78	1279.98
499.98	1366.00
500.18	1265.64
500.38	1347.56
500.58	1236.97
500.78	1310.70
500.98	1224.69
501.18	1257.45
501.38	1298.41
501.58	1298.41
501.78	1245.16
501.98	1361.90
502.18	1249.26
502.38	1359.85
502.58	1275.88
502.78	1236.97
502.98	1265.64
503.18	1263.60
503.38	1308.65
503.59	1304.56
503.79	1247.21
503.99	1343.47
504.19	1277.93
504.39	1316.84
504.59	1259.50
504.79	1286.12
504.99	1218.54
505.19	1263.60
505.39	1298.41
505.59	1359.85
505.79	1298.41
505.99	1232.88
506.19	1294.32
506.39	1390.57
506.59	1263.60
506.79	1249.26
506.99	1236.97
507.19	1341.42
507.39	1253.36
507.59	1290.22
507.79	1279.98
507.99	1329.13
508.19	1279.98
508.39	1320.94
508.59	1277.93
508.79	1300.46
508.99	1314.80
509.19	1312.75
509.39	1243.12
509.59	1257.45
509.79	1257.45
509.99	1282.03
510.19	1277.93
510.39	1273.84
510.59	1316.84
510.79	1249.26
510.99	1245.16
511.19	1187.82
511.39	1290.22
511.59	1282.03
511.79	1306.60
511.99	1273.84
512.19	1314.80
512.38	1228.78
512.58	1286.12
512.78	1294.32
512.98	1230.83
513.18	1341.42
513.38	1316.84
513.58	1267.69
513.78	1288.17
513.98	1277.93
514.18	1288.17
514.38	1304.56
514.58	1292.27
514.78	1302.51
514.98	1279.98
515.18	1310.70
515.38	1259.50
515.58	1306.60
515.78	1320.94
515.98	1286.12
516.18	1218.54
516.38	1329.13
516.57	1288.17
516.77	1275.88
516.97	1306.60
517.17	1282.03
517.37	1308.65
517.57	1294.32
517.77	1263.60
517.97	1286.12
518.17	1322.99
518.37	1290.22
518.57	1269.74
518.77	1241.07
518.97	1273.84
519.16	1218.54
519.36	1257.45
519.56	1306.60
519.76	1300.46
519.96	1318.89
520.16	1314.80
520.36	1300.46
520.56	1261.55
520.76	1298.41
520.96	1296.36
521.16	1306.60
521.35	1284.08
521.55	1312.75
521.75	1163.25
521.95	1245.16
522.15	1202.16
522.35	1327.08
522.55	1265.64
522.75	1284.08
522.95	1171.44
523.14	1230.83
523.34	1267.69
523.54	1345.52
523.74	1275.88
523.94	1243.12
524.14	1288.17
524.34	1339.37
524.54	1316.84
524.73	1277.93
524.93	1288.17
525.13	1343.47
525.33	1286.12
525.53	1251.31
525.73	1273.84
525.93	1271.79
526.13	1263.60
526.32	1294.32
526.52	1290.22
526.72	1282.03
526.92	1294.32
527.12	1327.08
527.32	1306.60
527.52	1239.02
527.71	1304.56
527.91	1255.40
528.11	1310.70
528.31	1255.40
528.51	1273.84
528.71	1253.36
528.90	1343.47
529.10	1310.70
529.30	1304.56
529.50	1353.71
529.70	1294.32
529.90	1267.69
530.09	1286.12
530.29	1298.41
530.49	1277.93
530.69	1290.22
530.89	1255.40
531.09	1282.03
531.28	1310.70
531.48	1261.55
531.68	1216.49
531.88	1284.08
532.08	1273.84
532.28	1325.04
532.47	1308.65
532.67	1304.56
532.87	1310.70
533.07	1312.75
533.27	1296.36
533.46	1273.84
533.66	1249.26
533.86	1241.07
534.06	1300.46
534.26	1284.08
534.45	1288.17
534.65	1316.84
534.85	1310.70
535.05	1300.46
535.25	1300.46
535.44	1277.93
535.64	1314.80
535.84	1247.21
536.04	1282.03
536.24	1265.64
536.43	1275.88
536.63	1261.55
536.83	1236.97
537.03	1302.51
537.22	1257.45
537.42	1222.64
537.62	1300.46
537.82	1288.17
538.02	1247.21
538.21	1298.41
538.41	1382.38
538.61	1234.93
538.81	1302.51
539.00	1306.60
539.20	1302.51
539.40	1292.27
539.60	1198.06
539.79	1261.55
539.99	1189.87
540.19	1349.61
540.39	1300.46
540.58	1275.88
540.78	1320.94
540.98	1310.70
541.18	1271.79
541.37	1312.75
541.57	1239.02
541.77	1273.84
541.97	1239.02
542.16	1304.56
542.36	1286.12
542.56	1273.84
542.76	1273.84
542.95	1290.22
543.15	1370.09
543.35	1302.51
543.54	1300.46
543.74	1232.88
543.94	1273.84
544.14	1273.84
544.33	1271.79
544.53	1327.08
544.73	1269.74
544.93	1314.80
545.12	1257.45
545.32	1255.40
545.52	1247.21
545.71	1239.02
545.91	1269.74
546.11	1322.99
546.30	1282.03
546.50	1253.36
546.70	1230.83
546.90	1333.23
547.09	1230.83
547.29	1314.80
547.49	1224.69
547.68	1298.41
547.88	1298.41
548.08	1273.84
548.27	1314.80
548.47	1337.32
548.67	1249.26
548.87	1331.18
549.06	1179.63
549.26	1263.60
549.46	1314.80
549.65	1329.13
549.85	1355.76
550.05	1279.98
550.24	1302.51
550.44	1306.60
550.64	1241.07
550.83	1306.60
551.03	1318.89
551.23	1290.22
551.42	1308.65
551.62	1236.97
551.82	1243.12
552.01	1279.98
552.21	1310.70
552.41	1273.84
552.60	1279.98
552.80	1245.16
553.00	1298.41
553.19	1288.17
553.39	1282.03
553.59	1263.60
553.78	1290.22
553.98	1351.66
554.17	1382.38
554.37	1357.80
554.57	1361.90
554.76	1320.94
554.96	1388.52
555.16	1378.28
555.35	1306.60
555.55	1183.73
555.75	1345.52
555.94	1277.93
556.14	1306.60
556.33	1261.55
556.53	1339.37
556.73	1329.13
556.92	1265.64
557.12	1327.08
557.32	1179.63
557.51	1396.71
557.71	1290.22
557.90	1302.51
558.10	1220.59
558.30	1318.89
558.49	1286.12
558.69	1284.08
558.88	1265.64
559.08	1310.70
559.28	1202.16
559.47	1236.97
559.67	1357.80
559.86	1255.40
560.06	1251.31
560.26	1232.88
560.45	1247.21
560.65	1236.97
560.84	1302.51
561.04	1247.21
561.24	1316.84
561.43	1277.93
561.63	1306.60
561.82	1335.28
562.02	1361.90
562.22	1273.84
562.41	1308.65
562.61	1267.69
562.80	1243.12
563.00	1257.45
563.19	1306.60
563.39	1312.75
563.59	1216.49
563.78	1284.08
563.98	1320.94
564.17	1306.60
564.37	1273.84
564.56	1331.18
564.76	1327.08
564.96	1288.17
565.15	1265.64
565.35	1249.26
565.54	1318.89
565.74	1271.79
565.93	1224.69
566.13	1288.17
566.32	1306.60
566.52	1296.36
566.71	1261.55
566.91	1355.76
567.11	1298.41
567.30	1265.64
567.50	1296.36
567.69	1255.40
567.89	1277.93
568.08	1251.31
568.28	1290.22
568.47	1286.12
568.67	1277.93
568.86	1265.64
569.06	1257.45
569.25	1345.52
569.45	1310.70
569.64	1355.76
569.84	1322.99
570.04	1347.56
570.23	1193.97
570.43	1304.56
570.62	1265.64
570.82	1284.08
571.01	1269.74
571.21	1236.97
571.40	1298.41
571.60	1282.03
571.79	1241.07
571.99	1261.55
572.18	1257.45
572.38	1265.64
572.57	1298.41
572.77	1325.04
572.96	1271.79
573.16	1298.41
573.35	1343.47
573.55	1247.21
573.74	1294.32
573.94	1249.26
574.13	1312.75
574.33	1267.69
574.52	1294.32
574.71	1310.70
574.91	1277.93
575.10	1304.56
575.30	1193.97
575.49	1339.37
575.69	1214.45
575.88	1249.26
576.08	1247.21
576.27	1302.51
576.47	1236.97
576.66	1318.89
576.86	1253.36
577.05	1189.87
577.25	1294.32
577.44	1316.84
577.64	1292.27
577.83	1318.89
578.02	1245.16
578.22	1267.69
578.41	1257.45
578.61	1277.93
578.80	1239.02
579.00	1318.89
579.19	1249.26
579.39	1245.16
579.58	1331.18
579.77	1261.55
579.97	1249.26
580.16	1304.56
580.36	1402.86
580.55	1230.83
580.75	1316.84
580.94	1343.47
581.13	1232.88
581.33	1286.12
581.52	1277.93
581.72	1308.65
581.91	1230.83
582.11	1290.22
582.30	1294.32
582.49	1265.64
582.69	1263.60
582.88	1245.16
583.08	1234.93
583.27	1277.93
583.47	1282.03
583.66	1261.55
583.85	1265.64
584.05	1279.98
584.24	1290.22
584.44	1294.32
584.63	1273.84
584.82	1253.36
585.02	1247.21
585.21	1218.54
585.41	1316.84
585.60	1296.36
585.79	1269.74
585.99	1220.59
586.18	1300.46
586.37	1314.80
586.57	1314.80
586.76	1261.55
586.96	1351.66
587.15	1306.60
587.34	1224.69
587.54	1294.32
587.73	1351.66
587.93	1230.83
588.12	1271.79
588.31	1279.98
588.51	1226.73
588.70	1308.65
588.89	1298.41
589.09	1239.02
589.28	1282.03
589.47	1257.45
589.67	1296.36
589.86	1290.22
590.06	1288.17
590.25	1284.08
590.44	1251.31
590.64	1222.64
590.83	1196.01
591.02	1316.84
591.22	1314.80
591.41	1347.56
591.60	1257.45
591.80	1253.36
591.99	1271.79
592.18	1314.80
592.38	1347.56
592.57	1290.22
592.76	1286.12
592.96	1239.02
593.15	1333.23
593.34	1292.27
593.54	1282.03
593.73	1259.50
593.92	1343.47
594.12	1284.08
594.31	1290.22
594.50	1273.84
594.70	1267.69
594.89	1331.18
595.08	1282.03
595.28	1331.18
595.47	1286.12
595.66	1241.07
595.86	1329.13
596.05	1335.28
596.24	1202.16
596.43	1292.27
596.63	1284.08
596.82	1251.31
597.01	1245.16
597.21	1265.64
597.40	1279.98
597.59	1239.02
597.79	1239.02
597.98	1239.02
598.17	1306.60
598.36	1322.99
598.56	1257.45
598.75	1269.74
598.94	1310.70
599.14	1273.84
599.33	1306.60
599.52	1236.97
599.71	1306.60
599.91	1404.91
600.10	1302.51
600.29	1351.66
600.48	1259.50
600.68	1261.55
600.87	1322.99
601.06	1271.79
601.26	1277.93
601.45	1327.08
601.64	1290.22
601.83	1275.88
602.03	1257.45
602.22	1325.04
602.41	1261.55
602.60	1292.27
602.80	1355.76
602.99	1353.71
603.18	1275.88
603.37	1251.31
603.57	1261.55
603.76	1335.28
603.95	1374.19
604.14	1243.12
604.34	1230.83
604.53	1306.60
604.72	1239.02
604.91	1316.84
605.10	1267.69
605.30	1341.42
605.49	1222.64
605.68	1292.27
605.87	1279.98
606.07	1249.26
606.26	1232.88
606.45	1273.84
606.64	1216.49
606.84	1230.83
607.03	1245.16
607.22	1320.94
607.41	1304.56
607.60	1286.12
607.80	1292.27
607.99	1214.45
608.18	1271.79
608.37	1277.93
608.56	1245.16
608.76	1239.02
608.95	1310.70
609.14	1298.41
609.33	1259.50
609.52	1339.37
609.72	1253.36
609.91	1312.75
610.10	1273.84
610.29	1296.36
610.48	1275.88
610.68	1245.16
610.87	1286.12
611.06	1335.28
611.25	1247.21
611.44	1277.93
611.63	1228.78
611.83	1337.32
612.02	1290.22
612.21	1312.75
612.40	1284.08
612.59	1265.64
612.79	1304.56
612.98	1292.27
613.17	1193.97
613.36	1271.79
613.55	1316.84
613.74	1310.70
613.93	1271.79
614.13	1337.32
614.32	1230.83
614.51	1253.36
614.70	1218.54
614.89	1245.16
615.08	1292.27
615.28	1265.64
615.47	1290.22
615.66	1318.89
615.85	1322.99
616.04	1279.98
616.23	1298.41
616.42	1257.45
616.62	1282.03
616.81	1269.74
617.00	1245.16
617.19	1316.84
617.38	1325.04
617.57	1282.03
617.76	1214.45
617.95	1298.41
618.15	1257.45
618.34	1275.88
618.53	1273.84
618.72	1236.97
618.91	1325.04
619.10	1224.69
619.29	1251.31
619.48	1253.36
619.68	1288.17
619.87	1259.50
620.06	1273.84
620.25	1314.80
620.44	1236.97
620.63	1259.50
620.82	1355.76
621.01	1222.64
621.20	1243.12
621.39	1271.79
621.59	1236.97
621.78	1314.80
621.97	1273.84
622.16	1265.64
622.35	1275.88
622.54	1325.04
622.73	1322.99
622.92	1257.45
623.11	1298.41
623.30	1279.98
623.49	1267.69
623.68	1337.32
623.88	1318.89
624.07	1241.07
624.26	1310.70
624.45	1325.04
624.64	1239.02
624.83	1290.22
625.02	1269.74
625.21	1361.90
625.40	1236.97
625.59	1320.94
625.78	1343.47
625.97	1224.69
626.16	1271.79
626.35	1230.83
626.54	1320.94
626.74	1357.80
626.93	1263.60
627.12	1259.50
627.31	1282.03
627.50	1345.52
627.69	1318.89
627.88	1306.60
628.07	1282.03
628.26	1165.29
628.45	1310.70
628.64	1292.27
628.83	1226.73
629.02	1282.03
629.21	1298.41
629.40	1288.17
629.59	1236.97
629.78	1220.59
629.97	1300.46
630.16	1304.56
630.35	1247.21
630.54	1286.12
630.73	1226.73
630.92	1267.69
631.11	1304.56
631.30	1335.28
631.49	1284.08
631.68	1370.09
631.87	1361.90
632.06	1452.01
632.25	1447.91
632.44	1425.39
632.63	1366.00
632.82	1439.72
633.01	1421.29
633.20	1497.07
633.39	1411.05
633.58	1437.67
633.77	1402.86
633.96	1513.45
634.15	1538.02
634.34	2084.83
634.53	2480.09
634.72	1828.84
634.91	1591.27
635.10	1918.95
635.29	2824.15
635.48	3186.64
635.67	3162.06
635.86	2688.98
636.05	2226.14
636.24	1939.43
636.43	1724.39
636.62	1527.78
636.81	1474.54
637.00	1492.97
637.19	1392.62
637.38	1398.76
637.57	1288.17
637.76	1378.28
637.95	1316.84
638.14	1347.56
638.33	1425.39
638.52	1296.36
638.71	1306.60
638.89	1316.84
639.08	1267.69
639.27	1308.65
639.46	1359.85
639.65	1257.45
639.84	1320.94
640.03	1300.46
640.22	1263.60
640.41	1370.09
640.60	1265.64
640.79	1284.08
640.98	1310.70
641.17	1257.45
641.36	1304.56
641.55	1271.79
641.74	1286.12
641.92	1282.03
642.11	1275.88
642.30	1257.45
642.49	1263.60
642.68	1302.51
642.87	1279.98
643.06	1249.26
643.25	1267.69
643.44	1261.55
643.63	1257.45
643.82	1312.75
644.00	1208.30
644.19	1343.47
644.38	1304.56
644.57	1286.12
644.76	1286.12
644.95	1224.69
645.14	1300.46
645.33	1198.06
645.52	1271.79
645.71	1257.45
645.89	1228.78
646.08	1261.55
646.27	1212.40
646.46	1222.64
646.65	1290.22
646.84	1282.03
647.03	1288.17
647.22	1298.41
647.40	1243.12
647.59	1306.60
647.78	1183.73
647.97	1282.03
648.16	1308.65
648.35	1298.41
648.54	1339.37
648.73	1310.70
648.91	1216.49
649.10	1302.51
649.29	1253.36
649.48	1290.22
649.67	1265.64
649.86	1296.36
650.05	1316.84
650.23	1384.43
650.42	1263.60
650.61	1355.76
650.80	1271.79
650.99	1226.73
651.18	1277.93
651.36	1198.06
651.55	1273.84
651.74	1347.56
651.93	1265.64
652.12	1279.98
652.31	1288.17
652.49	1255.40
652.68	1312.75
652.87	1298.41
653.06	1294.32
653.25	1318.89
653.44	1232.88
653.62	1265.64
653.81	1279.98
654.00	1290.22
654.19	1257.45
654.38	1206.25
654.56	1279.98
654.75	1320.94
654.94	1284.08
655.13	1290.22
655.32	1245.16
655.51	1269.74
655.69	1189.87
655.88	1296.36
656.07	1279.98
656.26	1279.98
656.45	1267.69
656.63	1300.46
656.82	1228.78
657.01	1253.36
657.20	1236.97
657.38	1263.60
657.57	1210.35
657.76	1353.71
657.95	1265.64
658.14	1249.26
658.32	1320.94
658.51	1282.03
658.70	1310.70
658.89	1275.88
659.08	1306.60
659.26	1271.79
659.45	1296.36
659.64	1286.12
659.83	1380.33
660.01	1337.32
660.20	1169.39
660.39	1208.30
660.58	1284.08
660.76	1191.92
660.95	1265.64
661.14	1261.55
661.33	1325.04
661.51	1314.80
661.70	1279.98
661.89	1269.74
662.08	1300.46
662.26	1310.70
662.45	1220.59
662.64	1304.56
662.83	1298.41
663.01	1306.60
663.20	1239.02
663.39	1282.03
663.58	1183.73
663.76	1335.28
663.95	1236.97
664.14	1269.74
664.32	1224.69
664.51	1239.02
664.70	1320.94
664.89	1220.59
665.07	1282.03
665.26	1245.16
665.45	1251.31
665.64	1288.17
665.82	1222.64
666.01	1337.32
666.20	1222.64
666.38	1216.49
666.57	1329.13
666.76	1277.93
666.95	1308.65
667.13	1335.28
667.32	1284.08
667.51	1167.34
667.69	1236.97
667.88	1241.07
668.07	1202.16
668.25	1200.11
668.44	1265.64
668.63	1249.26
668.81	1249.26
669.00	1232.88
669.19	1269.74
669.38	1318.89
669.56	1306.60
669.75	1241.07
669.94	1286.12
670.12	1220.59
670.31	1282.03
670.50	1288.17
670.68	1271.79
670.87	1327.08
671.06	1347.56
671.24	1251.31
671.43	1241.07
671.62	1220.59
671.80	1267.69
671.99	1314.80
672.18	1298.41
672.36	1331.18
672.55	1267.69
672.74	1253.36
672.92	1302.51
673.11	1245.16
673.29	1275.88
673.48	1294.32
673.67	1261.55
673.85	1294.32
674.04	1263.60
674.23	1286.12
674.41	1347.56
674.60	1306.60
674.79	1335.28
674.97	1239.02
675.16	1255.40
675.34	1251.31
675.53	1251.31
675.72	1253.36
675.90	1331.18
676.09	1232.88
676.28	1257.45
676.46	1255.40
676.65	1273.84
676.83	1247.21
677.02	1275.88
677.21	1216.49
677.39	1222.64
677.58	1257.45
677.77	1236.97
677.95	1288.17
678.14	1243.12
678.32	1222.64
678.51	1216.49
678.70	1247.21
678.88	1230.83
679.07	1277.93
679.25	1257.45
679.44	1257.45
679.63	1249.26
679.81	1263.60
680.00	1298.41
680.18	1275.88
680.37	1273.84
680.55	1265.64
680.74	1290.22
680.93	1341.42
681.11	1279.98
681.30	1279.98
681.48	1271.79
681.67	1253.36
681.85	1347.56
682.04	1216.49
682.23	1236.97
682.41	1224.69
682.60	1243.12
682.78	1275.88
682.97	1255.40
683.15	1241.07
683.34	1312.75
683.53	1261.55
683.71	1282.03
683.90	1230.83
684.08	1327.08
684.27	1243.12
684.45	1253.36
684.64	1191.92
684.82	1290.22
685.01	1269.74
685.19	1372.14
685.38	1171.44
685.57	1302.51
685.75	1247.21
685.94	1251.31
686.12	1263.60
686.31	1282.03
686.49	1257.45
686.68	1245.16
686.86	1273.84
687.05	1208.30
687.23	1304.56
687.42	1310.70
687.60	1331.18
687.79	1357.80
687.97	1265.64
688.16	1312.75
688.34	1259.50
688.53	1216.49
688.71	1249.26
688.90	1220.59
689.08	1245.16
689.27	1161.20
689.45	1279.98
689.64	1247.21
689.82	1273.84
690.01	1253.36
690.19	1245.16
690.38	1302.51
690.56	1206.25
690.75	1261.55
690.93	1218.54
691.12	1296.36
691.30	1298.41
691.49	1263.60
691.67	1255.40
691.86	1257.45
692.04	1288.17
692.23	1275.88
692.41	1310.70
692.60	1298.41
692.78	1298.41
692.97	1249.26
693.15	1345.52
693.34	1251.31
693.52	1312.75
693.71	1284.08
693.89	1286.12
694.08	1296.36
694.26	1320.94
694.44	1232.88
694.63	1249.26
694.81	1277.93
695.00	1273.84
695.18	1284.08
695.37	1296.36
695.55	1314.80
695.74	1261.55
695.92	1294.32
696.10	1314.80
696.29	1189.87
696.47	1304.56
696.66	1245.16
696.84	1298.41
697.03	1236.97
697.21	1318.89
697.40	1310.70
697.58	1294.32
697.76	1243.12
697.95	1279.98
698.13	1284.08
698.32	1241.07
698.50	1335.28
698.68	1271.79
698.87	1269.74
699.05	1247.21
699.24	1290.22
699.42	1322.99
699.61	1296.36
699.79	1273.84
699.97	1325.04
700.16	1300.46
700.34	1204.21
700.53	1251.31
700.71	1243.12
700.89	1216.49
701.08	1306.60
701.26	1370.09
701.45	1286.12
701.63	1232.88
701.81	1277.93
702.00	1267.69
702.18	1302.51
702.37	1236.97
702.55	1251.31
702.73	1312.75
702.92	1286.12
703.10	1325.04
703.28	1257.45
703.47	1302.51
703.65	1234.93
703.84	1241.07
704.02	1255.40
704.20	1339.37
704.39	1232.88
704.57	1351.66
704.75	1290.22
704.94	1296.36
705.12	1220.59
705.30	1286.12
705.49	1277.93
705.67	1314.80
705.86	1304.56
706.04	1249.26
706.22	1251.31
706.41	1255.40
706.59	1249.26
706.77	1247.21
706.96	1214.45
707.14	1249.26
707.32	1243.12
707.51	1269.74
707.69	1247.21
707.87	1282.03
708.06	1296.36
708.24	1269.74
708.42	1179.63
708.61	1308.65
708.79	1253.36
708.97	1314.80
709.16	1218.54
709.34	1306.60
709.52	1234.93
709.71	1216.49
709.89	1171.44
710.07	1232.88
710.26	1298.41
710.44	1249.26
710.62	1261.55
710.80	1322.99
710.99	1314.80
711.17	1310.70
711.35	1261.55
711.54	1259.50
711.72	1261.55
711.90	1269.74
712.09	1290.22
712.27	1296.36
712.45	1273.84
712.63	1247.21
712.82	1208.30
713.00	1288.17
713.18	1302.51
713.37	1306.60
713.55	1234.93
713.73	1294.32
713.91	1296.36
714.10	1269.74
714.28	1267.69
714.46	1290.22
714.65	1261.55
714.83	1251.31
715.01	1320.94
715.19	1189.87
715.38	1282.03
715.56	1298.41
715.74	1249.26
715.92	1245.16
716.11	1351.66
716.29	1257.45
716.47	1286.12
716.65	1329.13
716.84	1298.41
717.02	1247.21
717.20	1247.21
717.38	1189.87
717.57	1230.83
717.75	1259.50
717.93	1273.84
718.11	1245.16
718.30	1353.71
718.48	1189.87
718.66	1310.70
718.84	1282.03
719.03	1224.69
719.21	1224.69
719.39	1263.60
719.57	1253.36
719.75	1245.16
719.94	1349.61
720.12	1302.51
720.30	1239.02
720.48	1302.51
720.67	1253.36
720.85	1277.93
721.03	1292.27
721.21	1345.52
721.39	1273.84
721.58	1298.41
721.76	1265.64
721.94	1234.93
722.12	1257.45
722.30	1255.40
722.49	1322.99
722.67	1234.93
722.85	1245.16
723.03	1255.40
723.21	1294.32
723.40	1200.11
723.58	1234.93
723.76	1232.88
723.94	1304.56
724.12	1265.64
724.30	1304.56
724.49	1245.16
724.67	1349.61
724.85	1200.11
725.03	1206.25
725.21	1282.03
725.40	1292.27
725.58	1167.34
725.76	1284.08
725.94	1325.04
726.12	1306.60
726.30	1247.21
726.49	1273.84
726.67	1273.84
726.85	1355.76
727.03	1294.32
727.21	1253.36
727.39	1263.60
727.57	1290.22
727.76	1331.18
727.94	1277.93
728.12	1249.26
728.30	1312.75
728.48	1236.97
728.66	1296.36
728.84	1288.17
729.03	1308.65
729.21	1271.79
729.39	1232.88
729.57	1216.49
729.75	1228.78
729.93	1224.69
730.11	1259.50
730.30	1245.16
730.48	1224.69
730.66	1286.12
730.84	1282.03
731.02	1243.12
731.20	1208.30
731.38	1265.64
731.56	1241.07
731.74	1191.92
731.93	1249.26
732.11	1226.73
732.29	1214.45
732.47	1247.21
732.65	1320.94
732.83	1292.27
733.01	1253.36
733.19	1265.64
733.37	1257.45
733.56	1189.87
733.74	1325.04
733.92	1159.15
734.10	1239.02
734.28	1302.51
734.46	1282.03
734.64	1273.84
734.82	1277.93
735.00	1275.88
735.18	1243.12
735.36	1251.31
735.54	1208.30
735.73	1298.41
735.91	1294.32
736.09	1210.35
736.27	1224.69
736.45	1257.45
736.63	1302.51
736.81	1253.36
736.99	1318.89
737.17	1273.84
737.35	1230.83
737.53	1312.75
737.71	1241.07
737.89	1269.74
738.07	1279.98
738.25	1261.55
738.43	1257.45
738.61	1245.16
738.80	1331.18
738.98	1257.45
739.16	1161.20
739.34	1271.79
739.52	1292.27
739.70	1261.55
739.88	1206.25
740.06	1298.41
740.24	1187.82
740.42	1234.93
740.60	1224.69
740.78	1228.78
740.96	1243.12
741.14	1243.12
741.32	1308.65
741.50	1294.32
741.68	1335.28
741.86	1259.50
742.04	1204.21
742.22	1263.60
742.40	1228.78
742.58	1279.98
742.76	1216.49
742.94	1220.59
743.12	1312.75
743.30	1228.78
743.48	1290.22
743.66	1253.36
743.84	1279.98
744.02	1228.78
744.20	1230.83
744.38	1284.08
744.56	1294.32
744.74	1247.21
744.92	1202.16
745.10	1216.49
745.28	1339.37
745.46	1308.65
745.64	1296.36
745.82	1341.42
746.00	1257.45
746.18	1288.17
746.36	1267.69
746.54	1224.69
746.72	1265.64
746.90	1286.12
747.08	1327.08
747.26	1261.55
747.44	1222.64
747.62	1288.17
747.80	1241.07
747.98	1312.75
748.15	1241.07
748.33	1331.18
748.51	1310.70
748.69	1282.03
748.87	1329.13
749.05	1308.65
749.23	1263.60
749.41	1312.75
749.59	1331.18
749.77	1261.55
749.95	1355.76
750.13	1241.07
750.31	1239.02
750.49	1245.16
750.67	1282.03
750.85	1269.74
751.03	1236.97
751.20	1257.45
751.38	1306.60
751.56	1173.49
751.74	1255.40
751.92	1267.69
752.10	1314.80
752.28	1294.32
752.46	1200.11
752.64	1339.37
752.82	1253.36
753.00	1271.79
753.18	1286.12
753.35	1296.36
753.53	1181.68
753.71	1245.16
753.89	1273.84
754.07	1257.45
754.25	1279.98
754.43	1290.22
754.61	1312.75
754.79	1331.18
754.97	1224.69
755.14	1210.35
755.32	1239.02
755.50	1224.69
755.68	1331.18
755.86	1322.99
756.04	1286.12
756.22	1322.99
756.40	1245.16
756.57	1255.40
756.75	1308.65
756.93	1243.12
757.11	1253.36
757.29	1329.13
757.47	1273.84
757.65	1181.68
757.82	1216.49
758.00	1302.51
758.18	1308.65
758.36	1222.64
758.54	1232.88
758.72	1214.45
758.90	1288.17
759.07	1216.49
759.25	1294.32
759.43	1267.69
759.61	1257.45
759.79	1271.79
759.97	1357.80
760.15	1222.64
760.32	1312.75
760.50	1302.51
760.68	1265.64
760.86	1253.36
761.04	1243.12
761.22	1351.66
761.39	1263.60
761.57	1331.18
761.75	1255.40
761.93	1245.16
762.11	1249.26
762.28	1304.56
762.46	1224.69
762.64	1290.22
762.82	1212.40
763.00	1257.45
763.18	1234.93
763.35	1269.74
763.53	1249.26
763.71	1296.36
763.89	1341.42
764.07	1263.60
764.24	1224.69
764.42	1247.21
764.60	1218.54
764.78	1273.84
764.96	1284.08
765.13	1241.07
765.31	1230.83
765.49	1273.84
765.67	1259.50
765.84	1191.92
766.02	1204.21
766.20	1271.79
766.38	1249.26
766.56	1288.17
766.73	1294.32
766.91	1239.02
767.09	1318.89
767.27	1224.69
767.44	1245.16
767.62	1220.59
767.80	1275.88
767.98	1275.88
768.15	1261.55
768.33	1243.12
768.51	1263.60
768.69	1181.68
768.87	1206.25
769.04	1329.13
769.22	1286.12
769.40	1253.36
769.58	1310.70
769.75	1261.55
769.93	1263.60
770.11	1277.93
770.28	1253.36
770.46	1239.02
770.64	1290.22
770.82	1226.73
770.99	1271.79
771.17	1263.60
771.35	1212.40
771.53	1355.76
771.70	1249.26
771.88	1282.03
772.06	1288.17
772.23	1193.97
772.41	1226.73
772.59	1220.59
772.77	1216.49
772.94	1298.41
773.12	1251.31
773.30	1325.04
773.47	1284.08
773.65	1261.55
773.83	1273.84
774.01	1247.21
774.18	1286.12
774.36	1304.56
774.54	1275.88
774.71	1226.73
774.89	1222.64
775.07	1261.55
775.24	1300.46
775.42	1236.97
775.60	1183.73
775.78	1298.41
775.95	1261.55
776.13	1320.94
776.31	1267.69
776.48	1308.65
776.66	1320.94
776.84	1286.12
777.01	1249.26
777.19	1202.16
777.37	1232.88
777.54	1286.12
777.72	1310.70
777.90	1257.45
778.07	1325.04
778.25	1288.17
778.43	1191.92
778.60	1251.31
778.78	1265.64
778.96	1325.04
779.13	1310.70
779.31	1243.12
779.49	1284.08
779.66	1355.76
779.84	1308.65
780.01	1277.93
780.19	1234.93
780.37	1277.93
780.54	1230.83
780.72	1241.07
780.90	1226.73
781.07	1288.17
781.25	1239.02
781.43	1220.59
781.60	1204.21
781.78	1269.74
781.95	1208.30
782.13	1191.92
782.31	1249.26
782.48	1290.22
782.66	1261.55
782.83	1284.08
783.01	1259.50
783.19	1279.98
783.36	1232.88
783.54	1251.31
783.72	1239.02
783.89	1200.11
784.07	1220.59
784.24	1279.98
784.42	1277.93
784.60	1265.64
784.77	1279.98
784.95	1210.35
785.12	1279.98
785.30	1253.36
785.47	1243.12
785.65	1275.88
785.83	1269.74
786.00	1284.08
786.18	1294.32
786.35	1222.64
786.53	1279.98
786.71	1292.27
786.88	1257.45
787.06	1204.21
787.23	1189.87
787.41	1290.22
787.58	1241.07
787.76	1257.45
787.94	1191.92
788.11	1218.54
788.29	1312.75
788.46	1236.97
788.64	1294.32
788.81	1228.78
788.99	1282.03
789.16	1294.32
789.34	1214.45
789.52	1286.12
789.69	1316.84
789.87	1249.26
790.04	1263.60
790.22	1257.45
790.39	1271.79
790.57	1298.41
790.74	1292.27
790.92	1333.23
791.09	1241.07
791.27	1288.17
791.44	1331.18
791.62	1226.73
791.79	1325.04
791.97	1263.60
792.15	1271.79
792.32	1259.50
792.50	1255.40
792.67	1224.69
792.85	1302.51
793.02	1191.92
793.20	1286.12
793.37	1273.84
793.55	1234.93
793.72	1239.02
793.90	1245.16
794.07	1257.45
794.25	1325.04
794.42	1232.88
794.60	1253.36
794.77	1198.06
794.95	1294.32
795.12	1269.74
795.30	1226.73
795.47	1269.74
795.65	1273.84
795.82	1257.45
796.00	1310.70
796.17	1232.88
796.34	1253.36
796.52	1296.36
796.69	1316.84
796.87	1220.59
797.04	1339.37
797.22	1327.08
797.39	1271.79
797.57	1286.12
797.74	1253.36
797.92	1296.36
798.09	1282.03
798.27	1226.73
798.44	1273.84
798.62	1255.40
798.79	1232.88
798.96	1189.87
799.14	1253.36
799.31	1245.16
799.49	1286.12
799.66	1318.89
799.84	1284.08
800.01	1271.79
800.19	1322.99
800.36	1247.21
800.53	1322.99
800.71	1177.58
800.88	1329.13
801.06	1204.21
801.23	1224.69
801.41	1249.26
801.58	1200.11
801.75	1286.12
801.93	1327.08
802.10	1331.18
802.28	1200.11
802.45	1263.60
802.63	1239.02
802.80	1239.02
802.97	1220.59
803.15	1275.88
803.32	1208.30
803.50	1222.64
803.67	1269.74
803.84	1222.64
804.02	1247.21
804.19	1214.45
804.37	1216.49
804.54	1310.70
804.71	1243.12
804.89	1310.70
805.06	1230.83
805.24	1269.74
805.41	1239.02
805.58	1290.22
805.76	1359.85
805.93	1208.30
806.10	1271.79
806.28	1286.12
806.45	1232.88
806.63	1257.45
806.80	1267.69
806.97	1273.84
807.15	1247.21
807.32	1294.32
807.49	1198.06
807.67	1286.12
807.84	1288.17
808.01	1277.93
808.19	1226.73
808.36	1273.84
808.54	1263.60
808.71	1228.78
808.88	1189.87
809.06	1335.28
809.23	1277.93
809.40	1263.60
809.58	1210.35
809.75	1232.88
809.92	1284.08
810.10	1212.40
810.27	1329.13
810.44	1251.31
810.62	1302.51
810.79	1312.75
810.96	1220.59
811.14	1249.26
811.31	1294.32
811.48	1267.69
811.66	1267.69
811.83	1269.74
812.00	1251.31
812.18	1236.97
812.35	1206.25
812.52	1298.41
812.69	1239.02
812.87	1286.12
813.04	1263.60
813.21	1269.74
813.39	1261.55
813.56	1226.73
813.73	1247.21
813.91	1294.32
814.08	1298.41
814.25	1236.97
814.42	1265.64
814.60	1245.16
814.77	1279.98
814.94	1292.27
815.12	1269.74
815.29	1251.31
815.46	1206.25
815.63	1267.69
815.81	1265.64
815.98	1255.40
816.15	1296.36
816.33	1239.02
816.50	1269.74
816.67	1218.54
816.84	1275.88
817.02	1333.23
817.19	1247.21
817.36	1224.69
817.53	1286.12
817.71	1269.74
817.88	1267.69
818.05	1257.45
818.22	1230.83
818.40	1243.12
818.57	1267.69
818.74	1275.88
818.91	1343.47
819.09	1236.97
819.26	1216.49
819.43	1222.64
819.60	1298.41
819.78	1214.45
819.95	1202.16
820.12	1310.70
820.29	1263.60
820.47	1228.78
820.64	1220.59
820.81	1183.73
820.98	1304.56
821.15	1335.28
821.33	1331.18
821.50	1288.17
821.67	1329.13
821.84	1222.64
822.02	1212.40
822.19	1257.45
822.36	1245.16
822.53	1335.28
822.70	1216.49
822.88	1314.80
823.05	1327.08
823.22	1251.31
823.39	1302.51
823.56	1220.59
823.74	1296.36
823.91	1263.60
824.08	1257.45
824.25	1261.55
824.42	1275.88
824.60	1257.45
824.77	1304.56
824.94	1208.30
825.11	1247.21
825.28	1245.16
825.45	1265.64
825.63	1222.64
825.80	1277.93
825.97	1290.22
826.14	1290.22
826.31	1259.50
826.48	1218.54
826.66	1257.45
826.83	1267.69
827.00	1267.69
827.17	1300.46
827.34	1243.12
827.51	1249.26
827.69	1247.21
827.86	1325.04
828.03	1216.49
828.20	1304.56
828.37	1232.88
828.54	1296.36
828.71	1288.17
828.89	1327.08
829.06	1267.69
829.23	1353.71
829.40	1312.75
829.57	1222.64
829.74	1269.74
829.91	1259.50
830.09	1261.55
830.26	1294.32
830.43	1269.74
830.60	1284.08
830.77	1304.56
830.94	1271.79
831.11	1298.41
831.28	1228.78
831.46	1290.22
831.63	1253.36
831.80	1300.46
831.97	1239.02
832.14	1265.64
832.31	1175.53
832.48	1294.32
832.65	1339.37
832.82	1275.88
832.99	1230.83
833.17	1267.69
833.34	1288.17
833.51	1337.32
833.68	1187.82
833.85	1243.12
834.02	1245.16
834.19	1314.80
834.36	1251.31
834.53	1308.65
834.70	1212.40
834.87	1277.93
835.04	1241.07
835.22	1226.73
835.39	1232.88
835.56	1212.40
835.73	1269.74
835.90	1261.55
836.07	1187.82
836.24	1265.64
836.41	1253.36
836.58	1312.75
836.75	1261.55
836.92	1257.45
837.09	1296.36
837.26	1267.69
837.43	1282.03
837.60	1335.28
837.77	1290.22
837.94	1245.16
838.12	1241.07
838.29	1337.32
838.46	1255.40
838.63	1257.45
838.80	1302.51
838.97	1316.84
839.14	1277.93
839.31	1191.92
839.48	1239.02
839.65	1288.17
839.82	1236.97
839.99	1253.36
840.16	1302.51
840.33	1290.22
840.50	1236.97
840.67	1300.46
840.84	1288.17
841.01	1273.84
841.18	1234.93
841.35	1306.60
841.52	1304.56
841.69	1298.41
841.86	1265.64
842.03	1220.59
842.20	1245.16
842.37	1236.97
842.54	1232.88
842.71	1294.32
842.88	1366.00
843.05	1314.80
843.22	1249.26
843.39	1316.84
843.56	1230.83
843.73	1337.32
843.90	1224.69
844.07	1284.08
844.24	1259.50
844.41	1292.27
844.58	1228.78
844.75	1222.64
844.92	1245.16
845.09	1267.69
845.26	1255.40
845.43	1232.88
845.60	1286.12
845.77	1294.32
845.94	1224.69
846.10	1236.97
846.27	1259.50
846.44	1275.88
846.61	1214.45
846.78	1243.12
846.95	1290.22
847.12	1298.41
847.29	1236.97
847.46	1196.01
847.63	1206.25
847.80	1230.83
847.97	1214.45
848.14	1222.64
848.31	1304.56
848.48	1222.64
848.65	1308.65
848.82	1218.54
848.98	1249.26
849.15	1222.64
849.32	1230.83
849.49	1374.19
849.66	1255.40
849.83	1279.98
850.00	1296.36
850.17	1284.08
850.34	1286.12
850.51	1259.50
850.68	1247.21
850.85	1300.46
851.01	1318.89
851.18	1310.70
851.35	1255.40
851.52	1271.79
851.69	1363.95
851.86	1185.77
852.03	1304.56
852.20	1232.88
852.37	1226.73
852.53	1294.32
852.70	1259.50
852.87	1173.49
853.04	1273.84
853.21	1275.88
853.38	1267.69
853.55	1189.87
853.72	1306.60
853.89	1314.80
854.05	1216.49
854.22	1267.69
854.39	1304.56
854.56	1259.50
854.73	1294.32
854.90	1298.41
855.07	1288.17
855.23	1277.93
855.40	1255.40
855.57	1224.69
855.74	1292.27
855.91	1312.75
856.08	1257.45
856.25	1257.45
856.41	1284.08
856.58	1263.60
856.75	1296.36
856.92	1273.84
857.09	1259.50
857.26	1263.60
857.42	1247.21
857.59	1230.83
857.76	1277.93
857.93	1298.41
858.10	1247.21
858.27	1236.97
858.43	1353.71
858.60	1261.55
858.77	1251.31
858.94	1292.27
859.11	1214.45
859.27	1273.84
859.44	1302.51
859.61	1292.27
859.78	1322.99
859.95	1269.74
860.12	1212.40
860.28	1206.25
860.45	1282.03
860.62	1271.79
860.79	1298.41
860.95	1191.92
861.12	1345.52
861.29	1241.07
861.46	1224.69
861.63	1202.16
861.79	1286.12
861.96	1298.41
862.13	1267.69
862.30	1253.36
862.47	1302.51
862.63	1253.36
862.80	1322.99
862.97	1216.49
863.14	1267.69
863.30	1249.26
863.47	1261.55
863.64	1265.64
863.81	1257.45
863.97	1247.21
864.14	1249.26
864.31	1320.94
864.48	1247.21
864.65	1224.69
864.81	1349.61
864.98	1318.89
865.15	1284.08
865.32	1296.36
865.48	1347.56
865.65	1263.60
865.82	1224.69
865.98	1290.22
866.15	1320.94
866.32	1335.28
866.49	1314.80
866.65	1261.55
866.82	1316.84
866.99	1261.55
867.16	1226.73
867.32	1245.16
867.49	1302.51
867.66	1269.74
867.83	1214.45
867.99	1275.88
868.16	1327.08
868.33	1255.40
868.49	1292.27
868.66	1239.02
868.83	1243.12
868.99	1200.11
869.16	1267.69
869.33	1331.18
869.50	1204.21
869.66	1216.49
869.83	1263.60
870.00	1322.99
870.16	1282.03
870.33	1263.60
870.50	1284.08
870.66	1257.45
870.83	1292.27
871.00	1363.95
871.17	1273.84
871.33	1214.45
871.50	1296.36
871.67	1267.69
871.83	1216.49
872.00	1224.69
872.17	1218.54
872.33	1247.21
872.50	1251.31
872.67	1200.11
872.83	1220.59
873.00	1243.12
873.17	1259.50
873.33	1296.36
873.50	1212.40
873.67	1329.13
873.83	1247.21
874.00	1261.55
874.16	1253.36
874.33	1241.07
874.50	1261.55
874.66	1279.98
874.83	1312.75
875.00	1302.51
875.16	1275.88
875.33	1294.32
875.50	1257.45
875.66	1241.07
875.83	1257.45
875.99	1198.06
876.16	1208.30
876.33	1286.12
876.49	1271.79
876.66	1316.84
876.83	1249.26
876.99	1314.80
877.16	1239.02
877.32	1253.36
877.49	1236.97
877.66	1241.07
877.82	1347.56
877.99	1296.36
878.15	1267.69
878.32	1298.41
878.49	1239.02
878.65	1241.07
878.82	1302.51
878.98	1296.36
879.15	1267.69
879.32	1255.40
879.48	1234.93
879.65	1306.60
879.81	1335.28
879.98	1255.40
880.15	1312.75
880.31	1314.80
880.48	1230.83
880.64	1273.84
880.81	1263.60
880.97	1228.78
881.14	1279.98
881.31	1191.92
881.47	1292.27
881.64	1261.55
881.80	1331.18
881.97	1308.65
882.13	1271.79
882.30	1247.21
882.47	1366.00
882.63	1300.46
882.80	1296.36
882.96	1310.70
883.13	1279.98
883.29	1263.60
883.46	1265.64
883.62	1296.36
883.79	1259.50
883.95	1263.60
884.12	1253.36
884.29	1333.23
884.45	1335.28
884.62	1169.39
884.78	1273.84
884.95	1253.36
885.11	1263.60
885.28	1224.69
885.44	1261.55
885.61	1236.97
885.77	1286.12
885.94	1271.79
886.10	1253.36
886.27	1249.26
886.43	1312.75
886.60	1343.47
886.76	1200.11
886.93	1300.46
887.09	1214.45
887.26	1284.08
887.42	1275.88
887.59	1243.12
887.75	1216.49
887.92	1241.07
888.08	1187.82
888.25	1316.84
888.41	1236.97
888.58	1286.12
888.74	1267.69
888.91	1267.69
>>>>>End Processed Spectral Data<<<<<
