SpectraSuite Data File
++++++++++++++++++++++++++++++++++++
Date: Sun Apr 03 19:55:19 CEST 2016
User: root
Dark Spectrum Present: No
Reference Spectrum Present: No
Number of Sampled Component Spectra: 1
Spectrometers: USB4C02835
Integration Time (usec): 10000 (USB4C02835)
Spectra Averaged: 1 (USB4C02835)
Boxcar Smoothing: 0 (USB4C02835)
Correct for Electrical Dark: No (USB4C02835)
Strobe/Lamp Enabled: No (USB4C02835)
Correct for Detector Non-linearity: No (USB4C02835)
Correct for Stray Light: No (USB4C02835)
Number of Pixels in Processed Spectrum: 3648
>>>>>Begin Processed Spectral Data<<<<<
177.47	1216.49
177.69	1216.49
177.91	1216.49
178.13	1310.70
178.36	1302.51
178.58	1259.50
178.80	1300.46
179.02	1249.26
179.24	1277.93
179.46	1214.45
179.68	1269.74
179.90	1339.37
180.13	1296.36
180.35	1218.54
180.57	1236.97
180.79	1288.17
181.01	1175.53
181.23	1282.03
181.45	1296.36
181.67	1234.93
181.90	1286.12
182.12	1265.64
182.34	1267.69
182.56	1210.35
182.78	1249.26
183.00	1339.37
183.22	1273.84
183.44	1288.17
183.66	1290.22
183.89	1310.70
184.11	1316.84
184.33	1222.64
184.55	1271.79
184.77	1245.16
184.99	1333.23
185.21	1200.11
185.43	1273.84
185.65	1259.50
185.87	1308.65
186.10	1243.12
186.32	1298.41
186.54	1265.64
186.76	1261.55
186.98	1236.97
187.20	1288.17
187.42	1277.93
187.64	1279.98
187.86	1271.79
188.08	1300.46
188.30	1337.32
188.52	1222.64
188.75	1241.07
188.97	1269.74
189.19	1267.69
189.41	1269.74
189.63	1232.88
189.85	1271.79
190.07	1263.60
190.29	1306.60
190.51	1245.16
190.73	1189.87
190.95	1300.46
191.17	1236.97
191.39	1249.26
191.61	1234.93
191.84	1273.84
192.06	1316.84
192.28	1253.36
192.50	1300.46
192.72	1288.17
192.94	1255.40
193.16	1261.55
193.38	1290.22
193.60	1345.52
193.82	1243.12
194.04	1298.41
194.26	1210.35
194.48	1220.59
194.70	1187.82
194.92	1255.40
195.14	1331.18
195.36	1253.36
195.58	1273.84
195.80	1261.55
196.02	1249.26
196.24	1257.45
196.46	1271.79
196.69	1271.79
196.91	1294.32
197.13	1302.51
197.35	1314.80
197.57	1286.12
197.79	1273.84
198.01	1253.36
198.23	1214.45
198.45	1251.31
198.67	1249.26
198.89	1279.98
199.11	1232.88
199.33	1218.54
199.55	1296.36
199.77	1230.83
199.99	1245.16
200.21	1269.74
200.43	1265.64
200.65	1279.98
200.87	1255.40
201.09	1300.46
201.31	1259.50
201.53	1310.70
201.75	1290.22
201.97	1302.51
202.19	1251.31
202.41	1359.85
202.63	1288.17
202.85	1304.56
203.07	1302.51
203.29	1230.83
203.51	1302.51
203.73	1314.80
203.95	1292.27
204.17	1257.45
204.39	1269.74
204.61	1224.69
204.83	1263.60
205.05	1263.60
205.27	1259.50
205.49	1275.88
205.71	1304.56
205.93	1257.45
206.15	1251.31
206.37	1247.21
206.59	1261.55
206.81	1275.88
207.03	1282.03
207.25	1234.93
207.47	1277.93
207.69	1292.27
207.91	1253.36
208.13	1243.12
208.34	1239.02
208.56	1185.77
208.78	1247.21
209.00	1292.27
209.22	1167.34
209.44	1255.40
209.66	1236.97
209.88	1228.78
210.10	1265.64
210.32	1286.12
210.54	1249.26
210.76	1236.97
210.98	1259.50
211.20	1212.40
211.42	1220.59
211.64	1241.07
211.86	1204.21
212.08	1279.98
212.30	1204.21
212.52	1243.12
212.74	1214.45
212.96	1249.26
213.17	1218.54
213.39	1249.26
213.61	1292.27
213.83	1259.50
214.05	1269.74
214.27	1273.84
214.49	1251.31
214.71	1243.12
214.93	1257.45
215.15	1220.59
215.37	1290.22
215.59	1210.35
215.81	1226.73
216.03	1298.41
216.24	1296.36
216.46	1306.60
216.68	1269.74
216.90	1310.70
217.12	1279.98
217.34	1245.16
217.56	1247.21
217.78	1341.42
218.00	1243.12
218.22	1247.21
218.44	1329.13
218.66	1343.47
218.87	1257.45
219.09	1361.90
219.31	1284.08
219.53	1259.50
219.75	1245.16
219.97	1296.36
220.19	1275.88
220.41	1271.79
220.63	1312.75
220.85	1269.74
221.06	1290.22
221.28	1232.88
221.50	1261.55
221.72	1300.46
221.94	1318.89
222.16	1247.21
222.38	1247.21
222.60	1282.03
222.82	1253.36
223.03	1302.51
223.25	1275.88
223.47	1335.28
223.69	1198.06
223.91	1271.79
224.13	1245.16
224.35	1251.31
224.57	1284.08
224.78	1298.41
225.00	1247.21
225.22	1294.32
225.44	1298.41
225.66	1333.23
225.88	1284.08
226.10	1210.35
226.32	1216.49
226.53	1296.36
226.75	1265.64
226.97	1273.84
227.19	1282.03
227.41	1279.98
227.63	1259.50
227.85	1247.21
228.06	1239.02
228.28	1247.21
228.50	1294.32
228.72	1294.32
228.94	1279.98
229.16	1204.21
229.37	1241.07
229.59	1224.69
229.81	1279.98
230.03	1243.12
230.25	1282.03
230.47	1230.83
230.69	1316.84
230.90	1241.07
231.12	1261.55
231.34	1230.83
231.56	1236.97
231.78	1218.54
232.00	1220.59
232.21	1279.98
232.43	1259.50
232.65	1243.12
232.87	1290.22
233.09	1185.77
233.30	1273.84
233.52	1175.53
233.74	1322.99
233.96	1173.49
234.18	1271.79
234.40	1249.26
234.61	1275.88
234.83	1267.69
235.05	1210.35
235.27	1339.37
235.49	1335.28
235.70	1294.32
235.92	1331.18
236.14	1286.12
236.36	1318.89
236.58	1253.36
236.79	1286.12
237.01	1294.32
237.23	1318.89
237.45	1251.31
237.67	1316.84
237.88	1202.16
238.10	1241.07
238.32	1304.56
238.54	1247.21
238.76	1304.56
238.97	1320.94
239.19	1275.88
239.41	1282.03
239.63	1224.69
239.85	1267.69
240.06	1232.88
240.28	1292.27
240.50	1271.79
240.72	1366.00
240.93	1265.64
241.15	1296.36
241.37	1196.01
241.59	1265.64
241.81	1314.80
242.02	1224.69
242.24	1284.08
242.46	1267.69
242.68	1220.59
242.89	1288.17
243.11	1273.84
243.33	1269.74
243.55	1351.66
243.76	1294.32
243.98	1218.54
244.20	1218.54
244.42	1245.16
244.64	1329.13
244.85	1259.50
245.07	1259.50
245.29	1228.78
245.51	1206.25
245.72	1322.99
245.94	1251.31
246.16	1290.22
246.38	1288.17
246.59	1241.07
246.81	1263.60
247.03	1314.80
247.24	1277.93
247.46	1249.26
247.68	1245.16
247.90	1263.60
248.11	1298.41
248.33	1222.64
248.55	1226.73
248.77	1241.07
248.98	1304.56
249.20	1298.41
249.42	1193.97
249.64	1322.99
249.85	1232.88
250.07	1318.89
250.29	1230.83
250.50	1300.46
250.72	1304.56
250.94	1236.97
251.16	1286.12
251.37	1243.12
251.59	1337.32
251.81	1353.71
252.02	1294.32
252.24	1284.08
252.46	1220.59
252.68	1331.18
252.89	1226.73
253.11	1232.88
253.33	1263.60
253.54	1318.89
253.76	1247.21
253.98	1216.49
254.20	1228.78
254.41	1296.36
254.63	1306.60
254.85	1273.84
255.06	1273.84
255.28	1222.64
255.50	1239.02
255.71	1189.87
255.93	1234.93
256.15	1228.78
256.36	1216.49
256.58	1245.16
256.80	1314.80
257.02	1284.08
257.23	1259.50
257.45	1316.84
257.67	1204.21
257.88	1226.73
258.10	1253.36
258.32	1234.93
258.53	1267.69
258.75	1310.70
258.97	1286.12
259.18	1253.36
259.40	1189.87
259.62	1239.02
259.83	1279.98
260.05	1245.16
260.27	1322.99
260.48	1249.26
260.70	1214.45
260.92	1214.45
261.13	1275.88
261.35	1329.13
261.57	1247.21
261.78	1216.49
262.00	1308.65
262.22	1269.74
262.43	1218.54
262.65	1275.88
262.86	1236.97
263.08	1271.79
263.30	1267.69
263.51	1279.98
263.73	1273.84
263.95	1312.75
264.16	1292.27
264.38	1257.45
264.60	1341.42
264.81	1236.97
265.03	1314.80
265.25	1247.21
265.46	1177.58
265.68	1202.16
265.89	1232.88
266.11	1253.36
266.33	1288.17
266.54	1214.45
266.76	1298.41
266.98	1228.78
267.19	1335.28
267.41	1222.64
267.62	1273.84
267.84	1318.89
268.06	1169.39
268.27	1273.84
268.49	1306.60
268.70	1245.16
268.92	1161.20
269.14	1243.12
269.35	1257.45
269.57	1247.21
269.79	1318.89
270.00	1150.96
270.22	1314.80
270.43	1255.40
270.65	1267.69
270.87	1269.74
271.08	1234.93
271.30	1265.64
271.51	1282.03
271.73	1239.02
271.95	1239.02
272.16	1284.08
272.38	1216.49
272.59	1271.79
272.81	1261.55
273.02	1288.17
273.24	1255.40
273.46	1300.46
273.67	1286.12
273.89	1214.45
274.10	1288.17
274.32	1304.56
274.54	1261.55
274.75	1249.26
274.97	1257.45
275.18	1210.35
275.40	1222.64
275.61	1273.84
275.83	1273.84
276.05	1259.50
276.26	1288.17
276.48	1236.97
276.69	1257.45
276.91	1302.51
277.12	1232.88
277.34	1286.12
277.55	1247.21
277.77	1226.73
277.99	1269.74
278.20	1359.85
278.42	1259.50
278.63	1230.83
278.85	1241.07
279.06	1349.61
279.28	1286.12
279.49	1267.69
279.71	1259.50
279.93	1306.60
280.14	1310.70
280.36	1253.36
280.57	1284.08
280.79	1249.26
281.00	1267.69
281.22	1308.65
281.43	1310.70
281.65	1249.26
281.86	1269.74
282.08	1282.03
282.29	1296.36
282.51	1286.12
282.73	1331.18
282.94	1302.51
283.16	1284.08
283.37	1325.04
283.59	1265.64
283.80	1241.07
284.02	1263.60
284.23	1277.93
284.45	1269.74
284.66	1232.88
284.88	1239.02
285.09	1220.59
285.31	1183.73
285.52	1290.22
285.74	1282.03
285.95	1265.64
286.17	1329.13
286.38	1263.60
286.60	1322.99
286.81	1193.97
287.03	1294.32
287.24	1247.21
287.46	1253.36
287.67	1314.80
287.89	1292.27
288.10	1222.64
288.32	1224.69
288.53	1251.31
288.75	1249.26
288.96	1353.71
289.18	1284.08
289.39	1259.50
289.61	1353.71
289.82	1239.02
290.04	1259.50
290.25	1290.22
290.47	1200.11
290.68	1282.03
290.90	1296.36
291.11	1318.89
291.33	1296.36
291.54	1239.02
291.76	1261.55
291.97	1316.84
292.18	1228.78
292.40	1261.55
292.61	1249.26
292.83	1261.55
293.04	1208.30
293.26	1218.54
293.47	1208.30
293.69	1239.02
293.90	1193.97
294.12	1290.22
294.33	1236.97
294.55	1325.04
294.76	1294.32
294.97	1253.36
295.19	1292.27
295.40	1296.36
295.62	1298.41
295.83	1241.07
296.05	1236.97
296.26	1232.88
296.48	1216.49
296.69	1243.12
296.90	1329.13
297.12	1249.26
297.33	1282.03
297.55	1265.64
297.76	1310.70
297.98	1259.50
298.19	1193.97
298.41	1277.93
298.62	1310.70
298.83	1269.74
299.05	1232.88
299.26	1257.45
299.48	1247.21
299.69	1275.88
299.90	1327.08
300.12	1284.08
300.33	1243.12
300.55	1269.74
300.76	1306.60
300.98	1290.22
301.19	1298.41
301.40	1255.40
301.62	1261.55
301.83	1253.36
302.05	1277.93
302.26	1296.36
302.47	1300.46
302.69	1230.83
302.90	1230.83
303.12	1245.16
303.33	1263.60
303.54	1312.75
303.76	1271.79
303.97	1376.24
304.19	1239.02
304.40	1378.28
304.61	1298.41
304.83	1318.89
305.04	1279.98
305.26	1314.80
305.47	1284.08
305.68	1294.32
305.90	1218.54
306.11	1277.93
306.33	1320.94
306.54	1236.97
306.75	1343.47
306.97	1196.01
307.18	1275.88
307.39	1173.49
307.61	1163.25
307.82	1322.99
308.04	1335.28
308.25	1210.35
308.46	1275.88
308.68	1279.98
308.89	1368.04
309.10	1202.16
309.32	1234.93
309.53	1228.78
309.74	1298.41
309.96	1212.40
310.17	1286.12
310.39	1224.69
310.60	1267.69
310.81	1216.49
311.03	1292.27
311.24	1247.21
311.45	1241.07
311.67	1243.12
311.88	1265.64
312.09	1298.41
312.31	1275.88
312.52	1167.34
312.73	1255.40
312.95	1286.12
313.16	1241.07
313.37	1290.22
313.59	1255.40
313.80	1222.64
314.01	1204.21
314.23	1163.25
314.44	1271.79
314.65	1222.64
314.87	1224.69
315.08	1304.56
315.29	1241.07
315.51	1286.12
315.72	1279.98
315.93	1253.36
316.15	1322.99
316.36	1210.35
316.57	1236.97
316.79	1269.74
317.00	1288.17
317.21	1263.60
317.43	1329.13
317.64	1263.60
317.85	1337.32
318.07	1329.13
318.28	1253.36
318.49	1261.55
318.70	1277.93
318.92	1259.50
319.13	1318.89
319.34	1206.25
319.56	1247.21
319.77	1273.84
319.98	1277.93
320.20	1200.11
320.41	1296.36
320.62	1282.03
320.83	1249.26
321.05	1271.79
321.26	1286.12
321.47	1286.12
321.69	1300.46
321.90	1288.17
322.11	1202.16
322.32	1316.84
322.54	1294.32
322.75	1271.79
322.96	1277.93
323.18	1251.31
323.39	1255.40
323.60	1214.45
323.81	1335.28
324.03	1298.41
324.24	1234.93
324.45	1257.45
324.66	1282.03
324.88	1239.02
325.09	1185.77
325.30	1279.98
325.52	1320.94
325.73	1202.16
325.94	1282.03
326.15	1204.21
326.37	1267.69
326.58	1277.93
326.79	1298.41
327.00	1298.41
327.22	1230.83
327.43	1265.64
327.64	1318.89
327.85	1206.25
328.07	1265.64
328.28	1265.64
328.49	1318.89
328.70	1216.49
328.92	1214.45
329.13	1232.88
329.34	1290.22
329.55	1339.37
329.76	1226.73
329.98	1222.64
330.19	1269.74
330.40	1259.50
330.61	1314.80
330.83	1271.79
331.04	1265.64
331.25	1308.65
331.46	1296.36
331.68	1263.60
331.89	1269.74
332.10	1292.27
332.31	1232.88
332.52	1243.12
332.74	1265.64
332.95	1181.68
333.16	1327.08
333.37	1181.68
333.58	1296.36
333.80	1300.46
334.01	1279.98
334.22	1191.92
334.43	1271.79
334.64	1187.82
334.86	1265.64
335.07	1294.32
335.28	1304.56
335.49	1259.50
335.70	1234.93
335.92	1282.03
336.13	1257.45
336.34	1216.49
336.55	1300.46
336.76	1298.41
336.98	1279.98
337.19	1257.45
337.40	1204.21
337.61	1253.36
337.82	1249.26
338.04	1337.32
338.25	1243.12
338.46	1249.26
338.67	1314.80
338.88	1325.04
339.09	1290.22
339.31	1347.56
339.52	1339.37
339.73	1271.79
339.94	1333.23
340.15	1300.46
340.36	1312.75
340.58	1257.45
340.79	1249.26
341.00	1286.12
341.21	1245.16
341.42	1372.14
341.63	1304.56
341.85	1308.65
342.06	1310.70
342.27	1286.12
342.48	1279.98
342.69	1282.03
342.90	1218.54
343.12	1329.13
343.33	1265.64
343.54	1282.03
343.75	1239.02
343.96	1320.94
344.17	1222.64
344.38	1239.02
344.60	1222.64
344.81	1191.92
345.02	1241.07
345.23	1247.21
345.44	1329.13
345.65	1294.32
345.86	1234.93
346.07	1226.73
346.29	1224.69
346.50	1234.93
346.71	1290.22
346.92	1220.59
347.13	1216.49
347.34	1171.44
347.55	1298.41
347.76	1312.75
347.98	1251.31
348.19	1265.64
348.40	1273.84
348.61	1271.79
348.82	1220.59
349.03	1230.83
349.24	1265.64
349.45	1290.22
349.66	1282.03
349.88	1236.97
350.09	1216.49
350.30	1239.02
350.51	1247.21
350.72	1230.83
350.93	1265.64
351.14	1300.46
351.35	1282.03
351.56	1234.93
351.77	1261.55
351.99	1263.60
352.20	1202.16
352.41	1251.31
352.62	1267.69
352.83	1320.94
353.04	1255.40
353.25	1259.50
353.46	1224.69
353.67	1204.21
353.88	1259.50
354.09	1208.30
354.30	1261.55
354.52	1257.45
354.73	1320.94
354.94	1357.80
355.15	1224.69
355.36	1341.42
355.57	1325.04
355.78	1265.64
355.99	1320.94
356.20	1355.76
356.41	1273.84
356.62	1286.12
356.83	1253.36
357.04	1230.83
357.25	1302.51
357.46	1277.93
357.68	1290.22
357.89	1306.60
358.10	1208.30
358.31	1263.60
358.52	1279.98
358.73	1187.82
358.94	1312.75
359.15	1261.55
359.36	1275.88
359.57	1286.12
359.78	1245.16
359.99	1312.75
360.20	1226.73
360.41	1245.16
360.62	1277.93
360.83	1271.79
361.04	1312.75
361.25	1261.55
361.46	1322.99
361.67	1335.28
361.88	1257.45
362.09	1302.51
362.30	1245.16
362.51	1230.83
362.72	1222.64
362.93	1286.12
363.14	1263.60
363.35	1316.84
363.56	1259.50
363.78	1284.08
363.99	1263.60
364.20	1239.02
364.41	1220.59
364.62	1314.80
364.83	1310.70
365.04	1300.46
365.25	1282.03
365.46	1284.08
365.67	1269.74
365.88	1273.84
366.09	1241.07
366.30	1265.64
366.51	1306.60
366.72	1376.24
366.93	1277.93
367.14	1271.79
367.35	1327.08
367.56	1277.93
367.77	1298.41
367.98	1234.93
368.18	1298.41
368.39	1230.83
368.60	1327.08
368.81	1220.59
369.02	1329.13
369.23	1267.69
369.44	1255.40
369.65	1239.02
369.86	1294.32
370.07	1339.37
370.28	1320.94
370.49	1294.32
370.70	1294.32
370.91	1265.64
371.12	1210.35
371.33	1306.60
371.54	1298.41
371.75	1241.07
371.96	1247.21
372.17	1322.99
372.38	1290.22
372.59	1243.12
372.80	1253.36
373.01	1271.79
373.22	1259.50
373.43	1249.26
373.64	1320.94
373.85	1249.26
374.06	1273.84
374.26	1204.21
374.47	1257.45
374.68	1320.94
374.89	1232.88
375.10	1282.03
375.31	1241.07
375.52	1267.69
375.73	1347.56
375.94	1206.25
376.15	1296.36
376.36	1302.51
376.57	1304.56
376.78	1253.36
376.99	1273.84
377.20	1212.40
377.40	1282.03
377.61	1261.55
377.82	1247.21
378.03	1232.88
378.24	1232.88
378.45	1308.65
378.66	1279.98
378.87	1325.04
379.08	1241.07
379.29	1253.36
379.50	1296.36
379.71	1316.84
379.91	1310.70
380.12	1282.03
380.33	1232.88
380.54	1241.07
380.75	1357.80
380.96	1294.32
381.17	1294.32
381.38	1296.36
381.59	1298.41
381.80	1267.69
382.00	1273.84
382.21	1267.69
382.42	1288.17
382.63	1333.23
382.84	1302.51
383.05	1259.50
383.26	1269.74
383.47	1247.21
383.68	1241.07
383.88	1279.98
384.09	1259.50
384.30	1288.17
384.51	1282.03
384.72	1269.74
384.93	1320.94
385.14	1277.93
385.35	1210.35
385.55	1267.69
385.76	1325.04
385.97	1298.41
386.18	1282.03
386.39	1306.60
386.60	1257.45
386.81	1314.80
387.02	1279.98
387.22	1288.17
387.43	1300.46
387.64	1241.07
387.85	1300.46
388.06	1239.02
388.27	1189.87
388.48	1337.32
388.68	1249.26
388.89	1279.98
389.10	1222.64
389.31	1226.73
389.52	1263.60
389.73	1191.92
389.93	1247.21
390.14	1249.26
390.35	1222.64
390.56	1298.41
390.77	1273.84
390.98	1232.88
391.18	1286.12
391.39	1275.88
391.60	1322.99
391.81	1343.47
392.02	1234.93
392.23	1355.76
392.43	1265.64
392.64	1267.69
392.85	1284.08
393.06	1275.88
393.27	1273.84
393.47	1234.93
393.68	1234.93
393.89	1310.70
394.10	1214.45
394.31	1241.07
394.52	1216.49
394.72	1288.17
394.93	1275.88
395.14	1232.88
395.35	1333.23
395.56	1210.35
395.76	1312.75
395.97	1212.40
396.18	1255.40
396.39	1275.88
396.60	1294.32
396.80	1187.82
397.01	1320.94
397.22	1230.83
397.43	1312.75
397.64	1308.65
397.84	1245.16
398.05	1273.84
398.26	1269.74
398.47	1157.10
398.67	1175.53
398.88	1216.49
399.09	1302.51
399.30	1245.16
399.51	1279.98
399.71	1267.69
399.92	1292.27
400.13	1251.31
400.34	1230.83
400.54	1277.93
400.75	1206.25
400.96	1314.80
401.17	1259.50
401.37	1220.59
401.58	1232.88
401.79	1210.35
402.00	1345.52
402.21	1249.26
402.41	1253.36
402.62	1282.03
402.83	1267.69
403.04	1279.98
403.24	1288.17
403.45	1316.84
403.66	1245.16
403.87	1284.08
404.07	1261.55
404.28	1247.21
404.49	1257.45
404.70	1214.45
404.90	1322.99
405.11	1224.69
405.32	1232.88
405.52	1228.78
405.73	1249.26
405.94	1241.07
406.15	1361.90
406.35	1294.32
406.56	1288.17
406.77	1218.54
406.98	1236.97
407.18	1329.13
407.39	1302.51
407.60	1206.25
407.80	1290.22
408.01	1279.98
408.22	1273.84
408.43	1286.12
408.63	1220.59
408.84	1241.07
409.05	1288.17
409.25	1282.03
409.46	1230.83
409.67	1265.64
409.88	1277.93
410.08	1259.50
410.29	1292.27
410.50	1263.60
410.70	1263.60
410.91	1249.26
411.12	1310.70
411.32	1191.92
411.53	1214.45
411.74	1193.97
411.95	1284.08
412.15	1296.36
412.36	1243.12
412.57	1228.78
412.77	1296.36
412.98	1259.50
413.19	1261.55
413.39	1302.51
413.60	1222.64
413.81	1249.26
414.01	1271.79
414.22	1275.88
414.43	1288.17
414.63	1271.79
414.84	1263.60
415.05	1196.01
415.25	1271.79
415.46	1255.40
415.67	1312.75
415.87	1306.60
416.08	1292.27
416.29	1259.50
416.49	1243.12
416.70	1292.27
416.91	1271.79
417.11	1294.32
417.32	1263.60
417.53	1284.08
417.73	1232.88
417.94	1275.88
418.15	1279.98
418.35	1247.21
418.56	1296.36
418.77	1300.46
418.97	1269.74
419.18	1230.83
419.38	1265.64
419.59	1316.84
419.80	1267.69
420.00	1251.31
420.21	1241.07
420.42	1261.55
420.62	1263.60
420.83	1212.40
421.04	1286.12
421.24	1271.79
421.45	1288.17
421.65	1345.52
421.86	1288.17
422.07	1265.64
422.27	1198.06
422.48	1243.12
422.69	1247.21
422.89	1327.08
423.10	1273.84
423.30	1308.65
423.51	1196.01
423.72	1298.41
423.92	1298.41
424.13	1271.79
424.33	1273.84
424.54	1308.65
424.75	1296.36
424.95	1318.89
425.16	1196.01
425.36	1218.54
425.57	1331.18
425.78	1226.73
425.98	1296.36
426.19	1251.31
426.39	1314.80
426.60	1312.75
426.81	1232.88
427.01	1220.59
427.22	1288.17
427.42	1273.84
427.63	1312.75
427.83	1259.50
428.04	1275.88
428.25	1265.64
428.45	1273.84
428.66	1218.54
428.86	1302.51
429.07	1290.22
429.28	1255.40
429.48	1245.16
429.69	1271.79
429.89	1243.12
430.10	1273.84
430.30	1251.31
430.51	1296.36
430.71	1214.45
430.92	1259.50
431.13	1249.26
431.33	1267.69
431.54	1257.45
431.74	1220.59
431.95	1304.56
432.15	1239.02
432.36	1251.31
432.56	1345.52
432.77	1234.93
432.98	1271.79
433.18	1298.41
433.39	1300.46
433.59	1239.02
433.80	1304.56
434.00	1222.64
434.21	1232.88
434.41	1255.40
434.62	1275.88
434.82	1167.34
435.03	1325.04
435.23	1296.36
435.44	1255.40
435.64	1306.60
435.85	1273.84
436.06	1251.31
436.26	1304.56
436.47	1214.45
436.67	1302.51
436.88	1177.58
437.08	1269.74
437.29	1366.00
437.49	1259.50
437.70	1228.78
437.90	1279.98
438.11	1337.32
438.31	1210.35
438.52	1239.02
438.72	1255.40
438.93	1241.07
439.13	1200.11
439.34	1196.01
439.54	1247.21
439.75	1265.64
439.95	1279.98
440.16	1232.88
440.36	1189.87
440.57	1271.79
440.77	1318.89
440.98	1296.36
441.18	1277.93
441.39	1236.97
441.59	1216.49
441.80	1355.76
442.00	1294.32
442.21	1249.26
442.41	1296.36
442.62	1355.76
442.82	1282.03
443.02	1220.59
443.23	1255.40
443.43	1210.35
443.64	1314.80
443.84	1335.28
444.05	1325.04
444.25	1322.99
444.46	1265.64
444.66	1325.04
444.87	1255.40
445.07	1220.59
445.28	1228.78
445.48	1265.64
445.69	1296.36
445.89	1247.21
446.09	1230.83
446.30	1265.64
446.50	1220.59
446.71	1243.12
446.91	1316.84
447.12	1247.21
447.32	1318.89
447.53	1261.55
447.73	1236.97
447.93	1282.03
448.14	1263.60
448.34	1212.40
448.55	1282.03
448.75	1329.13
448.96	1298.41
449.16	1234.93
449.36	1290.22
449.57	1232.88
449.77	1251.31
449.98	1361.90
450.18	1320.94
450.39	1232.88
450.59	1230.83
450.79	1253.36
451.00	1249.26
451.20	1116.14
451.41	1245.16
451.61	1220.59
451.81	1318.89
452.02	1247.21
452.22	1257.45
452.43	1322.99
452.63	1292.27
452.84	1236.97
453.04	1302.51
453.24	1249.26
453.45	1271.79
453.65	1232.88
453.86	1353.71
454.06	1314.80
454.26	1288.17
454.47	1329.13
454.67	1290.22
454.87	1253.36
455.08	1290.22
455.28	1216.49
455.49	1290.22
455.69	1322.99
455.89	1306.60
456.10	1302.51
456.30	1312.75
456.51	1247.21
456.71	1216.49
456.91	1322.99
457.12	1288.17
457.32	1261.55
457.52	1273.84
457.73	1290.22
457.93	1277.93
458.14	1234.93
458.34	1204.21
458.54	1273.84
458.75	1206.25
458.95	1308.65
459.15	1304.56
459.36	1279.98
459.56	1302.51
459.76	1288.17
459.97	1279.98
460.17	1312.75
460.37	1216.49
460.58	1216.49
460.78	1337.32
460.99	1222.64
461.19	1290.22
461.39	1187.82
461.60	1257.45
461.80	1310.70
462.00	1183.73
462.21	1243.12
462.41	1265.64
462.61	1257.45
462.82	1290.22
463.02	1202.16
463.22	1331.18
463.43	1267.69
463.63	1216.49
463.83	1253.36
464.04	1265.64
464.24	1245.16
464.44	1277.93
464.64	1284.08
464.85	1271.79
465.05	1298.41
465.25	1300.46
465.46	1298.41
465.66	1200.11
465.86	1255.40
466.07	1325.04
466.27	1230.83
466.47	1224.69
466.68	1279.98
466.88	1265.64
467.08	1296.36
467.29	1191.92
467.49	1308.65
467.69	1255.40
467.89	1261.55
468.10	1279.98
468.30	1318.89
468.50	1216.49
468.71	1298.41
468.91	1312.75
469.11	1191.92
469.31	1314.80
469.52	1308.65
469.72	1222.64
469.92	1263.60
470.13	1249.26
470.33	1232.88
470.53	1325.04
470.73	1245.16
470.94	1337.32
471.14	1312.75
471.34	1265.64
471.54	1234.93
471.75	1318.89
471.95	1302.51
472.15	1241.07
472.36	1310.70
472.56	1343.47
472.76	1212.40
472.96	1314.80
473.17	1282.03
473.37	1329.13
473.57	1282.03
473.77	1312.75
473.98	1337.32
474.18	1306.60
474.38	1257.45
474.58	1265.64
474.79	1286.12
474.99	1275.88
475.19	1306.60
475.39	1312.75
475.60	1320.94
475.80	1255.40
476.00	1271.79
476.20	1249.26
476.41	1232.88
476.61	1277.93
476.81	1279.98
477.01	1286.12
477.21	1232.88
477.42	1269.74
477.62	1249.26
477.82	1308.65
478.02	1257.45
478.23	1236.97
478.43	1288.17
478.63	1314.80
478.83	1279.98
479.03	1327.08
479.24	1312.75
479.44	1312.75
479.64	1325.04
479.84	1343.47
480.04	1243.12
480.25	1304.56
480.45	1288.17
480.65	1318.89
480.85	1310.70
481.06	1222.64
481.26	1247.21
481.46	1308.65
481.66	1306.60
481.86	1255.40
482.06	1292.27
482.27	1222.64
482.47	1335.28
482.67	1320.94
482.87	1218.54
483.07	1228.78
483.28	1255.40
483.48	1337.32
483.68	1236.97
483.88	1251.31
484.08	1222.64
484.29	1327.08
484.49	1187.82
484.69	1259.50
484.89	1210.35
485.09	1257.45
485.29	1284.08
485.50	1308.65
485.70	1234.93
485.90	1290.22
486.10	1263.60
486.30	1290.22
486.50	1294.32
486.71	1267.69
486.91	1255.40
487.11	1316.84
487.31	1234.93
487.51	1282.03
487.71	1196.01
487.91	1239.02
488.12	1241.07
488.32	1286.12
488.52	1257.45
488.72	1243.12
488.92	1306.60
489.12	1249.26
489.32	1290.22
489.53	1298.41
489.73	1286.12
489.93	1292.27
490.13	1279.98
490.33	1273.84
490.53	1212.40
490.73	1288.17
490.94	1243.12
491.14	1255.40
491.34	1300.46
491.54	1271.79
491.74	1277.93
491.94	1208.30
492.14	1312.75
492.34	1325.04
492.54	1306.60
492.75	1282.03
492.95	1310.70
493.15	1308.65
493.35	1322.99
493.55	1368.04
493.75	1300.46
493.95	1292.27
494.15	1314.80
494.35	1284.08
494.56	1247.21
494.76	1308.65
494.96	1286.12
495.16	1269.74
495.36	1243.12
495.56	1249.26
495.76	1222.64
495.96	1210.35
496.16	1236.97
496.36	1226.73
496.56	1259.50
496.77	1282.03
496.97	1335.28
497.17	1261.55
497.37	1302.51
497.57	1275.88
497.77	1322.99
497.97	1325.04
498.17	1257.45
498.37	1243.12
498.57	1275.88
498.77	1230.83
498.97	1220.59
499.17	1296.36
499.38	1222.64
499.58	1271.79
499.78	1243.12
499.98	1273.84
500.18	1247.21
500.38	1193.97
500.58	1331.18
500.78	1331.18
500.98	1298.41
501.18	1296.36
501.38	1304.56
501.58	1271.79
501.78	1159.15
501.98	1216.49
502.18	1355.76
502.38	1282.03
502.58	1290.22
502.78	1208.30
502.98	1257.45
503.18	1222.64
503.38	1271.79
503.59	1253.36
503.79	1282.03
503.99	1247.21
504.19	1329.13
504.39	1271.79
504.59	1261.55
504.79	1239.02
504.99	1316.84
505.19	1269.74
505.39	1257.45
505.59	1282.03
505.79	1314.80
505.99	1282.03
506.19	1290.22
506.39	1255.40
506.59	1314.80
506.79	1247.21
506.99	1298.41
507.19	1314.80
507.39	1261.55
507.59	1284.08
507.79	1284.08
507.99	1239.02
508.19	1255.40
508.39	1290.22
508.59	1322.99
508.79	1275.88
508.99	1265.64
509.19	1288.17
509.39	1275.88
509.59	1294.32
509.79	1259.50
509.99	1271.79
510.19	1249.26
510.39	1292.27
510.59	1271.79
510.79	1224.69
510.99	1286.12
511.19	1320.94
511.39	1308.65
511.59	1249.26
511.79	1339.37
511.99	1265.64
512.19	1335.28
512.38	1232.88
512.58	1230.83
512.78	1255.40
512.98	1224.69
513.18	1253.36
513.38	1318.89
513.58	1273.84
513.78	1333.23
513.98	1298.41
514.18	1310.70
514.38	1282.03
514.58	1263.60
514.78	1228.78
514.98	1263.60
515.18	1253.36
515.38	1325.04
515.58	1286.12
515.78	1222.64
515.98	1245.16
516.18	1290.22
516.38	1384.43
516.57	1224.69
516.77	1189.87
516.97	1310.70
517.17	1210.35
517.37	1261.55
517.57	1374.19
517.77	1300.46
517.97	1224.69
518.17	1200.11
518.37	1273.84
518.57	1210.35
518.77	1251.31
518.97	1271.79
519.16	1314.80
519.36	1304.56
519.56	1320.94
519.76	1253.36
519.96	1282.03
520.16	1273.84
520.36	1290.22
520.56	1282.03
520.76	1275.88
520.96	1329.13
521.16	1300.46
521.35	1300.46
521.55	1316.84
521.75	1239.02
521.95	1306.60
522.15	1277.93
522.35	1316.84
522.55	1271.79
522.75	1243.12
522.95	1269.74
523.14	1245.16
523.34	1261.55
523.54	1259.50
523.74	1292.27
523.94	1310.70
524.14	1165.29
524.34	1267.69
524.54	1279.98
524.73	1249.26
524.93	1310.70
525.13	1275.88
525.33	1294.32
525.53	1232.88
525.73	1267.69
525.93	1245.16
526.13	1251.31
526.32	1325.04
526.52	1271.79
526.72	1279.98
526.92	1286.12
527.12	1284.08
527.32	1228.78
527.52	1257.45
527.71	1300.46
527.91	1290.22
528.11	1290.22
528.31	1245.16
528.51	1298.41
528.71	1282.03
528.90	1275.88
529.10	1241.07
529.30	1284.08
529.50	1288.17
529.70	1267.69
529.90	1341.42
530.09	1236.97
530.29	1292.27
530.49	1327.08
530.69	1341.42
530.89	1288.17
531.09	1196.01
531.28	1290.22
531.48	1261.55
531.68	1292.27
531.88	1222.64
532.08	1339.37
532.28	1300.46
532.47	1294.32
532.67	1304.56
532.87	1304.56
533.07	1318.89
533.27	1249.26
533.46	1288.17
533.66	1296.36
533.86	1273.84
534.06	1284.08
534.26	1341.42
534.45	1253.36
534.65	1191.92
534.85	1308.65
535.05	1275.88
535.25	1337.32
535.44	1189.87
535.64	1224.69
535.84	1286.12
536.04	1277.93
536.24	1337.32
536.43	1279.98
536.63	1239.02
536.83	1257.45
537.03	1282.03
537.22	1259.50
537.42	1257.45
537.62	1325.04
537.82	1361.90
538.02	1310.70
538.21	1304.56
538.41	1206.25
538.61	1329.13
538.81	1204.21
539.00	1279.98
539.20	1239.02
539.40	1232.88
539.60	1279.98
539.79	1298.41
539.99	1298.41
540.19	1298.41
540.39	1247.21
540.58	1302.51
540.78	1304.56
540.98	1228.78
541.18	1290.22
541.37	1320.94
541.57	1226.73
541.77	1279.98
541.97	1253.36
542.16	1331.18
542.36	1294.32
542.56	1247.21
542.76	1279.98
542.95	1322.99
543.15	1261.55
543.35	1267.69
543.54	1239.02
543.74	1230.83
543.94	1288.17
544.14	1312.75
544.33	1243.12
544.53	1288.17
544.73	1247.21
544.93	1241.07
545.12	1320.94
545.32	1275.88
545.52	1257.45
545.71	1249.26
545.91	1271.79
546.11	1222.64
546.30	1290.22
546.50	1314.80
546.70	1322.99
546.90	1314.80
547.09	1228.78
547.29	1241.07
547.49	1261.55
547.68	1325.04
547.88	1243.12
548.08	1288.17
548.27	1259.50
548.47	1236.97
548.67	1277.93
548.87	1267.69
549.06	1251.31
549.26	1347.56
549.46	1226.73
549.65	1398.76
549.85	1318.89
550.05	1304.56
550.24	1247.21
550.44	1345.52
550.64	1228.78
550.83	1296.36
551.03	1296.36
551.23	1282.03
551.42	1341.42
551.62	1269.74
551.82	1351.66
552.01	1294.32
552.21	1288.17
552.41	1277.93
552.60	1243.12
552.80	1247.21
553.00	1187.82
553.19	1312.75
553.39	1271.79
553.59	1288.17
553.78	1304.56
553.98	1298.41
554.17	1245.16
554.37	1345.52
554.57	1300.46
554.76	1368.04
554.96	1228.78
555.16	1353.71
555.35	1269.74
555.55	1267.69
555.75	1267.69
555.94	1339.37
556.14	1286.12
556.33	1331.18
556.53	1275.88
556.73	1294.32
556.92	1312.75
557.12	1261.55
557.32	1335.28
557.51	1228.78
557.71	1263.60
557.90	1320.94
558.10	1245.16
558.30	1210.35
558.49	1294.32
558.69	1245.16
558.88	1236.97
559.08	1271.79
559.28	1255.40
559.47	1279.98
559.67	1282.03
559.86	1304.56
560.06	1277.93
560.26	1290.22
560.45	1228.78
560.65	1196.01
560.84	1269.74
561.04	1282.03
561.24	1288.17
561.43	1269.74
561.63	1304.56
561.82	1200.11
562.02	1245.16
562.22	1306.60
562.41	1335.28
562.61	1341.42
562.80	1314.80
563.00	1271.79
563.19	1286.12
563.39	1265.64
563.59	1236.97
563.78	1294.32
563.98	1339.37
564.17	1286.12
564.37	1374.19
564.56	1335.28
564.76	1290.22
564.96	1265.64
565.15	1306.60
565.35	1226.73
565.54	1275.88
565.74	1318.89
565.93	1267.69
566.13	1294.32
566.32	1286.12
566.52	1286.12
566.71	1296.36
566.91	1263.60
567.11	1247.21
567.30	1318.89
567.50	1296.36
567.69	1290.22
567.89	1288.17
568.08	1314.80
568.28	1253.36
568.47	1267.69
568.67	1277.93
568.86	1308.65
569.06	1302.51
569.25	1277.93
569.45	1284.08
569.64	1327.08
569.84	1257.45
570.04	1296.36
570.23	1302.51
570.43	1271.79
570.62	1277.93
570.82	1265.64
571.01	1259.50
571.21	1273.84
571.40	1300.46
571.60	1382.38
571.79	1376.24
571.99	1288.17
572.18	1263.60
572.38	1304.56
572.57	1306.60
572.77	1202.16
572.96	1290.22
573.16	1267.69
573.35	1298.41
573.55	1353.71
573.74	1298.41
573.94	1282.03
574.13	1232.88
574.33	1273.84
574.52	1296.36
574.71	1286.12
574.91	1263.60
575.10	1300.46
575.30	1343.47
575.49	1312.75
575.69	1304.56
575.88	1296.36
576.08	1234.93
576.27	1300.46
576.47	1368.04
576.66	1263.60
576.86	1290.22
577.05	1312.75
577.25	1286.12
577.44	1236.97
577.64	1339.37
577.83	1198.06
578.02	1273.84
578.22	1339.37
578.41	1239.02
578.61	1355.76
578.80	1284.08
579.00	1288.17
579.19	1290.22
579.39	1212.40
579.58	1286.12
579.77	1241.07
579.97	1286.12
580.16	1361.90
580.36	1290.22
580.55	1273.84
580.75	1288.17
580.94	1267.69
581.13	1279.98
581.33	1304.56
581.52	1257.45
581.72	1284.08
581.91	1384.43
582.11	1316.84
582.30	1234.93
582.49	1282.03
582.69	1329.13
582.88	1302.51
583.08	1275.88
583.27	1316.84
583.47	1259.50
583.66	1314.80
583.85	1241.07
584.05	1347.56
584.24	1269.74
584.44	1232.88
584.63	1261.55
584.82	1310.70
585.02	1312.75
585.21	1339.37
585.41	1357.80
585.60	1304.56
585.79	1247.21
585.99	1308.65
586.18	1269.74
586.37	1304.56
586.57	1310.70
586.76	1267.69
586.96	1337.32
587.15	1202.16
587.34	1222.64
587.54	1286.12
587.73	1241.07
587.93	1269.74
588.12	1288.17
588.31	1208.30
588.51	1261.55
588.70	1173.49
588.89	1325.04
589.09	1288.17
589.28	1259.50
589.47	1267.69
589.67	1206.25
589.86	1349.61
590.06	1247.21
590.25	1273.84
590.44	1265.64
590.64	1286.12
590.83	1267.69
591.02	1306.60
591.22	1290.22
591.41	1294.32
591.60	1310.70
591.80	1312.75
591.99	1294.32
592.18	1230.83
592.38	1210.35
592.57	1267.69
592.76	1267.69
592.96	1267.69
593.15	1288.17
593.34	1337.32
593.54	1275.88
593.73	1226.73
593.92	1232.88
594.12	1279.98
594.31	1343.47
594.50	1232.88
594.70	1279.98
594.89	1224.69
595.08	1335.28
595.28	1275.88
595.47	1294.32
595.66	1361.90
595.86	1302.51
596.05	1247.21
596.24	1251.31
596.43	1325.04
596.63	1353.71
596.82	1251.31
597.01	1302.51
597.21	1394.67
597.40	1271.79
597.59	1241.07
597.79	1308.65
597.98	1300.46
598.17	1249.26
598.36	1286.12
598.56	1292.27
598.75	1304.56
598.94	1222.64
599.14	1249.26
599.33	1290.22
599.52	1300.46
599.71	1286.12
599.91	1251.31
600.10	1302.51
600.29	1343.47
600.48	1290.22
600.68	1243.12
600.87	1257.45
601.06	1345.52
601.26	1224.69
601.45	1261.55
601.64	1288.17
601.83	1312.75
602.03	1351.66
602.22	1275.88
602.41	1261.55
602.60	1273.84
602.80	1296.36
602.99	1316.84
603.18	1236.97
603.37	1351.66
603.57	1239.02
603.76	1290.22
603.95	1325.04
604.14	1322.99
604.34	1339.37
604.53	1275.88
604.72	1294.32
604.91	1239.02
605.10	1239.02
605.30	1263.60
605.49	1279.98
605.68	1290.22
605.87	1314.80
606.07	1234.93
606.26	1273.84
606.45	1337.32
606.64	1232.88
606.84	1304.56
607.03	1308.65
607.22	1325.04
607.41	1216.49
607.60	1288.17
607.80	1357.80
607.99	1263.60
608.18	1284.08
608.37	1294.32
608.56	1243.12
608.76	1351.66
608.95	1230.83
609.14	1314.80
609.33	1345.52
609.52	1329.13
609.72	1288.17
609.91	1277.93
610.10	1343.47
610.29	1290.22
610.48	1271.79
610.68	1275.88
610.87	1269.74
611.06	1290.22
611.25	1267.69
611.44	1286.12
611.63	1284.08
611.83	1298.41
612.02	1320.94
612.21	1292.27
612.40	1302.51
612.59	1241.07
612.79	1249.26
612.98	1333.23
613.17	1257.45
613.36	1263.60
613.55	1206.25
613.74	1273.84
613.93	1265.64
614.13	1292.27
614.32	1304.56
614.51	1331.18
614.70	1269.74
614.89	1265.64
615.08	1302.51
615.28	1327.08
615.47	1234.93
615.66	1300.46
615.85	1361.90
616.04	1308.65
616.23	1267.69
616.42	1337.32
616.62	1275.88
616.81	1292.27
617.00	1200.11
617.19	1296.36
617.38	1257.45
617.57	1298.41
617.76	1277.93
617.95	1288.17
618.15	1279.98
618.34	1234.93
618.53	1292.27
618.72	1234.93
618.91	1304.56
619.10	1349.61
619.29	1269.74
619.48	1257.45
619.68	1261.55
619.87	1320.94
620.06	1302.51
620.25	1275.88
620.44	1224.69
620.63	1204.21
620.82	1275.88
621.01	1310.70
621.20	1318.89
621.39	1208.30
621.59	1343.47
621.78	1298.41
621.97	1275.88
622.16	1218.54
622.35	1271.79
622.54	1294.32
622.73	1279.98
622.92	1304.56
623.11	1224.69
623.30	1265.64
623.49	1265.64
623.68	1224.69
623.88	1247.21
624.07	1345.52
624.26	1308.65
624.45	1255.40
624.64	1214.45
624.83	1251.31
625.02	1306.60
625.21	1286.12
625.40	1298.41
625.59	1294.32
625.78	1251.31
625.97	1322.99
626.16	1269.74
626.35	1320.94
626.54	1390.57
626.74	1320.94
626.93	1273.84
627.12	1325.04
627.31	1308.65
627.50	1329.13
627.69	1314.80
627.88	1279.98
628.07	1353.71
628.26	1333.23
628.45	1296.36
628.64	1331.18
628.83	1265.64
629.02	1302.51
629.21	1316.84
629.40	1208.30
629.59	1292.27
629.78	1368.04
629.97	1298.41
630.16	1247.21
630.35	1290.22
630.54	1271.79
630.73	1347.56
630.92	1339.37
631.11	1306.60
631.30	1347.56
631.49	1398.76
631.68	1566.70
631.87	1779.68
632.06	2240.48
632.25	1961.95
632.44	2084.83
632.63	2009.06
632.82	2037.73
633.01	2324.44
633.20	2197.47
633.39	2598.87
633.58	3215.31
633.77	3061.71
633.96	3487.69
634.15	6627.23
634.34	13055.80
634.53	19867.34
634.72	22425.26
634.91	20563.65
635.10	16117.51
635.29	10733.40
635.48	6905.75
635.67	4278.21
635.86	2828.24
636.05	2072.54
636.24	1665.00
636.43	1466.35
636.62	1353.71
636.81	1333.23
637.00	1417.19
637.19	1415.15
637.38	1275.88
637.57	1288.17
637.76	1353.71
637.95	1228.78
638.14	1355.76
638.33	1284.08
638.52	1306.60
638.71	1359.85
638.89	1374.19
639.08	1300.46
639.27	1310.70
639.46	1269.74
639.65	1384.43
639.84	1271.79
640.03	1275.88
640.22	1314.80
640.41	1249.26
640.60	1271.79
640.79	1247.21
640.98	1310.70
641.17	1286.12
641.36	1376.24
641.55	1294.32
641.74	1347.56
641.92	1271.79
642.11	1298.41
642.30	1294.32
642.49	1234.93
642.68	1234.93
642.87	1228.78
643.06	1263.60
643.25	1208.30
643.44	1212.40
643.63	1308.65
643.82	1263.60
644.00	1255.40
644.19	1282.03
644.38	1198.06
644.57	1306.60
644.76	1314.80
644.95	1316.84
645.14	1255.40
645.33	1273.84
645.52	1249.26
645.71	1259.50
645.89	1232.88
646.08	1331.18
646.27	1251.31
646.46	1310.70
646.65	1345.52
646.84	1253.36
647.03	1318.89
647.22	1241.07
647.40	1331.18
647.59	1304.56
647.78	1294.32
647.97	1236.97
648.16	1302.51
648.35	1322.99
648.54	1204.21
648.73	1284.08
648.91	1302.51
649.10	1290.22
649.29	1302.51
649.48	1296.36
649.67	1222.64
649.86	1273.84
650.05	1257.45
650.23	1243.12
650.42	1316.84
650.61	1255.40
650.80	1245.16
650.99	1259.50
651.18	1288.17
651.36	1239.02
651.55	1208.30
651.74	1300.46
651.93	1228.78
652.12	1296.36
652.31	1243.12
652.49	1372.14
652.68	1351.66
652.87	1273.84
653.06	1259.50
653.25	1290.22
653.44	1239.02
653.62	1331.18
653.81	1304.56
654.00	1331.18
654.19	1261.55
654.38	1269.74
654.56	1259.50
654.75	1249.26
654.94	1226.73
655.13	1212.40
655.32	1263.60
655.51	1273.84
655.69	1306.60
655.88	1249.26
656.07	1261.55
656.26	1241.07
656.45	1296.36
656.63	1265.64
656.82	1279.98
657.01	1275.88
657.20	1226.73
657.38	1320.94
657.57	1310.70
657.76	1249.26
657.95	1241.07
658.14	1286.12
658.32	1312.75
658.51	1312.75
658.70	1247.21
658.89	1265.64
659.08	1269.74
659.26	1273.84
659.45	1245.16
659.64	1290.22
659.83	1286.12
660.01	1277.93
660.20	1294.32
660.39	1228.78
660.58	1222.64
660.76	1347.56
660.95	1312.75
661.14	1249.26
661.33	1234.93
661.51	1269.74
661.70	1325.04
661.89	1320.94
662.08	1232.88
662.26	1265.64
662.45	1253.36
662.64	1271.79
662.83	1226.73
663.01	1275.88
663.20	1300.46
663.39	1314.80
663.58	1224.69
663.76	1306.60
663.95	1187.82
664.14	1257.45
664.32	1212.40
664.51	1255.40
664.70	1251.31
664.89	1314.80
665.07	1243.12
665.26	1292.27
665.45	1247.21
665.64	1320.94
665.82	1241.07
666.01	1232.88
666.20	1269.74
666.38	1236.97
666.57	1308.65
666.76	1255.40
666.95	1275.88
667.13	1241.07
667.32	1314.80
667.51	1249.26
667.69	1282.03
667.88	1189.87
668.07	1261.55
668.25	1232.88
668.44	1255.40
668.63	1284.08
668.81	1279.98
669.00	1273.84
669.19	1230.83
669.38	1325.04
669.56	1290.22
669.75	1296.36
669.94	1245.16
670.12	1304.56
670.31	1249.26
670.50	1298.41
670.68	1310.70
670.87	1267.69
671.06	1218.54
671.24	1216.49
671.43	1275.88
671.62	1245.16
671.80	1236.97
671.99	1261.55
672.18	1251.31
672.36	1228.78
672.55	1259.50
672.74	1253.36
672.92	1245.16
673.11	1200.11
673.29	1259.50
673.48	1265.64
673.67	1220.59
673.85	1249.26
674.04	1257.45
674.23	1251.31
674.41	1277.93
674.60	1230.83
674.79	1279.98
674.97	1251.31
675.16	1312.75
675.34	1261.55
675.53	1243.12
675.72	1230.83
675.90	1198.06
676.09	1267.69
676.28	1243.12
676.46	1282.03
676.65	1298.41
676.83	1290.22
677.02	1308.65
677.21	1277.93
677.39	1286.12
677.58	1228.78
677.77	1198.06
677.95	1261.55
678.14	1304.56
678.32	1218.54
678.51	1277.93
678.70	1265.64
678.88	1279.98
679.07	1288.17
679.25	1333.23
679.44	1335.28
679.63	1275.88
679.81	1284.08
680.00	1308.65
680.18	1200.11
680.37	1294.32
680.55	1269.74
680.74	1314.80
680.93	1265.64
681.11	1245.16
681.30	1228.78
681.48	1216.49
681.67	1353.71
681.85	1243.12
682.04	1257.45
682.23	1310.70
682.41	1275.88
682.60	1318.89
682.78	1298.41
682.97	1298.41
683.15	1265.64
683.34	1269.74
683.53	1331.18
683.71	1220.59
683.90	1247.21
684.08	1296.36
684.27	1284.08
684.45	1296.36
684.64	1316.84
684.82	1302.51
685.01	1271.79
685.19	1349.61
685.38	1214.45
685.57	1312.75
685.75	1243.12
685.94	1257.45
686.12	1271.79
686.31	1251.31
686.49	1230.83
686.68	1265.64
686.86	1288.17
687.05	1269.74
687.23	1271.79
687.42	1196.01
687.60	1318.89
687.79	1216.49
687.97	1310.70
688.16	1298.41
688.34	1224.69
688.53	1269.74
688.71	1275.88
688.90	1239.02
689.08	1284.08
689.27	1267.69
689.45	1271.79
689.64	1239.02
689.82	1288.17
690.01	1253.36
690.19	1314.80
690.38	1284.08
690.56	1279.98
690.75	1288.17
690.93	1265.64
691.12	1243.12
691.30	1306.60
691.49	1255.40
691.67	1189.87
691.86	1236.97
692.04	1220.59
692.23	1271.79
692.41	1241.07
692.60	1224.69
692.78	1253.36
692.97	1273.84
693.15	1249.26
693.34	1265.64
693.52	1263.60
693.71	1263.60
693.89	1193.97
694.08	1370.09
694.26	1282.03
694.44	1312.75
694.63	1286.12
694.81	1255.40
695.00	1273.84
695.18	1298.41
695.37	1314.80
695.55	1220.59
695.74	1288.17
695.92	1277.93
696.10	1304.56
696.29	1171.44
696.47	1316.84
696.66	1224.69
696.84	1288.17
697.03	1232.88
697.21	1343.47
697.40	1322.99
697.58	1284.08
697.76	1296.36
697.95	1282.03
698.13	1327.08
698.32	1261.55
698.50	1243.12
698.68	1222.64
698.87	1300.46
699.05	1265.64
699.24	1226.73
699.42	1253.36
699.61	1265.64
699.79	1292.27
699.97	1210.35
700.16	1308.65
700.34	1286.12
700.53	1257.45
700.71	1318.89
700.89	1279.98
701.08	1320.94
701.26	1247.21
701.45	1302.51
701.63	1232.88
701.81	1232.88
702.00	1284.08
702.18	1210.35
702.37	1247.21
702.55	1284.08
702.73	1308.65
702.92	1312.75
703.10	1282.03
703.28	1224.69
703.47	1275.88
703.65	1265.64
703.84	1275.88
704.02	1259.50
704.20	1226.73
704.39	1284.08
704.57	1286.12
704.75	1265.64
704.94	1230.83
705.12	1251.31
705.30	1200.11
705.49	1181.68
705.67	1277.93
705.86	1277.93
706.04	1284.08
706.22	1251.31
706.41	1290.22
706.59	1198.06
706.77	1271.79
706.96	1288.17
707.14	1294.32
707.32	1218.54
707.51	1349.61
707.69	1212.40
707.87	1228.78
708.06	1196.01
708.24	1368.04
708.42	1255.40
708.61	1245.16
708.79	1273.84
708.97	1210.35
709.16	1267.69
709.34	1275.88
709.52	1249.26
709.71	1292.27
709.89	1316.84
710.07	1247.21
710.26	1263.60
710.44	1249.26
710.62	1247.21
710.80	1206.25
710.99	1230.83
711.17	1282.03
711.35	1204.21
711.54	1253.36
711.72	1267.69
711.90	1282.03
712.09	1261.55
712.27	1288.17
712.45	1216.49
712.63	1249.26
712.82	1183.73
713.00	1284.08
713.18	1243.12
713.37	1249.26
713.55	1353.71
713.73	1177.58
713.91	1247.21
714.10	1206.25
714.28	1343.47
714.46	1255.40
714.65	1265.64
714.83	1310.70
715.01	1253.36
715.19	1277.93
715.38	1318.89
715.56	1259.50
715.74	1271.79
715.92	1255.40
716.11	1249.26
716.29	1202.16
716.47	1249.26
716.65	1310.70
716.84	1230.83
717.02	1265.64
717.20	1273.84
717.38	1355.76
717.57	1292.27
717.75	1200.11
717.93	1236.97
718.11	1329.13
718.30	1251.31
718.48	1302.51
718.66	1288.17
718.84	1218.54
719.03	1251.31
719.21	1212.40
719.39	1284.08
719.57	1275.88
719.75	1284.08
719.94	1214.45
720.12	1267.69
720.30	1224.69
720.48	1204.21
720.67	1300.46
720.85	1216.49
721.03	1249.26
721.21	1234.93
721.39	1239.02
721.58	1271.79
721.76	1224.69
721.94	1306.60
722.12	1247.21
722.30	1300.46
722.49	1302.51
722.67	1286.12
722.85	1284.08
723.03	1253.36
723.21	1228.78
723.40	1232.88
723.58	1286.12
723.76	1304.56
723.94	1349.61
724.12	1220.59
724.30	1271.79
724.49	1249.26
724.67	1198.06
724.85	1249.26
725.03	1310.70
725.21	1243.12
725.40	1361.90
725.58	1300.46
725.76	1265.64
725.94	1263.60
726.12	1232.88
726.30	1269.74
726.49	1292.27
726.67	1314.80
726.85	1249.26
727.03	1253.36
727.21	1361.90
727.39	1302.51
727.57	1304.56
727.76	1271.79
727.94	1388.52
728.12	1269.74
728.30	1318.89
728.48	1265.64
728.66	1222.64
728.84	1175.53
729.03	1241.07
729.21	1255.40
729.39	1304.56
729.57	1191.92
729.75	1239.02
729.93	1277.93
730.11	1193.97
730.30	1255.40
730.48	1255.40
730.66	1228.78
730.84	1263.60
731.02	1251.31
731.20	1298.41
731.38	1196.01
731.56	1292.27
731.74	1208.30
731.93	1316.84
732.11	1253.36
732.29	1298.41
732.47	1247.21
732.65	1312.75
732.83	1226.73
733.01	1279.98
733.19	1206.25
733.37	1314.80
733.56	1257.45
733.74	1265.64
733.92	1206.25
734.10	1333.23
734.28	1298.41
734.46	1216.49
734.64	1245.16
734.82	1259.50
735.00	1275.88
735.18	1253.36
735.36	1275.88
735.54	1257.45
735.73	1282.03
735.91	1212.40
736.09	1275.88
736.27	1265.64
736.45	1251.31
736.63	1243.12
736.81	1261.55
736.99	1304.56
737.17	1374.19
737.35	1236.97
737.53	1169.39
737.71	1249.26
737.89	1298.41
738.07	1288.17
738.25	1249.26
738.43	1220.59
738.61	1267.69
738.80	1206.25
738.98	1169.39
739.16	1263.60
739.34	1277.93
739.52	1265.64
739.70	1206.25
739.88	1290.22
740.06	1306.60
740.24	1320.94
740.42	1318.89
740.60	1269.74
740.78	1255.40
740.96	1275.88
741.14	1316.84
741.32	1310.70
741.50	1300.46
741.68	1249.26
741.86	1261.55
742.04	1239.02
742.22	1257.45
742.40	1265.64
742.58	1290.22
742.76	1325.04
742.94	1245.16
743.12	1271.79
743.30	1300.46
743.48	1286.12
743.66	1251.31
743.84	1259.50
744.02	1298.41
744.20	1282.03
744.38	1290.22
744.56	1282.03
744.74	1288.17
744.92	1251.31
745.10	1263.60
745.28	1288.17
745.46	1251.31
745.64	1232.88
745.82	1271.79
746.00	1279.98
746.18	1300.46
746.36	1271.79
746.54	1212.40
746.72	1251.31
746.90	1261.55
747.08	1298.41
747.26	1320.94
747.44	1275.88
747.62	1253.36
747.80	1275.88
747.98	1210.35
748.15	1279.98
748.33	1257.45
748.51	1279.98
748.69	1306.60
748.87	1247.21
749.05	1302.51
749.23	1294.32
749.41	1222.64
749.59	1269.74
749.77	1271.79
749.95	1310.70
750.13	1282.03
750.31	1327.08
750.49	1234.93
750.67	1310.70
750.85	1335.28
751.03	1214.45
751.20	1210.35
751.38	1226.73
751.56	1245.16
751.74	1273.84
751.92	1259.50
752.10	1249.26
752.28	1282.03
752.46	1296.36
752.64	1212.40
752.82	1243.12
753.00	1267.69
753.18	1241.07
753.35	1286.12
753.53	1298.41
753.71	1294.32
753.89	1241.07
754.07	1265.64
754.25	1296.36
754.43	1218.54
754.61	1298.41
754.79	1273.84
754.97	1310.70
755.14	1290.22
755.32	1269.74
755.50	1382.38
755.68	1247.21
755.86	1273.84
756.04	1296.36
756.22	1255.40
756.40	1325.04
756.57	1284.08
756.75	1241.07
756.93	1290.22
757.11	1171.44
757.29	1277.93
757.47	1196.01
757.65	1292.27
757.82	1320.94
758.00	1216.49
758.18	1273.84
758.36	1298.41
758.54	1314.80
758.72	1261.55
758.90	1296.36
759.07	1247.21
759.25	1310.70
759.43	1253.36
759.61	1249.26
759.79	1316.84
759.97	1282.03
760.15	1259.50
760.32	1286.12
760.50	1222.64
760.68	1226.73
760.86	1257.45
761.04	1247.21
761.22	1265.64
761.39	1247.21
761.57	1267.69
761.75	1193.97
761.93	1302.51
762.11	1284.08
762.28	1263.60
762.46	1296.36
762.64	1187.82
762.82	1216.49
763.00	1312.75
763.18	1306.60
763.35	1263.60
763.53	1271.79
763.71	1255.40
763.89	1282.03
764.07	1189.87
764.24	1247.21
764.42	1322.99
764.60	1269.74
764.78	1202.16
764.96	1241.07
765.13	1261.55
765.31	1314.80
765.49	1208.30
765.67	1284.08
765.84	1327.08
766.02	1290.22
766.20	1275.88
766.38	1273.84
766.56	1259.50
766.73	1296.36
766.91	1204.21
767.09	1271.79
767.27	1257.45
767.44	1222.64
767.62	1222.64
767.80	1277.93
767.98	1247.21
768.15	1253.36
768.33	1294.32
768.51	1341.42
768.69	1253.36
768.87	1329.13
769.04	1261.55
769.22	1273.84
769.40	1224.69
769.58	1292.27
769.75	1306.60
769.93	1222.64
770.11	1339.37
770.28	1222.64
770.46	1226.73
770.64	1308.65
770.82	1275.88
770.99	1279.98
771.17	1269.74
771.35	1261.55
771.53	1259.50
771.70	1257.45
771.88	1310.70
772.06	1245.16
772.23	1210.35
772.41	1206.25
772.59	1269.74
772.77	1292.27
772.94	1275.88
773.12	1142.77
773.30	1222.64
773.47	1290.22
773.65	1282.03
773.83	1290.22
774.01	1329.13
774.18	1331.18
774.36	1226.73
774.54	1200.11
774.71	1257.45
774.89	1155.05
775.07	1306.60
775.24	1251.31
775.42	1226.73
775.60	1294.32
775.78	1288.17
775.95	1232.88
776.13	1279.98
776.31	1249.26
776.48	1171.44
776.66	1257.45
776.84	1232.88
777.01	1249.26
777.19	1275.88
777.37	1316.84
777.54	1300.46
777.72	1269.74
777.90	1236.97
778.07	1200.11
778.25	1245.16
778.43	1296.36
778.60	1241.07
778.78	1261.55
778.96	1290.22
779.13	1318.89
779.31	1269.74
779.49	1232.88
779.66	1329.13
779.84	1222.64
780.01	1169.39
780.19	1310.70
780.37	1339.37
780.54	1314.80
780.72	1259.50
780.90	1298.41
781.07	1296.36
781.25	1337.32
781.43	1261.55
781.60	1239.02
781.78	1253.36
781.95	1265.64
782.13	1269.74
782.31	1208.30
782.48	1257.45
782.66	1267.69
782.83	1322.99
783.01	1269.74
783.19	1277.93
783.36	1271.79
783.54	1236.97
783.72	1284.08
783.89	1275.88
784.07	1318.89
784.24	1333.23
784.42	1296.36
784.60	1245.16
784.77	1236.97
784.95	1214.45
785.12	1341.42
785.30	1208.30
785.47	1286.12
785.65	1269.74
785.83	1267.69
786.00	1290.22
786.18	1249.26
786.35	1239.02
786.53	1425.39
786.71	1310.70
786.88	1290.22
787.06	1222.64
787.23	1286.12
787.41	1267.69
787.58	1290.22
787.76	1288.17
787.94	1200.11
788.11	1245.16
788.29	1294.32
788.46	1298.41
788.64	1296.36
788.81	1355.76
788.99	1341.42
789.16	1198.06
789.34	1222.64
789.52	1218.54
789.69	1263.60
789.87	1325.04
790.04	1224.69
790.22	1245.16
790.39	1257.45
790.57	1200.11
790.74	1232.88
790.92	1335.28
791.09	1245.16
791.27	1263.60
791.44	1302.51
791.62	1216.49
791.79	1245.16
791.97	1222.64
792.15	1271.79
792.32	1298.41
792.50	1222.64
792.67	1282.03
792.85	1286.12
793.02	1339.37
793.20	1318.89
793.37	1267.69
793.55	1275.88
793.72	1366.00
793.90	1316.84
794.07	1218.54
794.25	1277.93
794.42	1261.55
794.60	1175.53
794.77	1241.07
794.95	1255.40
795.12	1322.99
795.30	1300.46
795.47	1236.97
795.65	1310.70
795.82	1290.22
796.00	1189.87
796.17	1284.08
796.34	1232.88
796.52	1259.50
796.69	1239.02
796.87	1255.40
797.04	1298.41
797.22	1210.35
797.39	1308.65
797.57	1341.42
797.74	1282.03
797.92	1265.64
798.09	1279.98
798.27	1185.77
798.44	1282.03
798.62	1230.83
798.79	1314.80
798.96	1249.26
799.14	1257.45
799.31	1265.64
799.49	1279.98
799.66	1273.84
799.84	1234.93
800.01	1259.50
800.19	1300.46
800.36	1271.79
800.53	1263.60
800.71	1279.98
800.88	1261.55
801.06	1288.17
801.23	1361.90
801.41	1316.84
801.58	1322.99
801.75	1261.55
801.93	1239.02
802.10	1267.69
802.28	1294.32
802.45	1318.89
802.63	1263.60
802.80	1236.97
802.97	1279.98
803.15	1245.16
803.32	1347.56
803.50	1259.50
803.67	1267.69
803.84	1273.84
804.02	1263.60
804.19	1230.83
804.37	1267.69
804.54	1279.98
804.71	1263.60
804.89	1304.56
805.06	1193.97
805.24	1263.60
805.41	1259.50
805.58	1216.49
805.76	1304.56
805.93	1253.36
806.10	1220.59
806.28	1349.61
806.45	1243.12
806.63	1374.19
806.80	1259.50
806.97	1294.32
807.15	1241.07
807.32	1271.79
807.49	1273.84
807.67	1228.78
807.84	1257.45
808.01	1259.50
808.19	1322.99
808.36	1208.30
808.54	1320.94
808.71	1230.83
808.88	1292.27
809.06	1308.65
809.23	1265.64
809.40	1249.26
809.58	1304.56
809.75	1273.84
809.92	1267.69
810.10	1257.45
810.27	1255.40
810.44	1292.27
810.62	1343.47
810.79	1220.59
810.96	1275.88
811.14	1247.21
811.31	1261.55
811.48	1232.88
811.66	1222.64
811.83	1224.69
812.00	1257.45
812.18	1220.59
812.35	1265.64
812.52	1249.26
812.69	1257.45
812.87	1271.79
813.04	1306.60
813.21	1341.42
813.39	1257.45
813.56	1263.60
813.73	1294.32
813.91	1261.55
814.08	1290.22
814.25	1294.32
814.42	1208.30
814.60	1273.84
814.77	1288.17
814.94	1337.32
815.12	1308.65
815.29	1279.98
815.46	1239.02
815.63	1216.49
815.81	1284.08
815.98	1255.40
816.15	1333.23
816.33	1265.64
816.50	1239.02
816.67	1230.83
816.84	1290.22
817.02	1222.64
817.19	1206.25
817.36	1325.04
817.53	1288.17
817.71	1230.83
817.88	1292.27
818.05	1325.04
818.22	1251.31
818.40	1304.56
818.57	1234.93
818.74	1284.08
818.91	1310.70
819.09	1310.70
819.26	1226.73
819.43	1236.97
819.60	1255.40
819.78	1273.84
819.95	1288.17
820.12	1300.46
820.29	1312.75
820.47	1220.59
820.64	1204.21
820.81	1267.69
820.98	1298.41
821.15	1265.64
821.33	1282.03
821.50	1232.88
821.67	1216.49
821.84	1210.35
822.02	1228.78
822.19	1302.51
822.36	1253.36
822.53	1302.51
822.70	1241.07
822.88	1234.93
823.05	1290.22
823.22	1243.12
823.39	1247.21
823.56	1198.06
823.74	1302.51
823.91	1329.13
824.08	1347.56
824.25	1257.45
824.42	1284.08
824.60	1322.99
824.77	1259.50
824.94	1292.27
825.11	1269.74
825.28	1290.22
825.45	1239.02
825.63	1282.03
825.80	1298.41
825.97	1316.84
826.14	1173.49
826.31	1206.25
826.48	1302.51
826.66	1230.83
826.83	1263.60
827.00	1265.64
827.17	1218.54
827.34	1253.36
827.51	1251.31
827.69	1249.26
827.86	1243.12
828.03	1228.78
828.20	1234.93
828.37	1335.28
828.54	1290.22
828.71	1228.78
828.89	1257.45
829.06	1239.02
829.23	1271.79
829.40	1292.27
829.57	1282.03
829.74	1224.69
829.91	1290.22
830.09	1210.35
830.26	1234.93
830.43	1243.12
830.60	1183.73
830.77	1294.32
830.94	1189.87
831.11	1292.27
831.28	1251.31
831.46	1275.88
831.63	1290.22
831.80	1273.84
831.97	1228.78
832.14	1245.16
832.31	1263.60
832.48	1183.73
832.65	1183.73
832.82	1226.73
832.99	1251.31
833.17	1273.84
833.34	1202.16
833.51	1253.36
833.68	1193.97
833.85	1212.40
834.02	1193.97
834.19	1284.08
834.36	1214.45
834.53	1286.12
834.70	1222.64
834.87	1302.51
835.04	1187.82
835.22	1263.60
835.39	1294.32
835.56	1271.79
835.73	1247.21
835.90	1220.59
836.07	1329.13
836.24	1296.36
836.41	1275.88
836.58	1288.17
836.75	1224.69
836.92	1232.88
837.09	1228.78
837.26	1241.07
837.43	1163.25
837.60	1259.50
837.77	1241.07
837.94	1224.69
838.12	1296.36
838.29	1296.36
838.46	1312.75
838.63	1232.88
838.80	1282.03
838.97	1214.45
839.14	1210.35
839.31	1286.12
839.48	1271.79
839.65	1261.55
839.82	1331.18
839.99	1269.74
840.16	1312.75
840.33	1351.66
840.50	1255.40
840.67	1263.60
840.84	1241.07
841.01	1298.41
841.18	1261.55
841.35	1243.12
841.52	1267.69
841.69	1257.45
841.86	1327.08
842.03	1304.56
842.20	1300.46
842.37	1183.73
842.54	1247.21
842.71	1288.17
842.88	1214.45
843.05	1286.12
843.22	1259.50
843.39	1279.98
843.56	1310.70
843.73	1243.12
843.90	1243.12
844.07	1239.02
844.24	1284.08
844.41	1298.41
844.58	1230.83
844.75	1261.55
844.92	1294.32
845.09	1249.26
845.26	1290.22
845.43	1212.40
845.60	1247.21
845.77	1329.13
845.94	1335.28
846.10	1251.31
846.27	1247.21
846.44	1236.97
846.61	1327.08
846.78	1302.51
846.95	1271.79
847.12	1249.26
847.29	1288.17
847.46	1279.98
847.63	1263.60
847.80	1290.22
847.97	1179.63
848.14	1284.08
848.31	1245.16
848.48	1263.60
848.65	1196.01
848.82	1261.55
848.98	1224.69
849.15	1271.79
849.32	1279.98
849.49	1249.26
849.66	1296.36
849.83	1216.49
850.00	1251.31
850.17	1249.26
850.34	1312.75
850.51	1282.03
850.68	1191.92
850.85	1232.88
851.01	1263.60
851.18	1259.50
851.35	1308.65
851.52	1296.36
851.69	1232.88
851.86	1230.83
852.03	1288.17
852.20	1202.16
852.37	1300.46
852.53	1245.16
852.70	1273.84
852.87	1325.04
853.04	1298.41
853.21	1318.89
853.38	1279.98
853.55	1269.74
853.72	1290.22
853.89	1304.56
854.05	1337.32
854.22	1249.26
854.39	1208.30
854.56	1343.47
854.73	1314.80
854.90	1282.03
855.07	1140.72
855.23	1253.36
855.40	1245.16
855.57	1302.51
855.74	1294.32
855.91	1230.83
856.08	1236.97
856.25	1271.79
856.41	1320.94
856.58	1306.60
856.75	1232.88
856.92	1269.74
857.09	1222.64
857.26	1329.13
857.42	1234.93
857.59	1294.32
857.76	1222.64
857.93	1288.17
858.10	1269.74
858.27	1286.12
858.43	1206.25
858.60	1314.80
858.77	1241.07
858.94	1292.27
859.11	1263.60
859.27	1337.32
859.44	1308.65
859.61	1290.22
859.78	1312.75
859.95	1269.74
860.12	1329.13
860.28	1275.88
860.45	1224.69
860.62	1220.59
860.79	1333.23
860.95	1271.79
861.12	1249.26
861.29	1216.49
861.46	1263.60
861.63	1298.41
861.79	1267.69
861.96	1230.83
862.13	1228.78
862.30	1284.08
862.47	1345.52
862.63	1218.54
862.80	1337.32
862.97	1302.51
863.14	1245.16
863.30	1226.73
863.47	1239.02
863.64	1226.73
863.81	1263.60
863.97	1239.02
864.14	1329.13
864.31	1282.03
864.48	1296.36
864.65	1257.45
864.81	1345.52
864.98	1265.64
865.15	1249.26
865.32	1247.21
865.48	1239.02
865.65	1263.60
865.82	1189.87
865.98	1298.41
866.15	1308.65
866.32	1226.73
866.49	1161.20
866.65	1298.41
866.82	1316.84
866.99	1255.40
867.16	1241.07
867.32	1224.69
867.49	1279.98
867.66	1263.60
867.83	1259.50
867.99	1255.40
868.16	1288.17
868.33	1273.84
868.49	1271.79
868.66	1239.02
868.83	1290.22
868.99	1212.40
869.16	1261.55
869.33	1243.12
869.50	1267.69
869.66	1300.46
869.83	1298.41
870.00	1236.97
870.16	1245.16
870.33	1263.60
870.50	1318.89
870.66	1218.54
870.83	1310.70
871.00	1347.56
871.17	1224.69
871.33	1261.55
871.50	1294.32
871.67	1232.88
871.83	1253.36
872.00	1243.12
872.17	1284.08
872.33	1253.36
872.50	1316.84
872.67	1249.26
872.83	1241.07
873.00	1312.75
873.17	1300.46
873.33	1228.78
873.50	1265.64
873.67	1239.02
873.83	1290.22
874.00	1286.12
874.16	1236.97
874.33	1171.44
874.50	1269.74
874.66	1200.11
874.83	1224.69
875.00	1212.40
875.16	1220.59
875.33	1322.99
875.50	1259.50
875.66	1279.98
875.83	1298.41
875.99	1341.42
876.16	1314.80
876.33	1279.98
876.49	1220.59
876.66	1282.03
876.83	1249.26
876.99	1263.60
877.16	1257.45
877.32	1273.84
877.49	1277.93
877.66	1286.12
877.82	1230.83
877.99	1239.02
878.15	1261.55
878.32	1271.79
878.49	1253.36
878.65	1239.02
878.82	1314.80
878.98	1243.12
879.15	1304.56
879.32	1322.99
879.48	1296.36
879.65	1218.54
879.81	1271.79
879.98	1236.97
880.15	1175.53
880.31	1255.40
880.48	1273.84
880.64	1259.50
880.81	1318.89
880.97	1206.25
881.14	1296.36
881.31	1259.50
881.47	1177.58
881.64	1232.88
881.80	1216.49
881.97	1290.22
882.13	1312.75
882.30	1187.82
882.47	1245.16
882.63	1255.40
882.80	1150.96
882.96	1261.55
883.13	1380.33
883.29	1189.87
883.46	1249.26
883.62	1273.84
883.79	1296.36
883.95	1277.93
884.12	1290.22
884.29	1271.79
884.45	1261.55
884.62	1265.64
884.78	1212.40
884.95	1310.70
885.11	1275.88
885.28	1282.03
885.44	1239.02
885.61	1290.22
885.77	1294.32
885.94	1263.60
886.10	1284.08
886.27	1277.93
886.43	1296.36
886.60	1263.60
886.76	1331.18
886.93	1212.40
887.09	1306.60
887.26	1243.12
887.42	1329.13
887.59	1279.98
887.75	1228.78
887.92	1382.38
888.08	1224.69
888.25	1267.69
888.41	1331.18
888.58	1179.63
888.74	1271.79
888.91	1302.51
>>>>>End Processed Spectral Data<<<<<
