SpectraSuite Data File
++++++++++++++++++++++++++++++++++++
Date: Sun Apr 03 19:55:23 CEST 2016
User: root
Dark Spectrum Present: No
Reference Spectrum Present: No
Number of Sampled Component Spectra: 1
Spectrometers: USB4C02835
Integration Time (usec): 10000 (USB4C02835)
Spectra Averaged: 1 (USB4C02835)
Boxcar Smoothing: 0 (USB4C02835)
Correct for Electrical Dark: No (USB4C02835)
Strobe/Lamp Enabled: No (USB4C02835)
Correct for Detector Non-linearity: No (USB4C02835)
Correct for Stray Light: No (USB4C02835)
Number of Pixels in Processed Spectrum: 3648
>>>>>Begin Processed Spectral Data<<<<<
177.47	1269.74
177.69	1269.74
177.91	1269.74
178.13	1294.32
178.36	1282.03
178.58	1259.50
178.80	1206.25
179.02	1243.12
179.24	1232.88
179.46	1220.59
179.68	1259.50
179.90	1263.60
180.13	1279.98
180.35	1173.49
180.57	1269.74
180.79	1253.36
181.01	1230.83
181.23	1263.60
181.45	1329.13
181.67	1302.51
181.90	1275.88
182.12	1271.79
182.34	1271.79
182.56	1275.88
182.78	1230.83
183.00	1243.12
183.22	1265.64
183.44	1333.23
183.66	1325.04
183.89	1316.84
184.11	1257.45
184.33	1300.46
184.55	1202.16
184.77	1228.78
184.99	1320.94
185.21	1259.50
185.43	1269.74
185.65	1306.60
185.87	1275.88
186.10	1236.97
186.32	1271.79
186.54	1302.51
186.76	1202.16
186.98	1224.69
187.20	1232.88
187.42	1226.73
187.64	1253.36
187.86	1216.49
188.08	1241.07
188.30	1277.93
188.52	1273.84
188.75	1271.79
188.97	1316.84
189.19	1253.36
189.41	1269.74
189.63	1304.56
189.85	1212.40
190.07	1277.93
190.29	1245.16
190.51	1292.27
190.73	1243.12
190.95	1275.88
191.17	1271.79
191.39	1175.53
191.61	1236.97
191.84	1322.99
192.06	1322.99
192.28	1187.82
192.50	1267.69
192.72	1333.23
192.94	1261.55
193.16	1234.93
193.38	1212.40
193.60	1198.06
193.82	1222.64
194.04	1288.17
194.26	1282.03
194.48	1279.98
194.70	1234.93
194.92	1284.08
195.14	1290.22
195.36	1343.47
195.58	1241.07
195.80	1247.21
196.02	1234.93
196.24	1241.07
196.46	1292.27
196.69	1273.84
196.91	1286.12
197.13	1212.40
197.35	1308.65
197.57	1239.02
197.79	1292.27
198.01	1269.74
198.23	1224.69
198.45	1347.56
198.67	1257.45
198.89	1245.16
199.11	1253.36
199.33	1271.79
199.55	1249.26
199.77	1327.08
199.99	1294.32
200.21	1257.45
200.43	1269.74
200.65	1290.22
200.87	1259.50
201.09	1241.07
201.31	1265.64
201.53	1277.93
201.75	1261.55
201.97	1216.49
202.19	1331.18
202.41	1232.88
202.63	1308.65
202.85	1208.30
203.07	1253.36
203.29	1275.88
203.51	1294.32
203.73	1220.59
203.95	1232.88
204.17	1271.79
204.39	1290.22
204.61	1232.88
204.83	1232.88
205.05	1255.40
205.27	1304.56
205.49	1265.64
205.71	1251.31
205.93	1335.28
206.15	1216.49
206.37	1279.98
206.59	1265.64
206.81	1255.40
207.03	1249.26
207.25	1255.40
207.47	1269.74
207.69	1296.36
207.91	1265.64
208.13	1216.49
208.34	1255.40
208.56	1296.36
208.78	1202.16
209.00	1306.60
209.22	1204.21
209.44	1230.83
209.66	1322.99
209.88	1279.98
210.10	1279.98
210.32	1259.50
210.54	1341.42
210.76	1261.55
210.98	1163.25
211.20	1189.87
211.42	1304.56
211.64	1255.40
211.86	1277.93
212.08	1239.02
212.30	1284.08
212.52	1331.18
212.74	1273.84
212.96	1286.12
213.17	1271.79
213.39	1269.74
213.61	1314.80
213.83	1261.55
214.05	1239.02
214.27	1282.03
214.49	1239.02
214.71	1288.17
214.93	1230.83
215.15	1282.03
215.37	1232.88
215.59	1312.75
215.81	1329.13
216.03	1255.40
216.24	1304.56
216.46	1282.03
216.68	1157.10
216.90	1228.78
217.12	1269.74
217.34	1257.45
217.56	1275.88
217.78	1255.40
218.00	1298.41
218.22	1265.64
218.44	1269.74
218.66	1296.36
218.87	1279.98
219.09	1243.12
219.31	1310.70
219.53	1214.45
219.75	1200.11
219.97	1314.80
220.19	1296.36
220.41	1234.93
220.63	1310.70
220.85	1286.12
221.06	1312.75
221.28	1236.97
221.50	1236.97
221.72	1271.79
221.94	1284.08
222.16	1316.84
222.38	1306.60
222.60	1220.59
222.82	1312.75
223.03	1322.99
223.25	1226.73
223.47	1245.16
223.69	1230.83
223.91	1257.45
224.13	1218.54
224.35	1224.69
224.57	1183.73
224.78	1228.78
225.00	1316.84
225.22	1292.27
225.44	1206.25
225.66	1271.79
225.88	1263.60
226.10	1343.47
226.32	1312.75
226.53	1234.93
226.75	1267.69
226.97	1271.79
227.19	1261.55
227.41	1269.74
227.63	1208.30
227.85	1161.20
228.06	1306.60
228.28	1312.75
228.50	1261.55
228.72	1263.60
228.94	1243.12
229.16	1284.08
229.37	1255.40
229.59	1286.12
229.81	1279.98
230.03	1224.69
230.25	1230.83
230.47	1243.12
230.69	1325.04
230.90	1267.69
231.12	1210.35
231.34	1370.09
231.56	1282.03
231.78	1277.93
232.00	1253.36
232.21	1210.35
232.43	1290.22
232.65	1198.06
232.87	1296.36
233.09	1320.94
233.30	1279.98
233.52	1249.26
233.74	1296.36
233.96	1265.64
234.18	1277.93
234.40	1275.88
234.61	1210.35
234.83	1241.07
235.05	1243.12
235.27	1292.27
235.49	1212.40
235.70	1286.12
235.92	1247.21
236.14	1247.21
236.36	1275.88
236.58	1279.98
236.79	1249.26
237.01	1204.21
237.23	1302.51
237.45	1286.12
237.67	1273.84
237.88	1249.26
238.10	1277.93
238.32	1191.92
238.54	1255.40
238.76	1212.40
238.97	1304.56
239.19	1277.93
239.41	1261.55
239.63	1345.52
239.85	1318.89
240.06	1271.79
240.28	1298.41
240.50	1257.45
240.72	1236.97
240.93	1193.97
241.15	1282.03
241.37	1253.36
241.59	1316.84
241.81	1318.89
242.02	1259.50
242.24	1267.69
242.46	1259.50
242.68	1259.50
242.89	1206.25
243.11	1241.07
243.33	1251.31
243.55	1208.30
243.76	1273.84
243.98	1314.80
244.20	1273.84
244.42	1249.26
244.64	1200.11
244.85	1226.73
245.07	1243.12
245.29	1261.55
245.51	1282.03
245.72	1232.88
245.94	1306.60
246.16	1331.18
246.38	1228.78
246.59	1279.98
246.81	1214.45
247.03	1232.88
247.24	1220.59
247.46	1255.40
247.68	1253.36
247.90	1279.98
248.11	1249.26
248.33	1243.12
248.55	1273.84
248.77	1271.79
248.98	1267.69
249.20	1212.40
249.42	1187.82
249.64	1339.37
249.85	1249.26
250.07	1245.16
250.29	1257.45
250.50	1322.99
250.72	1292.27
250.94	1212.40
251.16	1345.52
251.37	1255.40
251.59	1269.74
251.81	1333.23
252.02	1265.64
252.24	1316.84
252.46	1325.04
252.68	1294.32
252.89	1185.77
253.11	1163.25
253.33	1296.36
253.54	1353.71
253.76	1314.80
253.98	1251.31
254.20	1335.28
254.41	1249.26
254.63	1247.21
254.85	1226.73
255.06	1304.56
255.28	1310.70
255.50	1251.31
255.71	1249.26
255.93	1304.56
256.15	1282.03
256.36	1253.36
256.58	1243.12
256.80	1218.54
257.02	1294.32
257.23	1269.74
257.45	1232.88
257.67	1337.32
257.88	1271.79
258.10	1243.12
258.32	1286.12
258.53	1253.36
258.75	1257.45
258.97	1349.61
259.18	1193.97
259.40	1187.82
259.62	1220.59
259.83	1294.32
260.05	1210.35
260.27	1273.84
260.48	1212.40
260.70	1239.02
260.92	1249.26
261.13	1298.41
261.35	1300.46
261.57	1206.25
261.78	1286.12
262.00	1306.60
262.22	1314.80
262.43	1316.84
262.65	1204.21
262.86	1265.64
263.08	1300.46
263.30	1212.40
263.51	1228.78
263.73	1189.87
263.95	1314.80
264.16	1288.17
264.38	1314.80
264.60	1210.35
264.81	1206.25
265.03	1275.88
265.25	1275.88
265.46	1267.69
265.68	1243.12
265.89	1261.55
266.11	1198.06
266.33	1271.79
266.54	1265.64
266.76	1253.36
266.98	1220.59
267.19	1284.08
267.41	1265.64
267.62	1294.32
267.84	1306.60
268.06	1236.97
268.27	1255.40
268.49	1292.27
268.70	1224.69
268.92	1288.17
269.14	1269.74
269.35	1261.55
269.57	1265.64
269.79	1290.22
270.00	1282.03
270.22	1271.79
270.43	1251.31
270.65	1316.84
270.87	1243.12
271.08	1226.73
271.30	1286.12
271.51	1294.32
271.73	1292.27
271.95	1236.97
272.16	1290.22
272.38	1277.93
272.59	1224.69
272.81	1288.17
273.02	1294.32
273.24	1279.98
273.46	1329.13
273.67	1208.30
273.89	1216.49
274.10	1331.18
274.32	1302.51
274.54	1257.45
274.75	1284.08
274.97	1261.55
275.18	1279.98
275.40	1253.36
275.61	1314.80
275.83	1279.98
276.05	1218.54
276.26	1249.26
276.48	1232.88
276.69	1200.11
276.91	1202.16
277.12	1361.90
277.34	1308.65
277.55	1296.36
277.77	1226.73
277.99	1198.06
278.20	1269.74
278.42	1267.69
278.63	1245.16
278.85	1230.83
279.06	1216.49
279.28	1232.88
279.49	1261.55
279.71	1300.46
279.93	1329.13
280.14	1355.76
280.36	1331.18
280.57	1298.41
280.79	1275.88
281.00	1214.45
281.22	1247.21
281.43	1349.61
281.65	1224.69
281.86	1236.97
282.08	1361.90
282.29	1241.07
282.51	1259.50
282.73	1249.26
282.94	1232.88
283.16	1269.74
283.37	1347.56
283.59	1257.45
283.80	1171.44
284.02	1204.21
284.23	1247.21
284.45	1245.16
284.66	1212.40
284.88	1277.93
285.09	1226.73
285.31	1322.99
285.52	1269.74
285.74	1322.99
285.95	1265.64
286.17	1191.92
286.38	1284.08
286.60	1259.50
286.81	1259.50
287.03	1255.40
287.24	1226.73
287.46	1286.12
287.67	1288.17
287.89	1255.40
288.10	1282.03
288.32	1247.21
288.53	1263.60
288.75	1253.36
288.96	1337.32
289.18	1282.03
289.39	1241.07
289.61	1298.41
289.82	1251.31
290.04	1279.98
290.25	1236.97
290.47	1277.93
290.68	1175.53
290.90	1271.79
291.11	1308.65
291.33	1241.07
291.54	1277.93
291.76	1239.02
291.97	1298.41
292.18	1288.17
292.40	1310.70
292.61	1206.25
292.83	1249.26
293.04	1267.69
293.26	1284.08
293.47	1214.45
293.69	1286.12
293.90	1216.49
294.12	1222.64
294.33	1277.93
294.55	1300.46
294.76	1292.27
294.97	1255.40
295.19	1259.50
295.40	1282.03
295.62	1284.08
295.83	1249.26
296.05	1298.41
296.26	1316.84
296.48	1208.30
296.69	1230.83
296.90	1230.83
297.12	1368.04
297.33	1292.27
297.55	1234.93
297.76	1288.17
297.98	1292.27
298.19	1351.66
298.41	1236.97
298.62	1265.64
298.83	1372.14
299.05	1312.75
299.26	1175.53
299.48	1296.36
299.69	1296.36
299.90	1253.36
300.12	1279.98
300.33	1247.21
300.55	1290.22
300.76	1306.60
300.98	1251.31
301.19	1345.52
301.40	1300.46
301.62	1300.46
301.83	1243.12
302.05	1284.08
302.26	1206.25
302.47	1198.06
302.69	1214.45
302.90	1249.26
303.12	1275.88
303.33	1269.74
303.54	1220.59
303.76	1265.64
303.97	1286.12
304.19	1282.03
304.40	1349.61
304.61	1320.94
304.83	1267.69
305.04	1290.22
305.26	1239.02
305.47	1335.28
305.68	1210.35
305.90	1298.41
306.11	1234.93
306.33	1322.99
306.54	1187.82
306.75	1255.40
306.97	1282.03
307.18	1318.89
307.39	1230.83
307.61	1331.18
307.82	1269.74
308.04	1290.22
308.25	1294.32
308.46	1277.93
308.68	1187.82
308.89	1284.08
309.10	1279.98
309.32	1277.93
309.53	1277.93
309.74	1284.08
309.96	1318.89
310.17	1288.17
310.39	1261.55
310.60	1296.36
310.81	1214.45
311.03	1263.60
311.24	1249.26
311.45	1263.60
311.67	1269.74
311.88	1296.36
312.09	1273.84
312.31	1185.77
312.52	1277.93
312.73	1275.88
312.95	1333.23
313.16	1331.18
313.37	1253.36
313.59	1239.02
313.80	1212.40
314.01	1310.70
314.23	1265.64
314.44	1224.69
314.65	1224.69
314.87	1257.45
315.08	1251.31
315.29	1241.07
315.51	1318.89
315.72	1224.69
315.93	1243.12
316.15	1222.64
316.36	1314.80
316.57	1204.21
316.79	1290.22
317.00	1236.97
317.21	1290.22
317.43	1251.31
317.64	1282.03
317.85	1296.36
318.07	1271.79
318.28	1253.36
318.49	1249.26
318.70	1279.98
318.92	1361.90
319.13	1269.74
319.34	1284.08
319.56	1265.64
319.77	1261.55
319.98	1236.97
320.20	1243.12
320.41	1216.49
320.62	1259.50
320.83	1255.40
321.05	1251.31
321.26	1263.60
321.47	1277.93
321.69	1312.75
321.90	1245.16
322.11	1251.31
322.32	1263.60
322.54	1312.75
322.75	1196.01
322.96	1267.69
323.18	1265.64
323.39	1232.88
323.60	1261.55
323.81	1406.95
324.03	1269.74
324.24	1247.21
324.45	1202.16
324.66	1191.92
324.88	1267.69
325.09	1302.51
325.30	1318.89
325.52	1255.40
325.73	1273.84
325.94	1243.12
326.15	1208.30
326.37	1218.54
326.58	1232.88
326.79	1245.16
327.00	1273.84
327.22	1296.36
327.43	1296.36
327.64	1341.42
327.85	1218.54
328.07	1249.26
328.28	1277.93
328.49	1322.99
328.70	1226.73
328.92	1269.74
329.13	1265.64
329.34	1243.12
329.55	1296.36
329.76	1296.36
329.98	1202.16
330.19	1265.64
330.40	1282.03
330.61	1273.84
330.83	1277.93
331.04	1277.93
331.25	1191.92
331.46	1228.78
331.68	1202.16
331.89	1245.16
332.10	1316.84
332.31	1273.84
332.52	1261.55
332.74	1335.28
332.95	1259.50
333.16	1255.40
333.37	1304.56
333.58	1267.69
333.80	1214.45
334.01	1279.98
334.22	1273.84
334.43	1355.76
334.64	1216.49
334.86	1257.45
335.07	1284.08
335.28	1288.17
335.49	1296.36
335.70	1271.79
335.92	1277.93
336.13	1298.41
336.34	1241.07
336.55	1239.02
336.76	1314.80
336.98	1265.64
337.19	1376.24
337.40	1275.88
337.61	1284.08
337.82	1251.31
338.04	1316.84
338.25	1247.21
338.46	1259.50
338.67	1198.06
338.88	1275.88
339.09	1228.78
339.31	1236.97
339.52	1277.93
339.73	1335.28
339.94	1298.41
340.15	1232.88
340.36	1222.64
340.58	1230.83
340.79	1292.27
341.00	1331.18
341.21	1236.97
341.42	1331.18
341.63	1339.37
341.85	1290.22
342.06	1288.17
342.27	1277.93
342.48	1228.78
342.69	1222.64
342.90	1286.12
343.12	1277.93
343.33	1226.73
343.54	1302.51
343.75	1263.60
343.96	1255.40
344.17	1292.27
344.38	1214.45
344.60	1181.68
344.81	1257.45
345.02	1271.79
345.23	1286.12
345.44	1226.73
345.65	1257.45
345.86	1251.31
346.07	1202.16
346.29	1232.88
346.50	1322.99
346.71	1241.07
346.92	1251.31
347.13	1374.19
347.34	1282.03
347.55	1198.06
347.76	1277.93
347.98	1216.49
348.19	1255.40
348.40	1265.64
348.61	1257.45
348.82	1255.40
349.03	1243.12
349.24	1279.98
349.45	1302.51
349.66	1320.94
349.88	1286.12
350.09	1296.36
350.30	1234.93
350.51	1277.93
350.72	1257.45
350.93	1259.50
351.14	1230.83
351.35	1198.06
351.56	1343.47
351.77	1279.98
351.99	1243.12
352.20	1282.03
352.41	1335.28
352.62	1273.84
352.83	1177.58
353.04	1269.74
353.25	1259.50
353.46	1228.78
353.67	1212.40
353.88	1243.12
354.09	1265.64
354.30	1359.85
354.52	1306.60
354.73	1306.60
354.94	1247.21
355.15	1267.69
355.36	1253.36
355.57	1259.50
355.78	1335.28
355.99	1288.17
356.20	1298.41
356.41	1284.08
356.62	1183.73
356.83	1241.07
357.04	1290.22
357.25	1206.25
357.46	1216.49
357.68	1218.54
357.89	1261.55
358.10	1341.42
358.31	1294.32
358.52	1318.89
358.73	1187.82
358.94	1191.92
359.15	1292.27
359.36	1271.79
359.57	1232.88
359.78	1304.56
359.99	1314.80
360.20	1273.84
360.41	1263.60
360.62	1257.45
360.83	1251.31
361.04	1247.21
361.25	1300.46
361.46	1343.47
361.67	1257.45
361.88	1206.25
362.09	1267.69
362.30	1251.31
362.51	1284.08
362.72	1288.17
362.93	1232.88
363.14	1226.73
363.35	1282.03
363.56	1261.55
363.78	1327.08
363.99	1267.69
364.20	1243.12
364.41	1296.36
364.62	1267.69
364.83	1257.45
365.04	1263.60
365.25	1249.26
365.46	1251.31
365.67	1241.07
365.88	1224.69
366.09	1247.21
366.30	1255.40
366.51	1263.60
366.72	1269.74
366.93	1165.29
367.14	1329.13
367.35	1286.12
367.56	1239.02
367.77	1308.65
367.98	1251.31
368.18	1298.41
368.39	1249.26
368.60	1236.97
368.81	1163.25
369.02	1292.27
369.23	1257.45
369.44	1179.63
369.65	1214.45
369.86	1318.89
370.07	1259.50
370.28	1165.29
370.49	1253.36
370.70	1255.40
370.91	1322.99
371.12	1269.74
371.33	1249.26
371.54	1331.18
371.75	1273.84
371.96	1245.16
372.17	1298.41
372.38	1200.11
372.59	1335.28
372.80	1245.16
373.01	1208.30
373.22	1267.69
373.43	1294.32
373.64	1179.63
373.85	1294.32
374.06	1257.45
374.26	1302.51
374.47	1304.56
374.68	1300.46
374.89	1224.69
375.10	1224.69
375.31	1343.47
375.52	1282.03
375.73	1257.45
375.94	1251.31
376.15	1322.99
376.36	1241.07
376.57	1226.73
376.78	1322.99
376.99	1206.25
377.20	1243.12
377.40	1288.17
377.61	1228.78
377.82	1265.64
378.03	1294.32
378.24	1269.74
378.45	1183.73
378.66	1220.59
378.87	1245.16
379.08	1210.35
379.29	1212.40
379.50	1298.41
379.71	1249.26
379.91	1245.16
380.12	1366.00
380.33	1255.40
380.54	1267.69
380.75	1304.56
380.96	1257.45
381.17	1279.98
381.38	1241.07
381.59	1312.75
381.80	1267.69
382.00	1243.12
382.21	1304.56
382.42	1247.21
382.63	1345.52
382.84	1222.64
383.05	1279.98
383.26	1169.39
383.47	1282.03
383.68	1243.12
383.88	1241.07
384.09	1263.60
384.30	1290.22
384.51	1308.65
384.72	1263.60
384.93	1236.97
385.14	1271.79
385.35	1294.32
385.55	1279.98
385.76	1216.49
385.97	1275.88
386.18	1310.70
386.39	1288.17
386.60	1320.94
386.81	1220.59
387.02	1255.40
387.22	1290.22
387.43	1228.78
387.64	1257.45
387.85	1292.27
388.06	1228.78
388.27	1259.50
388.48	1226.73
388.68	1202.16
388.89	1232.88
389.10	1181.68
389.31	1224.69
389.52	1271.79
389.73	1275.88
389.93	1253.36
390.14	1361.90
390.35	1226.73
390.56	1267.69
390.77	1214.45
390.98	1273.84
391.18	1306.60
391.39	1243.12
391.60	1263.60
391.81	1232.88
392.02	1290.22
392.23	1263.60
392.43	1318.89
392.64	1294.32
392.85	1282.03
393.06	1294.32
393.27	1435.63
393.47	1290.22
393.68	1310.70
393.89	1265.64
394.10	1304.56
394.31	1320.94
394.52	1273.84
394.72	1294.32
394.93	1261.55
395.14	1265.64
395.35	1169.39
395.56	1177.58
395.76	1263.60
395.97	1271.79
396.18	1345.52
396.39	1343.47
396.60	1261.55
396.80	1259.50
397.01	1333.23
397.22	1286.12
397.43	1234.93
397.64	1277.93
397.84	1261.55
398.05	1271.79
398.26	1249.26
398.47	1224.69
398.67	1243.12
398.88	1325.04
399.09	1286.12
399.30	1296.36
399.51	1275.88
399.71	1175.53
399.92	1277.93
400.13	1290.22
400.34	1298.41
400.54	1253.36
400.75	1228.78
400.96	1304.56
401.17	1253.36
401.37	1263.60
401.58	1339.37
401.79	1290.22
402.00	1320.94
402.21	1261.55
402.41	1316.84
402.62	1290.22
402.83	1284.08
403.04	1249.26
403.24	1296.36
403.45	1253.36
403.66	1318.89
403.87	1249.26
404.07	1241.07
404.28	1175.53
404.49	1275.88
404.70	1306.60
404.90	1271.79
405.11	1353.71
405.32	1298.41
405.52	1296.36
405.73	1304.56
405.94	1314.80
406.15	1318.89
406.35	1265.64
406.56	1296.36
406.77	1288.17
406.98	1191.92
407.18	1191.92
407.39	1325.04
407.60	1210.35
407.80	1220.59
408.01	1265.64
408.22	1279.98
408.43	1294.32
408.63	1298.41
408.84	1257.45
409.05	1296.36
409.25	1310.70
409.46	1228.78
409.67	1306.60
409.88	1267.69
410.08	1269.74
410.29	1275.88
410.50	1261.55
410.70	1331.18
410.91	1300.46
411.12	1241.07
411.32	1247.21
411.53	1302.51
411.74	1241.07
411.95	1265.64
412.15	1261.55
412.36	1302.51
412.57	1247.21
412.77	1228.78
412.98	1296.36
413.19	1269.74
413.39	1230.83
413.60	1304.56
413.81	1353.71
414.01	1230.83
414.22	1267.69
414.43	1314.80
414.63	1263.60
414.84	1304.56
415.05	1232.88
415.25	1269.74
415.46	1327.08
415.67	1271.79
415.87	1232.88
416.08	1306.60
416.29	1290.22
416.49	1263.60
416.70	1341.42
416.91	1249.26
417.11	1265.64
417.32	1294.32
417.53	1222.64
417.73	1212.40
417.94	1212.40
418.15	1255.40
418.35	1282.03
418.56	1308.65
418.77	1222.64
418.97	1286.12
419.18	1253.36
419.38	1318.89
419.59	1265.64
419.80	1251.31
420.00	1245.16
420.21	1288.17
420.42	1236.97
420.62	1200.11
420.83	1232.88
421.04	1214.45
421.24	1335.28
421.45	1265.64
421.65	1232.88
421.86	1230.83
422.07	1230.83
422.27	1327.08
422.48	1304.56
422.69	1263.60
422.89	1279.98
423.10	1353.71
423.30	1267.69
423.51	1337.32
423.72	1236.97
423.92	1273.84
424.13	1247.21
424.33	1265.64
424.54	1263.60
424.75	1239.02
424.95	1310.70
425.16	1236.97
425.36	1316.84
425.57	1294.32
425.78	1259.50
425.98	1216.49
426.19	1183.73
426.39	1292.27
426.60	1234.93
426.81	1335.28
427.01	1282.03
427.22	1284.08
427.42	1249.26
427.63	1257.45
427.83	1218.54
428.04	1273.84
428.25	1261.55
428.45	1312.75
428.66	1304.56
428.86	1282.03
429.07	1236.97
429.28	1187.82
429.48	1273.84
429.69	1222.64
429.89	1146.86
430.10	1290.22
430.30	1271.79
430.51	1226.73
430.71	1259.50
430.92	1263.60
431.13	1355.76
431.33	1302.51
431.54	1343.47
431.74	1253.36
431.95	1279.98
432.15	1212.40
432.36	1282.03
432.56	1261.55
432.77	1187.82
432.98	1255.40
433.18	1355.76
433.39	1284.08
433.59	1255.40
433.80	1267.69
434.00	1325.04
434.21	1279.98
434.41	1208.30
434.62	1226.73
434.82	1243.12
435.03	1275.88
435.23	1247.21
435.44	1306.60
435.64	1202.16
435.85	1247.21
436.06	1271.79
436.26	1263.60
436.47	1210.35
436.67	1253.36
436.88	1212.40
437.08	1308.65
437.29	1265.64
437.49	1275.88
437.70	1224.69
437.90	1263.60
438.11	1234.93
438.31	1310.70
438.52	1265.64
438.72	1222.64
438.93	1220.59
439.13	1247.21
439.34	1284.08
439.54	1302.51
439.75	1216.49
439.95	1335.28
440.16	1187.82
440.36	1230.83
440.57	1247.21
440.77	1257.45
440.98	1241.07
441.18	1251.31
441.39	1335.28
441.59	1249.26
441.80	1292.27
442.00	1277.93
442.21	1241.07
442.41	1298.41
442.62	1257.45
442.82	1282.03
443.02	1290.22
443.23	1261.55
443.43	1353.71
443.64	1306.60
443.84	1181.68
444.05	1279.98
444.25	1243.12
444.46	1288.17
444.66	1329.13
444.87	1202.16
445.07	1251.31
445.28	1228.78
445.48	1267.69
445.69	1300.46
445.89	1271.79
446.09	1232.88
446.30	1222.64
446.50	1263.60
446.71	1261.55
446.91	1304.56
447.12	1198.06
447.32	1253.36
447.53	1284.08
447.73	1304.56
447.93	1368.04
448.14	1302.51
448.34	1306.60
448.55	1249.26
448.75	1257.45
448.96	1273.84
449.16	1267.69
449.36	1288.17
449.57	1269.74
449.77	1304.56
449.98	1304.56
450.18	1249.26
450.39	1241.07
450.59	1273.84
450.79	1241.07
451.00	1208.30
451.20	1298.41
451.41	1271.79
451.61	1241.07
451.81	1343.47
452.02	1220.59
452.22	1275.88
452.43	1298.41
452.63	1423.34
452.84	1206.25
453.04	1265.64
453.24	1277.93
453.45	1265.64
453.65	1228.78
453.86	1294.32
454.06	1273.84
454.26	1325.04
454.47	1239.02
454.67	1282.03
454.87	1267.69
455.08	1282.03
455.28	1363.95
455.49	1331.18
455.69	1271.79
455.89	1241.07
456.10	1316.84
456.30	1224.69
456.51	1255.40
456.71	1271.79
456.91	1198.06
457.12	1282.03
457.32	1282.03
457.52	1255.40
457.73	1269.74
457.93	1234.93
458.14	1314.80
458.34	1337.32
458.54	1298.41
458.75	1267.69
458.95	1255.40
459.15	1304.56
459.36	1298.41
459.56	1327.08
459.76	1337.32
459.97	1298.41
460.17	1269.74
460.37	1269.74
460.58	1304.56
460.78	1279.98
460.99	1314.80
461.19	1253.36
461.39	1282.03
461.60	1267.69
461.80	1263.60
462.00	1269.74
462.21	1236.97
462.41	1300.46
462.61	1308.65
462.82	1265.64
463.02	1279.98
463.22	1316.84
463.43	1265.64
463.63	1347.56
463.83	1263.60
464.04	1327.08
464.24	1249.26
464.44	1296.36
464.64	1267.69
464.85	1320.94
465.05	1310.70
465.25	1298.41
465.46	1314.80
465.66	1271.79
465.86	1284.08
466.07	1204.21
466.27	1275.88
466.47	1314.80
466.68	1265.64
466.88	1302.51
467.08	1347.56
467.29	1236.97
467.49	1204.21
467.69	1243.12
467.89	1294.32
468.10	1275.88
468.30	1239.02
468.50	1322.99
468.71	1259.50
468.91	1243.12
469.11	1239.02
469.31	1308.65
469.52	1241.07
469.72	1302.51
469.92	1269.74
470.13	1361.90
470.33	1302.51
470.53	1310.70
470.73	1234.93
470.94	1355.76
471.14	1204.21
471.34	1282.03
471.54	1273.84
471.75	1292.27
471.95	1220.59
472.15	1263.60
472.36	1286.12
472.56	1306.60
472.76	1269.74
472.96	1255.40
473.17	1236.97
473.37	1222.64
473.57	1261.55
473.77	1247.21
473.98	1263.60
474.18	1302.51
474.38	1282.03
474.58	1239.02
474.79	1273.84
474.99	1335.28
475.19	1331.18
475.39	1282.03
475.60	1312.75
475.80	1269.74
476.00	1279.98
476.20	1265.64
476.41	1206.25
476.61	1245.16
476.81	1220.59
477.01	1200.11
477.21	1292.27
477.42	1290.22
477.62	1255.40
477.82	1296.36
478.02	1312.75
478.23	1259.50
478.43	1239.02
478.63	1314.80
478.83	1259.50
479.03	1253.36
479.24	1245.16
479.44	1302.51
479.64	1300.46
479.84	1271.79
480.04	1218.54
480.25	1284.08
480.45	1214.45
480.65	1206.25
480.85	1277.93
481.06	1241.07
481.26	1271.79
481.46	1302.51
481.66	1273.84
481.86	1292.27
482.06	1261.55
482.27	1226.73
482.47	1298.41
482.67	1249.26
482.87	1267.69
483.07	1271.79
483.28	1296.36
483.48	1204.21
483.68	1298.41
483.88	1226.73
484.08	1218.54
484.29	1271.79
484.49	1331.18
484.69	1292.27
484.89	1241.07
485.09	1273.84
485.29	1269.74
485.50	1333.23
485.70	1294.32
485.90	1273.84
486.10	1318.89
486.30	1259.50
486.50	1222.64
486.71	1290.22
486.91	1271.79
487.11	1302.51
487.31	1282.03
487.51	1265.64
487.71	1253.36
487.91	1329.13
488.12	1245.16
488.32	1253.36
488.52	1206.25
488.72	1222.64
488.92	1294.32
489.12	1208.30
489.32	1257.45
489.53	1273.84
489.73	1275.88
489.93	1273.84
490.13	1298.41
490.33	1357.80
490.53	1296.36
490.73	1277.93
490.94	1234.93
491.14	1208.30
491.34	1335.28
491.54	1247.21
491.74	1210.35
491.94	1329.13
492.14	1259.50
492.34	1230.83
492.54	1271.79
492.75	1232.88
492.95	1279.98
493.15	1300.46
493.35	1236.97
493.55	1302.51
493.75	1282.03
493.95	1318.89
494.15	1290.22
494.35	1259.50
494.56	1320.94
494.76	1314.80
494.96	1216.49
495.16	1294.32
495.36	1294.32
495.56	1316.84
495.76	1214.45
495.96	1224.69
496.16	1284.08
496.36	1277.93
496.56	1314.80
496.77	1212.40
496.97	1191.92
497.17	1271.79
497.37	1193.97
497.57	1355.76
497.77	1239.02
497.97	1282.03
498.17	1363.95
498.37	1292.27
498.57	1275.88
498.77	1269.74
498.97	1255.40
499.17	1304.56
499.38	1251.31
499.58	1294.32
499.78	1298.41
499.98	1241.07
500.18	1292.27
500.38	1318.89
500.58	1298.41
500.78	1282.03
500.98	1269.74
501.18	1245.16
501.38	1245.16
501.58	1265.64
501.78	1271.79
501.98	1232.88
502.18	1282.03
502.38	1232.88
502.58	1357.80
502.78	1290.22
502.98	1288.17
503.18	1306.60
503.38	1247.21
503.59	1288.17
503.79	1259.50
503.99	1245.16
504.19	1288.17
504.39	1249.26
504.59	1265.64
504.79	1251.31
504.99	1273.84
505.19	1300.46
505.39	1292.27
505.59	1347.56
505.79	1277.93
505.99	1298.41
506.19	1267.69
506.39	1333.23
506.59	1263.60
506.79	1294.32
506.99	1333.23
507.19	1241.07
507.39	1335.28
507.59	1308.65
507.79	1277.93
507.99	1296.36
508.19	1286.12
508.39	1286.12
508.59	1179.63
508.79	1339.37
508.99	1290.22
509.19	1306.60
509.39	1269.74
509.59	1226.73
509.79	1239.02
509.99	1349.61
510.19	1286.12
510.39	1312.75
510.59	1257.45
510.79	1351.66
510.99	1306.60
511.19	1306.60
511.39	1212.40
511.59	1296.36
511.79	1312.75
511.99	1279.98
512.19	1277.93
512.38	1314.80
512.58	1220.59
512.78	1271.79
512.98	1298.41
513.18	1329.13
513.38	1253.36
513.58	1208.30
513.78	1257.45
513.98	1351.66
514.18	1275.88
514.38	1298.41
514.58	1333.23
514.78	1282.03
514.98	1253.36
515.18	1320.94
515.38	1290.22
515.58	1331.18
515.78	1325.04
515.98	1263.60
516.18	1249.26
516.38	1255.40
516.57	1234.93
516.77	1263.60
516.97	1304.56
517.17	1265.64
517.37	1300.46
517.57	1277.93
517.77	1306.60
517.97	1275.88
518.17	1261.55
518.37	1386.47
518.57	1230.83
518.77	1296.36
518.97	1267.69
519.16	1263.60
519.36	1255.40
519.56	1314.80
519.76	1269.74
519.96	1308.65
520.16	1214.45
520.36	1300.46
520.56	1392.62
520.76	1218.54
520.96	1239.02
521.16	1343.47
521.35	1310.70
521.55	1310.70
521.75	1249.26
521.95	1292.27
522.15	1286.12
522.35	1243.12
522.55	1214.45
522.75	1247.21
522.95	1251.31
523.14	1267.69
523.34	1300.46
523.54	1251.31
523.74	1302.51
523.94	1279.98
524.14	1304.56
524.34	1286.12
524.54	1286.12
524.73	1261.55
524.93	1312.75
525.13	1298.41
525.33	1269.74
525.53	1331.18
525.73	1279.98
525.93	1327.08
526.13	1294.32
526.32	1302.51
526.52	1265.64
526.72	1232.88
526.92	1325.04
527.12	1353.71
527.32	1245.16
527.52	1279.98
527.71	1253.36
527.91	1325.04
528.11	1304.56
528.31	1310.70
528.51	1241.07
528.71	1288.17
528.90	1288.17
529.10	1269.74
529.30	1386.47
529.50	1302.51
529.70	1380.33
529.90	1279.98
530.09	1267.69
530.29	1279.98
530.49	1267.69
530.69	1249.26
530.89	1257.45
531.09	1312.75
531.28	1275.88
531.48	1249.26
531.68	1353.71
531.88	1265.64
532.08	1304.56
532.28	1257.45
532.47	1277.93
532.67	1298.41
532.87	1183.73
533.07	1265.64
533.27	1298.41
533.46	1282.03
533.66	1255.40
533.86	1265.64
534.06	1306.60
534.26	1366.00
534.45	1243.12
534.65	1273.84
534.85	1265.64
535.05	1261.55
535.25	1232.88
535.44	1273.84
535.64	1316.84
535.84	1322.99
536.04	1224.69
536.24	1269.74
536.43	1273.84
536.63	1320.94
536.83	1257.45
537.03	1304.56
537.22	1253.36
537.42	1216.49
537.62	1343.47
537.82	1292.27
538.02	1298.41
538.21	1204.21
538.41	1275.88
538.61	1222.64
538.81	1314.80
539.00	1304.56
539.20	1253.36
539.40	1228.78
539.60	1279.98
539.79	1302.51
539.99	1265.64
540.19	1312.75
540.39	1275.88
540.58	1216.49
540.78	1304.56
540.98	1253.36
541.18	1263.60
541.37	1288.17
541.57	1249.26
541.77	1245.16
541.97	1220.59
542.16	1337.32
542.36	1239.02
542.56	1245.16
542.76	1308.65
542.95	1275.88
543.15	1302.51
543.35	1349.61
543.54	1230.83
543.74	1320.94
543.94	1302.51
544.14	1282.03
544.33	1290.22
544.53	1337.32
544.73	1247.21
544.93	1261.55
545.12	1251.31
545.32	1277.93
545.52	1247.21
545.71	1368.04
545.91	1236.97
546.11	1296.36
546.30	1259.50
546.50	1271.79
546.70	1222.64
546.90	1269.74
547.09	1269.74
547.29	1294.32
547.49	1265.64
547.68	1247.21
547.88	1208.30
548.08	1286.12
548.27	1368.04
548.47	1284.08
548.67	1277.93
548.87	1333.23
549.06	1212.40
549.26	1249.26
549.46	1284.08
549.65	1257.45
549.85	1290.22
550.05	1351.66
550.24	1259.50
550.44	1275.88
550.64	1261.55
550.83	1208.30
551.03	1243.12
551.23	1306.60
551.42	1320.94
551.62	1351.66
551.82	1263.60
552.01	1335.28
552.21	1261.55
552.41	1243.12
552.60	1236.97
552.80	1255.40
553.00	1277.93
553.19	1306.60
553.39	1249.26
553.59	1273.84
553.78	1335.28
553.98	1298.41
554.17	1308.65
554.37	1282.03
554.57	1318.89
554.76	1261.55
554.96	1245.16
555.16	1279.98
555.35	1230.83
555.55	1290.22
555.75	1255.40
555.94	1255.40
556.14	1314.80
556.33	1234.93
556.53	1208.30
556.73	1318.89
556.92	1306.60
557.12	1298.41
557.32	1298.41
557.51	1322.99
557.71	1366.00
557.90	1187.82
558.10	1306.60
558.30	1345.52
558.49	1275.88
558.69	1245.16
558.88	1366.00
559.08	1208.30
559.28	1273.84
559.47	1230.83
559.67	1312.75
559.86	1308.65
560.06	1226.73
560.26	1214.45
560.45	1263.60
560.65	1288.17
560.84	1282.03
561.04	1351.66
561.24	1267.69
561.43	1253.36
561.63	1374.19
561.82	1265.64
562.02	1296.36
562.22	1327.08
562.41	1298.41
562.61	1359.85
562.80	1296.36
563.00	1339.37
563.19	1302.51
563.39	1296.36
563.59	1224.69
563.78	1273.84
563.98	1312.75
564.17	1322.99
564.37	1282.03
564.56	1241.07
564.76	1247.21
564.96	1228.78
565.15	1290.22
565.35	1257.45
565.54	1284.08
565.74	1314.80
565.93	1296.36
566.13	1265.64
566.32	1259.50
566.52	1298.41
566.71	1318.89
566.91	1271.79
567.11	1284.08
567.30	1271.79
567.50	1329.13
567.69	1204.21
567.89	1318.89
568.08	1290.22
568.28	1306.60
568.47	1263.60
568.67	1277.93
568.86	1314.80
569.06	1353.71
569.25	1302.51
569.45	1290.22
569.64	1241.07
569.84	1214.45
570.04	1271.79
570.23	1234.93
570.43	1265.64
570.62	1286.12
570.82	1294.32
571.01	1210.35
571.21	1306.60
571.40	1277.93
571.60	1269.74
571.79	1251.31
571.99	1286.12
572.18	1306.60
572.38	1327.08
572.57	1292.27
572.77	1290.22
572.96	1351.66
573.16	1318.89
573.35	1312.75
573.55	1339.37
573.74	1273.84
573.94	1296.36
574.13	1327.08
574.33	1331.18
574.52	1306.60
574.71	1347.56
574.91	1267.69
575.10	1226.73
575.30	1247.21
575.49	1257.45
575.69	1271.79
575.88	1247.21
576.08	1304.56
576.27	1269.74
576.47	1337.32
576.66	1335.28
576.86	1275.88
577.05	1259.50
577.25	1288.17
577.44	1290.22
577.64	1271.79
577.83	1290.22
578.02	1189.87
578.22	1302.51
578.41	1277.93
578.61	1255.40
578.80	1236.97
579.00	1273.84
579.19	1185.77
579.39	1288.17
579.58	1275.88
579.77	1316.84
579.97	1279.98
580.16	1304.56
580.36	1230.83
580.55	1376.24
580.75	1282.03
580.94	1271.79
581.13	1292.27
581.33	1327.08
581.52	1304.56
581.72	1261.55
581.91	1300.46
582.11	1298.41
582.30	1247.21
582.49	1261.55
582.69	1300.46
582.88	1277.93
583.08	1351.66
583.27	1286.12
583.47	1210.35
583.66	1331.18
583.85	1265.64
584.05	1300.46
584.24	1234.93
584.44	1363.95
584.63	1337.32
584.82	1214.45
585.02	1284.08
585.21	1255.40
585.41	1253.36
585.60	1341.42
585.79	1327.08
585.99	1314.80
586.18	1220.59
586.37	1267.69
586.57	1288.17
586.76	1304.56
586.96	1269.74
587.15	1349.61
587.34	1290.22
587.54	1255.40
587.73	1232.88
587.93	1279.98
588.12	1255.40
588.31	1228.78
588.51	1263.60
588.70	1345.52
588.89	1308.65
589.09	1269.74
589.28	1275.88
589.47	1288.17
589.67	1271.79
589.86	1341.42
590.06	1300.46
590.25	1259.50
590.44	1226.73
590.64	1345.52
590.83	1306.60
591.02	1329.13
591.22	1261.55
591.41	1265.64
591.60	1228.78
591.80	1335.28
591.99	1333.23
592.18	1314.80
592.38	1273.84
592.57	1304.56
592.76	1296.36
592.96	1333.23
593.15	1300.46
593.34	1263.60
593.54	1284.08
593.73	1279.98
593.92	1257.45
594.12	1267.69
594.31	1228.78
594.50	1298.41
594.70	1288.17
594.89	1316.84
595.08	1284.08
595.28	1284.08
595.47	1288.17
595.66	1265.64
595.86	1263.60
596.05	1253.36
596.24	1249.26
596.43	1232.88
596.63	1257.45
596.82	1269.74
597.01	1298.41
597.21	1259.50
597.40	1314.80
597.59	1263.60
597.79	1296.36
597.98	1329.13
598.17	1218.54
598.36	1310.70
598.56	1253.36
598.75	1239.02
598.94	1269.74
599.14	1306.60
599.33	1284.08
599.52	1251.31
599.71	1259.50
599.91	1308.65
600.10	1196.01
600.29	1284.08
600.48	1310.70
600.68	1296.36
600.87	1265.64
601.06	1318.89
601.26	1304.56
601.45	1359.85
601.64	1249.26
601.83	1300.46
602.03	1359.85
602.22	1261.55
602.41	1294.32
602.60	1247.21
602.80	1208.30
602.99	1302.51
603.18	1316.84
603.37	1236.97
603.57	1298.41
603.76	1290.22
603.95	1261.55
604.14	1316.84
604.34	1222.64
604.53	1230.83
604.72	1212.40
604.91	1298.41
605.10	1339.37
605.30	1226.73
605.49	1263.60
605.68	1361.90
605.87	1335.28
606.07	1226.73
606.26	1159.15
606.45	1345.52
606.64	1241.07
606.84	1271.79
607.03	1243.12
607.22	1314.80
607.41	1257.45
607.60	1279.98
607.80	1320.94
607.99	1175.53
608.18	1294.32
608.37	1331.18
608.56	1300.46
608.76	1263.60
608.95	1239.02
609.14	1314.80
609.33	1306.60
609.52	1312.75
609.72	1300.46
609.91	1279.98
610.10	1259.50
610.29	1261.55
610.48	1275.88
610.68	1302.51
610.87	1314.80
611.06	1230.83
611.25	1224.69
611.44	1310.70
611.63	1263.60
611.83	1351.66
612.02	1267.69
612.21	1294.32
612.40	1351.66
612.59	1320.94
612.79	1253.36
612.98	1275.88
613.17	1314.80
613.36	1273.84
613.55	1314.80
613.74	1265.64
613.93	1263.60
614.13	1253.36
614.32	1263.60
614.51	1333.23
614.70	1277.93
614.89	1312.75
615.08	1263.60
615.28	1292.27
615.47	1304.56
615.66	1277.93
615.85	1286.12
616.04	1273.84
616.23	1224.69
616.42	1243.12
616.62	1232.88
616.81	1329.13
617.00	1325.04
617.19	1298.41
617.38	1222.64
617.57	1265.64
617.76	1243.12
617.95	1218.54
618.15	1275.88
618.34	1327.08
618.53	1359.85
618.72	1267.69
618.91	1277.93
619.10	1318.89
619.29	1251.31
619.48	1306.60
619.68	1296.36
619.87	1247.21
620.06	1325.04
620.25	1230.83
620.44	1220.59
620.63	1265.64
620.82	1296.36
621.01	1341.42
621.20	1212.40
621.39	1208.30
621.59	1288.17
621.78	1288.17
621.97	1261.55
622.16	1357.80
622.35	1265.64
622.54	1226.73
622.73	1275.88
622.92	1310.70
623.11	1322.99
623.30	1271.79
623.49	1259.50
623.68	1302.51
623.88	1304.56
624.07	1306.60
624.26	1249.26
624.45	1310.70
624.64	1243.12
624.83	1202.16
625.02	1284.08
625.21	1353.71
625.40	1236.97
625.59	1339.37
625.78	1314.80
625.97	1279.98
626.16	1366.00
626.35	1288.17
626.54	1257.45
626.74	1247.21
626.93	1277.93
627.12	1239.02
627.31	1298.41
627.50	1345.52
627.69	1290.22
627.88	1243.12
628.07	1314.80
628.26	1271.79
628.45	1325.04
628.64	1269.74
628.83	1257.45
629.02	1263.60
629.21	1325.04
629.40	1306.60
629.59	1335.28
629.78	1259.50
629.97	1322.99
630.16	1236.97
630.35	1331.18
630.54	1327.08
630.73	1282.03
630.92	1372.14
631.11	1304.56
631.30	1409.00
631.49	1382.38
631.68	1474.54
631.87	1638.38
632.06	1839.08
632.25	1603.56
632.44	1724.39
632.63	1728.49
632.82	1976.29
633.01	2279.39
633.20	1953.76
633.39	1947.62
633.58	2066.40
633.77	2150.37
633.96	1984.48
634.15	1953.76
634.34	2009.06
634.53	1980.39
634.72	1912.80
634.91	1767.40
635.10	1810.40
635.29	1781.73
635.48	1734.63
635.67	1677.29
635.86	1687.53
636.05	1562.60
636.24	1470.44
636.43	1349.61
636.62	1443.82
636.81	1314.80
637.00	1388.52
637.19	1325.04
637.38	1345.52
637.57	1333.23
637.76	1312.75
637.95	1329.13
638.14	1357.80
638.33	1267.69
638.52	1312.75
638.71	1339.37
638.89	1222.64
639.08	1312.75
639.27	1245.16
639.46	1402.86
639.65	1279.98
639.84	1298.41
640.03	1277.93
640.22	1341.42
640.41	1216.49
640.60	1232.88
640.79	1257.45
640.98	1308.65
641.17	1263.60
641.36	1339.37
641.55	1320.94
641.74	1253.36
641.92	1363.95
642.11	1267.69
642.30	1277.93
642.49	1300.46
642.68	1286.12
642.87	1296.36
643.06	1253.36
643.25	1314.80
643.44	1275.88
643.63	1265.64
643.82	1292.27
644.00	1271.79
644.19	1273.84
644.38	1257.45
644.57	1171.44
644.76	1279.98
644.95	1322.99
645.14	1263.60
645.33	1325.04
645.52	1284.08
645.71	1259.50
645.89	1271.79
646.08	1282.03
646.27	1200.11
646.46	1273.84
646.65	1298.41
646.84	1236.97
647.03	1298.41
647.22	1310.70
647.40	1243.12
647.59	1288.17
647.78	1335.28
647.97	1277.93
648.16	1308.65
648.35	1222.64
648.54	1255.40
648.73	1261.55
648.91	1282.03
649.10	1261.55
649.29	1290.22
649.48	1327.08
649.67	1355.76
649.86	1318.89
650.05	1302.51
650.23	1220.59
650.42	1228.78
650.61	1222.64
650.80	1290.22
650.99	1263.60
651.18	1265.64
651.36	1282.03
651.55	1218.54
651.74	1226.73
651.93	1241.07
652.12	1245.16
652.31	1322.99
652.49	1251.31
652.68	1271.79
652.87	1314.80
653.06	1257.45
653.25	1282.03
653.44	1261.55
653.62	1314.80
653.81	1312.75
654.00	1292.27
654.19	1265.64
654.38	1290.22
654.56	1259.50
654.75	1263.60
654.94	1282.03
655.13	1216.49
655.32	1251.31
655.51	1288.17
655.69	1300.46
655.88	1279.98
656.07	1232.88
656.26	1210.35
656.45	1224.69
656.63	1333.23
656.82	1259.50
657.01	1302.51
657.20	1263.60
657.38	1279.98
657.57	1288.17
657.76	1191.92
657.95	1314.80
658.14	1251.31
658.32	1202.16
658.51	1218.54
658.70	1359.85
658.89	1282.03
659.08	1314.80
659.26	1302.51
659.45	1308.65
659.64	1290.22
659.83	1263.60
660.01	1230.83
660.20	1255.40
660.39	1251.31
660.58	1271.79
660.76	1320.94
660.95	1247.21
661.14	1259.50
661.33	1230.83
661.51	1320.94
661.70	1208.30
661.89	1200.11
662.08	1269.74
662.26	1282.03
662.45	1253.36
662.64	1327.08
662.83	1286.12
663.01	1271.79
663.20	1255.40
663.39	1253.36
663.58	1236.97
663.76	1279.98
663.95	1236.97
664.14	1239.02
664.32	1185.77
664.51	1191.92
664.70	1298.41
664.89	1204.21
665.07	1185.77
665.26	1261.55
665.45	1282.03
665.64	1265.64
665.82	1306.60
666.01	1294.32
666.20	1343.47
666.38	1296.36
666.57	1263.60
666.76	1241.07
666.95	1282.03
667.13	1239.02
667.32	1228.78
667.51	1282.03
667.69	1247.21
667.88	1300.46
668.07	1306.60
668.25	1290.22
668.44	1353.71
668.63	1339.37
668.81	1296.36
669.00	1218.54
669.19	1247.21
669.38	1331.18
669.56	1282.03
669.75	1263.60
669.94	1239.02
670.12	1300.46
670.31	1335.28
670.50	1269.74
670.68	1265.64
670.87	1267.69
671.06	1208.30
671.24	1204.21
671.43	1302.51
671.62	1347.56
671.80	1302.51
671.99	1296.36
672.18	1206.25
672.36	1234.93
672.55	1275.88
672.74	1312.75
672.92	1290.22
673.11	1165.29
673.29	1316.84
673.48	1327.08
673.67	1290.22
673.85	1261.55
674.04	1275.88
674.23	1339.37
674.41	1388.52
674.60	1359.85
674.79	1232.88
674.97	1292.27
675.16	1318.89
675.34	1292.27
675.53	1282.03
675.72	1261.55
675.90	1269.74
676.09	1333.23
676.28	1279.98
676.46	1261.55
676.65	1228.78
676.83	1245.16
677.02	1243.12
677.21	1243.12
677.39	1327.08
677.58	1273.84
677.77	1263.60
677.95	1361.90
678.14	1306.60
678.32	1220.59
678.51	1224.69
678.70	1249.26
678.88	1267.69
679.07	1273.84
679.25	1286.12
679.44	1277.93
679.63	1253.36
679.81	1247.21
680.00	1271.79
680.18	1265.64
680.37	1247.21
680.55	1314.80
680.74	1255.40
680.93	1288.17
681.11	1265.64
681.30	1245.16
681.48	1239.02
681.67	1253.36
681.85	1325.04
682.04	1259.50
682.23	1273.84
682.41	1296.36
682.60	1208.30
682.78	1300.46
682.97	1228.78
683.15	1318.89
683.34	1243.12
683.53	1312.75
683.71	1251.31
683.90	1294.32
684.08	1222.64
684.27	1230.83
684.45	1245.16
684.64	1298.41
684.82	1173.49
685.01	1236.97
685.19	1243.12
685.38	1230.83
685.57	1234.93
685.75	1216.49
685.94	1310.70
686.12	1241.07
686.31	1193.97
686.49	1357.80
686.68	1208.30
686.86	1277.93
687.05	1247.21
687.23	1267.69
687.42	1290.22
687.60	1241.07
687.79	1288.17
687.97	1239.02
688.16	1294.32
688.34	1310.70
688.53	1282.03
688.71	1253.36
688.90	1314.80
689.08	1222.64
689.27	1234.93
689.45	1232.88
689.64	1236.97
689.82	1255.40
690.01	1247.21
690.19	1234.93
690.38	1277.93
690.56	1310.70
690.75	1259.50
690.93	1249.26
691.12	1284.08
691.30	1273.84
691.49	1308.65
691.67	1255.40
691.86	1253.36
692.04	1255.40
692.23	1181.68
692.41	1335.28
692.60	1279.98
692.78	1232.88
692.97	1308.65
693.15	1304.56
693.34	1269.74
693.52	1271.79
693.71	1259.50
693.89	1241.07
694.08	1292.27
694.26	1249.26
694.44	1316.84
694.63	1263.60
694.81	1206.25
695.00	1337.32
695.18	1312.75
695.37	1261.55
695.55	1286.12
695.74	1316.84
695.92	1265.64
696.10	1249.26
696.29	1322.99
696.47	1236.97
696.66	1310.70
696.84	1284.08
697.03	1392.62
697.21	1314.80
697.40	1308.65
697.58	1212.40
697.76	1282.03
697.95	1167.34
698.13	1224.69
698.32	1220.59
698.50	1226.73
698.68	1259.50
698.87	1243.12
699.05	1296.36
699.24	1300.46
699.42	1243.12
699.61	1189.87
699.79	1204.21
699.97	1243.12
700.16	1296.36
700.34	1255.40
700.53	1236.97
700.71	1198.06
700.89	1286.12
701.08	1296.36
701.26	1255.40
701.45	1298.41
701.63	1322.99
701.81	1269.74
702.00	1239.02
702.18	1259.50
702.37	1255.40
702.55	1267.69
702.73	1243.12
702.92	1189.87
703.10	1310.70
703.28	1226.73
703.47	1224.69
703.65	1351.66
703.84	1286.12
704.02	1396.71
704.20	1292.27
704.39	1269.74
704.57	1279.98
704.75	1269.74
704.94	1312.75
705.12	1200.11
705.30	1290.22
705.49	1316.84
705.67	1243.12
705.86	1236.97
706.04	1241.07
706.22	1273.84
706.41	1265.64
706.59	1218.54
706.77	1222.64
706.96	1216.49
707.14	1241.07
707.32	1249.26
707.51	1255.40
707.69	1302.51
707.87	1284.08
708.06	1267.69
708.24	1259.50
708.42	1251.31
708.61	1218.54
708.79	1329.13
708.97	1265.64
709.16	1198.06
709.34	1292.27
709.52	1210.35
709.71	1259.50
709.89	1241.07
710.07	1230.83
710.26	1325.04
710.44	1286.12
710.62	1193.97
710.80	1325.04
710.99	1300.46
711.17	1222.64
711.35	1255.40
711.54	1320.94
711.72	1290.22
711.90	1255.40
712.09	1302.51
712.27	1259.50
712.45	1292.27
712.63	1310.70
712.82	1277.93
713.00	1296.36
713.18	1269.74
713.37	1257.45
713.55	1212.40
713.73	1335.28
713.91	1230.83
714.10	1273.84
714.28	1304.56
714.46	1306.60
714.65	1232.88
714.83	1277.93
715.01	1257.45
715.19	1271.79
715.38	1263.60
715.56	1296.36
715.74	1306.60
715.92	1279.98
716.11	1204.21
716.29	1304.56
716.47	1320.94
716.65	1292.27
716.84	1284.08
717.02	1255.40
717.20	1210.35
717.38	1318.89
717.57	1298.41
717.75	1232.88
717.93	1271.79
718.11	1288.17
718.30	1247.21
718.48	1247.21
718.66	1286.12
718.84	1241.07
719.03	1265.64
719.21	1245.16
719.39	1306.60
719.57	1241.07
719.75	1294.32
719.94	1241.07
720.12	1279.98
720.30	1214.45
720.48	1218.54
720.67	1255.40
720.85	1228.78
721.03	1230.83
721.21	1339.37
721.39	1261.55
721.58	1308.65
721.76	1253.36
721.94	1232.88
722.12	1286.12
722.30	1316.84
722.49	1322.99
722.67	1290.22
722.85	1331.18
723.03	1284.08
723.21	1261.55
723.40	1261.55
723.58	1255.40
723.76	1292.27
723.94	1349.61
724.12	1239.02
724.30	1239.02
724.49	1312.75
724.67	1191.92
724.85	1224.69
725.03	1273.84
725.21	1296.36
725.40	1241.07
725.58	1273.84
725.76	1228.78
725.94	1279.98
726.12	1300.46
726.30	1296.36
726.49	1196.01
726.67	1245.16
726.85	1253.36
727.03	1243.12
727.21	1222.64
727.39	1308.65
727.57	1228.78
727.76	1261.55
727.94	1255.40
728.12	1273.84
728.30	1222.64
728.48	1288.17
728.66	1202.16
728.84	1314.80
729.03	1284.08
729.21	1255.40
729.39	1275.88
729.57	1220.59
729.75	1243.12
729.93	1267.69
730.11	1290.22
730.30	1269.74
730.48	1275.88
730.66	1296.36
730.84	1222.64
731.02	1302.51
731.20	1224.69
731.38	1329.13
731.56	1257.45
731.74	1259.50
731.93	1193.97
732.11	1206.25
732.29	1263.60
732.47	1196.01
732.65	1261.55
732.83	1308.65
733.01	1300.46
733.19	1251.31
733.37	1200.11
733.56	1255.40
733.74	1304.56
733.92	1286.12
734.10	1312.75
734.28	1286.12
734.46	1296.36
734.64	1263.60
734.82	1232.88
735.00	1230.83
735.18	1249.26
735.36	1290.22
735.54	1265.64
735.73	1253.36
735.91	1224.69
736.09	1325.04
736.27	1255.40
736.45	1234.93
736.63	1261.55
736.81	1232.88
736.99	1329.13
737.17	1224.69
737.35	1286.12
737.53	1271.79
737.71	1234.93
737.89	1298.41
738.07	1290.22
738.25	1312.75
738.43	1304.56
738.61	1257.45
738.80	1241.07
738.98	1251.31
739.16	1226.73
739.34	1343.47
739.52	1288.17
739.70	1234.93
739.88	1296.36
740.06	1277.93
740.24	1359.85
740.42	1263.60
740.60	1288.17
740.78	1269.74
740.96	1228.78
741.14	1230.83
741.32	1198.06
741.50	1339.37
741.68	1267.69
741.86	1228.78
742.04	1290.22
742.22	1310.70
742.40	1282.03
742.58	1288.17
742.76	1208.30
742.94	1179.63
743.12	1241.07
743.30	1284.08
743.48	1236.97
743.66	1249.26
743.84	1277.93
744.02	1282.03
744.20	1255.40
744.38	1200.11
744.56	1302.51
744.74	1331.18
744.92	1314.80
745.10	1290.22
745.28	1224.69
745.46	1261.55
745.64	1239.02
745.82	1290.22
746.00	1232.88
746.18	1255.40
746.36	1239.02
746.54	1222.64
746.72	1239.02
746.90	1187.82
747.08	1267.69
747.26	1282.03
747.44	1257.45
747.62	1267.69
747.80	1290.22
747.98	1275.88
748.15	1243.12
748.33	1228.78
748.51	1259.50
748.69	1273.84
748.87	1318.89
749.05	1249.26
749.23	1296.36
749.41	1249.26
749.59	1267.69
749.77	1241.07
749.95	1269.74
750.13	1261.55
750.31	1320.94
750.49	1259.50
750.67	1294.32
750.85	1251.31
751.03	1300.46
751.20	1286.12
751.38	1208.30
751.56	1267.69
751.74	1239.02
751.92	1288.17
752.10	1353.71
752.28	1206.25
752.46	1286.12
752.64	1251.31
752.82	1320.94
753.00	1222.64
753.18	1241.07
753.35	1255.40
753.53	1306.60
753.71	1310.70
753.89	1255.40
754.07	1234.93
754.25	1277.93
754.43	1310.70
754.61	1292.27
754.79	1222.64
754.97	1282.03
755.14	1263.60
755.32	1265.64
755.50	1322.99
755.68	1236.97
755.86	1259.50
756.04	1241.07
756.22	1267.69
756.40	1275.88
756.57	1288.17
756.75	1277.93
756.93	1236.97
757.11	1228.78
757.29	1241.07
757.47	1284.08
757.65	1273.84
757.82	1191.92
758.00	1331.18
758.18	1218.54
758.36	1298.41
758.54	1216.49
758.72	1314.80
758.90	1306.60
759.07	1212.40
759.25	1216.49
759.43	1216.49
759.61	1279.98
759.79	1333.23
759.97	1232.88
760.15	1193.97
760.32	1253.36
760.50	1251.31
760.68	1249.26
760.86	1277.93
761.04	1296.36
761.22	1253.36
761.39	1249.26
761.57	1275.88
761.75	1212.40
761.93	1314.80
762.11	1288.17
762.28	1306.60
762.46	1208.30
762.64	1298.41
762.82	1286.12
763.00	1249.26
763.18	1314.80
763.35	1236.97
763.53	1224.69
763.71	1228.78
763.89	1288.17
764.07	1282.03
764.24	1296.36
764.42	1267.69
764.60	1183.73
764.78	1198.06
764.96	1265.64
765.13	1228.78
765.31	1249.26
765.49	1236.97
765.67	1318.89
765.84	1263.60
766.02	1198.06
766.20	1210.35
766.38	1282.03
766.56	1224.69
766.73	1339.37
766.91	1302.51
767.09	1284.08
767.27	1255.40
767.44	1284.08
767.62	1212.40
767.80	1275.88
767.98	1298.41
768.15	1253.36
768.33	1249.26
768.51	1288.17
768.69	1255.40
768.87	1245.16
769.04	1308.65
769.22	1239.02
769.40	1245.16
769.58	1243.12
769.75	1296.36
769.93	1286.12
770.11	1224.69
770.28	1236.97
770.46	1271.79
770.64	1234.93
770.82	1247.21
770.99	1298.41
771.17	1269.74
771.35	1302.51
771.53	1300.46
771.70	1196.01
771.88	1316.84
772.06	1241.07
772.23	1222.64
772.41	1275.88
772.59	1261.55
772.77	1232.88
772.94	1249.26
773.12	1267.69
773.30	1212.40
773.47	1243.12
773.65	1230.83
773.83	1339.37
774.01	1292.27
774.18	1261.55
774.36	1279.98
774.54	1239.02
774.71	1265.64
774.89	1228.78
775.07	1234.93
775.24	1259.50
775.42	1167.34
775.60	1243.12
775.78	1255.40
775.95	1187.82
776.13	1216.49
776.31	1314.80
776.48	1230.83
776.66	1236.97
776.84	1277.93
777.01	1232.88
777.19	1316.84
777.37	1253.36
777.54	1216.49
777.72	1253.36
777.90	1355.76
778.07	1226.73
778.25	1253.36
778.43	1282.03
778.60	1306.60
778.78	1286.12
778.96	1255.40
779.13	1265.64
779.31	1196.01
779.49	1267.69
779.66	1304.56
779.84	1288.17
780.01	1181.68
780.19	1193.97
780.37	1282.03
780.54	1269.74
780.72	1249.26
780.90	1288.17
781.07	1204.21
781.25	1265.64
781.43	1322.99
781.60	1267.69
781.78	1349.61
781.95	1298.41
782.13	1234.93
782.31	1206.25
782.48	1277.93
782.66	1302.51
782.83	1247.21
783.01	1273.84
783.19	1263.60
783.36	1265.64
783.54	1247.21
783.72	1271.79
783.89	1290.22
784.07	1173.49
784.24	1206.25
784.42	1277.93
784.60	1200.11
784.77	1363.95
784.95	1288.17
785.12	1271.79
785.30	1288.17
785.47	1261.55
785.65	1314.80
785.83	1322.99
786.00	1232.88
786.18	1277.93
786.35	1282.03
786.53	1206.25
786.71	1271.79
786.88	1269.74
787.06	1249.26
787.23	1286.12
787.41	1335.28
787.58	1228.78
787.76	1257.45
787.94	1239.02
788.11	1232.88
788.29	1232.88
788.46	1277.93
788.64	1269.74
788.81	1230.83
788.99	1251.31
789.16	1261.55
789.34	1374.19
789.52	1271.79
789.69	1230.83
789.87	1220.59
790.04	1343.47
790.22	1271.79
790.39	1308.65
790.57	1277.93
790.74	1224.69
790.92	1271.79
791.09	1306.60
791.27	1191.92
791.44	1302.51
791.62	1245.16
791.79	1298.41
791.97	1273.84
792.15	1253.36
792.32	1359.85
792.50	1271.79
792.67	1247.21
792.85	1228.78
793.02	1273.84
793.20	1288.17
793.37	1294.32
793.55	1234.93
793.72	1247.21
793.90	1294.32
794.07	1245.16
794.25	1196.01
794.42	1253.36
794.60	1337.32
794.77	1277.93
794.95	1288.17
795.12	1228.78
795.30	1241.07
795.47	1228.78
795.65	1361.90
795.82	1220.59
796.00	1314.80
796.17	1220.59
796.34	1181.68
796.52	1234.93
796.69	1296.36
796.87	1269.74
797.04	1241.07
797.22	1296.36
797.39	1222.64
797.57	1187.82
797.74	1325.04
797.92	1239.02
798.09	1294.32
798.27	1220.59
798.44	1165.29
798.62	1257.45
798.79	1310.70
798.96	1271.79
799.14	1273.84
799.31	1230.83
799.49	1247.21
799.66	1277.93
799.84	1208.30
800.01	1273.84
800.19	1269.74
800.36	1206.25
800.53	1265.64
800.71	1261.55
800.88	1292.27
801.06	1239.02
801.23	1273.84
801.41	1294.32
801.58	1302.51
801.75	1210.35
801.93	1212.40
802.10	1232.88
802.28	1265.64
802.45	1275.88
802.63	1275.88
802.80	1298.41
802.97	1310.70
803.15	1298.41
803.32	1253.36
803.50	1282.03
803.67	1284.08
803.84	1282.03
804.02	1286.12
804.19	1261.55
804.37	1249.26
804.54	1253.36
804.71	1261.55
804.89	1265.64
805.06	1214.45
805.24	1269.74
805.41	1351.66
805.58	1263.60
805.76	1214.45
805.93	1212.40
806.10	1247.21
806.28	1257.45
806.45	1245.16
806.63	1251.31
806.80	1257.45
806.97	1265.64
807.15	1220.59
807.32	1263.60
807.49	1265.64
807.67	1224.69
807.84	1279.98
808.01	1306.60
808.19	1277.93
808.36	1216.49
808.54	1253.36
808.71	1320.94
808.88	1279.98
809.06	1290.22
809.23	1255.40
809.40	1329.13
809.58	1243.12
809.75	1275.88
809.92	1329.13
810.10	1261.55
810.27	1230.83
810.44	1224.69
810.62	1251.31
810.79	1253.36
810.96	1282.03
811.14	1284.08
811.31	1255.40
811.48	1279.98
811.66	1292.27
811.83	1234.93
812.00	1302.51
812.18	1286.12
812.35	1298.41
812.52	1247.21
812.69	1284.08
812.87	1247.21
813.04	1304.56
813.21	1251.31
813.39	1251.31
813.56	1279.98
813.73	1322.99
813.91	1271.79
814.08	1265.64
814.25	1308.65
814.42	1302.51
814.60	1275.88
814.77	1306.60
814.94	1236.97
815.12	1245.16
815.29	1312.75
815.46	1294.32
815.63	1208.30
815.81	1277.93
815.98	1271.79
816.15	1271.79
816.33	1271.79
816.50	1232.88
816.67	1251.31
816.84	1243.12
817.02	1234.93
817.19	1343.47
817.36	1284.08
817.53	1333.23
817.71	1320.94
817.88	1249.26
818.05	1288.17
818.22	1267.69
818.40	1310.70
818.57	1337.32
818.74	1212.40
818.91	1226.73
819.09	1357.80
819.26	1277.93
819.43	1228.78
819.60	1312.75
819.78	1288.17
819.95	1228.78
820.12	1253.36
820.29	1269.74
820.47	1277.93
820.64	1279.98
820.81	1202.16
820.98	1282.03
821.15	1286.12
821.33	1236.97
821.50	1310.70
821.67	1271.79
821.84	1294.32
822.02	1279.98
822.19	1308.65
822.36	1265.64
822.53	1316.84
822.70	1325.04
822.88	1302.51
823.05	1183.73
823.22	1290.22
823.39	1292.27
823.56	1200.11
823.74	1290.22
823.91	1224.69
824.08	1259.50
824.25	1312.75
824.42	1191.92
824.60	1257.45
824.77	1300.46
824.94	1243.12
825.11	1185.77
825.28	1277.93
825.45	1267.69
825.63	1173.49
825.80	1204.21
825.97	1253.36
826.14	1292.27
826.31	1247.21
826.48	1359.85
826.66	1273.84
826.83	1245.16
827.00	1284.08
827.17	1271.79
827.34	1296.36
827.51	1241.07
827.69	1218.54
827.86	1271.79
828.03	1196.01
828.20	1343.47
828.37	1224.69
828.54	1271.79
828.71	1263.60
828.89	1206.25
829.06	1302.51
829.23	1286.12
829.40	1304.56
829.57	1234.93
829.74	1216.49
829.91	1288.17
830.09	1239.02
830.26	1275.88
830.43	1230.83
830.60	1282.03
830.77	1236.97
830.94	1288.17
831.11	1222.64
831.28	1269.74
831.46	1202.16
831.63	1228.78
831.80	1279.98
831.97	1253.36
832.14	1189.87
832.31	1331.18
832.48	1290.22
832.65	1308.65
832.82	1265.64
832.99	1210.35
833.17	1271.79
833.34	1310.70
833.51	1320.94
833.68	1296.36
833.85	1220.59
834.02	1210.35
834.19	1224.69
834.36	1292.27
834.53	1226.73
834.70	1279.98
834.87	1292.27
835.04	1177.58
835.22	1282.03
835.39	1224.69
835.56	1218.54
835.73	1239.02
835.90	1198.06
836.07	1259.50
836.24	1241.07
836.41	1273.84
836.58	1279.98
836.75	1247.21
836.92	1271.79
837.09	1298.41
837.26	1290.22
837.43	1288.17
837.60	1234.93
837.77	1329.13
837.94	1222.64
838.12	1267.69
838.29	1312.75
838.46	1363.95
838.63	1255.40
838.80	1294.32
838.97	1308.65
839.14	1277.93
839.31	1220.59
839.48	1232.88
839.65	1224.69
839.82	1277.93
839.99	1245.16
840.16	1288.17
840.33	1191.92
840.50	1239.02
840.67	1200.11
840.84	1249.26
841.01	1318.89
841.18	1290.22
841.35	1265.64
841.52	1286.12
841.69	1320.94
841.86	1351.66
842.03	1296.36
842.20	1314.80
842.37	1261.55
842.54	1249.26
842.71	1265.64
842.88	1234.93
843.05	1232.88
843.22	1282.03
843.39	1282.03
843.56	1271.79
843.73	1249.26
843.90	1265.64
844.07	1236.97
844.24	1200.11
844.41	1173.49
844.58	1351.66
844.75	1341.42
844.92	1265.64
845.09	1263.60
845.26	1306.60
845.43	1245.16
845.60	1320.94
845.77	1249.26
845.94	1314.80
846.10	1292.27
846.27	1300.46
846.44	1267.69
846.61	1255.40
846.78	1267.69
846.95	1247.21
847.12	1243.12
847.29	1200.11
847.46	1261.55
847.63	1251.31
847.80	1210.35
847.97	1241.07
848.14	1243.12
848.31	1259.50
848.48	1259.50
848.65	1282.03
848.82	1257.45
848.98	1325.04
849.15	1249.26
849.32	1224.69
849.49	1249.26
849.66	1306.60
849.83	1294.32
850.00	1292.27
850.17	1286.12
850.34	1290.22
850.51	1273.84
850.68	1181.68
850.85	1275.88
851.01	1257.45
851.18	1275.88
851.35	1345.52
851.52	1284.08
851.69	1310.70
851.86	1243.12
852.03	1335.28
852.20	1277.93
852.37	1230.83
852.53	1239.02
852.70	1249.26
852.87	1236.97
853.04	1236.97
853.21	1290.22
853.38	1224.69
853.55	1236.97
853.72	1339.37
853.89	1222.64
854.05	1232.88
854.22	1282.03
854.39	1224.69
854.56	1335.28
854.73	1292.27
854.90	1210.35
855.07	1296.36
855.23	1312.75
855.40	1296.36
855.57	1241.07
855.74	1241.07
855.91	1314.80
856.08	1284.08
856.25	1245.16
856.41	1214.45
856.58	1298.41
856.75	1271.79
856.92	1310.70
857.09	1286.12
857.26	1208.30
857.42	1282.03
857.59	1294.32
857.76	1224.69
857.93	1243.12
858.10	1273.84
858.27	1259.50
858.43	1320.94
858.60	1314.80
858.77	1245.16
858.94	1214.45
859.11	1210.35
859.27	1288.17
859.44	1245.16
859.61	1312.75
859.78	1292.27
859.95	1267.69
860.12	1249.26
860.28	1261.55
860.45	1327.08
860.62	1175.53
860.79	1249.26
860.95	1316.84
861.12	1267.69
861.29	1263.60
861.46	1247.21
861.63	1284.08
861.79	1282.03
861.96	1261.55
862.13	1286.12
862.30	1210.35
862.47	1312.75
862.63	1302.51
862.80	1298.41
862.97	1193.97
863.14	1298.41
863.30	1327.08
863.47	1259.50
863.64	1210.35
863.81	1255.40
863.97	1298.41
864.14	1273.84
864.31	1302.51
864.48	1249.26
864.65	1247.21
864.81	1279.98
864.98	1255.40
865.15	1304.56
865.32	1298.41
865.48	1294.32
865.65	1300.46
865.82	1226.73
865.98	1261.55
866.15	1275.88
866.32	1224.69
866.49	1243.12
866.65	1222.64
866.82	1241.07
866.99	1282.03
867.16	1239.02
867.32	1216.49
867.49	1296.36
867.66	1288.17
867.83	1230.83
867.99	1259.50
868.16	1247.21
868.33	1304.56
868.49	1273.84
868.66	1269.74
868.83	1341.42
868.99	1290.22
869.16	1234.93
869.33	1255.40
869.50	1290.22
869.66	1302.51
869.83	1232.88
870.00	1206.25
870.16	1282.03
870.33	1265.64
870.50	1261.55
870.66	1275.88
870.83	1226.73
871.00	1212.40
871.17	1234.93
871.33	1236.97
871.50	1322.99
871.67	1239.02
871.83	1282.03
872.00	1255.40
872.17	1177.58
872.33	1277.93
872.50	1243.12
872.67	1239.02
872.83	1257.45
873.00	1275.88
873.17	1204.21
873.33	1279.98
873.50	1263.60
873.67	1306.60
873.83	1239.02
874.00	1277.93
874.16	1253.36
874.33	1193.97
874.50	1245.16
874.66	1290.22
874.83	1247.21
875.00	1224.69
875.16	1241.07
875.33	1169.39
875.50	1265.64
875.66	1259.50
875.83	1312.75
875.99	1257.45
876.16	1292.27
876.33	1202.16
876.49	1273.84
876.66	1288.17
876.83	1320.94
876.99	1267.69
877.16	1253.36
877.32	1286.12
877.49	1265.64
877.66	1314.80
877.82	1263.60
877.99	1290.22
878.15	1312.75
878.32	1179.63
878.49	1273.84
878.65	1222.64
878.82	1210.35
878.98	1308.65
879.15	1255.40
879.32	1253.36
879.48	1265.64
879.65	1314.80
879.81	1234.93
879.98	1298.41
880.15	1163.25
880.31	1218.54
880.48	1239.02
880.64	1275.88
880.81	1284.08
880.97	1275.88
881.14	1304.56
881.31	1320.94
881.47	1236.97
881.64	1290.22
881.80	1263.60
881.97	1134.57
882.13	1288.17
882.30	1239.02
882.47	1312.75
882.63	1230.83
882.80	1249.26
882.96	1191.92
883.13	1257.45
883.29	1269.74
883.46	1302.51
883.62	1245.16
883.79	1226.73
883.95	1208.30
884.12	1243.12
884.29	1224.69
884.45	1265.64
884.62	1249.26
884.78	1322.99
884.95	1329.13
885.11	1273.84
885.28	1259.50
885.44	1302.51
885.61	1286.12
885.77	1279.98
885.94	1247.21
886.10	1298.41
886.27	1279.98
886.43	1290.22
886.60	1263.60
886.76	1267.69
886.93	1275.88
887.09	1288.17
887.26	1179.63
887.42	1263.60
887.59	1212.40
887.75	1339.37
887.92	1226.73
888.08	1300.46
888.25	1331.18
888.41	1226.73
888.58	1271.79
888.74	1232.88
888.91	1284.08
>>>>>End Processed Spectral Data<<<<<
