SpectraSuite Data File
++++++++++++++++++++++++++++++++++++
Date: Sun Apr 03 19:55:50 CEST 2016
User: root
Dark Spectrum Present: No
Reference Spectrum Present: No
Number of Sampled Component Spectra: 1
Spectrometers: USB4C02835
Integration Time (usec): 10000 (USB4C02835)
Spectra Averaged: 1 (USB4C02835)
Boxcar Smoothing: 0 (USB4C02835)
Correct for Electrical Dark: No (USB4C02835)
Strobe/Lamp Enabled: No (USB4C02835)
Correct for Detector Non-linearity: No (USB4C02835)
Correct for Stray Light: No (USB4C02835)
Number of Pixels in Processed Spectrum: 3648
>>>>>Begin Processed Spectral Data<<<<<
177.47	1226.73
177.69	1226.73
177.91	1226.73
178.13	1212.40
178.36	1234.93
178.58	1282.03
178.80	1263.60
179.02	1271.79
179.24	1271.79
179.46	1210.35
179.68	1259.50
179.90	1261.55
180.13	1243.12
180.35	1200.11
180.57	1253.36
180.79	1259.50
181.01	1312.75
181.23	1302.51
181.45	1198.06
181.67	1279.98
181.90	1288.17
182.12	1245.16
182.34	1290.22
182.56	1230.83
182.78	1357.80
183.00	1292.27
183.22	1374.19
183.44	1286.12
183.66	1265.64
183.89	1288.17
184.11	1265.64
184.33	1310.70
184.55	1230.83
184.77	1249.26
184.99	1253.36
185.21	1286.12
185.43	1261.55
185.65	1208.30
185.87	1308.65
186.10	1253.36
186.32	1314.80
186.54	1343.47
186.76	1261.55
186.98	1269.74
187.20	1265.64
187.42	1218.54
187.64	1353.71
187.86	1212.40
188.08	1298.41
188.30	1269.74
188.52	1277.93
188.75	1245.16
188.97	1277.93
189.19	1236.97
189.41	1271.79
189.63	1259.50
189.85	1351.66
190.07	1261.55
190.29	1220.59
190.51	1271.79
190.73	1267.69
190.95	1325.04
191.17	1302.51
191.39	1220.59
191.61	1279.98
191.84	1279.98
192.06	1251.31
192.28	1220.59
192.50	1279.98
192.72	1279.98
192.94	1259.50
193.16	1234.93
193.38	1214.45
193.60	1294.32
193.82	1226.73
194.04	1220.59
194.26	1204.21
194.48	1282.03
194.70	1265.64
194.92	1300.46
195.14	1230.83
195.36	1216.49
195.58	1265.64
195.80	1200.11
196.02	1224.69
196.24	1286.12
196.46	1320.94
196.69	1284.08
196.91	1318.89
197.13	1232.88
197.35	1255.40
197.57	1263.60
197.79	1282.03
198.01	1265.64
198.23	1296.36
198.45	1239.02
198.67	1230.83
198.89	1275.88
199.11	1298.41
199.33	1304.56
199.55	1228.78
199.77	1302.51
199.99	1312.75
200.21	1245.16
200.43	1282.03
200.65	1290.22
200.87	1267.69
201.09	1279.98
201.31	1218.54
201.53	1286.12
201.75	1308.65
201.97	1228.78
202.19	1273.84
202.41	1257.45
202.63	1212.40
202.85	1267.69
203.07	1257.45
203.29	1308.65
203.51	1349.61
203.73	1290.22
203.95	1275.88
204.17	1277.93
204.39	1239.02
204.61	1298.41
204.83	1271.79
205.05	1271.79
205.27	1245.16
205.49	1275.88
205.71	1222.64
205.93	1236.97
206.15	1320.94
206.37	1273.84
206.59	1216.49
206.81	1263.60
207.03	1218.54
207.25	1253.36
207.47	1331.18
207.69	1267.69
207.91	1292.27
208.13	1325.04
208.34	1298.41
208.56	1208.30
208.78	1314.80
209.00	1284.08
209.22	1200.11
209.44	1298.41
209.66	1239.02
209.88	1296.36
210.10	1245.16
210.32	1239.02
210.54	1275.88
210.76	1200.11
210.98	1273.84
211.20	1245.16
211.42	1239.02
211.64	1314.80
211.86	1241.07
212.08	1304.56
212.30	1335.28
212.52	1220.59
212.74	1325.04
212.96	1271.79
213.17	1271.79
213.39	1288.17
213.61	1322.99
213.83	1193.97
214.05	1271.79
214.27	1253.36
214.49	1265.64
214.71	1376.24
214.93	1273.84
215.15	1191.92
215.37	1232.88
215.59	1228.78
215.81	1239.02
216.03	1292.27
216.24	1314.80
216.46	1267.69
216.68	1251.31
216.90	1239.02
217.12	1306.60
217.34	1290.22
217.56	1279.98
217.78	1253.36
218.00	1282.03
218.22	1234.93
218.44	1214.45
218.66	1271.79
218.87	1214.45
219.09	1206.25
219.31	1286.12
219.53	1292.27
219.75	1239.02
219.97	1202.16
220.19	1232.88
220.41	1234.93
220.63	1234.93
220.85	1302.51
221.06	1363.95
221.28	1292.27
221.50	1230.83
221.72	1230.83
221.94	1241.07
222.16	1294.32
222.38	1267.69
222.60	1304.56
222.82	1355.76
223.03	1214.45
223.25	1376.24
223.47	1286.12
223.69	1282.03
223.91	1271.79
224.13	1298.41
224.35	1294.32
224.57	1232.88
224.78	1277.93
225.00	1314.80
225.22	1329.13
225.44	1245.16
225.66	1351.66
225.88	1316.84
226.10	1265.64
226.32	1236.97
226.53	1294.32
226.75	1245.16
226.97	1257.45
227.19	1320.94
227.41	1177.58
227.63	1253.36
227.85	1269.74
228.06	1265.64
228.28	1210.35
228.50	1273.84
228.72	1271.79
228.94	1220.59
229.16	1273.84
229.37	1265.64
229.59	1269.74
229.81	1318.89
230.03	1259.50
230.25	1355.76
230.47	1257.45
230.69	1312.75
230.90	1359.85
231.12	1257.45
231.34	1210.35
231.56	1271.79
231.78	1271.79
232.00	1279.98
232.21	1189.87
232.43	1318.89
232.65	1267.69
232.87	1290.22
233.09	1286.12
233.30	1261.55
233.52	1257.45
233.74	1269.74
233.96	1304.56
234.18	1271.79
234.40	1292.27
234.61	1351.66
234.83	1318.89
235.05	1249.26
235.27	1239.02
235.49	1273.84
235.70	1236.97
235.92	1243.12
236.14	1273.84
236.36	1185.77
236.58	1298.41
236.79	1249.26
237.01	1329.13
237.23	1218.54
237.45	1239.02
237.67	1294.32
237.88	1228.78
238.10	1247.21
238.32	1198.06
238.54	1187.82
238.76	1259.50
238.97	1259.50
239.19	1296.36
239.41	1288.17
239.63	1310.70
239.85	1263.60
240.06	1261.55
240.28	1228.78
240.50	1261.55
240.72	1253.36
240.93	1249.26
241.15	1292.27
241.37	1247.21
241.59	1294.32
241.81	1241.07
242.02	1273.84
242.24	1220.59
242.46	1308.65
242.68	1239.02
242.89	1273.84
243.11	1251.31
243.33	1251.31
243.55	1232.88
243.76	1255.40
243.98	1304.56
244.20	1263.60
244.42	1234.93
244.64	1310.70
244.85	1275.88
245.07	1318.89
245.29	1196.01
245.51	1249.26
245.72	1286.12
245.94	1372.14
246.16	1222.64
246.38	1249.26
246.59	1318.89
246.81	1267.69
247.03	1290.22
247.24	1208.30
247.46	1275.88
247.68	1265.64
247.90	1216.49
248.11	1241.07
248.33	1322.99
248.55	1282.03
248.77	1310.70
248.98	1298.41
249.20	1269.74
249.42	1253.36
249.64	1239.02
249.85	1279.98
250.07	1331.18
250.29	1302.51
250.50	1273.84
250.72	1239.02
250.94	1228.78
251.16	1343.47
251.37	1286.12
251.59	1314.80
251.81	1271.79
252.02	1243.12
252.24	1282.03
252.46	1361.90
252.68	1310.70
252.89	1275.88
253.11	1222.64
253.33	1259.50
253.54	1308.65
253.76	1247.21
253.98	1222.64
254.20	1230.83
254.41	1263.60
254.63	1294.32
254.85	1218.54
255.06	1329.13
255.28	1275.88
255.50	1304.56
255.71	1306.60
255.93	1304.56
256.15	1261.55
256.36	1314.80
256.58	1277.93
256.80	1273.84
257.02	1294.32
257.23	1300.46
257.45	1198.06
257.67	1273.84
257.88	1234.93
258.10	1290.22
258.32	1253.36
258.53	1304.56
258.75	1251.31
258.97	1269.74
259.18	1298.41
259.40	1290.22
259.62	1239.02
259.83	1314.80
260.05	1288.17
260.27	1265.64
260.48	1243.12
260.70	1265.64
260.92	1298.41
261.13	1273.84
261.35	1282.03
261.57	1290.22
261.78	1245.16
262.00	1341.42
262.22	1267.69
262.43	1286.12
262.65	1261.55
262.86	1251.31
263.08	1261.55
263.30	1269.74
263.51	1265.64
263.73	1288.17
263.95	1294.32
264.16	1255.40
264.38	1284.08
264.60	1282.03
264.81	1316.84
265.03	1282.03
265.25	1282.03
265.46	1263.60
265.68	1253.36
265.89	1325.04
266.11	1273.84
266.33	1286.12
266.54	1247.21
266.76	1224.69
266.98	1247.21
267.19	1265.64
267.41	1298.41
267.62	1292.27
267.84	1261.55
268.06	1216.49
268.27	1230.83
268.49	1245.16
268.70	1239.02
268.92	1320.94
269.14	1320.94
269.35	1296.36
269.57	1318.89
269.79	1282.03
270.00	1284.08
270.22	1296.36
270.43	1210.35
270.65	1220.59
270.87	1243.12
271.08	1210.35
271.30	1292.27
271.51	1271.79
271.73	1271.79
271.95	1310.70
272.16	1251.31
272.38	1277.93
272.59	1320.94
272.81	1298.41
273.02	1312.75
273.24	1224.69
273.46	1210.35
273.67	1261.55
273.89	1241.07
274.10	1304.56
274.32	1251.31
274.54	1257.45
274.75	1218.54
274.97	1273.84
275.18	1257.45
275.40	1230.83
275.61	1267.69
275.83	1275.88
276.05	1308.65
276.26	1314.80
276.48	1239.02
276.69	1316.84
276.91	1253.36
277.12	1263.60
277.34	1183.73
277.55	1312.75
277.77	1253.36
277.99	1267.69
278.20	1216.49
278.42	1304.56
278.63	1245.16
278.85	1193.97
279.06	1263.60
279.28	1277.93
279.49	1275.88
279.71	1241.07
279.93	1224.69
280.14	1318.89
280.36	1253.36
280.57	1261.55
280.79	1253.36
281.00	1251.31
281.22	1269.74
281.43	1247.21
281.65	1196.01
281.86	1241.07
282.08	1282.03
282.29	1259.50
282.51	1290.22
282.73	1292.27
282.94	1261.55
283.16	1263.60
283.37	1300.46
283.59	1282.03
283.80	1212.40
284.02	1257.45
284.23	1255.40
284.45	1261.55
284.66	1210.35
284.88	1300.46
285.09	1228.78
285.31	1269.74
285.52	1314.80
285.74	1304.56
285.95	1292.27
286.17	1271.79
286.38	1273.84
286.60	1218.54
286.81	1271.79
287.03	1202.16
287.24	1339.37
287.46	1279.98
287.67	1294.32
287.89	1204.21
288.10	1288.17
288.32	1232.88
288.53	1277.93
288.75	1210.35
288.96	1316.84
289.18	1333.23
289.39	1339.37
289.61	1282.03
289.82	1253.36
290.04	1271.79
290.25	1279.98
290.47	1224.69
290.68	1216.49
290.90	1288.17
291.11	1267.69
291.33	1300.46
291.54	1298.41
291.76	1263.60
291.97	1312.75
292.18	1284.08
292.40	1253.36
292.61	1210.35
292.83	1300.46
293.04	1245.16
293.26	1300.46
293.47	1298.41
293.69	1212.40
293.90	1257.45
294.12	1284.08
294.33	1271.79
294.55	1318.89
294.76	1296.36
294.97	1255.40
295.19	1261.55
295.40	1273.84
295.62	1257.45
295.83	1275.88
296.05	1271.79
296.26	1322.99
296.48	1241.07
296.69	1261.55
296.90	1345.52
297.12	1253.36
297.33	1273.84
297.55	1153.01
297.76	1290.22
297.98	1304.56
298.19	1224.69
298.41	1218.54
298.62	1331.18
298.83	1294.32
299.05	1257.45
299.26	1232.88
299.48	1255.40
299.69	1302.51
299.90	1267.69
300.12	1239.02
300.33	1347.56
300.55	1214.45
300.76	1290.22
300.98	1292.27
301.19	1216.49
301.40	1259.50
301.62	1275.88
301.83	1298.41
302.05	1286.12
302.26	1271.79
302.47	1314.80
302.69	1234.93
302.90	1279.98
303.12	1286.12
303.33	1286.12
303.54	1363.95
303.76	1265.64
303.97	1329.13
304.19	1249.26
304.40	1296.36
304.61	1322.99
304.83	1277.93
305.04	1304.56
305.26	1249.26
305.47	1343.47
305.68	1232.88
305.90	1298.41
306.11	1331.18
306.33	1241.07
306.54	1329.13
306.75	1341.42
306.97	1275.88
307.18	1257.45
307.39	1275.88
307.61	1243.12
307.82	1265.64
308.04	1232.88
308.25	1251.31
308.46	1357.80
308.68	1310.70
308.89	1279.98
309.10	1181.68
309.32	1222.64
309.53	1269.74
309.74	1236.97
309.96	1306.60
310.17	1282.03
310.39	1310.70
310.60	1247.21
310.81	1191.92
311.03	1273.84
311.24	1271.79
311.45	1232.88
311.67	1239.02
311.88	1327.08
312.09	1325.04
312.31	1234.93
312.52	1189.87
312.73	1335.28
312.95	1224.69
313.16	1271.79
313.37	1234.93
313.59	1312.75
313.80	1286.12
314.01	1277.93
314.23	1247.21
314.44	1210.35
314.65	1290.22
314.87	1234.93
315.08	1208.30
315.29	1210.35
315.51	1351.66
315.72	1241.07
315.93	1247.21
316.15	1273.84
316.36	1255.40
316.57	1318.89
316.79	1265.64
317.00	1222.64
317.21	1316.84
317.43	1236.97
317.64	1218.54
317.85	1214.45
318.07	1183.73
318.28	1341.42
318.49	1249.26
318.70	1316.84
318.92	1239.02
319.13	1277.93
319.34	1320.94
319.56	1212.40
319.77	1282.03
319.98	1298.41
320.20	1185.77
320.41	1339.37
320.62	1239.02
320.83	1224.69
321.05	1331.18
321.26	1282.03
321.47	1275.88
321.69	1292.27
321.90	1267.69
322.11	1271.79
322.32	1189.87
322.54	1282.03
322.75	1294.32
322.96	1277.93
323.18	1308.65
323.39	1267.69
323.60	1286.12
323.81	1179.63
324.03	1208.30
324.24	1294.32
324.45	1230.83
324.66	1300.46
324.88	1245.16
325.09	1251.31
325.30	1269.74
325.52	1241.07
325.73	1239.02
325.94	1339.37
326.15	1288.17
326.37	1302.51
326.58	1267.69
326.79	1279.98
327.00	1212.40
327.22	1306.60
327.43	1255.40
327.64	1269.74
327.85	1286.12
328.07	1312.75
328.28	1228.78
328.49	1284.08
328.70	1214.45
328.92	1249.26
329.13	1167.34
329.34	1329.13
329.55	1224.69
329.76	1261.55
329.98	1273.84
330.19	1247.21
330.40	1179.63
330.61	1249.26
330.83	1288.17
331.04	1296.36
331.25	1298.41
331.46	1282.03
331.68	1261.55
331.89	1279.98
332.10	1236.97
332.31	1316.84
332.52	1208.30
332.74	1310.70
332.95	1261.55
333.16	1255.40
333.37	1282.03
333.58	1271.79
333.80	1275.88
334.01	1241.07
334.22	1253.36
334.43	1247.21
334.64	1255.40
334.86	1314.80
335.07	1232.88
335.28	1273.84
335.49	1345.52
335.70	1243.12
335.92	1257.45
336.13	1310.70
336.34	1279.98
336.55	1300.46
336.76	1255.40
336.98	1232.88
337.19	1304.56
337.40	1279.98
337.61	1257.45
337.82	1290.22
338.04	1236.97
338.25	1239.02
338.46	1200.11
338.67	1292.27
338.88	1277.93
339.09	1222.64
339.31	1232.88
339.52	1263.60
339.73	1261.55
339.94	1245.16
340.15	1288.17
340.36	1261.55
340.58	1212.40
340.79	1198.06
341.00	1255.40
341.21	1191.92
341.42	1318.89
341.63	1306.60
341.85	1310.70
342.06	1212.40
342.27	1232.88
342.48	1290.22
342.69	1263.60
342.90	1361.90
343.12	1181.68
343.33	1259.50
343.54	1222.64
343.75	1320.94
343.96	1265.64
344.17	1284.08
344.38	1183.73
344.60	1163.25
344.81	1279.98
345.02	1296.36
345.23	1275.88
345.44	1277.93
345.65	1318.89
345.86	1308.65
346.07	1290.22
346.29	1288.17
346.50	1245.16
346.71	1253.36
346.92	1290.22
347.13	1265.64
347.34	1302.51
347.55	1232.88
347.76	1294.32
347.98	1263.60
348.19	1275.88
348.40	1308.65
348.61	1265.64
348.82	1308.65
349.03	1210.35
349.24	1300.46
349.45	1294.32
349.66	1298.41
349.88	1277.93
350.09	1353.71
350.30	1255.40
350.51	1255.40
350.72	1222.64
350.93	1245.16
351.14	1253.36
351.35	1179.63
351.56	1331.18
351.77	1271.79
351.99	1294.32
352.20	1261.55
352.41	1253.36
352.62	1206.25
352.83	1251.31
353.04	1228.78
353.25	1265.64
353.46	1288.17
353.67	1247.21
353.88	1284.08
354.09	1288.17
354.30	1200.11
354.52	1279.98
354.73	1253.36
354.94	1220.59
355.15	1304.56
355.36	1259.50
355.57	1249.26
355.78	1269.74
355.99	1271.79
356.20	1261.55
356.41	1216.49
356.62	1239.02
356.83	1224.69
357.04	1312.75
357.25	1263.60
357.46	1302.51
357.68	1241.07
357.89	1222.64
358.10	1277.93
358.31	1267.69
358.52	1286.12
358.73	1300.46
358.94	1312.75
359.15	1298.41
359.36	1271.79
359.57	1269.74
359.78	1294.32
359.99	1273.84
360.20	1236.97
360.41	1298.41
360.62	1290.22
360.83	1265.64
361.04	1277.93
361.25	1230.83
361.46	1257.45
361.67	1263.60
361.88	1353.71
362.09	1220.59
362.30	1249.26
362.51	1261.55
362.72	1267.69
362.93	1247.21
363.14	1261.55
363.35	1175.53
363.56	1206.25
363.78	1255.40
363.99	1288.17
364.20	1232.88
364.41	1224.69
364.62	1218.54
364.83	1300.46
365.04	1314.80
365.25	1247.21
365.46	1245.16
365.67	1290.22
365.88	1269.74
366.09	1279.98
366.30	1345.52
366.51	1320.94
366.72	1302.51
366.93	1218.54
367.14	1234.93
367.35	1265.64
367.56	1269.74
367.77	1234.93
367.98	1251.31
368.18	1247.21
368.39	1292.27
368.60	1232.88
368.81	1259.50
369.02	1269.74
369.23	1228.78
369.44	1386.47
369.65	1206.25
369.86	1208.30
370.07	1257.45
370.28	1322.99
370.49	1277.93
370.70	1234.93
370.91	1308.65
371.12	1193.97
371.33	1302.51
371.54	1290.22
371.75	1286.12
371.96	1343.47
372.17	1214.45
372.38	1273.84
372.59	1329.13
372.80	1245.16
373.01	1204.21
373.22	1224.69
373.43	1337.32
373.64	1222.64
373.85	1245.16
374.06	1249.26
374.26	1228.78
374.47	1249.26
374.68	1286.12
374.89	1228.78
375.10	1230.83
375.31	1304.56
375.52	1249.26
375.73	1249.26
375.94	1230.83
376.15	1247.21
376.36	1286.12
376.57	1216.49
376.78	1243.12
376.99	1318.89
377.20	1302.51
377.40	1306.60
377.61	1325.04
377.82	1265.64
378.03	1302.51
378.24	1210.35
378.45	1245.16
378.66	1239.02
378.87	1228.78
379.08	1259.50
379.29	1341.42
379.50	1232.88
379.71	1294.32
379.91	1314.80
380.12	1265.64
380.33	1249.26
380.54	1251.31
380.75	1247.21
380.96	1273.84
381.17	1290.22
381.38	1298.41
381.59	1218.54
381.80	1296.36
382.00	1245.16
382.21	1257.45
382.42	1243.12
382.63	1245.16
382.84	1257.45
383.05	1288.17
383.26	1333.23
383.47	1263.60
383.68	1290.22
383.88	1173.49
384.09	1257.45
384.30	1230.83
384.51	1261.55
384.72	1296.36
384.93	1230.83
385.14	1298.41
385.35	1339.37
385.55	1236.97
385.76	1304.56
385.97	1327.08
386.18	1302.51
386.39	1169.39
386.60	1224.69
386.81	1308.65
387.02	1253.36
387.22	1251.31
387.43	1308.65
387.64	1335.28
387.85	1292.27
388.06	1277.93
388.27	1232.88
388.48	1249.26
388.68	1337.32
388.89	1214.45
389.10	1288.17
389.31	1331.18
389.52	1282.03
389.73	1243.12
389.93	1308.65
390.14	1298.41
390.35	1273.84
390.56	1261.55
390.77	1245.16
390.98	1253.36
391.18	1232.88
391.39	1222.64
391.60	1265.64
391.81	1277.93
392.02	1282.03
392.23	1302.51
392.43	1284.08
392.64	1261.55
392.85	1189.87
393.06	1206.25
393.27	1181.68
393.47	1269.74
393.68	1292.27
393.89	1302.51
394.10	1290.22
394.31	1232.88
394.52	1308.65
394.72	1273.84
394.93	1333.23
395.14	1202.16
395.35	1306.60
395.56	1290.22
395.76	1228.78
395.97	1282.03
396.18	1198.06
396.39	1300.46
396.60	1292.27
396.80	1267.69
397.01	1228.78
397.22	1206.25
397.43	1214.45
397.64	1296.36
397.84	1247.21
398.05	1236.97
398.26	1318.89
398.47	1265.64
398.67	1265.64
398.88	1241.07
399.09	1302.51
399.30	1249.26
399.51	1312.75
399.71	1277.93
399.92	1253.36
400.13	1253.36
400.34	1257.45
400.54	1247.21
400.75	1204.21
400.96	1290.22
401.17	1296.36
401.37	1320.94
401.58	1198.06
401.79	1286.12
402.00	1296.36
402.21	1308.65
402.41	1314.80
402.62	1259.50
402.83	1339.37
403.04	1292.27
403.24	1245.16
403.45	1220.59
403.66	1253.36
403.87	1263.60
404.07	1257.45
404.28	1316.84
404.49	1249.26
404.70	1300.46
404.90	1300.46
405.11	1261.55
405.32	1257.45
405.52	1243.12
405.73	1259.50
405.94	1261.55
406.15	1273.84
406.35	1202.16
406.56	1263.60
406.77	1296.36
406.98	1306.60
407.18	1284.08
407.39	1282.03
407.60	1411.05
407.80	1306.60
408.01	1302.51
408.22	1261.55
408.43	1243.12
408.63	1204.21
408.84	1265.64
409.05	1263.60
409.25	1269.74
409.46	1290.22
409.67	1253.36
409.88	1273.84
410.08	1294.32
410.29	1296.36
410.50	1273.84
410.70	1224.69
410.91	1267.69
411.12	1318.89
411.32	1341.42
411.53	1310.70
411.74	1325.04
411.95	1275.88
412.15	1220.59
412.36	1210.35
412.57	1245.16
412.77	1275.88
412.98	1247.21
413.19	1255.40
413.39	1245.16
413.60	1257.45
413.81	1282.03
414.01	1249.26
414.22	1310.70
414.43	1218.54
414.63	1337.32
414.84	1296.36
415.05	1298.41
415.25	1282.03
415.46	1255.40
415.67	1245.16
415.87	1183.73
416.08	1269.74
416.29	1286.12
416.49	1234.93
416.70	1298.41
416.91	1259.50
417.11	1296.36
417.32	1265.64
417.53	1288.17
417.73	1267.69
417.94	1261.55
418.15	1208.30
418.35	1331.18
418.56	1249.26
418.77	1251.31
418.97	1220.59
419.18	1239.02
419.38	1282.03
419.59	1333.23
419.80	1226.73
420.00	1230.83
420.21	1259.50
420.42	1261.55
420.62	1249.26
420.83	1318.89
421.04	1210.35
421.24	1241.07
421.45	1320.94
421.65	1234.93
421.86	1269.74
422.07	1269.74
422.27	1273.84
422.48	1290.22
422.69	1312.75
422.89	1267.69
423.10	1296.36
423.30	1259.50
423.51	1236.97
423.72	1298.41
423.92	1357.80
424.13	1277.93
424.33	1214.45
424.54	1296.36
424.75	1222.64
424.95	1259.50
425.16	1251.31
425.36	1191.92
425.57	1294.32
425.78	1288.17
425.98	1271.79
426.19	1191.92
426.39	1247.21
426.60	1318.89
426.81	1257.45
427.01	1265.64
427.22	1277.93
427.42	1243.12
427.63	1302.51
427.83	1243.12
428.04	1306.60
428.25	1331.18
428.45	1292.27
428.66	1275.88
428.86	1257.45
429.07	1273.84
429.28	1259.50
429.48	1187.82
429.69	1306.60
429.89	1327.08
430.10	1255.40
430.30	1308.65
430.51	1239.02
430.71	1243.12
430.92	1279.98
431.13	1249.26
431.33	1263.60
431.54	1261.55
431.74	1271.79
431.95	1294.32
432.15	1296.36
432.36	1243.12
432.56	1282.03
432.77	1322.99
432.98	1247.21
433.18	1265.64
433.39	1290.22
433.59	1288.17
433.80	1273.84
434.00	1288.17
434.21	1267.69
434.41	1286.12
434.62	1257.45
434.82	1341.42
435.03	1208.30
435.23	1288.17
435.44	1306.60
435.64	1179.63
435.85	1351.66
436.06	1316.84
436.26	1347.56
436.47	1253.36
436.67	1282.03
436.88	1232.88
437.08	1298.41
437.29	1296.36
437.49	1232.88
437.70	1234.93
437.90	1230.83
438.11	1236.97
438.31	1347.56
438.52	1249.26
438.72	1232.88
438.93	1282.03
439.13	1359.85
439.34	1290.22
439.54	1333.23
439.75	1255.40
439.95	1263.60
440.16	1337.32
440.36	1279.98
440.57	1257.45
440.77	1257.45
440.98	1286.12
441.18	1255.40
441.39	1249.26
441.59	1329.13
441.80	1351.66
442.00	1232.88
442.21	1273.84
442.41	1220.59
442.62	1277.93
442.82	1257.45
443.02	1269.74
443.23	1288.17
443.43	1255.40
443.64	1318.89
443.84	1261.55
444.05	1218.54
444.25	1232.88
444.46	1304.56
444.66	1327.08
444.87	1277.93
445.07	1247.21
445.28	1253.36
445.48	1247.21
445.69	1228.78
445.89	1273.84
446.09	1193.97
446.30	1275.88
446.50	1220.59
446.71	1259.50
446.91	1239.02
447.12	1269.74
447.32	1204.21
447.53	1290.22
447.73	1298.41
447.93	1275.88
448.14	1220.59
448.34	1304.56
448.55	1273.84
448.75	1347.56
448.96	1288.17
449.16	1232.88
449.36	1265.64
449.57	1253.36
449.77	1292.27
449.98	1327.08
450.18	1288.17
450.39	1257.45
450.59	1290.22
450.79	1347.56
451.00	1236.97
451.20	1267.69
451.41	1261.55
451.61	1241.07
451.81	1286.12
452.02	1337.32
452.22	1249.26
452.43	1312.75
452.63	1247.21
452.84	1257.45
453.04	1292.27
453.24	1265.64
453.45	1222.64
453.65	1355.76
453.86	1271.79
454.06	1230.83
454.26	1343.47
454.47	1247.21
454.67	1247.21
454.87	1218.54
455.08	1322.99
455.28	1249.26
455.49	1255.40
455.69	1273.84
455.89	1314.80
456.10	1253.36
456.30	1296.36
456.51	1294.32
456.71	1259.50
456.91	1261.55
457.12	1245.16
457.32	1314.80
457.52	1261.55
457.73	1302.51
457.93	1232.88
458.14	1298.41
458.34	1284.08
458.54	1234.93
458.75	1271.79
458.95	1312.75
459.15	1261.55
459.36	1273.84
459.56	1265.64
459.76	1277.93
459.97	1239.02
460.17	1259.50
460.37	1200.11
460.58	1222.64
460.78	1310.70
460.99	1310.70
461.19	1284.08
461.39	1265.64
461.60	1345.52
461.80	1304.56
462.00	1282.03
462.21	1275.88
462.41	1320.94
462.61	1286.12
462.82	1255.40
463.02	1298.41
463.22	1271.79
463.43	1269.74
463.63	1222.64
463.83	1290.22
464.04	1325.04
464.24	1232.88
464.44	1298.41
464.64	1253.36
464.85	1331.18
465.05	1200.11
465.25	1253.36
465.46	1232.88
465.66	1253.36
465.86	1218.54
466.07	1320.94
466.27	1255.40
466.47	1273.84
466.68	1232.88
466.88	1316.84
467.08	1282.03
467.29	1318.89
467.49	1255.40
467.69	1232.88
467.89	1298.41
468.10	1218.54
468.30	1279.98
468.50	1304.56
468.71	1249.26
468.91	1304.56
469.11	1210.35
469.31	1257.45
469.52	1257.45
469.72	1247.21
469.92	1296.36
470.13	1253.36
470.33	1251.31
470.53	1230.83
470.73	1257.45
470.94	1302.51
471.14	1277.93
471.34	1247.21
471.54	1259.50
471.75	1275.88
471.95	1277.93
472.15	1310.70
472.36	1304.56
472.56	1255.40
472.76	1185.77
472.96	1296.36
473.17	1282.03
473.37	1294.32
473.57	1265.64
473.77	1298.41
473.98	1298.41
474.18	1241.07
474.38	1366.00
474.58	1292.27
474.79	1300.46
474.99	1302.51
475.19	1263.60
475.39	1245.16
475.60	1302.51
475.80	1249.26
476.00	1267.69
476.20	1241.07
476.41	1304.56
476.61	1294.32
476.81	1349.61
477.01	1292.27
477.21	1255.40
477.42	1312.75
477.62	1273.84
477.82	1263.60
478.02	1259.50
478.23	1251.31
478.43	1241.07
478.63	1345.52
478.83	1261.55
479.03	1259.50
479.24	1322.99
479.44	1327.08
479.64	1275.88
479.84	1302.51
480.04	1236.97
480.25	1304.56
480.45	1349.61
480.65	1296.36
480.85	1292.27
481.06	1273.84
481.26	1200.11
481.46	1363.95
481.66	1302.51
481.86	1306.60
482.06	1226.73
482.27	1234.93
482.47	1259.50
482.67	1138.67
482.87	1259.50
483.07	1269.74
483.28	1296.36
483.48	1331.18
483.68	1222.64
483.88	1191.92
484.08	1241.07
484.29	1333.23
484.49	1265.64
484.69	1282.03
484.89	1232.88
485.09	1286.12
485.29	1243.12
485.50	1222.64
485.70	1257.45
485.90	1304.56
486.10	1228.78
486.30	1372.14
486.50	1255.40
486.71	1308.65
486.91	1224.69
487.11	1312.75
487.31	1275.88
487.51	1286.12
487.71	1269.74
487.91	1232.88
488.12	1294.32
488.32	1288.17
488.52	1277.93
488.72	1255.40
488.92	1232.88
489.12	1265.64
489.32	1355.76
489.53	1253.36
489.73	1275.88
489.93	1224.69
490.13	1325.04
490.33	1212.40
490.53	1349.61
490.73	1322.99
490.94	1298.41
491.14	1265.64
491.34	1243.12
491.54	1298.41
491.74	1286.12
491.94	1273.84
492.14	1253.36
492.34	1241.07
492.54	1255.40
492.75	1241.07
492.95	1284.08
493.15	1271.79
493.35	1243.12
493.55	1249.26
493.75	1249.26
493.95	1230.83
494.15	1206.25
494.35	1308.65
494.56	1243.12
494.76	1255.40
494.96	1286.12
495.16	1277.93
495.36	1298.41
495.56	1269.74
495.76	1249.26
495.96	1284.08
496.16	1236.97
496.36	1265.64
496.56	1290.22
496.77	1308.65
496.97	1261.55
497.17	1249.26
497.37	1241.07
497.57	1347.56
497.77	1304.56
497.97	1239.02
498.17	1257.45
498.37	1361.90
498.57	1226.73
498.77	1245.16
498.97	1308.65
499.17	1247.21
499.38	1253.36
499.58	1322.99
499.78	1349.61
499.98	1234.93
500.18	1273.84
500.38	1236.97
500.58	1206.25
500.78	1255.40
500.98	1261.55
501.18	1241.07
501.38	1263.60
501.58	1279.98
501.78	1247.21
501.98	1228.78
502.18	1325.04
502.38	1279.98
502.58	1320.94
502.78	1318.89
502.98	1355.76
503.18	1310.70
503.38	1286.12
503.59	1294.32
503.79	1314.80
503.99	1265.64
504.19	1200.11
504.39	1304.56
504.59	1282.03
504.79	1232.88
504.99	1341.42
505.19	1296.36
505.39	1331.18
505.59	1298.41
505.79	1271.79
505.99	1296.36
506.19	1286.12
506.39	1333.23
506.59	1226.73
506.79	1345.52
506.99	1308.65
507.19	1292.27
507.39	1247.21
507.59	1245.16
507.79	1249.26
507.99	1261.55
508.19	1322.99
508.39	1239.02
508.59	1216.49
508.79	1161.20
508.99	1333.23
509.19	1255.40
509.39	1312.75
509.59	1226.73
509.79	1292.27
509.99	1263.60
510.19	1288.17
510.39	1288.17
510.59	1259.50
510.79	1267.69
510.99	1241.07
511.19	1277.93
511.39	1239.02
511.59	1230.83
511.79	1296.36
511.99	1265.64
512.19	1275.88
512.38	1173.49
512.58	1216.49
512.78	1249.26
512.98	1230.83
513.18	1345.52
513.38	1214.45
513.58	1325.04
513.78	1304.56
513.98	1290.22
514.18	1204.21
514.38	1318.89
514.58	1294.32
514.78	1267.69
514.98	1208.30
515.18	1263.60
515.38	1210.35
515.58	1298.41
515.78	1322.99
515.98	1290.22
516.18	1329.13
516.38	1275.88
516.57	1271.79
516.77	1296.36
516.97	1241.07
517.17	1304.56
517.37	1261.55
517.57	1282.03
517.77	1286.12
517.97	1234.93
518.17	1339.37
518.37	1224.69
518.57	1259.50
518.77	1302.51
518.97	1265.64
519.16	1296.36
519.36	1265.64
519.56	1298.41
519.76	1386.47
519.96	1331.18
520.16	1200.11
520.36	1249.26
520.56	1277.93
520.76	1310.70
520.96	1220.59
521.16	1290.22
521.35	1294.32
521.55	1284.08
521.75	1294.32
521.95	1329.13
522.15	1167.34
522.35	1265.64
522.55	1292.27
522.75	1193.97
522.95	1304.56
523.14	1267.69
523.34	1249.26
523.54	1284.08
523.74	1241.07
523.94	1282.03
524.14	1302.51
524.34	1249.26
524.54	1284.08
524.73	1265.64
524.93	1331.18
525.13	1380.33
525.33	1271.79
525.53	1298.41
525.73	1312.75
525.93	1230.83
526.13	1247.21
526.32	1257.45
526.52	1255.40
526.72	1218.54
526.92	1271.79
527.12	1320.94
527.32	1294.32
527.52	1298.41
527.71	1243.12
527.91	1273.84
528.11	1261.55
528.31	1189.87
528.51	1296.36
528.71	1279.98
528.90	1239.02
529.10	1318.89
529.30	1249.26
529.50	1249.26
529.70	1239.02
529.90	1261.55
530.09	1247.21
530.29	1296.36
530.49	1284.08
530.69	1310.70
530.89	1249.26
531.09	1257.45
531.28	1243.12
531.48	1263.60
531.68	1214.45
531.88	1329.13
532.08	1271.79
532.28	1347.56
532.47	1241.07
532.67	1210.35
532.87	1249.26
533.07	1263.60
533.27	1265.64
533.46	1296.36
533.66	1290.22
533.86	1288.17
534.06	1275.88
534.26	1329.13
534.45	1302.51
534.65	1296.36
534.85	1167.34
535.05	1308.65
535.25	1259.50
535.44	1298.41
535.64	1341.42
535.84	1261.55
536.04	1292.27
536.24	1282.03
536.43	1331.18
536.63	1304.56
536.83	1273.84
537.03	1279.98
537.22	1269.74
537.42	1241.07
537.62	1257.45
537.82	1269.74
538.02	1294.32
538.21	1345.52
538.41	1302.51
538.61	1288.17
538.81	1322.99
539.00	1202.16
539.20	1286.12
539.40	1292.27
539.60	1249.26
539.79	1265.64
539.99	1275.88
540.19	1300.46
540.39	1220.59
540.58	1296.36
540.78	1220.59
540.98	1259.50
541.18	1220.59
541.37	1290.22
541.57	1277.93
541.77	1241.07
541.97	1306.60
542.16	1232.88
542.36	1292.27
542.56	1220.59
542.76	1294.32
542.95	1255.40
543.15	1296.36
543.35	1341.42
543.54	1290.22
543.74	1292.27
543.94	1345.52
544.14	1228.78
544.33	1327.08
544.53	1320.94
544.73	1292.27
544.93	1249.26
545.12	1304.56
545.32	1286.12
545.52	1351.66
545.71	1236.97
545.91	1290.22
546.11	1279.98
546.30	1308.65
546.50	1302.51
546.70	1187.82
546.90	1288.17
547.09	1187.82
547.29	1304.56
547.49	1267.69
547.68	1314.80
547.88	1265.64
548.08	1341.42
548.27	1320.94
548.47	1296.36
548.67	1302.51
548.87	1282.03
549.06	1249.26
549.26	1390.57
549.46	1304.56
549.65	1282.03
549.85	1327.08
550.05	1269.74
550.24	1298.41
550.44	1269.74
550.64	1269.74
550.83	1310.70
551.03	1245.16
551.23	1329.13
551.42	1314.80
551.62	1308.65
551.82	1306.60
552.01	1198.06
552.21	1255.40
552.41	1224.69
552.60	1310.70
552.80	1314.80
553.00	1234.93
553.19	1310.70
553.39	1265.64
553.59	1232.88
553.78	1193.97
553.98	1269.74
554.17	1312.75
554.37	1298.41
554.57	1245.16
554.76	1255.40
554.96	1312.75
555.16	1290.22
555.35	1273.84
555.55	1216.49
555.75	1267.69
555.94	1308.65
556.14	1216.49
556.33	1271.79
556.53	1251.31
556.73	1314.80
556.92	1277.93
557.12	1361.90
557.32	1359.85
557.51	1337.32
557.71	1318.89
557.90	1269.74
558.10	1220.59
558.30	1292.27
558.49	1286.12
558.69	1288.17
558.88	1298.41
559.08	1263.60
559.28	1251.31
559.47	1306.60
559.67	1245.16
559.86	1277.93
560.06	1331.18
560.26	1255.40
560.45	1257.45
560.65	1308.65
560.84	1302.51
561.04	1249.26
561.24	1329.13
561.43	1306.60
561.63	1310.70
561.82	1382.38
562.02	1302.51
562.22	1255.40
562.41	1265.64
562.61	1255.40
562.80	1271.79
563.00	1282.03
563.19	1294.32
563.39	1294.32
563.59	1275.88
563.78	1255.40
563.98	1275.88
564.17	1234.93
564.37	1236.97
564.56	1310.70
564.76	1257.45
564.96	1267.69
565.15	1298.41
565.35	1263.60
565.54	1306.60
565.74	1304.56
565.93	1249.26
566.13	1296.36
566.32	1277.93
566.52	1273.84
566.71	1232.88
566.91	1259.50
567.11	1228.78
567.30	1282.03
567.50	1343.47
567.69	1302.51
567.89	1318.89
568.08	1339.37
568.28	1357.80
568.47	1259.50
568.67	1288.17
568.86	1378.28
569.06	1284.08
569.25	1310.70
569.45	1290.22
569.64	1277.93
569.84	1277.93
570.04	1255.40
570.23	1335.28
570.43	1308.65
570.62	1247.21
570.82	1251.31
571.01	1263.60
571.21	1265.64
571.40	1255.40
571.60	1290.22
571.79	1347.56
571.99	1230.83
572.18	1314.80
572.38	1286.12
572.57	1337.32
572.77	1290.22
572.96	1255.40
573.16	1372.14
573.35	1277.93
573.55	1333.23
573.74	1284.08
573.94	1255.40
574.13	1314.80
574.33	1300.46
574.52	1314.80
574.71	1269.74
574.91	1314.80
575.10	1290.22
575.30	1329.13
575.49	1320.94
575.69	1284.08
575.88	1290.22
576.08	1314.80
576.27	1347.56
576.47	1292.27
576.66	1257.45
576.86	1290.22
577.05	1255.40
577.25	1275.88
577.44	1335.28
577.64	1265.64
577.83	1222.64
578.02	1277.93
578.22	1300.46
578.41	1286.12
578.61	1292.27
578.80	1261.55
579.00	1200.11
579.19	1277.93
579.39	1333.23
579.58	1296.36
579.77	1279.98
579.97	1345.52
580.16	1296.36
580.36	1290.22
580.55	1279.98
580.75	1298.41
580.94	1376.24
581.13	1243.12
581.33	1302.51
581.52	1212.40
581.72	1316.84
581.91	1335.28
582.11	1224.69
582.30	1279.98
582.49	1298.41
582.69	1230.83
582.88	1304.56
583.08	1198.06
583.27	1296.36
583.47	1206.25
583.66	1339.37
583.85	1228.78
584.05	1271.79
584.24	1286.12
584.44	1292.27
584.63	1331.18
584.82	1251.31
585.02	1232.88
585.21	1290.22
585.41	1265.64
585.60	1341.42
585.79	1296.36
585.99	1245.16
586.18	1320.94
586.37	1288.17
586.57	1292.27
586.76	1269.74
586.96	1286.12
587.15	1335.28
587.34	1265.64
587.54	1304.56
587.73	1239.02
587.93	1269.74
588.12	1327.08
588.31	1282.03
588.51	1210.35
588.70	1265.64
588.89	1261.55
589.09	1322.99
589.28	1322.99
589.47	1306.60
589.67	1263.60
589.86	1226.73
590.06	1267.69
590.25	1241.07
590.44	1286.12
590.64	1245.16
590.83	1261.55
591.02	1353.71
591.22	1304.56
591.41	1339.37
591.60	1193.97
591.80	1296.36
591.99	1296.36
592.18	1239.02
592.38	1292.27
592.57	1257.45
592.76	1288.17
592.96	1255.40
593.15	1198.06
593.34	1202.16
593.54	1191.92
593.73	1277.93
593.92	1327.08
594.12	1300.46
594.31	1290.22
594.50	1277.93
594.70	1322.99
594.89	1298.41
595.08	1314.80
595.28	1239.02
595.47	1366.00
595.66	1253.36
595.86	1214.45
596.05	1298.41
596.24	1261.55
596.43	1257.45
596.63	1322.99
596.82	1284.08
597.01	1292.27
597.21	1310.70
597.40	1298.41
597.59	1284.08
597.79	1292.27
597.98	1185.77
598.17	1218.54
598.36	1282.03
598.56	1310.70
598.75	1314.80
598.94	1251.31
599.14	1263.60
599.33	1286.12
599.52	1263.60
599.71	1316.84
599.91	1279.98
600.10	1355.76
600.29	1327.08
600.48	1245.16
600.68	1314.80
600.87	1308.65
601.06	1331.18
601.26	1249.26
601.45	1282.03
601.64	1241.07
601.83	1267.69
602.03	1269.74
602.22	1269.74
602.41	1249.26
602.60	1304.56
602.80	1314.80
602.99	1314.80
603.18	1359.85
603.37	1304.56
603.57	1288.17
603.76	1245.16
603.95	1228.78
604.14	1349.61
604.34	1322.99
604.53	1306.60
604.72	1277.93
604.91	1263.60
605.10	1243.12
605.30	1298.41
605.49	1265.64
605.68	1298.41
605.87	1230.83
606.07	1275.88
606.26	1296.36
606.45	1302.51
606.64	1290.22
606.84	1273.84
607.03	1255.40
607.22	1312.75
607.41	1284.08
607.60	1239.02
607.80	1300.46
607.99	1331.18
608.18	1282.03
608.37	1337.32
608.56	1327.08
608.76	1363.95
608.95	1322.99
609.14	1230.83
609.33	1224.69
609.52	1310.70
609.72	1263.60
609.91	1245.16
610.10	1257.45
610.29	1300.46
610.48	1271.79
610.68	1335.28
610.87	1302.51
611.06	1296.36
611.25	1300.46
611.44	1255.40
611.63	1288.17
611.83	1243.12
612.02	1284.08
612.21	1325.04
612.40	1257.45
612.59	1300.46
612.79	1275.88
612.98	1269.74
613.17	1310.70
613.36	1261.55
613.55	1304.56
613.74	1245.16
613.93	1257.45
614.13	1253.36
614.32	1353.71
614.51	1290.22
614.70	1286.12
614.89	1275.88
615.08	1298.41
615.28	1308.65
615.47	1245.16
615.66	1282.03
615.85	1359.85
616.04	1279.98
616.23	1277.93
616.42	1245.16
616.62	1312.75
616.81	1298.41
617.00	1347.56
617.19	1277.93
617.38	1312.75
617.57	1247.21
617.76	1300.46
617.95	1269.74
618.15	1243.12
618.34	1351.66
618.53	1249.26
618.72	1247.21
618.91	1247.21
619.10	1308.65
619.29	1331.18
619.48	1286.12
619.68	1165.29
619.87	1263.60
620.06	1298.41
620.25	1292.27
620.44	1245.16
620.63	1239.02
620.82	1247.21
621.01	1298.41
621.20	1245.16
621.39	1308.65
621.59	1241.07
621.78	1347.56
621.97	1384.43
622.16	1284.08
622.35	1370.09
622.54	1241.07
622.73	1329.13
622.92	1316.84
623.11	1302.51
623.30	1294.32
623.49	1318.89
623.68	1271.79
623.88	1273.84
624.07	1345.52
624.26	1331.18
624.45	1290.22
624.64	1230.83
624.83	1259.50
625.02	1279.98
625.21	1267.69
625.40	1292.27
625.59	1284.08
625.78	1333.23
625.97	1220.59
626.16	1404.91
626.35	1294.32
626.54	1286.12
626.74	1224.69
626.93	1345.52
627.12	1230.83
627.31	1351.66
627.50	1308.65
627.69	1273.84
627.88	1302.51
628.07	1263.60
628.26	1300.46
628.45	1239.02
628.64	1329.13
628.83	1284.08
629.02	1292.27
629.21	1300.46
629.40	1282.03
629.59	1239.02
629.78	1318.89
629.97	1288.17
630.16	1277.93
630.35	1298.41
630.54	1277.93
630.73	1300.46
630.92	1353.71
631.11	1253.36
631.30	1232.88
631.49	1304.56
631.68	1320.94
631.87	1400.81
632.06	1753.06
632.25	1558.50
632.44	1538.02
632.63	1468.39
632.82	1585.13
633.01	1718.25
633.20	1535.98
633.39	1834.98
633.58	2050.02
633.77	1431.53
633.96	1599.46
634.15	2723.80
634.34	6238.11
634.53	6119.33
634.72	4550.59
634.91	7380.88
635.10	12891.96
635.29	16682.75
635.48	16328.45
635.67	13551.41
635.86	10184.55
636.05	7733.13
636.24	5085.11
636.43	3368.91
636.62	2355.16
636.81	1855.46
637.00	1601.51
637.19	1503.21
637.38	1413.10
637.57	1419.24
637.76	1413.10
637.95	1347.56
638.14	1400.81
638.33	1384.43
638.52	1406.95
638.71	1325.04
638.89	1382.38
639.08	1376.24
639.27	1325.04
639.46	1294.32
639.65	1294.32
639.84	1247.21
640.03	1263.60
640.22	1325.04
640.41	1302.51
640.60	1163.25
640.79	1300.46
640.98	1304.56
641.17	1263.60
641.36	1296.36
641.55	1306.60
641.74	1232.88
641.92	1277.93
642.11	1282.03
642.30	1339.37
642.49	1267.69
642.68	1204.21
642.87	1277.93
643.06	1290.22
643.25	1366.00
643.44	1187.82
643.63	1239.02
643.82	1234.93
644.00	1290.22
644.19	1243.12
644.38	1298.41
644.57	1306.60
644.76	1370.09
644.95	1265.64
645.14	1277.93
645.33	1288.17
645.52	1345.52
645.71	1314.80
645.89	1318.89
646.08	1294.32
646.27	1296.36
646.46	1234.93
646.65	1212.40
646.84	1208.30
647.03	1308.65
647.22	1282.03
647.40	1279.98
647.59	1263.60
647.78	1302.51
647.97	1208.30
648.16	1245.16
648.35	1331.18
648.54	1302.51
648.73	1298.41
648.91	1312.75
649.10	1259.50
649.29	1282.03
649.48	1302.51
649.67	1284.08
649.86	1243.12
650.05	1261.55
650.23	1230.83
650.42	1265.64
650.61	1314.80
650.80	1200.11
650.99	1320.94
651.18	1269.74
651.36	1341.42
651.55	1284.08
651.74	1286.12
651.93	1331.18
652.12	1255.40
652.31	1310.70
652.49	1316.84
652.68	1247.21
652.87	1286.12
653.06	1222.64
653.25	1312.75
653.44	1236.97
653.62	1236.97
653.81	1310.70
654.00	1267.69
654.19	1206.25
654.38	1292.27
654.56	1325.04
654.75	1300.46
654.94	1308.65
655.13	1296.36
655.32	1271.79
655.51	1134.57
655.69	1232.88
655.88	1300.46
656.07	1269.74
656.26	1296.36
656.45	1267.69
656.63	1239.02
656.82	1257.45
657.01	1327.08
657.20	1333.23
657.38	1320.94
657.57	1318.89
657.76	1232.88
657.95	1263.60
658.14	1271.79
658.32	1253.36
658.51	1253.36
658.70	1335.28
658.89	1306.60
659.08	1310.70
659.26	1294.32
659.45	1193.97
659.64	1368.04
659.83	1275.88
660.01	1277.93
660.20	1296.36
660.39	1183.73
660.58	1251.31
660.76	1290.22
660.95	1245.16
661.14	1232.88
661.33	1249.26
661.51	1310.70
661.70	1275.88
661.89	1253.36
662.08	1286.12
662.26	1249.26
662.45	1337.32
662.64	1288.17
662.83	1224.69
663.01	1296.36
663.20	1224.69
663.39	1304.56
663.58	1265.64
663.76	1288.17
663.95	1247.21
664.14	1329.13
664.32	1333.23
664.51	1257.45
664.70	1245.16
664.89	1263.60
665.07	1300.46
665.26	1208.30
665.45	1245.16
665.64	1298.41
665.82	1273.84
666.01	1259.50
666.20	1222.64
666.38	1243.12
666.57	1282.03
666.76	1265.64
666.95	1279.98
667.13	1212.40
667.32	1234.93
667.51	1241.07
667.69	1243.12
667.88	1294.32
668.07	1216.49
668.25	1308.65
668.44	1220.59
668.63	1296.36
668.81	1269.74
669.00	1232.88
669.19	1253.36
669.38	1284.08
669.56	1318.89
669.75	1183.73
669.94	1294.32
670.12	1212.40
670.31	1322.99
670.50	1226.73
670.68	1286.12
670.87	1284.08
671.06	1271.79
671.24	1308.65
671.43	1253.36
671.62	1322.99
671.80	1290.22
671.99	1310.70
672.18	1316.84
672.36	1275.88
672.55	1243.12
672.74	1257.45
672.92	1345.52
673.11	1316.84
673.29	1255.40
673.48	1286.12
673.67	1191.92
673.85	1292.27
674.04	1263.60
674.23	1232.88
674.41	1271.79
674.60	1239.02
674.79	1308.65
674.97	1271.79
675.16	1269.74
675.34	1296.36
675.53	1212.40
675.72	1165.29
675.90	1255.40
676.09	1292.27
676.28	1224.69
676.46	1259.50
676.65	1241.07
676.83	1314.80
677.02	1263.60
677.21	1288.17
677.39	1222.64
677.58	1261.55
677.77	1265.64
677.95	1363.95
678.14	1265.64
678.32	1196.01
678.51	1257.45
678.70	1284.08
678.88	1253.36
679.07	1263.60
679.25	1306.60
679.44	1310.70
679.63	1218.54
679.81	1236.97
680.00	1232.88
680.18	1320.94
680.37	1241.07
680.55	1267.69
680.74	1300.46
680.93	1304.56
681.11	1245.16
681.30	1226.73
681.48	1310.70
681.67	1251.31
681.85	1298.41
682.04	1214.45
682.23	1245.16
682.41	1271.79
682.60	1314.80
682.78	1265.64
682.97	1296.36
683.15	1255.40
683.34	1263.60
683.53	1345.52
683.71	1331.18
683.90	1239.02
684.08	1275.88
684.27	1279.98
684.45	1234.93
684.64	1255.40
684.82	1341.42
685.01	1337.32
685.19	1259.50
685.38	1329.13
685.57	1198.06
685.75	1316.84
685.94	1253.36
686.12	1261.55
686.31	1341.42
686.49	1247.21
686.68	1241.07
686.86	1322.99
687.05	1175.53
687.23	1314.80
687.42	1282.03
687.60	1292.27
687.79	1286.12
687.97	1294.32
688.16	1271.79
688.34	1292.27
688.53	1196.01
688.71	1220.59
688.90	1314.80
689.08	1329.13
689.27	1277.93
689.45	1290.22
689.64	1308.65
689.82	1314.80
690.01	1228.78
690.19	1320.94
690.38	1208.30
690.56	1275.88
690.75	1257.45
690.93	1257.45
691.12	1273.84
691.30	1214.45
691.49	1267.69
691.67	1259.50
691.86	1253.36
692.04	1253.36
692.23	1329.13
692.41	1239.02
692.60	1228.78
692.78	1288.17
692.97	1236.97
693.15	1241.07
693.34	1294.32
693.52	1247.21
693.71	1290.22
693.89	1286.12
694.08	1277.93
694.26	1249.26
694.44	1236.97
694.63	1339.37
694.81	1298.41
695.00	1318.89
695.18	1222.64
695.37	1298.41
695.55	1265.64
695.74	1220.59
695.92	1249.26
696.10	1261.55
696.29	1247.21
696.47	1294.32
696.66	1224.69
696.84	1271.79
697.03	1304.56
697.21	1306.60
697.40	1277.93
697.58	1335.28
697.76	1234.93
697.95	1179.63
698.13	1226.73
698.32	1308.65
698.50	1288.17
698.68	1290.22
698.87	1249.26
699.05	1263.60
699.24	1269.74
699.42	1273.84
699.61	1290.22
699.79	1234.93
699.97	1292.27
700.16	1222.64
700.34	1310.70
700.53	1271.79
700.71	1290.22
700.89	1286.12
701.08	1300.46
701.26	1261.55
701.45	1261.55
701.63	1343.47
701.81	1236.97
702.00	1286.12
702.18	1253.36
702.37	1304.56
702.55	1277.93
702.73	1282.03
702.92	1294.32
703.10	1310.70
703.28	1284.08
703.47	1208.30
703.65	1302.51
703.84	1277.93
704.02	1282.03
704.20	1247.21
704.39	1253.36
704.57	1181.68
704.75	1302.51
704.94	1306.60
705.12	1286.12
705.30	1255.40
705.49	1249.26
705.67	1296.36
705.86	1226.73
706.04	1271.79
706.22	1247.21
706.41	1247.21
706.59	1236.97
706.77	1331.18
706.96	1218.54
707.14	1269.74
707.32	1255.40
707.51	1290.22
707.69	1275.88
707.87	1310.70
708.06	1314.80
708.24	1302.51
708.42	1245.16
708.61	1255.40
708.79	1181.68
708.97	1265.64
709.16	1245.16
709.34	1284.08
709.52	1261.55
709.71	1218.54
709.89	1249.26
710.07	1327.08
710.26	1265.64
710.44	1290.22
710.62	1245.16
710.80	1269.74
710.99	1267.69
711.17	1249.26
711.35	1255.40
711.54	1275.88
711.72	1265.64
711.90	1290.22
712.09	1265.64
712.27	1296.36
712.45	1339.37
712.63	1327.08
712.82	1265.64
713.00	1282.03
713.18	1208.30
713.37	1320.94
713.55	1318.89
713.73	1284.08
713.91	1314.80
714.10	1314.80
714.28	1216.49
714.46	1273.84
714.65	1329.13
714.83	1288.17
715.01	1320.94
715.19	1284.08
715.38	1234.93
715.56	1259.50
715.74	1263.60
715.92	1245.16
716.11	1312.75
716.29	1198.06
716.47	1316.84
716.65	1187.82
716.84	1259.50
717.02	1265.64
717.20	1247.21
717.38	1282.03
717.57	1261.55
717.75	1286.12
717.93	1271.79
718.11	1288.17
718.30	1273.84
718.48	1279.98
718.66	1191.92
718.84	1275.88
719.03	1347.56
719.21	1251.31
719.39	1226.73
719.57	1259.50
719.75	1279.98
719.94	1263.60
720.12	1234.93
720.30	1132.53
720.48	1206.25
720.67	1279.98
720.85	1214.45
721.03	1288.17
721.21	1247.21
721.39	1236.97
721.58	1212.40
721.76	1265.64
721.94	1214.45
722.12	1267.69
722.30	1255.40
722.49	1239.02
722.67	1306.60
722.85	1249.26
723.03	1210.35
723.21	1230.83
723.40	1232.88
723.58	1269.74
723.76	1255.40
723.94	1220.59
724.12	1230.83
724.30	1304.56
724.49	1308.65
724.67	1247.21
724.85	1216.49
725.03	1249.26
725.21	1247.21
725.40	1236.97
725.58	1277.93
725.76	1247.21
725.94	1298.41
726.12	1193.97
726.30	1214.45
726.49	1263.60
726.67	1277.93
726.85	1263.60
727.03	1247.21
727.21	1290.22
727.39	1226.73
727.57	1234.93
727.76	1208.30
727.94	1277.93
728.12	1271.79
728.30	1331.18
728.48	1216.49
728.66	1296.36
728.84	1284.08
729.03	1275.88
729.21	1370.09
729.39	1294.32
729.57	1261.55
729.75	1200.11
729.93	1331.18
730.11	1239.02
730.30	1269.74
730.48	1325.04
730.66	1239.02
730.84	1232.88
731.02	1267.69
731.20	1247.21
731.38	1228.78
731.56	1329.13
731.74	1290.22
731.93	1257.45
732.11	1236.97
732.29	1183.73
732.47	1316.84
732.65	1265.64
732.83	1294.32
733.01	1241.07
733.19	1275.88
733.37	1236.97
733.56	1200.11
733.74	1271.79
733.92	1277.93
734.10	1275.88
734.28	1298.41
734.46	1241.07
734.64	1230.83
734.82	1294.32
735.00	1306.60
735.18	1267.69
735.36	1239.02
735.54	1294.32
735.73	1245.16
735.91	1304.56
736.09	1286.12
736.27	1277.93
736.45	1249.26
736.63	1267.69
736.81	1245.16
736.99	1269.74
737.17	1314.80
737.35	1198.06
737.53	1224.69
737.71	1259.50
737.89	1269.74
738.07	1222.64
738.25	1282.03
738.43	1247.21
738.61	1279.98
738.80	1230.83
738.98	1243.12
739.16	1255.40
739.34	1241.07
739.52	1249.26
739.70	1253.36
739.88	1249.26
740.06	1290.22
740.24	1277.93
740.42	1206.25
740.60	1331.18
740.78	1263.60
740.96	1343.47
741.14	1222.64
741.32	1247.21
741.50	1275.88
741.68	1304.56
741.86	1249.26
742.04	1261.55
742.22	1222.64
742.40	1277.93
742.58	1200.11
742.76	1247.21
742.94	1294.32
743.12	1288.17
743.30	1327.08
743.48	1269.74
743.66	1294.32
743.84	1230.83
744.02	1261.55
744.20	1310.70
744.38	1253.36
744.56	1265.64
744.74	1204.21
744.92	1230.83
745.10	1249.26
745.28	1263.60
745.46	1253.36
745.64	1247.21
745.82	1263.60
746.00	1251.31
746.18	1228.78
746.36	1261.55
746.54	1267.69
746.72	1257.45
746.90	1253.36
747.08	1200.11
747.26	1286.12
747.44	1292.27
747.62	1253.36
747.80	1288.17
747.98	1265.64
748.15	1306.60
748.33	1257.45
748.51	1312.75
748.69	1370.09
748.87	1220.59
749.05	1294.32
749.23	1273.84
749.41	1259.50
749.59	1300.46
749.77	1224.69
749.95	1253.36
750.13	1279.98
750.31	1271.79
750.49	1288.17
750.67	1271.79
750.85	1224.69
751.03	1222.64
751.20	1214.45
751.38	1318.89
751.56	1220.59
751.74	1337.32
751.92	1327.08
752.10	1296.36
752.28	1308.65
752.46	1300.46
752.64	1232.88
752.82	1296.36
753.00	1300.46
753.18	1339.37
753.35	1251.31
753.53	1290.22
753.71	1306.60
753.89	1273.84
754.07	1239.02
754.25	1210.35
754.43	1269.74
754.61	1331.18
754.79	1282.03
754.97	1226.73
755.14	1263.60
755.32	1331.18
755.50	1298.41
755.68	1284.08
755.86	1236.97
756.04	1218.54
756.22	1261.55
756.40	1269.74
756.57	1292.27
756.75	1269.74
756.93	1290.22
757.11	1292.27
757.29	1304.56
757.47	1216.49
757.65	1290.22
757.82	1298.41
758.00	1239.02
758.18	1288.17
758.36	1253.36
758.54	1265.64
758.72	1247.21
758.90	1249.26
759.07	1300.46
759.25	1269.74
759.43	1300.46
759.61	1298.41
759.79	1245.16
759.97	1327.08
760.15	1249.26
760.32	1263.60
760.50	1218.54
760.68	1241.07
760.86	1249.26
761.04	1345.52
761.22	1198.06
761.39	1228.78
761.57	1282.03
761.75	1312.75
761.93	1222.64
762.11	1241.07
762.28	1288.17
762.46	1210.35
762.64	1265.64
762.82	1329.13
763.00	1259.50
763.18	1226.73
763.35	1245.16
763.53	1308.65
763.71	1271.79
763.89	1306.60
764.07	1273.84
764.24	1318.89
764.42	1255.40
764.60	1273.84
764.78	1226.73
764.96	1230.83
765.13	1179.63
765.31	1282.03
765.49	1222.64
765.67	1273.84
765.84	1206.25
766.02	1265.64
766.20	1372.14
766.38	1239.02
766.56	1239.02
766.73	1339.37
766.91	1300.46
767.09	1318.89
767.27	1275.88
767.44	1284.08
767.62	1234.93
767.80	1308.65
767.98	1282.03
768.15	1239.02
768.33	1306.60
768.51	1318.89
768.69	1245.16
768.87	1335.28
769.04	1245.16
769.22	1247.21
769.40	1224.69
769.58	1351.66
769.75	1245.16
769.93	1374.19
770.11	1243.12
770.28	1218.54
770.46	1259.50
770.64	1279.98
770.82	1277.93
770.99	1253.36
771.17	1224.69
771.35	1284.08
771.53	1253.36
771.70	1232.88
771.88	1261.55
772.06	1322.99
772.23	1253.36
772.41	1202.16
772.59	1267.69
772.77	1279.98
772.94	1310.70
773.12	1257.45
773.30	1288.17
773.47	1290.22
773.65	1249.26
773.83	1271.79
774.01	1257.45
774.18	1271.79
774.36	1290.22
774.54	1331.18
774.71	1294.32
774.89	1245.16
775.07	1245.16
775.24	1273.84
775.42	1243.12
775.60	1286.12
775.78	1275.88
775.95	1265.64
776.13	1325.04
776.31	1255.40
776.48	1267.69
776.66	1261.55
776.84	1210.35
777.01	1183.73
777.19	1292.27
777.37	1265.64
777.54	1245.16
777.72	1298.41
777.90	1312.75
778.07	1304.56
778.25	1200.11
778.43	1239.02
778.60	1245.16
778.78	1286.12
778.96	1259.50
779.13	1271.79
779.31	1247.21
779.49	1263.60
779.66	1269.74
779.84	1210.35
780.01	1294.32
780.19	1304.56
780.37	1304.56
780.54	1288.17
780.72	1271.79
780.90	1265.64
781.07	1234.93
781.25	1339.37
781.43	1247.21
781.60	1263.60
781.78	1232.88
781.95	1216.49
782.13	1282.03
782.31	1247.21
782.48	1271.79
782.66	1245.16
782.83	1230.83
783.01	1343.47
783.19	1304.56
783.36	1232.88
783.54	1245.16
783.72	1298.41
783.89	1198.06
784.07	1353.71
784.24	1230.83
784.42	1282.03
784.60	1230.83
784.77	1210.35
784.95	1191.92
785.12	1214.45
785.30	1187.82
785.47	1322.99
785.65	1257.45
785.83	1286.12
786.00	1212.40
786.18	1249.26
786.35	1273.84
786.53	1216.49
786.71	1286.12
786.88	1296.36
787.06	1241.07
787.23	1230.83
787.41	1251.31
787.58	1261.55
787.76	1277.93
787.94	1236.97
788.11	1275.88
788.29	1337.32
788.46	1230.83
788.64	1300.46
788.81	1228.78
788.99	1329.13
789.16	1294.32
789.34	1286.12
789.52	1384.43
789.69	1277.93
789.87	1271.79
790.04	1308.65
790.22	1284.08
790.39	1290.22
790.57	1347.56
790.74	1273.84
790.92	1259.50
791.09	1269.74
791.27	1284.08
791.44	1275.88
791.62	1296.36
791.79	1214.45
791.97	1226.73
792.15	1200.11
792.32	1263.60
792.50	1288.17
792.67	1329.13
792.85	1269.74
793.02	1247.21
793.20	1296.36
793.37	1220.59
793.55	1384.43
793.72	1253.36
793.90	1251.31
794.07	1210.35
794.25	1320.94
794.42	1200.11
794.60	1234.93
794.77	1187.82
794.95	1263.60
795.12	1282.03
795.30	1300.46
795.47	1220.59
795.65	1282.03
795.82	1308.65
796.00	1271.79
796.17	1339.37
796.34	1310.70
796.52	1230.83
796.69	1214.45
796.87	1265.64
797.04	1243.12
797.22	1251.31
797.39	1218.54
797.57	1247.21
797.74	1312.75
797.92	1257.45
798.09	1241.07
798.27	1220.59
798.44	1255.40
798.62	1243.12
798.79	1343.47
798.96	1279.98
799.14	1226.73
799.31	1347.56
799.49	1230.83
799.66	1253.36
799.84	1331.18
800.01	1220.59
800.19	1271.79
800.36	1314.80
800.53	1214.45
800.71	1286.12
800.88	1232.88
801.06	1259.50
801.23	1306.60
801.41	1269.74
801.58	1257.45
801.75	1255.40
801.93	1288.17
802.10	1294.32
802.28	1222.64
802.45	1234.93
802.63	1228.78
802.80	1277.93
802.97	1286.12
803.15	1230.83
803.32	1284.08
803.50	1230.83
803.67	1200.11
803.84	1245.16
804.02	1261.55
804.19	1314.80
804.37	1243.12
804.54	1284.08
804.71	1212.40
804.89	1257.45
805.06	1230.83
805.24	1212.40
805.41	1329.13
805.58	1296.36
805.76	1288.17
805.93	1224.69
806.10	1292.27
806.28	1296.36
806.45	1245.16
806.63	1239.02
806.80	1400.81
806.97	1234.93
807.15	1300.46
807.32	1304.56
807.49	1247.21
807.67	1224.69
807.84	1232.88
808.01	1224.69
808.19	1337.32
808.36	1222.64
808.54	1251.31
808.71	1218.54
808.88	1265.64
809.06	1271.79
809.23	1228.78
809.40	1241.07
809.58	1200.11
809.75	1284.08
809.92	1202.16
810.10	1243.12
810.27	1277.93
810.44	1271.79
810.62	1241.07
810.79	1263.60
810.96	1261.55
811.14	1249.26
811.31	1294.32
811.48	1337.32
811.66	1257.45
811.83	1290.22
812.00	1249.26
812.18	1282.03
812.35	1304.56
812.52	1255.40
812.69	1318.89
812.87	1290.22
813.04	1341.42
813.21	1261.55
813.39	1300.46
813.56	1335.28
813.73	1284.08
813.91	1263.60
814.08	1218.54
814.25	1273.84
814.42	1316.84
814.60	1245.16
814.77	1282.03
814.94	1282.03
815.12	1282.03
815.29	1277.93
815.46	1267.69
815.63	1208.30
815.81	1329.13
815.98	1296.36
816.15	1292.27
816.33	1251.31
816.50	1255.40
816.67	1234.93
816.84	1247.21
817.02	1222.64
817.19	1265.64
817.36	1300.46
817.53	1273.84
817.71	1259.50
817.88	1282.03
818.05	1210.35
818.22	1232.88
818.40	1265.64
818.57	1325.04
818.74	1294.32
818.91	1298.41
819.09	1228.78
819.26	1277.93
819.43	1261.55
819.60	1193.97
819.78	1202.16
819.95	1306.60
820.12	1253.36
820.29	1236.97
820.47	1255.40
820.64	1390.57
820.81	1277.93
820.98	1288.17
821.15	1310.70
821.33	1337.32
821.50	1279.98
821.67	1279.98
821.84	1267.69
822.02	1253.36
822.19	1282.03
822.36	1249.26
822.53	1196.01
822.70	1273.84
822.88	1239.02
823.05	1259.50
823.22	1341.42
823.39	1191.92
823.56	1271.79
823.74	1279.98
823.91	1298.41
824.08	1269.74
824.25	1269.74
824.42	1249.26
824.60	1269.74
824.77	1257.45
824.94	1150.96
825.11	1286.12
825.28	1243.12
825.45	1269.74
825.63	1239.02
825.80	1257.45
825.97	1292.27
826.14	1275.88
826.31	1196.01
826.48	1208.30
826.66	1290.22
826.83	1232.88
827.00	1265.64
827.17	1193.97
827.34	1290.22
827.51	1370.09
827.69	1304.56
827.86	1271.79
828.03	1294.32
828.20	1247.21
828.37	1282.03
828.54	1243.12
828.71	1261.55
828.89	1304.56
829.06	1273.84
829.23	1306.60
829.40	1228.78
829.57	1243.12
829.74	1302.51
829.91	1230.83
830.09	1216.49
830.26	1198.06
830.43	1198.06
830.60	1249.26
830.77	1234.93
830.94	1294.32
831.11	1304.56
831.28	1222.64
831.46	1271.79
831.63	1255.40
831.80	1249.26
831.97	1298.41
832.14	1288.17
832.31	1277.93
832.48	1300.46
832.65	1286.12
832.82	1236.97
832.99	1228.78
833.17	1222.64
833.34	1286.12
833.51	1316.84
833.68	1228.78
833.85	1255.40
834.02	1247.21
834.19	1230.83
834.36	1224.69
834.53	1273.84
834.70	1228.78
834.87	1173.49
835.04	1279.98
835.22	1257.45
835.39	1206.25
835.56	1228.78
835.73	1224.69
835.90	1232.88
836.07	1292.27
836.24	1230.83
836.41	1175.53
836.58	1212.40
836.75	1241.07
836.92	1241.07
837.09	1320.94
837.26	1300.46
837.43	1275.88
837.60	1302.51
837.77	1234.93
837.94	1249.26
838.12	1345.52
838.29	1228.78
838.46	1333.23
838.63	1241.07
838.80	1271.79
838.97	1292.27
839.14	1314.80
839.31	1212.40
839.48	1263.60
839.65	1247.21
839.82	1236.97
839.99	1353.71
840.16	1214.45
840.33	1245.16
840.50	1257.45
840.67	1312.75
840.84	1261.55
841.01	1171.44
841.18	1302.51
841.35	1277.93
841.52	1318.89
841.69	1302.51
841.86	1277.93
842.03	1318.89
842.20	1230.83
842.37	1284.08
842.54	1271.79
842.71	1277.93
842.88	1310.70
843.05	1300.46
843.22	1269.74
843.39	1318.89
843.56	1273.84
843.73	1214.45
843.90	1253.36
844.07	1245.16
844.24	1347.56
844.41	1179.63
844.58	1302.51
844.75	1271.79
844.92	1265.64
845.09	1290.22
845.26	1277.93
845.43	1341.42
845.60	1302.51
845.77	1325.04
845.94	1300.46
846.10	1198.06
846.27	1368.04
846.44	1249.26
846.61	1261.55
846.78	1271.79
846.95	1300.46
847.12	1335.28
847.29	1232.88
847.46	1230.83
847.63	1292.27
847.80	1275.88
847.97	1236.97
848.14	1292.27
848.31	1265.64
848.48	1232.88
848.65	1275.88
848.82	1261.55
848.98	1325.04
849.15	1257.45
849.32	1249.26
849.49	1267.69
849.66	1304.56
849.83	1243.12
850.00	1261.55
850.17	1236.97
850.34	1234.93
850.51	1228.78
850.68	1185.77
850.85	1253.36
851.01	1243.12
851.18	1286.12
851.35	1241.07
851.52	1275.88
851.69	1341.42
851.86	1265.64
852.03	1286.12
852.20	1177.58
852.37	1263.60
852.53	1261.55
852.70	1296.36
852.87	1282.03
853.04	1288.17
853.21	1320.94
853.38	1198.06
853.55	1298.41
853.72	1239.02
853.89	1247.21
854.05	1275.88
854.22	1282.03
854.39	1228.78
854.56	1279.98
854.73	1216.49
854.90	1273.84
855.07	1300.46
855.23	1298.41
855.40	1322.99
855.57	1245.16
855.74	1282.03
855.91	1269.74
856.08	1253.36
856.25	1234.93
856.41	1284.08
856.58	1275.88
856.75	1290.22
856.92	1288.17
857.09	1239.02
857.26	1239.02
857.42	1320.94
857.59	1241.07
857.76	1216.49
857.93	1279.98
858.10	1318.89
858.27	1255.40
858.43	1261.55
858.60	1284.08
858.77	1312.75
858.94	1206.25
859.11	1204.21
859.27	1322.99
859.44	1286.12
859.61	1265.64
859.78	1269.74
859.95	1222.64
860.12	1253.36
860.28	1290.22
860.45	1292.27
860.62	1241.07
860.79	1259.50
860.95	1230.83
861.12	1239.02
861.29	1296.36
861.46	1357.80
861.63	1290.22
861.79	1224.69
861.96	1257.45
862.13	1322.99
862.30	1275.88
862.47	1212.40
862.63	1216.49
862.80	1265.64
862.97	1284.08
863.14	1245.16
863.30	1255.40
863.47	1247.21
863.64	1298.41
863.81	1230.83
863.97	1251.31
864.14	1241.07
864.31	1294.32
864.48	1282.03
864.65	1273.84
864.81	1269.74
864.98	1222.64
865.15	1241.07
865.32	1255.40
865.48	1271.79
865.65	1265.64
865.82	1247.21
865.98	1282.03
866.15	1290.22
866.32	1232.88
866.49	1349.61
866.65	1257.45
866.82	1249.26
866.99	1279.98
867.16	1267.69
867.32	1241.07
867.49	1208.30
867.66	1249.26
867.83	1290.22
867.99	1267.69
868.16	1288.17
868.33	1232.88
868.49	1267.69
868.66	1269.74
868.83	1214.45
868.99	1290.22
869.16	1273.84
869.33	1306.60
869.50	1279.98
869.66	1232.88
869.83	1230.83
870.00	1314.80
870.16	1306.60
870.33	1269.74
870.50	1236.97
870.66	1269.74
870.83	1286.12
871.00	1265.64
871.17	1265.64
871.33	1288.17
871.50	1257.45
871.67	1161.20
871.83	1290.22
872.00	1214.45
872.17	1292.27
872.33	1310.70
872.50	1232.88
872.67	1234.93
872.83	1325.04
873.00	1241.07
873.17	1265.64
873.33	1216.49
873.50	1263.60
873.67	1320.94
873.83	1226.73
874.00	1230.83
874.16	1359.85
874.33	1300.46
874.50	1239.02
874.66	1232.88
874.83	1267.69
875.00	1304.56
875.16	1288.17
875.33	1275.88
875.50	1257.45
875.66	1230.83
875.83	1243.12
875.99	1302.51
876.16	1273.84
876.33	1263.60
876.49	1355.76
876.66	1267.69
876.83	1177.58
876.99	1263.60
877.16	1230.83
877.32	1294.32
877.49	1265.64
877.66	1300.46
877.82	1296.36
877.99	1320.94
878.15	1261.55
878.32	1292.27
878.49	1208.30
878.65	1302.51
878.82	1277.93
878.98	1263.60
879.15	1259.50
879.32	1331.18
879.48	1273.84
879.65	1206.25
879.81	1247.21
879.98	1241.07
880.15	1286.12
880.31	1288.17
880.48	1265.64
880.64	1318.89
880.81	1234.93
880.97	1230.83
881.14	1247.21
881.31	1318.89
881.47	1282.03
881.64	1261.55
881.80	1255.40
881.97	1325.04
882.13	1253.36
882.30	1261.55
882.47	1230.83
882.63	1257.45
882.80	1273.84
882.96	1247.21
883.13	1308.65
883.29	1265.64
883.46	1224.69
883.62	1253.36
883.79	1249.26
883.95	1267.69
884.12	1322.99
884.29	1267.69
884.45	1243.12
884.62	1267.69
884.78	1236.97
884.95	1257.45
885.11	1349.61
885.28	1230.83
885.44	1261.55
885.61	1273.84
885.77	1187.82
885.94	1245.16
886.10	1257.45
886.27	1261.55
886.43	1243.12
886.60	1261.55
886.76	1339.37
886.93	1277.93
887.09	1300.46
887.26	1212.40
887.42	1300.46
887.59	1265.64
887.75	1249.26
887.92	1273.84
888.08	1212.40
888.25	1282.03
888.41	1282.03
888.58	1173.49
888.74	1288.17
888.91	1325.04
>>>>>End Processed Spectral Data<<<<<
