SpectraSuite Data File
++++++++++++++++++++++++++++++++++++
Date: Sun Apr 03 14:18:04 CEST 2016
User: root
Dark Spectrum Present: No
Reference Spectrum Present: No
Number of Sampled Component Spectra: 1
Spectrometers: USB4C02835
Integration Time (usec): 10000 (USB4C02835)
Spectra Averaged: 1 (USB4C02835)
Boxcar Smoothing: 0 (USB4C02835)
Correct for Electrical Dark: No (USB4C02835)
Strobe/Lamp Enabled: No (USB4C02835)
Correct for Detector Non-linearity: No (USB4C02835)
Correct for Stray Light: No (USB4C02835)
Number of Pixels in Processed Spectrum: 3648
>>>>>Begin Processed Spectral Data<<<<<
177,47	1277,93
177,69	1277,93
177,91	1277,93
178,13	1232,88
178,36	1191,92
178,58	1290,22
178,80	1273,84
179,02	1277,93
179,24	1189,87
179,46	1267,69
179,68	1224,69
179,90	1306,60
180,13	1294,32
180,35	1320,94
180,57	1200,11
180,79	1234,93
181,01	1206,25
181,23	1204,21
181,45	1331,18
181,67	1198,06
181,90	1329,13
182,12	1320,94
182,34	1228,78
182,56	1253,36
182,78	1284,08
183,00	1284,08
183,22	1269,74
183,44	1245,16
183,66	1251,31
183,89	1288,17
184,11	1241,07
184,33	1265,64
184,55	1327,08
184,77	1228,78
184,99	1263,60
185,21	1263,60
185,43	1298,41
185,65	1255,40
185,87	1214,45
186,10	1236,97
186,32	1263,60
186,54	1236,97
186,76	1230,83
186,98	1245,16
187,20	1292,27
187,42	1269,74
187,64	1290,22
187,86	1249,26
188,08	1277,93
188,30	1298,41
188,52	1282,03
188,75	1265,64
188,97	1183,73
189,19	1277,93
189,41	1304,56
189,63	1282,03
189,85	1329,13
190,07	1306,60
190,29	1282,03
190,51	1351,66
190,73	1200,11
190,95	1339,37
191,17	1279,98
191,39	1267,69
191,61	1265,64
191,84	1310,70
192,06	1269,74
192,28	1290,22
192,50	1284,08
192,72	1245,16
192,94	1171,44
193,16	1243,12
193,38	1230,83
193,60	1261,55
193,82	1302,51
194,04	1239,02
194,26	1286,12
194,48	1163,25
194,70	1249,26
194,92	1261,55
195,14	1265,64
195,36	1267,69
195,58	1226,73
195,80	1241,07
196,02	1318,89
196,24	1380,33
196,46	1269,74
196,69	1263,60
196,91	1343,47
197,13	1267,69
197,35	1259,50
197,57	1271,79
197,79	1298,41
198,01	1277,93
198,23	1298,41
198,45	1263,60
198,67	1318,89
198,89	1196,01
199,11	1294,32
199,33	1224,69
199,55	1245,16
199,77	1230,83
199,99	1312,75
200,21	1222,64
200,43	1191,92
200,65	1187,82
200,87	1271,79
201,09	1183,73
201,31	1257,45
201,53	1239,02
201,75	1265,64
201,97	1273,84
202,19	1298,41
202,41	1331,18
202,63	1292,27
202,85	1298,41
203,07	1314,80
203,29	1284,08
203,51	1279,98
203,73	1249,26
203,95	1214,45
204,17	1325,04
204,39	1296,36
204,61	1325,04
204,83	1277,93
205,05	1247,21
205,27	1286,12
205,49	1204,21
205,71	1298,41
205,93	1228,78
206,15	1239,02
206,37	1245,16
206,59	1253,36
206,81	1206,25
207,03	1257,45
207,25	1191,92
207,47	1292,27
207,69	1292,27
207,91	1224,69
208,13	1265,64
208,34	1218,54
208,56	1226,73
208,78	1312,75
209,00	1255,40
209,22	1198,06
209,44	1282,03
209,66	1296,36
209,88	1267,69
210,10	1265,64
210,32	1294,32
210,54	1370,09
210,76	1200,11
210,98	1284,08
211,20	1210,35
211,42	1267,69
211,64	1263,60
211,86	1224,69
212,08	1296,36
212,30	1234,93
212,52	1279,98
212,74	1253,36
212,96	1277,93
213,17	1263,60
213,39	1279,98
213,61	1353,71
213,83	1288,17
214,05	1251,31
214,27	1304,56
214,49	1214,45
214,71	1173,49
214,93	1347,56
215,15	1279,98
215,37	1341,42
215,59	1284,08
215,81	1320,94
216,03	1294,32
216,24	1253,36
216,46	1310,70
216,68	1327,08
216,90	1218,54
217,12	1284,08
217,34	1249,26
217,56	1255,40
217,78	1302,51
218,00	1261,55
218,22	1253,36
218,44	1288,17
218,66	1210,35
218,87	1294,32
219,09	1312,75
219,31	1304,56
219,53	1245,16
219,75	1265,64
219,97	1327,08
220,19	1353,71
220,41	1259,50
220,63	1290,22
220,85	1292,27
221,06	1263,60
221,28	1220,59
221,50	1343,47
221,72	1236,97
221,94	1163,25
222,16	1298,41
222,38	1306,60
222,60	1253,36
222,82	1318,89
223,03	1261,55
223,25	1294,32
223,47	1316,84
223,69	1275,88
223,91	1304,56
224,13	1345,52
224,35	1189,87
224,57	1308,65
224,78	1314,80
225,00	1284,08
225,22	1257,45
225,44	1337,32
225,66	1187,82
225,88	1265,64
226,10	1325,04
226,32	1288,17
226,53	1333,23
226,75	1277,93
226,97	1290,22
227,19	1304,56
227,41	1212,40
227,63	1249,26
227,85	1320,94
228,06	1314,80
228,28	1282,03
228,50	1316,84
228,72	1302,51
228,94	1259,50
229,16	1318,89
229,37	1265,64
229,59	1296,36
229,81	1308,65
230,03	1306,60
230,25	1255,40
230,47	1304,56
230,69	1206,25
230,90	1331,18
231,12	1277,93
231,34	1253,36
231,56	1218,54
231,78	1339,37
232,00	1282,03
232,21	1247,21
232,43	1265,64
232,65	1327,08
232,87	1277,93
233,09	1279,98
233,30	1310,70
233,52	1236,97
233,74	1282,03
233,96	1230,83
234,18	1234,93
234,40	1232,88
234,61	1214,45
234,83	1189,87
235,05	1294,32
235,27	1267,69
235,49	1320,94
235,70	1239,02
235,92	1327,08
236,14	1265,64
236,36	1320,94
236,58	1249,26
236,79	1249,26
237,01	1300,46
237,23	1290,22
237,45	1230,83
237,67	1220,59
237,88	1269,74
238,10	1322,99
238,32	1245,16
238,54	1245,16
238,76	1259,50
238,97	1282,03
239,19	1290,22
239,41	1263,60
239,63	1296,36
239,85	1245,16
240,06	1275,88
240,28	1351,66
240,50	1249,26
240,72	1257,45
240,93	1302,51
241,15	1269,74
241,37	1277,93
241,59	1196,01
241,81	1277,93
242,02	1216,49
242,24	1224,69
242,46	1234,93
242,68	1286,12
242,89	1247,21
243,11	1282,03
243,33	1335,28
243,55	1247,21
243,76	1255,40
243,98	1277,93
244,20	1292,27
244,42	1243,12
244,64	1269,74
244,85	1247,21
245,07	1269,74
245,29	1337,32
245,51	1304,56
245,72	1206,25
245,94	1327,08
246,16	1257,45
246,38	1224,69
246,59	1265,64
246,81	1286,12
247,03	1257,45
247,24	1282,03
247,46	1249,26
247,68	1298,41
247,90	1318,89
248,11	1284,08
248,33	1253,36
248,55	1322,99
248,77	1230,83
248,98	1298,41
249,20	1239,02
249,42	1310,70
249,64	1259,50
249,85	1273,84
250,07	1282,03
250,29	1259,50
250,50	1267,69
250,72	1304,56
250,94	1277,93
251,16	1239,02
251,37	1279,98
251,59	1263,60
251,81	1308,65
252,02	1294,32
252,24	1269,74
252,46	1277,93
252,68	1263,60
252,89	1271,79
253,11	1279,98
253,33	1329,13
253,54	1273,84
253,76	1241,07
253,98	1284,08
254,20	1196,01
254,41	1353,71
254,63	1239,02
254,85	1339,37
255,06	1232,88
255,28	1275,88
255,50	1245,16
255,71	1329,13
255,93	1376,24
256,15	1234,93
256,36	1249,26
256,58	1208,30
256,80	1302,51
257,02	1204,21
257,23	1243,12
257,45	1259,50
257,67	1255,40
257,88	1255,40
258,10	1320,94
258,32	1312,75
258,53	1284,08
258,75	1298,41
258,97	1216,49
259,18	1142,77
259,40	1372,14
259,62	1300,46
259,83	1271,79
260,05	1263,60
260,27	1318,89
260,48	1257,45
260,70	1277,93
260,92	1300,46
261,13	1282,03
261,35	1239,02
261,57	1265,64
261,78	1290,22
262,00	1329,13
262,22	1282,03
262,43	1243,12
262,65	1179,63
262,86	1269,74
263,08	1388,52
263,30	1183,73
263,51	1259,50
263,73	1247,21
263,95	1286,12
264,16	1288,17
264,38	1277,93
264,60	1310,70
264,81	1298,41
265,03	1331,18
265,25	1273,84
265,46	1290,22
265,68	1267,69
265,89	1210,35
266,11	1255,40
266,33	1286,12
266,54	1271,79
266,76	1239,02
266,98	1263,60
267,19	1269,74
267,41	1183,73
267,62	1304,56
267,84	1218,54
268,06	1349,61
268,27	1329,13
268,49	1308,65
268,70	1232,88
268,92	1292,27
269,14	1331,18
269,35	1263,60
269,57	1263,60
269,79	1302,51
270,00	1191,92
270,22	1257,45
270,43	1269,74
270,65	1277,93
270,87	1279,98
271,08	1220,59
271,30	1251,31
271,51	1284,08
271,73	1296,36
271,95	1327,08
272,16	1298,41
272,38	1271,79
272,59	1347,56
272,81	1255,40
273,02	1212,40
273,24	1253,36
273,46	1310,70
273,67	1257,45
273,89	1308,65
274,10	1273,84
274,32	1239,02
274,54	1275,88
274,75	1234,93
274,97	1173,49
275,18	1255,40
275,40	1316,84
275,61	1273,84
275,83	1294,32
276,05	1239,02
276,26	1322,99
276,48	1249,26
276,69	1228,78
276,91	1286,12
277,12	1312,75
277,34	1292,27
277,55	1257,45
277,77	1312,75
277,99	1314,80
278,20	1300,46
278,42	1218,54
278,63	1247,21
278,85	1277,93
279,06	1310,70
279,28	1245,16
279,49	1271,79
279,71	1255,40
279,93	1279,98
280,14	1259,50
280,36	1296,36
280,57	1302,51
280,79	1251,31
281,00	1359,85
281,22	1286,12
281,43	1271,79
281,65	1236,97
281,86	1267,69
282,08	1259,50
282,29	1265,64
282,51	1269,74
282,73	1320,94
282,94	1255,40
283,16	1269,74
283,37	1269,74
283,59	1251,31
283,80	1322,99
284,02	1185,77
284,23	1273,84
284,45	1218,54
284,66	1243,12
284,88	1249,26
285,09	1331,18
285,31	1296,36
285,52	1232,88
285,74	1361,90
285,95	1183,73
286,17	1310,70
286,38	1222,64
286,60	1255,40
286,81	1290,22
287,03	1243,12
287,24	1239,02
287,46	1286,12
287,67	1249,26
287,89	1261,55
288,10	1228,78
288,32	1339,37
288,53	1267,69
288,75	1249,26
288,96	1253,36
289,18	1306,60
289,39	1267,69
289,61	1306,60
289,82	1255,40
290,04	1302,51
290,25	1284,08
290,47	1261,55
290,68	1310,70
290,90	1241,07
291,11	1230,83
291,33	1306,60
291,54	1275,88
291,76	1327,08
291,97	1243,12
292,18	1312,75
292,40	1304,56
292,61	1275,88
292,83	1294,32
293,04	1257,45
293,26	1236,97
293,47	1282,03
293,69	1255,40
293,90	1267,69
294,12	1333,23
294,33	1284,08
294,55	1343,47
294,76	1230,83
294,97	1290,22
295,19	1253,36
295,40	1288,17
295,62	1257,45
295,83	1279,98
296,05	1210,35
296,26	1318,89
296,48	1263,60
296,69	1265,64
296,90	1249,26
297,12	1259,50
297,33	1249,26
297,55	1314,80
297,76	1214,45
297,98	1318,89
298,19	1279,98
298,41	1241,07
298,62	1232,88
298,83	1204,21
299,05	1261,55
299,26	1257,45
299,48	1275,88
299,69	1347,56
299,90	1296,36
300,12	1216,49
300,33	1306,60
300,55	1245,16
300,76	1294,32
300,98	1261,55
301,19	1224,69
301,40	1259,50
301,62	1226,73
301,83	1228,78
302,05	1275,88
302,26	1273,84
302,47	1153,01
302,69	1232,88
302,90	1275,88
303,12	1261,55
303,33	1259,50
303,54	1275,88
303,76	1263,60
303,97	1310,70
304,19	1351,66
304,40	1294,32
304,61	1216,49
304,83	1253,36
305,04	1265,64
305,26	1243,12
305,47	1212,40
305,68	1265,64
305,90	1200,11
306,11	1347,56
306,33	1292,27
306,54	1255,40
306,75	1247,21
306,97	1249,26
307,18	1273,84
307,39	1298,41
307,61	1247,21
307,82	1290,22
308,04	1253,36
308,25	1296,36
308,46	1286,12
308,68	1204,21
308,89	1241,07
309,10	1263,60
309,32	1284,08
309,53	1187,82
309,74	1247,21
309,96	1269,74
310,17	1277,93
310,39	1224,69
310,60	1265,64
310,81	1265,64
311,03	1214,45
311,24	1232,88
311,45	1306,60
311,67	1261,55
311,88	1314,80
312,09	1286,12
312,31	1261,55
312,52	1226,73
312,73	1261,55
312,95	1294,32
313,16	1349,61
313,37	1259,50
313,59	1265,64
313,80	1267,69
314,01	1216,49
314,23	1341,42
314,44	1212,40
314,65	1239,02
314,87	1214,45
315,08	1314,80
315,29	1261,55
315,51	1191,92
315,72	1239,02
315,93	1318,89
316,15	1325,04
316,36	1320,94
316,57	1275,88
316,79	1251,31
317,00	1267,69
317,21	1275,88
317,43	1318,89
317,64	1294,32
317,85	1273,84
318,07	1296,36
318,28	1322,99
318,49	1347,56
318,70	1290,22
318,92	1290,22
319,13	1193,97
319,34	1265,64
319,56	1245,16
319,77	1322,99
319,98	1175,53
320,20	1290,22
320,41	1282,03
320,62	1159,15
320,83	1214,45
321,05	1269,74
321,26	1353,71
321,47	1206,25
321,69	1251,31
321,90	1273,84
322,11	1267,69
322,32	1306,60
322,54	1310,70
322,75	1202,16
322,96	1284,08
323,18	1253,36
323,39	1265,64
323,60	1290,22
323,81	1247,21
324,03	1306,60
324,24	1239,02
324,45	1245,16
324,66	1261,55
324,88	1279,98
325,09	1292,27
325,30	1261,55
325,52	1234,93
325,73	1327,08
325,94	1259,50
326,15	1263,60
326,37	1261,55
326,58	1271,79
326,79	1288,17
327,00	1327,08
327,22	1200,11
327,43	1183,73
327,64	1255,40
327,85	1255,40
328,07	1245,16
328,28	1275,88
328,49	1165,29
328,70	1329,13
328,92	1277,93
329,13	1331,18
329,34	1306,60
329,55	1374,19
329,76	1271,79
329,98	1269,74
330,19	1294,32
330,40	1275,88
330,61	1214,45
330,83	1257,45
331,04	1284,08
331,25	1230,83
331,46	1329,13
331,68	1175,53
331,89	1249,26
332,10	1273,84
332,31	1239,02
332,52	1259,50
332,74	1275,88
332,95	1232,88
333,16	1245,16
333,37	1273,84
333,58	1284,08
333,80	1277,93
334,01	1374,19
334,22	1322,99
334,43	1296,36
334,64	1232,88
334,86	1267,69
335,07	1271,79
335,28	1331,18
335,49	1314,80
335,70	1257,45
335,92	1220,59
336,13	1269,74
336,34	1294,32
336,55	1300,46
336,76	1251,31
336,98	1265,64
337,19	1202,16
337,40	1228,78
337,61	1259,50
337,82	1275,88
338,04	1298,41
338,25	1302,51
338,46	1296,36
338,67	1208,30
338,88	1255,40
339,09	1288,17
339,31	1265,64
339,52	1284,08
339,73	1261,55
339,94	1306,60
340,15	1277,93
340,36	1304,56
340,58	1273,84
340,79	1316,84
341,00	1236,97
341,21	1253,36
341,42	1277,93
341,63	1337,32
341,85	1222,64
342,06	1282,03
342,27	1298,41
342,48	1290,22
342,69	1243,12
342,90	1259,50
343,12	1261,55
343,33	1331,18
343,54	1310,70
343,75	1273,84
343,96	1345,52
344,17	1210,35
344,38	1316,84
344,60	1298,41
344,81	1333,23
345,02	1239,02
345,23	1269,74
345,44	1353,71
345,65	1263,60
345,86	1306,60
346,07	1263,60
346,29	1329,13
346,50	1282,03
346,71	1320,94
346,92	1292,27
347,13	1214,45
347,34	1273,84
347,55	1337,32
347,76	1228,78
347,98	1265,64
348,19	1282,03
348,40	1253,36
348,61	1298,41
348,82	1159,15
349,03	1234,93
349,24	1296,36
349,45	1314,80
349,66	1284,08
349,88	1277,93
350,09	1292,27
350,30	1302,51
350,51	1261,55
350,72	1218,54
350,93	1279,98
351,14	1257,45
351,35	1282,03
351,56	1288,17
351,77	1165,29
351,99	1232,88
352,20	1298,41
352,41	1232,88
352,62	1269,74
352,83	1312,75
353,04	1241,07
353,25	1212,40
353,46	1239,02
353,67	1226,73
353,88	1259,50
354,09	1255,40
354,30	1288,17
354,52	1329,13
354,73	1271,79
354,94	1257,45
355,15	1273,84
355,36	1273,84
355,57	1282,03
355,78	1202,16
355,99	1234,93
356,20	1261,55
356,41	1282,03
356,62	1322,99
356,83	1284,08
357,04	1339,37
357,25	1222,64
357,46	1216,49
357,68	1236,97
357,89	1335,28
358,10	1302,51
358,31	1259,50
358,52	1269,74
358,73	1318,89
358,94	1269,74
359,15	1306,60
359,36	1302,51
359,57	1214,45
359,78	1282,03
359,99	1267,69
360,20	1255,40
360,41	1245,16
360,62	1279,98
360,83	1273,84
361,04	1310,70
361,25	1255,40
361,46	1222,64
361,67	1220,59
361,88	1255,40
362,09	1220,59
362,30	1255,40
362,51	1290,22
362,72	1349,61
362,93	1366,00
363,14	1284,08
363,35	1261,55
363,56	1269,74
363,78	1282,03
363,99	1267,69
364,20	1222,64
364,41	1314,80
364,62	1343,47
364,83	1320,94
365,04	1259,50
365,25	1224,69
365,46	1282,03
365,67	1253,36
365,88	1265,64
366,09	1363,95
366,30	1179,63
366,51	1288,17
366,72	1271,79
366,93	1279,98
367,14	1296,36
367,35	1265,64
367,56	1286,12
367,77	1318,89
367,98	1187,82
368,18	1308,65
368,39	1212,40
368,60	1282,03
368,81	1241,07
369,02	1181,68
369,23	1263,60
369,44	1226,73
369,65	1253,36
369,86	1300,46
370,07	1218,54
370,28	1241,07
370,49	1243,12
370,70	1267,69
370,91	1198,06
371,12	1271,79
371,33	1249,26
371,54	1261,55
371,75	1269,74
371,96	1314,80
372,17	1253,36
372,38	1214,45
372,59	1212,40
372,80	1314,80
373,01	1236,97
373,22	1273,84
373,43	1189,87
373,64	1255,40
373,85	1271,79
374,06	1325,04
374,26	1316,84
374,47	1282,03
374,68	1339,37
374,89	1232,88
375,10	1286,12
375,31	1271,79
375,52	1208,30
375,73	1257,45
375,94	1267,69
376,15	1300,46
376,36	1275,88
376,57	1300,46
376,78	1200,11
376,99	1288,17
377,20	1222,64
377,40	1222,64
377,61	1265,64
377,82	1284,08
378,03	1146,86
378,24	1257,45
378,45	1206,25
378,66	1279,98
378,87	1216,49
379,08	1290,22
379,29	1226,73
379,50	1296,36
379,71	1333,23
379,91	1251,31
380,12	1226,73
380,33	1282,03
380,54	1277,93
380,75	1255,40
380,96	1312,75
381,17	1241,07
381,38	1267,69
381,59	1236,97
381,80	1306,60
382,00	1230,83
382,21	1257,45
382,42	1249,26
382,63	1222,64
382,84	1245,16
383,05	1212,40
383,26	1306,60
383,47	1290,22
383,68	1269,74
383,88	1179,63
384,09	1279,98
384,30	1292,27
384,51	1286,12
384,72	1312,75
384,93	1314,80
385,14	1228,78
385,35	1228,78
385,55	1239,02
385,76	1298,41
385,97	1300,46
386,18	1331,18
386,39	1228,78
386,60	1353,71
386,81	1277,93
387,02	1251,31
387,22	1269,74
387,43	1263,60
387,64	1234,93
387,85	1288,17
388,06	1239,02
388,27	1241,07
388,48	1249,26
388,68	1255,40
388,89	1304,56
389,10	1279,98
389,31	1306,60
389,52	1333,23
389,73	1251,31
389,93	1331,18
390,14	1234,93
390,35	1282,03
390,56	1312,75
390,77	1218,54
390,98	1292,27
391,18	1253,36
391,39	1286,12
391,60	1230,83
391,81	1232,88
392,02	1239,02
392,23	1241,07
392,43	1271,79
392,64	1300,46
392,85	1308,65
393,06	1298,41
393,27	1300,46
393,47	1243,12
393,68	1271,79
393,89	1275,88
394,10	1316,84
394,31	1296,36
394,52	1339,37
394,72	1273,84
394,93	1273,84
395,14	1263,60
395,35	1257,45
395,56	1230,83
395,76	1325,04
395,97	1294,32
396,18	1279,98
396,39	1234,93
396,60	1290,22
396,80	1271,79
397,01	1322,99
397,22	1318,89
397,43	1312,75
397,64	1349,61
397,84	1230,83
398,05	1253,36
398,26	1312,75
398,47	1296,36
398,67	1220,59
398,88	1286,12
399,09	1247,21
399,30	1255,40
399,51	1292,27
399,71	1286,12
399,92	1325,04
400,13	1214,45
400,34	1298,41
400,54	1294,32
400,75	1261,55
400,96	1273,84
401,17	1247,21
401,37	1249,26
401,58	1271,79
401,79	1284,08
402,00	1308,65
402,21	1331,18
402,41	1253,36
402,62	1327,08
402,83	1288,17
403,04	1275,88
403,24	1257,45
403,45	1210,35
403,66	1288,17
403,87	1253,36
404,07	1255,40
404,28	1286,12
404,49	1271,79
404,70	1312,75
404,90	1290,22
405,11	1214,45
405,32	1216,49
405,52	1241,07
405,73	1271,79
405,94	1247,21
406,15	1265,64
406,35	1312,75
406,56	1249,26
406,77	1232,88
406,98	1245,16
407,18	1341,42
407,39	1298,41
407,60	1282,03
407,80	1230,83
408,01	1325,04
408,22	1343,47
408,43	1241,07
408,63	1226,73
408,84	1333,23
409,05	1216,49
409,25	1306,60
409,46	1296,36
409,67	1290,22
409,88	1226,73
410,08	1255,40
410,29	1214,45
410,50	1269,74
410,70	1296,36
410,91	1314,80
411,12	1179,63
411,32	1267,69
411,53	1218,54
411,74	1282,03
411,95	1306,60
412,15	1232,88
412,36	1298,41
412,57	1253,36
412,77	1273,84
412,98	1251,31
413,19	1327,08
413,39	1333,23
413,60	1292,27
413,81	1318,89
414,01	1257,45
414,22	1339,37
414,43	1298,41
414,63	1300,46
414,84	1271,79
415,05	1284,08
415,25	1378,28
415,46	1298,41
415,67	1218,54
415,87	1279,98
416,08	1331,18
416,29	1255,40
416,49	1314,80
416,70	1204,21
416,91	1327,08
417,11	1298,41
417,32	1316,84
417,53	1288,17
417,73	1279,98
417,94	1216,49
418,15	1224,69
418,35	1275,88
418,56	1279,98
418,77	1304,56
418,97	1257,45
419,18	1216,49
419,38	1322,99
419,59	1247,21
419,80	1247,21
420,00	1316,84
420,21	1226,73
420,42	1265,64
420,62	1261,55
420,83	1275,88
421,04	1347,56
421,24	1333,23
421,45	1222,64
421,65	1277,93
421,86	1263,60
422,07	1335,28
422,27	1310,70
422,48	1269,74
422,69	1306,60
422,89	1298,41
423,10	1263,60
423,30	1267,69
423,51	1226,73
423,72	1304,56
423,92	1232,88
424,13	1214,45
424,33	1267,69
424,54	1279,98
424,75	1279,98
424,95	1284,08
425,16	1277,93
425,36	1277,93
425,57	1271,79
425,78	1189,87
425,98	1361,90
426,19	1298,41
426,39	1269,74
426,60	1327,08
426,81	1296,36
427,01	1273,84
427,22	1325,04
427,42	1263,60
427,63	1261,55
427,83	1243,12
428,04	1318,89
428,25	1286,12
428,45	1292,27
428,66	1292,27
428,86	1290,22
429,07	1355,76
429,28	1341,42
429,48	1261,55
429,69	1241,07
429,89	1271,79
430,10	1241,07
430,30	1322,99
430,51	1239,02
430,71	1284,08
430,92	1331,18
431,13	1271,79
431,33	1224,69
431,54	1224,69
431,74	1249,26
431,95	1298,41
432,15	1273,84
432,36	1218,54
432,56	1355,76
432,77	1222,64
432,98	1296,36
433,18	1275,88
433,39	1316,84
433,59	1230,83
433,80	1282,03
434,00	1257,45
434,21	1243,12
434,41	1206,25
434,62	1271,79
434,82	1366,00
435,03	1286,12
435,23	1288,17
435,44	1263,60
435,64	1282,03
435,85	1275,88
436,06	1222,64
436,26	1345,52
436,47	1255,40
436,67	1282,03
436,88	1339,37
437,08	1263,60
437,29	1288,17
437,49	1345,52
437,70	1263,60
437,90	1263,60
438,11	1253,36
438,31	1298,41
438,52	1290,22
438,72	1236,97
438,93	1282,03
439,13	1271,79
439,34	1261,55
439,54	1298,41
439,75	1208,30
439,95	1259,50
440,16	1257,45
440,36	1286,12
440,57	1290,22
440,77	1230,83
440,98	1234,93
441,18	1259,50
441,39	1353,71
441,59	1314,80
441,80	1318,89
442,00	1286,12
442,21	1300,46
442,41	1263,60
442,62	1314,80
442,82	1241,07
443,02	1255,40
443,23	1232,88
443,43	1216,49
443,64	1310,70
443,84	1286,12
444,05	1322,99
444,25	1316,84
444,46	1275,88
444,66	1331,18
444,87	1308,65
445,07	1271,79
445,28	1277,93
445,48	1249,26
445,69	1290,22
445,89	1275,88
446,09	1312,75
446,30	1277,93
446,50	1294,32
446,71	1355,76
446,91	1263,60
447,12	1239,02
447,32	1306,60
447,53	1306,60
447,73	1273,84
447,93	1267,69
448,14	1273,84
448,34	1337,32
448,55	1230,83
448,75	1302,51
448,96	1200,11
449,16	1253,36
449,36	1261,55
449,57	1351,66
449,77	1251,31
449,98	1329,13
450,18	1271,79
450,39	1253,36
450,59	1239,02
450,79	1320,94
451,00	1296,36
451,20	1249,26
451,41	1267,69
451,61	1273,84
451,81	1198,06
452,02	1224,69
452,22	1314,80
452,43	1245,16
452,63	1230,83
452,84	1296,36
453,04	1241,07
453,24	1304,56
453,45	1277,93
453,65	1259,50
453,86	1333,23
454,06	1335,28
454,26	1249,26
454,47	1314,80
454,67	1296,36
454,87	1277,93
455,08	1249,26
455,28	1310,70
455,49	1234,93
455,69	1265,64
455,89	1288,17
456,10	1261,55
456,30	1273,84
456,51	1232,88
456,71	1294,32
456,91	1296,36
457,12	1318,89
457,32	1265,64
457,52	1245,16
457,73	1275,88
457,93	1308,65
458,14	1282,03
458,34	1300,46
458,54	1282,03
458,75	1247,21
458,95	1300,46
459,15	1269,74
459,36	1304,56
459,56	1282,03
459,76	1339,37
459,97	1279,98
460,17	1255,40
460,37	1300,46
460,58	1284,08
460,78	1316,84
460,99	1320,94
461,19	1308,65
461,39	1277,93
461,60	1259,50
461,80	1320,94
462,00	1253,36
462,21	1271,79
462,41	1302,51
462,61	1298,41
462,82	1241,07
463,02	1275,88
463,22	1320,94
463,43	1302,51
463,63	1288,17
463,83	1294,32
464,04	1298,41
464,24	1257,45
464,44	1243,12
464,64	1316,84
464,85	1267,69
465,05	1261,55
465,25	1325,04
465,46	1335,28
465,66	1282,03
465,86	1206,25
466,07	1269,74
466,27	1243,12
466,47	1222,64
466,68	1265,64
466,88	1284,08
467,08	1290,22
467,29	1257,45
467,49	1286,12
467,69	1339,37
467,89	1216,49
468,10	1298,41
468,30	1224,69
468,50	1282,03
468,71	1261,55
468,91	1261,55
469,11	1318,89
469,31	1218,54
469,52	1253,36
469,72	1314,80
469,92	1409,00
470,13	1216,49
470,33	1347,56
470,53	1259,50
470,73	1390,57
470,94	1339,37
471,14	1220,59
471,34	1257,45
471,54	1265,64
471,75	1247,21
471,95	1259,50
472,15	1290,22
472,36	1265,64
472,56	1298,41
472,76	1263,60
472,96	1245,16
473,17	1279,98
473,37	1306,60
473,57	1239,02
473,77	1349,61
473,98	1288,17
474,18	1282,03
474,38	1277,93
474,58	1275,88
474,79	1265,64
474,99	1347,56
475,19	1271,79
475,39	1327,08
475,60	1304,56
475,80	1286,12
476,00	1271,79
476,20	1257,45
476,41	1320,94
476,61	1249,26
476,81	1290,22
477,01	1214,45
477,21	1263,60
477,42	1253,36
477,62	1288,17
477,82	1359,85
478,02	1286,12
478,23	1216,49
478,43	1304,56
478,63	1245,16
478,83	1263,60
479,03	1314,80
479,24	1294,32
479,44	1322,99
479,64	1230,83
479,84	1279,98
480,04	1245,16
480,25	1306,60
480,45	1271,79
480,65	1292,27
480,85	1263,60
481,06	1263,60
481,26	1273,84
481,46	1322,99
481,66	1259,50
481,86	1249,26
482,06	1253,36
482,27	1298,41
482,47	1271,79
482,67	1257,45
482,87	1273,84
483,07	1216,49
483,28	1226,73
483,48	1288,17
483,68	1265,64
483,88	1245,16
484,08	1239,02
484,29	1257,45
484,49	1259,50
484,69	1261,55
484,89	1316,84
485,09	1269,74
485,29	1251,31
485,50	1322,99
485,70	1239,02
485,90	1322,99
486,10	1308,65
486,30	1322,99
486,50	1245,16
486,71	1275,88
486,91	1284,08
487,11	1261,55
487,31	1329,13
487,51	1306,60
487,71	1322,99
487,91	1304,56
488,12	1269,74
488,32	1343,47
488,52	1279,98
488,72	1200,11
488,92	1363,95
489,12	1282,03
489,32	1286,12
489,53	1325,04
489,73	1308,65
489,93	1333,23
490,13	1277,93
490,33	1277,93
490,53	1282,03
490,73	1269,74
490,94	1292,27
491,14	1304,56
491,34	1357,80
491,54	1230,83
491,74	1376,24
491,94	1257,45
492,14	1232,88
492,34	1329,13
492,54	1286,12
492,75	1310,70
492,95	1298,41
493,15	1302,51
493,35	1296,36
493,55	1171,44
493,75	1275,88
493,95	1314,80
494,15	1298,41
494,35	1230,83
494,56	1302,51
494,76	1292,27
494,96	1218,54
495,16	1249,26
495,36	1267,69
495,56	1290,22
495,76	1288,17
495,96	1292,27
496,16	1263,60
496,36	1339,37
496,56	1327,08
496,77	1349,61
496,97	1216,49
497,17	1296,36
497,37	1269,74
497,57	1255,40
497,77	1327,08
497,97	1226,73
498,17	1220,59
498,37	1286,12
498,57	1277,93
498,77	1267,69
498,97	1306,60
499,17	1261,55
499,38	1253,36
499,58	1230,83
499,78	1275,88
499,98	1273,84
500,18	1269,74
500,38	1271,79
500,58	1277,93
500,78	1214,45
500,98	1216,49
501,18	1300,46
501,38	1273,84
501,58	1290,22
501,78	1269,74
501,98	1353,71
502,18	1279,98
502,38	1257,45
502,58	1253,36
502,78	1290,22
502,98	1257,45
503,18	1288,17
503,38	1230,83
503,59	1220,59
503,79	1212,40
503,99	1304,56
504,19	1277,93
504,39	1224,69
504,59	1265,64
504,79	1308,65
504,99	1353,71
505,19	1253,36
505,39	1216,49
505,59	1308,65
505,79	1259,50
505,99	1253,36
506,19	1257,45
506,39	1288,17
506,59	1251,31
506,79	1271,79
506,99	1290,22
507,19	1261,55
507,39	1288,17
507,59	1349,61
507,79	1261,55
507,99	1273,84
508,19	1269,74
508,39	1183,73
508,59	1275,88
508,79	1292,27
508,99	1329,13
509,19	1308,65
509,39	1222,64
509,59	1314,80
509,79	1232,88
509,99	1259,50
510,19	1290,22
510,39	1255,40
510,59	1320,94
510,79	1304,56
510,99	1263,60
511,19	1359,85
511,39	1259,50
511,59	1310,70
511,79	1265,64
511,99	1294,32
512,19	1318,89
512,38	1314,80
512,58	1331,18
512,78	1376,24
512,98	1245,16
513,18	1279,98
513,38	1259,50
513,58	1298,41
513,78	1304,56
513,98	1230,83
514,18	1161,20
514,38	1292,27
514,58	1191,92
514,78	1290,22
514,98	1253,36
515,18	1363,95
515,38	1212,40
515,58	1284,08
515,78	1275,88
515,98	1241,07
516,18	1251,31
516,38	1327,08
516,57	1208,30
516,77	1265,64
516,97	1204,21
517,17	1294,32
517,37	1273,84
517,57	1241,07
517,77	1224,69
517,97	1271,79
518,17	1325,04
518,37	1224,69
518,57	1308,65
518,77	1257,45
518,97	1245,16
519,16	1249,26
519,36	1249,26
519,56	1230,83
519,76	1234,93
519,96	1212,40
520,16	1277,93
520,36	1247,21
520,56	1265,64
520,76	1232,88
520,96	1196,01
521,16	1310,70
521,35	1257,45
521,55	1202,16
521,75	1234,93
521,95	1263,60
522,15	1232,88
522,35	1261,55
522,55	1245,16
522,75	1224,69
522,95	1202,16
523,14	1294,32
523,34	1271,79
523,54	1208,30
523,74	1216,49
523,94	1230,83
524,14	1282,03
524,34	1296,36
524,54	1306,60
524,73	1325,04
524,93	1243,12
525,13	1298,41
525,33	1288,17
525,53	1226,73
525,73	1222,64
525,93	1288,17
526,13	1239,02
526,32	1296,36
526,52	1226,73
526,72	1224,69
526,92	1290,22
527,12	1267,69
527,32	1257,45
527,52	1308,65
527,71	1286,12
527,91	1263,60
528,11	1257,45
528,31	1257,45
528,51	1275,88
528,71	1292,27
528,90	1247,21
529,10	1253,36
529,30	1259,50
529,50	1214,45
529,70	1220,59
529,90	1255,40
530,09	1263,60
530,29	1273,84
530,49	1267,69
530,69	1370,09
530,89	1208,30
531,09	1345,52
531,28	1189,87
531,48	1265,64
531,68	1300,46
531,88	1255,40
532,08	1247,21
532,28	1345,52
532,47	1288,17
532,67	1275,88
532,87	1269,74
533,07	1286,12
533,27	1271,79
533,46	1202,16
533,66	1269,74
533,86	1257,45
534,06	1220,59
534,26	1333,23
534,45	1282,03
534,65	1306,60
534,85	1261,55
535,05	1282,03
535,25	1306,60
535,44	1241,07
535,64	1306,60
535,84	1241,07
536,04	1271,79
536,24	1265,64
536,43	1333,23
536,63	1286,12
536,83	1243,12
537,03	1271,79
537,22	1300,46
537,42	1226,73
537,62	1279,98
537,82	1296,36
538,02	1247,21
538,21	1236,97
538,41	1275,88
538,61	1279,98
538,81	1263,60
539,00	1234,93
539,20	1267,69
539,40	1298,41
539,60	1282,03
539,79	1357,80
539,99	1284,08
540,19	1261,55
540,39	1253,36
540,58	1298,41
540,78	1312,75
540,98	1275,88
541,18	1257,45
541,37	1306,60
541,57	1259,50
541,77	1200,11
541,97	1310,70
542,16	1259,50
542,36	1318,89
542,56	1241,07
542,76	1296,36
542,95	1314,80
543,15	1226,73
543,35	1253,36
543,54	1269,74
543,74	1245,16
543,94	1249,26
544,14	1282,03
544,33	1210,35
544,53	1316,84
544,73	1243,12
544,93	1349,61
545,12	1331,18
545,32	1204,21
545,52	1241,07
545,71	1306,60
545,91	1357,80
546,11	1329,13
546,30	1290,22
546,50	1265,64
546,70	1314,80
546,90	1249,26
547,09	1316,84
547,29	1306,60
547,49	1337,32
547,68	1251,31
547,88	1261,55
548,08	1294,32
548,27	1284,08
548,47	1271,79
548,67	1263,60
548,87	1251,31
549,06	1183,73
549,26	1200,11
549,46	1191,92
549,65	1263,60
549,85	1204,21
550,05	1273,84
550,24	1249,26
550,44	1275,88
550,64	1347,56
550,83	1284,08
551,03	1286,12
551,23	1253,36
551,42	1327,08
551,62	1241,07
551,82	1232,88
552,01	1241,07
552,21	1255,40
552,41	1310,70
552,60	1312,75
552,80	1300,46
553,00	1273,84
553,19	1284,08
553,39	1353,71
553,59	1241,07
553,78	1284,08
553,98	1202,16
554,17	1214,45
554,37	1241,07
554,57	1257,45
554,76	1296,36
554,96	1206,25
555,16	1296,36
555,35	1230,83
555,55	1294,32
555,75	1366,00
555,94	1239,02
556,14	1273,84
556,33	1210,35
556,53	1247,21
556,73	1257,45
556,92	1265,64
557,12	1247,21
557,32	1277,93
557,51	1251,31
557,71	1302,51
557,90	1292,27
558,10	1273,84
558,30	1275,88
558,49	1232,88
558,69	1296,36
558,88	1245,16
559,08	1218,54
559,28	1208,30
559,47	1306,60
559,67	1286,12
559,86	1286,12
560,06	1232,88
560,26	1343,47
560,45	1292,27
560,65	1296,36
560,84	1271,79
561,04	1196,01
561,24	1251,31
561,43	1284,08
561,63	1329,13
561,82	1318,89
562,02	1271,79
562,22	1320,94
562,41	1257,45
562,61	1249,26
562,80	1212,40
563,00	1296,36
563,19	1255,40
563,39	1224,69
563,59	1181,68
563,78	1224,69
563,98	1193,97
564,17	1337,32
564,37	1259,50
564,56	1316,84
564,76	1241,07
564,96	1314,80
565,15	1282,03
565,35	1208,30
565,54	1228,78
565,74	1263,60
565,93	1316,84
566,13	1279,98
566,32	1284,08
566,52	1255,40
566,71	1275,88
566,91	1298,41
567,11	1265,64
567,30	1308,65
567,50	1288,17
567,69	1247,21
567,89	1271,79
568,08	1331,18
568,28	1279,98
568,47	1304,56
568,67	1351,66
568,86	1341,42
569,06	1312,75
569,25	1310,70
569,45	1261,55
569,64	1273,84
569,84	1263,60
570,04	1302,51
570,23	1271,79
570,43	1306,60
570,62	1193,97
570,82	1249,26
571,01	1284,08
571,21	1300,46
571,40	1210,35
571,60	1282,03
571,79	1181,68
571,99	1308,65
572,18	1271,79
572,38	1308,65
572,57	1288,17
572,77	1294,32
572,96	1189,87
573,16	1269,74
573,35	1320,94
573,55	1243,12
573,74	1210,35
573,94	1273,84
574,13	1236,97
574,33	1286,12
574,52	1226,73
574,71	1288,17
574,91	1273,84
575,10	1288,17
575,30	1284,08
575,49	1310,70
575,69	1234,93
575,88	1302,51
576,08	1236,97
576,27	1308,65
576,47	1275,88
576,66	1253,36
576,86	1329,13
577,05	1284,08
577,25	1302,51
577,44	1322,99
577,64	1269,74
577,83	1296,36
578,02	1261,55
578,22	1374,19
578,41	1275,88
578,61	1259,50
578,80	1300,46
579,00	1292,27
579,19	1202,16
579,39	1296,36
579,58	1353,71
579,77	1275,88
579,97	1310,70
580,16	1296,36
580,36	1216,49
580,55	1273,84
580,75	1312,75
580,94	1290,22
581,13	1265,64
581,33	1257,45
581,52	1224,69
581,72	1275,88
581,91	1290,22
582,11	1302,51
582,30	1279,98
582,49	1294,32
582,69	1333,23
582,88	1230,83
583,08	1251,31
583,27	1249,26
583,47	1243,12
583,66	1325,04
583,85	1224,69
584,05	1247,21
584,24	1265,64
584,44	1265,64
584,63	1279,98
584,82	1292,27
585,02	1341,42
585,21	1273,84
585,41	1241,07
585,60	1302,51
585,79	1282,03
585,99	1216,49
586,18	1306,60
586,37	1249,26
586,57	1230,83
586,76	1306,60
586,96	1230,83
587,15	1286,12
587,34	1333,23
587,54	1265,64
587,73	1253,36
587,93	1304,56
588,12	1202,16
588,31	1290,22
588,51	1257,45
588,70	1247,21
588,89	1267,69
589,09	1288,17
589,28	1273,84
589,47	1290,22
589,67	1308,65
589,86	1239,02
590,06	1275,88
590,25	1288,17
590,44	1308,65
590,64	1259,50
590,83	1286,12
591,02	1253,36
591,22	1230,83
591,41	1265,64
591,60	1314,80
591,80	1290,22
591,99	1300,46
592,18	1271,79
592,38	1286,12
592,57	1261,55
592,76	1304,56
592,96	1294,32
593,15	1232,88
593,34	1255,40
593,54	1279,98
593,73	1273,84
593,92	1259,50
594,12	1294,32
594,31	1259,50
594,50	1269,74
594,70	1263,60
594,89	1267,69
595,08	1284,08
595,28	1341,42
595,47	1204,21
595,66	1329,13
595,86	1206,25
596,05	1269,74
596,24	1290,22
596,43	1306,60
596,63	1275,88
596,82	1316,84
597,01	1249,26
597,21	1222,64
597,40	1308,65
597,59	1298,41
597,79	1224,69
597,98	1298,41
598,17	1257,45
598,36	1259,50
598,56	1239,02
598,75	1282,03
598,94	1236,97
599,14	1239,02
599,33	1265,64
599,52	1306,60
599,71	1343,47
599,91	1316,84
600,10	1312,75
600,29	1284,08
600,48	1236,97
600,68	1279,98
600,87	1318,89
601,06	1251,31
601,26	1314,80
601,45	1216,49
601,64	1273,84
601,83	1232,88
602,03	1261,55
602,22	1288,17
602,41	1273,84
602,60	1290,22
602,80	1294,32
602,99	1249,26
603,18	1189,87
603,37	1339,37
603,57	1232,88
603,76	1257,45
603,95	1200,11
604,14	1290,22
604,34	1259,50
604,53	1345,52
604,72	1275,88
604,91	1316,84
605,10	1222,64
605,30	1290,22
605,49	1279,98
605,68	1271,79
605,87	1306,60
606,07	1232,88
606,26	1261,55
606,45	1351,66
606,64	1234,93
606,84	1245,16
607,03	1261,55
607,22	1259,50
607,41	1298,41
607,60	1265,64
607,80	1306,60
607,99	1298,41
608,18	1241,07
608,37	1269,74
608,56	1314,80
608,76	1241,07
608,95	1298,41
609,14	1312,75
609,33	1306,60
609,52	1325,04
609,72	1241,07
609,91	1284,08
610,10	1173,49
610,29	1288,17
610,48	1322,99
610,68	1290,22
610,87	1306,60
611,06	1257,45
611,25	1284,08
611,44	1345,52
611,63	1249,26
611,83	1253,36
612,02	1243,12
612,21	1308,65
612,40	1279,98
612,59	1277,93
612,79	1228,78
612,98	1277,93
613,17	1298,41
613,36	1277,93
613,55	1298,41
613,74	1265,64
613,93	1316,84
614,13	1304,56
614,32	1267,69
614,51	1298,41
614,70	1259,50
614,89	1298,41
615,08	1286,12
615,28	1290,22
615,47	1196,01
615,66	1341,42
615,85	1298,41
616,04	1296,36
616,23	1263,60
616,42	1279,98
616,62	1290,22
616,81	1279,98
617,00	1185,77
617,19	1314,80
617,38	1200,11
617,57	1241,07
617,76	1325,04
617,95	1224,69
618,15	1331,18
618,34	1314,80
618,53	1288,17
618,72	1224,69
618,91	1292,27
619,10	1271,79
619,29	1204,21
619,48	1296,36
619,68	1247,21
619,87	1282,03
620,06	1284,08
620,25	1300,46
620,44	1290,22
620,63	1230,83
620,82	1284,08
621,01	1255,40
621,20	1269,74
621,39	1327,08
621,59	1204,21
621,78	1282,03
621,97	1314,80
622,16	1243,12
622,35	1335,28
622,54	1259,50
622,73	1224,69
622,92	1243,12
623,11	1247,21
623,30	1308,65
623,49	1275,88
623,68	1239,02
623,88	1241,07
624,07	1282,03
624,26	1259,50
624,45	1282,03
624,64	1251,31
624,83	1304,56
625,02	1216,49
625,21	1308,65
625,40	1290,22
625,59	1312,75
625,78	1337,32
625,97	1253,36
626,16	1314,80
626,35	1261,55
626,54	1245,16
626,74	1327,08
626,93	1196,01
627,12	1271,79
627,31	1263,60
627,50	1345,52
627,69	1267,69
627,88	1282,03
628,07	1263,60
628,26	1230,83
628,45	1210,35
628,64	1284,08
628,83	1288,17
629,02	1239,02
629,21	1325,04
629,40	1253,36
629,59	1298,41
629,78	1302,51
629,97	1304,56
630,16	1241,07
630,35	1275,88
630,54	1320,94
630,73	1253,36
630,92	1312,75
631,11	1292,27
631,30	1300,46
631,49	1382,38
631,68	1452,01
631,87	2381,79
632,06	5539,76
632,25	6619,04
632,44	12111,69
632,63	17164,03
632,82	27872,85
633,01	45575,50
633,20	36330,97
633,39	20029,13
633,58	8746,87
633,77	5029,81
633,96	4444,09
634,15	3710,92
634,34	2602,97
634,53	2340,83
634,72	2138,08
634,91	1941,47
635,10	2007,01
635,29	1849,32
635,48	1785,83
635,67	1732,58
635,86	1626,09
636,05	1566,70
636,24	1507,30
636,43	1533,93
636,62	1495,02
636,81	1443,82
637,00	1413,10
637,19	1486,83
637,38	1386,47
637,57	1415,15
637,76	1314,80
637,95	1312,75
638,14	1331,18
638,33	1230,83
638,52	1267,69
638,71	1277,93
638,89	1286,12
639,08	1329,13
639,27	1318,89
639,46	1312,75
639,65	1300,46
639,84	1273,84
640,03	1312,75
640,22	1257,45
640,41	1249,26
640,60	1196,01
640,79	1320,94
640,98	1241,07
641,17	1261,55
641,36	1255,40
641,55	1232,88
641,74	1302,51
641,92	1312,75
642,11	1308,65
642,30	1234,93
642,49	1284,08
642,68	1275,88
642,87	1329,13
643,06	1288,17
643,25	1247,21
643,44	1267,69
643,63	1277,93
643,82	1282,03
644,00	1284,08
644,19	1312,75
644,38	1329,13
644,57	1290,22
644,76	1320,94
644,95	1232,88
645,14	1243,12
645,33	1318,89
645,52	1284,08
645,71	1329,13
645,89	1273,84
646,08	1294,32
646,27	1243,12
646,46	1304,56
646,65	1247,21
646,84	1331,18
647,03	1298,41
647,22	1265,64
647,40	1171,44
647,59	1228,78
647,78	1269,74
647,97	1282,03
648,16	1208,30
648,35	1306,60
648,54	1271,79
648,73	1261,55
648,91	1247,21
649,10	1261,55
649,29	1216,49
649,48	1271,79
649,67	1269,74
649,86	1261,55
650,05	1271,79
650,23	1261,55
650,42	1265,64
650,61	1292,27
650,80	1234,93
650,99	1257,45
651,18	1253,36
651,36	1255,40
651,55	1273,84
651,74	1273,84
651,93	1241,07
652,12	1210,35
652,31	1220,59
652,49	1292,27
652,68	1271,79
652,87	1263,60
653,06	1286,12
653,25	1329,13
653,44	1286,12
653,62	1222,64
653,81	1298,41
654,00	1296,36
654,19	1322,99
654,38	1286,12
654,56	1345,52
654,75	1191,92
654,94	1255,40
655,13	1296,36
655,32	1284,08
655,51	1341,42
655,69	1183,73
655,88	1325,04
656,07	1241,07
656,26	1292,27
656,45	1298,41
656,63	1302,51
656,82	1271,79
657,01	1241,07
657,20	1239,02
657,38	1241,07
657,57	1253,36
657,76	1191,92
657,95	1275,88
658,14	1224,69
658,32	1294,32
658,51	1284,08
658,70	1255,40
658,89	1314,80
659,08	1259,50
659,26	1271,79
659,45	1222,64
659,64	1241,07
659,83	1193,97
660,01	1331,18
660,20	1294,32
660,39	1269,74
660,58	1286,12
660,76	1214,45
660,95	1259,50
661,14	1286,12
661,33	1212,40
661,51	1286,12
661,70	1300,46
661,89	1234,93
662,08	1298,41
662,26	1241,07
662,45	1230,83
662,64	1230,83
662,83	1245,16
663,01	1329,13
663,20	1228,78
663,39	1316,84
663,58	1216,49
663,76	1300,46
663,95	1230,83
664,14	1259,50
664,32	1263,60
664,51	1300,46
664,70	1249,26
664,89	1306,60
665,07	1226,73
665,26	1292,27
665,45	1249,26
665,64	1198,06
665,82	1290,22
666,01	1251,31
666,20	1226,73
666,38	1153,01
666,57	1327,08
666,76	1296,36
666,95	1284,08
667,13	1232,88
667,32	1312,75
667,51	1290,22
667,69	1359,85
667,88	1284,08
668,07	1292,27
668,25	1239,02
668,44	1290,22
668,63	1304,56
668,81	1267,69
669,00	1341,42
669,19	1245,16
669,38	1308,65
669,56	1327,08
669,75	1198,06
669,94	1232,88
670,12	1290,22
670,31	1282,03
670,50	1306,60
670,68	1263,60
670,87	1249,26
671,06	1271,79
671,24	1259,50
671,43	1290,22
671,62	1298,41
671,80	1228,78
671,99	1296,36
672,18	1245,16
672,36	1282,03
672,55	1284,08
672,74	1226,73
672,92	1331,18
673,11	1273,84
673,29	1263,60
673,48	1216,49
673,67	1273,84
673,85	1253,36
674,04	1247,21
674,23	1306,60
674,41	1251,31
674,60	1222,64
674,79	1302,51
674,97	1257,45
675,16	1300,46
675,34	1236,97
675,53	1265,64
675,72	1261,55
675,90	1263,60
676,09	1265,64
676,28	1372,14
676,46	1290,22
676,65	1277,93
676,83	1279,98
677,02	1236,97
677,21	1284,08
677,39	1312,75
677,58	1230,83
677,77	1255,40
677,95	1234,93
678,14	1314,80
678,32	1347,56
678,51	1261,55
678,70	1341,42
678,88	1247,21
679,07	1331,18
679,25	1327,08
679,44	1304,56
679,63	1228,78
679,81	1234,93
680,00	1282,03
680,18	1236,97
680,37	1259,50
680,55	1263,60
680,74	1320,94
680,93	1271,79
681,11	1284,08
681,30	1312,75
681,48	1304,56
681,67	1275,88
681,85	1277,93
682,04	1232,88
682,23	1269,74
682,41	1329,13
682,60	1325,04
682,78	1327,08
682,97	1220,59
683,15	1271,79
683,34	1255,40
683,53	1269,74
683,71	1271,79
683,90	1310,70
684,08	1275,88
684,27	1273,84
684,45	1257,45
684,64	1241,07
684,82	1212,40
685,01	1312,75
685,19	1210,35
685,38	1267,69
685,57	1263,60
685,75	1269,74
685,94	1208,30
686,12	1261,55
686,31	1204,21
686,49	1359,85
686,68	1247,21
686,86	1271,79
687,05	1327,08
687,23	1267,69
687,42	1298,41
687,60	1298,41
687,79	1241,07
687,97	1298,41
688,16	1302,51
688,34	1306,60
688,53	1261,55
688,71	1298,41
688,90	1245,16
689,08	1286,12
689,27	1265,64
689,45	1314,80
689,64	1294,32
689,82	1351,66
690,01	1284,08
690,19	1253,36
690,38	1251,31
690,56	1322,99
690,75	1257,45
690,93	1273,84
691,12	1259,50
691,30	1247,21
691,49	1304,56
691,67	1304,56
691,86	1243,12
692,04	1302,51
692,23	1232,88
692,41	1333,23
692,60	1320,94
692,78	1251,31
692,97	1302,51
693,15	1298,41
693,34	1263,60
693,52	1296,36
693,71	1279,98
693,89	1267,69
694,08	1279,98
694,26	1290,22
694,44	1218,54
694,63	1298,41
694,81	1294,32
695,00	1345,52
695,18	1239,02
695,37	1316,84
695,55	1234,93
695,74	1304,56
695,92	1253,36
696,10	1337,32
696,29	1269,74
696,47	1355,76
696,66	1275,88
696,84	1286,12
697,03	1294,32
697,21	1335,28
697,40	1282,03
697,58	1269,74
697,76	1253,36
697,95	1320,94
698,13	1277,93
698,32	1257,45
698,50	1267,69
698,68	1286,12
698,87	1243,12
699,05	1286,12
699,24	1265,64
699,42	1249,26
699,61	1216,49
699,79	1241,07
699,97	1259,50
700,16	1312,75
700,34	1304,56
700,53	1351,66
700,71	1218,54
700,89	1304,56
701,08	1216,49
701,26	1290,22
701,45	1275,88
701,63	1308,65
701,81	1279,98
702,00	1275,88
702,18	1269,74
702,37	1269,74
702,55	1191,92
702,73	1228,78
702,92	1337,32
703,10	1296,36
703,28	1284,08
703,47	1220,59
703,65	1241,07
703,84	1296,36
704,02	1341,42
704,20	1263,60
704,39	1249,26
704,57	1322,99
704,75	1273,84
704,94	1259,50
705,12	1335,28
705,30	1271,79
705,49	1247,21
705,67	1288,17
705,86	1247,21
706,04	1370,09
706,22	1273,84
706,41	1298,41
706,59	1286,12
706,77	1234,93
706,96	1257,45
707,14	1347,56
707,32	1263,60
707,51	1310,70
707,69	1351,66
707,87	1261,55
708,06	1304,56
708,24	1294,32
708,42	1288,17
708,61	1312,75
708,79	1304,56
708,97	1271,79
709,16	1271,79
709,34	1265,64
709,52	1322,99
709,71	1271,79
709,89	1284,08
710,07	1273,84
710,26	1361,90
710,44	1259,50
710,62	1322,99
710,80	1218,54
710,99	1339,37
711,17	1255,40
711,35	1296,36
711,54	1284,08
711,72	1277,93
711,90	1312,75
712,09	1294,32
712,27	1206,25
712,45	1322,99
712,63	1288,17
712,82	1286,12
713,00	1310,70
713,18	1347,56
713,37	1284,08
713,55	1255,40
713,73	1265,64
713,91	1294,32
714,10	1253,36
714,28	1241,07
714,46	1228,78
714,65	1241,07
714,83	1277,93
715,01	1282,03
715,19	1282,03
715,38	1288,17
715,56	1206,25
715,74	1269,74
715,92	1277,93
716,11	1216,49
716,29	1355,76
716,47	1230,83
716,65	1275,88
716,84	1257,45
717,02	1239,02
717,20	1241,07
717,38	1329,13
717,57	1247,21
717,75	1228,78
717,93	1308,65
718,11	1363,95
718,30	1282,03
718,48	1298,41
718,66	1288,17
718,84	1273,84
719,03	1236,97
719,21	1273,84
719,39	1279,98
719,57	1271,79
719,75	1282,03
719,94	1277,93
720,12	1333,23
720,30	1271,79
720,48	1300,46
720,67	1239,02
720,85	1214,45
721,03	1255,40
721,21	1214,45
721,39	1298,41
721,58	1230,83
721,76	1312,75
721,94	1257,45
722,12	1228,78
722,30	1265,64
722,49	1277,93
722,67	1294,32
722,85	1314,80
723,03	1314,80
723,21	1296,36
723,40	1320,94
723,58	1241,07
723,76	1282,03
723,94	1308,65
724,12	1300,46
724,30	1335,28
724,49	1267,69
724,67	1175,53
724,85	1316,84
725,03	1236,97
725,21	1349,61
725,40	1230,83
725,58	1251,31
725,76	1236,97
725,94	1259,50
726,12	1214,45
726,30	1263,60
726,49	1224,69
726,67	1355,76
726,85	1255,40
727,03	1296,36
727,21	1304,56
727,39	1249,26
727,57	1216,49
727,76	1300,46
727,94	1255,40
728,12	1257,45
728,30	1282,03
728,48	1206,25
728,66	1255,40
728,84	1247,21
729,03	1320,94
729,21	1216,49
729,39	1263,60
729,57	1327,08
729,75	1175,53
729,93	1343,47
730,11	1335,28
730,30	1288,17
730,48	1282,03
730,66	1255,40
730,84	1320,94
731,02	1253,36
731,20	1277,93
731,38	1259,50
731,56	1255,40
731,74	1279,98
731,93	1279,98
732,11	1290,22
732,29	1257,45
732,47	1302,51
732,65	1370,09
732,83	1259,50
733,01	1261,55
733,19	1353,71
733,37	1181,68
733,56	1173,49
733,74	1279,98
733,92	1282,03
734,10	1224,69
734,28	1214,45
734,46	1265,64
734,64	1271,79
734,82	1245,16
735,00	1265,64
735,18	1236,97
735,36	1212,40
735,54	1206,25
735,73	1279,98
735,91	1267,69
736,09	1273,84
736,27	1271,79
736,45	1300,46
736,63	1202,16
736,81	1236,97
736,99	1312,75
737,17	1193,97
737,35	1251,31
737,53	1277,93
737,71	1255,40
737,89	1282,03
738,07	1228,78
738,25	1228,78
738,43	1247,21
738,61	1243,12
738,80	1251,31
738,98	1296,36
739,16	1318,89
739,34	1267,69
739,52	1216,49
739,70	1335,28
739,88	1216,49
740,06	1249,26
740,24	1191,92
740,42	1284,08
740,60	1161,20
740,78	1232,88
740,96	1255,40
741,14	1257,45
741,32	1304,56
741,50	1298,41
741,68	1259,50
741,86	1327,08
742,04	1269,74
742,22	1275,88
742,40	1206,25
742,58	1296,36
742,76	1298,41
742,94	1275,88
743,12	1304,56
743,30	1224,69
743,48	1228,78
743,66	1269,74
743,84	1275,88
744,02	1249,26
744,20	1269,74
744,38	1259,50
744,56	1263,60
744,74	1259,50
744,92	1224,69
745,10	1239,02
745,28	1298,41
745,46	1236,97
745,64	1257,45
745,82	1247,21
746,00	1292,27
746,18	1304,56
746,36	1204,21
746,54	1204,21
746,72	1247,21
746,90	1273,84
747,08	1249,26
747,26	1267,69
747,44	1263,60
747,62	1329,13
747,80	1279,98
747,98	1261,55
748,15	1302,51
748,33	1269,74
748,51	1206,25
748,69	1249,26
748,87	1333,23
749,05	1279,98
749,23	1273,84
749,41	1290,22
749,59	1255,40
749,77	1294,32
749,95	1243,12
750,13	1286,12
750,31	1304,56
750,49	1228,78
750,67	1271,79
750,85	1267,69
751,03	1263,60
751,20	1294,32
751,38	1329,13
751,56	1308,65
751,74	1290,22
751,92	1318,89
752,10	1298,41
752,28	1251,31
752,46	1322,99
752,64	1296,36
752,82	1310,70
753,00	1290,22
753,18	1275,88
753,35	1236,97
753,53	1306,60
753,71	1241,07
753,89	1298,41
754,07	1318,89
754,25	1263,60
754,43	1263,60
754,61	1275,88
754,79	1259,50
754,97	1300,46
755,14	1249,26
755,32	1273,84
755,50	1308,65
755,68	1314,80
755,86	1249,26
756,04	1241,07
756,22	1277,93
756,40	1286,12
756,57	1243,12
756,75	1257,45
756,93	1267,69
757,11	1292,27
757,29	1290,22
757,47	1249,26
757,65	1212,40
757,82	1273,84
758,00	1292,27
758,18	1277,93
758,36	1181,68
758,54	1263,60
758,72	1277,93
758,90	1257,45
759,07	1249,26
759,25	1261,55
759,43	1263,60
759,61	1296,36
759,79	1304,56
759,97	1275,88
760,15	1284,08
760,32	1322,99
760,50	1277,93
760,68	1279,98
760,86	1253,36
761,04	1232,88
761,22	1261,55
761,39	1239,02
761,57	1239,02
761,75	1277,93
761,93	1322,99
762,11	1273,84
762,28	1259,50
762,46	1296,36
762,64	1236,97
762,82	1314,80
763,00	1216,49
763,18	1310,70
763,35	1282,03
763,53	1347,56
763,71	1228,78
763,89	1290,22
764,07	1273,84
764,24	1234,93
764,42	1234,93
764,60	1316,84
764,78	1236,97
764,96	1257,45
765,13	1241,07
765,31	1290,22
765,49	1249,26
765,67	1325,04
765,84	1304,56
766,02	1306,60
766,20	1191,92
766,38	1320,94
766,56	1327,08
766,73	1273,84
766,91	1316,84
767,09	1298,41
767,27	1245,16
767,44	1218,54
767,62	1241,07
767,80	1298,41
767,98	1337,32
768,15	1230,83
768,33	1322,99
768,51	1239,02
768,69	1273,84
768,87	1241,07
769,04	1234,93
769,22	1255,40
769,40	1275,88
769,58	1277,93
769,75	1232,88
769,93	1314,80
770,11	1314,80
770,28	1265,64
770,46	1277,93
770,64	1267,69
770,82	1245,16
770,99	1308,65
771,17	1243,12
771,35	1216,49
771,53	1292,27
771,70	1265,64
771,88	1263,60
772,06	1294,32
772,23	1271,79
772,41	1259,50
772,59	1329,13
772,77	1243,12
772,94	1302,51
773,12	1310,70
773,30	1296,36
773,47	1247,21
773,65	1265,64
773,83	1253,36
774,01	1263,60
774,18	1322,99
774,36	1251,31
774,54	1302,51
774,71	1267,69
774,89	1296,36
775,07	1288,17
775,24	1310,70
775,42	1251,31
775,60	1255,40
775,78	1296,36
775,95	1316,84
776,13	1232,88
776,31	1275,88
776,48	1292,27
776,66	1243,12
776,84	1310,70
777,01	1308,65
777,19	1277,93
777,37	1196,01
777,54	1193,97
777,72	1212,40
777,90	1308,65
778,07	1288,17
778,25	1239,02
778,43	1302,51
778,60	1228,78
778,78	1222,64
778,96	1314,80
779,13	1273,84
779,31	1267,69
779,49	1308,65
779,66	1275,88
779,84	1290,22
780,01	1300,46
780,19	1331,18
780,37	1296,36
780,54	1290,22
780,72	1255,40
780,90	1298,41
781,07	1265,64
781,25	1339,37
781,43	1320,94
781,60	1232,88
781,78	1322,99
781,95	1255,40
782,13	1298,41
782,31	1234,93
782,48	1300,46
782,66	1212,40
782,83	1245,16
783,01	1314,80
783,19	1267,69
783,36	1263,60
783,54	1239,02
783,72	1245,16
783,89	1341,42
784,07	1228,78
784,24	1191,92
784,42	1241,07
784,60	1234,93
784,77	1265,64
784,95	1253,36
785,12	1288,17
785,30	1216,49
785,47	1320,94
785,65	1196,01
785,83	1255,40
786,00	1286,12
786,18	1302,51
786,35	1298,41
786,53	1220,59
786,71	1200,11
786,88	1271,79
787,06	1273,84
787,23	1228,78
787,41	1251,31
787,58	1265,64
787,76	1255,40
787,94	1322,99
788,11	1294,32
788,29	1327,08
788,46	1204,21
788,64	1282,03
788,81	1308,65
788,99	1196,01
789,16	1275,88
789,34	1314,80
789,52	1247,21
789,69	1327,08
789,87	1185,77
790,04	1259,50
790,22	1263,60
790,39	1310,70
790,57	1267,69
790,74	1273,84
790,92	1304,56
791,09	1292,27
791,27	1189,87
791,44	1261,55
791,62	1296,36
791,79	1265,64
791,97	1232,88
792,15	1275,88
792,32	1269,74
792,50	1288,17
792,67	1241,07
792,85	1241,07
793,02	1239,02
793,20	1318,89
793,37	1191,92
793,55	1267,69
793,72	1236,97
793,90	1269,74
794,07	1251,31
794,25	1251,31
794,42	1306,60
794,60	1286,12
794,77	1243,12
794,95	1245,16
795,12	1267,69
795,30	1239,02
795,47	1230,83
795,65	1251,31
795,82	1236,97
796,00	1228,78
796,17	1228,78
796,34	1214,45
796,52	1249,26
796,69	1286,12
796,87	1304,56
797,04	1261,55
797,22	1247,21
797,39	1232,88
797,57	1247,21
797,74	1265,64
797,92	1245,16
798,09	1368,04
798,27	1273,84
798,44	1288,17
798,62	1239,02
798,79	1273,84
798,96	1282,03
799,14	1294,32
799,31	1181,68
799,49	1259,50
799,66	1253,36
799,84	1277,93
800,01	1368,04
800,19	1292,27
800,36	1279,98
800,53	1243,12
800,71	1288,17
800,88	1282,03
801,06	1263,60
801,23	1239,02
801,41	1257,45
801,58	1249,26
801,75	1279,98
801,93	1329,13
802,10	1265,64
802,28	1322,99
802,45	1296,36
802,63	1253,36
802,80	1312,75
802,97	1253,36
803,15	1161,20
803,32	1286,12
803,50	1282,03
803,67	1265,64
803,84	1292,27
804,02	1329,13
804,19	1292,27
804,37	1316,84
804,54	1331,18
804,71	1284,08
804,89	1294,32
805,06	1241,07
805,24	1271,79
805,41	1224,69
805,58	1284,08
805,76	1224,69
805,93	1282,03
806,10	1284,08
806,28	1273,84
806,45	1329,13
806,63	1279,98
806,80	1300,46
806,97	1302,51
807,15	1279,98
807,32	1275,88
807,49	1247,21
807,67	1269,74
807,84	1284,08
808,01	1222,64
808,19	1241,07
808,36	1267,69
808,54	1351,66
808,71	1302,51
808,88	1277,93
809,06	1216,49
809,23	1255,40
809,40	1277,93
809,58	1298,41
809,75	1265,64
809,92	1282,03
810,10	1249,26
810,27	1279,98
810,44	1251,31
810,62	1259,50
810,79	1296,36
810,96	1304,56
811,14	1282,03
811,31	1234,93
811,48	1191,92
811,66	1257,45
811,83	1220,59
812,00	1214,45
812,18	1265,64
812,35	1241,07
812,52	1273,84
812,69	1259,50
812,87	1239,02
813,04	1269,74
813,21	1292,27
813,39	1320,94
813,56	1308,65
813,73	1284,08
813,91	1159,15
814,08	1306,60
814,25	1228,78
814,42	1298,41
814,60	1193,97
814,77	1325,04
814,94	1234,93
815,12	1234,93
815,29	1308,65
815,46	1294,32
815,63	1269,74
815,81	1286,12
815,98	1304,56
816,15	1253,36
816,33	1302,51
816,50	1277,93
816,67	1304,56
816,84	1279,98
817,02	1218,54
817,19	1267,69
817,36	1267,69
817,53	1277,93
817,71	1224,69
817,88	1239,02
818,05	1304,56
818,22	1304,56
818,40	1265,64
818,57	1329,13
818,74	1265,64
818,91	1333,23
819,09	1337,32
819,26	1241,07
819,43	1314,80
819,60	1288,17
819,78	1265,64
819,95	1288,17
820,12	1284,08
820,29	1187,82
820,47	1263,60
820,64	1298,41
820,81	1218,54
820,98	1261,55
821,15	1275,88
821,33	1224,69
821,50	1216,49
821,67	1306,60
821,84	1304,56
822,02	1263,60
822,19	1296,36
822,36	1271,79
822,53	1255,40
822,70	1239,02
822,88	1320,94
823,05	1279,98
823,22	1198,06
823,39	1259,50
823,56	1222,64
823,74	1226,73
823,91	1345,52
824,08	1222,64
824,25	1236,97
824,42	1322,99
824,60	1273,84
824,77	1284,08
824,94	1259,50
825,11	1269,74
825,28	1273,84
825,45	1259,50
825,63	1257,45
825,80	1292,27
825,97	1279,98
826,14	1282,03
826,31	1277,93
826,48	1312,75
826,66	1282,03
826,83	1275,88
827,00	1290,22
827,17	1345,52
827,34	1230,83
827,51	1277,93
827,69	1251,31
827,86	1290,22
828,03	1290,22
828,20	1290,22
828,37	1292,27
828,54	1286,12
828,71	1347,56
828,89	1316,84
829,06	1216,49
829,23	1220,59
829,40	1255,40
829,57	1249,26
829,74	1222,64
829,91	1290,22
830,09	1282,03
830,26	1273,84
830,43	1296,36
830,60	1327,08
830,77	1374,19
830,94	1222,64
831,11	1273,84
831,28	1322,99
831,46	1202,16
831,63	1302,51
831,80	1271,79
831,97	1304,56
832,14	1327,08
832,31	1220,59
832,48	1261,55
832,65	1277,93
832,82	1234,93
832,99	1300,46
833,17	1298,41
833,34	1208,30
833,51	1212,40
833,68	1261,55
833,85	1322,99
834,02	1271,79
834,19	1349,61
834,36	1325,04
834,53	1329,13
834,70	1239,02
834,87	1267,69
835,04	1282,03
835,22	1230,83
835,39	1286,12
835,56	1259,50
835,73	1249,26
835,90	1245,16
836,07	1271,79
836,24	1230,83
836,41	1202,16
836,58	1333,23
836,75	1300,46
836,92	1261,55
837,09	1257,45
837,26	1251,31
837,43	1263,60
837,60	1232,88
837,77	1306,60
837,94	1327,08
838,12	1312,75
838,29	1269,74
838,46	1273,84
838,63	1279,98
838,80	1314,80
838,97	1327,08
839,14	1290,22
839,31	1292,27
839,48	1333,23
839,65	1335,28
839,82	1290,22
839,99	1245,16
840,16	1265,64
840,33	1294,32
840,50	1257,45
840,67	1216,49
840,84	1296,36
841,01	1273,84
841,18	1187,82
841,35	1294,32
841,52	1173,49
841,69	1318,89
841,86	1306,60
842,03	1230,83
842,20	1269,74
842,37	1277,93
842,54	1304,56
842,71	1300,46
842,88	1290,22
843,05	1247,21
843,22	1247,21
843,39	1208,30
843,56	1245,16
843,73	1228,78
843,90	1290,22
844,07	1253,36
844,24	1224,69
844,41	1255,40
844,58	1318,89
844,75	1218,54
844,92	1288,17
845,09	1335,28
845,26	1218,54
845,43	1284,08
845,60	1257,45
845,77	1284,08
845,94	1288,17
846,10	1232,88
846,27	1286,12
846,44	1222,64
846,61	1294,32
846,78	1224,69
846,95	1277,93
847,12	1273,84
847,29	1341,42
847,46	1253,36
847,63	1345,52
847,80	1249,26
847,97	1290,22
848,14	1257,45
848,31	1243,12
848,48	1269,74
848,65	1226,73
848,82	1159,15
848,98	1292,27
849,15	1206,25
849,32	1275,88
849,49	1298,41
849,66	1273,84
849,83	1239,02
850,00	1290,22
850,17	1257,45
850,34	1339,37
850,51	1355,76
850,68	1304,56
850,85	1282,03
851,01	1228,78
851,18	1300,46
851,35	1245,16
851,52	1202,16
851,69	1288,17
851,86	1308,65
852,03	1331,18
852,20	1294,32
852,37	1304,56
852,53	1263,60
852,70	1275,88
852,87	1263,60
853,04	1220,59
853,21	1269,74
853,38	1279,98
853,55	1298,41
853,72	1343,47
853,89	1302,51
854,05	1220,59
854,22	1310,70
854,39	1200,11
854,56	1363,95
854,73	1366,00
854,90	1292,27
855,07	1292,27
855,23	1255,40
855,40	1253,36
855,57	1292,27
855,74	1261,55
855,91	1265,64
856,08	1279,98
856,25	1357,80
856,41	1241,07
856,58	1257,45
856,75	1292,27
856,92	1257,45
857,09	1286,12
857,26	1269,74
857,42	1232,88
857,59	1318,89
857,76	1222,64
857,93	1304,56
858,10	1282,03
858,27	1255,40
858,43	1282,03
858,60	1333,23
858,77	1257,45
858,94	1255,40
859,11	1296,36
859,27	1335,28
859,44	1245,16
859,61	1296,36
859,78	1161,20
859,95	1271,79
860,12	1236,97
860,28	1224,69
860,45	1325,04
860,62	1263,60
860,79	1275,88
860,95	1284,08
861,12	1363,95
861,29	1236,97
861,46	1265,64
861,63	1279,98
861,79	1257,45
861,96	1290,22
862,13	1292,27
862,30	1181,68
862,47	1286,12
862,63	1296,36
862,80	1265,64
862,97	1308,65
863,14	1277,93
863,30	1335,28
863,47	1265,64
863,64	1312,75
863,81	1331,18
863,97	1288,17
864,14	1306,60
864,31	1296,36
864,48	1294,32
864,65	1302,51
864,81	1275,88
864,98	1322,99
865,15	1224,69
865,32	1320,94
865,48	1331,18
865,65	1234,93
865,82	1290,22
865,98	1179,63
866,15	1357,80
866,32	1282,03
866,49	1275,88
866,65	1273,84
866,82	1271,79
866,99	1310,70
867,16	1224,69
867,32	1331,18
867,49	1261,55
867,66	1249,26
867,83	1304,56
867,99	1183,73
868,16	1271,79
868,33	1232,88
868,49	1253,36
868,66	1171,44
868,83	1329,13
868,99	1286,12
869,16	1222,64
869,33	1279,98
869,50	1298,41
869,66	1196,01
869,83	1288,17
870,00	1288,17
870,16	1302,51
870,33	1191,92
870,50	1159,15
870,66	1222,64
870,83	1286,12
871,00	1273,84
871,17	1198,06
871,33	1327,08
871,50	1304,56
871,67	1236,97
871,83	1277,93
872,00	1269,74
872,17	1218,54
872,33	1267,69
872,50	1245,16
872,67	1224,69
872,83	1265,64
873,00	1286,12
873,17	1269,74
873,33	1316,84
873,50	1273,84
873,67	1265,64
873,83	1241,07
874,00	1212,40
874,16	1241,07
874,33	1345,52
874,50	1279,98
874,66	1351,66
874,83	1329,13
875,00	1282,03
875,16	1230,83
875,33	1165,29
875,50	1269,74
875,66	1271,79
875,83	1296,36
875,99	1298,41
876,16	1296,36
876,33	1279,98
876,49	1316,84
876,66	1312,75
876,83	1257,45
876,99	1353,71
877,16	1255,40
877,32	1220,59
877,49	1247,21
877,66	1314,80
877,82	1327,08
877,99	1300,46
878,15	1265,64
878,32	1282,03
878,49	1273,84
878,65	1259,50
878,82	1288,17
878,98	1253,36
879,15	1298,41
879,32	1267,69
879,48	1296,36
879,65	1230,83
879,81	1228,78
879,98	1259,50
880,15	1337,32
880,31	1234,93
880,48	1290,22
880,64	1275,88
880,81	1202,16
880,97	1236,97
881,14	1320,94
881,31	1294,32
881,47	1245,16
881,64	1234,93
881,80	1245,16
881,97	1224,69
882,13	1284,08
882,30	1261,55
882,47	1279,98
882,63	1273,84
882,80	1288,17
882,96	1282,03
883,13	1372,14
883,29	1296,36
883,46	1310,70
883,62	1273,84
883,79	1277,93
883,95	1341,42
884,12	1306,60
884,29	1275,88
884,45	1247,21
884,62	1228,78
884,78	1255,40
884,95	1314,80
885,11	1329,13
885,28	1271,79
885,44	1269,74
885,61	1247,21
885,77	1331,18
885,94	1239,02
886,10	1290,22
886,27	1249,26
886,43	1282,03
886,60	1214,45
886,76	1316,84
886,93	1273,84
887,09	1370,09
887,26	1245,16
887,42	1341,42
887,59	1239,02
887,75	1245,16
887,92	1273,84
888,08	1263,60
888,25	1212,40
888,41	1239,02
888,58	1165,29
888,74	1292,27
888,91	1296,36
>>>>>End Processed Spectral Data<<<<<
