SpectraSuite Data File
++++++++++++++++++++++++++++++++++++
Date: Sun Apr 03 15:15:34 CEST 2016
User: root
Dark Spectrum Present: No
Reference Spectrum Present: No
Number of Sampled Component Spectra: 1
Spectrometers: USB4C02835
Integration Time (usec): 10000 (USB4C02835)
Spectra Averaged: 1 (USB4C02835)
Boxcar Smoothing: 0 (USB4C02835)
Correct for Electrical Dark: No (USB4C02835)
Strobe/Lamp Enabled: No (USB4C02835)
Correct for Detector Non-linearity: No (USB4C02835)
Correct for Stray Light: No (USB4C02835)
Number of Pixels in Processed Spectrum: 3648
>>>>>Begin Processed Spectral Data<<<<<
177,47	1273,84
177,69	1273,84
177,91	1273,84
178,13	1247,21
178,36	1214,45
178,58	1198,06
178,80	1275,88
179,02	1228,78
179,24	1316,84
179,46	1294,32
179,68	1253,36
179,90	1284,08
180,13	1241,07
180,35	1320,94
180,57	1216,49
180,79	1267,69
181,01	1286,12
181,23	1271,79
181,45	1263,60
181,67	1247,21
181,90	1366,00
182,12	1331,18
182,34	1282,03
182,56	1251,31
182,78	1234,93
183,00	1277,93
183,22	1261,55
183,44	1273,84
183,66	1279,98
183,89	1308,65
184,11	1286,12
184,33	1253,36
184,55	1265,64
184,77	1331,18
184,99	1331,18
185,21	1288,17
185,43	1265,64
185,65	1263,60
185,87	1333,23
186,10	1290,22
186,32	1294,32
186,54	1247,21
186,76	1290,22
186,98	1322,99
187,20	1218,54
187,42	1279,98
187,64	1284,08
187,86	1322,99
188,08	1224,69
188,30	1222,64
188,52	1222,64
188,75	1277,93
188,97	1214,45
189,19	1286,12
189,41	1236,97
189,63	1271,79
189,85	1259,50
190,07	1247,21
190,29	1273,84
190,51	1232,88
190,73	1284,08
190,95	1282,03
191,17	1253,36
191,39	1200,11
191,61	1200,11
191,84	1181,68
192,06	1224,69
192,28	1265,64
192,50	1292,27
192,72	1251,31
192,94	1249,26
193,16	1234,93
193,38	1263,60
193,60	1282,03
193,82	1284,08
194,04	1290,22
194,26	1263,60
194,48	1294,32
194,70	1300,46
194,92	1302,51
195,14	1314,80
195,36	1251,31
195,58	1226,73
195,80	1337,32
196,02	1208,30
196,24	1253,36
196,46	1222,64
196,69	1273,84
196,91	1308,65
197,13	1251,31
197,35	1296,36
197,57	1322,99
197,79	1251,31
198,01	1271,79
198,23	1329,13
198,45	1304,56
198,67	1245,16
198,89	1249,26
199,11	1189,87
199,33	1269,74
199,55	1269,74
199,77	1208,30
199,99	1245,16
200,21	1357,80
200,43	1294,32
200,65	1212,40
200,87	1277,93
201,09	1245,16
201,31	1261,55
201,53	1269,74
201,75	1271,79
201,97	1269,74
202,19	1284,08
202,41	1245,16
202,63	1347,56
202,85	1306,60
203,07	1251,31
203,29	1253,36
203,51	1339,37
203,73	1257,45
203,95	1255,40
204,17	1257,45
204,39	1241,07
204,61	1292,27
204,83	1265,64
205,05	1306,60
205,27	1181,68
205,49	1253,36
205,71	1294,32
205,93	1243,12
206,15	1208,30
206,37	1230,83
206,59	1263,60
206,81	1263,60
207,03	1282,03
207,25	1243,12
207,47	1282,03
207,69	1249,26
207,91	1253,36
208,13	1286,12
208,34	1234,93
208,56	1300,46
208,78	1304,56
209,00	1296,36
209,22	1296,36
209,44	1304,56
209,66	1300,46
209,88	1290,22
210,10	1269,74
210,32	1261,55
210,54	1273,84
210,76	1257,45
210,98	1275,88
211,20	1196,01
211,42	1310,70
211,64	1290,22
211,86	1263,60
212,08	1290,22
212,30	1273,84
212,52	1273,84
212,74	1206,25
212,96	1261,55
213,17	1325,04
213,39	1322,99
213,61	1267,69
213,83	1345,52
214,05	1230,83
214,27	1239,02
214,49	1292,27
214,71	1251,31
214,93	1241,07
215,15	1312,75
215,37	1290,22
215,59	1286,12
215,81	1265,64
216,03	1275,88
216,24	1290,22
216,46	1232,88
216,68	1298,41
216,90	1284,08
217,12	1279,98
217,34	1290,22
217,56	1288,17
217,78	1245,16
218,00	1304,56
218,22	1284,08
218,44	1214,45
218,66	1269,74
218,87	1306,60
219,09	1304,56
219,31	1322,99
219,53	1277,93
219,75	1269,74
219,97	1277,93
220,19	1320,94
220,41	1314,80
220,63	1232,88
220,85	1277,93
221,06	1355,76
221,28	1236,97
221,50	1271,79
221,72	1251,31
221,94	1290,22
222,16	1306,60
222,38	1355,76
222,60	1290,22
222,82	1290,22
223,03	1277,93
223,25	1232,88
223,47	1210,35
223,69	1320,94
223,91	1253,36
224,13	1282,03
224,35	1312,75
224,57	1308,65
224,78	1292,27
225,00	1214,45
225,22	1255,40
225,44	1269,74
225,66	1298,41
225,88	1318,89
226,10	1357,80
226,32	1265,64
226,53	1191,92
226,75	1271,79
226,97	1241,07
227,19	1232,88
227,41	1236,97
227,63	1261,55
227,85	1333,23
228,06	1359,85
228,28	1286,12
228,50	1269,74
228,72	1271,79
228,94	1368,04
229,16	1316,84
229,37	1277,93
229,59	1337,32
229,81	1288,17
230,03	1277,93
230,25	1249,26
230,47	1249,26
230,69	1236,97
230,90	1265,64
231,12	1380,33
231,34	1265,64
231,56	1302,51
231,78	1320,94
232,00	1243,12
232,21	1386,47
232,43	1245,16
232,65	1193,97
232,87	1286,12
233,09	1331,18
233,30	1304,56
233,52	1253,36
233,74	1216,49
233,96	1271,79
234,18	1279,98
234,40	1220,59
234,61	1306,60
234,83	1261,55
235,05	1265,64
235,27	1286,12
235,49	1267,69
235,70	1228,78
235,92	1359,85
236,14	1220,59
236,36	1355,76
236,58	1308,65
236,79	1306,60
237,01	1269,74
237,23	1261,55
237,45	1253,36
237,67	1187,82
237,88	1296,36
238,10	1308,65
238,32	1339,37
238,54	1263,60
238,76	1370,09
238,97	1312,75
239,19	1370,09
239,41	1271,79
239,63	1298,41
239,85	1290,22
240,06	1282,03
240,28	1208,30
240,50	1236,97
240,72	1261,55
240,93	1210,35
241,15	1288,17
241,37	1279,98
241,59	1216,49
241,81	1347,56
242,02	1351,66
242,24	1294,32
242,46	1304,56
242,68	1292,27
242,89	1259,50
243,11	1322,99
243,33	1302,51
243,55	1249,26
243,76	1253,36
243,98	1290,22
244,20	1298,41
244,42	1298,41
244,64	1333,23
244,85	1255,40
245,07	1265,64
245,29	1265,64
245,51	1314,80
245,72	1306,60
245,94	1241,07
246,16	1234,93
246,38	1259,50
246,59	1273,84
246,81	1249,26
247,03	1271,79
247,24	1241,07
247,46	1261,55
247,68	1335,28
247,90	1290,22
248,11	1261,55
248,33	1206,25
248,55	1284,08
248,77	1218,54
248,98	1290,22
249,20	1353,71
249,42	1253,36
249,64	1263,60
249,85	1361,90
250,07	1241,07
250,29	1290,22
250,50	1298,41
250,72	1277,93
250,94	1251,31
251,16	1361,90
251,37	1255,40
251,59	1320,94
251,81	1249,26
252,02	1306,60
252,24	1183,73
252,46	1310,70
252,68	1298,41
252,89	1208,30
253,11	1304,56
253,33	1308,65
253,54	1333,23
253,76	1263,60
253,98	1251,31
254,20	1290,22
254,41	1218,54
254,63	1282,03
254,85	1161,20
255,06	1288,17
255,28	1259,50
255,50	1226,73
255,71	1257,45
255,93	1288,17
256,15	1236,97
256,36	1284,08
256,58	1349,61
256,80	1320,94
257,02	1202,16
257,23	1357,80
257,45	1331,18
257,67	1286,12
257,88	1247,21
258,10	1249,26
258,32	1306,60
258,53	1318,89
258,75	1232,88
258,97	1224,69
259,18	1277,93
259,40	1234,93
259,62	1204,21
259,83	1228,78
260,05	1269,74
260,27	1277,93
260,48	1183,73
260,70	1265,64
260,92	1279,98
261,13	1316,84
261,35	1230,83
261,57	1329,13
261,78	1300,46
262,00	1296,36
262,22	1329,13
262,43	1228,78
262,65	1267,69
262,86	1335,28
263,08	1236,97
263,30	1292,27
263,51	1271,79
263,73	1308,65
263,95	1310,70
264,16	1308,65
264,38	1253,36
264,60	1298,41
264,81	1306,60
265,03	1228,78
265,25	1255,40
265,46	1241,07
265,68	1275,88
265,89	1200,11
266,11	1251,31
266,33	1222,64
266,54	1277,93
266,76	1286,12
266,98	1243,12
267,19	1372,14
267,41	1279,98
267,62	1300,46
267,84	1234,93
268,06	1298,41
268,27	1183,73
268,49	1298,41
268,70	1288,17
268,92	1271,79
269,14	1271,79
269,35	1376,24
269,57	1222,64
269,79	1320,94
270,00	1224,69
270,22	1226,73
270,43	1290,22
270,65	1249,26
270,87	1269,74
271,08	1290,22
271,30	1343,47
271,51	1302,51
271,73	1249,26
271,95	1331,18
272,16	1331,18
272,38	1263,60
272,59	1259,50
272,81	1271,79
273,02	1243,12
273,24	1288,17
273,46	1241,07
273,67	1337,32
273,89	1216,49
274,10	1286,12
274,32	1335,28
274,54	1251,31
274,75	1226,73
274,97	1314,80
275,18	1257,45
275,40	1325,04
275,61	1212,40
275,83	1222,64
276,05	1271,79
276,26	1275,88
276,48	1284,08
276,69	1255,40
276,91	1255,40
277,12	1294,32
277,34	1245,16
277,55	1294,32
277,77	1310,70
277,99	1318,89
278,20	1253,36
278,42	1296,36
278,63	1374,19
278,85	1345,52
279,06	1277,93
279,28	1208,30
279,49	1286,12
279,71	1236,97
279,93	1271,79
280,14	1331,18
280,36	1312,75
280,57	1327,08
280,79	1267,69
281,00	1306,60
281,22	1247,21
281,43	1298,41
281,65	1232,88
281,86	1247,21
282,08	1208,30
282,29	1353,71
282,51	1302,51
282,73	1275,88
282,94	1247,21
283,16	1255,40
283,37	1257,45
283,59	1304,56
283,80	1277,93
284,02	1230,83
284,23	1251,31
284,45	1228,78
284,66	1243,12
284,88	1191,92
285,09	1271,79
285,31	1286,12
285,52	1257,45
285,74	1245,16
285,95	1288,17
286,17	1282,03
286,38	1308,65
286,60	1292,27
286,81	1191,92
287,03	1310,70
287,24	1265,64
287,46	1239,02
287,67	1288,17
287,89	1310,70
288,10	1284,08
288,32	1265,64
288,53	1294,32
288,75	1253,36
288,96	1290,22
289,18	1273,84
289,39	1236,97
289,61	1282,03
289,82	1302,51
290,04	1290,22
290,25	1292,27
290,47	1335,28
290,68	1179,63
290,90	1226,73
291,11	1263,60
291,33	1228,78
291,54	1275,88
291,76	1337,32
291,97	1308,65
292,18	1243,12
292,40	1312,75
292,61	1234,93
292,83	1290,22
293,04	1202,16
293,26	1267,69
293,47	1320,94
293,69	1202,16
293,90	1335,28
294,12	1290,22
294,33	1333,23
294,55	1302,51
294,76	1310,70
294,97	1261,55
295,19	1294,32
295,40	1259,50
295,62	1286,12
295,83	1271,79
296,05	1294,32
296,26	1269,74
296,48	1304,56
296,69	1251,31
296,90	1296,36
297,12	1271,79
297,33	1226,73
297,55	1292,27
297,76	1234,93
297,98	1279,98
298,19	1322,99
298,41	1269,74
298,62	1322,99
298,83	1347,56
299,05	1265,64
299,26	1171,44
299,48	1259,50
299,69	1277,93
299,90	1216,49
300,12	1267,69
300,33	1247,21
300,55	1275,88
300,76	1275,88
300,98	1234,93
301,19	1347,56
301,40	1257,45
301,62	1374,19
301,83	1279,98
302,05	1253,36
302,26	1284,08
302,47	1378,28
302,69	1222,64
302,90	1331,18
303,12	1304,56
303,33	1314,80
303,54	1261,55
303,76	1257,45
303,97	1275,88
304,19	1263,60
304,40	1249,26
304,61	1253,36
304,83	1259,50
305,04	1251,31
305,26	1300,46
305,47	1255,40
305,68	1216,49
305,90	1214,45
306,11	1271,79
306,33	1292,27
306,54	1263,60
306,75	1290,22
306,97	1255,40
307,18	1300,46
307,39	1316,84
307,61	1320,94
307,82	1269,74
308,04	1284,08
308,25	1292,27
308,46	1222,64
308,68	1329,13
308,89	1275,88
309,10	1296,36
309,32	1292,27
309,53	1304,56
309,74	1279,98
309,96	1251,31
310,17	1245,16
310,39	1265,64
310,60	1347,56
310,81	1290,22
311,03	1359,85
311,24	1277,93
311,45	1249,26
311,67	1239,02
311,88	1273,84
312,09	1232,88
312,31	1267,69
312,52	1306,60
312,73	1236,97
312,95	1214,45
313,16	1322,99
313,37	1263,60
313,59	1249,26
313,80	1363,95
314,01	1286,12
314,23	1259,50
314,44	1222,64
314,65	1239,02
314,87	1310,70
315,08	1234,93
315,29	1261,55
315,51	1239,02
315,72	1322,99
315,93	1259,50
316,15	1290,22
316,36	1198,06
316,57	1279,98
316,79	1316,84
317,00	1308,65
317,21	1208,30
317,43	1249,26
317,64	1310,70
317,85	1275,88
318,07	1259,50
318,28	1271,79
318,49	1284,08
318,70	1273,84
318,92	1259,50
319,13	1300,46
319,34	1236,97
319,56	1325,04
319,77	1286,12
319,98	1241,07
320,20	1284,08
320,41	1271,79
320,62	1210,35
320,83	1279,98
321,05	1277,93
321,26	1271,79
321,47	1282,03
321,69	1222,64
321,90	1230,83
322,11	1294,32
322,32	1239,02
322,54	1261,55
322,75	1230,83
322,96	1249,26
323,18	1253,36
323,39	1255,40
323,60	1241,07
323,81	1218,54
324,03	1247,21
324,24	1286,12
324,45	1284,08
324,66	1282,03
324,88	1318,89
325,09	1308,65
325,30	1216,49
325,52	1249,26
325,73	1357,80
325,94	1189,87
326,15	1208,30
326,37	1288,17
326,58	1310,70
326,79	1316,84
327,00	1277,93
327,22	1204,21
327,43	1243,12
327,64	1331,18
327,85	1241,07
328,07	1218,54
328,28	1284,08
328,49	1261,55
328,70	1286,12
328,92	1257,45
329,13	1253,36
329,34	1304,56
329,55	1236,97
329,76	1263,60
329,98	1239,02
330,19	1331,18
330,40	1300,46
330,61	1251,31
330,83	1245,16
331,04	1222,64
331,25	1249,26
331,46	1296,36
331,68	1300,46
331,89	1296,36
332,10	1271,79
332,31	1251,31
332,52	1241,07
332,74	1243,12
332,95	1224,69
333,16	1294,32
333,37	1234,93
333,58	1320,94
333,80	1247,21
334,01	1249,26
334,22	1337,32
334,43	1329,13
334,64	1337,32
334,86	1269,74
335,07	1308,65
335,28	1288,17
335,49	1320,94
335,70	1304,56
335,92	1263,60
336,13	1234,93
336,34	1263,60
336,55	1322,99
336,76	1236,97
336,98	1263,60
337,19	1269,74
337,40	1263,60
337,61	1277,93
337,82	1306,60
338,04	1310,70
338,25	1279,98
338,46	1273,84
338,67	1296,36
338,88	1228,78
339,09	1331,18
339,31	1310,70
339,52	1304,56
339,73	1206,25
339,94	1253,36
340,15	1304,56
340,36	1243,12
340,58	1279,98
340,79	1298,41
341,00	1208,30
341,21	1310,70
341,42	1263,60
341,63	1265,64
341,85	1257,45
342,06	1236,97
342,27	1216,49
342,48	1222,64
342,69	1284,08
342,90	1257,45
343,12	1308,65
343,33	1279,98
343,54	1306,60
343,75	1298,41
343,96	1275,88
344,17	1218,54
344,38	1292,27
344,60	1255,40
344,81	1277,93
345,02	1331,18
345,23	1345,52
345,44	1253,36
345,65	1320,94
345,86	1239,02
346,07	1257,45
346,29	1255,40
346,50	1267,69
346,71	1363,95
346,92	1255,40
347,13	1290,22
347,34	1304,56
347,55	1228,78
347,76	1298,41
347,98	1310,70
348,19	1251,31
348,40	1265,64
348,61	1273,84
348,82	1273,84
349,03	1275,88
349,24	1353,71
349,45	1341,42
349,66	1263,60
349,88	1216,49
350,09	1241,07
350,30	1251,31
350,51	1241,07
350,72	1251,31
350,93	1251,31
351,14	1267,69
351,35	1257,45
351,56	1218,54
351,77	1288,17
351,99	1259,50
352,20	1290,22
352,41	1288,17
352,62	1298,41
352,83	1286,12
353,04	1284,08
353,25	1198,06
353,46	1357,80
353,67	1300,46
353,88	1163,25
354,09	1247,21
354,30	1232,88
354,52	1302,51
354,73	1292,27
354,94	1294,32
355,15	1247,21
355,36	1300,46
355,57	1241,07
355,78	1302,51
355,99	1290,22
356,20	1263,60
356,41	1239,02
356,62	1271,79
356,83	1288,17
357,04	1204,21
357,25	1359,85
357,46	1304,56
357,68	1232,88
357,89	1269,74
358,10	1228,78
358,31	1214,45
358,52	1255,40
358,73	1251,31
358,94	1273,84
359,15	1294,32
359,36	1218,54
359,57	1290,22
359,78	1261,55
359,99	1296,36
360,20	1275,88
360,41	1257,45
360,62	1318,89
360,83	1325,04
361,04	1310,70
361,25	1243,12
361,46	1275,88
361,67	1253,36
361,88	1302,51
362,09	1253,36
362,30	1273,84
362,51	1228,78
362,72	1269,74
362,93	1277,93
363,14	1368,04
363,35	1288,17
363,56	1241,07
363,78	1232,88
363,99	1232,88
364,20	1275,88
364,41	1265,64
364,62	1185,77
364,83	1302,51
365,04	1290,22
365,25	1251,31
365,46	1341,42
365,67	1292,27
365,88	1331,18
366,09	1253,36
366,30	1290,22
366,51	1230,83
366,72	1241,07
366,93	1333,23
367,14	1345,52
367,35	1308,65
367,56	1318,89
367,77	1273,84
367,98	1265,64
368,18	1249,26
368,39	1296,36
368,60	1265,64
368,81	1290,22
369,02	1247,21
369,23	1286,12
369,44	1234,93
369,65	1259,50
369,86	1282,03
370,07	1263,60
370,28	1251,31
370,49	1290,22
370,70	1265,64
370,91	1257,45
371,12	1218,54
371,33	1263,60
371,54	1226,73
371,75	1251,31
371,96	1292,27
372,17	1304,56
372,38	1296,36
372,59	1290,22
372,80	1236,97
373,01	1304,56
373,22	1249,26
373,43	1269,74
373,64	1251,31
373,85	1236,97
374,06	1286,12
374,26	1316,84
374,47	1267,69
374,68	1259,50
374,89	1345,52
375,10	1251,31
375,31	1290,22
375,52	1224,69
375,73	1259,50
375,94	1320,94
376,15	1296,36
376,36	1279,98
376,57	1337,32
376,78	1288,17
376,99	1339,37
377,20	1226,73
377,40	1300,46
377,61	1243,12
377,82	1279,98
378,03	1241,07
378,24	1255,40
378,45	1206,25
378,66	1320,94
378,87	1267,69
379,08	1257,45
379,29	1198,06
379,50	1251,31
379,71	1202,16
379,91	1288,17
380,12	1277,93
380,33	1292,27
380,54	1245,16
380,75	1329,13
380,96	1318,89
381,17	1243,12
381,38	1290,22
381,59	1370,09
381,80	1255,40
382,00	1292,27
382,21	1261,55
382,42	1339,37
382,63	1263,60
382,84	1208,30
383,05	1282,03
383,26	1212,40
383,47	1300,46
383,68	1279,98
383,88	1257,45
384,09	1271,79
384,30	1312,75
384,51	1337,32
384,72	1218,54
384,93	1288,17
385,14	1282,03
385,35	1298,41
385,55	1196,01
385,76	1325,04
385,97	1247,21
386,18	1208,30
386,39	1273,84
386,60	1218,54
386,81	1286,12
387,02	1296,36
387,22	1257,45
387,43	1259,50
387,64	1366,00
387,85	1241,07
388,06	1282,03
388,27	1341,42
388,48	1263,60
388,68	1234,93
388,89	1316,84
389,10	1306,60
389,31	1325,04
389,52	1239,02
389,73	1308,65
389,93	1228,78
390,14	1191,92
390,35	1255,40
390,56	1302,51
390,77	1277,93
390,98	1265,64
391,18	1370,09
391,39	1257,45
391,60	1263,60
391,81	1204,21
392,02	1275,88
392,23	1286,12
392,43	1253,36
392,64	1232,88
392,85	1259,50
393,06	1282,03
393,27	1327,08
393,47	1243,12
393,68	1218,54
393,89	1263,60
394,10	1335,28
394,31	1220,59
394,52	1222,64
394,72	1329,13
394,93	1259,50
395,14	1310,70
395,35	1314,80
395,56	1204,21
395,76	1314,80
395,97	1204,21
396,18	1269,74
396,39	1286,12
396,60	1202,16
396,80	1220,59
397,01	1329,13
397,22	1282,03
397,43	1370,09
397,64	1144,81
397,84	1279,98
398,05	1341,42
398,26	1277,93
398,47	1296,36
398,67	1292,27
398,88	1275,88
399,09	1214,45
399,30	1318,89
399,51	1187,82
399,71	1261,55
399,92	1263,60
400,13	1284,08
400,34	1275,88
400,54	1253,36
400,75	1298,41
400,96	1208,30
401,17	1277,93
401,37	1261,55
401,58	1279,98
401,79	1306,60
402,00	1357,80
402,21	1255,40
402,41	1314,80
402,62	1251,31
402,83	1226,73
403,04	1251,31
403,24	1249,26
403,45	1249,26
403,66	1226,73
403,87	1275,88
404,07	1288,17
404,28	1255,40
404,49	1253,36
404,70	1269,74
404,90	1294,32
405,11	1329,13
405,32	1355,76
405,52	1249,26
405,73	1241,07
405,94	1220,59
406,15	1257,45
406,35	1212,40
406,56	1351,66
406,77	1288,17
406,98	1202,16
407,18	1269,74
407,39	1288,17
407,60	1294,32
407,80	1253,36
408,01	1214,45
408,22	1347,56
408,43	1232,88
408,63	1298,41
408,84	1220,59
409,05	1265,64
409,25	1308,65
409,46	1341,42
409,67	1294,32
409,88	1198,06
410,08	1226,73
410,29	1218,54
410,50	1245,16
410,70	1261,55
410,91	1239,02
411,12	1294,32
411,32	1241,07
411,53	1298,41
411,74	1284,08
411,95	1282,03
412,15	1292,27
412,36	1290,22
412,57	1288,17
412,77	1282,03
412,98	1292,27
413,19	1314,80
413,39	1251,31
413,60	1271,79
413,81	1265,64
414,01	1335,28
414,22	1302,51
414,43	1239,02
414,63	1224,69
414,84	1310,70
415,05	1273,84
415,25	1357,80
415,46	1296,36
415,67	1263,60
415,87	1302,51
416,08	1322,99
416,29	1359,85
416,49	1286,12
416,70	1298,41
416,91	1214,45
417,11	1271,79
417,32	1261,55
417,53	1290,22
417,73	1298,41
417,94	1322,99
418,15	1322,99
418,35	1376,24
418,56	1234,93
418,77	1282,03
418,97	1216,49
419,18	1255,40
419,38	1269,74
419,59	1249,26
419,80	1222,64
420,00	1282,03
420,21	1286,12
420,42	1193,97
420,62	1318,89
420,83	1302,51
421,04	1239,02
421,24	1216,49
421,45	1277,93
421,65	1247,21
421,86	1208,30
422,07	1243,12
422,27	1185,77
422,48	1255,40
422,69	1265,64
422,89	1359,85
423,10	1286,12
423,30	1206,25
423,51	1329,13
423,72	1269,74
423,92	1314,80
424,13	1288,17
424,33	1241,07
424,54	1198,06
424,75	1245,16
424,95	1296,36
425,16	1335,28
425,36	1241,07
425,57	1269,74
425,78	1290,22
425,98	1239,02
426,19	1333,23
426,39	1310,70
426,60	1259,50
426,81	1349,61
427,01	1255,40
427,22	1312,75
427,42	1208,30
427,63	1306,60
427,83	1282,03
428,04	1232,88
428,25	1296,36
428,45	1322,99
428,66	1261,55
428,86	1273,84
429,07	1277,93
429,28	1251,31
429,48	1253,36
429,69	1282,03
429,89	1263,60
430,10	1220,59
430,30	1251,31
430,51	1232,88
430,71	1230,83
430,92	1306,60
431,13	1298,41
431,33	1234,93
431,54	1339,37
431,74	1253,36
431,95	1224,69
432,15	1263,60
432,36	1241,07
432,56	1228,78
432,77	1292,27
432,98	1310,70
433,18	1320,94
433,39	1282,03
433,59	1304,56
433,80	1273,84
434,00	1216,49
434,21	1253,36
434,41	1320,94
434,62	1265,64
434,82	1193,97
435,03	1261,55
435,23	1318,89
435,44	1236,97
435,64	1222,64
435,85	1288,17
436,06	1265,64
436,26	1210,35
436,47	1331,18
436,67	1265,64
436,88	1273,84
437,08	1314,80
437,29	1325,04
437,49	1214,45
437,70	1273,84
437,90	1282,03
438,11	1269,74
438,31	1325,04
438,52	1290,22
438,72	1232,88
438,93	1232,88
439,13	1290,22
439,34	1243,12
439,54	1210,35
439,75	1329,13
439,95	1282,03
440,16	1286,12
440,36	1212,40
440,57	1253,36
440,77	1314,80
440,98	1277,93
441,18	1275,88
441,39	1298,41
441,59	1316,84
441,80	1277,93
442,00	1267,69
442,21	1316,84
442,41	1245,16
442,62	1210,35
442,82	1292,27
443,02	1259,50
443,23	1251,31
443,43	1329,13
443,64	1275,88
443,84	1230,83
444,05	1245,16
444,25	1224,69
444,46	1265,64
444,66	1245,16
444,87	1292,27
445,07	1298,41
445,28	1255,40
445,48	1290,22
445,69	1279,98
445,89	1355,76
446,09	1271,79
446,30	1322,99
446,50	1239,02
446,71	1314,80
446,91	1318,89
447,12	1228,78
447,32	1249,26
447,53	1257,45
447,73	1345,52
447,93	1185,77
448,14	1282,03
448,34	1275,88
448,55	1261,55
448,75	1214,45
448,96	1206,25
449,16	1312,75
449,36	1224,69
449,57	1210,35
449,77	1275,88
449,98	1251,31
450,18	1271,79
450,39	1269,74
450,59	1298,41
450,79	1294,32
451,00	1245,16
451,20	1210,35
451,41	1263,60
451,61	1306,60
451,81	1304,56
452,02	1320,94
452,22	1216,49
452,43	1212,40
452,63	1257,45
452,84	1183,73
453,04	1325,04
453,24	1273,84
453,45	1288,17
453,65	1298,41
453,86	1234,93
454,06	1259,50
454,26	1314,80
454,47	1214,45
454,67	1232,88
454,87	1239,02
455,08	1265,64
455,28	1243,12
455,49	1255,40
455,69	1261,55
455,89	1257,45
456,10	1150,96
456,30	1257,45
456,51	1273,84
456,71	1335,28
456,91	1286,12
457,12	1202,16
457,32	1277,93
457,52	1288,17
457,73	1304,56
457,93	1312,75
458,14	1232,88
458,34	1265,64
458,54	1286,12
458,75	1277,93
458,95	1257,45
459,15	1314,80
459,36	1247,21
459,56	1325,04
459,76	1232,88
459,97	1181,68
460,17	1230,83
460,37	1236,97
460,58	1271,79
460,78	1335,28
460,99	1200,11
461,19	1296,36
461,39	1220,59
461,60	1314,80
461,80	1279,98
462,00	1241,07
462,21	1300,46
462,41	1191,92
462,61	1239,02
462,82	1279,98
463,02	1267,69
463,22	1282,03
463,43	1247,21
463,63	1255,40
463,83	1247,21
464,04	1226,73
464,24	1243,12
464,44	1333,23
464,64	1306,60
464,85	1304,56
465,05	1241,07
465,25	1236,97
465,46	1239,02
465,66	1236,97
465,86	1290,22
466,07	1224,69
466,27	1267,69
466,47	1241,07
466,68	1284,08
466,88	1230,83
467,08	1322,99
467,29	1255,40
467,49	1253,36
467,69	1335,28
467,89	1271,79
468,10	1327,08
468,30	1257,45
468,50	1308,65
468,71	1314,80
468,91	1134,57
469,11	1228,78
469,31	1243,12
469,52	1312,75
469,72	1273,84
469,92	1290,22
470,13	1284,08
470,33	1255,40
470,53	1230,83
470,73	1271,79
470,94	1290,22
471,14	1171,44
471,34	1312,75
471,54	1327,08
471,75	1271,79
471,95	1304,56
472,15	1224,69
472,36	1273,84
472,56	1298,41
472,76	1339,37
472,96	1236,97
473,17	1222,64
473,37	1320,94
473,57	1310,70
473,77	1230,83
473,98	1277,93
474,18	1279,98
474,38	1306,60
474,58	1296,36
474,79	1267,69
474,99	1245,16
475,19	1187,82
475,39	1355,76
475,60	1284,08
475,80	1339,37
476,00	1200,11
476,20	1226,73
476,41	1269,74
476,61	1259,50
476,81	1267,69
477,01	1228,78
477,21	1318,89
477,42	1306,60
477,62	1249,26
477,82	1261,55
478,02	1304,56
478,23	1267,69
478,43	1255,40
478,63	1232,88
478,83	1290,22
479,03	1296,36
479,24	1282,03
479,44	1304,56
479,64	1286,12
479,84	1265,64
480,04	1261,55
480,25	1292,27
480,45	1230,83
480,65	1265,64
480,85	1308,65
481,06	1265,64
481,26	1230,83
481,46	1269,74
481,66	1241,07
481,86	1210,35
482,06	1269,74
482,27	1304,56
482,47	1279,98
482,67	1288,17
482,87	1249,26
483,07	1286,12
483,28	1263,60
483,48	1271,79
483,68	1255,40
483,88	1290,22
484,08	1226,73
484,29	1261,55
484,49	1277,93
484,69	1286,12
484,89	1200,11
485,09	1212,40
485,29	1282,03
485,50	1306,60
485,70	1243,12
485,90	1259,50
486,10	1290,22
486,30	1220,59
486,50	1288,17
486,71	1275,88
486,91	1269,74
487,11	1282,03
487,31	1226,73
487,51	1243,12
487,71	1234,93
487,91	1241,07
488,12	1284,08
488,32	1265,64
488,52	1288,17
488,72	1310,70
488,92	1273,84
489,12	1286,12
489,32	1308,65
489,53	1316,84
489,73	1296,36
489,93	1161,20
490,13	1327,08
490,33	1294,32
490,53	1216,49
490,73	1267,69
490,94	1226,73
491,14	1306,60
491,34	1257,45
491,54	1257,45
491,74	1255,40
491,94	1275,88
492,14	1267,69
492,34	1279,98
492,54	1357,80
492,75	1220,59
492,95	1187,82
493,15	1271,79
493,35	1169,39
493,55	1288,17
493,75	1279,98
493,95	1193,97
494,15	1257,45
494,35	1243,12
494,56	1220,59
494,76	1331,18
494,96	1216,49
495,16	1282,03
495,36	1284,08
495,56	1193,97
495,76	1234,93
495,96	1259,50
496,16	1239,02
496,36	1302,51
496,56	1208,30
496,77	1255,40
496,97	1187,82
497,17	1239,02
497,37	1333,23
497,57	1220,59
497,77	1249,26
497,97	1306,60
498,17	1302,51
498,37	1294,32
498,57	1314,80
498,77	1265,64
498,97	1286,12
499,17	1279,98
499,38	1318,89
499,58	1361,90
499,78	1218,54
499,98	1271,79
500,18	1220,59
500,38	1316,84
500,58	1253,36
500,78	1185,77
500,98	1370,09
501,18	1269,74
501,38	1196,01
501,58	1282,03
501,78	1290,22
501,98	1196,01
502,18	1296,36
502,38	1257,45
502,58	1279,98
502,78	1226,73
502,98	1183,73
503,18	1253,36
503,38	1308,65
503,59	1282,03
503,79	1239,02
503,99	1312,75
504,19	1196,01
504,39	1279,98
504,59	1288,17
504,79	1243,12
504,99	1245,16
505,19	1288,17
505,39	1271,79
505,59	1302,51
505,79	1284,08
505,99	1253,36
506,19	1249,26
506,39	1273,84
506,59	1290,22
506,79	1284,08
506,99	1370,09
507,19	1236,97
507,39	1239,02
507,59	1239,02
507,79	1296,36
507,99	1245,16
508,19	1214,45
508,39	1337,32
508,59	1179,63
508,79	1331,18
508,99	1335,28
509,19	1167,34
509,39	1239,02
509,59	1351,66
509,79	1273,84
509,99	1341,42
510,19	1282,03
510,39	1288,17
510,59	1261,55
510,79	1279,98
510,99	1273,84
511,19	1216,49
511,39	1294,32
511,59	1310,70
511,79	1277,93
511,99	1247,21
512,19	1320,94
512,38	1300,46
512,58	1271,79
512,78	1316,84
512,98	1267,69
513,18	1290,22
513,38	1232,88
513,58	1320,94
513,78	1308,65
513,98	1296,36
514,18	1279,98
514,38	1267,69
514,58	1230,83
514,78	1257,45
514,98	1265,64
515,18	1271,79
515,38	1325,04
515,58	1273,84
515,78	1300,46
515,98	1247,21
516,18	1290,22
516,38	1306,60
516,57	1214,45
516,77	1318,89
516,97	1247,21
517,17	1269,74
517,37	1253,36
517,57	1261,55
517,77	1284,08
517,97	1296,36
518,17	1290,22
518,37	1214,45
518,57	1308,65
518,77	1284,08
518,97	1206,25
519,16	1296,36
519,36	1230,83
519,56	1241,07
519,76	1320,94
519,96	1288,17
520,16	1241,07
520,36	1271,79
520,56	1298,41
520,76	1284,08
520,96	1314,80
521,16	1279,98
521,35	1253,36
521,55	1318,89
521,75	1204,21
521,95	1347,56
522,15	1292,27
522,35	1322,99
522,55	1284,08
522,75	1318,89
522,95	1273,84
523,14	1222,64
523,34	1261,55
523,54	1316,84
523,74	1290,22
523,94	1265,64
524,14	1294,32
524,34	1292,27
524,54	1257,45
524,73	1263,60
524,93	1275,88
525,13	1220,59
525,33	1249,26
525,53	1279,98
525,73	1316,84
525,93	1226,73
526,13	1167,34
526,32	1345,52
526,52	1191,92
526,72	1253,36
526,92	1359,85
527,12	1251,31
527,32	1210,35
527,52	1298,41
527,71	1191,92
527,91	1206,25
528,11	1247,21
528,31	1239,02
528,51	1267,69
528,71	1228,78
528,90	1261,55
529,10	1316,84
529,30	1218,54
529,50	1259,50
529,70	1271,79
529,90	1253,36
530,09	1218,54
530,29	1318,89
530,49	1249,26
530,69	1288,17
530,89	1271,79
531,09	1265,64
531,28	1288,17
531,48	1249,26
531,68	1253,36
531,88	1230,83
532,08	1257,45
532,28	1273,84
532,47	1255,40
532,67	1331,18
532,87	1212,40
533,07	1224,69
533,27	1257,45
533,46	1302,51
533,66	1249,26
533,86	1288,17
534,06	1236,97
534,26	1273,84
534,45	1277,93
534,65	1312,75
534,85	1322,99
535,05	1277,93
535,25	1253,36
535,44	1222,64
535,64	1265,64
535,84	1300,46
536,04	1310,70
536,24	1234,93
536,43	1269,74
536,63	1292,27
536,83	1243,12
537,03	1314,80
537,22	1282,03
537,42	1232,88
537,62	1286,12
537,82	1282,03
538,02	1355,76
538,21	1378,28
538,41	1290,22
538,61	1241,07
538,81	1304,56
539,00	1269,74
539,20	1308,65
539,40	1193,97
539,60	1271,79
539,79	1288,17
539,99	1284,08
540,19	1224,69
540,39	1294,32
540,58	1265,64
540,78	1218,54
540,98	1273,84
541,18	1267,69
541,37	1296,36
541,57	1234,93
541,77	1296,36
541,97	1357,80
542,16	1300,46
542,36	1230,83
542,56	1277,93
542,76	1269,74
542,95	1312,75
543,15	1271,79
543,35	1292,27
543,54	1259,50
543,74	1247,21
543,94	1251,31
544,14	1320,94
544,33	1316,84
544,53	1232,88
544,73	1243,12
544,93	1294,32
545,12	1322,99
545,32	1222,64
545,52	1290,22
545,71	1286,12
545,91	1245,16
546,11	1312,75
546,30	1224,69
546,50	1310,70
546,70	1294,32
546,90	1241,07
547,09	1257,45
547,29	1331,18
547,49	1290,22
547,68	1255,40
547,88	1271,79
548,08	1277,93
548,27	1331,18
548,47	1273,84
548,67	1290,22
548,87	1318,89
549,06	1259,50
549,26	1241,07
549,46	1298,41
549,65	1273,84
549,85	1228,78
550,05	1316,84
550,24	1222,64
550,44	1251,31
550,64	1345,52
550,83	1322,99
551,03	1314,80
551,23	1282,03
551,42	1302,51
551,62	1255,40
551,82	1300,46
552,01	1296,36
552,21	1302,51
552,41	1259,50
552,60	1277,93
552,80	1249,26
553,00	1263,60
553,19	1210,35
553,39	1277,93
553,59	1288,17
553,78	1273,84
553,98	1212,40
554,17	1294,32
554,37	1222,64
554,57	1269,74
554,76	1216,49
554,96	1230,83
555,16	1210,35
555,35	1263,60
555,55	1220,59
555,75	1277,93
555,94	1282,03
556,14	1316,84
556,33	1249,26
556,53	1265,64
556,73	1294,32
556,92	1302,51
557,12	1286,12
557,32	1298,41
557,51	1267,69
557,71	1230,83
557,90	1257,45
558,10	1261,55
558,30	1267,69
558,49	1296,36
558,69	1273,84
558,88	1294,32
559,08	1286,12
559,28	1241,07
559,47	1277,93
559,67	1267,69
559,86	1298,41
560,06	1263,60
560,26	1212,40
560,45	1265,64
560,65	1214,45
560,84	1232,88
561,04	1288,17
561,24	1257,45
561,43	1296,36
561,63	1327,08
561,82	1224,69
562,02	1310,70
562,22	1249,26
562,41	1318,89
562,61	1288,17
562,80	1253,36
563,00	1318,89
563,19	1273,84
563,39	1308,65
563,59	1228,78
563,78	1306,60
563,98	1271,79
564,17	1253,36
564,37	1263,60
564,56	1294,32
564,76	1282,03
564,96	1286,12
565,15	1304,56
565,35	1327,08
565,54	1198,06
565,74	1327,08
565,93	1249,26
566,13	1290,22
566,32	1269,74
566,52	1316,84
566,71	1290,22
566,91	1286,12
567,11	1271,79
567,30	1273,84
567,50	1308,65
567,69	1259,50
567,89	1243,12
568,08	1265,64
568,28	1273,84
568,47	1253,36
568,67	1327,08
568,86	1290,22
569,06	1236,97
569,25	1290,22
569,45	1312,75
569,64	1263,60
569,84	1277,93
570,04	1290,22
570,23	1257,45
570,43	1374,19
570,62	1253,36
570,82	1294,32
571,01	1339,37
571,21	1253,36
571,40	1335,28
571,60	1318,89
571,79	1224,69
571,99	1245,16
572,18	1255,40
572,38	1298,41
572,57	1282,03
572,77	1335,28
572,96	1275,88
573,16	1298,41
573,35	1259,50
573,55	1259,50
573,74	1290,22
573,94	1216,49
574,13	1308,65
574,33	1312,75
574,52	1271,79
574,71	1253,36
574,91	1249,26
575,10	1294,32
575,30	1275,88
575,49	1230,83
575,69	1308,65
575,88	1329,13
576,08	1245,16
576,27	1318,89
576,47	1292,27
576,66	1322,99
576,86	1230,83
577,05	1302,51
577,25	1255,40
577,44	1296,36
577,64	1267,69
577,83	1343,47
578,02	1275,88
578,22	1296,36
578,41	1333,23
578,61	1294,32
578,80	1269,74
579,00	1304,56
579,19	1236,97
579,39	1294,32
579,58	1249,26
579,77	1269,74
579,97	1292,27
580,16	1216,49
580,36	1267,69
580,55	1294,32
580,75	1296,36
580,94	1279,98
581,13	1331,18
581,33	1282,03
581,52	1253,36
581,72	1253,36
581,91	1279,98
582,11	1273,84
582,30	1220,59
582,49	1263,60
582,69	1302,51
582,88	1316,84
583,08	1257,45
583,27	1275,88
583,47	1247,21
583,66	1263,60
583,85	1275,88
584,05	1282,03
584,24	1277,93
584,44	1288,17
584,63	1335,28
584,82	1218,54
585,02	1320,94
585,21	1337,32
585,41	1286,12
585,60	1234,93
585,79	1282,03
585,99	1298,41
586,18	1337,32
586,37	1339,37
586,57	1212,40
586,76	1327,08
586,96	1269,74
587,15	1253,36
587,34	1269,74
587,54	1271,79
587,73	1277,93
587,93	1236,97
588,12	1325,04
588,31	1325,04
588,51	1251,31
588,70	1234,93
588,89	1296,36
589,09	1327,08
589,28	1294,32
589,47	1273,84
589,67	1236,97
589,86	1255,40
590,06	1312,75
590,25	1249,26
590,44	1249,26
590,64	1267,69
590,83	1335,28
591,02	1241,07
591,22	1247,21
591,41	1208,30
591,60	1347,56
591,80	1247,21
591,99	1312,75
592,18	1255,40
592,38	1347,56
592,57	1304,56
592,76	1298,41
592,96	1290,22
593,15	1279,98
593,34	1236,97
593,54	1267,69
593,73	1267,69
593,92	1261,55
594,12	1196,01
594,31	1193,97
594,50	1228,78
594,70	1294,32
594,89	1239,02
595,08	1263,60
595,28	1193,97
595,47	1259,50
595,66	1271,79
595,86	1255,40
596,05	1261,55
596,24	1320,94
596,43	1249,26
596,63	1277,93
596,82	1314,80
597,01	1255,40
597,21	1273,84
597,40	1275,88
597,59	1331,18
597,79	1261,55
597,98	1292,27
598,17	1288,17
598,36	1212,40
598,56	1318,89
598,75	1304,56
598,94	1239,02
599,14	1273,84
599,33	1294,32
599,52	1245,16
599,71	1193,97
599,91	1241,07
600,10	1298,41
600,29	1247,21
600,48	1335,28
600,68	1267,69
600,87	1173,49
601,06	1261,55
601,26	1279,98
601,45	1279,98
601,64	1228,78
601,83	1310,70
602,03	1312,75
602,22	1296,36
602,41	1267,69
602,60	1259,50
602,80	1333,23
602,99	1337,32
603,18	1249,26
603,37	1267,69
603,57	1245,16
603,76	1263,60
603,95	1265,64
604,14	1279,98
604,34	1267,69
604,53	1292,27
604,72	1198,06
604,91	1288,17
605,10	1314,80
605,30	1363,95
605,49	1204,21
605,68	1345,52
605,87	1273,84
606,07	1282,03
606,26	1243,12
606,45	1257,45
606,64	1355,76
606,84	1329,13
607,03	1202,16
607,22	1253,36
607,41	1333,23
607,60	1275,88
607,80	1298,41
607,99	1282,03
608,18	1325,04
608,37	1316,84
608,56	1314,80
608,76	1279,98
608,95	1271,79
609,14	1277,93
609,33	1279,98
609,52	1241,07
609,72	1216,49
609,91	1253,36
610,10	1294,32
610,29	1279,98
610,48	1296,36
610,68	1277,93
610,87	1277,93
611,06	1263,60
611,25	1265,64
611,44	1245,16
611,63	1212,40
611,83	1257,45
612,02	1263,60
612,21	1304,56
612,40	1222,64
612,59	1322,99
612,79	1261,55
612,98	1284,08
613,17	1198,06
613,36	1253,36
613,55	1239,02
613,74	1177,58
613,93	1251,31
614,13	1263,60
614,32	1294,32
614,51	1267,69
614,70	1298,41
614,89	1337,32
615,08	1251,31
615,28	1300,46
615,47	1279,98
615,66	1277,93
615,85	1255,40
616,04	1232,88
616,23	1312,75
616,42	1296,36
616,62	1275,88
616,81	1351,66
617,00	1273,84
617,19	1259,50
617,38	1275,88
617,57	1245,16
617,76	1267,69
617,95	1247,21
618,15	1347,56
618,34	1251,31
618,53	1290,22
618,72	1370,09
618,91	1263,60
619,10	1288,17
619,29	1277,93
619,48	1310,70
619,68	1282,03
619,87	1236,97
620,06	1284,08
620,25	1282,03
620,44	1290,22
620,63	1277,93
620,82	1318,89
621,01	1273,84
621,20	1286,12
621,39	1292,27
621,59	1220,59
621,78	1318,89
621,97	1255,40
622,16	1306,60
622,35	1263,60
622,54	1241,07
622,73	1320,94
622,92	1228,78
623,11	1314,80
623,30	1325,04
623,49	1275,88
623,68	1218,54
623,88	1230,83
624,07	1263,60
624,26	1249,26
624,45	1335,28
624,64	1222,64
624,83	1189,87
625,02	1259,50
625,21	1251,31
625,40	1310,70
625,59	1298,41
625,78	1288,17
625,97	1298,41
626,16	1267,69
626,35	1214,45
626,54	1269,74
626,74	1337,32
626,93	1329,13
627,12	1339,37
627,31	1286,12
627,50	1216,49
627,69	1271,79
627,88	1296,36
628,07	1300,46
628,26	1294,32
628,45	1290,22
628,64	1284,08
628,83	1247,21
629,02	1310,70
629,21	1298,41
629,40	1251,31
629,59	1318,89
629,78	1370,09
629,97	1302,51
630,16	1314,80
630,35	1298,41
630,54	1310,70
630,73	1275,88
630,92	1300,46
631,11	1228,78
631,30	1284,08
631,49	1335,28
631,68	1363,95
631,87	1769,44
632,06	2605,02
632,25	2643,93
632,44	3889,09
632,63	5326,77
632,82	9500,53
633,01	20608,71
633,20	22142,64
633,39	21520,06
633,58	16301,83
633,77	9871,21
633,96	4876,21
634,15	2932,69
634,34	2238,43
634,53	2140,13
634,72	2039,78
634,91	1984,48
635,10	1996,77
635,29	1841,12
635,48	1757,16
635,67	1720,29
635,86	1656,81
636,05	1583,08
636,24	1533,93
636,43	1392,62
636,62	1325,04
636,81	1378,28
637,00	1329,13
637,19	1353,71
637,38	1351,66
637,57	1282,03
637,76	1273,84
637,95	1341,42
638,14	1413,10
638,33	1243,12
638,52	1300,46
638,71	1253,36
638,89	1298,41
639,08	1331,18
639,27	1253,36
639,46	1343,47
639,65	1314,80
639,84	1249,26
640,03	1361,90
640,22	1284,08
640,41	1300,46
640,60	1269,74
640,79	1263,60
640,98	1306,60
641,17	1261,55
641,36	1257,45
641,55	1243,12
641,74	1304,56
641,92	1277,93
642,11	1251,31
642,30	1269,74
642,49	1294,32
642,68	1234,93
642,87	1273,84
643,06	1296,36
643,25	1316,84
643,44	1245,16
643,63	1273,84
643,82	1273,84
644,00	1273,84
644,19	1286,12
644,38	1284,08
644,57	1275,88
644,76	1275,88
644,95	1306,60
645,14	1253,36
645,33	1275,88
645,52	1265,64
645,71	1286,12
645,89	1329,13
646,08	1290,22
646,27	1327,08
646,46	1339,37
646,65	1284,08
646,84	1298,41
647,03	1265,64
647,22	1269,74
647,40	1355,76
647,59	1261,55
647,78	1288,17
647,97	1304,56
648,16	1275,88
648,35	1318,89
648,54	1331,18
648,73	1337,32
648,91	1230,83
649,10	1286,12
649,29	1286,12
649,48	1318,89
649,67	1267,69
649,86	1257,45
650,05	1259,50
650,23	1304,56
650,42	1239,02
650,61	1292,27
650,80	1259,50
650,99	1189,87
651,18	1271,79
651,36	1232,88
651,55	1257,45
651,74	1343,47
651,93	1251,31
652,12	1286,12
652,31	1275,88
652,49	1306,60
652,68	1173,49
652,87	1322,99
653,06	1253,36
653,25	1294,32
653,44	1261,55
653,62	1247,21
653,81	1224,69
654,00	1294,32
654,19	1212,40
654,38	1273,84
654,56	1282,03
654,75	1228,78
654,94	1286,12
655,13	1308,65
655,32	1300,46
655,51	1224,69
655,69	1226,73
655,88	1312,75
656,07	1327,08
656,26	1302,51
656,45	1253,36
656,63	1288,17
656,82	1298,41
657,01	1284,08
657,20	1206,25
657,38	1282,03
657,57	1312,75
657,76	1298,41
657,95	1241,07
658,14	1304,56
658,32	1288,17
658,51	1226,73
658,70	1228,78
658,89	1249,26
659,08	1277,93
659,26	1269,74
659,45	1275,88
659,64	1331,18
659,83	1269,74
660,01	1290,22
660,20	1265,64
660,39	1249,26
660,58	1308,65
660,76	1282,03
660,95	1208,30
661,14	1239,02
661,33	1284,08
661,51	1251,31
661,70	1245,16
661,89	1282,03
662,08	1239,02
662,26	1322,99
662,45	1271,79
662,64	1275,88
662,83	1234,93
663,01	1298,41
663,20	1296,36
663,39	1216,49
663,58	1234,93
663,76	1302,51
663,95	1243,12
664,14	1245,16
664,32	1255,40
664,51	1245,16
664,70	1239,02
664,89	1243,12
665,07	1261,55
665,26	1241,07
665,45	1263,60
665,64	1243,12
665,82	1236,97
666,01	1247,21
666,20	1212,40
666,38	1312,75
666,57	1294,32
666,76	1312,75
666,95	1251,31
667,13	1249,26
667,32	1247,21
667,51	1347,56
667,69	1290,22
667,88	1198,06
668,07	1261,55
668,25	1341,42
668,44	1255,40
668,63	1261,55
668,81	1290,22
669,00	1290,22
669,19	1314,80
669,38	1282,03
669,56	1277,93
669,75	1247,21
669,94	1333,23
670,12	1290,22
670,31	1224,69
670,50	1290,22
670,68	1265,64
670,87	1257,45
671,06	1236,97
671,24	1232,88
671,43	1314,80
671,62	1271,79
671,80	1277,93
671,99	1298,41
672,18	1290,22
672,36	1224,69
672,55	1290,22
672,74	1284,08
672,92	1259,50
673,11	1314,80
673,29	1279,98
673,48	1269,74
673,67	1239,02
673,85	1247,21
674,04	1257,45
674,23	1304,56
674,41	1329,13
674,60	1292,27
674,79	1232,88
674,97	1265,64
675,16	1257,45
675,34	1232,88
675,53	1325,04
675,72	1206,25
675,90	1218,54
676,09	1249,26
676,28	1261,55
676,46	1218,54
676,65	1241,07
676,83	1320,94
677,02	1282,03
677,21	1263,60
677,39	1279,98
677,58	1249,26
677,77	1232,88
677,95	1236,97
678,14	1267,69
678,32	1339,37
678,51	1261,55
678,70	1253,36
678,88	1282,03
679,07	1271,79
679,25	1224,69
679,44	1247,21
679,63	1232,88
679,81	1298,41
680,00	1290,22
680,18	1259,50
680,37	1255,40
680,55	1239,02
680,74	1181,68
680,93	1222,64
681,11	1300,46
681,30	1312,75
681,48	1273,84
681,67	1327,08
681,85	1314,80
682,04	1290,22
682,23	1220,59
682,41	1261,55
682,60	1271,79
682,78	1261,55
682,97	1269,74
683,15	1269,74
683,34	1273,84
683,53	1257,45
683,71	1224,69
683,90	1267,69
684,08	1214,45
684,27	1224,69
684,45	1261,55
684,64	1249,26
684,82	1271,79
685,01	1392,62
685,19	1243,12
685,38	1282,03
685,57	1222,64
685,75	1247,21
685,94	1265,64
686,12	1257,45
686,31	1271,79
686,49	1259,50
686,68	1257,45
686,86	1284,08
687,05	1257,45
687,23	1247,21
687,42	1261,55
687,60	1245,16
687,79	1284,08
687,97	1271,79
688,16	1224,69
688,34	1288,17
688,53	1286,12
688,71	1247,21
688,90	1251,31
689,08	1275,88
689,27	1329,13
689,45	1234,93
689,64	1310,70
689,82	1269,74
690,01	1243,12
690,19	1218,54
690,38	1302,51
690,56	1265,64
690,75	1304,56
690,93	1269,74
691,12	1306,60
691,30	1296,36
691,49	1241,07
691,67	1259,50
691,86	1306,60
692,04	1208,30
692,23	1249,26
692,41	1251,31
692,60	1316,84
692,78	1218,54
692,97	1277,93
693,15	1288,17
693,34	1310,70
693,52	1193,97
693,71	1253,36
693,89	1271,79
694,08	1155,05
694,26	1267,69
694,44	1187,82
694,63	1269,74
694,81	1284,08
695,00	1273,84
695,18	1306,60
695,37	1343,47
695,55	1318,89
695,74	1279,98
695,92	1277,93
696,10	1257,45
696,29	1345,52
696,47	1269,74
696,66	1259,50
696,84	1310,70
697,03	1269,74
697,21	1300,46
697,40	1294,32
697,58	1267,69
697,76	1236,97
697,95	1218,54
698,13	1292,27
698,32	1310,70
698,50	1337,32
698,68	1232,88
698,87	1312,75
699,05	1318,89
699,24	1296,36
699,42	1300,46
699,61	1263,60
699,79	1247,21
699,97	1329,13
700,16	1298,41
700,34	1232,88
700,53	1304,56
700,71	1333,23
700,89	1249,26
701,08	1263,60
701,26	1314,80
701,45	1294,32
701,63	1282,03
701,81	1306,60
702,00	1255,40
702,18	1228,78
702,37	1292,27
702,55	1200,11
702,73	1249,26
702,92	1247,21
703,10	1306,60
703,28	1271,79
703,47	1255,40
703,65	1292,27
703,84	1329,13
704,02	1308,65
704,20	1288,17
704,39	1241,07
704,57	1269,74
704,75	1249,26
704,94	1331,18
705,12	1273,84
705,30	1277,93
705,49	1290,22
705,67	1222,64
705,86	1245,16
706,04	1310,70
706,22	1325,04
706,41	1234,93
706,59	1206,25
706,77	1228,78
706,96	1279,98
707,14	1337,32
707,32	1220,59
707,51	1275,88
707,69	1298,41
707,87	1277,93
708,06	1322,99
708,24	1267,69
708,42	1204,21
708,61	1232,88
708,79	1310,70
708,97	1327,08
709,16	1296,36
709,34	1277,93
709,52	1247,21
709,71	1253,36
709,89	1267,69
710,07	1247,21
710,26	1150,96
710,44	1322,99
710,62	1265,64
710,80	1329,13
710,99	1253,36
711,17	1331,18
711,35	1239,02
711,54	1239,02
711,72	1200,11
711,90	1284,08
712,09	1257,45
712,27	1329,13
712,45	1255,40
712,63	1208,30
712,82	1257,45
713,00	1245,16
713,18	1257,45
713,37	1312,75
713,55	1222,64
713,73	1294,32
713,91	1251,31
714,10	1253,36
714,28	1277,93
714,46	1318,89
714,65	1286,12
714,83	1253,36
715,01	1193,97
715,19	1282,03
715,38	1275,88
715,56	1337,32
715,74	1314,80
715,92	1273,84
716,11	1339,37
716,29	1247,21
716,47	1249,26
716,65	1347,56
716,84	1198,06
717,02	1263,60
717,20	1275,88
717,38	1245,16
717,57	1261,55
717,75	1296,36
717,93	1253,36
718,11	1159,15
718,30	1314,80
718,48	1314,80
718,66	1222,64
718,84	1251,31
719,03	1273,84
719,21	1288,17
719,39	1224,69
719,57	1312,75
719,75	1296,36
719,94	1259,50
720,12	1300,46
720,30	1249,26
720,48	1259,50
720,67	1239,02
720,85	1351,66
721,03	1206,25
721,21	1310,70
721,39	1331,18
721,58	1271,79
721,76	1296,36
721,94	1327,08
722,12	1302,51
722,30	1325,04
722,49	1304,56
722,67	1212,40
722,85	1234,93
723,03	1230,83
723,21	1304,56
723,40	1202,16
723,58	1249,26
723,76	1290,22
723,94	1296,36
724,12	1183,73
724,30	1261,55
724,49	1286,12
724,67	1236,97
724,85	1277,93
725,03	1241,07
725,21	1261,55
725,40	1193,97
725,58	1239,02
725,76	1306,60
725,94	1253,36
726,12	1306,60
726,30	1273,84
726,49	1273,84
726,67	1263,60
726,85	1234,93
727,03	1265,64
727,21	1322,99
727,39	1228,78
727,57	1253,36
727,76	1343,47
727,94	1273,84
728,12	1300,46
728,30	1257,45
728,48	1249,26
728,66	1284,08
728,84	1241,07
729,03	1327,08
729,21	1308,65
729,39	1406,95
729,57	1251,31
729,75	1302,51
729,93	1239,02
730,11	1257,45
730,30	1331,18
730,48	1277,93
730,66	1277,93
730,84	1320,94
731,02	1224,69
731,20	1216,49
731,38	1253,36
731,56	1253,36
731,74	1304,56
731,93	1304,56
732,11	1247,21
732,29	1290,22
732,47	1269,74
732,65	1257,45
732,83	1232,88
733,01	1353,71
733,19	1304,56
733,37	1312,75
733,56	1271,79
733,74	1325,04
733,92	1316,84
734,10	1288,17
734,28	1337,32
734,46	1322,99
734,64	1271,79
734,82	1275,88
735,00	1261,55
735,18	1296,36
735,36	1210,35
735,54	1306,60
735,73	1302,51
735,91	1253,36
736,09	1290,22
736,27	1261,55
736,45	1253,36
736,63	1310,70
736,81	1255,40
736,99	1220,59
737,17	1234,93
737,35	1318,89
737,53	1259,50
737,71	1245,16
737,89	1284,08
738,07	1296,36
738,25	1206,25
738,43	1241,07
738,61	1302,51
738,80	1292,27
738,98	1257,45
739,16	1312,75
739,34	1251,31
739,52	1263,60
739,70	1222,64
739,88	1269,74
740,06	1282,03
740,24	1241,07
740,42	1263,60
740,60	1320,94
740,78	1243,12
740,96	1286,12
741,14	1255,40
741,32	1245,16
741,50	1228,78
741,68	1275,88
741,86	1247,21
742,04	1286,12
742,22	1288,17
742,40	1265,64
742,58	1275,88
742,76	1331,18
742,94	1263,60
743,12	1265,64
743,30	1265,64
743,48	1327,08
743,66	1255,40
743,84	1269,74
744,02	1275,88
744,20	1331,18
744,38	1247,21
744,56	1257,45
744,74	1267,69
744,92	1286,12
745,10	1222,64
745,28	1273,84
745,46	1267,69
745,64	1331,18
745,82	1267,69
746,00	1290,22
746,18	1290,22
746,36	1259,50
746,54	1230,83
746,72	1302,51
746,90	1320,94
747,08	1292,27
747,26	1370,09
747,44	1296,36
747,62	1247,21
747,80	1222,64
747,98	1232,88
748,15	1265,64
748,33	1275,88
748,51	1220,59
748,69	1314,80
748,87	1275,88
749,05	1243,12
749,23	1185,77
749,41	1298,41
749,59	1247,21
749,77	1200,11
749,95	1247,21
750,13	1261,55
750,31	1271,79
750,49	1263,60
750,67	1265,64
750,85	1308,65
751,03	1273,84
751,20	1282,03
751,38	1308,65
751,56	1267,69
751,74	1327,08
751,92	1277,93
752,10	1304,56
752,28	1187,82
752,46	1241,07
752,64	1296,36
752,82	1343,47
753,00	1247,21
753,18	1273,84
753,35	1234,93
753,53	1286,12
753,71	1245,16
753,89	1257,45
754,07	1208,30
754,25	1232,88
754,43	1212,40
754,61	1196,01
754,79	1265,64
754,97	1261,55
755,14	1241,07
755,32	1169,39
755,50	1255,40
755,68	1368,04
755,86	1284,08
756,04	1241,07
756,22	1230,83
756,40	1284,08
756,57	1298,41
756,75	1341,42
756,93	1243,12
757,11	1277,93
757,29	1241,07
757,47	1210,35
757,65	1271,79
757,82	1368,04
758,00	1310,70
758,18	1314,80
758,36	1165,29
758,54	1232,88
758,72	1284,08
758,90	1247,21
759,07	1312,75
759,25	1259,50
759,43	1228,78
759,61	1228,78
759,79	1277,93
759,97	1296,36
760,15	1279,98
760,32	1337,32
760,50	1165,29
760,68	1312,75
760,86	1302,51
761,04	1228,78
761,22	1183,73
761,39	1359,85
761,57	1318,89
761,75	1296,36
761,93	1257,45
762,11	1222,64
762,28	1273,84
762,46	1322,99
762,64	1286,12
762,82	1216,49
763,00	1261,55
763,18	1193,97
763,35	1261,55
763,53	1269,74
763,71	1218,54
763,89	1259,50
764,07	1294,32
764,24	1312,75
764,42	1304,56
764,60	1255,40
764,78	1294,32
764,96	1282,03
765,13	1327,08
765,31	1228,78
765,49	1302,51
765,67	1216,49
765,84	1261,55
766,02	1277,93
766,20	1249,26
766,38	1359,85
766,56	1296,36
766,73	1273,84
766,91	1263,60
767,09	1316,84
767,27	1310,70
767,44	1277,93
767,62	1265,64
767,80	1230,83
767,98	1279,98
768,15	1286,12
768,33	1263,60
768,51	1316,84
768,69	1294,32
768,87	1245,16
769,04	1261,55
769,22	1263,60
769,40	1243,12
769,58	1347,56
769,75	1206,25
769,93	1214,45
770,11	1277,93
770,28	1224,69
770,46	1255,40
770,64	1275,88
770,82	1282,03
770,99	1206,25
771,17	1290,22
771,35	1279,98
771,53	1245,16
771,70	1249,26
771,88	1271,79
772,06	1279,98
772,23	1282,03
772,41	1239,02
772,59	1230,83
772,77	1259,50
772,94	1288,17
773,12	1308,65
773,30	1239,02
773,47	1298,41
773,65	1239,02
773,83	1279,98
774,01	1286,12
774,18	1316,84
774,36	1216,49
774,54	1214,45
774,71	1294,32
774,89	1169,39
775,07	1255,40
775,24	1267,69
775,42	1316,84
775,60	1310,70
775,78	1298,41
775,95	1259,50
776,13	1277,93
776,31	1286,12
776,48	1259,50
776,66	1339,37
776,84	1247,21
777,01	1265,64
777,19	1177,58
777,37	1249,26
777,54	1249,26
777,72	1308,65
777,90	1243,12
778,07	1243,12
778,25	1208,30
778,43	1345,52
778,60	1253,36
778,78	1267,69
778,96	1286,12
779,13	1259,50
779,31	1222,64
779,49	1314,80
779,66	1292,27
779,84	1183,73
780,01	1249,26
780,19	1300,46
780,37	1310,70
780,54	1284,08
780,72	1241,07
780,90	1312,75
781,07	1320,94
781,25	1353,71
781,43	1236,97
781,60	1316,84
781,78	1298,41
781,95	1302,51
782,13	1288,17
782,31	1239,02
782,48	1282,03
782,66	1279,98
782,83	1286,12
783,01	1327,08
783,19	1279,98
783,36	1220,59
783,54	1267,69
783,72	1282,03
783,89	1187,82
784,07	1294,32
784,24	1222,64
784,42	1247,21
784,60	1308,65
784,77	1294,32
784,95	1294,32
785,12	1296,36
785,30	1282,03
785,47	1273,84
785,65	1204,21
785,83	1273,84
786,00	1327,08
786,18	1275,88
786,35	1310,70
786,53	1204,21
786,71	1236,97
786,88	1265,64
787,06	1187,82
787,23	1286,12
787,41	1234,93
787,58	1210,35
787,76	1241,07
787,94	1292,27
788,11	1275,88
788,29	1236,97
788,46	1298,41
788,64	1245,16
788,81	1349,61
788,99	1261,55
789,16	1261,55
789,34	1234,93
789,52	1279,98
789,69	1230,83
789,87	1269,74
790,04	1267,69
790,22	1347,56
790,39	1308,65
790,57	1243,12
790,74	1290,22
790,92	1288,17
791,09	1306,60
791,27	1245,16
791,44	1279,98
791,62	1273,84
791,79	1331,18
791,97	1265,64
792,15	1255,40
792,32	1253,36
792,50	1318,89
792,67	1226,73
792,85	1267,69
793,02	1294,32
793,20	1290,22
793,37	1310,70
793,55	1169,39
793,72	1259,50
793,90	1322,99
794,07	1259,50
794,25	1206,25
794,42	1253,36
794,60	1366,00
794,77	1294,32
794,95	1279,98
795,12	1284,08
795,30	1255,40
795,47	1308,65
795,65	1322,99
795,82	1214,45
796,00	1251,31
796,17	1335,28
796,34	1372,14
796,52	1247,21
796,69	1273,84
796,87	1269,74
797,04	1241,07
797,22	1191,92
797,39	1251,31
797,57	1294,32
797,74	1298,41
797,92	1239,02
798,09	1247,21
798,27	1243,12
798,44	1271,79
798,62	1282,03
798,79	1322,99
798,96	1232,88
799,14	1304,56
799,31	1327,08
799,49	1302,51
799,66	1239,02
799,84	1279,98
800,01	1282,03
800,19	1245,16
800,36	1241,07
800,53	1298,41
800,71	1220,59
800,88	1288,17
801,06	1226,73
801,23	1273,84
801,41	1333,23
801,58	1247,21
801,75	1214,45
801,93	1327,08
802,10	1273,84
802,28	1306,60
802,45	1294,32
802,63	1351,66
802,80	1282,03
802,97	1253,36
803,15	1202,16
803,32	1255,40
803,50	1249,26
803,67	1284,08
803,84	1308,65
804,02	1271,79
804,19	1314,80
804,37	1261,55
804,54	1214,45
804,71	1249,26
804,89	1257,45
805,06	1241,07
805,24	1255,40
805,41	1261,55
805,58	1277,93
805,76	1292,27
805,93	1239,02
806,10	1267,69
806,28	1302,51
806,45	1318,89
806,63	1249,26
806,80	1304,56
806,97	1245,16
807,15	1306,60
807,32	1228,78
807,49	1302,51
807,67	1290,22
807,84	1236,97
808,01	1318,89
808,19	1329,13
808,36	1234,93
808,54	1282,03
808,71	1255,40
808,88	1306,60
809,06	1253,36
809,23	1241,07
809,40	1296,36
809,58	1296,36
809,75	1241,07
809,92	1300,46
810,10	1310,70
810,27	1308,65
810,44	1273,84
810,62	1302,51
810,79	1236,97
810,96	1304,56
811,14	1261,55
811,31	1212,40
811,48	1310,70
811,66	1230,83
811,83	1255,40
812,00	1300,46
812,18	1312,75
812,35	1232,88
812,52	1269,74
812,69	1247,21
812,87	1275,88
813,04	1331,18
813,21	1245,16
813,39	1224,69
813,56	1222,64
813,73	1243,12
813,91	1279,98
814,08	1335,28
814,25	1239,02
814,42	1310,70
814,60	1241,07
814,77	1284,08
814,94	1226,73
815,12	1271,79
815,29	1347,56
815,46	1236,97
815,63	1247,21
815,81	1241,07
815,98	1271,79
816,15	1327,08
816,33	1306,60
816,50	1312,75
816,67	1253,36
816,84	1208,30
817,02	1208,30
817,19	1376,24
817,36	1288,17
817,53	1302,51
817,71	1331,18
817,88	1232,88
818,05	1251,31
818,22	1204,21
818,40	1277,93
818,57	1273,84
818,74	1230,83
818,91	1333,23
819,09	1257,45
819,26	1380,33
819,43	1253,36
819,60	1284,08
819,78	1273,84
819,95	1239,02
820,12	1304,56
820,29	1255,40
820,47	1286,12
820,64	1304,56
820,81	1290,22
820,98	1222,64
821,15	1239,02
821,33	1265,64
821,50	1220,59
821,67	1298,41
821,84	1314,80
822,02	1380,33
822,19	1263,60
822,36	1296,36
822,53	1335,28
822,70	1288,17
822,88	1257,45
823,05	1263,60
823,22	1384,43
823,39	1359,85
823,56	1282,03
823,74	1243,12
823,91	1265,64
824,08	1277,93
824,25	1245,16
824,42	1251,31
824,60	1337,32
824,77	1282,03
824,94	1302,51
825,11	1234,93
825,28	1273,84
825,45	1216,49
825,63	1200,11
825,80	1257,45
825,97	1247,21
826,14	1331,18
826,31	1247,21
826,48	1210,35
826,66	1302,51
826,83	1220,59
827,00	1224,69
827,17	1292,27
827,34	1282,03
827,51	1273,84
827,69	1282,03
827,86	1318,89
828,03	1277,93
828,20	1263,60
828,37	1329,13
828,54	1335,28
828,71	1220,59
828,89	1236,97
829,06	1329,13
829,23	1226,73
829,40	1193,97
829,57	1243,12
829,74	1200,11
829,91	1296,36
830,09	1302,51
830,26	1241,07
830,43	1298,41
830,60	1259,50
830,77	1312,75
830,94	1277,93
831,11	1239,02
831,28	1308,65
831,46	1263,60
831,63	1263,60
831,80	1249,26
831,97	1306,60
832,14	1304,56
832,31	1230,83
832,48	1325,04
832,65	1273,84
832,82	1218,54
832,99	1302,51
833,17	1308,65
833,34	1226,73
833,51	1282,03
833,68	1261,55
833,85	1226,73
834,02	1368,04
834,19	1300,46
834,36	1286,12
834,53	1286,12
834,70	1277,93
834,87	1224,69
835,04	1247,21
835,22	1290,22
835,39	1302,51
835,56	1300,46
835,73	1275,88
835,90	1261,55
836,07	1255,40
836,24	1273,84
836,41	1230,83
836,58	1331,18
836,75	1263,60
836,92	1245,16
837,09	1214,45
837,26	1196,01
837,43	1228,78
837,60	1320,94
837,77	1261,55
837,94	1200,11
838,12	1306,60
838,29	1327,08
838,46	1279,98
838,63	1243,12
838,80	1249,26
838,97	1245,16
839,14	1261,55
839,31	1312,75
839,48	1261,55
839,65	1261,55
839,82	1308,65
839,99	1288,17
840,16	1198,06
840,33	1284,08
840,50	1284,08
840,67	1288,17
840,84	1282,03
841,01	1171,44
841,18	1288,17
841,35	1236,97
841,52	1282,03
841,69	1247,21
841,86	1259,50
842,03	1267,69
842,20	1327,08
842,37	1296,36
842,54	1308,65
842,71	1267,69
842,88	1267,69
843,05	1277,93
843,22	1189,87
843,39	1337,32
843,56	1335,28
843,73	1267,69
843,90	1329,13
844,07	1189,87
844,24	1265,64
844,41	1306,60
844,58	1282,03
844,75	1216,49
844,92	1257,45
845,09	1259,50
845,26	1269,74
845,43	1212,40
845,60	1306,60
845,77	1212,40
845,94	1308,65
846,10	1257,45
846,27	1257,45
846,44	1232,88
846,61	1189,87
846,78	1292,27
846,95	1224,69
847,12	1294,32
847,29	1212,40
847,46	1234,93
847,63	1296,36
847,80	1181,68
847,97	1273,84
848,14	1265,64
848,31	1234,93
848,48	1288,17
848,65	1206,25
848,82	1218,54
848,98	1245,16
849,15	1308,65
849,32	1304,56
849,49	1241,07
849,66	1191,92
849,83	1239,02
850,00	1341,42
850,17	1253,36
850,34	1310,70
850,51	1255,40
850,68	1329,13
850,85	1322,99
851,01	1310,70
851,18	1224,69
851,35	1320,94
851,52	1234,93
851,69	1261,55
851,86	1282,03
852,03	1271,79
852,20	1325,04
852,37	1249,26
852,53	1269,74
852,70	1298,41
852,87	1218,54
853,04	1191,92
853,21	1320,94
853,38	1253,36
853,55	1189,87
853,72	1314,80
853,89	1241,07
854,05	1232,88
854,22	1245,16
854,39	1298,41
854,56	1322,99
854,73	1288,17
854,90	1275,88
855,07	1347,56
855,23	1263,60
855,40	1196,01
855,57	1253,36
855,74	1226,73
855,91	1294,32
856,08	1284,08
856,25	1247,21
856,41	1302,51
856,58	1263,60
856,75	1259,50
856,92	1236,97
857,09	1265,64
857,26	1298,41
857,42	1251,31
857,59	1294,32
857,76	1236,97
857,93	1241,07
858,10	1288,17
858,27	1265,64
858,43	1259,50
858,60	1306,60
858,77	1294,32
858,94	1296,36
859,11	1357,80
859,27	1230,83
859,44	1282,03
859,61	1302,51
859,78	1288,17
859,95	1288,17
860,12	1298,41
860,28	1277,93
860,45	1273,84
860,62	1294,32
860,79	1306,60
860,95	1290,22
861,12	1273,84
861,29	1204,21
861,46	1236,97
861,63	1247,21
861,79	1273,84
861,96	1251,31
862,13	1277,93
862,30	1249,26
862,47	1185,77
862,63	1232,88
862,80	1243,12
862,97	1331,18
863,14	1267,69
863,30	1228,78
863,47	1284,08
863,64	1275,88
863,81	1241,07
863,97	1273,84
864,14	1241,07
864,31	1322,99
864,48	1282,03
864,65	1228,78
864,81	1325,04
864,98	1331,18
865,15	1259,50
865,32	1279,98
865,48	1357,80
865,65	1341,42
865,82	1273,84
865,98	1226,73
866,15	1279,98
866,32	1284,08
866,49	1290,22
866,65	1269,74
866,82	1296,36
866,99	1245,16
867,16	1331,18
867,32	1241,07
867,49	1273,84
867,66	1230,83
867,83	1308,65
867,99	1284,08
868,16	1200,11
868,33	1292,27
868,49	1232,88
868,66	1198,06
868,83	1245,16
868,99	1318,89
869,16	1241,07
869,33	1294,32
869,50	1286,12
869,66	1253,36
869,83	1282,03
870,00	1185,77
870,16	1236,97
870,33	1253,36
870,50	1288,17
870,66	1300,46
870,83	1298,41
871,00	1298,41
871,17	1292,27
871,33	1349,61
871,50	1255,40
871,67	1236,97
871,83	1234,93
872,00	1198,06
872,17	1249,26
872,33	1265,64
872,50	1282,03
872,67	1239,02
872,83	1282,03
873,00	1269,74
873,17	1232,88
873,33	1243,12
873,50	1314,80
873,67	1394,67
873,83	1243,12
874,00	1265,64
874,16	1189,87
874,33	1355,76
874,50	1239,02
874,66	1277,93
874,83	1259,50
875,00	1316,84
875,16	1273,84
875,33	1316,84
875,50	1187,82
875,66	1302,51
875,83	1298,41
875,99	1249,26
876,16	1265,64
876,33	1275,88
876,49	1298,41
876,66	1226,73
876,83	1232,88
876,99	1288,17
877,16	1357,80
877,32	1243,12
877,49	1253,36
877,66	1249,26
877,82	1312,75
877,99	1236,97
878,15	1249,26
878,32	1261,55
878,49	1241,07
878,65	1343,47
878,82	1322,99
878,98	1277,93
879,15	1255,40
879,32	1304,56
879,48	1255,40
879,65	1288,17
879,81	1236,97
879,98	1308,65
880,15	1310,70
880,31	1273,84
880,48	1298,41
880,64	1288,17
880,81	1208,30
880,97	1294,32
881,14	1290,22
881,31	1329,13
881,47	1277,93
881,64	1265,64
881,80	1282,03
881,97	1175,53
882,13	1345,52
882,30	1304,56
882,47	1327,08
882,63	1271,79
882,80	1273,84
882,96	1325,04
883,13	1198,06
883,29	1292,27
883,46	1247,21
883,62	1210,35
883,79	1337,32
883,95	1290,22
884,12	1234,93
884,29	1224,69
884,45	1200,11
884,62	1318,89
884,78	1224,69
884,95	1230,83
885,11	1290,22
885,28	1271,79
885,44	1296,36
885,61	1322,99
885,77	1206,25
885,94	1380,33
886,10	1263,60
886,27	1304,56
886,43	1312,75
886,60	1298,41
886,76	1226,73
886,93	1277,93
887,09	1279,98
887,26	1351,66
887,42	1255,40
887,59	1232,88
887,75	1226,73
887,92	1292,27
888,08	1294,32
888,25	1249,26
888,41	1257,45
888,58	1265,64
888,74	1310,70
888,91	1230,83
>>>>>End Processed Spectral Data<<<<<
