SpectraSuite Data File
++++++++++++++++++++++++++++++++++++
Date: Sun Apr 03 19:03:04 CEST 2016
User: root
Dark Spectrum Present: No
Reference Spectrum Present: No
Number of Sampled Component Spectra: 1
Spectrometers: USB4C02835
Integration Time (usec): 10000 (USB4C02835)
Spectra Averaged: 1 (USB4C02835)
Boxcar Smoothing: 0 (USB4C02835)
Correct for Electrical Dark: No (USB4C02835)
Strobe/Lamp Enabled: No (USB4C02835)
Correct for Detector Non-linearity: No (USB4C02835)
Correct for Stray Light: No (USB4C02835)
Number of Pixels in Processed Spectrum: 3648
>>>>>Begin Processed Spectral Data<<<<<
177,47	1257,45
177,69	1257,45
177,91	1257,45
178,13	1288,17
178,36	1271,79
178,58	1251,31
178,80	1273,84
179,02	1222,64
179,24	1265,64
179,46	1257,45
179,68	1337,32
179,90	1230,83
180,13	1230,83
180,35	1277,93
180,57	1245,16
180,79	1288,17
181,01	1245,16
181,23	1263,60
181,45	1286,12
181,67	1224,69
181,90	1226,73
182,12	1232,88
182,34	1343,47
182,56	1269,74
182,78	1236,97
183,00	1314,80
183,22	1292,27
183,44	1273,84
183,66	1273,84
183,89	1232,88
184,11	1282,03
184,33	1282,03
184,55	1243,12
184,77	1275,88
184,99	1271,79
185,21	1249,26
185,43	1265,64
185,65	1310,70
185,87	1202,16
186,10	1226,73
186,32	1298,41
186,54	1212,40
186,76	1312,75
186,98	1318,89
187,20	1273,84
187,42	1294,32
187,64	1318,89
187,86	1241,07
188,08	1220,59
188,30	1249,26
188,52	1300,46
188,75	1271,79
188,97	1335,28
189,19	1259,50
189,41	1232,88
189,63	1288,17
189,85	1331,18
190,07	1284,08
190,29	1279,98
190,51	1257,45
190,73	1298,41
190,95	1292,27
191,17	1224,69
191,39	1234,93
191,61	1243,12
191,84	1210,35
192,06	1255,40
192,28	1271,79
192,50	1304,56
192,72	1232,88
192,94	1288,17
193,16	1296,36
193,38	1282,03
193,60	1265,64
193,82	1234,93
194,04	1286,12
194,26	1298,41
194,48	1269,74
194,70	1273,84
194,92	1220,59
195,14	1284,08
195,36	1208,30
195,58	1224,69
195,80	1224,69
196,02	1273,84
196,24	1290,22
196,46	1290,22
196,69	1273,84
196,91	1294,32
197,13	1267,69
197,35	1306,60
197,57	1284,08
197,79	1212,40
198,01	1290,22
198,23	1253,36
198,45	1316,84
198,67	1243,12
198,89	1220,59
199,11	1271,79
199,33	1259,50
199,55	1288,17
199,77	1206,25
199,99	1286,12
200,21	1298,41
200,43	1259,50
200,65	1228,78
200,87	1247,21
201,09	1247,21
201,31	1296,36
201,53	1284,08
201,75	1228,78
201,97	1329,13
202,19	1316,84
202,41	1263,60
202,63	1298,41
202,85	1200,11
203,07	1314,80
203,29	1253,36
203,51	1290,22
203,73	1243,12
203,95	1304,56
204,17	1275,88
204,39	1208,30
204,61	1257,45
204,83	1325,04
205,05	1302,51
205,27	1257,45
205,49	1265,64
205,71	1261,55
205,93	1247,21
206,15	1271,79
206,37	1318,89
206,59	1263,60
206,81	1243,12
207,03	1247,21
207,25	1214,45
207,47	1290,22
207,69	1310,70
207,91	1273,84
208,13	1294,32
208,34	1150,96
208,56	1314,80
208,78	1261,55
209,00	1218,54
209,22	1198,06
209,44	1226,73
209,66	1220,59
209,88	1265,64
210,10	1185,77
210,32	1222,64
210,54	1329,13
210,76	1185,77
210,98	1273,84
211,20	1241,07
211,42	1267,69
211,64	1236,97
211,86	1228,78
212,08	1245,16
212,30	1288,17
212,52	1255,40
212,74	1241,07
212,96	1265,64
213,17	1200,11
213,39	1261,55
213,61	1206,25
213,83	1208,30
214,05	1241,07
214,27	1292,27
214,49	1331,18
214,71	1298,41
214,93	1271,79
215,15	1320,94
215,37	1314,80
215,59	1261,55
215,81	1216,49
216,03	1236,97
216,24	1255,40
216,46	1279,98
216,68	1200,11
216,90	1286,12
217,12	1261,55
217,34	1318,89
217,56	1318,89
217,78	1261,55
218,00	1255,40
218,22	1304,56
218,44	1243,12
218,66	1269,74
218,87	1300,46
219,09	1236,97
219,31	1273,84
219,53	1253,36
219,75	1320,94
219,97	1327,08
220,19	1251,31
220,41	1193,97
220,63	1302,51
220,85	1337,32
221,06	1243,12
221,28	1261,55
221,50	1298,41
221,72	1257,45
221,94	1294,32
222,16	1236,97
222,38	1261,55
222,60	1304,56
222,82	1239,02
223,03	1265,64
223,25	1257,45
223,47	1304,56
223,69	1298,41
223,91	1265,64
224,13	1290,22
224,35	1241,07
224,57	1257,45
224,78	1294,32
225,00	1279,98
225,22	1306,60
225,44	1234,93
225,66	1218,54
225,88	1320,94
226,10	1275,88
226,32	1318,89
226,53	1249,26
226,75	1255,40
226,97	1236,97
227,19	1288,17
227,41	1257,45
227,63	1249,26
227,85	1196,01
228,06	1292,27
228,28	1263,60
228,50	1343,47
228,72	1333,23
228,94	1249,26
229,16	1279,98
229,37	1259,50
229,59	1261,55
229,81	1239,02
230,03	1284,08
230,25	1257,45
230,47	1241,07
230,69	1259,50
230,90	1241,07
231,12	1257,45
231,34	1263,60
231,56	1232,88
231,78	1306,60
232,00	1294,32
232,21	1257,45
232,43	1327,08
232,65	1255,40
232,87	1241,07
233,09	1263,60
233,30	1216,49
233,52	1257,45
233,74	1232,88
233,96	1259,50
234,18	1327,08
234,40	1302,51
234,61	1282,03
234,83	1243,12
235,05	1224,69
235,27	1290,22
235,49	1269,74
235,70	1312,75
235,92	1253,36
236,14	1314,80
236,36	1318,89
236,58	1345,52
236,79	1279,98
237,01	1224,69
237,23	1290,22
237,45	1290,22
237,67	1298,41
237,88	1288,17
238,10	1255,40
238,32	1167,34
238,54	1312,75
238,76	1243,12
238,97	1368,04
239,19	1236,97
239,41	1269,74
239,63	1232,88
239,85	1277,93
240,06	1245,16
240,28	1241,07
240,50	1247,21
240,72	1241,07
240,93	1263,60
241,15	1243,12
241,37	1300,46
241,59	1228,78
241,81	1251,31
242,02	1282,03
242,24	1263,60
242,46	1294,32
242,68	1320,94
242,89	1329,13
243,11	1265,64
243,33	1232,88
243,55	1343,47
243,76	1222,64
243,98	1253,36
244,20	1279,98
244,42	1251,31
244,64	1232,88
244,85	1286,12
245,07	1224,69
245,29	1312,75
245,51	1263,60
245,72	1187,82
245,94	1255,40
246,16	1265,64
246,38	1306,60
246,59	1230,83
246,81	1337,32
247,03	1212,40
247,24	1288,17
247,46	1279,98
247,68	1255,40
247,90	1288,17
248,11	1265,64
248,33	1253,36
248,55	1261,55
248,77	1322,99
248,98	1298,41
249,20	1247,21
249,42	1257,45
249,64	1257,45
249,85	1251,31
250,07	1247,21
250,29	1296,36
250,50	1251,31
250,72	1292,27
250,94	1269,74
251,16	1255,40
251,37	1302,51
251,59	1304,56
251,81	1271,79
252,02	1259,50
252,24	1255,40
252,46	1263,60
252,68	1230,83
252,89	1279,98
253,11	1298,41
253,33	1267,69
253,54	1171,44
253,76	1284,08
253,98	1298,41
254,20	1349,61
254,41	1220,59
254,63	1259,50
254,85	1290,22
255,06	1239,02
255,28	1247,21
255,50	1282,03
255,71	1286,12
255,93	1275,88
256,15	1302,51
256,36	1267,69
256,58	1269,74
256,80	1310,70
257,02	1290,22
257,23	1212,40
257,45	1292,27
257,67	1239,02
257,88	1282,03
258,10	1251,31
258,32	1163,25
258,53	1259,50
258,75	1300,46
258,97	1228,78
259,18	1216,49
259,40	1290,22
259,62	1275,88
259,83	1288,17
260,05	1245,16
260,27	1282,03
260,48	1230,83
260,70	1353,71
260,92	1277,93
261,13	1202,16
261,35	1265,64
261,57	1210,35
261,78	1288,17
262,00	1253,36
262,22	1298,41
262,43	1327,08
262,65	1267,69
262,86	1257,45
263,08	1261,55
263,30	1259,50
263,51	1224,69
263,73	1279,98
263,95	1259,50
264,16	1226,73
264,38	1282,03
264,60	1318,89
264,81	1220,59
265,03	1222,64
265,25	1282,03
265,46	1306,60
265,68	1273,84
265,89	1243,12
266,11	1226,73
266,33	1302,51
266,54	1243,12
266,76	1263,60
266,98	1236,97
267,19	1290,22
267,41	1298,41
267,62	1216,49
267,84	1222,64
268,06	1286,12
268,27	1343,47
268,49	1284,08
268,70	1282,03
268,92	1228,78
269,14	1290,22
269,35	1341,42
269,57	1273,84
269,79	1345,52
270,00	1247,21
270,22	1282,03
270,43	1279,98
270,65	1239,02
270,87	1279,98
271,08	1347,56
271,30	1368,04
271,51	1269,74
271,73	1290,22
271,95	1333,23
272,16	1302,51
272,38	1198,06
272,59	1279,98
272,81	1306,60
273,02	1288,17
273,24	1216,49
273,46	1296,36
273,67	1193,97
273,89	1255,40
274,10	1269,74
274,32	1279,98
274,54	1273,84
274,75	1290,22
274,97	1189,87
275,18	1286,12
275,40	1247,21
275,61	1302,51
275,83	1296,36
276,05	1200,11
276,26	1200,11
276,48	1173,49
276,69	1269,74
276,91	1196,01
277,12	1349,61
277,34	1277,93
277,55	1251,31
277,77	1191,92
277,99	1304,56
278,20	1308,65
278,42	1230,83
278,63	1218,54
278,85	1275,88
279,06	1282,03
279,28	1261,55
279,49	1271,79
279,71	1294,32
279,93	1171,44
280,14	1257,45
280,36	1294,32
280,57	1218,54
280,79	1261,55
281,00	1271,79
281,22	1273,84
281,43	1228,78
281,65	1267,69
281,86	1277,93
282,08	1175,53
282,29	1300,46
282,51	1214,45
282,73	1226,73
282,94	1331,18
283,16	1322,99
283,37	1282,03
283,59	1230,83
283,80	1337,32
284,02	1234,93
284,23	1241,07
284,45	1286,12
284,66	1282,03
284,88	1331,18
285,09	1255,40
285,31	1284,08
285,52	1267,69
285,74	1228,78
285,95	1277,93
286,17	1284,08
286,38	1279,98
286,60	1312,75
286,81	1284,08
287,03	1275,88
287,24	1230,83
287,46	1259,50
287,67	1251,31
287,89	1282,03
288,10	1241,07
288,32	1304,56
288,53	1222,64
288,75	1318,89
288,96	1273,84
289,18	1222,64
289,39	1234,93
289,61	1288,17
289,82	1245,16
290,04	1236,97
290,25	1206,25
290,47	1284,08
290,68	1261,55
290,90	1271,79
291,11	1259,50
291,33	1345,52
291,54	1249,26
291,76	1255,40
291,97	1273,84
292,18	1265,64
292,40	1275,88
292,61	1269,74
292,83	1269,74
293,04	1249,26
293,26	1329,13
293,47	1200,11
293,69	1259,50
293,90	1255,40
294,12	1249,26
294,33	1306,60
294,55	1271,79
294,76	1273,84
294,97	1226,73
295,19	1302,51
295,40	1284,08
295,62	1259,50
295,83	1259,50
296,05	1226,73
296,26	1267,69
296,48	1243,12
296,69	1318,89
296,90	1294,32
297,12	1253,36
297,33	1247,21
297,55	1243,12
297,76	1312,75
297,98	1263,60
298,19	1249,26
298,41	1292,27
298,62	1239,02
298,83	1290,22
299,05	1279,98
299,26	1257,45
299,48	1275,88
299,69	1279,98
299,90	1247,21
300,12	1259,50
300,33	1253,36
300,55	1259,50
300,76	1277,93
300,98	1216,49
301,19	1247,21
301,40	1284,08
301,62	1277,93
301,83	1232,88
302,05	1273,84
302,26	1263,60
302,47	1249,26
302,69	1202,16
302,90	1300,46
303,12	1286,12
303,33	1251,31
303,54	1257,45
303,76	1304,56
303,97	1220,59
304,19	1337,32
304,40	1228,78
304,61	1310,70
304,83	1302,51
305,04	1277,93
305,26	1255,40
305,47	1273,84
305,68	1261,55
305,90	1302,51
306,11	1265,64
306,33	1171,44
306,54	1232,88
306,75	1267,69
306,97	1255,40
307,18	1269,74
307,39	1222,64
307,61	1329,13
307,82	1224,69
308,04	1308,65
308,25	1226,73
308,46	1347,56
308,68	1259,50
308,89	1331,18
309,10	1290,22
309,32	1247,21
309,53	1236,97
309,74	1253,36
309,96	1267,69
310,17	1271,79
310,39	1302,51
310,60	1208,30
310,81	1253,36
311,03	1304,56
311,24	1226,73
311,45	1198,06
311,67	1333,23
311,88	1273,84
312,09	1298,41
312,31	1306,60
312,52	1290,22
312,73	1255,40
312,95	1284,08
313,16	1286,12
313,37	1146,86
313,59	1253,36
313,80	1236,97
314,01	1345,52
314,23	1294,32
314,44	1271,79
314,65	1314,80
314,87	1222,64
315,08	1279,98
315,29	1241,07
315,51	1253,36
315,72	1343,47
315,93	1214,45
316,15	1216,49
316,36	1273,84
316,57	1331,18
316,79	1302,51
317,00	1265,64
317,21	1296,36
317,43	1267,69
317,64	1214,45
317,85	1239,02
318,07	1314,80
318,28	1241,07
318,49	1236,97
318,70	1267,69
318,92	1292,27
319,13	1208,30
319,34	1226,73
319,56	1273,84
319,77	1241,07
319,98	1329,13
320,20	1284,08
320,41	1263,60
320,62	1243,12
320,83	1366,00
321,05	1318,89
321,26	1316,84
321,47	1267,69
321,69	1263,60
321,90	1218,54
322,11	1327,08
322,32	1253,36
322,54	1279,98
322,75	1261,55
322,96	1241,07
323,18	1314,80
323,39	1232,88
323,60	1257,45
323,81	1298,41
324,03	1290,22
324,24	1290,22
324,45	1259,50
324,66	1286,12
324,88	1302,51
325,09	1339,37
325,30	1279,98
325,52	1269,74
325,73	1286,12
325,94	1251,31
326,15	1331,18
326,37	1175,53
326,58	1275,88
326,79	1271,79
327,00	1273,84
327,22	1271,79
327,43	1243,12
327,64	1255,40
327,85	1224,69
328,07	1216,49
328,28	1302,51
328,49	1275,88
328,70	1290,22
328,92	1271,79
329,13	1220,59
329,34	1241,07
329,55	1226,73
329,76	1302,51
329,98	1234,93
330,19	1267,69
330,40	1216,49
330,61	1304,56
330,83	1271,79
331,04	1306,60
331,25	1239,02
331,46	1263,60
331,68	1232,88
331,89	1230,83
332,10	1259,50
332,31	1259,50
332,52	1245,16
332,74	1210,35
332,95	1234,93
333,16	1271,79
333,37	1294,32
333,58	1187,82
333,80	1208,30
334,01	1267,69
334,22	1282,03
334,43	1255,40
334,64	1284,08
334,86	1304,56
335,07	1292,27
335,28	1314,80
335,49	1216,49
335,70	1290,22
335,92	1204,21
336,13	1273,84
336,34	1245,16
336,55	1267,69
336,76	1314,80
336,98	1220,59
337,19	1257,45
337,40	1269,74
337,61	1282,03
337,82	1228,78
338,04	1224,69
338,25	1241,07
338,46	1216,49
338,67	1310,70
338,88	1226,73
339,09	1273,84
339,31	1226,73
339,52	1368,04
339,73	1255,40
339,94	1339,37
340,15	1255,40
340,36	1263,60
340,58	1331,18
340,79	1191,92
341,00	1245,16
341,21	1314,80
341,42	1310,70
341,63	1320,94
341,85	1228,78
342,06	1277,93
342,27	1239,02
342,48	1331,18
342,69	1232,88
342,90	1222,64
343,12	1290,22
343,33	1271,79
343,54	1263,60
343,75	1241,07
343,96	1236,97
344,17	1288,17
344,38	1228,78
344,60	1269,74
344,81	1234,93
345,02	1273,84
345,23	1282,03
345,44	1294,32
345,65	1236,97
345,86	1302,51
346,07	1308,65
346,29	1239,02
346,50	1247,21
346,71	1308,65
346,92	1273,84
347,13	1247,21
347,34	1255,40
347,55	1288,17
347,76	1267,69
347,98	1200,11
348,19	1218,54
348,40	1243,12
348,61	1279,98
348,82	1267,69
349,03	1200,11
349,24	1255,40
349,45	1243,12
349,66	1185,77
349,88	1232,88
350,09	1265,64
350,30	1224,69
350,51	1181,68
350,72	1249,26
350,93	1241,07
351,14	1251,31
351,35	1298,41
351,56	1345,52
351,77	1271,79
351,99	1243,12
352,20	1247,21
352,41	1261,55
352,62	1290,22
352,83	1310,70
353,04	1216,49
353,25	1284,08
353,46	1290,22
353,67	1331,18
353,88	1294,32
354,09	1234,93
354,30	1265,64
354,52	1247,21
354,73	1239,02
354,94	1271,79
355,15	1306,60
355,36	1189,87
355,57	1302,51
355,78	1245,16
355,99	1236,97
356,20	1234,93
356,41	1239,02
356,62	1204,21
356,83	1193,97
357,04	1251,31
357,25	1234,93
357,46	1212,40
357,68	1296,36
357,89	1251,31
358,10	1290,22
358,31	1185,77
358,52	1228,78
358,73	1226,73
358,94	1302,51
359,15	1263,60
359,36	1292,27
359,57	1241,07
359,78	1232,88
359,99	1284,08
360,20	1200,11
360,41	1236,97
360,62	1296,36
360,83	1253,36
361,04	1304,56
361,25	1267,69
361,46	1247,21
361,67	1308,65
361,88	1329,13
362,09	1306,60
362,30	1290,22
362,51	1300,46
362,72	1277,93
362,93	1290,22
363,14	1308,65
363,35	1214,45
363,56	1175,53
363,78	1241,07
363,99	1279,98
364,20	1253,36
364,41	1333,23
364,62	1331,18
364,83	1253,36
365,04	1290,22
365,25	1257,45
365,46	1277,93
365,67	1224,69
365,88	1249,26
366,09	1282,03
366,30	1218,54
366,51	1273,84
366,72	1312,75
366,93	1165,29
367,14	1257,45
367,35	1339,37
367,56	1236,97
367,77	1302,51
367,98	1298,41
368,18	1232,88
368,39	1312,75
368,60	1306,60
368,81	1255,40
369,02	1300,46
369,23	1212,40
369,44	1251,31
369,65	1171,44
369,86	1243,12
370,07	1265,64
370,28	1282,03
370,49	1259,50
370,70	1286,12
370,91	1241,07
371,12	1265,64
371,33	1247,21
371,54	1191,92
371,75	1312,75
371,96	1259,50
372,17	1271,79
372,38	1259,50
372,59	1288,17
372,80	1331,18
373,01	1214,45
373,22	1253,36
373,43	1171,44
373,64	1230,83
373,85	1279,98
374,06	1314,80
374,26	1318,89
374,47	1269,74
374,68	1226,73
374,89	1275,88
375,10	1292,27
375,31	1341,42
375,52	1302,51
375,73	1232,88
375,94	1261,55
376,15	1304,56
376,36	1279,98
376,57	1226,73
376,78	1257,45
376,99	1179,63
377,20	1292,27
377,40	1308,65
377,61	1212,40
377,82	1204,21
378,03	1236,97
378,24	1304,56
378,45	1355,76
378,66	1265,64
378,87	1296,36
379,08	1284,08
379,29	1322,99
379,50	1277,93
379,71	1269,74
379,91	1234,93
380,12	1277,93
380,33	1187,82
380,54	1296,36
380,75	1298,41
380,96	1282,03
381,17	1279,98
381,38	1206,25
381,59	1277,93
381,80	1267,69
382,00	1247,21
382,21	1214,45
382,42	1261,55
382,63	1216,49
382,84	1187,82
383,05	1208,30
383,26	1226,73
383,47	1261,55
383,68	1241,07
383,88	1286,12
384,09	1271,79
384,30	1275,88
384,51	1267,69
384,72	1257,45
384,93	1224,69
385,14	1200,11
385,35	1275,88
385,55	1282,03
385,76	1200,11
385,97	1247,21
386,18	1265,64
386,39	1193,97
386,60	1236,97
386,81	1249,26
387,02	1202,16
387,22	1212,40
387,43	1288,17
387,64	1230,83
387,85	1333,23
388,06	1236,97
388,27	1286,12
388,48	1245,16
388,68	1247,21
388,89	1314,80
389,10	1296,36
389,31	1234,93
389,52	1314,80
389,73	1339,37
389,93	1341,42
390,14	1271,79
390,35	1282,03
390,56	1247,21
390,77	1345,52
390,98	1277,93
391,18	1267,69
391,39	1228,78
391,60	1239,02
391,81	1212,40
392,02	1335,28
392,23	1232,88
392,43	1232,88
392,64	1206,25
392,85	1306,60
393,06	1286,12
393,27	1220,59
393,47	1333,23
393,68	1277,93
393,89	1294,32
394,10	1243,12
394,31	1294,32
394,52	1245,16
394,72	1185,77
394,93	1239,02
395,14	1230,83
395,35	1320,94
395,56	1298,41
395,76	1247,21
395,97	1220,59
396,18	1253,36
396,39	1187,82
396,60	1337,32
396,80	1263,60
397,01	1216,49
397,22	1314,80
397,43	1249,26
397,64	1259,50
397,84	1263,60
398,05	1216,49
398,26	1288,17
398,47	1202,16
398,67	1296,36
398,88	1302,51
399,09	1228,78
399,30	1320,94
399,51	1263,60
399,71	1232,88
399,92	1308,65
400,13	1306,60
400,34	1273,84
400,54	1292,27
400,75	1282,03
400,96	1247,21
401,17	1279,98
401,37	1302,51
401,58	1175,53
401,79	1230,83
402,00	1310,70
402,21	1290,22
402,41	1288,17
402,62	1298,41
402,83	1236,97
403,04	1314,80
403,24	1294,32
403,45	1265,64
403,66	1288,17
403,87	1236,97
404,07	1273,84
404,28	1331,18
404,49	1255,40
404,70	1232,88
404,90	1370,09
405,11	1296,36
405,32	1306,60
405,52	1257,45
405,73	1253,36
405,94	1181,68
406,15	1239,02
406,35	1277,93
406,56	1312,75
406,77	1220,59
406,98	1282,03
407,18	1288,17
407,39	1247,21
407,60	1243,12
407,80	1312,75
408,01	1312,75
408,22	1320,94
408,43	1302,51
408,63	1282,03
408,84	1279,98
409,05	1226,73
409,25	1261,55
409,46	1265,64
409,67	1185,77
409,88	1282,03
410,08	1273,84
410,29	1263,60
410,50	1255,40
410,70	1284,08
410,91	1275,88
411,12	1355,76
411,32	1267,69
411,53	1216,49
411,74	1275,88
411,95	1333,23
412,15	1271,79
412,36	1269,74
412,57	1277,93
412,77	1347,56
412,98	1275,88
413,19	1296,36
413,39	1255,40
413,60	1249,26
413,81	1224,69
414,01	1292,27
414,22	1271,79
414,43	1263,60
414,63	1251,31
414,84	1189,87
415,05	1284,08
415,25	1245,16
415,46	1230,83
415,67	1282,03
415,87	1275,88
416,08	1308,65
416,29	1243,12
416,49	1312,75
416,70	1290,22
416,91	1224,69
417,11	1277,93
417,32	1222,64
417,53	1288,17
417,73	1294,32
417,94	1275,88
418,15	1181,68
418,35	1267,69
418,56	1284,08
418,77	1282,03
418,97	1212,40
419,18	1228,78
419,38	1232,88
419,59	1267,69
419,80	1222,64
420,00	1208,30
420,21	1322,99
420,42	1261,55
420,62	1171,44
420,83	1243,12
421,04	1251,31
421,24	1284,08
421,45	1204,21
421,65	1177,58
421,86	1265,64
422,07	1286,12
422,27	1304,56
422,48	1327,08
422,69	1232,88
422,89	1196,01
423,10	1316,84
423,30	1304,56
423,51	1259,50
423,72	1230,83
423,92	1296,36
424,13	1220,59
424,33	1253,36
424,54	1228,78
424,75	1212,40
424,95	1259,50
425,16	1222,64
425,36	1169,39
425,57	1259,50
425,78	1247,21
425,98	1265,64
426,19	1308,65
426,39	1273,84
426,60	1222,64
426,81	1265,64
427,01	1271,79
427,22	1290,22
427,42	1288,17
427,63	1255,40
427,83	1275,88
428,04	1341,42
428,25	1247,21
428,45	1243,12
428,66	1204,21
428,86	1239,02
429,07	1284,08
429,28	1322,99
429,48	1282,03
429,69	1230,83
429,89	1259,50
430,10	1259,50
430,30	1247,21
430,51	1259,50
430,71	1306,60
430,92	1243,12
431,13	1279,98
431,33	1304,56
431,54	1232,88
431,74	1243,12
431,95	1191,92
432,15	1273,84
432,36	1218,54
432,56	1271,79
432,77	1249,26
432,98	1267,69
433,18	1314,80
433,39	1331,18
433,59	1241,07
433,80	1232,88
434,00	1245,16
434,21	1296,36
434,41	1279,98
434,62	1232,88
434,82	1253,36
435,03	1224,69
435,23	1261,55
435,44	1243,12
435,64	1286,12
435,85	1230,83
436,06	1243,12
436,26	1263,60
436,47	1259,50
436,67	1257,45
436,88	1296,36
437,08	1333,23
437,29	1269,74
437,49	1273,84
437,70	1292,27
437,90	1290,22
438,11	1345,52
438,31	1273,84
438,52	1275,88
438,72	1216,49
438,93	1218,54
439,13	1343,47
439,34	1318,89
439,54	1271,79
439,75	1232,88
439,95	1288,17
440,16	1241,07
440,36	1300,46
440,57	1185,77
440,77	1257,45
440,98	1267,69
441,18	1347,56
441,39	1251,31
441,59	1218,54
441,80	1271,79
442,00	1232,88
442,21	1247,21
442,41	1292,27
442,62	1212,40
442,82	1335,28
443,02	1167,34
443,23	1173,49
443,43	1181,68
443,64	1228,78
443,84	1316,84
444,05	1208,30
444,25	1275,88
444,46	1339,37
444,66	1310,70
444,87	1243,12
445,07	1167,34
445,28	1271,79
445,48	1298,41
445,69	1216,49
445,89	1249,26
446,09	1208,30
446,30	1193,97
446,50	1249,26
446,71	1267,69
446,91	1292,27
447,12	1261,55
447,32	1312,75
447,53	1257,45
447,73	1318,89
447,93	1206,25
448,14	1259,50
448,34	1241,07
448,55	1232,88
448,75	1253,36
448,96	1290,22
449,16	1333,23
449,36	1357,80
449,57	1253,36
449,77	1263,60
449,98	1263,60
450,18	1263,60
450,39	1222,64
450,59	1208,30
450,79	1210,35
451,00	1232,88
451,20	1202,16
451,41	1269,74
451,61	1271,79
451,81	1284,08
452,02	1275,88
452,22	1224,69
452,43	1322,99
452,63	1157,10
452,84	1265,64
453,04	1304,56
453,24	1275,88
453,45	1308,65
453,65	1247,21
453,86	1265,64
454,06	1310,70
454,26	1202,16
454,47	1212,40
454,67	1249,26
454,87	1208,30
455,08	1273,84
455,28	1245,16
455,49	1255,40
455,69	1325,04
455,89	1257,45
456,10	1286,12
456,30	1273,84
456,51	1271,79
456,71	1216,49
456,91	1249,26
457,12	1261,55
457,32	1327,08
457,52	1198,06
457,73	1402,86
457,93	1265,64
458,14	1275,88
458,34	1167,34
458,54	1275,88
458,75	1241,07
458,95	1302,51
459,15	1241,07
459,36	1320,94
459,56	1320,94
459,76	1269,74
459,97	1275,88
460,17	1212,40
460,37	1310,70
460,58	1282,03
460,78	1292,27
460,99	1247,21
461,19	1239,02
461,39	1243,12
461,60	1292,27
461,80	1232,88
462,00	1312,75
462,21	1208,30
462,41	1214,45
462,61	1308,65
462,82	1263,60
463,02	1290,22
463,22	1245,16
463,43	1236,97
463,63	1218,54
463,83	1255,40
464,04	1269,74
464,24	1304,56
464,44	1259,50
464,64	1239,02
464,85	1312,75
465,05	1277,93
465,25	1286,12
465,46	1157,10
465,66	1243,12
465,86	1253,36
466,07	1308,65
466,27	1325,04
466,47	1245,16
466,68	1255,40
466,88	1267,69
467,08	1288,17
467,29	1214,45
467,49	1279,98
467,69	1304,56
467,89	1253,36
468,10	1290,22
468,30	1226,73
468,50	1247,21
468,71	1282,03
468,91	1228,78
469,11	1314,80
469,31	1292,27
469,52	1245,16
469,72	1249,26
469,92	1288,17
470,13	1279,98
470,33	1314,80
470,53	1271,79
470,73	1247,21
470,94	1277,93
471,14	1312,75
471,34	1300,46
471,54	1300,46
471,75	1269,74
471,95	1228,78
472,15	1239,02
472,36	1298,41
472,56	1239,02
472,76	1277,93
472,96	1173,49
473,17	1277,93
473,37	1232,88
473,57	1318,89
473,77	1290,22
473,98	1245,16
474,18	1318,89
474,38	1298,41
474,58	1290,22
474,79	1296,36
474,99	1265,64
475,19	1245,16
475,39	1236,97
475,60	1320,94
475,80	1251,31
476,00	1212,40
476,20	1191,92
476,41	1177,58
476,61	1296,36
476,81	1308,65
477,01	1265,64
477,21	1286,12
477,42	1230,83
477,62	1304,56
477,82	1269,74
478,02	1171,44
478,23	1247,21
478,43	1269,74
478,63	1253,36
478,83	1232,88
479,03	1245,16
479,24	1261,55
479,44	1220,59
479,64	1167,34
479,84	1341,42
480,04	1277,93
480,25	1298,41
480,45	1269,74
480,65	1265,64
480,85	1232,88
481,06	1243,12
481,26	1255,40
481,46	1216,49
481,66	1259,50
481,86	1259,50
482,06	1290,22
482,27	1243,12
482,47	1220,59
482,67	1228,78
482,87	1257,45
483,07	1269,74
483,28	1273,84
483,48	1243,12
483,68	1236,97
483,88	1216,49
484,08	1263,60
484,29	1251,31
484,49	1351,66
484,69	1314,80
484,89	1249,26
485,09	1226,73
485,29	1269,74
485,50	1271,79
485,70	1296,36
485,90	1212,40
486,10	1304,56
486,30	1320,94
486,50	1302,51
486,71	1230,83
486,91	1341,42
487,11	1218,54
487,31	1232,88
487,51	1198,06
487,71	1247,21
487,91	1286,12
488,12	1277,93
488,32	1292,27
488,52	1177,58
488,72	1247,21
488,92	1220,59
489,12	1292,27
489,32	1212,40
489,53	1306,60
489,73	1314,80
489,93	1329,13
490,13	1333,23
490,33	1282,03
490,53	1304,56
490,73	1232,88
490,94	1269,74
491,14	1245,16
491,34	1241,07
491,54	1226,73
491,74	1228,78
491,94	1279,98
492,14	1279,98
492,34	1247,21
492,54	1253,36
492,75	1218,54
492,95	1234,93
493,15	1247,21
493,35	1255,40
493,55	1292,27
493,75	1198,06
493,95	1298,41
494,15	1265,64
494,35	1222,64
494,56	1230,83
494,76	1337,32
494,96	1282,03
495,16	1247,21
495,36	1288,17
495,56	1275,88
495,76	1234,93
495,96	1267,69
496,16	1210,35
496,36	1347,56
496,56	1267,69
496,77	1239,02
496,97	1265,64
497,17	1259,50
497,37	1271,79
497,57	1257,45
497,77	1230,83
497,97	1216,49
498,17	1302,51
498,37	1271,79
498,57	1208,30
498,77	1241,07
498,97	1196,01
499,17	1267,69
499,38	1234,93
499,58	1292,27
499,78	1202,16
499,98	1273,84
500,18	1253,36
500,38	1306,60
500,58	1239,02
500,78	1300,46
500,98	1247,21
501,18	1226,73
501,38	1236,97
501,58	1271,79
501,78	1232,88
501,98	1329,13
502,18	1255,40
502,38	1230,83
502,58	1255,40
502,78	1267,69
502,98	1269,74
503,18	1200,11
503,38	1183,73
503,59	1212,40
503,79	1210,35
503,99	1275,88
504,19	1263,60
504,39	1269,74
504,59	1265,64
504,79	1214,45
504,99	1273,84
505,19	1288,17
505,39	1253,36
505,59	1241,07
505,79	1228,78
505,99	1298,41
506,19	1273,84
506,39	1218,54
506,59	1243,12
506,79	1292,27
506,99	1290,22
507,19	1316,84
507,39	1212,40
507,59	1284,08
507,79	1288,17
507,99	1245,16
508,19	1318,89
508,39	1232,88
508,59	1257,45
508,79	1302,51
508,99	1239,02
509,19	1210,35
509,39	1249,26
509,59	1255,40
509,79	1259,50
509,99	1279,98
510,19	1236,97
510,39	1239,02
510,59	1304,56
510,79	1230,83
510,99	1294,32
511,19	1310,70
511,39	1224,69
511,59	1282,03
511,79	1290,22
511,99	1310,70
512,19	1232,88
512,38	1294,32
512,58	1288,17
512,78	1292,27
512,98	1234,93
513,18	1347,56
513,38	1189,87
513,58	1290,22
513,78	1282,03
513,98	1267,69
514,18	1359,85
514,38	1275,88
514,58	1232,88
514,78	1329,13
514,98	1220,59
515,18	1245,16
515,38	1273,84
515,58	1202,16
515,78	1275,88
515,98	1193,97
516,18	1228,78
516,38	1298,41
516,57	1228,78
516,77	1277,93
516,97	1239,02
517,17	1214,45
517,37	1241,07
517,57	1273,84
517,77	1185,77
517,97	1261,55
518,17	1249,26
518,37	1128,43
518,57	1271,79
518,77	1308,65
518,97	1300,46
519,16	1191,92
519,36	1259,50
519,56	1300,46
519,76	1234,93
519,96	1273,84
520,16	1282,03
520,36	1282,03
520,56	1261,55
520,76	1257,45
520,96	1282,03
521,16	1314,80
521,35	1228,78
521,55	1300,46
521,75	1273,84
521,95	1314,80
522,15	1232,88
522,35	1282,03
522,55	1257,45
522,75	1257,45
522,95	1271,79
523,14	1175,53
523,34	1241,07
523,54	1222,64
523,74	1261,55
523,94	1249,26
524,14	1243,12
524,34	1279,98
524,54	1290,22
524,73	1253,36
524,93	1259,50
525,13	1314,80
525,33	1284,08
525,53	1279,98
525,73	1275,88
525,93	1267,69
526,13	1320,94
526,32	1374,19
526,52	1327,08
526,72	1269,74
526,92	1265,64
527,12	1290,22
527,32	1320,94
527,52	1202,16
527,71	1345,52
527,91	1222,64
528,11	1292,27
528,31	1296,36
528,51	1253,36
528,71	1245,16
528,90	1290,22
529,10	1255,40
529,30	1236,97
529,50	1222,64
529,70	1253,36
529,90	1216,49
530,09	1302,51
530,29	1310,70
530,49	1263,60
530,69	1269,74
530,89	1247,21
531,09	1236,97
531,28	1239,02
531,48	1179,63
531,68	1202,16
531,88	1228,78
532,08	1279,98
532,28	1257,45
532,47	1204,21
532,67	1259,50
532,87	1296,36
533,07	1259,50
533,27	1267,69
533,46	1218,54
533,66	1308,65
533,86	1261,55
534,06	1187,82
534,26	1335,28
534,45	1298,41
534,65	1290,22
534,85	1269,74
535,05	1222,64
535,25	1243,12
535,44	1329,13
535,64	1273,84
535,84	1265,64
536,04	1298,41
536,24	1279,98
536,43	1308,65
536,63	1265,64
536,83	1308,65
537,03	1351,66
537,22	1316,84
537,42	1267,69
537,62	1273,84
537,82	1265,64
538,02	1241,07
538,21	1239,02
538,41	1300,46
538,61	1296,36
538,81	1282,03
539,00	1277,93
539,20	1304,56
539,40	1232,88
539,60	1200,11
539,79	1304,56
539,99	1337,32
540,19	1247,21
540,39	1247,21
540,58	1288,17
540,78	1282,03
540,98	1306,60
541,18	1200,11
541,37	1282,03
541,57	1282,03
541,77	1320,94
541,97	1241,07
542,16	1257,45
542,36	1269,74
542,56	1185,77
542,76	1232,88
542,95	1251,31
543,15	1290,22
543,35	1296,36
543,54	1193,97
543,74	1343,47
543,94	1267,69
544,14	1263,60
544,33	1236,97
544,53	1322,99
544,73	1271,79
544,93	1314,80
545,12	1290,22
545,32	1298,41
545,52	1318,89
545,71	1249,26
545,91	1243,12
546,11	1255,40
546,30	1292,27
546,50	1353,71
546,70	1279,98
546,90	1273,84
547,09	1249,26
547,29	1222,64
547,49	1312,75
547,68	1296,36
547,88	1265,64
548,08	1245,16
548,27	1314,80
548,47	1251,31
548,67	1193,97
548,87	1216,49
549,06	1259,50
549,26	1263,60
549,46	1257,45
549,65	1294,32
549,85	1296,36
550,05	1288,17
550,24	1259,50
550,44	1208,30
550,64	1208,30
550,83	1263,60
551,03	1267,69
551,23	1286,12
551,42	1257,45
551,62	1247,21
551,82	1314,80
552,01	1212,40
552,21	1277,93
552,41	1277,93
552,60	1269,74
552,80	1191,92
553,00	1214,45
553,19	1269,74
553,39	1277,93
553,59	1261,55
553,78	1298,41
553,98	1300,46
554,17	1353,71
554,37	1271,79
554,57	1325,04
554,76	1198,06
554,96	1239,02
555,16	1279,98
555,35	1284,08
555,55	1267,69
555,75	1241,07
555,94	1255,40
556,14	1249,26
556,33	1259,50
556,53	1171,44
556,73	1298,41
556,92	1265,64
557,12	1294,32
557,32	1271,79
557,51	1232,88
557,71	1251,31
557,90	1279,98
558,10	1216,49
558,30	1236,97
558,49	1259,50
558,69	1282,03
558,88	1271,79
559,08	1234,93
559,28	1304,56
559,47	1271,79
559,67	1347,56
559,86	1234,93
560,06	1189,87
560,26	1275,88
560,45	1284,08
560,65	1288,17
560,84	1329,13
561,04	1241,07
561,24	1335,28
561,43	1253,36
561,63	1284,08
561,82	1335,28
562,02	1322,99
562,22	1187,82
562,41	1304,56
562,61	1284,08
562,80	1179,63
563,00	1306,60
563,19	1249,26
563,39	1284,08
563,59	1222,64
563,78	1290,22
563,98	1224,69
564,17	1306,60
564,37	1228,78
564,56	1226,73
564,76	1275,88
564,96	1196,01
565,15	1208,30
565,35	1286,12
565,54	1277,93
565,74	1193,97
565,93	1226,73
566,13	1210,35
566,32	1306,60
566,52	1198,06
566,71	1300,46
566,91	1241,07
567,11	1269,74
567,30	1277,93
567,50	1292,27
567,69	1310,70
567,89	1265,64
568,08	1339,37
568,28	1183,73
568,47	1318,89
568,67	1239,02
568,86	1247,21
569,06	1265,64
569,25	1218,54
569,45	1253,36
569,64	1206,25
569,84	1208,30
570,04	1306,60
570,23	1210,35
570,43	1320,94
570,62	1259,50
570,82	1257,45
571,01	1298,41
571,21	1214,45
571,40	1277,93
571,60	1222,64
571,79	1239,02
571,99	1179,63
572,18	1239,02
572,38	1288,17
572,57	1206,25
572,77	1341,42
572,96	1234,93
573,16	1247,21
573,35	1206,25
573,55	1261,55
573,74	1204,21
573,94	1359,85
574,13	1273,84
574,33	1290,22
574,52	1304,56
574,71	1288,17
574,91	1263,60
575,10	1284,08
575,30	1210,35
575,49	1259,50
575,69	1306,60
575,88	1263,60
576,08	1224,69
576,27	1255,40
576,47	1202,16
576,66	1279,98
576,86	1288,17
577,05	1249,26
577,25	1183,73
577,44	1325,04
577,64	1243,12
577,83	1239,02
578,02	1261,55
578,22	1269,74
578,41	1187,82
578,61	1253,36
578,80	1288,17
579,00	1290,22
579,19	1284,08
579,39	1228,78
579,58	1294,32
579,77	1257,45
579,97	1255,40
580,16	1236,97
580,36	1247,21
580,55	1300,46
580,75	1239,02
580,94	1304,56
581,13	1296,36
581,33	1300,46
581,52	1206,25
581,72	1239,02
581,91	1243,12
582,11	1255,40
582,30	1304,56
582,49	1292,27
582,69	1230,83
582,88	1310,70
583,08	1267,69
583,27	1314,80
583,47	1273,84
583,66	1234,93
583,85	1245,16
584,05	1310,70
584,24	1265,64
584,44	1312,75
584,63	1265,64
584,82	1318,89
585,02	1236,97
585,21	1286,12
585,41	1302,51
585,60	1224,69
585,79	1279,98
585,99	1318,89
586,18	1259,50
586,37	1218,54
586,57	1290,22
586,76	1300,46
586,96	1294,32
587,15	1294,32
587,34	1273,84
587,54	1226,73
587,73	1224,69
587,93	1206,25
588,12	1292,27
588,31	1284,08
588,51	1271,79
588,70	1181,68
588,89	1228,78
589,09	1310,70
589,28	1290,22
589,47	1214,45
589,67	1261,55
589,86	1284,08
590,06	1239,02
590,25	1245,16
590,44	1257,45
590,64	1279,98
590,83	1243,12
591,02	1325,04
591,22	1241,07
591,41	1245,16
591,60	1304,56
591,80	1288,17
591,99	1271,79
592,18	1327,08
592,38	1206,25
592,57	1277,93
592,76	1269,74
592,96	1226,73
593,15	1216,49
593,34	1239,02
593,54	1228,78
593,73	1284,08
593,92	1234,93
594,12	1286,12
594,31	1230,83
594,50	1320,94
594,70	1298,41
594,89	1236,97
595,08	1294,32
595,28	1239,02
595,47	1282,03
595,66	1275,88
595,86	1269,74
596,05	1290,22
596,24	1277,93
596,43	1251,31
596,63	1216,49
596,82	1257,45
597,01	1249,26
597,21	1220,59
597,40	1279,98
597,59	1329,13
597,79	1282,03
597,98	1265,64
598,17	1279,98
598,36	1271,79
598,56	1273,84
598,75	1261,55
598,94	1249,26
599,14	1282,03
599,33	1232,88
599,52	1228,78
599,71	1196,01
599,91	1341,42
600,10	1366,00
600,29	1273,84
600,48	1257,45
600,68	1234,93
600,87	1196,01
601,06	1232,88
601,26	1214,45
601,45	1228,78
601,64	1327,08
601,83	1306,60
602,03	1232,88
602,22	1249,26
602,41	1253,36
602,60	1294,32
602,80	1208,30
602,99	1320,94
603,18	1243,12
603,37	1263,60
603,57	1308,65
603,76	1292,27
603,95	1232,88
604,14	1232,88
604,34	1200,11
604,53	1331,18
604,72	1196,01
604,91	1296,36
605,10	1277,93
605,30	1279,98
605,49	1290,22
605,68	1308,65
605,87	1234,93
606,07	1312,75
606,26	1261,55
606,45	1318,89
606,64	1296,36
606,84	1265,64
607,03	1261,55
607,22	1216,49
607,41	1370,09
607,60	1286,12
607,80	1271,79
607,99	1279,98
608,18	1265,64
608,37	1253,36
608,56	1255,40
608,76	1302,51
608,95	1206,25
609,14	1204,21
609,33	1335,28
609,52	1284,08
609,72	1204,21
609,91	1310,70
610,10	1249,26
610,29	1263,60
610,48	1269,74
610,68	1245,16
610,87	1253,36
611,06	1376,24
611,25	1273,84
611,44	1230,83
611,63	1267,69
611,83	1298,41
612,02	1286,12
612,21	1208,30
612,40	1318,89
612,59	1263,60
612,79	1222,64
612,98	1269,74
613,17	1247,21
613,36	1255,40
613,55	1310,70
613,74	1222,64
613,93	1265,64
614,13	1251,31
614,32	1239,02
614,51	1273,84
614,70	1273,84
614,89	1273,84
615,08	1275,88
615,28	1232,88
615,47	1308,65
615,66	1212,40
615,85	1232,88
616,04	1302,51
616,23	1216,49
616,42	1232,88
616,62	1325,04
616,81	1333,23
617,00	1228,78
617,19	1245,16
617,38	1277,93
617,57	1236,97
617,76	1220,59
617,95	1236,97
618,15	1290,22
618,34	1292,27
618,53	1210,35
618,72	1282,03
618,91	1239,02
619,10	1259,50
619,29	1294,32
619,48	1316,84
619,68	1296,36
619,87	1232,88
620,06	1294,32
620,25	1279,98
620,44	1265,64
620,63	1257,45
620,82	1269,74
621,01	1239,02
621,20	1175,53
621,39	1325,04
621,59	1249,26
621,78	1253,36
621,97	1292,27
622,16	1230,83
622,35	1251,31
622,54	1226,73
622,73	1267,69
622,92	1265,64
623,11	1247,21
623,30	1245,16
623,49	1275,88
623,68	1239,02
623,88	1214,45
624,07	1318,89
624,26	1275,88
624,45	1298,41
624,64	1247,21
624,83	1298,41
625,02	1245,16
625,21	1282,03
625,40	1259,50
625,59	1294,32
625,78	1263,60
625,97	1261,55
626,16	1349,61
626,35	1339,37
626,54	1316,84
626,74	1265,64
626,93	1232,88
627,12	1282,03
627,31	1329,13
627,50	1243,12
627,69	1314,80
627,88	1249,26
628,07	1251,31
628,26	1302,51
628,45	1333,23
628,64	1284,08
628,83	1290,22
629,02	1226,73
629,21	1300,46
629,40	1202,16
629,59	1308,65
629,78	1216,49
629,97	1308,65
630,16	1298,41
630,35	1222,64
630,54	1318,89
630,73	1288,17
630,92	1396,71
631,11	1261,55
631,30	1267,69
631,49	1290,22
631,68	1359,85
631,87	1435,63
632,06	1484,78
632,25	1384,43
632,44	1480,68
632,63	1327,08
632,82	1415,15
633,01	1378,28
633,20	1421,29
633,39	1511,40
633,58	1447,91
633,77	1396,71
633,96	1449,96
634,15	1462,25
634,34	1681,38
634,53	2039,78
634,72	1667,05
634,91	1452,01
635,10	1417,19
635,29	1802,21
635,48	2054,11
635,67	2117,60
635,86	1953,76
636,05	1708,01
636,24	1578,98
636,43	1505,26
636,62	1449,96
636,81	1370,09
637,00	1357,80
637,19	1355,76
637,38	1327,08
637,57	1292,27
637,76	1357,80
637,95	1275,88
638,14	1275,88
638,33	1265,64
638,52	1271,79
638,71	1339,37
638,89	1224,69
639,08	1312,75
639,27	1380,33
639,46	1220,59
639,65	1253,36
639,84	1310,70
640,03	1320,94
640,22	1224,69
640,41	1255,40
640,60	1277,93
640,79	1247,21
640,98	1179,63
641,17	1290,22
641,36	1282,03
641,55	1302,51
641,74	1308,65
641,92	1294,32
642,11	1263,60
642,30	1349,61
642,49	1298,41
642,68	1322,99
642,87	1286,12
643,06	1198,06
643,25	1257,45
643,44	1277,93
643,63	1224,69
643,82	1218,54
644,00	1255,40
644,19	1298,41
644,38	1284,08
644,57	1320,94
644,76	1294,32
644,95	1251,31
645,14	1245,16
645,33	1275,88
645,52	1251,31
645,71	1210,35
645,89	1284,08
646,08	1284,08
646,27	1310,70
646,46	1247,21
646,65	1269,74
646,84	1343,47
647,03	1257,45
647,22	1279,98
647,40	1316,84
647,59	1200,11
647,78	1241,07
647,97	1329,13
648,16	1265,64
648,35	1296,36
648,54	1322,99
648,73	1202,16
648,91	1286,12
649,10	1243,12
649,29	1269,74
649,48	1236,97
649,67	1290,22
649,86	1245,16
650,05	1222,64
650,23	1292,27
650,42	1243,12
650,61	1275,88
650,80	1243,12
650,99	1306,60
651,18	1257,45
651,36	1208,30
651,55	1337,32
651,74	1247,21
651,93	1290,22
652,12	1212,40
652,31	1226,73
652,49	1286,12
652,68	1267,69
652,87	1241,07
653,06	1255,40
653,25	1366,00
653,44	1282,03
653,62	1148,91
653,81	1322,99
654,00	1222,64
654,19	1230,83
654,38	1173,49
654,56	1286,12
654,75	1198,06
654,94	1310,70
655,13	1245,16
655,32	1243,12
655,51	1232,88
655,69	1202,16
655,88	1310,70
656,07	1257,45
656,26	1232,88
656,45	1259,50
656,63	1312,75
656,82	1187,82
657,01	1259,50
657,20	1220,59
657,38	1257,45
657,57	1210,35
657,76	1306,60
657,95	1267,69
658,14	1239,02
658,32	1257,45
658,51	1290,22
658,70	1286,12
658,89	1282,03
659,08	1245,16
659,26	1308,65
659,45	1232,88
659,64	1173,49
659,83	1269,74
660,01	1198,06
660,20	1208,30
660,39	1204,21
660,58	1290,22
660,76	1279,98
660,95	1245,16
661,14	1241,07
661,33	1185,77
661,51	1198,06
661,70	1226,73
661,89	1265,64
662,08	1290,22
662,26	1259,50
662,45	1259,50
662,64	1196,01
662,83	1265,64
663,01	1249,26
663,20	1341,42
663,39	1327,08
663,58	1261,55
663,76	1257,45
663,95	1263,60
664,14	1232,88
664,32	1290,22
664,51	1273,84
664,70	1243,12
664,89	1247,21
665,07	1273,84
665,26	1345,52
665,45	1196,01
665,64	1273,84
665,82	1288,17
666,01	1306,60
666,20	1243,12
666,38	1261,55
666,57	1294,32
666,76	1275,88
666,95	1277,93
667,13	1288,17
667,32	1282,03
667,51	1335,28
667,69	1304,56
667,88	1257,45
668,07	1253,36
668,25	1284,08
668,44	1366,00
668,63	1255,40
668,81	1277,93
669,00	1257,45
669,19	1294,32
669,38	1189,87
669,56	1292,27
669,75	1265,64
669,94	1263,60
670,12	1277,93
670,31	1185,77
670,50	1286,12
670,68	1259,50
670,87	1241,07
671,06	1230,83
671,24	1255,40
671,43	1259,50
671,62	1230,83
671,80	1175,53
671,99	1314,80
672,18	1292,27
672,36	1290,22
672,55	1236,97
672,74	1255,40
672,92	1279,98
673,11	1239,02
673,29	1271,79
673,48	1247,21
673,67	1255,40
673,85	1208,30
674,04	1247,21
674,23	1290,22
674,41	1239,02
674,60	1255,40
674,79	1234,93
674,97	1339,37
675,16	1265,64
675,34	1331,18
675,53	1271,79
675,72	1247,21
675,90	1347,56
676,09	1296,36
676,28	1296,36
676,46	1363,95
676,65	1302,51
676,83	1277,93
677,02	1200,11
677,21	1298,41
677,39	1273,84
677,58	1279,98
677,77	1210,35
677,95	1292,27
678,14	1257,45
678,32	1230,83
678,51	1222,64
678,70	1282,03
678,88	1277,93
679,07	1296,36
679,25	1296,36
679,44	1349,61
679,63	1202,16
679,81	1333,23
680,00	1236,97
680,18	1279,98
680,37	1269,74
680,55	1298,41
680,74	1345,52
680,93	1335,28
681,11	1314,80
681,30	1292,27
681,48	1249,26
681,67	1255,40
681,85	1271,79
682,04	1265,64
682,23	1265,64
682,41	1288,17
682,60	1320,94
682,78	1263,60
682,97	1241,07
683,15	1204,21
683,34	1253,36
683,53	1292,27
683,71	1273,84
683,90	1234,93
684,08	1288,17
684,27	1335,28
684,45	1304,56
684,64	1310,70
684,82	1222,64
685,01	1249,26
685,19	1279,98
685,38	1275,88
685,57	1257,45
685,75	1308,65
685,94	1251,31
686,12	1314,80
686,31	1300,46
686,49	1263,60
686,68	1245,16
686,86	1255,40
687,05	1245,16
687,23	1212,40
687,42	1302,51
687,60	1318,89
687,79	1327,08
687,97	1269,74
688,16	1226,73
688,34	1263,60
688,53	1247,21
688,71	1249,26
688,90	1292,27
689,08	1269,74
689,27	1234,93
689,45	1335,28
689,64	1290,22
689,82	1331,18
690,01	1243,12
690,19	1298,41
690,38	1179,63
690,56	1306,60
690,75	1183,73
690,93	1333,23
691,12	1228,78
691,30	1249,26
691,49	1386,47
691,67	1308,65
691,86	1277,93
692,04	1265,64
692,23	1263,60
692,41	1288,17
692,60	1230,83
692,78	1261,55
692,97	1271,79
693,15	1218,54
693,34	1249,26
693,52	1228,78
693,71	1279,98
693,89	1253,36
694,08	1296,36
694,26	1263,60
694,44	1275,88
694,63	1306,60
694,81	1224,69
695,00	1329,13
695,18	1263,60
695,37	1286,12
695,55	1337,32
695,74	1320,94
695,92	1261,55
696,10	1259,50
696,29	1306,60
696,47	1275,88
696,66	1241,07
696,84	1310,70
697,03	1196,01
697,21	1296,36
697,40	1349,61
697,58	1249,26
697,76	1286,12
697,95	1294,32
698,13	1249,26
698,32	1204,21
698,50	1292,27
698,68	1329,13
698,87	1318,89
699,05	1331,18
699,24	1220,59
699,42	1249,26
699,61	1269,74
699,79	1286,12
699,97	1275,88
700,16	1210,35
700,34	1255,40
700,53	1247,21
700,71	1316,84
700,89	1263,60
701,08	1271,79
701,26	1204,21
701,45	1355,76
701,63	1267,69
701,81	1271,79
702,00	1208,30
702,18	1224,69
702,37	1257,45
702,55	1224,69
702,73	1286,12
702,92	1210,35
703,10	1251,31
703,28	1275,88
703,47	1249,26
703,65	1239,02
703,84	1310,70
704,02	1273,84
704,20	1339,37
704,39	1251,31
704,57	1279,98
704,75	1189,87
704,94	1239,02
705,12	1310,70
705,30	1255,40
705,49	1273,84
705,67	1333,23
705,86	1261,55
706,04	1261,55
706,22	1236,97
706,41	1327,08
706,59	1236,97
706,77	1267,69
706,96	1261,55
707,14	1261,55
707,32	1222,64
707,51	1347,56
707,69	1224,69
707,87	1247,21
708,06	1261,55
708,24	1204,21
708,42	1202,16
708,61	1265,64
708,79	1349,61
708,97	1327,08
709,16	1150,96
709,34	1271,79
709,52	1251,31
709,71	1261,55
709,89	1251,31
710,07	1212,40
710,26	1312,75
710,44	1236,97
710,62	1284,08
710,80	1245,16
710,99	1241,07
711,17	1263,60
711,35	1273,84
711,54	1290,22
711,72	1257,45
711,90	1259,50
712,09	1232,88
712,27	1239,02
712,45	1333,23
712,63	1255,40
712,82	1282,03
713,00	1269,74
713,18	1259,50
713,37	1290,22
713,55	1284,08
713,73	1298,41
713,91	1286,12
714,10	1210,35
714,28	1228,78
714,46	1261,55
714,65	1253,36
714,83	1347,56
715,01	1288,17
715,19	1300,46
715,38	1261,55
715,56	1322,99
715,74	1290,22
715,92	1290,22
716,11	1294,32
716,29	1230,83
716,47	1202,16
716,65	1232,88
716,84	1255,40
717,02	1322,99
717,20	1255,40
717,38	1302,51
717,57	1267,69
717,75	1308,65
717,93	1300,46
718,11	1249,26
718,30	1296,36
718,48	1210,35
718,66	1249,26
718,84	1277,93
719,03	1206,25
719,21	1234,93
719,39	1243,12
719,57	1322,99
719,75	1249,26
719,94	1314,80
720,12	1247,21
720,30	1257,45
720,48	1206,25
720,67	1257,45
720,85	1245,16
721,03	1243,12
721,21	1245,16
721,39	1267,69
721,58	1247,21
721,76	1333,23
721,94	1236,97
722,12	1267,69
722,30	1261,55
722,49	1279,98
722,67	1257,45
722,85	1236,97
723,03	1255,40
723,21	1277,93
723,40	1249,26
723,58	1230,83
723,76	1230,83
723,94	1318,89
724,12	1255,40
724,30	1277,93
724,49	1341,42
724,67	1261,55
724,85	1302,51
725,03	1241,07
725,21	1304,56
725,40	1310,70
725,58	1292,27
725,76	1245,16
725,94	1243,12
726,12	1232,88
726,30	1247,21
726,49	1265,64
726,67	1224,69
726,85	1288,17
727,03	1286,12
727,21	1198,06
727,39	1263,60
727,57	1269,74
727,76	1253,36
727,94	1257,45
728,12	1294,32
728,30	1251,31
728,48	1316,84
728,66	1193,97
728,84	1255,40
729,03	1191,92
729,21	1224,69
729,39	1239,02
729,57	1265,64
729,75	1261,55
729,93	1269,74
730,11	1304,56
730,30	1271,79
730,48	1290,22
730,66	1265,64
730,84	1331,18
731,02	1269,74
731,20	1298,41
731,38	1251,31
731,56	1284,08
731,74	1308,65
731,93	1232,88
732,11	1300,46
732,29	1271,79
732,47	1271,79
732,65	1306,60
732,83	1257,45
733,01	1290,22
733,19	1208,30
733,37	1322,99
733,56	1226,73
733,74	1196,01
733,92	1320,94
734,10	1173,49
734,28	1253,36
734,46	1265,64
734,64	1277,93
734,82	1296,36
735,00	1316,84
735,18	1286,12
735,36	1216,49
735,54	1263,60
735,73	1300,46
735,91	1251,31
736,09	1232,88
736,27	1304,56
736,45	1255,40
736,63	1296,36
736,81	1212,40
736,99	1210,35
737,17	1255,40
737,35	1257,45
737,53	1253,36
737,71	1296,36
737,89	1288,17
738,07	1206,25
738,25	1275,88
738,43	1175,53
738,61	1245,16
738,80	1269,74
738,98	1239,02
739,16	1257,45
739,34	1284,08
739,52	1302,51
739,70	1261,55
739,88	1300,46
740,06	1236,97
740,24	1273,84
740,42	1241,07
740,60	1306,60
740,78	1314,80
740,96	1366,00
741,14	1173,49
741,32	1271,79
741,50	1263,60
741,68	1275,88
741,86	1167,34
742,04	1247,21
742,22	1265,64
742,40	1236,97
742,58	1314,80
742,76	1316,84
742,94	1253,36
743,12	1298,41
743,30	1267,69
743,48	1267,69
743,66	1282,03
743,84	1302,51
744,02	1273,84
744,20	1249,26
744,38	1298,41
744,56	1320,94
744,74	1310,70
744,92	1249,26
745,10	1216,49
745,28	1275,88
745,46	1263,60
745,64	1290,22
745,82	1282,03
746,00	1302,51
746,18	1275,88
746,36	1224,69
746,54	1206,25
746,72	1290,22
746,90	1220,59
747,08	1286,12
747,26	1275,88
747,44	1249,26
747,62	1288,17
747,80	1306,60
747,98	1198,06
748,15	1232,88
748,33	1275,88
748,51	1288,17
748,69	1208,30
748,87	1234,93
749,05	1261,55
749,23	1249,26
749,41	1333,23
749,59	1214,45
749,77	1257,45
749,95	1208,30
750,13	1247,21
750,31	1292,27
750,49	1253,36
750,67	1222,64
750,85	1294,32
751,03	1282,03
751,20	1298,41
751,38	1290,22
751,56	1218,54
751,74	1290,22
751,92	1191,92
752,10	1292,27
752,28	1312,75
752,46	1282,03
752,64	1306,60
752,82	1277,93
753,00	1167,34
753,18	1288,17
753,35	1261,55
753,53	1325,04
753,71	1216,49
753,89	1212,40
754,07	1294,32
754,25	1282,03
754,43	1269,74
754,61	1292,27
754,79	1294,32
754,97	1279,98
755,14	1263,60
755,32	1259,50
755,50	1249,26
755,68	1314,80
755,86	1228,78
756,04	1224,69
756,22	1218,54
756,40	1306,60
756,57	1318,89
756,75	1286,12
756,93	1290,22
757,11	1271,79
757,29	1306,60
757,47	1298,41
757,65	1220,59
757,82	1275,88
758,00	1210,35
758,18	1261,55
758,36	1279,98
758,54	1298,41
758,72	1286,12
758,90	1253,36
759,07	1269,74
759,25	1222,64
759,43	1298,41
759,61	1265,64
759,79	1271,79
759,97	1267,69
760,15	1300,46
760,32	1245,16
760,50	1314,80
760,68	1263,60
760,86	1243,12
761,04	1288,17
761,22	1259,50
761,39	1296,36
761,57	1226,73
761,75	1247,21
761,93	1294,32
762,11	1224,69
762,28	1255,40
762,46	1224,69
762,64	1249,26
762,82	1234,93
763,00	1273,84
763,18	1288,17
763,35	1230,83
763,53	1296,36
763,71	1230,83
763,89	1263,60
764,07	1277,93
764,24	1232,88
764,42	1232,88
764,60	1271,79
764,78	1243,12
764,96	1298,41
765,13	1296,36
765,31	1257,45
765,49	1282,03
765,67	1257,45
765,84	1183,73
766,02	1357,80
766,20	1218,54
766,38	1259,50
766,56	1202,16
766,73	1247,21
766,91	1230,83
767,09	1349,61
767,27	1314,80
767,44	1234,93
767,62	1337,32
767,80	1249,26
767,98	1241,07
768,15	1241,07
768,33	1300,46
768,51	1271,79
768,69	1298,41
768,87	1241,07
769,04	1230,83
769,22	1282,03
769,40	1282,03
769,58	1288,17
769,75	1208,30
769,93	1234,93
770,11	1318,89
770,28	1214,45
770,46	1314,80
770,64	1232,88
770,82	1275,88
770,99	1296,36
771,17	1284,08
771,35	1304,56
771,53	1253,36
771,70	1290,22
771,88	1232,88
772,06	1273,84
772,23	1353,71
772,41	1239,02
772,59	1206,25
772,77	1263,60
772,94	1255,40
773,12	1288,17
773,30	1214,45
773,47	1343,47
773,65	1253,36
773,83	1279,98
774,01	1300,46
774,18	1282,03
774,36	1271,79
774,54	1226,73
774,71	1251,31
774,89	1294,32
775,07	1245,16
775,24	1191,92
775,42	1265,64
775,60	1259,50
775,78	1216,49
775,95	1320,94
776,13	1302,51
776,31	1300,46
776,48	1241,07
776,66	1245,16
776,84	1277,93
777,01	1243,12
777,19	1253,36
777,37	1306,60
777,54	1261,55
777,72	1333,23
777,90	1249,26
778,07	1271,79
778,25	1265,64
778,43	1294,32
778,60	1259,50
778,78	1241,07
778,96	1230,83
779,13	1314,80
779,31	1243,12
779,49	1255,40
779,66	1290,22
779,84	1208,30
780,01	1191,92
780,19	1308,65
780,37	1241,07
780,54	1275,88
780,72	1275,88
780,90	1312,75
781,07	1271,79
781,25	1265,64
781,43	1247,21
781,60	1261,55
781,78	1249,26
781,95	1241,07
782,13	1208,30
782,31	1310,70
782,48	1353,71
782,66	1304,56
782,83	1157,10
783,01	1282,03
783,19	1263,60
783,36	1255,40
783,54	1198,06
783,72	1275,88
783,89	1257,45
784,07	1312,75
784,24	1251,31
784,42	1196,01
784,60	1239,02
784,77	1282,03
784,95	1310,70
785,12	1198,06
785,30	1257,45
785,47	1247,21
785,65	1286,12
785,83	1302,51
786,00	1245,16
786,18	1300,46
786,35	1306,60
786,53	1259,50
786,71	1308,65
786,88	1181,68
787,06	1255,40
787,23	1282,03
787,41	1239,02
787,58	1320,94
787,76	1298,41
787,94	1255,40
788,11	1198,06
788,29	1298,41
788,46	1273,84
788,64	1331,18
788,81	1257,45
788,99	1214,45
789,16	1308,65
789,34	1300,46
789,52	1279,98
789,69	1349,61
789,87	1273,84
790,04	1236,97
790,22	1329,13
790,39	1261,55
790,57	1226,73
790,74	1263,60
790,92	1226,73
791,09	1191,92
791,27	1302,51
791,44	1284,08
791,62	1341,42
791,79	1333,23
791,97	1269,74
792,15	1236,97
792,32	1212,40
792,50	1294,32
792,67	1249,26
792,85	1193,97
793,02	1249,26
793,20	1224,69
793,37	1292,27
793,55	1304,56
793,72	1265,64
793,90	1298,41
794,07	1247,21
794,25	1265,64
794,42	1320,94
794,60	1255,40
794,77	1261,55
794,95	1298,41
795,12	1257,45
795,30	1304,56
795,47	1247,21
795,65	1206,25
795,82	1257,45
796,00	1294,32
796,17	1253,36
796,34	1288,17
796,52	1273,84
796,69	1312,75
796,87	1277,93
797,04	1187,82
797,22	1236,97
797,39	1249,26
797,57	1243,12
797,74	1343,47
797,92	1241,07
798,09	1255,40
798,27	1247,21
798,44	1247,21
798,62	1202,16
798,79	1288,17
798,96	1267,69
799,14	1312,75
799,31	1351,66
799,49	1267,69
799,66	1261,55
799,84	1241,07
800,01	1251,31
800,19	1310,70
800,36	1275,88
800,53	1275,88
800,71	1228,78
800,88	1259,50
801,06	1277,93
801,23	1198,06
801,41	1263,60
801,58	1191,92
801,75	1241,07
801,93	1345,52
802,10	1257,45
802,28	1234,93
802,45	1298,41
802,63	1249,26
802,80	1318,89
802,97	1257,45
803,15	1298,41
803,32	1282,03
803,50	1273,84
803,67	1337,32
803,84	1282,03
804,02	1263,60
804,19	1279,98
804,37	1208,30
804,54	1216,49
804,71	1345,52
804,89	1286,12
805,06	1282,03
805,24	1337,32
805,41	1249,26
805,58	1306,60
805,76	1286,12
805,93	1259,50
806,10	1275,88
806,28	1294,32
806,45	1253,36
806,63	1232,88
806,80	1257,45
806,97	1187,82
807,15	1290,22
807,32	1234,93
807,49	1339,37
807,67	1259,50
807,84	1239,02
808,01	1224,69
808,19	1236,97
808,36	1314,80
808,54	1257,45
808,71	1218,54
808,88	1290,22
809,06	1251,31
809,23	1333,23
809,40	1279,98
809,58	1286,12
809,75	1234,93
809,92	1210,35
810,10	1300,46
810,27	1216,49
810,44	1216,49
810,62	1304,56
810,79	1243,12
810,96	1284,08
811,14	1277,93
811,31	1212,40
811,48	1253,36
811,66	1245,16
811,83	1232,88
812,00	1230,83
812,18	1302,51
812,35	1325,04
812,52	1267,69
812,69	1255,40
812,87	1267,69
813,04	1316,84
813,21	1253,36
813,39	1265,64
813,56	1230,83
813,73	1253,36
813,91	1234,93
814,08	1294,32
814,25	1236,97
814,42	1259,50
814,60	1290,22
814,77	1279,98
814,94	1259,50
815,12	1298,41
815,29	1232,88
815,46	1284,08
815,63	1191,92
815,81	1216,49
815,98	1300,46
816,15	1236,97
816,33	1304,56
816,50	1273,84
816,67	1257,45
816,84	1220,59
817,02	1255,40
817,19	1239,02
817,36	1296,36
817,53	1257,45
817,71	1163,25
817,88	1265,64
818,05	1294,32
818,22	1251,31
818,40	1241,07
818,57	1337,32
818,74	1220,59
818,91	1277,93
819,09	1302,51
819,26	1255,40
819,43	1191,92
819,60	1247,21
819,78	1210,35
819,95	1228,78
820,12	1193,97
820,29	1279,98
820,47	1257,45
820,64	1200,11
820,81	1214,45
820,98	1265,64
821,15	1275,88
821,33	1218,54
821,50	1261,55
821,67	1163,25
821,84	1310,70
822,02	1222,64
822,19	1331,18
822,36	1189,87
822,53	1220,59
822,70	1314,80
822,88	1251,31
823,05	1243,12
823,22	1327,08
823,39	1243,12
823,56	1304,56
823,74	1241,07
823,91	1224,69
824,08	1253,36
824,25	1286,12
824,42	1243,12
824,60	1245,16
824,77	1290,22
824,94	1257,45
825,11	1247,21
825,28	1236,97
825,45	1245,16
825,63	1234,93
825,80	1239,02
825,97	1269,74
826,14	1230,83
826,31	1216,49
826,48	1277,93
826,66	1210,35
826,83	1253,36
827,00	1218,54
827,17	1216,49
827,34	1245,16
827,51	1277,93
827,69	1249,26
827,86	1327,08
828,03	1220,59
828,20	1300,46
828,37	1226,73
828,54	1322,99
828,71	1247,21
828,89	1247,21
829,06	1249,26
829,23	1318,89
829,40	1249,26
829,57	1249,26
829,74	1230,83
829,91	1292,27
830,09	1224,69
830,26	1329,13
830,43	1263,60
830,60	1341,42
830,77	1292,27
830,94	1165,29
831,11	1312,75
831,28	1222,64
831,46	1322,99
831,63	1230,83
831,80	1245,16
831,97	1232,88
832,14	1204,21
832,31	1261,55
832,48	1241,07
832,65	1306,60
832,82	1345,52
832,99	1273,84
833,17	1257,45
833,34	1251,31
833,51	1259,50
833,68	1284,08
833,85	1245,16
834,02	1187,82
834,19	1368,04
834,36	1304,56
834,53	1347,56
834,70	1380,33
834,87	1337,32
835,04	1282,03
835,22	1310,70
835,39	1249,26
835,56	1232,88
835,73	1226,73
835,90	1333,23
836,07	1279,98
836,24	1284,08
836,41	1306,60
836,58	1255,40
836,75	1363,95
836,92	1306,60
837,09	1255,40
837,26	1306,60
837,43	1232,88
837,60	1245,16
837,77	1241,07
837,94	1308,65
838,12	1232,88
838,29	1218,54
838,46	1318,89
838,63	1241,07
838,80	1296,36
838,97	1239,02
839,14	1261,55
839,31	1290,22
839,48	1216,49
839,65	1304,56
839,82	1273,84
839,99	1279,98
840,16	1325,04
840,33	1341,42
840,50	1259,50
840,67	1230,83
840,84	1273,84
841,01	1304,56
841,18	1253,36
841,35	1255,40
841,52	1247,21
841,69	1327,08
841,86	1249,26
842,03	1335,28
842,20	1273,84
842,37	1327,08
842,54	1275,88
842,71	1294,32
842,88	1300,46
843,05	1273,84
843,22	1277,93
843,39	1300,46
843,56	1224,69
843,73	1331,18
843,90	1290,22
844,07	1314,80
844,24	1218,54
844,41	1245,16
844,58	1265,64
844,75	1200,11
844,92	1279,98
845,09	1286,12
845,26	1279,98
845,43	1218,54
845,60	1214,45
845,77	1296,36
845,94	1271,79
846,10	1314,80
846,27	1298,41
846,44	1279,98
846,61	1228,78
846,78	1363,95
846,95	1181,68
847,12	1243,12
847,29	1290,22
847,46	1181,68
847,63	1257,45
847,80	1247,21
847,97	1271,79
848,14	1257,45
848,31	1316,84
848,48	1183,73
848,65	1204,21
848,82	1279,98
848,98	1282,03
849,15	1228,78
849,32	1273,84
849,49	1232,88
849,66	1265,64
849,83	1212,40
850,00	1284,08
850,17	1304,56
850,34	1191,92
850,51	1312,75
850,68	1284,08
850,85	1296,36
851,01	1263,60
851,18	1204,21
851,35	1249,26
851,52	1308,65
851,69	1288,17
851,86	1173,49
852,03	1202,16
852,20	1261,55
852,37	1263,60
852,53	1361,90
852,70	1265,64
852,87	1290,22
853,04	1224,69
853,21	1263,60
853,38	1243,12
853,55	1124,33
853,72	1290,22
853,89	1208,30
854,05	1273,84
854,22	1226,73
854,39	1273,84
854,56	1218,54
854,73	1292,27
854,90	1239,02
855,07	1259,50
855,23	1255,40
855,40	1265,64
855,57	1288,17
855,74	1300,46
855,91	1265,64
856,08	1277,93
856,25	1193,97
856,41	1308,65
856,58	1234,93
856,75	1193,97
856,92	1226,73
857,09	1329,13
857,26	1339,37
857,42	1357,80
857,59	1271,79
857,76	1228,78
857,93	1257,45
858,10	1253,36
858,27	1275,88
858,43	1279,98
858,60	1224,69
858,77	1179,63
858,94	1236,97
859,11	1239,02
859,27	1292,27
859,44	1300,46
859,61	1288,17
859,78	1269,74
859,95	1263,60
860,12	1226,73
860,28	1245,16
860,45	1327,08
860,62	1318,89
860,79	1298,41
860,95	1247,21
861,12	1247,21
861,29	1261,55
861,46	1146,86
861,63	1273,84
861,79	1263,60
861,96	1241,07
862,13	1245,16
862,30	1310,70
862,47	1239,02
862,63	1286,12
862,80	1273,84
862,97	1304,56
863,14	1286,12
863,30	1279,98
863,47	1222,64
863,64	1265,64
863,81	1212,40
863,97	1314,80
864,14	1327,08
864,31	1239,02
864,48	1263,60
864,65	1267,69
864,81	1198,06
864,98	1279,98
865,15	1282,03
865,32	1327,08
865,48	1251,31
865,65	1269,74
865,82	1269,74
865,98	1243,12
866,15	1298,41
866,32	1218,54
866,49	1290,22
866,65	1226,73
866,82	1230,83
866,99	1210,35
867,16	1255,40
867,32	1239,02
867,49	1308,65
867,66	1261,55
867,83	1314,80
867,99	1320,94
868,16	1241,07
868,33	1234,93
868,49	1288,17
868,66	1175,53
868,83	1275,88
868,99	1241,07
869,16	1298,41
869,33	1241,07
869,50	1230,83
869,66	1245,16
869,83	1224,69
870,00	1267,69
870,16	1232,88
870,33	1265,64
870,50	1232,88
870,66	1251,31
870,83	1320,94
871,00	1335,28
871,17	1224,69
871,33	1296,36
871,50	1241,07
871,67	1239,02
871,83	1284,08
872,00	1286,12
872,17	1335,28
872,33	1286,12
872,50	1222,64
872,67	1275,88
872,83	1243,12
873,00	1236,97
873,17	1282,03
873,33	1247,21
873,50	1228,78
873,67	1320,94
873,83	1175,53
874,00	1202,16
874,16	1310,70
874,33	1204,21
874,50	1200,11
874,66	1243,12
874,83	1222,64
875,00	1271,79
875,16	1290,22
875,33	1251,31
875,50	1193,97
875,66	1255,40
875,83	1267,69
875,99	1185,77
876,16	1298,41
876,33	1230,83
876,49	1247,21
876,66	1187,82
876,83	1277,93
876,99	1306,60
877,16	1132,53
877,32	1312,75
877,49	1316,84
877,66	1249,26
877,82	1189,87
877,99	1263,60
878,15	1296,36
878,32	1253,36
878,49	1259,50
878,65	1304,56
878,82	1308,65
878,98	1173,49
879,15	1322,99
879,32	1337,32
879,48	1302,51
879,65	1345,52
879,81	1193,97
879,98	1331,18
880,15	1251,31
880,31	1263,60
880,48	1243,12
880,64	1351,66
880,81	1286,12
880,97	1220,59
881,14	1279,98
881,31	1306,60
881,47	1216,49
881,64	1269,74
881,80	1259,50
881,97	1263,60
882,13	1271,79
882,30	1284,08
882,47	1259,50
882,63	1251,31
882,80	1255,40
882,96	1288,17
883,13	1292,27
883,29	1214,45
883,46	1198,06
883,62	1286,12
883,79	1226,73
883,95	1273,84
884,12	1271,79
884,29	1273,84
884,45	1263,60
884,62	1273,84
884,78	1236,97
884,95	1202,16
885,11	1249,26
885,28	1253,36
885,44	1265,64
885,61	1325,04
885,77	1275,88
885,94	1183,73
886,10	1257,45
886,27	1271,79
886,43	1345,52
886,60	1277,93
886,76	1243,12
886,93	1271,79
887,09	1279,98
887,26	1325,04
887,42	1247,21
887,59	1220,59
887,75	1241,07
887,92	1243,12
888,08	1296,36
888,25	1345,52
888,41	1226,73
888,58	1282,03
888,74	1288,17
888,91	1220,59
>>>>>End Processed Spectral Data<<<<<
