SpectraSuite Data File
++++++++++++++++++++++++++++++++++++
Date: Sun Apr 03 18:45:34 CEST 2016
User: root
Dark Spectrum Present: No
Reference Spectrum Present: No
Number of Sampled Component Spectra: 1
Spectrometers: USB4C02835
Integration Time (usec): 10000 (USB4C02835)
Spectra Averaged: 1 (USB4C02835)
Boxcar Smoothing: 0 (USB4C02835)
Correct for Electrical Dark: No (USB4C02835)
Strobe/Lamp Enabled: No (USB4C02835)
Correct for Detector Non-linearity: No (USB4C02835)
Correct for Stray Light: No (USB4C02835)
Number of Pixels in Processed Spectrum: 3648
>>>>>Begin Processed Spectral Data<<<<<
177,47	1306,60
177,69	1306,60
177,91	1306,60
178,13	1292,27
178,36	1222,64
178,58	1310,70
178,80	1259,50
179,02	1322,99
179,24	1243,12
179,46	1294,32
179,68	1361,90
179,90	1298,41
180,13	1296,36
180,35	1220,59
180,57	1271,79
180,79	1243,12
181,01	1318,89
181,23	1261,55
181,45	1296,36
181,67	1286,12
181,90	1312,75
182,12	1267,69
182,34	1243,12
182,56	1282,03
182,78	1302,51
183,00	1255,40
183,22	1259,50
183,44	1224,69
183,66	1247,21
183,89	1257,45
184,11	1261,55
184,33	1275,88
184,55	1226,73
184,77	1302,51
184,99	1243,12
185,21	1288,17
185,43	1259,50
185,65	1318,89
185,87	1247,21
186,10	1304,56
186,32	1228,78
186,54	1247,21
186,76	1273,84
186,98	1304,56
187,20	1290,22
187,42	1269,74
187,64	1279,98
187,86	1284,08
188,08	1241,07
188,30	1273,84
188,52	1230,83
188,75	1349,61
188,97	1261,55
189,19	1232,88
189,41	1269,74
189,63	1267,69
189,85	1208,30
190,07	1267,69
190,29	1253,36
190,51	1271,79
190,73	1275,88
190,95	1335,28
191,17	1347,56
191,39	1220,59
191,61	1314,80
191,84	1265,64
192,06	1312,75
192,28	1249,26
192,50	1298,41
192,72	1191,92
192,94	1279,98
193,16	1265,64
193,38	1212,40
193,60	1286,12
193,82	1271,79
194,04	1241,07
194,26	1241,07
194,48	1249,26
194,70	1255,40
194,92	1277,93
195,14	1282,03
195,36	1196,01
195,58	1234,93
195,80	1277,93
196,02	1257,45
196,24	1210,35
196,46	1261,55
196,69	1333,23
196,91	1277,93
197,13	1271,79
197,35	1286,12
197,57	1230,83
197,79	1226,73
198,01	1296,36
198,23	1255,40
198,45	1294,32
198,67	1284,08
198,89	1286,12
199,11	1257,45
199,33	1222,64
199,55	1284,08
199,77	1187,82
199,99	1351,66
200,21	1241,07
200,43	1259,50
200,65	1282,03
200,87	1212,40
201,09	1275,88
201,31	1234,93
201,53	1279,98
201,75	1261,55
201,97	1206,25
202,19	1304,56
202,41	1265,64
202,63	1249,26
202,85	1302,51
203,07	1302,51
203,29	1230,83
203,51	1236,97
203,73	1279,98
203,95	1298,41
204,17	1355,76
204,39	1259,50
204,61	1267,69
204,83	1267,69
205,05	1234,93
205,27	1245,16
205,49	1351,66
205,71	1308,65
205,93	1261,55
206,15	1288,17
206,37	1153,01
206,59	1370,09
206,81	1245,16
207,03	1259,50
207,25	1316,84
207,47	1312,75
207,69	1284,08
207,91	1288,17
208,13	1331,18
208,34	1284,08
208,56	1275,88
208,78	1292,27
209,00	1236,97
209,22	1304,56
209,44	1284,08
209,66	1259,50
209,88	1267,69
210,10	1241,07
210,32	1290,22
210,54	1333,23
210,76	1288,17
210,98	1292,27
211,20	1304,56
211,42	1282,03
211,64	1282,03
211,86	1267,69
212,08	1296,36
212,30	1320,94
212,52	1226,73
212,74	1294,32
212,96	1224,69
213,17	1224,69
213,39	1302,51
213,61	1318,89
213,83	1294,32
214,05	1236,97
214,27	1347,56
214,49	1304,56
214,71	1298,41
214,93	1292,27
215,15	1261,55
215,37	1308,65
215,59	1243,12
215,81	1236,97
216,03	1261,55
216,24	1290,22
216,46	1267,69
216,68	1253,36
216,90	1322,99
217,12	1372,14
217,34	1314,80
217,56	1277,93
217,78	1263,60
218,00	1318,89
218,22	1239,02
218,44	1247,21
218,66	1263,60
218,87	1241,07
219,09	1165,29
219,31	1214,45
219,53	1208,30
219,75	1294,32
219,97	1232,88
220,19	1212,40
220,41	1251,31
220,63	1284,08
220,85	1228,78
221,06	1314,80
221,28	1294,32
221,50	1282,03
221,72	1269,74
221,94	1275,88
222,16	1202,16
222,38	1251,31
222,60	1230,83
222,82	1224,69
223,03	1236,97
223,25	1284,08
223,47	1282,03
223,69	1325,04
223,91	1261,55
224,13	1230,83
224,35	1333,23
224,57	1247,21
224,78	1273,84
225,00	1249,26
225,22	1286,12
225,44	1320,94
225,66	1265,64
225,88	1271,79
226,10	1261,55
226,32	1308,65
226,53	1308,65
226,75	1198,06
226,97	1265,64
227,19	1249,26
227,41	1292,27
227,63	1204,21
227,85	1273,84
228,06	1234,93
228,28	1304,56
228,50	1228,78
228,72	1341,42
228,94	1261,55
229,16	1257,45
229,37	1263,60
229,59	1245,16
229,81	1282,03
230,03	1241,07
230,25	1322,99
230,47	1200,11
230,69	1257,45
230,90	1267,69
231,12	1320,94
231,34	1310,70
231,56	1333,23
231,78	1277,93
232,00	1261,55
232,21	1239,02
232,43	1249,26
232,65	1236,97
232,87	1327,08
233,09	1210,35
233,30	1361,90
233,52	1304,56
233,74	1241,07
233,96	1343,47
234,18	1306,60
234,40	1249,26
234,61	1292,27
234,83	1292,27
235,05	1292,27
235,27	1357,80
235,49	1232,88
235,70	1222,64
235,92	1306,60
236,14	1253,36
236,36	1210,35
236,58	1322,99
236,79	1271,79
237,01	1251,31
237,23	1239,02
237,45	1279,98
237,67	1261,55
237,88	1308,65
238,10	1263,60
238,32	1183,73
238,54	1265,64
238,76	1322,99
238,97	1175,53
239,19	1232,88
239,41	1241,07
239,63	1241,07
239,85	1210,35
240,06	1322,99
240,28	1239,02
240,50	1286,12
240,72	1261,55
240,93	1335,28
241,15	1245,16
241,37	1224,69
241,59	1329,13
241,81	1304,56
242,02	1243,12
242,24	1269,74
242,46	1339,37
242,68	1298,41
242,89	1290,22
243,11	1228,78
243,33	1312,75
243,55	1247,21
243,76	1167,34
243,98	1310,70
244,20	1243,12
244,42	1234,93
244,64	1308,65
244,85	1269,74
245,07	1265,64
245,29	1318,89
245,51	1267,69
245,72	1294,32
245,94	1243,12
246,16	1314,80
246,38	1269,74
246,59	1271,79
246,81	1292,27
247,03	1206,25
247,24	1216,49
247,46	1157,10
247,68	1306,60
247,90	1189,87
248,11	1308,65
248,33	1247,21
248,55	1245,16
248,77	1316,84
248,98	1224,69
249,20	1269,74
249,42	1239,02
249,64	1222,64
249,85	1343,47
250,07	1261,55
250,29	1308,65
250,50	1212,40
250,72	1257,45
250,94	1253,36
251,16	1300,46
251,37	1314,80
251,59	1286,12
251,81	1267,69
252,02	1298,41
252,24	1273,84
252,46	1302,51
252,68	1296,36
252,89	1232,88
253,11	1277,93
253,33	1417,19
253,54	1286,12
253,76	1247,21
253,98	1212,40
254,20	1228,78
254,41	1239,02
254,63	1226,73
254,85	1263,60
255,06	1292,27
255,28	1198,06
255,50	1193,97
255,71	1243,12
255,93	1255,40
256,15	1296,36
256,36	1306,60
256,58	1247,21
256,80	1296,36
257,02	1335,28
257,23	1359,85
257,45	1277,93
257,67	1271,79
257,88	1308,65
258,10	1241,07
258,32	1253,36
258,53	1249,26
258,75	1267,69
258,97	1302,51
259,18	1286,12
259,40	1257,45
259,62	1294,32
259,83	1271,79
260,05	1265,64
260,27	1294,32
260,48	1277,93
260,70	1271,79
260,92	1261,55
261,13	1277,93
261,35	1255,40
261,57	1277,93
261,78	1263,60
262,00	1232,88
262,22	1247,21
262,43	1314,80
262,65	1212,40
262,86	1253,36
263,08	1312,75
263,30	1322,99
263,51	1243,12
263,73	1249,26
263,95	1243,12
264,16	1331,18
264,38	1253,36
264,60	1288,17
264,81	1204,21
265,03	1306,60
265,25	1253,36
265,46	1275,88
265,68	1265,64
265,89	1302,51
266,11	1255,40
266,33	1249,26
266,54	1187,82
266,76	1232,88
266,98	1333,23
267,19	1267,69
267,41	1310,70
267,62	1271,79
267,84	1212,40
268,06	1300,46
268,27	1255,40
268,49	1288,17
268,70	1308,65
268,92	1318,89
269,14	1320,94
269,35	1331,18
269,57	1316,84
269,79	1300,46
270,00	1234,93
270,22	1339,37
270,43	1265,64
270,65	1279,98
270,87	1347,56
271,08	1349,61
271,30	1230,83
271,51	1327,08
271,73	1265,64
271,95	1228,78
272,16	1298,41
272,38	1282,03
272,59	1269,74
272,81	1310,70
273,02	1271,79
273,24	1234,93
273,46	1292,27
273,67	1210,35
273,89	1292,27
274,10	1347,56
274,32	1202,16
274,54	1236,97
274,75	1275,88
274,97	1333,23
275,18	1306,60
275,40	1239,02
275,61	1259,50
275,83	1279,98
276,05	1322,99
276,26	1216,49
276,48	1308,65
276,69	1257,45
276,91	1241,07
277,12	1259,50
277,34	1269,74
277,55	1249,26
277,77	1247,21
277,99	1251,31
278,20	1185,77
278,42	1316,84
278,63	1257,45
278,85	1298,41
279,06	1331,18
279,28	1320,94
279,49	1292,27
279,71	1335,28
279,93	1314,80
280,14	1206,25
280,36	1261,55
280,57	1200,11
280,79	1234,93
281,00	1277,93
281,22	1282,03
281,43	1292,27
281,65	1187,82
281,86	1253,36
282,08	1320,94
282,29	1296,36
282,51	1232,88
282,73	1288,17
282,94	1228,78
283,16	1290,22
283,37	1257,45
283,59	1294,32
283,80	1271,79
284,02	1243,12
284,23	1286,12
284,45	1355,76
284,66	1267,69
284,88	1277,93
285,09	1292,27
285,31	1327,08
285,52	1251,31
285,74	1257,45
285,95	1245,16
286,17	1261,55
286,38	1236,97
286,60	1214,45
286,81	1316,84
287,03	1312,75
287,24	1239,02
287,46	1347,56
287,67	1243,12
287,89	1288,17
288,10	1273,84
288,32	1243,12
288,53	1277,93
288,75	1218,54
288,96	1249,26
289,18	1253,36
289,39	1255,40
289,61	1298,41
289,82	1265,64
290,04	1288,17
290,25	1286,12
290,47	1226,73
290,68	1325,04
290,90	1327,08
291,11	1206,25
291,33	1210,35
291,54	1210,35
291,76	1288,17
291,97	1251,31
292,18	1341,42
292,40	1257,45
292,61	1261,55
292,83	1310,70
293,04	1310,70
293,26	1224,69
293,47	1316,84
293,69	1304,56
293,90	1273,84
294,12	1273,84
294,33	1331,18
294,55	1243,12
294,76	1247,21
294,97	1247,21
295,19	1232,88
295,40	1273,84
295,62	1271,79
295,83	1267,69
296,05	1226,73
296,26	1257,45
296,48	1253,36
296,69	1271,79
296,90	1243,12
297,12	1249,26
297,33	1316,84
297,55	1279,98
297,76	1245,16
297,98	1318,89
298,19	1277,93
298,41	1253,36
298,62	1210,35
298,83	1216,49
299,05	1232,88
299,26	1193,97
299,48	1245,16
299,69	1271,79
299,90	1279,98
300,12	1273,84
300,33	1218,54
300,55	1265,64
300,76	1216,49
300,98	1241,07
301,19	1320,94
301,40	1302,51
301,62	1267,69
301,83	1277,93
302,05	1245,16
302,26	1224,69
302,47	1298,41
302,69	1366,00
302,90	1339,37
303,12	1284,08
303,33	1210,35
303,54	1247,21
303,76	1312,75
303,97	1224,69
304,19	1263,60
304,40	1294,32
304,61	1259,50
304,83	1310,70
305,04	1300,46
305,26	1298,41
305,47	1304,56
305,68	1245,16
305,90	1263,60
306,11	1284,08
306,33	1261,55
306,54	1282,03
306,75	1269,74
306,97	1150,96
307,18	1333,23
307,39	1286,12
307,61	1292,27
307,82	1284,08
308,04	1198,06
308,25	1253,36
308,46	1234,93
308,68	1263,60
308,89	1234,93
309,10	1298,41
309,32	1257,45
309,53	1286,12
309,74	1331,18
309,96	1263,60
310,17	1247,21
310,39	1234,93
310,60	1253,36
310,81	1331,18
311,03	1212,40
311,24	1347,56
311,45	1273,84
311,67	1239,02
311,88	1255,40
312,09	1314,80
312,31	1232,88
312,52	1216,49
312,73	1251,31
312,95	1208,30
313,16	1257,45
313,37	1282,03
313,59	1275,88
313,80	1251,31
314,01	1161,20
314,23	1282,03
314,44	1206,25
314,65	1232,88
314,87	1241,07
315,08	1265,64
315,29	1196,01
315,51	1146,86
315,72	1296,36
315,93	1284,08
316,15	1290,22
316,36	1249,26
316,57	1253,36
316,79	1210,35
317,00	1298,41
317,21	1271,79
317,43	1259,50
317,64	1261,55
317,85	1236,97
318,07	1230,83
318,28	1279,98
318,49	1292,27
318,70	1304,56
318,92	1263,60
319,13	1273,84
319,34	1277,93
319,56	1294,32
319,77	1277,93
319,98	1355,76
320,20	1277,93
320,41	1239,02
320,62	1286,12
320,83	1243,12
321,05	1257,45
321,26	1273,84
321,47	1265,64
321,69	1304,56
321,90	1222,64
322,11	1269,74
322,32	1249,26
322,54	1368,04
322,75	1261,55
322,96	1329,13
323,18	1228,78
323,39	1263,60
323,60	1232,88
323,81	1159,15
324,03	1282,03
324,24	1263,60
324,45	1302,51
324,66	1347,56
324,88	1253,36
325,09	1288,17
325,30	1288,17
325,52	1304,56
325,73	1333,23
325,94	1306,60
326,15	1333,23
326,37	1259,50
326,58	1279,98
326,79	1222,64
327,00	1312,75
327,22	1296,36
327,43	1294,32
327,64	1322,99
327,85	1329,13
328,07	1212,40
328,28	1243,12
328,49	1294,32
328,70	1255,40
328,92	1214,45
329,13	1236,97
329,34	1245,16
329,55	1228,78
329,76	1286,12
329,98	1269,74
330,19	1314,80
330,40	1239,02
330,61	1277,93
330,83	1243,12
331,04	1296,36
331,25	1284,08
331,46	1239,02
331,68	1271,79
331,89	1294,32
332,10	1228,78
332,31	1228,78
332,52	1259,50
332,74	1298,41
332,95	1279,98
333,16	1331,18
333,37	1236,97
333,58	1306,60
333,80	1302,51
334,01	1275,88
334,22	1275,88
334,43	1245,16
334,64	1269,74
334,86	1339,37
335,07	1265,64
335,28	1243,12
335,49	1173,49
335,70	1232,88
335,92	1277,93
336,13	1279,98
336,34	1273,84
336,55	1282,03
336,76	1357,80
336,98	1275,88
337,19	1251,31
337,40	1206,25
337,61	1286,12
337,82	1306,60
338,04	1333,23
338,25	1263,60
338,46	1286,12
338,67	1251,31
338,88	1224,69
339,09	1298,41
339,31	1239,02
339,52	1263,60
339,73	1263,60
339,94	1257,45
340,15	1277,93
340,36	1304,56
340,58	1277,93
340,79	1189,87
341,00	1241,07
341,21	1253,36
341,42	1286,12
341,63	1271,79
341,85	1208,30
342,06	1333,23
342,27	1290,22
342,48	1275,88
342,69	1302,51
342,90	1259,50
343,12	1288,17
343,33	1314,80
343,54	1359,85
343,75	1247,21
343,96	1333,23
344,17	1277,93
344,38	1257,45
344,60	1312,75
344,81	1183,73
345,02	1239,02
345,23	1243,12
345,44	1296,36
345,65	1236,97
345,86	1366,00
346,07	1232,88
346,29	1267,69
346,50	1288,17
346,71	1236,97
346,92	1245,16
347,13	1279,98
347,34	1239,02
347,55	1261,55
347,76	1288,17
347,98	1228,78
348,19	1259,50
348,40	1191,92
348,61	1239,02
348,82	1271,79
349,03	1251,31
349,24	1333,23
349,45	1253,36
349,66	1175,53
349,88	1271,79
350,09	1236,97
350,30	1230,83
350,51	1224,69
350,72	1224,69
350,93	1261,55
351,14	1247,21
351,35	1345,52
351,56	1296,36
351,77	1249,26
351,99	1239,02
352,20	1269,74
352,41	1269,74
352,62	1259,50
352,83	1292,27
353,04	1255,40
353,25	1271,79
353,46	1288,17
353,67	1282,03
353,88	1261,55
354,09	1239,02
354,30	1322,99
354,52	1288,17
354,73	1265,64
354,94	1277,93
355,15	1232,88
355,36	1288,17
355,57	1288,17
355,78	1245,16
355,99	1273,84
356,20	1312,75
356,41	1206,25
356,62	1277,93
356,83	1259,50
357,04	1216,49
357,25	1277,93
357,46	1239,02
357,68	1277,93
357,89	1277,93
358,10	1322,99
358,31	1282,03
358,52	1263,60
358,73	1273,84
358,94	1263,60
359,15	1206,25
359,36	1234,93
359,57	1257,45
359,78	1306,60
359,99	1288,17
360,20	1263,60
360,41	1288,17
360,62	1290,22
360,83	1292,27
361,04	1279,98
361,25	1245,16
361,46	1261,55
361,67	1241,07
361,88	1269,74
362,09	1279,98
362,30	1275,88
362,51	1239,02
362,72	1310,70
362,93	1179,63
363,14	1286,12
363,35	1286,12
363,56	1359,85
363,78	1286,12
363,99	1255,40
364,20	1314,80
364,41	1249,26
364,62	1310,70
364,83	1206,25
365,04	1255,40
365,25	1294,32
365,46	1263,60
365,67	1273,84
365,88	1298,41
366,09	1290,22
366,30	1228,78
366,51	1267,69
366,72	1245,16
366,93	1269,74
367,14	1314,80
367,35	1243,12
367,56	1288,17
367,77	1273,84
367,98	1300,46
368,18	1265,64
368,39	1208,30
368,60	1255,40
368,81	1329,13
369,02	1343,47
369,23	1245,16
369,44	1316,84
369,65	1171,44
369,86	1322,99
370,07	1288,17
370,28	1298,41
370,49	1216,49
370,70	1273,84
370,91	1243,12
371,12	1304,56
371,33	1267,69
371,54	1279,98
371,75	1261,55
371,96	1290,22
372,17	1206,25
372,38	1275,88
372,59	1261,55
372,80	1243,12
373,01	1255,40
373,22	1251,31
373,43	1177,58
373,64	1232,88
373,85	1222,64
374,06	1249,26
374,26	1302,51
374,47	1230,83
374,68	1253,36
374,89	1308,65
375,10	1230,83
375,31	1273,84
375,52	1279,98
375,73	1261,55
375,94	1247,21
376,15	1267,69
376,36	1257,45
376,57	1222,64
376,78	1239,02
376,99	1249,26
377,20	1284,08
377,40	1239,02
377,61	1318,89
377,82	1351,66
378,03	1284,08
378,24	1236,97
378,45	1273,84
378,66	1232,88
378,87	1206,25
379,08	1327,08
379,29	1292,27
379,50	1296,36
379,71	1202,16
379,91	1249,26
380,12	1236,97
380,33	1265,64
380,54	1216,49
380,75	1247,21
380,96	1279,98
381,17	1159,15
381,38	1247,21
381,59	1255,40
381,80	1253,36
382,00	1290,22
382,21	1275,88
382,42	1257,45
382,63	1230,83
382,84	1263,60
383,05	1224,69
383,26	1245,16
383,47	1212,40
383,68	1275,88
383,88	1216,49
384,09	1318,89
384,30	1263,60
384,51	1300,46
384,72	1187,82
384,93	1263,60
385,14	1282,03
385,35	1286,12
385,55	1249,26
385,76	1267,69
385,97	1312,75
386,18	1236,97
386,39	1361,90
386,60	1290,22
386,81	1286,12
387,02	1249,26
387,22	1224,69
387,43	1306,60
387,64	1226,73
387,85	1204,21
388,06	1300,46
388,27	1320,94
388,48	1241,07
388,68	1282,03
388,89	1253,36
389,10	1236,97
389,31	1232,88
389,52	1257,45
389,73	1265,64
389,93	1228,78
390,14	1241,07
390,35	1296,36
390,56	1241,07
390,77	1294,32
390,98	1296,36
391,18	1259,50
391,39	1292,27
391,60	1331,18
391,81	1271,79
392,02	1206,25
392,23	1343,47
392,43	1325,04
392,64	1224,69
392,85	1226,73
393,06	1271,79
393,27	1208,30
393,47	1263,60
393,68	1290,22
393,89	1218,54
394,10	1296,36
394,31	1304,56
394,52	1243,12
394,72	1294,32
394,93	1306,60
395,14	1271,79
395,35	1329,13
395,56	1290,22
395,76	1329,13
395,97	1265,64
396,18	1269,74
396,39	1277,93
396,60	1230,83
396,80	1230,83
397,01	1310,70
397,22	1239,02
397,43	1245,16
397,64	1247,21
397,84	1277,93
398,05	1312,75
398,26	1314,80
398,47	1316,84
398,67	1273,84
398,88	1273,84
399,09	1310,70
399,30	1255,40
399,51	1236,97
399,71	1253,36
399,92	1290,22
400,13	1241,07
400,34	1286,12
400,54	1314,80
400,75	1239,02
400,96	1253,36
401,17	1261,55
401,37	1265,64
401,58	1261,55
401,79	1196,01
402,00	1273,84
402,21	1243,12
402,41	1296,36
402,62	1200,11
402,83	1212,40
403,04	1232,88
403,24	1177,58
403,45	1234,93
403,66	1249,26
403,87	1290,22
404,07	1220,59
404,28	1310,70
404,49	1226,73
404,70	1228,78
404,90	1314,80
405,11	1312,75
405,32	1296,36
405,52	1259,50
405,73	1257,45
405,94	1245,16
406,15	1212,40
406,35	1310,70
406,56	1261,55
406,77	1255,40
406,98	1224,69
407,18	1322,99
407,39	1251,31
407,60	1247,21
407,80	1230,83
408,01	1320,94
408,22	1306,60
408,43	1191,92
408,63	1230,83
408,84	1241,07
409,05	1279,98
409,25	1220,59
409,46	1267,69
409,67	1279,98
409,88	1316,84
410,08	1257,45
410,29	1273,84
410,50	1214,45
410,70	1198,06
410,91	1275,88
411,12	1243,12
411,32	1294,32
411,53	1239,02
411,74	1241,07
411,95	1290,22
412,15	1265,64
412,36	1271,79
412,57	1232,88
412,77	1292,27
412,98	1288,17
413,19	1202,16
413,39	1275,88
413,60	1226,73
413,81	1279,98
414,01	1273,84
414,22	1269,74
414,43	1318,89
414,63	1302,51
414,84	1243,12
415,05	1218,54
415,25	1308,65
415,46	1200,11
415,67	1271,79
415,87	1306,60
416,08	1245,16
416,29	1275,88
416,49	1316,84
416,70	1230,83
416,91	1218,54
417,11	1277,93
417,32	1302,51
417,53	1302,51
417,73	1239,02
417,94	1236,97
418,15	1271,79
418,35	1312,75
418,56	1296,36
418,77	1271,79
418,97	1243,12
419,18	1245,16
419,38	1286,12
419,59	1169,39
419,80	1298,41
420,00	1251,31
420,21	1310,70
420,42	1243,12
420,62	1286,12
420,83	1302,51
421,04	1259,50
421,24	1222,64
421,45	1316,84
421,65	1288,17
421,86	1265,64
422,07	1271,79
422,27	1296,36
422,48	1284,08
422,69	1245,16
422,89	1314,80
423,10	1273,84
423,30	1222,64
423,51	1241,07
423,72	1251,31
423,92	1265,64
424,13	1275,88
424,33	1257,45
424,54	1296,36
424,75	1259,50
424,95	1308,65
425,16	1279,98
425,36	1243,12
425,57	1263,60
425,78	1239,02
425,98	1331,18
426,19	1372,14
426,39	1247,21
426,60	1232,88
426,81	1292,27
427,01	1249,26
427,22	1214,45
427,42	1230,83
427,63	1277,93
427,83	1226,73
428,04	1251,31
428,25	1279,98
428,45	1255,40
428,66	1245,16
428,86	1282,03
429,07	1290,22
429,28	1290,22
429,48	1282,03
429,69	1279,98
429,89	1271,79
430,10	1265,64
430,30	1406,95
430,51	1312,75
430,71	1292,27
430,92	1279,98
431,13	1282,03
431,33	1294,32
431,54	1245,16
431,74	1308,65
431,95	1245,16
432,15	1200,11
432,36	1261,55
432,56	1316,84
432,77	1243,12
432,98	1282,03
433,18	1257,45
433,39	1386,47
433,59	1343,47
433,80	1232,88
434,00	1282,03
434,21	1263,60
434,41	1275,88
434,62	1306,60
434,82	1241,07
435,03	1236,97
435,23	1226,73
435,44	1245,16
435,64	1247,21
435,85	1282,03
436,06	1288,17
436,26	1361,90
436,47	1284,08
436,67	1243,12
436,88	1255,40
437,08	1282,03
437,29	1273,84
437,49	1214,45
437,70	1298,41
437,90	1253,36
438,11	1267,69
438,31	1308,65
438,52	1290,22
438,72	1241,07
438,93	1269,74
439,13	1314,80
439,34	1359,85
439,54	1290,22
439,75	1253,36
439,95	1302,51
440,16	1241,07
440,36	1363,95
440,57	1245,16
440,77	1259,50
440,98	1253,36
441,18	1320,94
441,39	1245,16
441,59	1251,31
441,80	1282,03
442,00	1298,41
442,21	1279,98
442,41	1241,07
442,62	1267,69
442,82	1267,69
443,02	1230,83
443,23	1355,76
443,43	1316,84
443,64	1363,95
443,84	1345,52
444,05	1294,32
444,25	1255,40
444,46	1286,12
444,66	1271,79
444,87	1239,02
445,07	1220,59
445,28	1251,31
445,48	1224,69
445,69	1218,54
445,89	1349,61
446,09	1341,42
446,30	1191,92
446,50	1216,49
446,71	1273,84
446,91	1288,17
447,12	1316,84
447,32	1300,46
447,53	1275,88
447,73	1239,02
447,93	1228,78
448,14	1310,70
448,34	1218,54
448,55	1265,64
448,75	1296,36
448,96	1234,93
449,16	1236,97
449,36	1226,73
449,57	1318,89
449,77	1290,22
449,98	1177,58
450,18	1290,22
450,39	1308,65
450,59	1165,29
450,79	1345,52
451,00	1273,84
451,20	1269,74
451,41	1269,74
451,61	1232,88
451,81	1257,45
452,02	1253,36
452,22	1288,17
452,43	1208,30
452,63	1282,03
452,84	1249,26
453,04	1269,74
453,24	1273,84
453,45	1255,40
453,65	1261,55
453,86	1243,12
454,06	1183,73
454,26	1273,84
454,47	1275,88
454,67	1339,37
454,87	1290,22
455,08	1212,40
455,28	1245,16
455,49	1294,32
455,69	1226,73
455,89	1196,01
456,10	1253,36
456,30	1200,11
456,51	1247,21
456,71	1298,41
456,91	1306,60
457,12	1253,36
457,32	1279,98
457,52	1265,64
457,73	1284,08
457,93	1265,64
458,14	1247,21
458,34	1183,73
458,54	1230,83
458,75	1255,40
458,95	1255,40
459,15	1208,30
459,36	1269,74
459,56	1327,08
459,76	1226,73
459,97	1296,36
460,17	1316,84
460,37	1273,84
460,58	1234,93
460,78	1296,36
460,99	1271,79
461,19	1218,54
461,39	1206,25
461,60	1261,55
461,80	1224,69
462,00	1239,02
462,21	1253,36
462,41	1241,07
462,61	1249,26
462,82	1255,40
463,02	1261,55
463,22	1228,78
463,43	1222,64
463,63	1294,32
463,83	1302,51
464,04	1269,74
464,24	1257,45
464,44	1210,35
464,64	1183,73
464,85	1286,12
465,05	1271,79
465,25	1353,71
465,46	1269,74
465,66	1304,56
465,86	1282,03
466,07	1241,07
466,27	1247,21
466,47	1271,79
466,68	1273,84
466,88	1279,98
467,08	1277,93
467,29	1277,93
467,49	1282,03
467,69	1224,69
467,89	1294,32
468,10	1257,45
468,30	1259,50
468,50	1198,06
468,71	1251,31
468,91	1230,83
469,11	1253,36
469,31	1378,28
469,52	1269,74
469,72	1339,37
469,92	1208,30
470,13	1273,84
470,33	1277,93
470,53	1206,25
470,73	1331,18
470,94	1273,84
471,14	1226,73
471,34	1265,64
471,54	1302,51
471,75	1312,75
471,95	1271,79
472,15	1284,08
472,36	1275,88
472,56	1353,71
472,76	1183,73
472,96	1228,78
473,17	1298,41
473,37	1239,02
473,57	1249,26
473,77	1361,90
473,98	1273,84
474,18	1263,60
474,38	1261,55
474,58	1296,36
474,79	1267,69
474,99	1279,98
475,19	1286,12
475,39	1214,45
475,60	1284,08
475,80	1322,99
476,00	1257,45
476,20	1253,36
476,41	1198,06
476,61	1333,23
476,81	1265,64
477,01	1279,98
477,21	1282,03
477,42	1314,80
477,62	1208,30
477,82	1243,12
478,02	1290,22
478,23	1193,97
478,43	1292,27
478,63	1249,26
478,83	1257,45
479,03	1298,41
479,24	1320,94
479,44	1257,45
479,64	1269,74
479,84	1173,49
480,04	1224,69
480,25	1271,79
480,45	1304,56
480,65	1329,13
480,85	1316,84
481,06	1269,74
481,26	1363,95
481,46	1382,38
481,66	1282,03
481,86	1259,50
482,06	1273,84
482,27	1337,32
482,47	1247,21
482,67	1312,75
482,87	1265,64
483,07	1345,52
483,28	1208,30
483,48	1228,78
483,68	1282,03
483,88	1210,35
484,08	1212,40
484,29	1279,98
484,49	1208,30
484,69	1239,02
484,89	1239,02
485,09	1202,16
485,29	1181,68
485,50	1312,75
485,70	1259,50
485,90	1322,99
486,10	1312,75
486,30	1359,85
486,50	1259,50
486,71	1277,93
486,91	1267,69
487,11	1261,55
487,31	1273,84
487,51	1257,45
487,71	1273,84
487,91	1257,45
488,12	1224,69
488,32	1232,88
488,52	1302,51
488,72	1239,02
488,92	1218,54
489,12	1236,97
489,32	1216,49
489,53	1234,93
489,73	1327,08
489,93	1269,74
490,13	1196,01
490,33	1247,21
490,53	1214,45
490,73	1259,50
490,94	1243,12
491,14	1261,55
491,34	1271,79
491,54	1265,64
491,74	1253,36
491,94	1224,69
492,14	1320,94
492,34	1312,75
492,54	1294,32
492,75	1308,65
492,95	1271,79
493,15	1277,93
493,35	1232,88
493,55	1329,13
493,75	1249,26
493,95	1224,69
494,15	1257,45
494,35	1269,74
494,56	1312,75
494,76	1259,50
494,96	1255,40
495,16	1218,54
495,36	1257,45
495,56	1312,75
495,76	1304,56
495,96	1355,76
496,16	1232,88
496,36	1298,41
496,56	1230,83
496,77	1286,12
496,97	1265,64
497,17	1282,03
497,37	1296,36
497,57	1243,12
497,77	1232,88
497,97	1300,46
498,17	1249,26
498,37	1312,75
498,57	1245,16
498,77	1249,26
498,97	1302,51
499,17	1314,80
499,38	1249,26
499,58	1239,02
499,78	1290,22
499,98	1200,11
500,18	1247,21
500,38	1247,21
500,58	1261,55
500,78	1318,89
500,98	1286,12
501,18	1179,63
501,38	1294,32
501,58	1271,79
501,78	1210,35
501,98	1247,21
502,18	1296,36
502,38	1263,60
502,58	1247,21
502,78	1265,64
502,98	1236,97
503,18	1263,60
503,38	1271,79
503,59	1284,08
503,79	1257,45
503,99	1310,70
504,19	1269,74
504,39	1202,16
504,59	1290,22
504,79	1263,60
504,99	1347,56
505,19	1273,84
505,39	1273,84
505,59	1368,04
505,79	1298,41
505,99	1210,35
506,19	1224,69
506,39	1304,56
506,59	1257,45
506,79	1277,93
506,99	1366,00
507,19	1210,35
507,39	1329,13
507,59	1316,84
507,79	1267,69
507,99	1249,26
508,19	1222,64
508,39	1370,09
508,59	1277,93
508,79	1273,84
508,99	1259,50
509,19	1298,41
509,39	1179,63
509,59	1253,36
509,79	1296,36
509,99	1298,41
510,19	1251,31
510,39	1226,73
510,59	1236,97
510,79	1212,40
510,99	1273,84
511,19	1286,12
511,39	1236,97
511,59	1286,12
511,79	1234,93
511,99	1286,12
512,19	1327,08
512,38	1259,50
512,58	1327,08
512,78	1193,97
512,98	1253,36
513,18	1345,52
513,38	1310,70
513,58	1214,45
513,78	1284,08
513,98	1261,55
514,18	1306,60
514,38	1257,45
514,58	1282,03
514,78	1273,84
514,98	1255,40
515,18	1298,41
515,38	1222,64
515,58	1249,26
515,78	1267,69
515,98	1263,60
516,18	1255,40
516,38	1298,41
516,57	1279,98
516,77	1304,56
516,97	1220,59
517,17	1202,16
517,37	1263,60
517,57	1273,84
517,77	1247,21
517,97	1290,22
518,17	1310,70
518,37	1241,07
518,57	1320,94
518,77	1257,45
518,97	1282,03
519,16	1279,98
519,36	1271,79
519,56	1163,25
519,76	1255,40
519,96	1226,73
520,16	1277,93
520,36	1273,84
520,56	1230,83
520,76	1312,75
520,96	1187,82
521,16	1277,93
521,35	1226,73
521,55	1345,52
521,75	1284,08
521,95	1279,98
522,15	1236,97
522,35	1118,19
522,55	1234,93
522,75	1290,22
522,95	1183,73
523,14	1316,84
523,34	1171,44
523,54	1288,17
523,74	1320,94
523,94	1249,26
524,14	1236,97
524,34	1271,79
524,54	1193,97
524,73	1296,36
524,93	1259,50
525,13	1253,36
525,33	1261,55
525,53	1245,16
525,73	1314,80
525,93	1265,64
526,13	1239,02
526,32	1265,64
526,52	1239,02
526,72	1198,06
526,92	1239,02
527,12	1277,93
527,32	1216,49
527,52	1255,40
527,71	1263,60
527,91	1271,79
528,11	1271,79
528,31	1273,84
528,51	1290,22
528,71	1232,88
528,90	1247,21
529,10	1277,93
529,30	1314,80
529,50	1271,79
529,70	1267,69
529,90	1245,16
530,09	1230,83
530,29	1212,40
530,49	1206,25
530,69	1243,12
530,89	1292,27
531,09	1294,32
531,28	1306,60
531,48	1302,51
531,68	1275,88
531,88	1236,97
532,08	1308,65
532,28	1273,84
532,47	1269,74
532,67	1271,79
532,87	1204,21
533,07	1206,25
533,27	1261,55
533,46	1232,88
533,66	1185,77
533,86	1312,75
534,06	1239,02
534,26	1288,17
534,45	1249,26
534,65	1265,64
534,85	1273,84
535,05	1257,45
535,25	1279,98
535,44	1228,78
535,64	1232,88
535,84	1271,79
536,04	1228,78
536,24	1282,03
536,43	1308,65
536,63	1292,27
536,83	1282,03
537,03	1239,02
537,22	1279,98
537,42	1247,21
537,62	1226,73
537,82	1247,21
538,02	1226,73
538,21	1341,42
538,41	1234,93
538,61	1236,97
538,81	1263,60
539,00	1249,26
539,20	1234,93
539,40	1259,50
539,60	1187,82
539,79	1255,40
539,99	1183,73
540,19	1220,59
540,39	1351,66
540,58	1253,36
540,78	1243,12
540,98	1337,32
541,18	1306,60
541,37	1320,94
541,57	1239,02
541,77	1269,74
541,97	1306,60
542,16	1261,55
542,36	1241,07
542,56	1261,55
542,76	1259,50
542,95	1308,65
543,15	1230,83
543,35	1249,26
543,54	1241,07
543,74	1193,97
543,94	1220,59
544,14	1290,22
544,33	1241,07
544,53	1208,30
544,73	1271,79
544,93	1259,50
545,12	1273,84
545,32	1226,73
545,52	1300,46
545,71	1230,83
545,91	1251,31
546,11	1271,79
546,30	1228,78
546,50	1255,40
546,70	1290,22
546,90	1212,40
547,09	1292,27
547,29	1304,56
547,49	1222,64
547,68	1243,12
547,88	1282,03
548,08	1224,69
548,27	1320,94
548,47	1265,64
548,67	1273,84
548,87	1259,50
549,06	1290,22
549,26	1310,70
549,46	1318,89
549,65	1239,02
549,85	1214,45
550,05	1253,36
550,24	1282,03
550,44	1249,26
550,64	1288,17
550,83	1177,58
551,03	1271,79
551,23	1353,71
551,42	1239,02
551,62	1275,88
551,82	1294,32
552,01	1226,73
552,21	1249,26
552,41	1284,08
552,60	1261,55
552,80	1222,64
553,00	1214,45
553,19	1247,21
553,39	1290,22
553,59	1208,30
553,78	1226,73
553,98	1343,47
554,17	1308,65
554,37	1220,59
554,57	1191,92
554,76	1236,97
554,96	1241,07
555,16	1243,12
555,35	1292,27
555,55	1220,59
555,75	1212,40
555,94	1239,02
556,14	1263,60
556,33	1269,74
556,53	1286,12
556,73	1247,21
556,92	1224,69
557,12	1210,35
557,32	1239,02
557,51	1220,59
557,71	1236,97
557,90	1239,02
558,10	1273,84
558,30	1316,84
558,49	1294,32
558,69	1261,55
558,88	1261,55
559,08	1292,27
559,28	1275,88
559,47	1294,32
559,67	1277,93
559,86	1267,69
560,06	1368,04
560,26	1273,84
560,45	1191,92
560,65	1355,76
560,84	1236,97
561,04	1212,40
561,24	1239,02
561,43	1208,30
561,63	1271,79
561,82	1230,83
562,02	1353,71
562,22	1234,93
562,41	1265,64
562,61	1310,70
562,80	1251,31
563,00	1273,84
563,19	1232,88
563,39	1269,74
563,59	1288,17
563,78	1249,26
563,98	1247,21
564,17	1277,93
564,37	1245,16
564,56	1290,22
564,76	1212,40
564,96	1271,79
565,15	1322,99
565,35	1265,64
565,54	1243,12
565,74	1259,50
565,93	1304,56
566,13	1259,50
566,32	1218,54
566,52	1245,16
566,71	1232,88
566,91	1234,93
567,11	1226,73
567,30	1210,35
567,50	1245,16
567,69	1253,36
567,89	1228,78
568,08	1257,45
568,28	1275,88
568,47	1224,69
568,67	1314,80
568,86	1265,64
569,06	1196,01
569,25	1251,31
569,45	1191,92
569,64	1255,40
569,84	1255,40
570,04	1249,26
570,23	1279,98
570,43	1218,54
570,62	1253,36
570,82	1255,40
571,01	1275,88
571,21	1249,26
571,40	1228,78
571,60	1255,40
571,79	1212,40
571,99	1306,60
572,18	1308,65
572,38	1259,50
572,57	1294,32
572,77	1222,64
572,96	1243,12
573,16	1249,26
573,35	1277,93
573,55	1200,11
573,74	1226,73
573,94	1320,94
574,13	1265,64
574,33	1216,49
574,52	1247,21
574,71	1282,03
574,91	1224,69
575,10	1230,83
575,30	1265,64
575,49	1253,36
575,69	1298,41
575,88	1298,41
576,08	1277,93
576,27	1204,21
576,47	1220,59
576,66	1214,45
576,86	1327,08
577,05	1255,40
577,25	1286,12
577,44	1304,56
577,64	1206,25
577,83	1245,16
578,02	1269,74
578,22	1269,74
578,41	1316,84
578,61	1318,89
578,80	1288,17
579,00	1263,60
579,19	1279,98
579,39	1193,97
579,58	1286,12
579,77	1263,60
579,97	1191,92
580,16	1292,27
580,36	1355,76
580,55	1282,03
580,75	1302,51
580,94	1314,80
581,13	1292,27
581,33	1222,64
581,52	1267,69
581,72	1257,45
581,91	1284,08
582,11	1296,36
582,30	1284,08
582,49	1189,87
582,69	1310,70
582,88	1314,80
583,08	1279,98
583,27	1239,02
583,47	1269,74
583,66	1312,75
583,85	1296,36
584,05	1220,59
584,24	1282,03
584,44	1247,21
584,63	1234,93
584,82	1251,31
585,02	1218,54
585,21	1202,16
585,41	1288,17
585,60	1198,06
585,79	1181,68
585,99	1286,12
586,18	1284,08
586,37	1241,07
586,57	1290,22
586,76	1275,88
586,96	1282,03
587,15	1286,12
587,34	1275,88
587,54	1228,78
587,73	1259,50
587,93	1236,97
588,12	1284,08
588,31	1329,13
588,51	1236,97
588,70	1257,45
588,89	1259,50
589,09	1196,01
589,28	1316,84
589,47	1279,98
589,67	1282,03
589,86	1282,03
590,06	1255,40
590,25	1247,21
590,44	1372,14
590,64	1263,60
590,83	1265,64
591,02	1277,93
591,22	1239,02
591,41	1290,22
591,60	1200,11
591,80	1222,64
591,99	1251,31
592,18	1236,97
592,38	1245,16
592,57	1257,45
592,76	1228,78
592,96	1230,83
593,15	1251,31
593,34	1251,31
593,54	1226,73
593,73	1275,88
593,92	1298,41
594,12	1296,36
594,31	1255,40
594,50	1253,36
594,70	1339,37
594,89	1298,41
595,08	1245,16
595,28	1259,50
595,47	1222,64
595,66	1245,16
595,86	1226,73
596,05	1261,55
596,24	1277,93
596,43	1306,60
596,63	1269,74
596,82	1288,17
597,01	1181,68
597,21	1396,71
597,40	1232,88
597,59	1271,79
597,79	1222,64
597,98	1208,30
598,17	1290,22
598,36	1187,82
598,56	1191,92
598,75	1234,93
598,94	1273,84
599,14	1325,04
599,33	1206,25
599,52	1312,75
599,71	1261,55
599,91	1300,46
600,10	1304,56
600,29	1220,59
600,48	1267,69
600,68	1316,84
600,87	1159,15
601,06	1282,03
601,26	1282,03
601,45	1257,45
601,64	1247,21
601,83	1273,84
602,03	1200,11
602,22	1263,60
602,41	1263,60
602,60	1294,32
602,80	1284,08
602,99	1273,84
603,18	1212,40
603,37	1230,83
603,57	1253,36
603,76	1329,13
603,95	1288,17
604,14	1257,45
604,34	1277,93
604,53	1251,31
604,72	1304,56
604,91	1296,36
605,10	1308,65
605,30	1181,68
605,49	1300,46
605,68	1267,69
605,87	1357,80
606,07	1239,02
606,26	1322,99
606,45	1284,08
606,64	1222,64
606,84	1279,98
607,03	1300,46
607,22	1312,75
607,41	1302,51
607,60	1169,39
607,80	1306,60
607,99	1279,98
608,18	1263,60
608,37	1210,35
608,56	1290,22
608,76	1282,03
608,95	1212,40
609,14	1290,22
609,33	1239,02
609,52	1202,16
609,72	1232,88
609,91	1277,93
610,10	1267,69
610,29	1353,71
610,48	1329,13
610,68	1286,12
610,87	1290,22
611,06	1253,36
611,25	1269,74
611,44	1288,17
611,63	1243,12
611,83	1298,41
612,02	1273,84
612,21	1273,84
612,40	1253,36
612,59	1247,21
612,79	1247,21
612,98	1304,56
613,17	1345,52
613,36	1298,41
613,55	1351,66
613,74	1257,45
613,93	1304,56
614,13	1259,50
614,32	1322,99
614,51	1230,83
614,70	1304,56
614,89	1345,52
615,08	1234,93
615,28	1312,75
615,47	1216,49
615,66	1173,49
615,85	1255,40
616,04	1296,36
616,23	1247,21
616,42	1320,94
616,62	1243,12
616,81	1257,45
617,00	1290,22
617,19	1355,76
617,38	1279,98
617,57	1232,88
617,76	1322,99
617,95	1232,88
618,15	1257,45
618,34	1288,17
618,53	1245,16
618,72	1265,64
618,91	1335,28
619,10	1300,46
619,29	1284,08
619,48	1290,22
619,68	1269,74
619,87	1322,99
620,06	1150,96
620,25	1216,49
620,44	1318,89
620,63	1316,84
620,82	1208,30
621,01	1232,88
621,20	1232,88
621,39	1282,03
621,59	1279,98
621,78	1247,21
621,97	1224,69
622,16	1331,18
622,35	1339,37
622,54	1263,60
622,73	1249,26
622,92	1269,74
623,11	1243,12
623,30	1290,22
623,49	1232,88
623,68	1271,79
623,88	1296,36
624,07	1216,49
624,26	1196,01
624,45	1232,88
624,64	1259,50
624,83	1380,33
625,02	1247,21
625,21	1284,08
625,40	1286,12
625,59	1329,13
625,78	1265,64
625,97	1339,37
626,16	1236,97
626,35	1271,79
626,54	1282,03
626,74	1247,21
626,93	1230,83
627,12	1302,51
627,31	1247,21
627,50	1267,69
627,69	1329,13
627,88	1331,18
628,07	1320,94
628,26	1282,03
628,45	1306,60
628,64	1282,03
628,83	1230,83
629,02	1263,60
629,21	1284,08
629,40	1353,71
629,59	1202,16
629,78	1337,32
629,97	1267,69
630,16	1333,23
630,35	1271,79
630,54	1294,32
630,73	1366,00
630,92	1288,17
631,11	1368,04
631,30	1359,85
631,49	1406,95
631,68	1710,05
631,87	2541,53
632,06	6670,23
632,25	8699,77
632,44	16357,13
632,63	24516,23
632,82	43582,82
633,01	64957,47
633,20	43066,73
633,39	19560,15
633,58	7577,48
633,77	4800,44
633,96	4597,69
634,15	3485,64
634,34	2185,18
634,53	1851,36
634,72	1865,70
634,91	1669,09
635,10	1488,87
635,29	1560,55
635,48	1466,35
635,67	1423,34
635,86	1388,52
636,05	1419,24
636,24	1382,38
636,43	1384,43
636,62	1366,00
636,81	1361,90
637,00	1245,16
637,19	1292,27
637,38	1302,51
637,57	1236,97
637,76	1314,80
637,95	1245,16
638,14	1314,80
638,33	1290,22
638,52	1290,22
638,71	1251,31
638,89	1304,56
639,08	1300,46
639,27	1288,17
639,46	1314,80
639,65	1290,22
639,84	1286,12
640,03	1318,89
640,22	1279,98
640,41	1327,08
640,60	1322,99
640,79	1277,93
640,98	1202,16
641,17	1282,03
641,36	1288,17
641,55	1322,99
641,74	1302,51
641,92	1267,69
642,11	1302,51
642,30	1253,36
642,49	1173,49
642,68	1220,59
642,87	1300,46
643,06	1247,21
643,25	1329,13
643,44	1232,88
643,63	1337,32
643,82	1261,55
644,00	1316,84
644,19	1224,69
644,38	1335,28
644,57	1255,40
644,76	1282,03
644,95	1306,60
645,14	1253,36
645,33	1306,60
645,52	1249,26
645,71	1304,56
645,89	1259,50
646,08	1306,60
646,27	1224,69
646,46	1271,79
646,65	1243,12
646,84	1320,94
647,03	1232,88
647,22	1292,27
647,40	1269,74
647,59	1249,26
647,78	1290,22
647,97	1239,02
648,16	1177,58
648,35	1312,75
648,54	1253,36
648,73	1298,41
648,91	1218,54
649,10	1368,04
649,29	1310,70
649,48	1202,16
649,67	1290,22
649,86	1296,36
650,05	1249,26
650,23	1380,33
650,42	1226,73
650,61	1257,45
650,80	1243,12
650,99	1208,30
651,18	1306,60
651,36	1282,03
651,55	1310,70
651,74	1269,74
651,93	1286,12
652,12	1306,60
652,31	1232,88
652,49	1279,98
652,68	1294,32
652,87	1261,55
653,06	1345,52
653,25	1265,64
653,44	1273,84
653,62	1353,71
653,81	1228,78
654,00	1298,41
654,19	1257,45
654,38	1282,03
654,56	1247,21
654,75	1277,93
654,94	1193,97
655,13	1298,41
655,32	1310,70
655,51	1296,36
655,69	1284,08
655,88	1290,22
656,07	1322,99
656,26	1314,80
656,45	1232,88
656,63	1269,74
656,82	1286,12
657,01	1257,45
657,20	1325,04
657,38	1228,78
657,57	1236,97
657,76	1263,60
657,95	1265,64
658,14	1298,41
658,32	1314,80
658,51	1288,17
658,70	1202,16
658,89	1253,36
659,08	1263,60
659,26	1255,40
659,45	1327,08
659,64	1288,17
659,83	1212,40
660,01	1314,80
660,20	1257,45
660,39	1282,03
660,58	1247,21
660,76	1347,56
660,95	1236,97
661,14	1290,22
661,33	1245,16
661,51	1224,69
661,70	1273,84
661,89	1191,92
662,08	1253,36
662,26	1282,03
662,45	1292,27
662,64	1298,41
662,83	1290,22
663,01	1277,93
663,20	1302,51
663,39	1196,01
663,58	1343,47
663,76	1222,64
663,95	1177,58
664,14	1189,87
664,32	1226,73
664,51	1314,80
664,70	1339,37
664,89	1312,75
665,07	1327,08
665,26	1279,98
665,45	1220,59
665,64	1263,60
665,82	1288,17
666,01	1251,31
666,20	1247,21
666,38	1165,29
666,57	1271,79
666,76	1253,36
666,95	1269,74
667,13	1273,84
667,32	1220,59
667,51	1343,47
667,69	1269,74
667,88	1302,51
668,07	1314,80
668,25	1286,12
668,44	1271,79
668,63	1218,54
668,81	1296,36
669,00	1298,41
669,19	1261,55
669,38	1273,84
669,56	1204,21
669,75	1236,97
669,94	1200,11
670,12	1224,69
670,31	1253,36
670,50	1322,99
670,68	1298,41
670,87	1253,36
671,06	1204,21
671,24	1202,16
671,43	1202,16
671,62	1251,31
671,80	1290,22
671,99	1239,02
672,18	1267,69
672,36	1292,27
672,55	1306,60
672,74	1366,00
672,92	1273,84
673,11	1267,69
673,29	1310,70
673,48	1320,94
673,67	1316,84
673,85	1253,36
674,04	1294,32
674,23	1224,69
674,41	1210,35
674,60	1247,21
674,79	1290,22
674,97	1273,84
675,16	1296,36
675,34	1304,56
675,53	1249,26
675,72	1269,74
675,90	1241,07
676,09	1218,54
676,28	1271,79
676,46	1243,12
676,65	1282,03
676,83	1214,45
677,02	1255,40
677,21	1200,11
677,39	1239,02
677,58	1198,06
677,77	1279,98
677,95	1273,84
678,14	1187,82
678,32	1241,07
678,51	1183,73
678,70	1259,50
678,88	1208,30
679,07	1312,75
679,25	1232,88
679,44	1249,26
679,63	1267,69
679,81	1220,59
680,00	1241,07
680,18	1312,75
680,37	1296,36
680,55	1271,79
680,74	1318,89
680,93	1265,64
681,11	1241,07
681,30	1359,85
681,48	1253,36
681,67	1247,21
681,85	1288,17
682,04	1251,31
682,23	1249,26
682,41	1286,12
682,60	1312,75
682,78	1232,88
682,97	1322,99
683,15	1255,40
683,34	1214,45
683,53	1263,60
683,71	1294,32
683,90	1247,21
684,08	1282,03
684,27	1306,60
684,45	1300,46
684,64	1279,98
684,82	1226,73
685,01	1284,08
685,19	1290,22
685,38	1273,84
685,57	1290,22
685,75	1298,41
685,94	1255,40
686,12	1214,45
686,31	1251,31
686,49	1290,22
686,68	1253,36
686,86	1247,21
687,05	1263,60
687,23	1257,45
687,42	1251,31
687,60	1247,21
687,79	1257,45
687,97	1282,03
688,16	1220,59
688,34	1255,40
688,53	1220,59
688,71	1263,60
688,90	1247,21
689,08	1277,93
689,27	1290,22
689,45	1265,64
689,64	1292,27
689,82	1286,12
690,01	1216,49
690,19	1249,26
690,38	1210,35
690,56	1275,88
690,75	1243,12
690,93	1302,51
691,12	1267,69
691,30	1306,60
691,49	1232,88
691,67	1220,59
691,86	1253,36
692,04	1290,22
692,23	1263,60
692,41	1259,50
692,60	1263,60
692,78	1306,60
692,97	1312,75
693,15	1314,80
693,34	1257,45
693,52	1247,21
693,71	1304,56
693,89	1208,30
694,08	1236,97
694,26	1279,98
694,44	1230,83
694,63	1255,40
694,81	1257,45
695,00	1236,97
695,18	1292,27
695,37	1296,36
695,55	1298,41
695,74	1257,45
695,92	1282,03
696,10	1226,73
696,29	1267,69
696,47	1359,85
696,66	1265,64
696,84	1267,69
697,03	1236,97
697,21	1355,76
697,40	1320,94
697,58	1271,79
697,76	1296,36
697,95	1267,69
698,13	1257,45
698,32	1228,78
698,50	1292,27
698,68	1265,64
698,87	1279,98
699,05	1255,40
699,24	1273,84
699,42	1298,41
699,61	1300,46
699,79	1320,94
699,97	1216,49
700,16	1220,59
700,34	1232,88
700,53	1263,60
700,71	1245,16
700,89	1333,23
701,08	1239,02
701,26	1196,01
701,45	1312,75
701,63	1265,64
701,81	1290,22
702,00	1202,16
702,18	1208,30
702,37	1290,22
702,55	1331,18
702,73	1347,56
702,92	1150,96
703,10	1288,17
703,28	1366,00
703,47	1359,85
703,65	1196,01
703,84	1251,31
704,02	1212,40
704,20	1347,56
704,39	1288,17
704,57	1286,12
704,75	1265,64
704,94	1288,17
705,12	1210,35
705,30	1241,07
705,49	1331,18
705,67	1251,31
705,86	1286,12
706,04	1302,51
706,22	1247,21
706,41	1232,88
706,59	1183,73
706,77	1282,03
706,96	1257,45
707,14	1288,17
707,32	1249,26
707,51	1249,26
707,69	1282,03
707,87	1314,80
708,06	1273,84
708,24	1275,88
708,42	1232,88
708,61	1314,80
708,79	1308,65
708,97	1316,84
709,16	1239,02
709,34	1273,84
709,52	1298,41
709,71	1277,93
709,89	1308,65
710,07	1210,35
710,26	1333,23
710,44	1277,93
710,62	1263,60
710,80	1241,07
710,99	1300,46
711,17	1247,21
711,35	1247,21
711,54	1265,64
711,72	1265,64
711,90	1316,84
712,09	1220,59
712,27	1263,60
712,45	1267,69
712,63	1261,55
712,82	1294,32
713,00	1150,96
713,18	1226,73
713,37	1243,12
713,55	1177,58
713,73	1273,84
713,91	1302,51
714,10	1292,27
714,28	1265,64
714,46	1277,93
714,65	1288,17
714,83	1284,08
715,01	1310,70
715,19	1302,51
715,38	1224,69
715,56	1245,16
715,74	1243,12
715,92	1265,64
716,11	1292,27
716,29	1306,60
716,47	1286,12
716,65	1306,60
716,84	1255,40
717,02	1290,22
717,20	1163,25
717,38	1253,36
717,57	1292,27
717,75	1286,12
717,93	1288,17
718,11	1282,03
718,30	1265,64
718,48	1228,78
718,66	1249,26
718,84	1241,07
719,03	1271,79
719,21	1271,79
719,39	1286,12
719,57	1232,88
719,75	1249,26
719,94	1269,74
720,12	1288,17
720,30	1259,50
720,48	1282,03
720,67	1288,17
720,85	1275,88
721,03	1234,93
721,21	1249,26
721,39	1282,03
721,58	1279,98
721,76	1296,36
721,94	1241,07
722,12	1265,64
722,30	1298,41
722,49	1327,08
722,67	1269,74
722,85	1357,80
723,03	1380,33
723,21	1202,16
723,40	1239,02
723,58	1259,50
723,76	1185,77
723,94	1296,36
724,12	1318,89
724,30	1271,79
724,49	1236,97
724,67	1265,64
724,85	1271,79
725,03	1204,21
725,21	1282,03
725,40	1265,64
725,58	1247,21
725,76	1337,32
725,94	1224,69
726,12	1275,88
726,30	1320,94
726,49	1284,08
726,67	1196,01
726,85	1191,92
727,03	1298,41
727,21	1198,06
727,39	1279,98
727,57	1298,41
727,76	1286,12
727,94	1275,88
728,12	1198,06
728,30	1218,54
728,48	1296,36
728,66	1265,64
728,84	1259,50
729,03	1296,36
729,21	1241,07
729,39	1263,60
729,57	1306,60
729,75	1204,21
729,93	1275,88
730,11	1286,12
730,30	1312,75
730,48	1357,80
730,66	1257,45
730,84	1306,60
731,02	1284,08
731,20	1275,88
731,38	1269,74
731,56	1214,45
731,74	1220,59
731,93	1245,16
732,11	1322,99
732,29	1279,98
732,47	1304,56
732,65	1286,12
732,83	1275,88
733,01	1310,70
733,19	1300,46
733,37	1275,88
733,56	1228,78
733,74	1318,89
733,92	1288,17
734,10	1255,40
734,28	1316,84
734,46	1288,17
734,64	1253,36
734,82	1290,22
735,00	1220,59
735,18	1273,84
735,36	1273,84
735,54	1312,75
735,73	1316,84
735,91	1290,22
736,09	1308,65
736,27	1304,56
736,45	1304,56
736,63	1241,07
736,81	1239,02
736,99	1298,41
737,17	1279,98
737,35	1220,59
737,53	1253,36
737,71	1204,21
737,89	1316,84
738,07	1245,16
738,25	1279,98
738,43	1249,26
738,61	1193,97
738,80	1275,88
738,98	1226,73
739,16	1279,98
739,34	1279,98
739,52	1218,54
739,70	1210,35
739,88	1222,64
740,06	1247,21
740,24	1208,30
740,42	1261,55
740,60	1241,07
740,78	1224,69
740,96	1279,98
741,14	1257,45
741,32	1261,55
741,50	1288,17
741,68	1314,80
741,86	1241,07
742,04	1257,45
742,22	1277,93
742,40	1265,64
742,58	1282,03
742,76	1271,79
742,94	1335,28
743,12	1310,70
743,30	1269,74
743,48	1253,36
743,66	1292,27
743,84	1261,55
744,02	1245,16
744,20	1343,47
744,38	1232,88
744,56	1277,93
744,74	1273,84
744,92	1314,80
745,10	1173,49
745,28	1298,41
745,46	1298,41
745,64	1288,17
745,82	1239,02
746,00	1230,83
746,18	1220,59
746,36	1337,32
746,54	1243,12
746,72	1257,45
746,90	1298,41
747,08	1255,40
747,26	1302,51
747,44	1193,97
747,62	1206,25
747,80	1249,26
747,98	1290,22
748,15	1300,46
748,33	1271,79
748,51	1277,93
748,69	1322,99
748,87	1255,40
749,05	1302,51
749,23	1296,36
749,41	1253,36
749,59	1263,60
749,77	1325,04
749,95	1232,88
750,13	1306,60
750,31	1196,01
750,49	1193,97
750,67	1261,55
750,85	1310,70
751,03	1208,30
751,20	1228,78
751,38	1288,17
751,56	1198,06
751,74	1298,41
751,92	1267,69
752,10	1173,49
752,28	1333,23
752,46	1232,88
752,64	1239,02
752,82	1288,17
753,00	1284,08
753,18	1318,89
753,35	1251,31
753,53	1279,98
753,71	1298,41
753,89	1261,55
754,07	1214,45
754,25	1267,69
754,43	1263,60
754,61	1325,04
754,79	1224,69
754,97	1228,78
755,14	1265,64
755,32	1286,12
755,50	1259,50
755,68	1300,46
755,86	1269,74
756,04	1294,32
756,22	1247,21
756,40	1257,45
756,57	1228,78
756,75	1236,97
756,93	1269,74
757,11	1322,99
757,29	1290,22
757,47	1245,16
757,65	1329,13
757,82	1257,45
758,00	1294,32
758,18	1349,61
758,36	1302,51
758,54	1236,97
758,72	1249,26
758,90	1288,17
759,07	1249,26
759,25	1189,87
759,43	1220,59
759,61	1290,22
759,79	1294,32
759,97	1306,60
760,15	1245,16
760,32	1292,27
760,50	1265,64
760,68	1279,98
760,86	1161,20
761,04	1230,83
761,22	1236,97
761,39	1267,69
761,57	1251,31
761,75	1304,56
761,93	1267,69
762,11	1269,74
762,28	1275,88
762,46	1239,02
762,64	1241,07
762,82	1245,16
763,00	1331,18
763,18	1245,16
763,35	1224,69
763,53	1325,04
763,71	1247,21
763,89	1279,98
764,07	1372,14
764,24	1261,55
764,42	1275,88
764,60	1253,36
764,78	1230,83
764,96	1261,55
765,13	1239,02
765,31	1232,88
765,49	1282,03
765,67	1245,16
765,84	1318,89
766,02	1263,60
766,20	1228,78
766,38	1304,56
766,56	1234,93
766,73	1306,60
766,91	1265,64
767,09	1230,83
767,27	1232,88
767,44	1210,35
767,62	1265,64
767,80	1337,32
767,98	1257,45
768,15	1275,88
768,33	1304,56
768,51	1216,49
768,69	1241,07
768,87	1310,70
769,04	1241,07
769,22	1282,03
769,40	1284,08
769,58	1269,74
769,75	1290,22
769,93	1247,21
770,11	1212,40
770,28	1314,80
770,46	1183,73
770,64	1316,84
770,82	1322,99
770,99	1263,60
771,17	1300,46
771,35	1298,41
771,53	1343,47
771,70	1222,64
771,88	1198,06
772,06	1298,41
772,23	1234,93
772,41	1222,64
772,59	1269,74
772,77	1247,21
772,94	1249,26
773,12	1269,74
773,30	1284,08
773,47	1331,18
773,65	1296,36
773,83	1216,49
774,01	1271,79
774,18	1257,45
774,36	1279,98
774,54	1269,74
774,71	1304,56
774,89	1263,60
775,07	1284,08
775,24	1282,03
775,42	1271,79
775,60	1265,64
775,78	1279,98
775,95	1288,17
776,13	1261,55
776,31	1253,36
776,48	1290,22
776,66	1343,47
776,84	1308,65
777,01	1304,56
777,19	1337,32
777,37	1263,60
777,54	1245,16
777,72	1271,79
777,90	1261,55
778,07	1286,12
778,25	1226,73
778,43	1271,79
778,60	1236,97
778,78	1267,69
778,96	1288,17
779,13	1271,79
779,31	1331,18
779,49	1245,16
779,66	1245,16
779,84	1320,94
780,01	1212,40
780,19	1251,31
780,37	1234,93
780,54	1253,36
780,72	1267,69
780,90	1222,64
781,07	1249,26
781,25	1298,41
781,43	1257,45
781,60	1241,07
781,78	1261,55
781,95	1251,31
782,13	1179,63
782,31	1279,98
782,48	1257,45
782,66	1288,17
782,83	1312,75
783,01	1273,84
783,19	1255,40
783,36	1234,93
783,54	1294,32
783,72	1273,84
783,89	1247,21
784,07	1241,07
784,24	1220,59
784,42	1259,50
784,60	1304,56
784,77	1325,04
784,95	1265,64
785,12	1261,55
785,30	1210,35
785,47	1265,64
785,65	1226,73
785,83	1292,27
786,00	1302,51
786,18	1273,84
786,35	1292,27
786,53	1202,16
786,71	1247,21
786,88	1372,14
787,06	1312,75
787,23	1314,80
787,41	1210,35
787,58	1265,64
787,76	1251,31
787,94	1257,45
788,11	1249,26
788,29	1273,84
788,46	1198,06
788,64	1249,26
788,81	1249,26
788,99	1257,45
789,16	1335,28
789,34	1230,83
789,52	1271,79
789,69	1247,21
789,87	1302,51
790,04	1277,93
790,22	1310,70
790,39	1239,02
790,57	1259,50
790,74	1320,94
790,92	1269,74
791,09	1271,79
791,27	1265,64
791,44	1292,27
791,62	1269,74
791,79	1255,40
791,97	1251,31
792,15	1232,88
792,32	1284,08
792,50	1271,79
792,67	1277,93
792,85	1267,69
793,02	1236,97
793,20	1279,98
793,37	1275,88
793,55	1273,84
793,72	1259,50
793,90	1271,79
794,07	1306,60
794,25	1249,26
794,42	1271,79
794,60	1265,64
794,77	1234,93
794,95	1316,84
795,12	1277,93
795,30	1263,60
795,47	1243,12
795,65	1284,08
795,82	1265,64
796,00	1241,07
796,17	1271,79
796,34	1204,21
796,52	1275,88
796,69	1216,49
796,87	1288,17
797,04	1222,64
797,22	1245,16
797,39	1249,26
797,57	1249,26
797,74	1306,60
797,92	1296,36
798,09	1222,64
798,27	1265,64
798,44	1290,22
798,62	1224,69
798,79	1265,64
798,96	1288,17
799,14	1220,59
799,31	1222,64
799,49	1224,69
799,66	1269,74
799,84	1265,64
800,01	1255,40
800,19	1290,22
800,36	1239,02
800,53	1279,98
800,71	1263,60
800,88	1193,97
801,06	1171,44
801,23	1234,93
801,41	1282,03
801,58	1210,35
801,75	1241,07
801,93	1259,50
802,10	1245,16
802,28	1269,74
802,45	1220,59
802,63	1243,12
802,80	1208,30
802,97	1273,84
803,15	1279,98
803,32	1271,79
803,50	1300,46
803,67	1277,93
803,84	1329,13
804,02	1320,94
804,19	1294,32
804,37	1265,64
804,54	1267,69
804,71	1269,74
804,89	1267,69
805,06	1267,69
805,24	1292,27
805,41	1335,28
805,58	1208,30
805,76	1259,50
805,93	1226,73
806,10	1294,32
806,28	1232,88
806,45	1322,99
806,63	1269,74
806,80	1206,25
806,97	1232,88
807,15	1327,08
807,32	1263,60
807,49	1279,98
807,67	1302,51
807,84	1351,66
808,01	1245,16
808,19	1267,69
808,36	1327,08
808,54	1300,46
808,71	1220,59
808,88	1290,22
809,06	1249,26
809,23	1257,45
809,40	1228,78
809,58	1302,51
809,75	1275,88
809,92	1232,88
810,10	1234,93
810,27	1318,89
810,44	1275,88
810,62	1279,98
810,79	1273,84
810,96	1214,45
811,14	1267,69
811,31	1222,64
811,48	1290,22
811,66	1275,88
811,83	1308,65
812,00	1333,23
812,18	1318,89
812,35	1318,89
812,52	1318,89
812,69	1290,22
812,87	1284,08
813,04	1263,60
813,21	1286,12
813,39	1308,65
813,56	1292,27
813,73	1236,97
813,91	1247,21
814,08	1251,31
814,25	1222,64
814,42	1341,42
814,60	1261,55
814,77	1249,26
814,94	1273,84
815,12	1241,07
815,29	1269,74
815,46	1290,22
815,63	1312,75
815,81	1189,87
815,98	1232,88
816,15	1286,12
816,33	1329,13
816,50	1279,98
816,67	1243,12
816,84	1271,79
817,02	1224,69
817,19	1249,26
817,36	1284,08
817,53	1273,84
817,71	1294,32
817,88	1349,61
818,05	1261,55
818,22	1245,16
818,40	1347,56
818,57	1212,40
818,74	1269,74
818,91	1275,88
819,09	1232,88
819,26	1279,98
819,43	1298,41
819,60	1263,60
819,78	1226,73
819,95	1275,88
820,12	1294,32
820,29	1259,50
820,47	1218,54
820,64	1267,69
820,81	1288,17
820,98	1277,93
821,15	1284,08
821,33	1255,40
821,50	1304,56
821,67	1263,60
821,84	1284,08
822,02	1267,69
822,19	1255,40
822,36	1245,16
822,53	1279,98
822,70	1241,07
822,88	1243,12
823,05	1267,69
823,22	1200,11
823,39	1228,78
823,56	1257,45
823,74	1329,13
823,91	1290,22
824,08	1277,93
824,25	1230,83
824,42	1222,64
824,60	1271,79
824,77	1216,49
824,94	1234,93
825,11	1335,28
825,28	1308,65
825,45	1196,01
825,63	1183,73
825,80	1241,07
825,97	1279,98
826,14	1282,03
826,31	1269,74
826,48	1308,65
826,66	1198,06
826,83	1308,65
827,00	1216,49
827,17	1216,49
827,34	1255,40
827,51	1304,56
827,69	1284,08
827,86	1292,27
828,03	1259,50
828,20	1249,26
828,37	1304,56
828,54	1228,78
828,71	1247,21
828,89	1273,84
829,06	1312,75
829,23	1277,93
829,40	1298,41
829,57	1212,40
829,74	1308,65
829,91	1255,40
830,09	1173,49
830,26	1273,84
830,43	1220,59
830,60	1257,45
830,77	1263,60
830,94	1243,12
831,11	1222,64
831,28	1228,78
831,46	1232,88
831,63	1290,22
831,80	1275,88
831,97	1224,69
832,14	1275,88
832,31	1286,12
832,48	1286,12
832,65	1296,36
832,82	1255,40
832,99	1296,36
833,17	1216,49
833,34	1298,41
833,51	1255,40
833,68	1212,40
833,85	1175,53
834,02	1269,74
834,19	1214,45
834,36	1232,88
834,53	1247,21
834,70	1257,45
834,87	1259,50
835,04	1288,17
835,22	1298,41
835,39	1277,93
835,56	1271,79
835,73	1236,97
835,90	1216,49
836,07	1327,08
836,24	1236,97
836,41	1222,64
836,58	1236,97
836,75	1253,36
836,92	1314,80
837,09	1249,26
837,26	1322,99
837,43	1232,88
837,60	1214,45
837,77	1316,84
837,94	1222,64
838,12	1329,13
838,29	1226,73
838,46	1265,64
838,63	1271,79
838,80	1325,04
838,97	1296,36
839,14	1294,32
839,31	1220,59
839,48	1226,73
839,65	1337,32
839,82	1318,89
839,99	1277,93
840,16	1316,84
840,33	1308,65
840,50	1198,06
840,67	1232,88
840,84	1329,13
841,01	1228,78
841,18	1239,02
841,35	1255,40
841,52	1224,69
841,69	1310,70
841,86	1202,16
842,03	1345,52
842,20	1220,59
842,37	1226,73
842,54	1302,51
842,71	1298,41
842,88	1298,41
843,05	1284,08
843,22	1277,93
843,39	1226,73
843,56	1282,03
843,73	1265,64
843,90	1204,21
844,07	1249,26
844,24	1322,99
844,41	1263,60
844,58	1230,83
844,75	1249,26
844,92	1222,64
845,09	1331,18
845,26	1261,55
845,43	1234,93
845,60	1249,26
845,77	1304,56
845,94	1265,64
846,10	1239,02
846,27	1239,02
846,44	1267,69
846,61	1329,13
846,78	1314,80
846,95	1333,23
847,12	1165,29
847,29	1239,02
847,46	1265,64
847,63	1212,40
847,80	1314,80
847,97	1302,51
848,14	1267,69
848,31	1212,40
848,48	1275,88
848,65	1247,21
848,82	1306,60
848,98	1196,01
849,15	1200,11
849,32	1316,84
849,49	1232,88
849,66	1300,46
849,83	1318,89
850,00	1257,45
850,17	1259,50
850,34	1275,88
850,51	1308,65
850,68	1304,56
850,85	1286,12
851,01	1239,02
851,18	1306,60
851,35	1306,60
851,52	1286,12
851,69	1308,65
851,86	1243,12
852,03	1263,60
852,20	1290,22
852,37	1290,22
852,53	1273,84
852,70	1185,77
852,87	1222,64
853,04	1294,32
853,21	1255,40
853,38	1298,41
853,55	1294,32
853,72	1300,46
853,89	1249,26
854,05	1249,26
854,22	1198,06
854,39	1327,08
854,56	1230,83
854,73	1230,83
854,90	1251,31
855,07	1247,21
855,23	1304,56
855,40	1263,60
855,57	1243,12
855,74	1271,79
855,91	1302,51
856,08	1265,64
856,25	1255,40
856,41	1306,60
856,58	1277,93
856,75	1282,03
856,92	1228,78
857,09	1247,21
857,26	1273,84
857,42	1314,80
857,59	1296,36
857,76	1341,42
857,93	1255,40
858,10	1263,60
858,27	1253,36
858,43	1210,35
858,60	1249,26
858,77	1273,84
858,94	1269,74
859,11	1282,03
859,27	1245,16
859,44	1198,06
859,61	1290,22
859,78	1222,64
859,95	1236,97
860,12	1265,64
860,28	1245,16
860,45	1296,36
860,62	1220,59
860,79	1216,49
860,95	1298,41
861,12	1189,87
861,29	1243,12
861,46	1251,31
861,63	1222,64
861,79	1230,83
861,96	1220,59
862,13	1265,64
862,30	1300,46
862,47	1167,34
862,63	1216,49
862,80	1243,12
862,97	1267,69
863,14	1308,65
863,30	1263,60
863,47	1222,64
863,64	1296,36
863,81	1247,21
863,97	1271,79
864,14	1327,08
864,31	1277,93
864,48	1222,64
864,65	1251,31
864,81	1247,21
864,98	1245,16
865,15	1269,74
865,32	1302,51
865,48	1265,64
865,65	1214,45
865,82	1351,66
865,98	1335,28
866,15	1320,94
866,32	1314,80
866,49	1275,88
866,65	1257,45
866,82	1279,98
866,99	1239,02
867,16	1273,84
867,32	1210,35
867,49	1329,13
867,66	1257,45
867,83	1216,49
867,99	1255,40
868,16	1239,02
868,33	1175,53
868,49	1232,88
868,66	1288,17
868,83	1255,40
868,99	1306,60
869,16	1251,31
869,33	1269,74
869,50	1249,26
869,66	1265,64
869,83	1271,79
870,00	1255,40
870,16	1257,45
870,33	1294,32
870,50	1296,36
870,66	1269,74
870,83	1265,64
871,00	1320,94
871,17	1181,68
871,33	1269,74
871,50	1241,07
871,67	1214,45
871,83	1257,45
872,00	1253,36
872,17	1275,88
872,33	1251,31
872,50	1312,75
872,67	1279,98
872,83	1292,27
873,00	1247,21
873,17	1275,88
873,33	1265,64
873,50	1269,74
873,67	1232,88
873,83	1273,84
874,00	1306,60
874,16	1189,87
874,33	1224,69
874,50	1236,97
874,66	1288,17
874,83	1302,51
875,00	1329,13
875,16	1249,26
875,33	1314,80
875,50	1236,97
875,66	1214,45
875,83	1357,80
875,99	1271,79
876,16	1185,77
876,33	1257,45
876,49	1259,50
876,66	1267,69
876,83	1232,88
876,99	1202,16
877,16	1255,40
877,32	1245,16
877,49	1277,93
877,66	1296,36
877,82	1284,08
877,99	1294,32
878,15	1247,21
878,32	1273,84
878,49	1247,21
878,65	1271,79
878,82	1243,12
878,98	1282,03
879,15	1189,87
879,32	1290,22
879,48	1286,12
879,65	1241,07
879,81	1322,99
879,98	1310,70
880,15	1290,22
880,31	1189,87
880,48	1312,75
880,64	1282,03
880,81	1294,32
880,97	1261,55
881,14	1249,26
881,31	1241,07
881,47	1263,60
881,64	1306,60
881,80	1259,50
881,97	1290,22
882,13	1282,03
882,30	1292,27
882,47	1269,74
882,63	1251,31
882,80	1206,25
882,96	1288,17
883,13	1263,60
883,29	1306,60
883,46	1241,07
883,62	1247,21
883,79	1206,25
883,95	1290,22
884,12	1220,59
884,29	1277,93
884,45	1327,08
884,62	1263,60
884,78	1269,74
884,95	1269,74
885,11	1220,59
885,28	1243,12
885,44	1298,41
885,61	1255,40
885,77	1298,41
885,94	1261,55
886,10	1249,26
886,27	1314,80
886,43	1230,83
886,60	1206,25
886,76	1312,75
886,93	1230,83
887,09	1341,42
887,26	1157,10
887,42	1241,07
887,59	1306,60
887,75	1257,45
887,92	1249,26
888,08	1261,55
888,25	1331,18
888,41	1333,23
888,58	1214,45
888,74	1265,64
888,91	1193,97
>>>>>End Processed Spectral Data<<<<<
