SpectraSuite Data File
++++++++++++++++++++++++++++++++++++
Date: Sun Apr 03 16:52:04 CEST 2016
User: root
Dark Spectrum Present: No
Reference Spectrum Present: No
Number of Sampled Component Spectra: 1
Spectrometers: USB4C02835
Integration Time (usec): 10000 (USB4C02835)
Spectra Averaged: 1 (USB4C02835)
Boxcar Smoothing: 0 (USB4C02835)
Correct for Electrical Dark: No (USB4C02835)
Strobe/Lamp Enabled: No (USB4C02835)
Correct for Detector Non-linearity: No (USB4C02835)
Correct for Stray Light: No (USB4C02835)
Number of Pixels in Processed Spectrum: 3648
>>>>>Begin Processed Spectral Data<<<<<
177,47	1275,88
177,69	1275,88
177,91	1275,88
178,13	1302,51
178,36	1273,84
178,58	1228,78
178,80	1322,99
179,02	1273,84
179,24	1220,59
179,46	1263,60
179,68	1302,51
179,90	1198,06
180,13	1257,45
180,35	1282,03
180,57	1269,74
180,79	1277,93
181,01	1314,80
181,23	1247,21
181,45	1282,03
181,67	1247,21
181,90	1265,64
182,12	1271,79
182,34	1234,93
182,56	1302,51
182,78	1290,22
183,00	1261,55
183,22	1345,52
183,44	1392,62
183,66	1257,45
183,89	1273,84
184,11	1290,22
184,33	1226,73
184,55	1265,64
184,77	1294,32
184,99	1277,93
185,21	1331,18
185,43	1249,26
185,65	1232,88
185,87	1208,30
186,10	1265,64
186,32	1198,06
186,54	1271,79
186,76	1275,88
186,98	1218,54
187,20	1261,55
187,42	1294,32
187,64	1282,03
187,86	1316,84
188,08	1247,21
188,30	1290,22
188,52	1265,64
188,75	1372,14
188,97	1261,55
189,19	1263,60
189,41	1320,94
189,63	1230,83
189,85	1282,03
190,07	1273,84
190,29	1265,64
190,51	1261,55
190,73	1177,58
190,95	1273,84
191,17	1255,40
191,39	1308,65
191,61	1269,74
191,84	1308,65
192,06	1302,51
192,28	1265,64
192,50	1314,80
192,72	1267,69
192,94	1245,16
193,16	1267,69
193,38	1325,04
193,60	1200,11
193,82	1253,36
194,04	1275,88
194,26	1327,08
194,48	1224,69
194,70	1241,07
194,92	1230,83
195,14	1259,50
195,36	1290,22
195,58	1288,17
195,80	1212,40
196,02	1228,78
196,24	1243,12
196,46	1361,90
196,69	1337,32
196,91	1261,55
197,13	1236,97
197,35	1177,58
197,57	1245,16
197,79	1232,88
198,01	1304,56
198,23	1325,04
198,45	1255,40
198,67	1339,37
198,89	1286,12
199,11	1296,36
199,33	1212,40
199,55	1241,07
199,77	1337,32
199,99	1288,17
200,21	1261,55
200,43	1302,51
200,65	1259,50
200,87	1230,83
201,09	1267,69
201,31	1329,13
201,53	1255,40
201,75	1320,94
201,97	1226,73
202,19	1232,88
202,41	1234,93
202,63	1308,65
202,85	1282,03
203,07	1232,88
203,29	1204,21
203,51	1298,41
203,73	1282,03
203,95	1257,45
204,17	1249,26
204,39	1259,50
204,61	1273,84
204,83	1296,36
205,05	1294,32
205,27	1271,79
205,49	1273,84
205,71	1247,21
205,93	1347,56
206,15	1347,56
206,37	1335,28
206,59	1214,45
206,81	1298,41
207,03	1298,41
207,25	1259,50
207,47	1302,51
207,69	1249,26
207,91	1290,22
208,13	1320,94
208,34	1320,94
208,56	1327,08
208,78	1230,83
209,00	1279,98
209,22	1243,12
209,44	1271,79
209,66	1220,59
209,88	1273,84
210,10	1314,80
210,32	1284,08
210,54	1308,65
210,76	1310,70
210,98	1212,40
211,20	1267,69
211,42	1232,88
211,64	1331,18
211,86	1310,70
212,08	1247,21
212,30	1265,64
212,52	1347,56
212,74	1275,88
212,96	1306,60
213,17	1239,02
213,39	1228,78
213,61	1259,50
213,83	1275,88
214,05	1216,49
214,27	1249,26
214,49	1232,88
214,71	1294,32
214,93	1239,02
215,15	1288,17
215,37	1236,97
215,59	1273,84
215,81	1230,83
216,03	1257,45
216,24	1249,26
216,46	1245,16
216,68	1279,98
216,90	1263,60
217,12	1339,37
217,34	1331,18
217,56	1236,97
217,78	1310,70
218,00	1314,80
218,22	1226,73
218,44	1253,36
218,66	1335,28
218,87	1288,17
219,09	1286,12
219,31	1271,79
219,53	1288,17
219,75	1333,23
219,97	1275,88
220,19	1263,60
220,41	1288,17
220,63	1298,41
220,85	1286,12
221,06	1247,21
221,28	1322,99
221,50	1337,32
221,72	1243,12
221,94	1247,21
222,16	1236,97
222,38	1284,08
222,60	1329,13
222,82	1282,03
223,03	1245,16
223,25	1298,41
223,47	1263,60
223,69	1298,41
223,91	1259,50
224,13	1275,88
224,35	1263,60
224,57	1269,74
224,78	1298,41
225,00	1331,18
225,22	1236,97
225,44	1232,88
225,66	1251,31
225,88	1353,71
226,10	1239,02
226,32	1255,40
226,53	1275,88
226,75	1277,93
226,97	1296,36
227,19	1257,45
227,41	1232,88
227,63	1220,59
227,85	1226,73
228,06	1329,13
228,28	1290,22
228,50	1255,40
228,72	1273,84
228,94	1325,04
229,16	1230,83
229,37	1255,40
229,59	1206,25
229,81	1257,45
230,03	1261,55
230,25	1282,03
230,47	1234,93
230,69	1279,98
230,90	1277,93
231,12	1210,35
231,34	1279,98
231,56	1241,07
231,78	1273,84
232,00	1298,41
232,21	1359,85
232,43	1286,12
232,65	1236,97
232,87	1302,51
233,09	1269,74
233,30	1312,75
233,52	1273,84
233,74	1273,84
233,96	1290,22
234,18	1325,04
234,40	1277,93
234,61	1230,83
234,83	1318,89
235,05	1312,75
235,27	1273,84
235,49	1314,80
235,70	1167,34
235,92	1335,28
236,14	1282,03
236,36	1279,98
236,58	1327,08
236,79	1294,32
237,01	1245,16
237,23	1259,50
237,45	1294,32
237,67	1306,60
237,88	1265,64
238,10	1239,02
238,32	1269,74
238,54	1279,98
238,76	1236,97
238,97	1218,54
239,19	1320,94
239,41	1314,80
239,63	1232,88
239,85	1312,75
240,06	1261,55
240,28	1214,45
240,50	1236,97
240,72	1298,41
240,93	1286,12
241,15	1304,56
241,37	1335,28
241,59	1216,49
241,81	1228,78
242,02	1288,17
242,24	1273,84
242,46	1243,12
242,68	1345,52
242,89	1169,39
243,11	1167,34
243,33	1277,93
243,55	1259,50
243,76	1243,12
243,98	1265,64
244,20	1261,55
244,42	1329,13
244,64	1251,31
244,85	1292,27
245,07	1290,22
245,29	1345,52
245,51	1304,56
245,72	1316,84
245,94	1273,84
246,16	1220,59
246,38	1257,45
246,59	1249,26
246,81	1271,79
247,03	1292,27
247,24	1284,08
247,46	1275,88
247,68	1298,41
247,90	1226,73
248,11	1306,60
248,33	1261,55
248,55	1312,75
248,77	1222,64
248,98	1314,80
249,20	1241,07
249,42	1261,55
249,64	1220,59
249,85	1263,60
250,07	1304,56
250,29	1292,27
250,50	1224,69
250,72	1249,26
250,94	1279,98
251,16	1296,36
251,37	1234,93
251,59	1265,64
251,81	1216,49
252,02	1337,32
252,24	1277,93
252,46	1320,94
252,68	1363,95
252,89	1300,46
253,11	1255,40
253,33	1316,84
253,54	1273,84
253,76	1325,04
253,98	1263,60
254,20	1286,12
254,41	1265,64
254,63	1269,74
254,85	1204,21
255,06	1181,68
255,28	1263,60
255,50	1347,56
255,71	1253,36
255,93	1318,89
256,15	1271,79
256,36	1292,27
256,58	1337,32
256,80	1222,64
257,02	1249,26
257,23	1239,02
257,45	1298,41
257,67	1236,97
257,88	1218,54
258,10	1279,98
258,32	1296,36
258,53	1312,75
258,75	1214,45
258,97	1220,59
259,18	1253,36
259,40	1312,75
259,62	1263,60
259,83	1263,60
260,05	1316,84
260,27	1222,64
260,48	1304,56
260,70	1277,93
260,92	1316,84
261,13	1310,70
261,35	1290,22
261,57	1255,40
261,78	1282,03
262,00	1308,65
262,22	1255,40
262,43	1234,93
262,65	1269,74
262,86	1267,69
263,08	1275,88
263,30	1273,84
263,51	1269,74
263,73	1306,60
263,95	1234,93
264,16	1282,03
264,38	1282,03
264,60	1322,99
264,81	1251,31
265,03	1329,13
265,25	1337,32
265,46	1314,80
265,68	1290,22
265,89	1310,70
266,11	1165,29
266,33	1304,56
266,54	1243,12
266,76	1263,60
266,98	1331,18
267,19	1249,26
267,41	1263,60
267,62	1241,07
267,84	1234,93
268,06	1249,26
268,27	1226,73
268,49	1263,60
268,70	1271,79
268,92	1271,79
269,14	1222,64
269,35	1236,97
269,57	1308,65
269,79	1241,07
270,00	1247,21
270,22	1271,79
270,43	1257,45
270,65	1198,06
270,87	1175,53
271,08	1378,28
271,30	1312,75
271,51	1267,69
271,73	1247,21
271,95	1284,08
272,16	1253,36
272,38	1292,27
272,59	1191,92
272,81	1265,64
273,02	1275,88
273,24	1191,92
273,46	1234,93
273,67	1275,88
273,89	1218,54
274,10	1271,79
274,32	1282,03
274,54	1314,80
274,75	1349,61
274,97	1267,69
275,18	1241,07
275,40	1296,36
275,61	1306,60
275,83	1329,13
276,05	1304,56
276,26	1279,98
276,48	1234,93
276,69	1216,49
276,91	1304,56
277,12	1224,69
277,34	1257,45
277,55	1306,60
277,77	1232,88
277,99	1253,36
278,20	1290,22
278,42	1253,36
278,63	1277,93
278,85	1220,59
279,06	1189,87
279,28	1179,63
279,49	1282,03
279,71	1224,69
279,93	1245,16
280,14	1302,51
280,36	1271,79
280,57	1245,16
280,79	1261,55
281,00	1312,75
281,22	1306,60
281,43	1357,80
281,65	1292,27
281,86	1239,02
282,08	1329,13
282,29	1312,75
282,51	1243,12
282,73	1261,55
282,94	1253,36
283,16	1241,07
283,37	1271,79
283,59	1304,56
283,80	1150,96
284,02	1351,66
284,23	1228,78
284,45	1273,84
284,66	1232,88
284,88	1265,64
285,09	1251,31
285,31	1216,49
285,52	1314,80
285,74	1245,16
285,95	1267,69
286,17	1263,60
286,38	1353,71
286,60	1304,56
286,81	1239,02
287,03	1335,28
287,24	1261,55
287,46	1202,16
287,67	1273,84
287,89	1222,64
288,10	1224,69
288,32	1316,84
288,53	1273,84
288,75	1214,45
288,96	1343,47
289,18	1241,07
289,39	1286,12
289,61	1257,45
289,82	1257,45
290,04	1290,22
290,25	1267,69
290,47	1288,17
290,68	1279,98
290,90	1249,26
291,11	1312,75
291,33	1288,17
291,54	1263,60
291,76	1273,84
291,97	1269,74
292,18	1353,71
292,40	1304,56
292,61	1292,27
292,83	1245,16
293,04	1279,98
293,26	1171,44
293,47	1265,64
293,69	1271,79
293,90	1222,64
294,12	1298,41
294,33	1228,78
294,55	1247,21
294,76	1347,56
294,97	1310,70
295,19	1296,36
295,40	1257,45
295,62	1290,22
295,83	1267,69
296,05	1327,08
296,26	1241,07
296,48	1310,70
296,69	1275,88
296,90	1210,35
297,12	1265,64
297,33	1228,78
297,55	1224,69
297,76	1275,88
297,98	1214,45
298,19	1202,16
298,41	1279,98
298,62	1226,73
298,83	1275,88
299,05	1292,27
299,26	1257,45
299,48	1200,11
299,69	1286,12
299,90	1206,25
300,12	1267,69
300,33	1204,21
300,55	1279,98
300,76	1269,74
300,98	1257,45
301,19	1370,09
301,40	1286,12
301,62	1292,27
301,83	1198,06
302,05	1300,46
302,26	1292,27
302,47	1277,93
302,69	1249,26
302,90	1230,83
303,12	1302,51
303,33	1294,32
303,54	1304,56
303,76	1298,41
303,97	1261,55
304,19	1282,03
304,40	1208,30
304,61	1265,64
304,83	1251,31
305,04	1265,64
305,26	1251,31
305,47	1284,08
305,68	1261,55
305,90	1226,73
306,11	1249,26
306,33	1265,64
306,54	1398,76
306,75	1226,73
306,97	1296,36
307,18	1247,21
307,39	1171,44
307,61	1298,41
307,82	1261,55
308,04	1286,12
308,25	1277,93
308,46	1302,51
308,68	1296,36
308,89	1255,40
309,10	1282,03
309,32	1277,93
309,53	1183,73
309,74	1273,84
309,96	1226,73
310,17	1261,55
310,39	1261,55
310,60	1370,09
310,81	1310,70
311,03	1277,93
311,24	1249,26
311,45	1259,50
311,67	1288,17
311,88	1290,22
312,09	1232,88
312,31	1273,84
312,52	1284,08
312,73	1300,46
312,95	1361,90
313,16	1279,98
313,37	1277,93
313,59	1284,08
313,80	1327,08
314,01	1277,93
314,23	1290,22
314,44	1228,78
314,65	1251,31
314,87	1241,07
315,08	1279,98
315,29	1320,94
315,51	1247,21
315,72	1263,60
315,93	1243,12
316,15	1251,31
316,36	1273,84
316,57	1271,79
316,79	1257,45
317,00	1310,70
317,21	1249,26
317,43	1355,76
317,64	1243,12
317,85	1277,93
318,07	1247,21
318,28	1220,59
318,49	1376,24
318,70	1253,36
318,92	1288,17
319,13	1277,93
319,34	1236,97
319,56	1271,79
319,77	1294,32
319,98	1275,88
320,20	1261,55
320,41	1329,13
320,62	1355,76
320,83	1247,21
321,05	1214,45
321,26	1251,31
321,47	1198,06
321,69	1394,67
321,90	1243,12
322,11	1277,93
322,32	1265,64
322,54	1247,21
322,75	1271,79
322,96	1312,75
323,18	1277,93
323,39	1308,65
323,60	1279,98
323,81	1261,55
324,03	1282,03
324,24	1306,60
324,45	1286,12
324,66	1267,69
324,88	1333,23
325,09	1304,56
325,30	1273,84
325,52	1320,94
325,73	1314,80
325,94	1296,36
326,15	1263,60
326,37	1255,40
326,58	1245,16
326,79	1288,17
327,00	1267,69
327,22	1269,74
327,43	1255,40
327,64	1320,94
327,85	1290,22
328,07	1322,99
328,28	1236,97
328,49	1257,45
328,70	1353,71
328,92	1339,37
329,13	1267,69
329,34	1261,55
329,55	1259,50
329,76	1216,49
329,98	1218,54
330,19	1325,04
330,40	1273,84
330,61	1288,17
330,83	1169,39
331,04	1314,80
331,25	1271,79
331,46	1304,56
331,68	1335,28
331,89	1290,22
332,10	1302,51
332,31	1216,49
332,52	1316,84
332,74	1267,69
332,95	1273,84
333,16	1288,17
333,37	1261,55
333,58	1226,73
333,80	1236,97
334,01	1216,49
334,22	1224,69
334,43	1318,89
334,64	1261,55
334,86	1253,36
335,07	1261,55
335,28	1273,84
335,49	1265,64
335,70	1243,12
335,92	1304,56
336,13	1345,52
336,34	1249,26
336,55	1298,41
336,76	1253,36
336,98	1247,21
337,19	1288,17
337,40	1300,46
337,61	1314,80
337,82	1296,36
338,04	1314,80
338,25	1263,60
338,46	1247,21
338,67	1253,36
338,88	1220,59
339,09	1255,40
339,31	1189,87
339,52	1294,32
339,73	1322,99
339,94	1282,03
340,15	1249,26
340,36	1370,09
340,58	1249,26
340,79	1226,73
341,00	1322,99
341,21	1204,21
341,42	1314,80
341,63	1255,40
341,85	1253,36
342,06	1277,93
342,27	1189,87
342,48	1216,49
342,69	1263,60
342,90	1302,51
343,12	1216,49
343,33	1329,13
343,54	1249,26
343,75	1312,75
343,96	1290,22
344,17	1277,93
344,38	1271,79
344,60	1222,64
344,81	1351,66
345,02	1261,55
345,23	1269,74
345,44	1263,60
345,65	1314,80
345,86	1286,12
346,07	1265,64
346,29	1257,45
346,50	1177,58
346,71	1200,11
346,92	1271,79
347,13	1290,22
347,34	1275,88
347,55	1288,17
347,76	1232,88
347,98	1183,73
348,19	1329,13
348,40	1290,22
348,61	1310,70
348,82	1267,69
349,03	1265,64
349,24	1265,64
349,45	1304,56
349,66	1232,88
349,88	1294,32
350,09	1224,69
350,30	1267,69
350,51	1282,03
350,72	1255,40
350,93	1279,98
351,14	1196,01
351,35	1249,26
351,56	1239,02
351,77	1310,70
351,99	1294,32
352,20	1335,28
352,41	1220,59
352,62	1273,84
352,83	1243,12
353,04	1271,79
353,25	1349,61
353,46	1314,80
353,67	1282,03
353,88	1333,23
354,09	1173,49
354,30	1282,03
354,52	1261,55
354,73	1198,06
354,94	1179,63
355,15	1310,70
355,36	1271,79
355,57	1282,03
355,78	1306,60
355,99	1263,60
356,20	1183,73
356,41	1296,36
356,62	1286,12
356,83	1208,30
357,04	1191,92
357,25	1292,27
357,46	1271,79
357,68	1310,70
357,89	1286,12
358,10	1282,03
358,31	1175,53
358,52	1308,65
358,73	1249,26
358,94	1325,04
359,15	1185,77
359,36	1271,79
359,57	1279,98
359,78	1255,40
359,99	1269,74
360,20	1234,93
360,41	1296,36
360,62	1290,22
360,83	1198,06
361,04	1302,51
361,25	1288,17
361,46	1288,17
361,67	1255,40
361,88	1214,45
362,09	1277,93
362,30	1308,65
362,51	1284,08
362,72	1312,75
362,93	1239,02
363,14	1322,99
363,35	1286,12
363,56	1236,97
363,78	1224,69
363,99	1214,45
364,20	1294,32
364,41	1261,55
364,62	1275,88
364,83	1312,75
365,04	1357,80
365,25	1269,74
365,46	1275,88
365,67	1255,40
365,88	1333,23
366,09	1243,12
366,30	1282,03
366,51	1282,03
366,72	1284,08
366,93	1273,84
367,14	1329,13
367,35	1269,74
367,56	1322,99
367,77	1243,12
367,98	1337,32
368,18	1273,84
368,39	1279,98
368,60	1202,16
368,81	1243,12
369,02	1263,60
369,23	1232,88
369,44	1271,79
369,65	1269,74
369,86	1241,07
370,07	1318,89
370,28	1257,45
370,49	1275,88
370,70	1271,79
370,91	1318,89
371,12	1243,12
371,33	1265,64
371,54	1290,22
371,75	1228,78
371,96	1261,55
372,17	1267,69
372,38	1255,40
372,59	1239,02
372,80	1249,26
373,01	1327,08
373,22	1327,08
373,43	1320,94
373,64	1312,75
373,85	1267,69
374,06	1277,93
374,26	1318,89
374,47	1290,22
374,68	1296,36
374,89	1284,08
375,10	1267,69
375,31	1290,22
375,52	1296,36
375,73	1263,60
375,94	1257,45
376,15	1314,80
376,36	1277,93
376,57	1284,08
376,78	1300,46
376,99	1208,30
377,20	1228,78
377,40	1255,40
377,61	1282,03
377,82	1284,08
378,03	1253,36
378,24	1277,93
378,45	1308,65
378,66	1255,40
378,87	1349,61
379,08	1259,50
379,29	1294,32
379,50	1245,16
379,71	1222,64
379,91	1222,64
380,12	1247,21
380,33	1263,60
380,54	1218,54
380,75	1288,17
380,96	1206,25
381,17	1269,74
381,38	1277,93
381,59	1257,45
381,80	1222,64
382,00	1251,31
382,21	1226,73
382,42	1308,65
382,63	1294,32
382,84	1265,64
383,05	1275,88
383,26	1316,84
383,47	1325,04
383,68	1253,36
383,88	1255,40
384,09	1322,99
384,30	1226,73
384,51	1232,88
384,72	1243,12
384,93	1261,55
385,14	1306,60
385,35	1261,55
385,55	1298,41
385,76	1347,56
385,97	1337,32
386,18	1286,12
386,39	1239,02
386,60	1222,64
386,81	1271,79
387,02	1247,21
387,22	1220,59
387,43	1257,45
387,64	1216,49
387,85	1273,84
388,06	1206,25
388,27	1255,40
388,48	1298,41
388,68	1380,33
388,89	1341,42
389,10	1257,45
389,31	1279,98
389,52	1245,16
389,73	1232,88
389,93	1265,64
390,14	1239,02
390,35	1249,26
390,56	1241,07
390,77	1300,46
390,98	1271,79
391,18	1286,12
391,39	1333,23
391,60	1259,50
391,81	1265,64
392,02	1314,80
392,23	1343,47
392,43	1306,60
392,64	1263,60
392,85	1265,64
393,06	1232,88
393,27	1282,03
393,47	1304,56
393,68	1271,79
393,89	1273,84
394,10	1224,69
394,31	1218,54
394,52	1247,21
394,72	1316,84
394,93	1306,60
395,14	1224,69
395,35	1294,32
395,56	1245,16
395,76	1251,31
395,97	1290,22
396,18	1286,12
396,39	1312,75
396,60	1296,36
396,80	1265,64
397,01	1222,64
397,22	1267,69
397,43	1361,90
397,64	1314,80
397,84	1269,74
398,05	1290,22
398,26	1269,74
398,47	1351,66
398,67	1298,41
398,88	1298,41
399,09	1298,41
399,30	1271,79
399,51	1277,93
399,71	1255,40
399,92	1253,36
400,13	1292,27
400,34	1243,12
400,54	1279,98
400,75	1298,41
400,96	1341,42
401,17	1286,12
401,37	1322,99
401,58	1359,85
401,79	1277,93
402,00	1245,16
402,21	1294,32
402,41	1243,12
402,62	1265,64
402,83	1236,97
403,04	1206,25
403,24	1245,16
403,45	1257,45
403,66	1179,63
403,87	1290,22
404,07	1212,40
404,28	1257,45
404,49	1290,22
404,70	1314,80
404,90	1282,03
405,11	1269,74
405,32	1288,17
405,52	1320,94
405,73	1314,80
405,94	1263,60
406,15	1265,64
406,35	1236,97
406,56	1265,64
406,77	1290,22
406,98	1335,28
407,18	1214,45
407,39	1298,41
407,60	1265,64
407,80	1251,31
408,01	1296,36
408,22	1284,08
408,43	1263,60
408,63	1290,22
408,84	1286,12
409,05	1320,94
409,25	1226,73
409,46	1294,32
409,67	1292,27
409,88	1245,16
410,08	1322,99
410,29	1251,31
410,50	1335,28
410,70	1279,98
410,91	1286,12
411,12	1300,46
411,32	1210,35
411,53	1204,21
411,74	1269,74
411,95	1329,13
412,15	1263,60
412,36	1247,21
412,57	1212,40
412,77	1241,07
412,98	1261,55
413,19	1267,69
413,39	1267,69
413,60	1243,12
413,81	1212,40
414,01	1347,56
414,22	1327,08
414,43	1288,17
414,63	1257,45
414,84	1296,36
415,05	1247,21
415,25	1165,29
415,46	1284,08
415,67	1232,88
415,87	1322,99
416,08	1243,12
416,29	1320,94
416,49	1263,60
416,70	1263,60
416,91	1224,69
417,11	1249,26
417,32	1304,56
417,53	1261,55
417,73	1218,54
417,94	1318,89
418,15	1236,97
418,35	1302,51
418,56	1345,52
418,77	1263,60
418,97	1339,37
419,18	1302,51
419,38	1286,12
419,59	1282,03
419,80	1189,87
420,00	1318,89
420,21	1228,78
420,42	1306,60
420,62	1265,64
420,83	1271,79
421,04	1271,79
421,24	1255,40
421,45	1234,93
421,65	1228,78
421,86	1173,49
422,07	1220,59
422,27	1208,30
422,48	1339,37
422,69	1298,41
422,89	1273,84
423,10	1241,07
423,30	1216,49
423,51	1337,32
423,72	1263,60
423,92	1337,32
424,13	1275,88
424,33	1310,70
424,54	1245,16
424,75	1302,51
424,95	1251,31
425,16	1230,83
425,36	1257,45
425,57	1267,69
425,78	1298,41
425,98	1204,21
426,19	1277,93
426,39	1241,07
426,60	1255,40
426,81	1300,46
427,01	1271,79
427,22	1288,17
427,42	1269,74
427,63	1322,99
427,83	1253,36
428,04	1282,03
428,25	1316,84
428,45	1275,88
428,66	1247,21
428,86	1245,16
429,07	1249,26
429,28	1241,07
429,48	1251,31
429,69	1312,75
429,89	1247,21
430,10	1239,02
430,30	1267,69
430,51	1279,98
430,71	1255,40
430,92	1314,80
431,13	1294,32
431,33	1322,99
431,54	1261,55
431,74	1232,88
431,95	1275,88
432,15	1275,88
432,36	1234,93
432,56	1284,08
432,77	1282,03
432,98	1386,47
433,18	1241,07
433,39	1339,37
433,59	1255,40
433,80	1302,51
434,00	1288,17
434,21	1208,30
434,41	1273,84
434,62	1275,88
434,82	1261,55
435,03	1247,21
435,23	1267,69
435,44	1232,88
435,64	1241,07
435,85	1288,17
436,06	1257,45
436,26	1261,55
436,47	1243,12
436,67	1165,29
436,88	1245,16
437,08	1247,21
437,29	1284,08
437,49	1327,08
437,70	1234,93
437,90	1204,21
438,11	1308,65
438,31	1279,98
438,52	1271,79
438,72	1255,40
438,93	1286,12
439,13	1331,18
439,34	1322,99
439,54	1257,45
439,75	1261,55
439,95	1294,32
440,16	1234,93
440,36	1310,70
440,57	1279,98
440,77	1337,32
440,98	1261,55
441,18	1243,12
441,39	1316,84
441,59	1265,64
441,80	1318,89
442,00	1261,55
442,21	1320,94
442,41	1308,65
442,62	1279,98
442,82	1263,60
443,02	1308,65
443,23	1249,26
443,43	1286,12
443,64	1210,35
443,84	1251,31
444,05	1234,93
444,25	1327,08
444,46	1251,31
444,66	1300,46
444,87	1296,36
445,07	1198,06
445,28	1294,32
445,48	1245,16
445,69	1357,80
445,89	1310,70
446,09	1275,88
446,30	1290,22
446,50	1290,22
446,71	1228,78
446,91	1226,73
447,12	1220,59
447,32	1261,55
447,53	1279,98
447,73	1232,88
447,93	1314,80
448,14	1288,17
448,34	1261,55
448,55	1279,98
448,75	1335,28
448,96	1298,41
449,16	1282,03
449,36	1228,78
449,57	1279,98
449,77	1339,37
449,98	1216,49
450,18	1265,64
450,39	1294,32
450,59	1261,55
450,79	1247,21
451,00	1327,08
451,20	1296,36
451,41	1220,59
451,61	1333,23
451,81	1214,45
452,02	1267,69
452,22	1279,98
452,43	1286,12
452,63	1220,59
452,84	1292,27
453,04	1245,16
453,24	1290,22
453,45	1263,60
453,65	1265,64
453,86	1333,23
454,06	1257,45
454,26	1271,79
454,47	1277,93
454,67	1282,03
454,87	1226,73
455,08	1337,32
455,28	1183,73
455,49	1269,74
455,69	1339,37
455,89	1310,70
456,10	1284,08
456,30	1220,59
456,51	1198,06
456,71	1333,23
456,91	1236,97
457,12	1314,80
457,32	1308,65
457,52	1261,55
457,73	1247,21
457,93	1271,79
458,14	1310,70
458,34	1265,64
458,54	1228,78
458,75	1255,40
458,95	1263,60
459,15	1275,88
459,36	1290,22
459,56	1282,03
459,76	1239,02
459,97	1284,08
460,17	1320,94
460,37	1320,94
460,58	1241,07
460,78	1306,60
460,99	1214,45
461,19	1271,79
461,39	1304,56
461,60	1331,18
461,80	1279,98
462,00	1279,98
462,21	1314,80
462,41	1282,03
462,61	1224,69
462,82	1312,75
463,02	1292,27
463,22	1257,45
463,43	1374,19
463,63	1269,74
463,83	1212,40
464,04	1220,59
464,24	1208,30
464,44	1255,40
464,64	1251,31
464,85	1296,36
465,05	1296,36
465,25	1249,26
465,46	1275,88
465,66	1275,88
465,86	1267,69
466,07	1196,01
466,27	1306,60
466,47	1234,93
466,68	1337,32
466,88	1279,98
467,08	1288,17
467,29	1236,97
467,49	1249,26
467,69	1167,34
467,89	1263,60
468,10	1218,54
468,30	1286,12
468,50	1290,22
468,71	1306,60
468,91	1257,45
469,11	1294,32
469,31	1185,77
469,52	1253,36
469,72	1284,08
469,92	1355,76
470,13	1363,95
470,33	1282,03
470,53	1200,11
470,73	1245,16
470,94	1306,60
471,14	1263,60
471,34	1255,40
471,54	1294,32
471,75	1271,79
471,95	1263,60
472,15	1284,08
472,36	1239,02
472,56	1245,16
472,76	1277,93
472,96	1191,92
473,17	1269,74
473,37	1249,26
473,57	1282,03
473,77	1288,17
473,98	1277,93
474,18	1292,27
474,38	1331,18
474,58	1306,60
474,79	1228,78
474,99	1265,64
475,19	1279,98
475,39	1327,08
475,60	1224,69
475,80	1255,40
476,00	1298,41
476,20	1316,84
476,41	1204,21
476,61	1335,28
476,81	1308,65
477,01	1277,93
477,21	1312,75
477,42	1234,93
477,62	1253,36
477,82	1224,69
478,02	1241,07
478,23	1269,74
478,43	1179,63
478,63	1308,65
478,83	1275,88
479,03	1279,98
479,24	1269,74
479,44	1249,26
479,64	1304,56
479,84	1263,60
480,04	1271,79
480,25	1239,02
480,45	1257,45
480,65	1228,78
480,85	1253,36
481,06	1273,84
481,26	1267,69
481,46	1222,64
481,66	1261,55
481,86	1322,99
482,06	1230,83
482,27	1255,40
482,47	1273,84
482,67	1273,84
482,87	1253,36
483,07	1322,99
483,28	1241,07
483,48	1300,46
483,68	1282,03
483,88	1216,49
484,08	1204,21
484,29	1271,79
484,49	1265,64
484,69	1304,56
484,89	1261,55
485,09	1300,46
485,29	1273,84
485,50	1304,56
485,70	1302,51
485,90	1343,47
486,10	1279,98
486,30	1232,88
486,50	1318,89
486,71	1275,88
486,91	1271,79
487,11	1290,22
487,31	1208,30
487,51	1282,03
487,71	1243,12
487,91	1177,58
488,12	1245,16
488,32	1247,21
488,52	1265,64
488,72	1300,46
488,92	1314,80
489,12	1284,08
489,32	1275,88
489,53	1216,49
489,73	1265,64
489,93	1277,93
490,13	1298,41
490,33	1284,08
490,53	1347,56
490,73	1314,80
490,94	1265,64
491,14	1271,79
491,34	1310,70
491,54	1359,85
491,74	1275,88
491,94	1259,50
492,14	1255,40
492,34	1269,74
492,54	1253,36
492,75	1284,08
492,95	1232,88
493,15	1284,08
493,35	1290,22
493,55	1198,06
493,75	1294,32
493,95	1245,16
494,15	1275,88
494,35	1290,22
494,56	1263,60
494,76	1308,65
494,96	1322,99
495,16	1286,12
495,36	1265,64
495,56	1304,56
495,76	1290,22
495,96	1339,37
496,16	1269,74
496,36	1216,49
496,56	1351,66
496,77	1300,46
496,97	1239,02
497,17	1259,50
497,37	1204,21
497,57	1290,22
497,77	1339,37
497,97	1273,84
498,17	1341,42
498,37	1277,93
498,57	1294,32
498,77	1263,60
498,97	1304,56
499,17	1273,84
499,38	1275,88
499,58	1306,60
499,78	1220,59
499,98	1329,13
500,18	1208,30
500,38	1210,35
500,58	1204,21
500,78	1251,31
500,98	1302,51
501,18	1255,40
501,38	1318,89
501,58	1279,98
501,78	1298,41
501,98	1294,32
502,18	1228,78
502,38	1232,88
502,58	1216,49
502,78	1206,25
502,98	1249,26
503,18	1273,84
503,38	1247,21
503,59	1216,49
503,79	1314,80
503,99	1318,89
504,19	1308,65
504,39	1279,98
504,59	1353,71
504,79	1314,80
504,99	1271,79
505,19	1243,12
505,39	1232,88
505,59	1302,51
505,79	1263,60
505,99	1251,31
506,19	1239,02
506,39	1314,80
506,59	1366,00
506,79	1318,89
506,99	1318,89
507,19	1265,64
507,39	1265,64
507,59	1271,79
507,79	1232,88
507,99	1308,65
508,19	1247,21
508,39	1239,02
508,59	1341,42
508,79	1314,80
508,99	1218,54
509,19	1228,78
509,39	1228,78
509,59	1220,59
509,79	1271,79
509,99	1251,31
510,19	1282,03
510,39	1282,03
510,59	1300,46
510,79	1241,07
510,99	1300,46
511,19	1224,69
511,39	1275,88
511,59	1269,74
511,79	1253,36
511,99	1286,12
512,19	1267,69
512,38	1265,64
512,58	1296,36
512,78	1357,80
512,98	1271,79
513,18	1273,84
513,38	1222,64
513,58	1226,73
513,78	1290,22
513,98	1265,64
514,18	1273,84
514,38	1292,27
514,58	1245,16
514,78	1263,60
514,98	1216,49
515,18	1232,88
515,38	1255,40
515,58	1327,08
515,78	1249,26
515,98	1269,74
516,18	1273,84
516,38	1222,64
516,57	1261,55
516,77	1294,32
516,97	1273,84
517,17	1363,95
517,37	1212,40
517,57	1284,08
517,77	1292,27
517,97	1241,07
518,17	1263,60
518,37	1288,17
518,57	1275,88
518,77	1306,60
518,97	1310,70
519,16	1286,12
519,36	1183,73
519,56	1261,55
519,76	1169,39
519,96	1325,04
520,16	1302,51
520,36	1308,65
520,56	1230,83
520,76	1306,60
520,96	1286,12
521,16	1298,41
521,35	1216,49
521,55	1361,90
521,75	1290,22
521,95	1288,17
522,15	1286,12
522,35	1322,99
522,55	1234,93
522,75	1277,93
522,95	1261,55
523,14	1230,83
523,34	1255,40
523,54	1239,02
523,74	1247,21
523,94	1267,69
524,14	1284,08
524,34	1298,41
524,54	1239,02
524,73	1275,88
524,93	1241,07
525,13	1300,46
525,33	1255,40
525,53	1292,27
525,73	1279,98
525,93	1275,88
526,13	1316,84
526,32	1263,60
526,52	1335,28
526,72	1257,45
526,92	1239,02
527,12	1316,84
527,32	1333,23
527,52	1300,46
527,71	1241,07
527,91	1347,56
528,11	1306,60
528,31	1322,99
528,51	1286,12
528,71	1337,32
528,90	1275,88
529,10	1226,73
529,30	1380,33
529,50	1230,83
529,70	1275,88
529,90	1304,56
530,09	1277,93
530,29	1298,41
530,49	1290,22
530,69	1282,03
530,89	1329,13
531,09	1261,55
531,28	1310,70
531,48	1255,40
531,68	1259,50
531,88	1247,21
532,08	1275,88
532,28	1222,64
532,47	1206,25
532,67	1245,16
532,87	1302,51
533,07	1193,97
533,27	1232,88
533,46	1202,16
533,66	1253,36
533,86	1296,36
534,06	1265,64
534,26	1224,69
534,45	1333,23
534,65	1314,80
534,85	1261,55
535,05	1263,60
535,25	1247,21
535,44	1245,16
535,64	1269,74
535,84	1279,98
536,04	1265,64
536,24	1255,40
536,43	1284,08
536,63	1275,88
536,83	1298,41
537,03	1198,06
537,22	1251,31
537,42	1245,16
537,62	1220,59
537,82	1247,21
538,02	1230,83
538,21	1302,51
538,41	1269,74
538,61	1306,60
538,81	1253,36
539,00	1288,17
539,20	1193,97
539,40	1220,59
539,60	1263,60
539,79	1230,83
539,99	1218,54
540,19	1279,98
540,39	1298,41
540,58	1218,54
540,78	1218,54
540,98	1271,79
541,18	1294,32
541,37	1245,16
541,57	1290,22
541,77	1259,50
541,97	1218,54
542,16	1275,88
542,36	1224,69
542,56	1232,88
542,76	1267,69
542,95	1282,03
543,15	1277,93
543,35	1275,88
543,54	1216,49
543,74	1261,55
543,94	1232,88
544,14	1294,32
544,33	1277,93
544,53	1269,74
544,73	1255,40
544,93	1265,64
545,12	1218,54
545,32	1306,60
545,52	1265,64
545,71	1222,64
545,91	1300,46
546,11	1298,41
546,30	1318,89
546,50	1239,02
546,70	1265,64
546,90	1196,01
547,09	1224,69
547,29	1243,12
547,49	1247,21
547,68	1241,07
547,88	1308,65
548,08	1247,21
548,27	1279,98
548,47	1325,04
548,67	1279,98
548,87	1304,56
549,06	1247,21
549,26	1269,74
549,46	1312,75
549,65	1333,23
549,85	1224,69
550,05	1261,55
550,24	1239,02
550,44	1239,02
550,64	1179,63
550,83	1234,93
551,03	1259,50
551,23	1290,22
551,42	1255,40
551,62	1288,17
551,82	1331,18
552,01	1290,22
552,21	1265,64
552,41	1245,16
552,60	1269,74
552,80	1273,84
553,00	1245,16
553,19	1347,56
553,39	1279,98
553,59	1193,97
553,78	1263,60
553,98	1271,79
554,17	1267,69
554,37	1277,93
554,57	1298,41
554,76	1265,64
554,96	1300,46
555,16	1282,03
555,35	1253,36
555,55	1200,11
555,75	1249,26
555,94	1290,22
556,14	1282,03
556,33	1257,45
556,53	1245,16
556,73	1298,41
556,92	1286,12
557,12	1247,21
557,32	1271,79
557,51	1277,93
557,71	1320,94
557,90	1255,40
558,10	1265,64
558,30	1273,84
558,49	1312,75
558,69	1312,75
558,88	1263,60
559,08	1302,51
559,28	1265,64
559,47	1337,32
559,67	1118,19
559,86	1261,55
560,06	1249,26
560,26	1298,41
560,45	1275,88
560,65	1275,88
560,84	1310,70
561,04	1269,74
561,24	1294,32
561,43	1279,98
561,63	1335,28
561,82	1294,32
562,02	1286,12
562,22	1347,56
562,41	1261,55
562,61	1273,84
562,80	1261,55
563,00	1290,22
563,19	1325,04
563,39	1241,07
563,59	1331,18
563,78	1277,93
563,98	1196,01
564,17	1222,64
564,37	1181,68
564,56	1304,56
564,76	1257,45
564,96	1239,02
565,15	1208,30
565,35	1329,13
565,54	1267,69
565,74	1263,60
565,93	1230,83
566,13	1265,64
566,32	1292,27
566,52	1236,97
566,71	1267,69
566,91	1298,41
567,11	1198,06
567,30	1245,16
567,50	1349,61
567,69	1316,84
567,89	1257,45
568,08	1198,06
568,28	1310,70
568,47	1273,84
568,67	1210,35
568,86	1359,85
569,06	1284,08
569,25	1282,03
569,45	1304,56
569,64	1224,69
569,84	1259,50
570,04	1236,97
570,23	1288,17
570,43	1294,32
570,62	1316,84
570,82	1216,49
571,01	1277,93
571,21	1286,12
571,40	1253,36
571,60	1263,60
571,79	1271,79
571,99	1308,65
572,18	1329,13
572,38	1325,04
572,57	1245,16
572,77	1277,93
572,96	1331,18
573,16	1314,80
573,35	1249,26
573,55	1312,75
573,74	1271,79
573,94	1284,08
574,13	1210,35
574,33	1218,54
574,52	1302,51
574,71	1286,12
574,91	1345,52
575,10	1187,82
575,30	1243,12
575,49	1265,64
575,69	1230,83
575,88	1273,84
576,08	1245,16
576,27	1333,23
576,47	1247,21
576,66	1228,78
576,86	1296,36
577,05	1249,26
577,25	1284,08
577,44	1193,97
577,64	1257,45
577,83	1296,36
578,02	1243,12
578,22	1329,13
578,41	1255,40
578,61	1265,64
578,80	1273,84
579,00	1290,22
579,19	1255,40
579,39	1314,80
579,58	1251,31
579,77	1310,70
579,97	1296,36
580,16	1261,55
580,36	1290,22
580,55	1187,82
580,75	1269,74
580,94	1296,36
581,13	1257,45
581,33	1239,02
581,52	1259,50
581,72	1253,36
581,91	1351,66
582,11	1286,12
582,30	1228,78
582,49	1249,26
582,69	1298,41
582,88	1253,36
583,08	1253,36
583,27	1249,26
583,47	1290,22
583,66	1359,85
583,85	1290,22
584,05	1294,32
584,24	1226,73
584,44	1265,64
584,63	1257,45
584,82	1279,98
585,02	1243,12
585,21	1214,45
585,41	1243,12
585,60	1232,88
585,79	1247,21
585,99	1265,64
586,18	1257,45
586,37	1331,18
586,57	1259,50
586,76	1325,04
586,96	1236,97
587,15	1220,59
587,34	1226,73
587,54	1259,50
587,73	1265,64
587,93	1267,69
588,12	1302,51
588,31	1241,07
588,51	1277,93
588,70	1312,75
588,89	1308,65
589,09	1220,59
589,28	1261,55
589,47	1290,22
589,67	1251,31
589,86	1261,55
590,06	1279,98
590,25	1292,27
590,44	1226,73
590,64	1253,36
590,83	1286,12
591,02	1224,69
591,22	1282,03
591,41	1241,07
591,60	1247,21
591,80	1255,40
591,99	1191,92
592,18	1234,93
592,38	1296,36
592,57	1259,50
592,76	1277,93
592,96	1249,26
593,15	1241,07
593,34	1304,56
593,54	1206,25
593,73	1282,03
593,92	1304,56
594,12	1255,40
594,31	1243,12
594,50	1269,74
594,70	1265,64
594,89	1224,69
595,08	1277,93
595,28	1245,16
595,47	1277,93
595,66	1294,32
595,86	1239,02
596,05	1234,93
596,24	1253,36
596,43	1322,99
596,63	1222,64
596,82	1271,79
597,01	1302,51
597,21	1273,84
597,40	1263,60
597,59	1257,45
597,79	1251,31
597,98	1312,75
598,17	1196,01
598,36	1257,45
598,56	1277,93
598,75	1265,64
598,94	1257,45
599,14	1255,40
599,33	1294,32
599,52	1273,84
599,71	1222,64
599,91	1312,75
600,10	1292,27
600,29	1302,51
600,48	1296,36
600,68	1279,98
600,87	1220,59
601,06	1279,98
601,26	1292,27
601,45	1249,26
601,64	1261,55
601,83	1228,78
602,03	1290,22
602,22	1245,16
602,41	1249,26
602,60	1322,99
602,80	1269,74
602,99	1230,83
603,18	1290,22
603,37	1288,17
603,57	1267,69
603,76	1269,74
603,95	1253,36
604,14	1243,12
604,34	1322,99
604,53	1271,79
604,72	1259,50
604,91	1304,56
605,10	1308,65
605,30	1208,30
605,49	1304,56
605,68	1337,32
605,87	1306,60
606,07	1230,83
606,26	1200,11
606,45	1263,60
606,64	1243,12
606,84	1320,94
607,03	1345,52
607,22	1259,50
607,41	1247,21
607,60	1316,84
607,80	1341,42
607,99	1253,36
608,18	1189,87
608,37	1230,83
608,56	1196,01
608,76	1257,45
608,95	1239,02
609,14	1263,60
609,33	1255,40
609,52	1329,13
609,72	1302,51
609,91	1247,21
610,10	1296,36
610,29	1288,17
610,48	1257,45
610,68	1306,60
610,87	1294,32
611,06	1312,75
611,25	1251,31
611,44	1216,49
611,63	1316,84
611,83	1286,12
612,02	1265,64
612,21	1226,73
612,40	1247,21
612,59	1325,04
612,79	1312,75
612,98	1265,64
613,17	1306,60
613,36	1290,22
613,55	1232,88
613,74	1273,84
613,93	1251,31
614,13	1308,65
614,32	1234,93
614,51	1265,64
614,70	1273,84
614,89	1275,88
615,08	1226,73
615,28	1279,98
615,47	1257,45
615,66	1282,03
615,85	1239,02
616,04	1290,22
616,23	1314,80
616,42	1279,98
616,62	1312,75
616,81	1292,27
617,00	1286,12
617,19	1308,65
617,38	1232,88
617,57	1265,64
617,76	1222,64
617,95	1257,45
618,15	1210,35
618,34	1282,03
618,53	1208,30
618,72	1339,37
618,91	1261,55
619,10	1279,98
619,29	1286,12
619,48	1298,41
619,68	1259,50
619,87	1292,27
620,06	1333,23
620,25	1259,50
620,44	1271,79
620,63	1335,28
620,82	1322,99
621,01	1273,84
621,20	1337,32
621,39	1259,50
621,59	1232,88
621,78	1286,12
621,97	1306,60
622,16	1249,26
622,35	1204,21
622,54	1247,21
622,73	1269,74
622,92	1382,38
623,11	1298,41
623,30	1243,12
623,49	1255,40
623,68	1257,45
623,88	1304,56
624,07	1273,84
624,26	1286,12
624,45	1249,26
624,64	1224,69
624,83	1292,27
625,02	1263,60
625,21	1296,36
625,40	1318,89
625,59	1277,93
625,78	1341,42
625,97	1263,60
626,16	1288,17
626,35	1343,47
626,54	1241,07
626,74	1331,18
626,93	1277,93
627,12	1290,22
627,31	1306,60
627,50	1247,21
627,69	1312,75
627,88	1234,93
628,07	1183,73
628,26	1308,65
628,45	1251,31
628,64	1304,56
628,83	1288,17
629,02	1247,21
629,21	1247,21
629,40	1286,12
629,59	1282,03
629,78	1288,17
629,97	1273,84
630,16	1269,74
630,35	1286,12
630,54	1312,75
630,73	1347,56
630,92	1290,22
631,11	1273,84
631,30	1380,33
631,49	1384,43
631,68	1671,14
631,87	6897,56
632,06	28628,56
632,25	58813,57
632,44	45030,74
632,63	31626,78
632,82	28673,61
633,01	7178,13
633,20	3506,12
633,39	3108,82
633,58	2602,97
633,77	2023,39
633,96	1845,22
634,15	1779,68
634,34	1740,77
634,53	1646,57
634,72	1578,98
634,91	1595,37
635,10	1546,22
635,29	1415,15
635,48	1525,74
635,67	1435,63
635,86	1454,06
636,05	1464,30
636,24	1445,87
636,43	1353,71
636,62	1372,14
636,81	1257,45
637,00	1386,47
637,19	1247,21
637,38	1331,18
637,57	1316,84
637,76	1247,21
637,95	1310,70
638,14	1241,07
638,33	1363,95
638,52	1343,47
638,71	1337,32
638,89	1220,59
639,08	1232,88
639,27	1230,83
639,46	1275,88
639,65	1290,22
639,84	1325,04
640,03	1267,69
640,22	1318,89
640,41	1339,37
640,60	1255,40
640,79	1333,23
640,98	1286,12
641,17	1329,13
641,36	1292,27
641,55	1347,56
641,74	1292,27
641,92	1296,36
642,11	1243,12
642,30	1331,18
642,49	1259,50
642,68	1206,25
642,87	1273,84
643,06	1247,21
643,25	1247,21
643,44	1267,69
643,63	1310,70
643,82	1325,04
644,00	1257,45
644,19	1277,93
644,38	1232,88
644,57	1290,22
644,76	1257,45
644,95	1308,65
645,14	1226,73
645,33	1255,40
645,52	1279,98
645,71	1288,17
645,89	1288,17
646,08	1263,60
646,27	1273,84
646,46	1228,78
646,65	1302,51
646,84	1292,27
647,03	1198,06
647,22	1261,55
647,40	1200,11
647,59	1224,69
647,78	1341,42
647,97	1249,26
648,16	1294,32
648,35	1288,17
648,54	1314,80
648,73	1298,41
648,91	1220,59
649,10	1222,64
649,29	1251,31
649,48	1267,69
649,67	1359,85
649,86	1300,46
650,05	1275,88
650,23	1247,21
650,42	1263,60
650,61	1314,80
650,80	1322,99
650,99	1236,97
651,18	1351,66
651,36	1277,93
651,55	1318,89
651,74	1198,06
651,93	1243,12
652,12	1269,74
652,31	1249,26
652,49	1298,41
652,68	1234,93
652,87	1296,36
653,06	1245,16
653,25	1257,45
653,44	1265,64
653,62	1269,74
653,81	1167,34
654,00	1234,93
654,19	1349,61
654,38	1228,78
654,56	1191,92
654,75	1273,84
654,94	1314,80
655,13	1314,80
655,32	1277,93
655,51	1304,56
655,69	1200,11
655,88	1245,16
656,07	1273,84
656,26	1306,60
656,45	1269,74
656,63	1314,80
656,82	1277,93
657,01	1290,22
657,20	1261,55
657,38	1304,56
657,57	1308,65
657,76	1271,79
657,95	1310,70
658,14	1304,56
658,32	1253,36
658,51	1220,59
658,70	1255,40
658,89	1271,79
659,08	1263,60
659,26	1241,07
659,45	1218,54
659,64	1261,55
659,83	1239,02
660,01	1312,75
660,20	1335,28
660,39	1263,60
660,58	1333,23
660,76	1298,41
660,95	1279,98
661,14	1273,84
661,33	1277,93
661,51	1228,78
661,70	1282,03
661,89	1310,70
662,08	1232,88
662,26	1261,55
662,45	1265,64
662,64	1261,55
662,83	1216,49
663,01	1279,98
663,20	1304,56
663,39	1212,40
663,58	1302,51
663,76	1261,55
663,95	1196,01
664,14	1318,89
664,32	1277,93
664,51	1288,17
664,70	1259,50
664,89	1255,40
665,07	1236,97
665,26	1286,12
665,45	1253,36
665,64	1236,97
665,82	1284,08
666,01	1288,17
666,20	1284,08
666,38	1265,64
666,57	1251,31
666,76	1284,08
666,95	1282,03
667,13	1279,98
667,32	1200,11
667,51	1265,64
667,69	1282,03
667,88	1247,21
668,07	1222,64
668,25	1294,32
668,44	1308,65
668,63	1200,11
668,81	1232,88
669,00	1284,08
669,19	1314,80
669,38	1273,84
669,56	1271,79
669,75	1259,50
669,94	1277,93
670,12	1298,41
670,31	1214,45
670,50	1228,78
670,68	1288,17
670,87	1265,64
671,06	1277,93
671,24	1288,17
671,43	1241,07
671,62	1325,04
671,80	1232,88
671,99	1198,06
672,18	1206,25
672,36	1202,16
672,55	1271,79
672,74	1230,83
672,92	1259,50
673,11	1279,98
673,29	1218,54
673,48	1335,28
673,67	1300,46
673,85	1331,18
674,04	1257,45
674,23	1263,60
674,41	1249,26
674,60	1255,40
674,79	1230,83
674,97	1296,36
675,16	1267,69
675,34	1320,94
675,53	1277,93
675,72	1290,22
675,90	1236,97
676,09	1269,74
676,28	1241,07
676,46	1189,87
676,65	1343,47
676,83	1251,31
677,02	1312,75
677,21	1257,45
677,39	1228,78
677,58	1257,45
677,77	1220,59
677,95	1306,60
678,14	1316,84
678,32	1241,07
678,51	1263,60
678,70	1290,22
678,88	1226,73
679,07	1333,23
679,25	1335,28
679,44	1310,70
679,63	1167,34
679,81	1224,69
680,00	1249,26
680,18	1247,21
680,37	1316,84
680,55	1208,30
680,74	1265,64
680,93	1312,75
681,11	1304,56
681,30	1255,40
681,48	1288,17
681,67	1282,03
681,85	1273,84
682,04	1294,32
682,23	1265,64
682,41	1257,45
682,60	1241,07
682,78	1212,40
682,97	1271,79
683,15	1314,80
683,34	1273,84
683,53	1331,18
683,71	1318,89
683,90	1284,08
684,08	1306,60
684,27	1245,16
684,45	1218,54
684,64	1263,60
684,82	1259,50
685,01	1265,64
685,19	1216,49
685,38	1308,65
685,57	1255,40
685,75	1261,55
685,94	1310,70
686,12	1325,04
686,31	1310,70
686,49	1251,31
686,68	1300,46
686,86	1275,88
687,05	1265,64
687,23	1298,41
687,42	1304,56
687,60	1269,74
687,79	1257,45
687,97	1302,51
688,16	1216,49
688,34	1261,55
688,53	1284,08
688,71	1277,93
688,90	1306,60
689,08	1304,56
689,27	1200,11
689,45	1302,51
689,64	1298,41
689,82	1277,93
690,01	1269,74
690,19	1222,64
690,38	1247,21
690,56	1196,01
690,75	1286,12
690,93	1191,92
691,12	1294,32
691,30	1300,46
691,49	1257,45
691,67	1212,40
691,86	1288,17
692,04	1306,60
692,23	1269,74
692,41	1320,94
692,60	1343,47
692,78	1302,51
692,97	1294,32
693,15	1325,04
693,34	1249,26
693,52	1253,36
693,71	1230,83
693,89	1263,60
694,08	1208,30
694,26	1288,17
694,44	1263,60
694,63	1193,97
694,81	1267,69
695,00	1273,84
695,18	1253,36
695,37	1314,80
695,55	1296,36
695,74	1191,92
695,92	1269,74
696,10	1300,46
696,29	1277,93
696,47	1220,59
696,66	1277,93
696,84	1339,37
697,03	1245,16
697,21	1220,59
697,40	1292,27
697,58	1220,59
697,76	1232,88
697,95	1247,21
698,13	1243,12
698,32	1310,70
698,50	1228,78
698,68	1286,12
698,87	1314,80
699,05	1214,45
699,24	1259,50
699,42	1232,88
699,61	1222,64
699,79	1269,74
699,97	1298,41
700,16	1286,12
700,34	1372,14
700,53	1265,64
700,71	1259,50
700,89	1310,70
701,08	1327,08
701,26	1302,51
701,45	1306,60
701,63	1320,94
701,81	1245,16
702,00	1320,94
702,18	1271,79
702,37	1263,60
702,55	1271,79
702,73	1312,75
702,92	1218,54
703,10	1275,88
703,28	1253,36
703,47	1259,50
703,65	1261,55
703,84	1300,46
704,02	1247,21
704,20	1273,84
704,39	1269,74
704,57	1292,27
704,75	1304,56
704,94	1302,51
705,12	1243,12
705,30	1218,54
705,49	1310,70
705,67	1282,03
705,86	1284,08
706,04	1286,12
706,22	1269,74
706,41	1296,36
706,59	1306,60
706,77	1300,46
706,96	1333,23
707,14	1290,22
707,32	1224,69
707,51	1271,79
707,69	1284,08
707,87	1271,79
708,06	1302,51
708,24	1331,18
708,42	1316,84
708,61	1214,45
708,79	1216,49
708,97	1228,78
709,16	1273,84
709,34	1247,21
709,52	1292,27
709,71	1243,12
709,89	1308,65
710,07	1290,22
710,26	1257,45
710,44	1325,04
710,62	1196,01
710,80	1310,70
710,99	1325,04
711,17	1255,40
711,35	1249,26
711,54	1284,08
711,72	1265,64
711,90	1255,40
712,09	1306,60
712,27	1228,78
712,45	1243,12
712,63	1265,64
712,82	1228,78
713,00	1222,64
713,18	1320,94
713,37	1288,17
713,55	1253,36
713,73	1308,65
713,91	1257,45
714,10	1263,60
714,28	1251,31
714,46	1312,75
714,65	1366,00
714,83	1273,84
715,01	1218,54
715,19	1306,60
715,38	1222,64
715,56	1308,65
715,74	1245,16
715,92	1294,32
716,11	1322,99
716,29	1277,93
716,47	1316,84
716,65	1296,36
716,84	1277,93
717,02	1196,01
717,20	1239,02
717,38	1196,01
717,57	1251,31
717,75	1228,78
717,93	1206,25
718,11	1298,41
718,30	1284,08
718,48	1347,56
718,66	1300,46
718,84	1273,84
719,03	1349,61
719,21	1214,45
719,39	1210,35
719,57	1322,99
719,75	1230,83
719,94	1204,21
720,12	1247,21
720,30	1239,02
720,48	1277,93
720,67	1208,30
720,85	1284,08
721,03	1306,60
721,21	1269,74
721,39	1355,76
721,58	1296,36
721,76	1282,03
721,94	1226,73
722,12	1245,16
722,30	1322,99
722,49	1249,26
722,67	1298,41
722,85	1298,41
723,03	1320,94
723,21	1351,66
723,40	1218,54
723,58	1296,36
723,76	1241,07
723,94	1284,08
724,12	1245,16
724,30	1243,12
724,49	1212,40
724,67	1296,36
724,85	1230,83
725,03	1290,22
725,21	1331,18
725,40	1288,17
725,58	1230,83
725,76	1310,70
725,94	1273,84
726,12	1277,93
726,30	1318,89
726,49	1210,35
726,67	1329,13
726,85	1284,08
727,03	1222,64
727,21	1249,26
727,39	1243,12
727,57	1253,36
727,76	1282,03
727,94	1339,37
728,12	1241,07
728,30	1294,32
728,48	1269,74
728,66	1316,84
728,84	1253,36
729,03	1232,88
729,21	1310,70
729,39	1253,36
729,57	1249,26
729,75	1286,12
729,93	1241,07
730,11	1302,51
730,30	1212,40
730,48	1282,03
730,66	1286,12
730,84	1249,26
731,02	1214,45
731,20	1216,49
731,38	1277,93
731,56	1279,98
731,74	1249,26
731,93	1222,64
732,11	1259,50
732,29	1312,75
732,47	1265,64
732,65	1349,61
732,83	1269,74
733,01	1277,93
733,19	1298,41
733,37	1247,21
733,56	1208,30
733,74	1255,40
733,92	1296,36
734,10	1290,22
734,28	1261,55
734,46	1243,12
734,64	1245,16
734,82	1286,12
735,00	1308,65
735,18	1245,16
735,36	1306,60
735,54	1204,21
735,73	1257,45
735,91	1269,74
736,09	1273,84
736,27	1249,26
736,45	1279,98
736,63	1265,64
736,81	1290,22
736,99	1292,27
737,17	1306,60
737,35	1253,36
737,53	1294,32
737,71	1206,25
737,89	1241,07
738,07	1232,88
738,25	1241,07
738,43	1296,36
738,61	1239,02
738,80	1351,66
738,98	1271,79
739,16	1253,36
739,34	1249,26
739,52	1230,83
739,70	1255,40
739,88	1243,12
740,06	1218,54
740,24	1271,79
740,42	1179,63
740,60	1253,36
740,78	1292,27
740,96	1224,69
741,14	1261,55
741,32	1273,84
741,50	1347,56
741,68	1292,27
741,86	1220,59
742,04	1269,74
742,22	1241,07
742,40	1298,41
742,58	1292,27
742,76	1320,94
742,94	1284,08
743,12	1167,34
743,30	1290,22
743,48	1200,11
743,66	1298,41
743,84	1318,89
744,02	1337,32
744,20	1282,03
744,38	1253,36
744,56	1202,16
744,74	1279,98
744,92	1267,69
745,10	1308,65
745,28	1232,88
745,46	1261,55
745,64	1310,70
745,82	1247,21
746,00	1298,41
746,18	1275,88
746,36	1249,26
746,54	1363,95
746,72	1255,40
746,90	1300,46
747,08	1296,36
747,26	1298,41
747,44	1208,30
747,62	1394,67
747,80	1304,56
747,98	1300,46
748,15	1239,02
748,33	1290,22
748,51	1277,93
748,69	1320,94
748,87	1245,16
749,05	1253,36
749,23	1335,28
749,41	1265,64
749,59	1216,49
749,77	1341,42
749,95	1296,36
750,13	1271,79
750,31	1249,26
750,49	1327,08
750,67	1232,88
750,85	1267,69
751,03	1253,36
751,20	1173,49
751,38	1275,88
751,56	1200,11
751,74	1239,02
751,92	1185,77
752,10	1279,98
752,28	1243,12
752,46	1318,89
752,64	1267,69
752,82	1216,49
753,00	1265,64
753,18	1265,64
753,35	1259,50
753,53	1230,83
753,71	1290,22
753,89	1214,45
754,07	1230,83
754,25	1241,07
754,43	1251,31
754,61	1343,47
754,79	1271,79
754,97	1308,65
755,14	1206,25
755,32	1212,40
755,50	1167,34
755,68	1296,36
755,86	1228,78
756,04	1275,88
756,22	1239,02
756,40	1232,88
756,57	1204,21
756,75	1230,83
756,93	1316,84
757,11	1243,12
757,29	1300,46
757,47	1322,99
757,65	1263,60
757,82	1189,87
758,00	1308,65
758,18	1282,03
758,36	1282,03
758,54	1306,60
758,72	1294,32
758,90	1290,22
759,07	1322,99
759,25	1236,97
759,43	1288,17
759,61	1253,36
759,79	1288,17
759,97	1279,98
760,15	1239,02
760,32	1265,64
760,50	1263,60
760,68	1286,12
760,86	1228,78
761,04	1275,88
761,22	1282,03
761,39	1277,93
761,57	1249,26
761,75	1298,41
761,93	1265,64
762,11	1230,83
762,28	1263,60
762,46	1306,60
762,64	1210,35
762,82	1247,21
763,00	1316,84
763,18	1263,60
763,35	1294,32
763,53	1253,36
763,71	1308,65
763,89	1296,36
764,07	1339,37
764,24	1279,98
764,42	1210,35
764,60	1224,69
764,78	1253,36
764,96	1277,93
765,13	1230,83
765,31	1300,46
765,49	1226,73
765,67	1189,87
765,84	1261,55
766,02	1267,69
766,20	1255,40
766,38	1255,40
766,56	1232,88
766,73	1331,18
766,91	1312,75
767,09	1308,65
767,27	1214,45
767,44	1236,97
767,62	1241,07
767,80	1208,30
767,98	1230,83
768,15	1259,50
768,33	1308,65
768,51	1241,07
768,69	1255,40
768,87	1279,98
769,04	1316,84
769,22	1337,32
769,40	1279,98
769,58	1298,41
769,75	1302,51
769,93	1279,98
770,11	1320,94
770,28	1300,46
770,46	1243,12
770,64	1261,55
770,82	1259,50
770,99	1341,42
771,17	1200,11
771,35	1306,60
771,53	1265,64
771,70	1234,93
771,88	1263,60
772,06	1271,79
772,23	1273,84
772,41	1290,22
772,59	1239,02
772,77	1241,07
772,94	1318,89
773,12	1265,64
773,30	1208,30
773,47	1318,89
773,65	1228,78
773,83	1273,84
774,01	1257,45
774,18	1255,40
774,36	1247,21
774,54	1224,69
774,71	1247,21
774,89	1269,74
775,07	1279,98
775,24	1298,41
775,42	1292,27
775,60	1230,83
775,78	1243,12
775,95	1341,42
776,13	1247,21
776,31	1228,78
776,48	1236,97
776,66	1255,40
776,84	1216,49
777,01	1312,75
777,19	1234,93
777,37	1255,40
777,54	1191,92
777,72	1241,07
777,90	1253,36
778,07	1314,80
778,25	1277,93
778,43	1204,21
778,60	1298,41
778,78	1165,29
778,96	1247,21
779,13	1347,56
779,31	1269,74
779,49	1279,98
779,66	1259,50
779,84	1251,31
780,01	1322,99
780,19	1259,50
780,37	1300,46
780,54	1267,69
780,72	1286,12
780,90	1175,53
781,07	1241,07
781,25	1265,64
781,43	1277,93
781,60	1263,60
781,78	1300,46
781,95	1247,21
782,13	1208,30
782,31	1298,41
782,48	1288,17
782,66	1224,69
782,83	1343,47
783,01	1253,36
783,19	1243,12
783,36	1320,94
783,54	1304,56
783,72	1245,16
783,89	1263,60
784,07	1253,36
784,24	1204,21
784,42	1288,17
784,60	1298,41
784,77	1251,31
784,95	1310,70
785,12	1304,56
785,30	1234,93
785,47	1202,16
785,65	1292,27
785,83	1185,77
786,00	1239,02
786,18	1335,28
786,35	1275,88
786,53	1249,26
786,71	1239,02
786,88	1288,17
787,06	1288,17
787,23	1228,78
787,41	1208,30
787,58	1286,12
787,76	1232,88
787,94	1243,12
788,11	1187,82
788,29	1269,74
788,46	1224,69
788,64	1277,93
788,81	1273,84
788,99	1363,95
789,16	1220,59
789,34	1288,17
789,52	1255,40
789,69	1257,45
789,87	1247,21
790,04	1275,88
790,22	1308,65
790,39	1277,93
790,57	1279,98
790,74	1269,74
790,92	1269,74
791,09	1298,41
791,27	1253,36
791,44	1267,69
791,62	1255,40
791,79	1253,36
791,97	1261,55
792,15	1279,98
792,32	1140,72
792,50	1282,03
792,67	1255,40
792,85	1298,41
793,02	1257,45
793,20	1216,49
793,37	1202,16
793,55	1279,98
793,72	1333,23
793,90	1284,08
794,07	1314,80
794,25	1267,69
794,42	1222,64
794,60	1320,94
794,77	1310,70
794,95	1300,46
795,12	1302,51
795,30	1316,84
795,47	1290,22
795,65	1282,03
795,82	1296,36
796,00	1265,64
796,17	1296,36
796,34	1353,71
796,52	1265,64
796,69	1341,42
796,87	1343,47
797,04	1368,04
797,22	1269,74
797,39	1230,83
797,57	1308,65
797,74	1232,88
797,92	1261,55
798,09	1261,55
798,27	1279,98
798,44	1267,69
798,62	1310,70
798,79	1263,60
798,96	1245,16
799,14	1271,79
799,31	1271,79
799,49	1253,36
799,66	1236,97
799,84	1224,69
800,01	1196,01
800,19	1327,08
800,36	1230,83
800,53	1286,12
800,71	1273,84
800,88	1263,60
801,06	1243,12
801,23	1226,73
801,41	1241,07
801,58	1183,73
801,75	1312,75
801,93	1239,02
802,10	1236,97
802,28	1308,65
802,45	1241,07
802,63	1241,07
802,80	1320,94
802,97	1333,23
803,15	1181,68
803,32	1337,32
803,50	1273,84
803,67	1236,97
803,84	1247,21
804,02	1279,98
804,19	1175,53
804,37	1290,22
804,54	1290,22
804,71	1230,83
804,89	1335,28
805,06	1247,21
805,24	1329,13
805,41	1204,21
805,58	1298,41
805,76	1159,15
805,93	1339,37
806,10	1302,51
806,28	1290,22
806,45	1314,80
806,63	1220,59
806,80	1279,98
806,97	1253,36
807,15	1279,98
807,32	1247,21
807,49	1257,45
807,67	1284,08
807,84	1296,36
808,01	1216,49
808,19	1333,23
808,36	1271,79
808,54	1216,49
808,71	1300,46
808,88	1312,75
809,06	1228,78
809,23	1261,55
809,40	1228,78
809,58	1322,99
809,75	1290,22
809,92	1265,64
810,10	1255,40
810,27	1220,59
810,44	1312,75
810,62	1253,36
810,79	1261,55
810,96	1230,83
811,14	1241,07
811,31	1353,71
811,48	1296,36
811,66	1228,78
811,83	1220,59
812,00	1261,55
812,18	1372,14
812,35	1286,12
812,52	1288,17
812,69	1251,31
812,87	1304,56
813,04	1277,93
813,21	1257,45
813,39	1269,74
813,56	1269,74
813,73	1257,45
813,91	1290,22
814,08	1243,12
814,25	1214,45
814,42	1236,97
814,60	1206,25
814,77	1269,74
814,94	1208,30
815,12	1318,89
815,29	1263,60
815,46	1322,99
815,63	1273,84
815,81	1273,84
815,98	1218,54
816,15	1318,89
816,33	1259,50
816,50	1333,23
816,67	1288,17
816,84	1304,56
817,02	1263,60
817,19	1234,93
817,36	1257,45
817,53	1161,20
817,71	1206,25
817,88	1263,60
818,05	1220,59
818,22	1279,98
818,40	1302,51
818,57	1232,88
818,74	1279,98
818,91	1312,75
819,09	1206,25
819,26	1298,41
819,43	1228,78
819,60	1292,27
819,78	1236,97
819,95	1286,12
820,12	1261,55
820,29	1282,03
820,47	1259,50
820,64	1273,84
820,81	1320,94
820,98	1232,88
821,15	1251,31
821,33	1308,65
821,50	1245,16
821,67	1284,08
821,84	1251,31
822,02	1277,93
822,19	1218,54
822,36	1286,12
822,53	1200,11
822,70	1282,03
822,88	1261,55
823,05	1314,80
823,22	1275,88
823,39	1290,22
823,56	1243,12
823,74	1286,12
823,91	1290,22
824,08	1288,17
824,25	1247,21
824,42	1273,84
824,60	1226,73
824,77	1277,93
824,94	1214,45
825,11	1273,84
825,28	1273,84
825,45	1185,77
825,63	1257,45
825,80	1257,45
825,97	1214,45
826,14	1290,22
826,31	1312,75
826,48	1239,02
826,66	1189,87
826,83	1279,98
827,00	1247,21
827,17	1310,70
827,34	1220,59
827,51	1337,32
827,69	1296,36
827,86	1275,88
828,03	1218,54
828,20	1277,93
828,37	1175,53
828,54	1357,80
828,71	1226,73
828,89	1284,08
829,06	1298,41
829,23	1220,59
829,40	1351,66
829,57	1261,55
829,74	1314,80
829,91	1187,82
830,09	1312,75
830,26	1222,64
830,43	1308,65
830,60	1253,36
830,77	1236,97
830,94	1239,02
831,11	1286,12
831,28	1230,83
831,46	1230,83
831,63	1271,79
831,80	1314,80
831,97	1273,84
832,14	1239,02
832,31	1290,22
832,48	1226,73
832,65	1288,17
832,82	1212,40
832,99	1263,60
833,17	1220,59
833,34	1200,11
833,51	1228,78
833,68	1347,56
833,85	1275,88
834,02	1228,78
834,19	1245,16
834,36	1210,35
834,53	1310,70
834,70	1265,64
834,87	1312,75
835,04	1214,45
835,22	1314,80
835,39	1273,84
835,56	1282,03
835,73	1251,31
835,90	1175,53
836,07	1239,02
836,24	1271,79
836,41	1265,64
836,58	1204,21
836,75	1249,26
836,92	1253,36
837,09	1202,16
837,26	1259,50
837,43	1271,79
837,60	1284,08
837,77	1265,64
837,94	1294,32
838,12	1279,98
838,29	1261,55
838,46	1232,88
838,63	1259,50
838,80	1314,80
838,97	1230,83
839,14	1261,55
839,31	1253,36
839,48	1251,31
839,65	1277,93
839,82	1257,45
839,99	1230,83
840,16	1243,12
840,33	1228,78
840,50	1261,55
840,67	1277,93
840,84	1218,54
841,01	1359,85
841,18	1245,16
841,35	1267,69
841,52	1271,79
841,69	1355,76
841,86	1157,10
842,03	1290,22
842,20	1304,56
842,37	1296,36
842,54	1282,03
842,71	1275,88
842,88	1284,08
843,05	1257,45
843,22	1183,73
843,39	1214,45
843,56	1224,69
843,73	1251,31
843,90	1300,46
844,07	1255,40
844,24	1298,41
844,41	1261,55
844,58	1236,97
844,75	1296,36
844,92	1241,07
845,09	1249,26
845,26	1261,55
845,43	1245,16
845,60	1257,45
845,77	1310,70
845,94	1302,51
846,10	1196,01
846,27	1273,84
846,44	1271,79
846,61	1290,22
846,78	1331,18
846,95	1322,99
847,12	1251,31
847,29	1247,21
847,46	1214,45
847,63	1249,26
847,80	1318,89
847,97	1279,98
848,14	1275,88
848,31	1224,69
848,48	1193,97
848,65	1265,64
848,82	1302,51
848,98	1304,56
849,15	1282,03
849,32	1271,79
849,49	1239,02
849,66	1269,74
849,83	1257,45
850,00	1249,26
850,17	1325,04
850,34	1284,08
850,51	1253,36
850,68	1282,03
850,85	1226,73
851,01	1224,69
851,18	1349,61
851,35	1259,50
851,52	1251,31
851,69	1306,60
851,86	1271,79
852,03	1286,12
852,20	1228,78
852,37	1288,17
852,53	1193,97
852,70	1265,64
852,87	1222,64
853,04	1253,36
853,21	1322,99
853,38	1284,08
853,55	1329,13
853,72	1255,40
853,89	1236,97
854,05	1265,64
854,22	1286,12
854,39	1333,23
854,56	1239,02
854,73	1296,36
854,90	1341,42
855,07	1234,93
855,23	1224,69
855,40	1230,83
855,57	1214,45
855,74	1298,41
855,91	1306,60
856,08	1302,51
856,25	1271,79
856,41	1191,92
856,58	1290,22
856,75	1329,13
856,92	1224,69
857,09	1247,21
857,26	1218,54
857,42	1325,04
857,59	1335,28
857,76	1257,45
857,93	1288,17
858,10	1304,56
858,27	1232,88
858,43	1220,59
858,60	1300,46
858,77	1253,36
858,94	1292,27
859,11	1269,74
859,27	1245,16
859,44	1318,89
859,61	1214,45
859,78	1347,56
859,95	1255,40
860,12	1243,12
860,28	1269,74
860,45	1245,16
860,62	1259,50
860,79	1224,69
860,95	1269,74
861,12	1191,92
861,29	1259,50
861,46	1304,56
861,63	1284,08
861,79	1253,36
861,96	1245,16
862,13	1282,03
862,30	1308,65
862,47	1271,79
862,63	1239,02
862,80	1271,79
862,97	1212,40
863,14	1288,17
863,30	1214,45
863,47	1226,73
863,64	1284,08
863,81	1265,64
863,97	1220,59
864,14	1331,18
864,31	1284,08
864,48	1204,21
864,65	1210,35
864,81	1314,80
864,98	1388,52
865,15	1310,70
865,32	1288,17
865,48	1288,17
865,65	1294,32
865,82	1239,02
865,98	1232,88
866,15	1318,89
866,32	1249,26
866,49	1253,36
866,65	1284,08
866,82	1269,74
866,99	1279,98
867,16	1239,02
867,32	1271,79
867,49	1306,60
867,66	1333,23
867,83	1290,22
867,99	1228,78
868,16	1282,03
868,33	1247,21
868,49	1325,04
868,66	1284,08
868,83	1347,56
868,99	1261,55
869,16	1216,49
869,33	1230,83
869,50	1249,26
869,66	1259,50
869,83	1220,59
870,00	1257,45
870,16	1277,93
870,33	1271,79
870,50	1259,50
870,66	1269,74
870,83	1239,02
871,00	1308,65
871,17	1273,84
871,33	1271,79
871,50	1284,08
871,67	1282,03
871,83	1216,49
872,00	1271,79
872,17	1269,74
872,33	1290,22
872,50	1245,16
872,67	1224,69
872,83	1247,21
873,00	1193,97
873,17	1257,45
873,33	1257,45
873,50	1325,04
873,67	1230,83
873,83	1298,41
874,00	1241,07
874,16	1273,84
874,33	1286,12
874,50	1294,32
874,66	1294,32
874,83	1286,12
875,00	1320,94
875,16	1275,88
875,33	1279,98
875,50	1279,98
875,66	1228,78
875,83	1226,73
875,99	1206,25
876,16	1363,95
876,33	1288,17
876,49	1251,31
876,66	1290,22
876,83	1286,12
876,99	1265,64
877,16	1282,03
877,32	1374,19
877,49	1259,50
877,66	1243,12
877,82	1220,59
877,99	1243,12
878,15	1314,80
878,32	1306,60
878,49	1333,23
878,65	1265,64
878,82	1255,40
878,98	1245,16
879,15	1243,12
879,32	1290,22
879,48	1249,26
879,65	1271,79
879,81	1271,79
879,98	1198,06
880,15	1267,69
880,31	1234,93
880,48	1290,22
880,64	1322,99
880,81	1277,93
880,97	1300,46
881,14	1279,98
881,31	1306,60
881,47	1267,69
881,64	1259,50
881,80	1290,22
881,97	1265,64
882,13	1277,93
882,30	1236,97
882,47	1308,65
882,63	1292,27
882,80	1279,98
882,96	1310,70
883,13	1230,83
883,29	1241,07
883,46	1277,93
883,62	1267,69
883,79	1279,98
883,95	1343,47
884,12	1271,79
884,29	1302,51
884,45	1245,16
884,62	1271,79
884,78	1294,32
884,95	1282,03
885,11	1312,75
885,28	1239,02
885,44	1236,97
885,61	1265,64
885,77	1243,12
885,94	1302,51
886,10	1251,31
886,27	1294,32
886,43	1294,32
886,60	1265,64
886,76	1216,49
886,93	1290,22
887,09	1216,49
887,26	1284,08
887,42	1382,38
887,59	1249,26
887,75	1284,08
887,92	1257,45
888,08	1189,87
888,25	1279,98
888,41	1286,12
888,58	1290,22
888,74	1228,78
888,91	1206,25
>>>>>End Processed Spectral Data<<<<<
