SpectraSuite Data File
++++++++++++++++++++++++++++++++++++
Date: Sun Apr 03 19:47:04 CEST 2016
User: root
Dark Spectrum Present: No
Reference Spectrum Present: No
Number of Sampled Component Spectra: 1
Spectrometers: USB4C02835
Integration Time (usec): 10000 (USB4C02835)
Spectra Averaged: 1 (USB4C02835)
Boxcar Smoothing: 0 (USB4C02835)
Correct for Electrical Dark: No (USB4C02835)
Strobe/Lamp Enabled: No (USB4C02835)
Correct for Detector Non-linearity: No (USB4C02835)
Correct for Stray Light: No (USB4C02835)
Number of Pixels in Processed Spectrum: 3648
>>>>>Begin Processed Spectral Data<<<<<
177,47	1230,83
177,69	1230,83
177,91	1230,83
178,13	1239,02
178,36	1210,35
178,58	1230,83
178,80	1298,41
179,02	1185,77
179,24	1245,16
179,46	1290,22
179,68	1261,55
179,90	1257,45
180,13	1261,55
180,35	1208,30
180,57	1329,13
180,79	1271,79
181,01	1265,64
181,23	1216,49
181,45	1341,42
181,67	1290,22
181,90	1257,45
182,12	1314,80
182,34	1241,07
182,56	1333,23
182,78	1292,27
183,00	1224,69
183,22	1267,69
183,44	1298,41
183,66	1249,26
183,89	1275,88
184,11	1314,80
184,33	1275,88
184,55	1230,83
184,77	1239,02
184,99	1288,17
185,21	1218,54
185,43	1257,45
185,65	1230,83
185,87	1306,60
186,10	1206,25
186,32	1228,78
186,54	1253,36
186,76	1267,69
186,98	1259,50
187,20	1290,22
187,42	1208,30
187,64	1222,64
187,86	1292,27
188,08	1306,60
188,30	1304,56
188,52	1251,31
188,75	1282,03
188,97	1228,78
189,19	1316,84
189,41	1167,34
189,63	1259,50
189,85	1243,12
190,07	1263,60
190,29	1234,93
190,51	1239,02
190,73	1214,45
190,95	1320,94
191,17	1275,88
191,39	1210,35
191,61	1277,93
191,84	1210,35
192,06	1198,06
192,28	1265,64
192,50	1282,03
192,72	1249,26
192,94	1372,14
193,16	1204,21
193,38	1234,93
193,60	1200,11
193,82	1284,08
194,04	1220,59
194,26	1257,45
194,48	1310,70
194,70	1277,93
194,92	1232,88
195,14	1218,54
195,36	1226,73
195,58	1187,82
195,80	1288,17
196,02	1306,60
196,24	1282,03
196,46	1253,36
196,69	1241,07
196,91	1267,69
197,13	1263,60
197,35	1273,84
197,57	1257,45
197,79	1253,36
198,01	1294,32
198,23	1304,56
198,45	1304,56
198,67	1355,76
198,89	1265,64
199,11	1200,11
199,33	1296,36
199,55	1232,88
199,77	1257,45
199,99	1275,88
200,21	1271,79
200,43	1212,40
200,65	1261,55
200,87	1271,79
201,09	1224,69
201,31	1243,12
201,53	1239,02
201,75	1304,56
201,97	1284,08
202,19	1218,54
202,41	1275,88
202,63	1320,94
202,85	1300,46
203,07	1265,64
203,29	1224,69
203,51	1251,31
203,73	1294,32
203,95	1310,70
204,17	1253,36
204,39	1277,93
204,61	1294,32
204,83	1236,97
205,05	1282,03
205,27	1222,64
205,49	1198,06
205,71	1253,36
205,93	1284,08
206,15	1314,80
206,37	1357,80
206,59	1318,89
206,81	1206,25
207,03	1312,75
207,25	1243,12
207,47	1222,64
207,69	1284,08
207,91	1220,59
208,13	1273,84
208,34	1292,27
208,56	1228,78
208,78	1273,84
209,00	1279,98
209,22	1249,26
209,44	1251,31
209,66	1271,79
209,88	1257,45
210,10	1318,89
210,32	1214,45
210,54	1288,17
210,76	1259,50
210,98	1329,13
211,20	1214,45
211,42	1282,03
211,64	1322,99
211,86	1329,13
212,08	1286,12
212,30	1265,64
212,52	1277,93
212,74	1302,51
212,96	1251,31
213,17	1345,52
213,39	1257,45
213,61	1282,03
213,83	1239,02
214,05	1288,17
214,27	1255,40
214,49	1279,98
214,71	1243,12
214,93	1335,28
215,15	1259,50
215,37	1239,02
215,59	1224,69
215,81	1224,69
216,03	1320,94
216,24	1261,55
216,46	1286,12
216,68	1259,50
216,90	1245,16
217,12	1353,71
217,34	1187,82
217,56	1357,80
217,78	1271,79
218,00	1310,70
218,22	1236,97
218,44	1329,13
218,66	1284,08
218,87	1327,08
219,09	1226,73
219,31	1245,16
219,53	1304,56
219,75	1306,60
219,97	1298,41
220,19	1329,13
220,41	1220,59
220,63	1193,97
220,85	1226,73
221,06	1318,89
221,28	1228,78
221,50	1345,52
221,72	1249,26
221,94	1255,40
222,16	1226,73
222,38	1353,71
222,60	1402,86
222,82	1267,69
223,03	1183,73
223,25	1261,55
223,47	1327,08
223,69	1306,60
223,91	1224,69
224,13	1259,50
224,35	1222,64
224,57	1329,13
224,78	1236,97
225,00	1282,03
225,22	1277,93
225,44	1257,45
225,66	1202,16
225,88	1320,94
226,10	1232,88
226,32	1286,12
226,53	1306,60
226,75	1277,93
226,97	1222,64
227,19	1230,83
227,41	1218,54
227,63	1193,97
227,85	1261,55
228,06	1275,88
228,28	1282,03
228,50	1290,22
228,72	1216,49
228,94	1251,31
229,16	1202,16
229,37	1271,79
229,59	1257,45
229,81	1234,93
230,03	1284,08
230,25	1275,88
230,47	1179,63
230,69	1261,55
230,90	1306,60
231,12	1265,64
231,34	1320,94
231,56	1343,47
231,78	1267,69
232,00	1253,36
232,21	1282,03
232,43	1292,27
232,65	1226,73
232,87	1312,75
233,09	1239,02
233,30	1359,85
233,52	1335,28
233,74	1269,74
233,96	1275,88
234,18	1273,84
234,40	1292,27
234,61	1298,41
234,83	1255,40
235,05	1236,97
235,27	1308,65
235,49	1243,12
235,70	1275,88
235,92	1218,54
236,14	1269,74
236,36	1386,47
236,58	1234,93
236,79	1374,19
237,01	1224,69
237,23	1216,49
237,45	1335,28
237,67	1226,73
237,88	1230,83
238,10	1279,98
238,32	1288,17
238,54	1308,65
238,76	1329,13
238,97	1277,93
239,19	1314,80
239,41	1232,88
239,63	1253,36
239,85	1271,79
240,06	1335,28
240,28	1218,54
240,50	1269,74
240,72	1259,50
240,93	1257,45
241,15	1269,74
241,37	1189,87
241,59	1329,13
241,81	1271,79
242,02	1257,45
242,24	1171,44
242,46	1228,78
242,68	1220,59
242,89	1306,60
243,11	1296,36
243,33	1282,03
243,55	1200,11
243,76	1282,03
243,98	1202,16
244,20	1232,88
244,42	1241,07
244,64	1232,88
244,85	1218,54
245,07	1286,12
245,29	1322,99
245,51	1271,79
245,72	1273,84
245,94	1284,08
246,16	1290,22
246,38	1265,64
246,59	1232,88
246,81	1191,92
247,03	1265,64
247,24	1282,03
247,46	1296,36
247,68	1269,74
247,90	1335,28
248,11	1269,74
248,33	1245,16
248,55	1275,88
248,77	1329,13
248,98	1275,88
249,20	1226,73
249,42	1282,03
249,64	1286,12
249,85	1212,40
250,07	1243,12
250,29	1245,16
250,50	1202,16
250,72	1284,08
250,94	1286,12
251,16	1218,54
251,37	1376,24
251,59	1269,74
251,81	1224,69
252,02	1232,88
252,24	1292,27
252,46	1230,83
252,68	1273,84
252,89	1249,26
253,11	1224,69
253,33	1261,55
253,54	1298,41
253,76	1284,08
253,98	1181,68
254,20	1275,88
254,41	1296,36
254,63	1269,74
254,85	1251,31
255,06	1230,83
255,28	1288,17
255,50	1275,88
255,71	1265,64
255,93	1320,94
256,15	1202,16
256,36	1308,65
256,58	1279,98
256,80	1200,11
257,02	1212,40
257,23	1304,56
257,45	1261,55
257,67	1230,83
257,88	1245,16
258,10	1257,45
258,32	1306,60
258,53	1290,22
258,75	1282,03
258,97	1241,07
259,18	1220,59
259,40	1273,84
259,62	1261,55
259,83	1230,83
260,05	1224,69
260,27	1296,36
260,48	1288,17
260,70	1286,12
260,92	1298,41
261,13	1292,27
261,35	1273,84
261,57	1200,11
261,78	1245,16
262,00	1257,45
262,22	1288,17
262,43	1269,74
262,65	1300,46
262,86	1314,80
263,08	1224,69
263,30	1214,45
263,51	1241,07
263,73	1249,26
263,95	1247,21
264,16	1224,69
264,38	1230,83
264,60	1241,07
264,81	1261,55
265,03	1343,47
265,25	1234,93
265,46	1351,66
265,68	1153,01
265,89	1220,59
266,11	1314,80
266,33	1302,51
266,54	1257,45
266,76	1249,26
266,98	1284,08
267,19	1253,36
267,41	1265,64
267,62	1265,64
267,84	1263,60
268,06	1257,45
268,27	1218,54
268,49	1282,03
268,70	1275,88
268,92	1306,60
269,14	1265,64
269,35	1230,83
269,57	1214,45
269,79	1327,08
270,00	1320,94
270,22	1271,79
270,43	1282,03
270,65	1257,45
270,87	1322,99
271,08	1239,02
271,30	1232,88
271,51	1286,12
271,73	1210,35
271,95	1257,45
272,16	1253,36
272,38	1355,76
272,59	1232,88
272,81	1269,74
273,02	1239,02
273,24	1255,40
273,46	1269,74
273,67	1257,45
273,89	1200,11
274,10	1236,97
274,32	1275,88
274,54	1310,70
274,75	1255,40
274,97	1353,71
275,18	1314,80
275,40	1316,84
275,61	1320,94
275,83	1222,64
276,05	1257,45
276,26	1298,41
276,48	1279,98
276,69	1224,69
276,91	1245,16
277,12	1275,88
277,34	1290,22
277,55	1234,93
277,77	1228,78
277,99	1224,69
278,20	1204,21
278,42	1249,26
278,63	1181,68
278,85	1234,93
279,06	1232,88
279,28	1296,36
279,49	1222,64
279,71	1249,26
279,93	1351,66
280,14	1282,03
280,36	1228,78
280,57	1277,93
280,79	1286,12
281,00	1300,46
281,22	1286,12
281,43	1198,06
281,65	1220,59
281,86	1271,79
282,08	1271,79
282,29	1261,55
282,51	1284,08
282,73	1271,79
282,94	1273,84
283,16	1232,88
283,37	1312,75
283,59	1189,87
283,80	1267,69
284,02	1220,59
284,23	1370,09
284,45	1251,31
284,66	1267,69
284,88	1273,84
285,09	1341,42
285,31	1339,37
285,52	1247,21
285,74	1294,32
285,95	1224,69
286,17	1257,45
286,38	1269,74
286,60	1363,95
286,81	1337,32
287,03	1230,83
287,24	1245,16
287,46	1314,80
287,67	1236,97
287,89	1251,31
288,10	1232,88
288,32	1265,64
288,53	1189,87
288,75	1251,31
288,96	1224,69
289,18	1296,36
289,39	1273,84
289,61	1277,93
289,82	1269,74
290,04	1255,40
290,25	1320,94
290,47	1275,88
290,68	1306,60
290,90	1230,83
291,11	1310,70
291,33	1257,45
291,54	1253,36
291,76	1310,70
291,97	1269,74
292,18	1341,42
292,40	1286,12
292,61	1335,28
292,83	1220,59
293,04	1282,03
293,26	1322,99
293,47	1290,22
293,69	1267,69
293,90	1273,84
294,12	1277,93
294,33	1245,16
294,55	1273,84
294,76	1296,36
294,97	1337,32
295,19	1245,16
295,40	1247,21
295,62	1279,98
295,83	1302,51
296,05	1255,40
296,26	1316,84
296,48	1329,13
296,69	1327,08
296,90	1251,31
297,12	1265,64
297,33	1282,03
297,55	1247,21
297,76	1230,83
297,98	1226,73
298,19	1273,84
298,41	1277,93
298,62	1314,80
298,83	1249,26
299,05	1245,16
299,26	1257,45
299,48	1239,02
299,69	1218,54
299,90	1372,14
300,12	1234,93
300,33	1224,69
300,55	1314,80
300,76	1282,03
300,98	1253,36
301,19	1296,36
301,40	1261,55
301,62	1269,74
301,83	1337,32
302,05	1298,41
302,26	1288,17
302,47	1259,50
302,69	1243,12
302,90	1249,26
303,12	1214,45
303,33	1304,56
303,54	1277,93
303,76	1251,31
303,97	1265,64
304,19	1257,45
304,40	1290,22
304,61	1288,17
304,83	1286,12
305,04	1239,02
305,26	1251,31
305,47	1265,64
305,68	1300,46
305,90	1327,08
306,11	1271,79
306,33	1249,26
306,54	1224,69
306,75	1181,68
306,97	1275,88
307,18	1286,12
307,39	1243,12
307,61	1282,03
307,82	1214,45
308,04	1212,40
308,25	1302,51
308,46	1314,80
308,68	1228,78
308,89	1284,08
309,10	1234,93
309,32	1193,97
309,53	1275,88
309,74	1282,03
309,96	1243,12
310,17	1282,03
310,39	1296,36
310,60	1306,60
310,81	1232,88
311,03	1325,04
311,24	1277,93
311,45	1292,27
311,67	1271,79
311,88	1265,64
312,09	1259,50
312,31	1269,74
312,52	1220,59
312,73	1247,21
312,95	1296,36
313,16	1288,17
313,37	1282,03
313,59	1286,12
313,80	1267,69
314,01	1267,69
314,23	1243,12
314,44	1296,36
314,65	1249,26
314,87	1288,17
315,08	1218,54
315,29	1251,31
315,51	1304,56
315,72	1288,17
315,93	1271,79
316,15	1329,13
316,36	1316,84
316,57	1177,58
316,79	1191,92
317,00	1265,64
317,21	1245,16
317,43	1224,69
317,64	1243,12
317,85	1306,60
318,07	1243,12
318,28	1269,74
318,49	1265,64
318,70	1265,64
318,92	1249,26
319,13	1325,04
319,34	1222,64
319,56	1243,12
319,77	1263,60
319,98	1224,69
320,20	1175,53
320,41	1255,40
320,62	1298,41
320,83	1275,88
321,05	1259,50
321,26	1277,93
321,47	1234,93
321,69	1308,65
321,90	1257,45
322,11	1241,07
322,32	1257,45
322,54	1306,60
322,75	1284,08
322,96	1304,56
323,18	1236,97
323,39	1320,94
323,60	1277,93
323,81	1275,88
324,03	1239,02
324,24	1247,21
324,45	1222,64
324,66	1288,17
324,88	1263,60
325,09	1339,37
325,30	1255,40
325,52	1251,31
325,73	1228,78
325,94	1300,46
326,15	1206,25
326,37	1216,49
326,58	1208,30
326,79	1290,22
327,00	1259,50
327,22	1232,88
327,43	1206,25
327,64	1249,26
327,85	1241,07
328,07	1298,41
328,28	1302,51
328,49	1255,40
328,70	1355,76
328,92	1286,12
329,13	1265,64
329,34	1271,79
329,55	1273,84
329,76	1314,80
329,98	1234,93
330,19	1216,49
330,40	1296,36
330,61	1232,88
330,83	1232,88
331,04	1337,32
331,25	1257,45
331,46	1312,75
331,68	1263,60
331,89	1249,26
332,10	1220,59
332,31	1279,98
332,52	1282,03
332,74	1290,22
332,95	1277,93
333,16	1271,79
333,37	1308,65
333,58	1341,42
333,80	1212,40
334,01	1271,79
334,22	1282,03
334,43	1347,56
334,64	1259,50
334,86	1279,98
335,07	1232,88
335,28	1294,32
335,49	1247,21
335,70	1273,84
335,92	1286,12
336,13	1288,17
336,34	1298,41
336,55	1255,40
336,76	1271,79
336,98	1232,88
337,19	1257,45
337,40	1288,17
337,61	1251,31
337,82	1343,47
338,04	1286,12
338,25	1292,27
338,46	1261,55
338,67	1206,25
338,88	1173,49
339,09	1208,30
339,31	1239,02
339,52	1286,12
339,73	1253,36
339,94	1308,65
340,15	1236,97
340,36	1247,21
340,58	1232,88
340,79	1306,60
341,00	1304,56
341,21	1265,64
341,42	1282,03
341,63	1277,93
341,85	1255,40
342,06	1290,22
342,27	1290,22
342,48	1269,74
342,69	1257,45
342,90	1247,21
343,12	1286,12
343,33	1255,40
343,54	1216,49
343,75	1308,65
343,96	1193,97
344,17	1304,56
344,38	1259,50
344,60	1343,47
344,81	1214,45
345,02	1318,89
345,23	1206,25
345,44	1290,22
345,65	1320,94
345,86	1290,22
346,07	1220,59
346,29	1259,50
346,50	1206,25
346,71	1263,60
346,92	1292,27
347,13	1304,56
347,34	1282,03
347,55	1306,60
347,76	1265,64
347,98	1257,45
348,19	1228,78
348,40	1241,07
348,61	1290,22
348,82	1271,79
349,03	1292,27
349,24	1282,03
349,45	1269,74
349,66	1269,74
349,88	1247,21
350,09	1277,93
350,30	1259,50
350,51	1314,80
350,72	1251,31
350,93	1265,64
351,14	1228,78
351,35	1279,98
351,56	1347,56
351,77	1298,41
351,99	1261,55
352,20	1284,08
352,41	1290,22
352,62	1198,06
352,83	1230,83
353,04	1370,09
353,25	1325,04
353,46	1314,80
353,67	1337,32
353,88	1208,30
354,09	1277,93
354,30	1275,88
354,52	1292,27
354,73	1261,55
354,94	1134,57
355,15	1333,23
355,36	1249,26
355,57	1304,56
355,78	1245,16
355,99	1273,84
356,20	1279,98
356,41	1234,93
356,62	1327,08
356,83	1292,27
357,04	1286,12
357,25	1245,16
357,46	1282,03
357,68	1202,16
357,89	1300,46
358,10	1273,84
358,31	1261,55
358,52	1337,32
358,73	1224,69
358,94	1269,74
359,15	1210,35
359,36	1267,69
359,57	1243,12
359,78	1288,17
359,99	1200,11
360,20	1245,16
360,41	1271,79
360,62	1259,50
360,83	1304,56
361,04	1269,74
361,25	1339,37
361,46	1292,27
361,67	1228,78
361,88	1296,36
362,09	1271,79
362,30	1308,65
362,51	1226,73
362,72	1251,31
362,93	1308,65
363,14	1298,41
363,35	1234,93
363,56	1259,50
363,78	1230,83
363,99	1249,26
364,20	1282,03
364,41	1224,69
364,62	1273,84
364,83	1253,36
365,04	1234,93
365,25	1249,26
365,46	1302,51
365,67	1271,79
365,88	1226,73
366,09	1253,36
366,30	1241,07
366,51	1200,11
366,72	1282,03
366,93	1226,73
367,14	1257,45
367,35	1296,36
367,56	1263,60
367,77	1249,26
367,98	1247,21
368,18	1224,69
368,39	1222,64
368,60	1273,84
368,81	1255,40
369,02	1232,88
369,23	1236,97
369,44	1257,45
369,65	1322,99
369,86	1314,80
370,07	1273,84
370,28	1320,94
370,49	1253,36
370,70	1218,54
370,91	1304,56
371,12	1239,02
371,33	1304,56
371,54	1257,45
371,75	1300,46
371,96	1257,45
372,17	1277,93
372,38	1181,68
372,59	1228,78
372,80	1239,02
373,01	1251,31
373,22	1220,59
373,43	1263,60
373,64	1302,51
373,85	1257,45
374,06	1236,97
374,26	1222,64
374,47	1200,11
374,68	1257,45
374,89	1279,98
375,10	1263,60
375,31	1282,03
375,52	1294,32
375,73	1279,98
375,94	1249,26
376,15	1239,02
376,36	1290,22
376,57	1279,98
376,78	1261,55
376,99	1282,03
377,20	1263,60
377,40	1279,98
377,61	1259,50
377,82	1247,21
378,03	1216,49
378,24	1306,60
378,45	1296,36
378,66	1288,17
378,87	1263,60
379,08	1296,36
379,29	1331,18
379,50	1277,93
379,71	1296,36
379,91	1361,90
380,12	1288,17
380,33	1273,84
380,54	1259,50
380,75	1263,60
380,96	1255,40
381,17	1329,13
381,38	1275,88
381,59	1216,49
381,80	1224,69
382,00	1241,07
382,21	1232,88
382,42	1279,98
382,63	1294,32
382,84	1212,40
383,05	1277,93
383,26	1290,22
383,47	1183,73
383,68	1247,21
383,88	1210,35
384,09	1314,80
384,30	1239,02
384,51	1247,21
384,72	1306,60
384,93	1198,06
385,14	1257,45
385,35	1247,21
385,55	1337,32
385,76	1298,41
385,97	1232,88
386,18	1236,97
386,39	1245,16
386,60	1257,45
386,81	1275,88
387,02	1265,64
387,22	1263,60
387,43	1200,11
387,64	1206,25
387,85	1204,21
388,06	1296,36
388,27	1296,36
388,48	1304,56
388,68	1241,07
388,89	1255,40
389,10	1247,21
389,31	1310,70
389,52	1216,49
389,73	1294,32
389,93	1267,69
390,14	1245,16
390,35	1279,98
390,56	1282,03
390,77	1286,12
390,98	1263,60
391,18	1148,91
391,39	1234,93
391,60	1329,13
391,81	1247,21
392,02	1269,74
392,23	1216,49
392,43	1275,88
392,64	1370,09
392,85	1259,50
393,06	1290,22
393,27	1277,93
393,47	1245,16
393,68	1267,69
393,89	1202,16
394,10	1234,93
394,31	1232,88
394,52	1251,31
394,72	1259,50
394,93	1282,03
395,14	1327,08
395,35	1304,56
395,56	1222,64
395,76	1198,06
395,97	1255,40
396,18	1306,60
396,39	1300,46
396,60	1353,71
396,80	1200,11
397,01	1220,59
397,22	1232,88
397,43	1277,93
397,64	1290,22
397,84	1298,41
398,05	1226,73
398,26	1267,69
398,47	1210,35
398,67	1322,99
398,88	1275,88
399,09	1335,28
399,30	1345,52
399,51	1249,26
399,71	1226,73
399,92	1288,17
400,13	1337,32
400,34	1212,40
400,54	1263,60
400,75	1290,22
400,96	1239,02
401,17	1269,74
401,37	1228,78
401,58	1312,75
401,79	1236,97
402,00	1296,36
402,21	1257,45
402,41	1331,18
402,62	1308,65
402,83	1255,40
403,04	1212,40
403,24	1249,26
403,45	1277,93
403,66	1296,36
403,87	1265,64
404,07	1277,93
404,28	1300,46
404,49	1218,54
404,70	1320,94
404,90	1304,56
405,11	1300,46
405,32	1265,64
405,52	1261,55
405,73	1273,84
405,94	1191,92
406,15	1277,93
406,35	1245,16
406,56	1241,07
406,77	1273,84
406,98	1279,98
407,18	1187,82
407,39	1245,16
407,60	1286,12
407,80	1267,69
408,01	1298,41
408,22	1282,03
408,43	1273,84
408,63	1296,36
408,84	1220,59
409,05	1271,79
409,25	1196,01
409,46	1267,69
409,67	1267,69
409,88	1273,84
410,08	1275,88
410,29	1239,02
410,50	1257,45
410,70	1230,83
410,91	1296,36
411,12	1302,51
411,32	1327,08
411,53	1251,31
411,74	1261,55
411,95	1249,26
412,15	1271,79
412,36	1222,64
412,57	1232,88
412,77	1279,98
412,98	1202,16
413,19	1300,46
413,39	1306,60
413,60	1181,68
413,81	1286,12
414,01	1296,36
414,22	1216,49
414,43	1261,55
414,63	1277,93
414,84	1232,88
415,05	1269,74
415,25	1271,79
415,46	1138,67
415,67	1296,36
415,87	1279,98
416,08	1306,60
416,29	1318,89
416,49	1290,22
416,70	1263,60
416,91	1320,94
417,11	1259,50
417,32	1232,88
417,53	1265,64
417,73	1177,58
417,94	1300,46
418,15	1265,64
418,35	1284,08
418,56	1255,40
418,77	1296,36
418,97	1222,64
419,18	1261,55
419,38	1255,40
419,59	1290,22
419,80	1300,46
420,00	1224,69
420,21	1257,45
420,42	1251,31
420,62	1261,55
420,83	1275,88
421,04	1232,88
421,24	1290,22
421,45	1255,40
421,65	1343,47
421,86	1255,40
422,07	1316,84
422,27	1300,46
422,48	1255,40
422,69	1249,26
422,89	1269,74
423,10	1249,26
423,30	1222,64
423,51	1249,26
423,72	1239,02
423,92	1253,36
424,13	1273,84
424,33	1294,32
424,54	1239,02
424,75	1269,74
424,95	1249,26
425,16	1290,22
425,36	1228,78
425,57	1284,08
425,78	1255,40
425,98	1320,94
426,19	1304,56
426,39	1327,08
426,60	1265,64
426,81	1247,21
427,01	1224,69
427,22	1263,60
427,42	1245,16
427,63	1284,08
427,83	1230,83
428,04	1320,94
428,25	1294,32
428,45	1327,08
428,66	1232,88
428,86	1239,02
429,07	1277,93
429,28	1216,49
429,48	1210,35
429,69	1214,45
429,89	1269,74
430,10	1146,86
430,30	1247,21
430,51	1208,30
430,71	1232,88
430,92	1279,98
431,13	1277,93
431,33	1284,08
431,54	1282,03
431,74	1294,32
431,95	1259,50
432,15	1251,31
432,36	1243,12
432,56	1259,50
432,77	1296,36
432,98	1296,36
433,18	1251,31
433,39	1290,22
433,59	1269,74
433,80	1310,70
434,00	1255,40
434,21	1282,03
434,41	1234,93
434,62	1282,03
434,82	1212,40
435,03	1282,03
435,23	1271,79
435,44	1208,30
435,64	1204,21
435,85	1296,36
436,06	1322,99
436,26	1325,04
436,47	1277,93
436,67	1243,12
436,88	1193,97
437,08	1339,37
437,29	1275,88
437,49	1251,31
437,70	1157,10
437,90	1249,26
438,11	1271,79
438,31	1249,26
438,52	1228,78
438,72	1306,60
438,93	1212,40
439,13	1288,17
439,34	1286,12
439,54	1269,74
439,75	1314,80
439,95	1327,08
440,16	1218,54
440,36	1294,32
440,57	1271,79
440,77	1296,36
440,98	1257,45
441,18	1273,84
441,39	1200,11
441,59	1335,28
441,80	1327,08
442,00	1273,84
442,21	1245,16
442,41	1316,84
442,62	1329,13
442,82	1236,97
443,02	1314,80
443,23	1347,56
443,43	1263,60
443,64	1193,97
443,84	1337,32
444,05	1241,07
444,25	1265,64
444,46	1347,56
444,66	1288,17
444,87	1296,36
445,07	1259,50
445,28	1241,07
445,48	1216,49
445,69	1300,46
445,89	1206,25
446,09	1206,25
446,30	1279,98
446,50	1208,30
446,71	1286,12
446,91	1204,21
447,12	1261,55
447,32	1304,56
447,53	1241,07
447,73	1284,08
447,93	1327,08
448,14	1241,07
448,34	1245,16
448,55	1247,21
448,75	1314,80
448,96	1284,08
449,16	1245,16
449,36	1296,36
449,57	1177,58
449,77	1282,03
449,98	1312,75
450,18	1353,71
450,39	1208,30
450,59	1247,21
450,79	1261,55
451,00	1279,98
451,20	1282,03
451,41	1310,70
451,61	1236,97
451,81	1353,71
452,02	1282,03
452,22	1267,69
452,43	1247,21
452,63	1337,32
452,84	1261,55
453,04	1263,60
453,24	1273,84
453,45	1310,70
453,65	1331,18
453,86	1236,97
454,06	1255,40
454,26	1273,84
454,47	1259,50
454,67	1288,17
454,87	1210,35
455,08	1206,25
455,28	1208,30
455,49	1241,07
455,69	1333,23
455,89	1259,50
456,10	1269,74
456,30	1265,64
456,51	1261,55
456,71	1304,56
456,91	1306,60
457,12	1259,50
457,32	1255,40
457,52	1308,65
457,73	1216,49
457,93	1284,08
458,14	1251,31
458,34	1284,08
458,54	1296,36
458,75	1279,98
458,95	1316,84
459,15	1222,64
459,36	1302,51
459,56	1218,54
459,76	1251,31
459,97	1306,60
460,17	1335,28
460,37	1335,28
460,58	1269,74
460,78	1263,60
460,99	1275,88
461,19	1185,77
461,39	1279,98
461,60	1259,50
461,80	1247,21
462,00	1277,93
462,21	1200,11
462,41	1271,79
462,61	1263,60
462,82	1251,31
463,02	1265,64
463,22	1325,04
463,43	1218,54
463,63	1302,51
463,83	1228,78
464,04	1298,41
464,24	1316,84
464,44	1257,45
464,64	1257,45
464,85	1226,73
465,05	1261,55
465,25	1263,60
465,46	1220,59
465,66	1282,03
465,86	1241,07
466,07	1243,12
466,27	1204,21
466,47	1218,54
466,68	1269,74
466,88	1277,93
467,08	1216,49
467,29	1236,97
467,49	1314,80
467,69	1290,22
467,89	1216,49
468,10	1277,93
468,30	1263,60
468,50	1249,26
468,71	1269,74
468,91	1191,92
469,11	1286,12
469,31	1234,93
469,52	1294,32
469,72	1282,03
469,92	1255,40
470,13	1214,45
470,33	1282,03
470,53	1296,36
470,73	1279,98
470,94	1322,99
471,14	1232,88
471,34	1279,98
471,54	1296,36
471,75	1257,45
471,95	1282,03
472,15	1220,59
472,36	1251,31
472,56	1284,08
472,76	1269,74
472,96	1275,88
473,17	1284,08
473,37	1294,32
473,57	1222,64
473,77	1247,21
473,98	1273,84
474,18	1263,60
474,38	1220,59
474,58	1271,79
474,79	1210,35
474,99	1292,27
475,19	1208,30
475,39	1236,97
475,60	1255,40
475,80	1224,69
476,00	1286,12
476,20	1347,56
476,41	1331,18
476,61	1208,30
476,81	1263,60
477,01	1282,03
477,21	1208,30
477,42	1228,78
477,62	1220,59
477,82	1265,64
478,02	1261,55
478,23	1222,64
478,43	1277,93
478,63	1232,88
478,83	1263,60
479,03	1253,36
479,24	1222,64
479,44	1282,03
479,64	1261,55
479,84	1230,83
480,04	1296,36
480,25	1277,93
480,45	1263,60
480,65	1243,12
480,85	1222,64
481,06	1243,12
481,26	1302,51
481,46	1257,45
481,66	1275,88
481,86	1265,64
482,06	1257,45
482,27	1275,88
482,47	1247,21
482,67	1376,24
482,87	1255,40
483,07	1261,55
483,28	1196,01
483,48	1259,50
483,68	1234,93
483,88	1255,40
484,08	1282,03
484,29	1261,55
484,49	1263,60
484,69	1279,98
484,89	1333,23
485,09	1298,41
485,29	1378,28
485,50	1245,16
485,70	1269,74
485,90	1273,84
486,10	1290,22
486,30	1193,97
486,50	1179,63
486,71	1279,98
486,91	1249,26
487,11	1318,89
487,31	1253,36
487,51	1267,69
487,71	1294,32
487,91	1288,17
488,12	1243,12
488,32	1226,73
488,52	1269,74
488,72	1286,12
488,92	1216,49
489,12	1302,51
489,32	1222,64
489,53	1241,07
489,73	1216,49
489,93	1288,17
490,13	1277,93
490,33	1206,25
490,53	1232,88
490,73	1343,47
490,94	1292,27
491,14	1296,36
491,34	1306,60
491,54	1282,03
491,74	1255,40
491,94	1273,84
492,14	1308,65
492,34	1253,36
492,54	1292,27
492,75	1185,77
492,95	1200,11
493,15	1236,97
493,35	1265,64
493,55	1286,12
493,75	1198,06
493,95	1269,74
494,15	1236,97
494,35	1241,07
494,56	1249,26
494,76	1234,93
494,96	1210,35
495,16	1288,17
495,36	1253,36
495,56	1308,65
495,76	1269,74
495,96	1277,93
496,16	1298,41
496,36	1279,98
496,56	1273,84
496,77	1247,21
496,97	1249,26
497,17	1343,47
497,37	1247,21
497,57	1200,11
497,77	1267,69
497,97	1261,55
498,17	1298,41
498,37	1331,18
498,57	1208,30
498,77	1275,88
498,97	1232,88
499,17	1261,55
499,38	1212,40
499,58	1241,07
499,78	1234,93
499,98	1284,08
500,18	1220,59
500,38	1261,55
500,58	1208,30
500,78	1263,60
500,98	1210,35
501,18	1265,64
501,38	1257,45
501,58	1308,65
501,78	1273,84
501,98	1243,12
502,18	1279,98
502,38	1304,56
502,58	1218,54
502,78	1271,79
502,98	1282,03
503,18	1314,80
503,38	1249,26
503,59	1239,02
503,79	1296,36
503,99	1222,64
504,19	1275,88
504,39	1296,36
504,59	1259,50
504,79	1243,12
504,99	1251,31
505,19	1222,64
505,39	1245,16
505,59	1376,24
505,79	1271,79
505,99	1214,45
506,19	1259,50
506,39	1241,07
506,59	1245,16
506,79	1257,45
506,99	1273,84
507,19	1363,95
507,39	1298,41
507,59	1253,36
507,79	1261,55
507,99	1275,88
508,19	1257,45
508,39	1241,07
508,59	1269,74
508,79	1253,36
508,99	1312,75
509,19	1267,69
509,39	1253,36
509,59	1196,01
509,79	1198,06
509,99	1230,83
510,19	1263,60
510,39	1265,64
510,59	1257,45
510,79	1253,36
510,99	1241,07
511,19	1286,12
511,39	1259,50
511,59	1245,16
511,79	1273,84
511,99	1261,55
512,19	1210,35
512,38	1247,21
512,58	1277,93
512,78	1200,11
512,98	1263,60
513,18	1265,64
513,38	1241,07
513,58	1320,94
513,78	1232,88
513,98	1337,32
514,18	1253,36
514,38	1286,12
514,58	1218,54
514,78	1247,21
514,98	1214,45
515,18	1298,41
515,38	1222,64
515,58	1316,84
515,78	1208,30
515,98	1216,49
516,18	1243,12
516,38	1253,36
516,57	1191,92
516,77	1269,74
516,97	1261,55
517,17	1265,64
517,37	1239,02
517,57	1257,45
517,77	1298,41
517,97	1292,27
518,17	1269,74
518,37	1243,12
518,57	1290,22
518,77	1271,79
518,97	1198,06
519,16	1239,02
519,36	1245,16
519,56	1228,78
519,76	1247,21
519,96	1273,84
520,16	1249,26
520,36	1239,02
520,56	1310,70
520,76	1247,21
520,96	1255,40
521,16	1294,32
521,35	1216,49
521,55	1224,69
521,75	1224,69
521,95	1282,03
522,15	1257,45
522,35	1243,12
522,55	1290,22
522,75	1214,45
522,95	1257,45
523,14	1343,47
523,34	1189,87
523,54	1226,73
523,74	1279,98
523,94	1347,56
524,14	1236,97
524,34	1267,69
524,54	1302,51
524,73	1222,64
524,93	1290,22
525,13	1310,70
525,33	1341,42
525,53	1308,65
525,73	1282,03
525,93	1298,41
526,13	1265,64
526,32	1253,36
526,52	1288,17
526,72	1251,31
526,92	1181,68
527,12	1292,27
527,32	1216,49
527,52	1230,83
527,71	1288,17
527,91	1251,31
528,11	1191,92
528,31	1249,26
528,51	1249,26
528,71	1345,52
528,90	1304,56
529,10	1261,55
529,30	1279,98
529,50	1296,36
529,70	1214,45
529,90	1255,40
530,09	1294,32
530,29	1366,00
530,49	1249,26
530,69	1298,41
530,89	1300,46
531,09	1277,93
531,28	1279,98
531,48	1300,46
531,68	1220,59
531,88	1261,55
532,08	1308,65
532,28	1228,78
532,47	1245,16
532,67	1216,49
532,87	1191,92
533,07	1261,55
533,27	1226,73
533,46	1333,23
533,66	1294,32
533,86	1263,60
534,06	1282,03
534,26	1290,22
534,45	1214,45
534,65	1288,17
534,85	1267,69
535,05	1243,12
535,25	1249,26
535,44	1331,18
535,64	1208,30
535,84	1282,03
536,04	1273,84
536,24	1279,98
536,43	1284,08
536,63	1251,31
536,83	1314,80
537,03	1245,16
537,22	1290,22
537,42	1212,40
537,62	1277,93
537,82	1218,54
538,02	1234,93
538,21	1271,79
538,41	1204,21
538,61	1312,75
538,81	1275,88
539,00	1243,12
539,20	1232,88
539,40	1247,21
539,60	1273,84
539,79	1292,27
539,99	1226,73
540,19	1253,36
540,39	1224,69
540,58	1255,40
540,78	1249,26
540,98	1222,64
541,18	1251,31
541,37	1261,55
541,57	1294,32
541,77	1269,74
541,97	1322,99
542,16	1255,40
542,36	1228,78
542,56	1224,69
542,76	1224,69
542,95	1228,78
543,15	1198,06
543,35	1335,28
543,54	1267,69
543,74	1236,97
543,94	1284,08
544,14	1189,87
544,33	1148,91
544,53	1255,40
544,73	1224,69
544,93	1265,64
545,12	1251,31
545,32	1265,64
545,52	1228,78
545,71	1208,30
545,91	1224,69
546,11	1255,40
546,30	1259,50
546,50	1255,40
546,70	1239,02
546,90	1230,83
547,09	1284,08
547,29	1247,21
547,49	1314,80
547,68	1230,83
547,88	1335,28
548,08	1275,88
548,27	1322,99
548,47	1284,08
548,67	1251,31
548,87	1306,60
549,06	1257,45
549,26	1249,26
549,46	1261,55
549,65	1265,64
549,85	1261,55
550,05	1292,27
550,24	1265,64
550,44	1230,83
550,64	1220,59
550,83	1345,52
551,03	1255,40
551,23	1265,64
551,42	1257,45
551,62	1226,73
551,82	1210,35
552,01	1245,16
552,21	1169,39
552,41	1282,03
552,60	1222,64
552,80	1343,47
553,00	1241,07
553,19	1249,26
553,39	1355,76
553,59	1255,40
553,78	1308,65
553,98	1292,27
554,17	1245,16
554,37	1214,45
554,57	1222,64
554,76	1265,64
554,96	1292,27
555,16	1282,03
555,35	1331,18
555,55	1294,32
555,75	1308,65
555,94	1296,36
556,14	1294,32
556,33	1212,40
556,53	1210,35
556,73	1239,02
556,92	1247,21
557,12	1277,93
557,32	1290,22
557,51	1312,75
557,71	1286,12
557,90	1310,70
558,10	1294,32
558,30	1306,60
558,49	1277,93
558,69	1228,78
558,88	1243,12
559,08	1275,88
559,28	1267,69
559,47	1292,27
559,67	1286,12
559,86	1312,75
560,06	1300,46
560,26	1306,60
560,45	1269,74
560,65	1189,87
560,84	1265,64
561,04	1322,99
561,24	1236,97
561,43	1302,51
561,63	1273,84
561,82	1304,56
562,02	1292,27
562,22	1282,03
562,41	1214,45
562,61	1292,27
562,80	1298,41
563,00	1306,60
563,19	1255,40
563,39	1263,60
563,59	1286,12
563,78	1243,12
563,98	1282,03
564,17	1263,60
564,37	1304,56
564,56	1265,64
564,76	1275,88
564,96	1251,31
565,15	1239,02
565,35	1257,45
565,54	1306,60
565,74	1245,16
565,93	1265,64
566,13	1269,74
566,32	1290,22
566,52	1306,60
566,71	1271,79
566,91	1210,35
567,11	1251,31
567,30	1257,45
567,50	1220,59
567,69	1232,88
567,89	1249,26
568,08	1245,16
568,28	1183,73
568,47	1282,03
568,67	1214,45
568,86	1251,31
569,06	1216,49
569,25	1224,69
569,45	1224,69
569,64	1216,49
569,84	1308,65
570,04	1191,92
570,23	1288,17
570,43	1292,27
570,62	1222,64
570,82	1263,60
571,01	1230,83
571,21	1228,78
571,40	1327,08
571,60	1273,84
571,79	1273,84
571,99	1212,40
572,18	1290,22
572,38	1210,35
572,57	1271,79
572,77	1247,21
572,96	1251,31
573,16	1314,80
573,35	1300,46
573,55	1263,60
573,74	1271,79
573,94	1282,03
574,13	1222,64
574,33	1286,12
574,52	1228,78
574,71	1196,01
574,91	1277,93
575,10	1187,82
575,30	1239,02
575,49	1232,88
575,69	1271,79
575,88	1224,69
576,08	1284,08
576,27	1241,07
576,47	1294,32
576,66	1345,52
576,86	1282,03
577,05	1275,88
577,25	1277,93
577,44	1378,28
577,64	1312,75
577,83	1234,93
578,02	1298,41
578,22	1318,89
578,41	1304,56
578,61	1288,17
578,80	1347,56
579,00	1193,97
579,19	1279,98
579,39	1263,60
579,58	1261,55
579,77	1261,55
579,97	1232,88
580,16	1306,60
580,36	1296,36
580,55	1271,79
580,75	1232,88
580,94	1271,79
581,13	1198,06
581,33	1273,84
581,52	1255,40
581,72	1265,64
581,91	1277,93
582,11	1355,76
582,30	1302,51
582,49	1196,01
582,69	1275,88
582,88	1290,22
583,08	1259,50
583,27	1290,22
583,47	1257,45
583,66	1208,30
583,85	1341,42
584,05	1327,08
584,24	1277,93
584,44	1312,75
584,63	1232,88
584,82	1304,56
585,02	1175,53
585,21	1298,41
585,41	1308,65
585,60	1286,12
585,79	1263,60
585,99	1279,98
586,18	1253,36
586,37	1339,37
586,57	1234,93
586,76	1325,04
586,96	1232,88
587,15	1241,07
587,34	1171,44
587,54	1208,30
587,73	1269,74
587,93	1193,97
588,12	1189,87
588,31	1253,36
588,51	1249,26
588,70	1261,55
588,89	1290,22
589,09	1214,45
589,28	1298,41
589,47	1198,06
589,67	1314,80
589,86	1210,35
590,06	1277,93
590,25	1249,26
590,44	1335,28
590,64	1236,97
590,83	1294,32
591,02	1185,77
591,22	1179,63
591,41	1247,21
591,60	1226,73
591,80	1322,99
591,99	1234,93
592,18	1255,40
592,38	1200,11
592,57	1292,27
592,76	1208,30
592,96	1316,84
593,15	1189,87
593,34	1253,36
593,54	1236,97
593,73	1212,40
593,92	1249,26
594,12	1273,84
594,31	1282,03
594,50	1279,98
594,70	1282,03
594,89	1263,60
595,08	1286,12
595,28	1296,36
595,47	1292,27
595,66	1247,21
595,86	1263,60
596,05	1271,79
596,24	1255,40
596,43	1257,45
596,63	1271,79
596,82	1298,41
597,01	1279,98
597,21	1322,99
597,40	1331,18
597,59	1134,57
597,79	1339,37
597,98	1245,16
598,17	1271,79
598,36	1306,60
598,56	1247,21
598,75	1288,17
598,94	1277,93
599,14	1284,08
599,33	1193,97
599,52	1249,26
599,71	1257,45
599,91	1222,64
600,10	1253,36
600,29	1232,88
600,48	1261,55
600,68	1255,40
600,87	1298,41
601,06	1259,50
601,26	1210,35
601,45	1341,42
601,64	1300,46
601,83	1257,45
602,03	1259,50
602,22	1286,12
602,41	1257,45
602,60	1216,49
602,80	1312,75
602,99	1245,16
603,18	1263,60
603,37	1310,70
603,57	1288,17
603,76	1288,17
603,95	1267,69
604,14	1216,49
604,34	1187,82
604,53	1249,26
604,72	1243,12
604,91	1339,37
605,10	1241,07
605,30	1290,22
605,49	1284,08
605,68	1275,88
605,87	1206,25
606,07	1228,78
606,26	1296,36
606,45	1273,84
606,64	1282,03
606,84	1267,69
607,03	1318,89
607,22	1263,60
607,41	1292,27
607,60	1261,55
607,80	1298,41
607,99	1226,73
608,18	1269,74
608,37	1286,12
608,56	1245,16
608,76	1290,22
608,95	1273,84
609,14	1234,93
609,33	1193,97
609,52	1282,03
609,72	1325,04
609,91	1277,93
610,10	1245,16
610,29	1361,90
610,48	1245,16
610,68	1210,35
610,87	1314,80
611,06	1214,45
611,25	1247,21
611,44	1275,88
611,63	1271,79
611,83	1282,03
612,02	1263,60
612,21	1208,30
612,40	1271,79
612,59	1198,06
612,79	1279,98
612,98	1232,88
613,17	1259,50
613,36	1306,60
613,55	1247,21
613,74	1265,64
613,93	1275,88
614,13	1329,13
614,32	1222,64
614,51	1239,02
614,70	1294,32
614,89	1216,49
615,08	1290,22
615,28	1296,36
615,47	1226,73
615,66	1232,88
615,85	1212,40
616,04	1216,49
616,23	1267,69
616,42	1249,26
616,62	1302,51
616,81	1202,16
617,00	1251,31
617,19	1327,08
617,38	1304,56
617,57	1277,93
617,76	1265,64
617,95	1212,40
618,15	1208,30
618,34	1292,27
618,53	1345,52
618,72	1273,84
618,91	1261,55
619,10	1279,98
619,29	1267,69
619,48	1222,64
619,68	1224,69
619,87	1212,40
620,06	1284,08
620,25	1267,69
620,44	1298,41
620,63	1284,08
620,82	1232,88
621,01	1304,56
621,20	1210,35
621,39	1216,49
621,59	1277,93
621,78	1282,03
621,97	1288,17
622,16	1298,41
622,35	1210,35
622,54	1320,94
622,73	1208,30
622,92	1284,08
623,11	1249,26
623,30	1218,54
623,49	1241,07
623,68	1269,74
623,88	1245,16
624,07	1245,16
624,26	1304,56
624,45	1228,78
624,64	1241,07
624,83	1292,27
625,02	1263,60
625,21	1312,75
625,40	1290,22
625,59	1316,84
625,78	1322,99
625,97	1232,88
626,16	1386,47
626,35	1316,84
626,54	1279,98
626,74	1251,31
626,93	1202,16
627,12	1359,85
627,31	1353,71
627,50	1296,36
627,69	1263,60
627,88	1282,03
628,07	1249,26
628,26	1267,69
628,45	1214,45
628,64	1294,32
628,83	1257,45
629,02	1282,03
629,21	1277,93
629,40	1275,88
629,59	1265,64
629,78	1257,45
629,97	1306,60
630,16	1312,75
630,35	1200,11
630,54	1302,51
630,73	1320,94
630,92	1273,84
631,11	1284,08
631,30	1284,08
631,49	1374,19
631,68	1703,91
631,87	2179,04
632,06	3471,31
632,25	4569,02
632,44	6950,81
632,63	11935,56
632,82	18487,01
633,01	14561,06
633,20	6758,30
633,39	3768,26
633,58	2576,34
633,77	2168,80
633,96	1927,14
634,15	1785,83
634,34	1740,77
634,53	1507,30
634,72	1554,41
634,91	1482,73
635,10	1472,49
635,29	1423,34
635,48	1404,91
635,67	1433,58
635,86	1423,34
636,05	1331,18
636,24	1394,67
636,43	1427,43
636,62	1271,79
636,81	1372,14
637,00	1355,76
637,19	1355,76
637,38	1341,42
637,57	1284,08
637,76	1282,03
637,95	1402,86
638,14	1322,99
638,33	1302,51
638,52	1290,22
638,71	1257,45
638,89	1318,89
639,08	1298,41
639,27	1327,08
639,46	1300,46
639,65	1279,98
639,84	1347,56
640,03	1257,45
640,22	1243,12
640,41	1251,31
640,60	1314,80
640,79	1320,94
640,98	1312,75
641,17	1304,56
641,36	1294,32
641,55	1284,08
641,74	1214,45
641,92	1298,41
642,11	1232,88
642,30	1230,83
642,49	1259,50
642,68	1290,22
642,87	1253,36
643,06	1292,27
643,25	1310,70
643,44	1206,25
643,63	1312,75
643,82	1220,59
644,00	1290,22
644,19	1325,04
644,38	1269,74
644,57	1267,69
644,76	1302,51
644,95	1214,45
645,14	1259,50
645,33	1261,55
645,52	1269,74
645,71	1228,78
645,89	1261,55
646,08	1279,98
646,27	1271,79
646,46	1329,13
646,65	1267,69
646,84	1304,56
647,03	1222,64
647,22	1243,12
647,40	1271,79
647,59	1241,07
647,78	1255,40
647,97	1241,07
648,16	1363,95
648,35	1337,32
648,54	1366,00
648,73	1294,32
648,91	1269,74
649,10	1306,60
649,29	1212,40
649,48	1265,64
649,67	1288,17
649,86	1230,83
650,05	1271,79
650,23	1173,49
650,42	1320,94
650,61	1175,53
650,80	1290,22
650,99	1279,98
651,18	1271,79
651,36	1230,83
651,55	1243,12
651,74	1265,64
651,93	1257,45
652,12	1298,41
652,31	1259,50
652,49	1247,21
652,68	1329,13
652,87	1236,97
653,06	1245,16
653,25	1253,36
653,44	1259,50
653,62	1306,60
653,81	1212,40
654,00	1304,56
654,19	1265,64
654,38	1284,08
654,56	1267,69
654,75	1193,97
654,94	1249,26
655,13	1247,21
655,32	1284,08
655,51	1261,55
655,69	1253,36
655,88	1261,55
656,07	1325,04
656,26	1232,88
656,45	1204,21
656,63	1234,93
656,82	1245,16
657,01	1343,47
657,20	1241,07
657,38	1306,60
657,57	1277,93
657,76	1253,36
657,95	1232,88
658,14	1236,97
658,32	1308,65
658,51	1259,50
658,70	1185,77
658,89	1277,93
659,08	1314,80
659,26	1343,47
659,45	1249,26
659,64	1232,88
659,83	1308,65
660,01	1269,74
660,20	1261,55
660,39	1245,16
660,58	1255,40
660,76	1372,14
660,95	1306,60
661,14	1261,55
661,33	1253,36
661,51	1247,21
661,70	1251,31
661,89	1288,17
662,08	1245,16
662,26	1269,74
662,45	1304,56
662,64	1273,84
662,83	1290,22
663,01	1273,84
663,20	1228,78
663,39	1322,99
663,58	1269,74
663,76	1236,97
663,95	1267,69
664,14	1247,21
664,32	1314,80
664,51	1241,07
664,70	1322,99
664,89	1277,93
665,07	1271,79
665,26	1271,79
665,45	1316,84
665,64	1298,41
665,82	1310,70
666,01	1294,32
666,20	1200,11
666,38	1300,46
666,57	1214,45
666,76	1288,17
666,95	1265,64
667,13	1290,22
667,32	1243,12
667,51	1273,84
667,69	1236,97
667,88	1232,88
668,07	1273,84
668,25	1222,64
668,44	1320,94
668,63	1251,31
668,81	1316,84
669,00	1294,32
669,19	1267,69
669,38	1187,82
669,56	1212,40
669,75	1222,64
669,94	1263,60
670,12	1257,45
670,31	1245,16
670,50	1255,40
670,68	1249,26
670,87	1355,76
671,06	1325,04
671,24	1286,12
671,43	1210,35
671,62	1216,49
671,80	1259,50
671,99	1284,08
672,18	1245,16
672,36	1259,50
672,55	1232,88
672,74	1312,75
672,92	1282,03
673,11	1255,40
673,29	1273,84
673,48	1249,26
673,67	1241,07
673,85	1249,26
674,04	1277,93
674,23	1325,04
674,41	1253,36
674,60	1222,64
674,79	1175,53
674,97	1212,40
675,16	1288,17
675,34	1212,40
675,53	1353,71
675,72	1255,40
675,90	1271,79
676,09	1241,07
676,28	1273,84
676,46	1247,21
676,65	1273,84
676,83	1200,11
677,02	1208,30
677,21	1306,60
677,39	1304,56
677,58	1193,97
677,77	1259,50
677,95	1273,84
678,14	1304,56
678,32	1232,88
678,51	1218,54
678,70	1279,98
678,88	1243,12
679,07	1206,25
679,25	1296,36
679,44	1273,84
679,63	1269,74
679,81	1224,69
680,00	1224,69
680,18	1265,64
680,37	1261,55
680,55	1267,69
680,74	1290,22
680,93	1296,36
681,11	1253,36
681,30	1290,22
681,48	1234,93
681,67	1265,64
681,85	1273,84
682,04	1279,98
682,23	1228,78
682,41	1265,64
682,60	1304,56
682,78	1230,83
682,97	1282,03
683,15	1224,69
683,34	1267,69
683,53	1249,26
683,71	1241,07
683,90	1290,22
684,08	1220,59
684,27	1253,36
684,45	1339,37
684,64	1220,59
684,82	1263,60
685,01	1320,94
685,19	1265,64
685,38	1249,26
685,57	1331,18
685,75	1212,40
685,94	1193,97
686,12	1257,45
686,31	1275,88
686,49	1296,36
686,68	1267,69
686,86	1290,22
687,05	1261,55
687,23	1286,12
687,42	1241,07
687,60	1304,56
687,79	1290,22
687,97	1316,84
688,16	1288,17
688,34	1273,84
688,53	1230,83
688,71	1222,64
688,90	1183,73
689,08	1265,64
689,27	1288,17
689,45	1296,36
689,64	1236,97
689,82	1202,16
690,01	1312,75
690,19	1284,08
690,38	1228,78
690,56	1265,64
690,75	1249,26
690,93	1220,59
691,12	1214,45
691,30	1279,98
691,49	1284,08
691,67	1263,60
691,86	1239,02
692,04	1216,49
692,23	1257,45
692,41	1265,64
692,60	1255,40
692,78	1259,50
692,97	1298,41
693,15	1239,02
693,34	1271,79
693,52	1265,64
693,71	1343,47
693,89	1253,36
694,08	1284,08
694,26	1232,88
694,44	1282,03
694,63	1302,51
694,81	1257,45
695,00	1296,36
695,18	1245,16
695,37	1243,12
695,55	1210,35
695,74	1257,45
695,92	1318,89
696,10	1232,88
696,29	1257,45
696,47	1239,02
696,66	1269,74
696,84	1245,16
697,03	1296,36
697,21	1327,08
697,40	1310,70
697,58	1372,14
697,76	1251,31
697,95	1249,26
698,13	1251,31
698,32	1239,02
698,50	1253,36
698,68	1249,26
698,87	1286,12
699,05	1245,16
699,24	1218,54
699,42	1277,93
699,61	1300,46
699,79	1241,07
699,97	1271,79
700,16	1339,37
700,34	1228,78
700,53	1300,46
700,71	1239,02
700,89	1308,65
701,08	1279,98
701,26	1232,88
701,45	1247,21
701,63	1282,03
701,81	1216,49
702,00	1216,49
702,18	1259,50
702,37	1243,12
702,55	1296,36
702,73	1275,88
702,92	1243,12
703,10	1282,03
703,28	1206,25
703,47	1279,98
703,65	1279,98
703,84	1322,99
704,02	1257,45
704,20	1263,60
704,39	1214,45
704,57	1261,55
704,75	1222,64
704,94	1341,42
705,12	1210,35
705,30	1249,26
705,49	1273,84
705,67	1241,07
705,86	1304,56
706,04	1302,51
706,22	1247,21
706,41	1232,88
706,59	1253,36
706,77	1255,40
706,96	1243,12
707,14	1212,40
707,32	1296,36
707,51	1271,79
707,69	1282,03
707,87	1343,47
708,06	1263,60
708,24	1304,56
708,42	1269,74
708,61	1265,64
708,79	1277,93
708,97	1288,17
709,16	1265,64
709,34	1347,56
709,52	1288,17
709,71	1265,64
709,89	1286,12
710,07	1288,17
710,26	1257,45
710,44	1279,98
710,62	1239,02
710,80	1318,89
710,99	1241,07
711,17	1271,79
711,35	1255,40
711,54	1347,56
711,72	1282,03
711,90	1261,55
712,09	1279,98
712,27	1239,02
712,45	1269,74
712,63	1206,25
712,82	1284,08
713,00	1243,12
713,18	1294,32
713,37	1357,80
713,55	1208,30
713,73	1232,88
713,91	1273,84
714,10	1249,26
714,28	1308,65
714,46	1288,17
714,65	1331,18
714,83	1263,60
715,01	1302,51
715,19	1279,98
715,38	1290,22
715,56	1253,36
715,74	1257,45
715,92	1269,74
716,11	1230,83
716,29	1234,93
716,47	1226,73
716,65	1220,59
716,84	1206,25
717,02	1259,50
717,20	1241,07
717,38	1298,41
717,57	1243,12
717,75	1298,41
717,93	1230,83
718,11	1290,22
718,30	1314,80
718,48	1314,80
718,66	1322,99
718,84	1267,69
719,03	1318,89
719,21	1259,50
719,39	1239,02
719,57	1241,07
719,75	1286,12
719,94	1286,12
720,12	1187,82
720,30	1267,69
720,48	1261,55
720,67	1202,16
720,85	1212,40
721,03	1322,99
721,21	1251,31
721,39	1322,99
721,58	1175,53
721,76	1279,98
721,94	1202,16
722,12	1294,32
722,30	1282,03
722,49	1202,16
722,67	1232,88
722,85	1187,82
723,03	1218,54
723,21	1275,88
723,40	1300,46
723,58	1277,93
723,76	1275,88
723,94	1220,59
724,12	1222,64
724,30	1265,64
724,49	1181,68
724,67	1320,94
724,85	1277,93
725,03	1230,83
725,21	1284,08
725,40	1302,51
725,58	1212,40
725,76	1255,40
725,94	1243,12
726,12	1206,25
726,30	1239,02
726,49	1224,69
726,67	1271,79
726,85	1179,63
727,03	1200,11
727,21	1265,64
727,39	1243,12
727,57	1292,27
727,76	1314,80
727,94	1204,21
728,12	1290,22
728,30	1214,45
728,48	1173,49
728,66	1265,64
728,84	1298,41
729,03	1368,04
729,21	1241,07
729,39	1279,98
729,57	1193,97
729,75	1222,64
729,93	1243,12
730,11	1232,88
730,30	1300,46
730,48	1298,41
730,66	1208,30
730,84	1333,23
731,02	1224,69
731,20	1241,07
731,38	1212,40
731,56	1363,95
731,74	1275,88
731,93	1279,98
732,11	1286,12
732,29	1271,79
732,47	1204,21
732,65	1200,11
732,83	1249,26
733,01	1247,21
733,19	1275,88
733,37	1226,73
733,56	1277,93
733,74	1322,99
733,92	1230,83
734,10	1380,33
734,28	1273,84
734,46	1288,17
734,64	1320,94
734,82	1273,84
735,00	1253,36
735,18	1296,36
735,36	1239,02
735,54	1269,74
735,73	1271,79
735,91	1267,69
736,09	1277,93
736,27	1284,08
736,45	1263,60
736,63	1222,64
736,81	1331,18
736,99	1329,13
737,17	1216,49
737,35	1212,40
737,53	1292,27
737,71	1271,79
737,89	1298,41
738,07	1279,98
738,25	1284,08
738,43	1284,08
738,61	1228,78
738,80	1296,36
738,98	1255,40
739,16	1234,93
739,34	1288,17
739,52	1241,07
739,70	1236,97
739,88	1267,69
740,06	1265,64
740,24	1241,07
740,42	1247,21
740,60	1337,32
740,78	1314,80
740,96	1279,98
741,14	1290,22
741,32	1304,56
741,50	1312,75
741,68	1204,21
741,86	1322,99
742,04	1306,60
742,22	1273,84
742,40	1222,64
742,58	1261,55
742,76	1306,60
742,94	1271,79
743,12	1239,02
743,30	1292,27
743,48	1273,84
743,66	1243,12
743,84	1290,22
744,02	1247,21
744,20	1322,99
744,38	1193,97
744,56	1318,89
744,74	1259,50
744,92	1304,56
745,10	1284,08
745,28	1255,40
745,46	1263,60
745,64	1294,32
745,82	1271,79
746,00	1271,79
746,18	1212,40
746,36	1251,31
746,54	1216,49
746,72	1265,64
746,90	1243,12
747,08	1239,02
747,26	1355,76
747,44	1292,27
747,62	1210,35
747,80	1243,12
747,98	1406,95
748,15	1273,84
748,33	1275,88
748,51	1329,13
748,69	1314,80
748,87	1273,84
749,05	1251,31
749,23	1232,88
749,41	1327,08
749,59	1265,64
749,77	1239,02
749,95	1265,64
750,13	1269,74
750,31	1220,59
750,49	1318,89
750,67	1261,55
750,85	1206,25
751,03	1271,79
751,20	1257,45
751,38	1245,16
751,56	1259,50
751,74	1224,69
751,92	1273,84
752,10	1279,98
752,28	1263,60
752,46	1271,79
752,64	1277,93
752,82	1304,56
753,00	1241,07
753,18	1261,55
753,35	1279,98
753,53	1290,22
753,71	1253,36
753,89	1245,16
754,07	1245,16
754,25	1261,55
754,43	1320,94
754,61	1298,41
754,79	1296,36
754,97	1312,75
755,14	1325,04
755,32	1249,26
755,50	1318,89
755,68	1230,83
755,86	1255,40
756,04	1247,21
756,22	1249,26
756,40	1290,22
756,57	1255,40
756,75	1279,98
756,93	1298,41
757,11	1218,54
757,29	1259,50
757,47	1265,64
757,65	1269,74
757,82	1282,03
758,00	1314,80
758,18	1245,16
758,36	1277,93
758,54	1196,01
758,72	1279,98
758,90	1275,88
759,07	1210,35
759,25	1187,82
759,43	1247,21
759,61	1288,17
759,79	1277,93
759,97	1294,32
760,15	1259,50
760,32	1234,93
760,50	1312,75
760,68	1286,12
760,86	1333,23
761,04	1259,50
761,22	1304,56
761,39	1320,94
761,57	1318,89
761,75	1253,36
761,93	1214,45
762,11	1271,79
762,28	1222,64
762,46	1296,36
762,64	1259,50
762,82	1282,03
763,00	1245,16
763,18	1279,98
763,35	1269,74
763,53	1255,40
763,71	1329,13
763,89	1279,98
764,07	1271,79
764,24	1296,36
764,42	1273,84
764,60	1204,21
764,78	1202,16
764,96	1185,77
765,13	1282,03
765,31	1333,23
765,49	1232,88
765,67	1249,26
765,84	1294,32
766,02	1298,41
766,20	1179,63
766,38	1296,36
766,56	1370,09
766,73	1241,07
766,91	1325,04
767,09	1202,16
767,27	1300,46
767,44	1288,17
767,62	1269,74
767,80	1257,45
767,98	1351,66
768,15	1288,17
768,33	1257,45
768,51	1222,64
768,69	1226,73
768,87	1288,17
769,04	1282,03
769,22	1341,42
769,40	1345,52
769,58	1243,12
769,75	1226,73
769,93	1265,64
770,11	1273,84
770,28	1329,13
770,46	1247,21
770,64	1259,50
770,82	1241,07
770,99	1288,17
771,17	1245,16
771,35	1331,18
771,53	1239,02
771,70	1312,75
771,88	1239,02
772,06	1224,69
772,23	1271,79
772,41	1269,74
772,59	1271,79
772,77	1236,97
772,94	1222,64
773,12	1259,50
773,30	1241,07
773,47	1345,52
773,65	1304,56
773,83	1275,88
774,01	1271,79
774,18	1318,89
774,36	1282,03
774,54	1271,79
774,71	1275,88
774,89	1245,16
775,07	1284,08
775,24	1271,79
775,42	1239,02
775,60	1247,21
775,78	1243,12
775,95	1271,79
776,13	1298,41
776,31	1226,73
776,48	1220,59
776,66	1234,93
776,84	1282,03
777,01	1241,07
777,19	1271,79
777,37	1187,82
777,54	1251,31
777,72	1241,07
777,90	1269,74
778,07	1286,12
778,25	1232,88
778,43	1259,50
778,60	1290,22
778,78	1202,16
778,96	1269,74
779,13	1269,74
779,31	1300,46
779,49	1193,97
779,66	1298,41
779,84	1282,03
780,01	1257,45
780,19	1239,02
780,37	1318,89
780,54	1308,65
780,72	1347,56
780,90	1257,45
781,07	1320,94
781,25	1214,45
781,43	1198,06
781,60	1286,12
781,78	1337,32
781,95	1230,83
782,13	1279,98
782,31	1312,75
782,48	1314,80
782,66	1236,97
782,83	1249,26
783,01	1232,88
783,19	1224,69
783,36	1245,16
783,54	1218,54
783,72	1363,95
783,89	1234,93
784,07	1306,60
784,24	1271,79
784,42	1249,26
784,60	1249,26
784,77	1300,46
784,95	1314,80
785,12	1175,53
785,30	1251,31
785,47	1228,78
785,65	1239,02
785,83	1284,08
786,00	1222,64
786,18	1239,02
786,35	1269,74
786,53	1290,22
786,71	1284,08
786,88	1232,88
787,06	1220,59
787,23	1296,36
787,41	1222,64
787,58	1245,16
787,76	1245,16
787,94	1259,50
788,11	1273,84
788,29	1269,74
788,46	1279,98
788,64	1247,21
788,81	1290,22
788,99	1263,60
789,16	1265,64
789,34	1239,02
789,52	1269,74
789,69	1228,78
789,87	1277,93
790,04	1290,22
790,22	1220,59
790,39	1257,45
790,57	1212,40
790,74	1275,88
790,92	1304,56
791,09	1259,50
791,27	1236,97
791,44	1279,98
791,62	1261,55
791,79	1345,52
791,97	1210,35
792,15	1316,84
792,32	1290,22
792,50	1216,49
792,67	1316,84
792,85	1292,27
793,02	1251,31
793,20	1290,22
793,37	1304,56
793,55	1275,88
793,72	1286,12
793,90	1277,93
794,07	1226,73
794,25	1247,21
794,42	1290,22
794,60	1245,16
794,77	1224,69
794,95	1222,64
795,12	1239,02
795,30	1175,53
795,47	1335,28
795,65	1208,30
795,82	1243,12
796,00	1257,45
796,17	1206,25
796,34	1277,93
796,52	1275,88
796,69	1245,16
796,87	1247,21
797,04	1196,01
797,22	1296,36
797,39	1333,23
797,57	1212,40
797,74	1327,08
797,92	1232,88
798,09	1279,98
798,27	1308,65
798,44	1265,64
798,62	1282,03
798,79	1251,31
798,96	1273,84
799,14	1249,26
799,31	1314,80
799,49	1206,25
799,66	1230,83
799,84	1220,59
800,01	1245,16
800,19	1239,02
800,36	1243,12
800,53	1214,45
800,71	1296,36
800,88	1259,50
801,06	1191,92
801,23	1267,69
801,41	1226,73
801,58	1308,65
801,75	1312,75
801,93	1165,29
802,10	1286,12
802,28	1284,08
802,45	1191,92
802,63	1257,45
802,80	1259,50
802,97	1232,88
803,15	1216,49
803,32	1251,31
803,50	1298,41
803,67	1198,06
803,84	1228,78
804,02	1308,65
804,19	1232,88
804,37	1263,60
804,54	1273,84
804,71	1265,64
804,89	1302,51
805,06	1257,45
805,24	1259,50
805,41	1302,51
805,58	1236,97
805,76	1286,12
805,93	1302,51
806,10	1288,17
806,28	1265,64
806,45	1279,98
806,63	1296,36
806,80	1210,35
806,97	1282,03
807,15	1261,55
807,32	1261,55
807,49	1310,70
807,67	1265,64
807,84	1171,44
808,01	1277,93
808,19	1222,64
808,36	1273,84
808,54	1306,60
808,71	1294,32
808,88	1279,98
809,06	1282,03
809,23	1232,88
809,40	1341,42
809,58	1314,80
809,75	1269,74
809,92	1255,40
810,10	1253,36
810,27	1282,03
810,44	1269,74
810,62	1243,12
810,79	1284,08
810,96	1290,22
811,14	1218,54
811,31	1263,60
811,48	1232,88
811,66	1230,83
811,83	1275,88
812,00	1304,56
812,18	1261,55
812,35	1224,69
812,52	1253,36
812,69	1251,31
812,87	1269,74
813,04	1163,25
813,21	1331,18
813,39	1257,45
813,56	1257,45
813,73	1267,69
813,91	1290,22
814,08	1247,21
814,25	1288,17
814,42	1243,12
814,60	1222,64
814,77	1220,59
814,94	1236,97
815,12	1300,46
815,29	1298,41
815,46	1220,59
815,63	1298,41
815,81	1247,21
815,98	1312,75
816,15	1263,60
816,33	1239,02
816,50	1212,40
816,67	1241,07
816,84	1265,64
817,02	1306,60
817,19	1288,17
817,36	1282,03
817,53	1284,08
817,71	1290,22
817,88	1245,16
818,05	1234,93
818,22	1275,88
818,40	1257,45
818,57	1243,12
818,74	1282,03
818,91	1228,78
819,09	1234,93
819,26	1259,50
819,43	1282,03
819,60	1304,56
819,78	1267,69
819,95	1263,60
820,12	1255,40
820,29	1226,73
820,47	1241,07
820,64	1239,02
820,81	1325,04
820,98	1220,59
821,15	1263,60
821,33	1361,90
821,50	1218,54
821,67	1249,26
821,84	1251,31
822,02	1288,17
822,19	1296,36
822,36	1249,26
822,53	1212,40
822,70	1253,36
822,88	1271,79
823,05	1232,88
823,22	1222,64
823,39	1263,60
823,56	1327,08
823,74	1267,69
823,91	1298,41
824,08	1327,08
824,25	1298,41
824,42	1347,56
824,60	1341,42
824,77	1239,02
824,94	1236,97
825,11	1230,83
825,28	1216,49
825,45	1263,60
825,63	1302,51
825,80	1222,64
825,97	1302,51
826,14	1257,45
826,31	1210,35
826,48	1241,07
826,66	1206,25
826,83	1288,17
827,00	1263,60
827,17	1228,78
827,34	1269,74
827,51	1298,41
827,69	1257,45
827,86	1316,84
828,03	1208,30
828,20	1222,64
828,37	1234,93
828,54	1230,83
828,71	1314,80
828,89	1247,21
829,06	1271,79
829,23	1259,50
829,40	1230,83
829,57	1257,45
829,74	1228,78
829,91	1257,45
830,09	1275,88
830,26	1296,36
830,43	1271,79
830,60	1257,45
830,77	1318,89
830,94	1314,80
831,11	1304,56
831,28	1247,21
831,46	1196,01
831,63	1267,69
831,80	1220,59
831,97	1296,36
832,14	1257,45
832,31	1275,88
832,48	1239,02
832,65	1208,30
832,82	1284,08
832,99	1196,01
833,17	1206,25
833,34	1226,73
833,51	1286,12
833,68	1253,36
833,85	1314,80
834,02	1236,97
834,19	1214,45
834,36	1245,16
834,53	1200,11
834,70	1335,28
834,87	1316,84
835,04	1314,80
835,22	1290,22
835,39	1298,41
835,56	1282,03
835,73	1286,12
835,90	1259,50
836,07	1230,83
836,24	1220,59
836,41	1212,40
836,58	1230,83
836,75	1253,36
836,92	1198,06
837,09	1239,02
837,26	1218,54
837,43	1193,97
837,60	1312,75
837,77	1196,01
837,94	1298,41
838,12	1296,36
838,29	1226,73
838,46	1230,83
838,63	1275,88
838,80	1230,83
838,97	1206,25
839,14	1308,65
839,31	1239,02
839,48	1239,02
839,65	1320,94
839,82	1271,79
839,99	1261,55
840,16	1314,80
840,33	1314,80
840,50	1198,06
840,67	1259,50
840,84	1265,64
841,01	1298,41
841,18	1234,93
841,35	1222,64
841,52	1327,08
841,69	1224,69
841,86	1290,22
842,03	1273,84
842,20	1198,06
842,37	1300,46
842,54	1302,51
842,71	1263,60
842,88	1335,28
843,05	1226,73
843,22	1245,16
843,39	1243,12
843,56	1189,87
843,73	1277,93
843,90	1259,50
844,07	1318,89
844,24	1259,50
844,41	1333,23
844,58	1251,31
844,75	1214,45
844,92	1249,26
845,09	1200,11
845,26	1259,50
845,43	1204,21
845,60	1243,12
845,77	1255,40
845,94	1296,36
846,10	1292,27
846,27	1300,46
846,44	1271,79
846,61	1181,68
846,78	1249,26
846,95	1241,07
847,12	1261,55
847,29	1275,88
847,46	1239,02
847,63	1282,03
847,80	1261,55
847,97	1273,84
848,14	1292,27
848,31	1220,59
848,48	1263,60
848,65	1271,79
848,82	1232,88
848,98	1290,22
849,15	1353,71
849,32	1320,94
849,49	1312,75
849,66	1331,18
849,83	1239,02
850,00	1286,12
850,17	1218,54
850,34	1273,84
850,51	1249,26
850,68	1253,36
850,85	1150,96
851,01	1277,93
851,18	1204,21
851,35	1249,26
851,52	1284,08
851,69	1296,36
851,86	1279,98
852,03	1279,98
852,20	1208,30
852,37	1273,84
852,53	1282,03
852,70	1196,01
852,87	1202,16
853,04	1286,12
853,21	1288,17
853,38	1202,16
853,55	1290,22
853,72	1327,08
853,89	1320,94
854,05	1226,73
854,22	1300,46
854,39	1239,02
854,56	1286,12
854,73	1355,76
854,90	1282,03
855,07	1193,97
855,23	1269,74
855,40	1247,21
855,57	1302,51
855,74	1279,98
855,91	1351,66
856,08	1286,12
856,25	1228,78
856,41	1277,93
856,58	1277,93
856,75	1284,08
856,92	1277,93
857,09	1269,74
857,26	1191,92
857,42	1247,21
857,59	1306,60
857,76	1335,28
857,93	1302,51
858,10	1314,80
858,27	1234,93
858,43	1259,50
858,60	1271,79
858,77	1245,16
858,94	1320,94
859,11	1318,89
859,27	1269,74
859,44	1273,84
859,61	1304,56
859,78	1232,88
859,95	1245,16
860,12	1251,31
860,28	1261,55
860,45	1245,16
860,62	1191,92
860,79	1218,54
860,95	1208,30
861,12	1273,84
861,29	1222,64
861,46	1271,79
861,63	1243,12
861,79	1155,05
861,96	1230,83
862,13	1294,32
862,30	1275,88
862,47	1286,12
862,63	1243,12
862,80	1220,59
862,97	1273,84
863,14	1304,56
863,30	1335,28
863,47	1234,93
863,64	1277,93
863,81	1222,64
863,97	1286,12
864,14	1241,07
864,31	1286,12
864,48	1239,02
864,65	1273,84
864,81	1298,41
864,98	1255,40
865,15	1314,80
865,32	1239,02
865,48	1279,98
865,65	1273,84
865,82	1282,03
865,98	1220,59
866,15	1279,98
866,32	1277,93
866,49	1316,84
866,65	1290,22
866,82	1255,40
866,99	1288,17
867,16	1269,74
867,32	1277,93
867,49	1245,16
867,66	1230,83
867,83	1333,23
867,99	1239,02
868,16	1239,02
868,33	1257,45
868,49	1230,83
868,66	1284,08
868,83	1255,40
868,99	1249,26
869,16	1218,54
869,33	1247,21
869,50	1312,75
869,66	1253,36
869,83	1275,88
870,00	1245,16
870,16	1228,78
870,33	1196,01
870,50	1251,31
870,66	1255,40
870,83	1302,51
871,00	1222,64
871,17	1300,46
871,33	1234,93
871,50	1271,79
871,67	1257,45
871,83	1196,01
872,00	1243,12
872,17	1249,26
872,33	1265,64
872,50	1218,54
872,67	1279,98
872,83	1255,40
873,00	1189,87
873,17	1361,90
873,33	1241,07
873,50	1308,65
873,67	1212,40
873,83	1269,74
874,00	1310,70
874,16	1232,88
874,33	1269,74
874,50	1279,98
874,66	1241,07
874,83	1206,25
875,00	1210,35
875,16	1224,69
875,33	1218,54
875,50	1259,50
875,66	1255,40
875,83	1200,11
875,99	1279,98
876,16	1282,03
876,33	1282,03
876,49	1214,45
876,66	1288,17
876,83	1208,30
876,99	1279,98
877,16	1275,88
877,32	1232,88
877,49	1241,07
877,66	1239,02
877,82	1312,75
877,99	1222,64
878,15	1296,36
878,32	1312,75
878,49	1273,84
878,65	1142,77
878,82	1228,78
878,98	1294,32
879,15	1300,46
879,32	1257,45
879,48	1284,08
879,65	1294,32
879,81	1253,36
879,98	1263,60
880,15	1267,69
880,31	1241,07
880,48	1249,26
880,64	1298,41
880,81	1206,25
880,97	1339,37
881,14	1261,55
881,31	1271,79
881,47	1302,51
881,64	1247,21
881,80	1265,64
881,97	1255,40
882,13	1226,73
882,30	1218,54
882,47	1247,21
882,63	1269,74
882,80	1191,92
882,96	1296,36
883,13	1257,45
883,29	1269,74
883,46	1288,17
883,62	1366,00
883,79	1306,60
883,95	1304,56
884,12	1294,32
884,29	1249,26
884,45	1271,79
884,62	1366,00
884,78	1269,74
884,95	1257,45
885,11	1304,56
885,28	1259,50
885,44	1259,50
885,61	1259,50
885,77	1273,84
885,94	1212,40
886,10	1261,55
886,27	1290,22
886,43	1277,93
886,60	1218,54
886,76	1290,22
886,93	1245,16
887,09	1253,36
887,26	1198,06
887,42	1263,60
887,59	1177,58
887,75	1253,36
887,92	1282,03
888,08	1273,84
888,25	1245,16
888,41	1253,36
888,58	1308,65
888,74	1253,36
888,91	1275,88
>>>>>End Processed Spectral Data<<<<<
