SpectraSuite Data File
++++++++++++++++++++++++++++++++++++
Date: Sun Apr 03 16:45:34 CEST 2016
User: root
Dark Spectrum Present: No
Reference Spectrum Present: No
Number of Sampled Component Spectra: 1
Spectrometers: USB4C02835
Integration Time (usec): 10000 (USB4C02835)
Spectra Averaged: 1 (USB4C02835)
Boxcar Smoothing: 0 (USB4C02835)
Correct for Electrical Dark: No (USB4C02835)
Strobe/Lamp Enabled: No (USB4C02835)
Correct for Detector Non-linearity: No (USB4C02835)
Correct for Stray Light: No (USB4C02835)
Number of Pixels in Processed Spectrum: 3648
>>>>>Begin Processed Spectral Data<<<<<
177,47	1277,93
177,69	1277,93
177,91	1277,93
178,13	1232,88
178,36	1368,04
178,58	1187,82
178,80	1279,98
179,02	1302,51
179,24	1269,74
179,46	1218,54
179,68	1279,98
179,90	1206,25
180,13	1177,58
180,35	1249,26
180,57	1372,14
180,79	1249,26
181,01	1222,64
181,23	1224,69
181,45	1247,21
181,67	1286,12
181,90	1316,84
182,12	1275,88
182,34	1275,88
182,56	1249,26
182,78	1290,22
183,00	1322,99
183,22	1300,46
183,44	1226,73
183,66	1228,78
183,89	1286,12
184,11	1269,74
184,33	1331,18
184,55	1333,23
184,77	1239,02
184,99	1228,78
185,21	1298,41
185,43	1337,32
185,65	1271,79
185,87	1265,64
186,10	1312,75
186,32	1322,99
186,54	1275,88
186,76	1239,02
186,98	1236,97
187,20	1292,27
187,42	1210,35
187,64	1251,31
187,86	1216,49
188,08	1234,93
188,30	1222,64
188,52	1271,79
188,75	1308,65
188,97	1271,79
189,19	1249,26
189,41	1169,39
189,63	1300,46
189,85	1273,84
190,07	1308,65
190,29	1343,47
190,51	1312,75
190,73	1245,16
190,95	1261,55
191,17	1210,35
191,39	1269,74
191,61	1249,26
191,84	1251,31
192,06	1228,78
192,28	1241,07
192,50	1265,64
192,72	1294,32
192,94	1335,28
193,16	1277,93
193,38	1249,26
193,60	1277,93
193,82	1208,30
194,04	1265,64
194,26	1241,07
194,48	1275,88
194,70	1282,03
194,92	1331,18
195,14	1220,59
195,36	1202,16
195,58	1257,45
195,80	1185,77
196,02	1263,60
196,24	1345,52
196,46	1253,36
196,69	1241,07
196,91	1267,69
197,13	1302,51
197,35	1271,79
197,57	1302,51
197,79	1316,84
198,01	1339,37
198,23	1273,84
198,45	1243,12
198,67	1243,12
198,89	1273,84
199,11	1249,26
199,33	1230,83
199,55	1232,88
199,77	1230,83
199,99	1290,22
200,21	1261,55
200,43	1279,98
200,65	1243,12
200,87	1296,36
201,09	1306,60
201,31	1220,59
201,53	1363,95
201,75	1249,26
201,97	1347,56
202,19	1296,36
202,41	1265,64
202,63	1269,74
202,85	1222,64
203,07	1255,40
203,29	1222,64
203,51	1247,21
203,73	1191,92
203,95	1279,98
204,17	1290,22
204,39	1220,59
204,61	1212,40
204,83	1286,12
205,05	1234,93
205,27	1265,64
205,49	1318,89
205,71	1304,56
205,93	1275,88
206,15	1259,50
206,37	1243,12
206,59	1251,31
206,81	1226,73
207,03	1314,80
207,25	1253,36
207,47	1218,54
207,69	1232,88
207,91	1300,46
208,13	1284,08
208,34	1318,89
208,56	1300,46
208,78	1294,32
209,00	1327,08
209,22	1271,79
209,44	1239,02
209,66	1224,69
209,88	1249,26
210,10	1214,45
210,32	1255,40
210,54	1273,84
210,76	1249,26
210,98	1345,52
211,20	1316,84
211,42	1173,49
211,64	1212,40
211,86	1243,12
212,08	1327,08
212,30	1366,00
212,52	1302,51
212,74	1288,17
212,96	1310,70
213,17	1206,25
213,39	1173,49
213,61	1265,64
213,83	1247,21
214,05	1253,36
214,27	1253,36
214,49	1292,27
214,71	1226,73
214,93	1255,40
215,15	1302,51
215,37	1234,93
215,59	1224,69
215,81	1253,36
216,03	1253,36
216,24	1306,60
216,46	1302,51
216,68	1234,93
216,90	1241,07
217,12	1316,84
217,34	1175,53
217,56	1253,36
217,78	1290,22
218,00	1306,60
218,22	1210,35
218,44	1284,08
218,66	1329,13
218,87	1232,88
219,09	1286,12
219,31	1308,65
219,53	1298,41
219,75	1288,17
219,97	1306,60
220,19	1249,26
220,41	1241,07
220,63	1310,70
220,85	1351,66
221,06	1337,32
221,28	1288,17
221,50	1224,69
221,72	1331,18
221,94	1218,54
222,16	1236,97
222,38	1249,26
222,60	1316,84
222,82	1263,60
223,03	1220,59
223,25	1245,16
223,47	1290,22
223,69	1273,84
223,91	1202,16
224,13	1239,02
224,35	1236,97
224,57	1261,55
224,78	1257,45
225,00	1249,26
225,22	1304,56
225,44	1210,35
225,66	1277,93
225,88	1277,93
226,10	1265,64
226,32	1329,13
226,53	1304,56
226,75	1255,40
226,97	1316,84
227,19	1200,11
227,41	1222,64
227,63	1200,11
227,85	1304,56
228,06	1249,26
228,28	1232,88
228,50	1232,88
228,72	1322,99
228,94	1183,73
229,16	1228,78
229,37	1279,98
229,59	1239,02
229,81	1282,03
230,03	1275,88
230,25	1337,32
230,47	1265,64
230,69	1275,88
230,90	1296,36
231,12	1271,79
231,34	1306,60
231,56	1243,12
231,78	1267,69
232,00	1275,88
232,21	1284,08
232,43	1310,70
232,65	1271,79
232,87	1243,12
233,09	1214,45
233,30	1247,21
233,52	1224,69
233,74	1267,69
233,96	1253,36
234,18	1236,97
234,40	1263,60
234,61	1292,27
234,83	1273,84
235,05	1230,83
235,27	1277,93
235,49	1298,41
235,70	1273,84
235,92	1304,56
236,14	1257,45
236,36	1222,64
236,58	1300,46
236,79	1304,56
237,01	1259,50
237,23	1290,22
237,45	1239,02
237,67	1253,36
237,88	1271,79
238,10	1290,22
238,32	1245,16
238,54	1224,69
238,76	1351,66
238,97	1234,93
239,19	1224,69
239,41	1296,36
239,63	1318,89
239,85	1185,77
240,06	1277,93
240,28	1200,11
240,50	1269,74
240,72	1312,75
240,93	1335,28
241,15	1255,40
241,37	1265,64
241,59	1279,98
241,81	1185,77
242,02	1198,06
242,24	1230,83
242,46	1247,21
242,68	1249,26
242,89	1269,74
243,11	1310,70
243,33	1286,12
243,55	1245,16
243,76	1214,45
243,98	1267,69
244,20	1253,36
244,42	1234,93
244,64	1288,17
244,85	1300,46
245,07	1290,22
245,29	1241,07
245,51	1224,69
245,72	1210,35
245,94	1284,08
246,16	1224,69
246,38	1269,74
246,59	1214,45
246,81	1361,90
247,03	1230,83
247,24	1296,36
247,46	1236,97
247,68	1218,54
247,90	1251,31
248,11	1304,56
248,33	1282,03
248,55	1396,71
248,77	1228,78
248,98	1298,41
249,20	1212,40
249,42	1226,73
249,64	1228,78
249,85	1282,03
250,07	1239,02
250,29	1236,97
250,50	1218,54
250,72	1298,41
250,94	1243,12
251,16	1279,98
251,37	1255,40
251,59	1255,40
251,81	1222,64
252,02	1228,78
252,24	1333,23
252,46	1257,45
252,68	1261,55
252,89	1232,88
253,11	1230,83
253,33	1239,02
253,54	1279,98
253,76	1222,64
253,98	1288,17
254,20	1265,64
254,41	1263,60
254,63	1335,28
254,85	1222,64
255,06	1300,46
255,28	1312,75
255,50	1255,40
255,71	1249,26
255,93	1216,49
256,15	1255,40
256,36	1228,78
256,58	1236,97
256,80	1290,22
257,02	1292,27
257,23	1261,55
257,45	1232,88
257,67	1269,74
257,88	1296,36
258,10	1265,64
258,32	1236,97
258,53	1253,36
258,75	1314,80
258,97	1267,69
259,18	1222,64
259,40	1318,89
259,62	1257,45
259,83	1306,60
260,05	1359,85
260,27	1306,60
260,48	1243,12
260,70	1296,36
260,92	1257,45
261,13	1261,55
261,35	1245,16
261,57	1282,03
261,78	1288,17
262,00	1210,35
262,22	1241,07
262,43	1271,79
262,65	1320,94
262,86	1314,80
263,08	1263,60
263,30	1243,12
263,51	1290,22
263,73	1216,49
263,95	1214,45
264,16	1271,79
264,38	1306,60
264,60	1218,54
264,81	1204,21
265,03	1169,39
265,25	1298,41
265,46	1232,88
265,68	1269,74
265,89	1228,78
266,11	1384,43
266,33	1261,55
266,54	1269,74
266,76	1288,17
266,98	1333,23
267,19	1265,64
267,41	1308,65
267,62	1296,36
267,84	1245,16
268,06	1304,56
268,27	1265,64
268,49	1269,74
268,70	1228,78
268,92	1318,89
269,14	1292,27
269,35	1316,84
269,57	1322,99
269,79	1304,56
270,00	1198,06
270,22	1288,17
270,43	1249,26
270,65	1267,69
270,87	1198,06
271,08	1300,46
271,30	1302,51
271,51	1320,94
271,73	1300,46
271,95	1239,02
272,16	1265,64
272,38	1245,16
272,59	1193,97
272,81	1286,12
273,02	1273,84
273,24	1279,98
273,46	1282,03
273,67	1339,37
273,89	1292,27
274,10	1306,60
274,32	1308,65
274,54	1265,64
274,75	1273,84
274,97	1257,45
275,18	1251,31
275,40	1222,64
275,61	1243,12
275,83	1286,12
276,05	1275,88
276,26	1327,08
276,48	1361,90
276,69	1251,31
276,91	1200,11
277,12	1282,03
277,34	1253,36
277,55	1191,92
277,77	1286,12
277,99	1232,88
278,20	1245,16
278,42	1206,25
278,63	1210,35
278,85	1222,64
279,06	1306,60
279,28	1277,93
279,49	1259,50
279,71	1241,07
279,93	1318,89
280,14	1314,80
280,36	1247,21
280,57	1255,40
280,79	1318,89
281,00	1378,28
281,22	1314,80
281,43	1292,27
281,65	1259,50
281,86	1298,41
282,08	1275,88
282,29	1306,60
282,51	1257,45
282,73	1279,98
282,94	1284,08
283,16	1239,02
283,37	1234,93
283,59	1302,51
283,80	1282,03
284,02	1282,03
284,23	1230,83
284,45	1292,27
284,66	1298,41
284,88	1361,90
285,09	1288,17
285,31	1269,74
285,52	1304,56
285,74	1226,73
285,95	1279,98
286,17	1232,88
286,38	1286,12
286,60	1306,60
286,81	1261,55
287,03	1218,54
287,24	1282,03
287,46	1290,22
287,67	1251,31
287,89	1308,65
288,10	1284,08
288,32	1288,17
288,53	1294,32
288,75	1245,16
288,96	1265,64
289,18	1175,53
289,39	1220,59
289,61	1271,79
289,82	1185,77
290,04	1269,74
290,25	1224,69
290,47	1212,40
290,68	1304,56
290,90	1353,71
291,11	1224,69
291,33	1245,16
291,54	1239,02
291,76	1210,35
291,97	1210,35
292,18	1300,46
292,40	1253,36
292,61	1255,40
292,83	1243,12
293,04	1327,08
293,26	1230,83
293,47	1316,84
293,69	1286,12
293,90	1306,60
294,12	1314,80
294,33	1290,22
294,55	1290,22
294,76	1249,26
294,97	1212,40
295,19	1263,60
295,40	1263,60
295,62	1251,31
295,83	1277,93
296,05	1327,08
296,26	1302,51
296,48	1359,85
296,69	1239,02
296,90	1271,79
297,12	1300,46
297,33	1298,41
297,55	1286,12
297,76	1267,69
297,98	1241,07
298,19	1282,03
298,41	1212,40
298,62	1206,25
298,83	1249,26
299,05	1265,64
299,26	1277,93
299,48	1292,27
299,69	1288,17
299,90	1316,84
300,12	1224,69
300,33	1234,93
300,55	1273,84
300,76	1335,28
300,98	1286,12
301,19	1273,84
301,40	1234,93
301,62	1271,79
301,83	1228,78
302,05	1265,64
302,26	1245,16
302,47	1284,08
302,69	1251,31
302,90	1245,16
303,12	1271,79
303,33	1222,64
303,54	1275,88
303,76	1271,79
303,97	1247,21
304,19	1296,36
304,40	1222,64
304,61	1259,50
304,83	1251,31
305,04	1314,80
305,26	1273,84
305,47	1226,73
305,68	1261,55
305,90	1253,36
306,11	1230,83
306,33	1300,46
306,54	1339,37
306,75	1249,26
306,97	1255,40
307,18	1224,69
307,39	1333,23
307,61	1257,45
307,82	1306,60
308,04	1255,40
308,25	1269,74
308,46	1269,74
308,68	1308,65
308,89	1286,12
309,10	1310,70
309,32	1267,69
309,53	1259,50
309,74	1288,17
309,96	1232,88
310,17	1224,69
310,39	1257,45
310,60	1247,21
310,81	1337,32
311,03	1269,74
311,24	1320,94
311,45	1265,64
311,67	1261,55
311,88	1255,40
312,09	1259,50
312,31	1267,69
312,52	1245,16
312,73	1257,45
312,95	1249,26
313,16	1277,93
313,37	1314,80
313,59	1284,08
313,80	1290,22
314,01	1327,08
314,23	1245,16
314,44	1253,36
314,65	1210,35
314,87	1282,03
315,08	1241,07
315,29	1318,89
315,51	1261,55
315,72	1239,02
315,93	1284,08
316,15	1316,84
316,36	1239,02
316,57	1337,32
316,79	1263,60
317,00	1208,30
317,21	1261,55
317,43	1253,36
317,64	1286,12
317,85	1202,16
318,07	1226,73
318,28	1247,21
318,49	1261,55
318,70	1277,93
318,92	1312,75
319,13	1259,50
319,34	1204,21
319,56	1282,03
319,77	1177,58
319,98	1267,69
320,20	1296,36
320,41	1267,69
320,62	1230,83
320,83	1255,40
321,05	1275,88
321,26	1335,28
321,47	1261,55
321,69	1316,84
321,90	1222,64
322,11	1257,45
322,32	1263,60
322,54	1271,79
322,75	1185,77
322,96	1265,64
323,18	1271,79
323,39	1230,83
323,60	1271,79
323,81	1228,78
324,03	1322,99
324,24	1296,36
324,45	1245,16
324,66	1320,94
324,88	1234,93
325,09	1261,55
325,30	1325,04
325,52	1255,40
325,73	1269,74
325,94	1249,26
326,15	1286,12
326,37	1310,70
326,58	1277,93
326,79	1327,08
327,00	1249,26
327,22	1327,08
327,43	1304,56
327,64	1277,93
327,85	1294,32
328,07	1261,55
328,28	1267,69
328,49	1286,12
328,70	1245,16
328,92	1316,84
329,13	1290,22
329,34	1198,06
329,55	1300,46
329,76	1263,60
329,98	1251,31
330,19	1288,17
330,40	1261,55
330,61	1294,32
330,83	1224,69
331,04	1228,78
331,25	1333,23
331,46	1247,21
331,68	1292,27
331,89	1322,99
332,10	1325,04
332,31	1353,71
332,52	1261,55
332,74	1257,45
332,95	1208,30
333,16	1290,22
333,37	1269,74
333,58	1247,21
333,80	1304,56
334,01	1257,45
334,22	1228,78
334,43	1284,08
334,64	1263,60
334,86	1355,76
335,07	1341,42
335,28	1247,21
335,49	1314,80
335,70	1370,09
335,92	1239,02
336,13	1282,03
336,34	1218,54
336,55	1318,89
336,76	1282,03
336,98	1296,36
337,19	1286,12
337,40	1241,07
337,61	1222,64
337,82	1290,22
338,04	1302,51
338,25	1282,03
338,46	1282,03
338,67	1247,21
338,88	1265,64
339,09	1316,84
339,31	1247,21
339,52	1282,03
339,73	1241,07
339,94	1322,99
340,15	1282,03
340,36	1312,75
340,58	1251,31
340,79	1294,32
341,00	1345,52
341,21	1253,36
341,42	1265,64
341,63	1232,88
341,85	1249,26
342,06	1306,60
342,27	1255,40
342,48	1193,97
342,69	1302,51
342,90	1329,13
343,12	1345,52
343,33	1257,45
343,54	1249,26
343,75	1234,93
343,96	1249,26
344,17	1282,03
344,38	1239,02
344,60	1239,02
344,81	1273,84
345,02	1284,08
345,23	1286,12
345,44	1273,84
345,65	1269,74
345,86	1241,07
346,07	1261,55
346,29	1314,80
346,50	1196,01
346,71	1282,03
346,92	1282,03
347,13	1255,40
347,34	1259,50
347,55	1294,32
347,76	1263,60
347,98	1224,69
348,19	1294,32
348,40	1279,98
348,61	1288,17
348,82	1298,41
349,03	1269,74
349,24	1290,22
349,45	1263,60
349,66	1247,21
349,88	1329,13
350,09	1226,73
350,30	1243,12
350,51	1298,41
350,72	1290,22
350,93	1304,56
351,14	1282,03
351,35	1304,56
351,56	1277,93
351,77	1230,83
351,99	1327,08
352,20	1294,32
352,41	1236,97
352,62	1232,88
352,83	1282,03
353,04	1335,28
353,25	1320,94
353,46	1320,94
353,67	1292,27
353,88	1312,75
354,09	1241,07
354,30	1265,64
354,52	1318,89
354,73	1189,87
354,94	1216,49
355,15	1257,45
355,36	1202,16
355,57	1247,21
355,78	1255,40
355,99	1275,88
356,20	1302,51
356,41	1335,28
356,62	1308,65
356,83	1216,49
357,04	1200,11
357,25	1241,07
357,46	1181,68
357,68	1243,12
357,89	1290,22
358,10	1218,54
358,31	1273,84
358,52	1279,98
358,73	1236,97
358,94	1249,26
359,15	1302,51
359,36	1271,79
359,57	1296,36
359,78	1241,07
359,99	1232,88
360,20	1347,56
360,41	1200,11
360,62	1290,22
360,83	1220,59
361,04	1232,88
361,25	1298,41
361,46	1300,46
361,67	1300,46
361,88	1216,49
362,09	1261,55
362,30	1249,26
362,51	1236,97
362,72	1273,84
362,93	1257,45
363,14	1263,60
363,35	1224,69
363,56	1236,97
363,78	1224,69
363,99	1206,25
364,20	1243,12
364,41	1234,93
364,62	1247,21
364,83	1226,73
365,04	1273,84
365,25	1239,02
365,46	1290,22
365,67	1239,02
365,88	1314,80
366,09	1300,46
366,30	1243,12
366,51	1282,03
366,72	1249,26
366,93	1265,64
367,14	1265,64
367,35	1292,27
367,56	1214,45
367,77	1300,46
367,98	1216,49
368,18	1247,21
368,39	1290,22
368,60	1325,04
368,81	1263,60
369,02	1271,79
369,23	1294,32
369,44	1292,27
369,65	1267,69
369,86	1175,53
370,07	1314,80
370,28	1206,25
370,49	1282,03
370,70	1263,60
370,91	1314,80
371,12	1204,21
371,33	1288,17
371,54	1302,51
371,75	1294,32
371,96	1314,80
372,17	1267,69
372,38	1226,73
372,59	1277,93
372,80	1294,32
373,01	1339,37
373,22	1308,65
373,43	1279,98
373,64	1314,80
373,85	1257,45
374,06	1306,60
374,26	1257,45
374,47	1259,50
374,68	1265,64
374,89	1245,16
375,10	1249,26
375,31	1339,37
375,52	1218,54
375,73	1288,17
375,94	1263,60
376,15	1243,12
376,36	1259,50
376,57	1288,17
376,78	1165,29
376,99	1239,02
377,20	1325,04
377,40	1306,60
377,61	1234,93
377,82	1259,50
378,03	1198,06
378,24	1255,40
378,45	1224,69
378,66	1239,02
378,87	1228,78
379,08	1269,74
379,29	1261,55
379,50	1234,93
379,71	1318,89
379,91	1292,27
380,12	1325,04
380,33	1245,16
380,54	1286,12
380,75	1277,93
380,96	1263,60
381,17	1345,52
381,38	1294,32
381,59	1284,08
381,80	1261,55
382,00	1257,45
382,21	1329,13
382,42	1249,26
382,63	1261,55
382,84	1343,47
383,05	1265,64
383,26	1249,26
383,47	1253,36
383,68	1304,56
383,88	1298,41
384,09	1312,75
384,30	1255,40
384,51	1296,36
384,72	1230,83
384,93	1286,12
385,14	1208,30
385,35	1304,56
385,55	1265,64
385,76	1290,22
385,97	1259,50
386,18	1296,36
386,39	1255,40
386,60	1198,06
386,81	1255,40
387,02	1339,37
387,22	1263,60
387,43	1265,64
387,64	1259,50
387,85	1298,41
388,06	1306,60
388,27	1232,88
388,48	1304,56
388,68	1249,26
388,89	1320,94
389,10	1253,36
389,31	1230,83
389,52	1271,79
389,73	1314,80
389,93	1314,80
390,14	1279,98
390,35	1257,45
390,56	1304,56
390,77	1249,26
390,98	1269,74
391,18	1243,12
391,39	1245,16
391,60	1286,12
391,81	1302,51
392,02	1279,98
392,23	1312,75
392,43	1261,55
392,64	1253,36
392,85	1245,16
393,06	1290,22
393,27	1265,64
393,47	1337,32
393,68	1234,93
393,89	1241,07
394,10	1329,13
394,31	1314,80
394,52	1320,94
394,72	1288,17
394,93	1288,17
395,14	1306,60
395,35	1296,36
395,56	1282,03
395,76	1296,36
395,97	1288,17
396,18	1249,26
396,39	1298,41
396,60	1267,69
396,80	1198,06
397,01	1243,12
397,22	1343,47
397,43	1249,26
397,64	1247,21
397,84	1232,88
398,05	1257,45
398,26	1269,74
398,47	1284,08
398,67	1290,22
398,88	1263,60
399,09	1253,36
399,30	1271,79
399,51	1292,27
399,71	1288,17
399,92	1239,02
400,13	1304,56
400,34	1271,79
400,54	1136,62
400,75	1275,88
400,96	1263,60
401,17	1312,75
401,37	1277,93
401,58	1273,84
401,79	1249,26
402,00	1187,82
402,21	1288,17
402,41	1333,23
402,62	1316,84
402,83	1239,02
403,04	1239,02
403,24	1239,02
403,45	1292,27
403,66	1273,84
403,87	1263,60
404,07	1284,08
404,28	1261,55
404,49	1337,32
404,70	1239,02
404,90	1292,27
405,11	1279,98
405,32	1210,35
405,52	1306,60
405,73	1269,74
405,94	1257,45
406,15	1230,83
406,35	1298,41
406,56	1288,17
406,77	1282,03
406,98	1245,16
407,18	1277,93
407,39	1275,88
407,60	1175,53
407,80	1275,88
408,01	1239,02
408,22	1327,08
408,43	1331,18
408,63	1306,60
408,84	1271,79
409,05	1251,31
409,25	1232,88
409,46	1226,73
409,67	1261,55
409,88	1214,45
410,08	1214,45
410,29	1329,13
410,50	1208,30
410,70	1265,64
410,91	1296,36
411,12	1224,69
411,32	1247,21
411,53	1236,97
411,74	1357,80
411,95	1200,11
412,15	1304,56
412,36	1284,08
412,57	1308,65
412,77	1269,74
412,98	1269,74
413,19	1286,12
413,39	1298,41
413,60	1224,69
413,81	1232,88
414,01	1206,25
414,22	1308,65
414,43	1241,07
414,63	1245,16
414,84	1294,32
415,05	1314,80
415,25	1333,23
415,46	1228,78
415,67	1312,75
415,87	1318,89
416,08	1249,26
416,29	1292,27
416,49	1286,12
416,70	1187,82
416,91	1327,08
417,11	1249,26
417,32	1290,22
417,53	1189,87
417,73	1263,60
417,94	1409,00
418,15	1277,93
418,35	1218,54
418,56	1263,60
418,77	1320,94
418,97	1228,78
419,18	1331,18
419,38	1312,75
419,59	1294,32
419,80	1196,01
420,00	1331,18
420,21	1263,60
420,42	1273,84
420,62	1359,85
420,83	1341,42
421,04	1271,79
421,24	1310,70
421,45	1208,30
421,65	1327,08
421,86	1298,41
422,07	1314,80
422,27	1255,40
422,48	1222,64
422,69	1222,64
422,89	1302,51
423,10	1198,06
423,30	1251,31
423,51	1220,59
423,72	1284,08
423,92	1267,69
424,13	1140,72
424,33	1271,79
424,54	1251,31
424,75	1239,02
424,95	1222,64
425,16	1212,40
425,36	1198,06
425,57	1234,93
425,78	1251,31
425,98	1253,36
426,19	1253,36
426,39	1257,45
426,60	1257,45
426,81	1273,84
427,01	1210,35
427,22	1259,50
427,42	1226,73
427,63	1265,64
427,83	1265,64
428,04	1189,87
428,25	1214,45
428,45	1290,22
428,66	1325,04
428,86	1236,97
429,07	1290,22
429,28	1300,46
429,48	1349,61
429,69	1222,64
429,89	1304,56
430,10	1173,49
430,30	1224,69
430,51	1265,64
430,71	1300,46
430,92	1327,08
431,13	1214,45
431,33	1232,88
431,54	1210,35
431,74	1290,22
431,95	1265,64
432,15	1269,74
432,36	1302,51
432,56	1320,94
432,77	1251,31
432,98	1257,45
433,18	1257,45
433,39	1255,40
433,59	1302,51
433,80	1322,99
434,00	1206,25
434,21	1265,64
434,41	1253,36
434,62	1261,55
434,82	1226,73
435,03	1308,65
435,23	1196,01
435,44	1265,64
435,64	1310,70
435,85	1374,19
436,06	1296,36
436,26	1314,80
436,47	1261,55
436,67	1282,03
436,88	1247,21
437,08	1306,60
437,29	1275,88
437,49	1322,99
437,70	1298,41
437,90	1277,93
438,11	1269,74
438,31	1267,69
438,52	1269,74
438,72	1300,46
438,93	1308,65
439,13	1316,84
439,34	1269,74
439,54	1249,26
439,75	1282,03
439,95	1316,84
440,16	1304,56
440,36	1273,84
440,57	1255,40
440,77	1288,17
440,98	1306,60
441,18	1282,03
441,39	1241,07
441,59	1290,22
441,80	1308,65
442,00	1304,56
442,21	1259,50
442,41	1216,49
442,62	1331,18
442,82	1224,69
443,02	1230,83
443,23	1187,82
443,43	1296,36
443,64	1370,09
443,84	1202,16
444,05	1310,70
444,25	1243,12
444,46	1273,84
444,66	1193,97
444,87	1288,17
445,07	1257,45
445,28	1239,02
445,48	1284,08
445,69	1277,93
445,89	1249,26
446,09	1263,60
446,30	1210,35
446,50	1275,88
446,71	1273,84
446,91	1296,36
447,12	1279,98
447,32	1288,17
447,53	1241,07
447,73	1316,84
447,93	1257,45
448,14	1251,31
448,34	1277,93
448,55	1239,02
448,75	1236,97
448,96	1298,41
449,16	1335,28
449,36	1288,17
449,57	1284,08
449,77	1284,08
449,98	1220,59
450,18	1269,74
450,39	1218,54
450,59	1251,31
450,79	1169,39
451,00	1300,46
451,20	1286,12
451,41	1243,12
451,61	1269,74
451,81	1290,22
452,02	1288,17
452,22	1255,40
452,43	1312,75
452,63	1214,45
452,84	1191,92
453,04	1288,17
453,24	1214,45
453,45	1255,40
453,65	1322,99
453,86	1269,74
454,06	1314,80
454,26	1234,93
454,47	1327,08
454,67	1236,97
454,87	1290,22
455,08	1267,69
455,28	1288,17
455,49	1230,83
455,69	1329,13
455,89	1224,69
456,10	1273,84
456,30	1282,03
456,51	1234,93
456,71	1275,88
456,91	1216,49
457,12	1253,36
457,32	1279,98
457,52	1292,27
457,73	1277,93
457,93	1257,45
458,14	1267,69
458,34	1312,75
458,54	1275,88
458,75	1310,70
458,95	1222,64
459,15	1282,03
459,36	1282,03
459,56	1290,22
459,76	1245,16
459,97	1255,40
460,17	1294,32
460,37	1216,49
460,58	1294,32
460,78	1296,36
460,99	1355,76
461,19	1210,35
461,39	1236,97
461,60	1312,75
461,80	1249,26
462,00	1247,21
462,21	1257,45
462,41	1222,64
462,61	1206,25
462,82	1296,36
463,02	1202,16
463,22	1279,98
463,43	1245,16
463,63	1286,12
463,83	1314,80
464,04	1314,80
464,24	1236,97
464,44	1368,04
464,64	1273,84
464,85	1296,36
465,05	1292,27
465,25	1261,55
465,46	1210,35
465,66	1267,69
465,86	1249,26
466,07	1234,93
466,27	1200,11
466,47	1284,08
466,68	1214,45
466,88	1314,80
467,08	1193,97
467,29	1277,93
467,49	1333,23
467,69	1212,40
467,89	1243,12
468,10	1279,98
468,30	1296,36
468,50	1337,32
468,71	1239,02
468,91	1216,49
469,11	1212,40
469,31	1226,73
469,52	1241,07
469,72	1241,07
469,92	1193,97
470,13	1259,50
470,33	1222,64
470,53	1259,50
470,73	1249,26
470,94	1279,98
471,14	1267,69
471,34	1273,84
471,54	1261,55
471,75	1263,60
471,95	1200,11
472,15	1290,22
472,36	1277,93
472,56	1257,45
472,76	1300,46
472,96	1279,98
473,17	1247,21
473,37	1279,98
473,57	1230,83
473,77	1239,02
473,98	1322,99
474,18	1284,08
474,38	1294,32
474,58	1300,46
474,79	1284,08
474,99	1187,82
475,19	1320,94
475,39	1284,08
475,60	1230,83
475,80	1259,50
476,00	1302,51
476,20	1228,78
476,41	1318,89
476,61	1286,12
476,81	1249,26
477,01	1304,56
477,21	1232,88
477,42	1257,45
477,62	1239,02
477,82	1228,78
478,02	1189,87
478,23	1253,36
478,43	1273,84
478,63	1263,60
478,83	1257,45
479,03	1269,74
479,24	1314,80
479,44	1279,98
479,64	1275,88
479,84	1218,54
480,04	1257,45
480,25	1331,18
480,45	1318,89
480,65	1210,35
480,85	1222,64
481,06	1208,30
481,26	1236,97
481,46	1230,83
481,66	1277,93
481,86	1331,18
482,06	1282,03
482,27	1271,79
482,47	1277,93
482,67	1325,04
482,87	1320,94
483,07	1286,12
483,28	1202,16
483,48	1212,40
483,68	1316,84
483,88	1257,45
484,08	1275,88
484,29	1282,03
484,49	1306,60
484,69	1331,18
484,89	1279,98
485,09	1245,16
485,29	1269,74
485,50	1267,69
485,70	1277,93
485,90	1318,89
486,10	1314,80
486,30	1279,98
486,50	1316,84
486,71	1277,93
486,91	1273,84
487,11	1241,07
487,31	1263,60
487,51	1316,84
487,71	1306,60
487,91	1304,56
488,12	1267,69
488,32	1271,79
488,52	1234,93
488,72	1173,49
488,92	1267,69
489,12	1263,60
489,32	1179,63
489,53	1230,83
489,73	1271,79
489,93	1314,80
490,13	1259,50
490,33	1275,88
490,53	1290,22
490,73	1243,12
490,94	1320,94
491,14	1249,26
491,34	1308,65
491,54	1196,01
491,74	1265,64
491,94	1279,98
492,14	1286,12
492,34	1218,54
492,54	1230,83
492,75	1329,13
492,95	1239,02
493,15	1265,64
493,35	1251,31
493,55	1222,64
493,75	1239,02
493,95	1243,12
494,15	1243,12
494,35	1288,17
494,56	1300,46
494,76	1314,80
494,96	1265,64
495,16	1224,69
495,36	1265,64
495,56	1316,84
495,76	1318,89
495,96	1310,70
496,16	1294,32
496,36	1239,02
496,56	1341,42
496,77	1306,60
496,97	1279,98
497,17	1333,23
497,37	1298,41
497,57	1263,60
497,77	1300,46
497,97	1314,80
498,17	1282,03
498,37	1298,41
498,57	1210,35
498,77	1286,12
498,97	1275,88
499,17	1251,31
499,38	1312,75
499,58	1210,35
499,78	1306,60
499,98	1241,07
500,18	1224,69
500,38	1339,37
500,58	1318,89
500,78	1273,84
500,98	1257,45
501,18	1216,49
501,38	1198,06
501,58	1320,94
501,78	1277,93
501,98	1239,02
502,18	1259,50
502,38	1257,45
502,58	1253,36
502,78	1253,36
502,98	1282,03
503,18	1261,55
503,38	1257,45
503,59	1234,93
503,79	1265,64
503,99	1191,92
504,19	1288,17
504,39	1308,65
504,59	1314,80
504,79	1290,22
504,99	1386,47
505,19	1224,69
505,39	1325,04
505,59	1241,07
505,79	1290,22
505,99	1286,12
506,19	1249,26
506,39	1261,55
506,59	1290,22
506,79	1327,08
506,99	1343,47
507,19	1226,73
507,39	1296,36
507,59	1290,22
507,79	1288,17
507,99	1230,83
508,19	1230,83
508,39	1322,99
508,59	1220,59
508,79	1302,51
508,99	1196,01
509,19	1279,98
509,39	1267,69
509,59	1290,22
509,79	1181,68
509,99	1245,16
510,19	1327,08
510,39	1206,25
510,59	1298,41
510,79	1314,80
510,99	1288,17
511,19	1208,30
511,39	1310,70
511,59	1212,40
511,79	1329,13
511,99	1294,32
512,19	1208,30
512,38	1200,11
512,58	1257,45
512,78	1294,32
512,98	1177,58
513,18	1230,83
513,38	1296,36
513,58	1271,79
513,78	1341,42
513,98	1208,30
514,18	1228,78
514,38	1314,80
514,58	1277,93
514,78	1255,40
514,98	1284,08
515,18	1243,12
515,38	1398,76
515,58	1275,88
515,78	1257,45
515,98	1177,58
516,18	1273,84
516,38	1208,30
516,57	1257,45
516,77	1259,50
516,97	1257,45
517,17	1279,98
517,37	1247,21
517,57	1316,84
517,77	1185,77
517,97	1241,07
518,17	1171,44
518,37	1224,69
518,57	1288,17
518,77	1249,26
518,97	1253,36
519,16	1249,26
519,36	1282,03
519,56	1218,54
519,76	1212,40
519,96	1298,41
520,16	1290,22
520,36	1230,83
520,56	1249,26
520,76	1314,80
520,96	1331,18
521,16	1185,77
521,35	1282,03
521,55	1265,64
521,75	1243,12
521,95	1298,41
522,15	1275,88
522,35	1286,12
522,55	1220,59
522,75	1304,56
522,95	1337,32
523,14	1196,01
523,34	1288,17
523,54	1298,41
523,74	1196,01
523,94	1206,25
524,14	1200,11
524,34	1259,50
524,54	1275,88
524,73	1255,40
524,93	1298,41
525,13	1322,99
525,33	1294,32
525,53	1284,08
525,73	1314,80
525,93	1251,31
526,13	1312,75
526,32	1296,36
526,52	1257,45
526,72	1329,13
526,92	1255,40
527,12	1329,13
527,32	1208,30
527,52	1230,83
527,71	1320,94
527,91	1228,78
528,11	1241,07
528,31	1294,32
528,51	1191,92
528,71	1249,26
528,90	1296,36
529,10	1296,36
529,30	1249,26
529,50	1263,60
529,70	1210,35
529,90	1263,60
530,09	1214,45
530,29	1263,60
530,49	1263,60
530,69	1257,45
530,89	1249,26
531,09	1245,16
531,28	1288,17
531,48	1234,93
531,68	1181,68
531,88	1308,65
532,08	1206,25
532,28	1267,69
532,47	1247,21
532,67	1261,55
532,87	1234,93
533,07	1298,41
533,27	1257,45
533,46	1234,93
533,66	1306,60
533,86	1296,36
534,06	1222,64
534,26	1255,40
534,45	1286,12
534,65	1255,40
534,85	1284,08
535,05	1284,08
535,25	1277,93
535,44	1296,36
535,64	1259,50
535,84	1290,22
536,04	1245,16
536,24	1288,17
536,43	1277,93
536,63	1249,26
536,83	1277,93
537,03	1286,12
537,22	1218,54
537,42	1222,64
537,62	1232,88
537,82	1224,69
538,02	1210,35
538,21	1224,69
538,41	1230,83
538,61	1329,13
538,81	1357,80
539,00	1314,80
539,20	1247,21
539,40	1318,89
539,60	1218,54
539,79	1259,50
539,99	1228,78
540,19	1191,92
540,39	1298,41
540,58	1318,89
540,78	1347,56
540,98	1337,32
541,18	1296,36
541,37	1232,88
541,57	1300,46
541,77	1312,75
541,97	1290,22
542,16	1226,73
542,36	1265,64
542,56	1261,55
542,76	1290,22
542,95	1255,40
543,15	1306,60
543,35	1249,26
543,54	1286,12
543,74	1167,34
543,94	1308,65
544,14	1228,78
544,33	1265,64
544,53	1325,04
544,73	1214,45
544,93	1214,45
545,12	1279,98
545,32	1239,02
545,52	1245,16
545,71	1337,32
545,91	1284,08
546,11	1269,74
546,30	1220,59
546,50	1298,41
546,70	1271,79
546,90	1253,36
547,09	1269,74
547,29	1273,84
547,49	1257,45
547,68	1302,51
547,88	1196,01
548,08	1304,56
548,27	1300,46
548,47	1200,11
548,67	1282,03
548,87	1335,28
549,06	1259,50
549,26	1304,56
549,46	1261,55
549,65	1259,50
549,85	1298,41
550,05	1343,47
550,24	1279,98
550,44	1218,54
550,64	1155,05
550,83	1269,74
551,03	1292,27
551,23	1279,98
551,42	1279,98
551,62	1294,32
551,82	1306,60
552,01	1296,36
552,21	1216,49
552,41	1329,13
552,60	1173,49
552,80	1202,16
553,00	1273,84
553,19	1322,99
553,39	1333,23
553,59	1239,02
553,78	1249,26
553,98	1290,22
554,17	1312,75
554,37	1279,98
554,57	1306,60
554,76	1308,65
554,96	1228,78
555,16	1261,55
555,35	1329,13
555,55	1322,99
555,75	1308,65
555,94	1316,84
556,14	1253,36
556,33	1273,84
556,53	1265,64
556,73	1269,74
556,92	1253,36
557,12	1230,83
557,32	1249,26
557,51	1191,92
557,71	1259,50
557,90	1304,56
558,10	1316,84
558,30	1273,84
558,49	1279,98
558,69	1241,07
558,88	1267,69
559,08	1304,56
559,28	1245,16
559,47	1327,08
559,67	1202,16
559,86	1261,55
560,06	1255,40
560,26	1265,64
560,45	1294,32
560,65	1292,27
560,84	1294,32
561,04	1255,40
561,24	1312,75
561,43	1275,88
561,63	1273,84
561,82	1292,27
562,02	1259,50
562,22	1284,08
562,41	1222,64
562,61	1282,03
562,80	1306,60
563,00	1265,64
563,19	1257,45
563,39	1210,35
563,59	1261,55
563,78	1273,84
563,98	1290,22
564,17	1255,40
564,37	1249,26
564,56	1236,97
564,76	1255,40
564,96	1271,79
565,15	1234,93
565,35	1292,27
565,54	1228,78
565,74	1265,64
565,93	1200,11
566,13	1277,93
566,32	1277,93
566,52	1261,55
566,71	1267,69
566,91	1224,69
567,11	1308,65
567,30	1228,78
567,50	1279,98
567,69	1292,27
567,89	1220,59
568,08	1314,80
568,28	1230,83
568,47	1251,31
568,67	1333,23
568,86	1355,76
569,06	1212,40
569,25	1300,46
569,45	1251,31
569,64	1236,97
569,84	1257,45
570,04	1282,03
570,23	1288,17
570,43	1273,84
570,62	1304,56
570,82	1290,22
571,01	1230,83
571,21	1269,74
571,40	1171,44
571,60	1247,21
571,79	1300,46
571,99	1259,50
572,18	1167,34
572,38	1331,18
572,57	1214,45
572,77	1329,13
572,96	1314,80
573,16	1249,26
573,35	1216,49
573,55	1302,51
573,74	1296,36
573,94	1214,45
574,13	1243,12
574,33	1355,76
574,52	1245,16
574,71	1208,30
574,91	1302,51
575,10	1165,29
575,30	1247,21
575,49	1314,80
575,69	1284,08
575,88	1304,56
576,08	1245,16
576,27	1241,07
576,47	1279,98
576,66	1241,07
576,86	1279,98
577,05	1265,64
577,25	1251,31
577,44	1333,23
577,64	1243,12
577,83	1275,88
578,02	1232,88
578,22	1247,21
578,41	1267,69
578,61	1282,03
578,80	1259,50
579,00	1249,26
579,19	1187,82
579,39	1296,36
579,58	1308,65
579,77	1345,52
579,97	1202,16
580,16	1226,73
580,36	1277,93
580,55	1296,36
580,75	1243,12
580,94	1310,70
581,13	1353,71
581,33	1282,03
581,52	1232,88
581,72	1316,84
581,91	1249,26
582,11	1298,41
582,30	1294,32
582,49	1222,64
582,69	1314,80
582,88	1263,60
583,08	1236,97
583,27	1257,45
583,47	1251,31
583,66	1298,41
583,85	1204,21
584,05	1292,27
584,24	1277,93
584,44	1232,88
584,63	1413,10
584,82	1290,22
585,02	1247,21
585,21	1327,08
585,41	1271,79
585,60	1191,92
585,79	1232,88
585,99	1241,07
586,18	1230,83
586,37	1236,97
586,57	1271,79
586,76	1308,65
586,96	1257,45
587,15	1230,83
587,34	1286,12
587,54	1239,02
587,73	1288,17
587,93	1316,84
588,12	1218,54
588,31	1245,16
588,51	1290,22
588,70	1259,50
588,89	1304,56
589,09	1232,88
589,28	1220,59
589,47	1335,28
589,67	1249,26
589,86	1269,74
590,06	1247,21
590,25	1320,94
590,44	1239,02
590,64	1304,56
590,83	1286,12
591,02	1279,98
591,22	1316,84
591,41	1273,84
591,60	1228,78
591,80	1232,88
591,99	1224,69
592,18	1214,45
592,38	1243,12
592,57	1220,59
592,76	1228,78
592,96	1355,76
593,15	1308,65
593,34	1277,93
593,54	1273,84
593,73	1335,28
593,92	1247,21
594,12	1193,97
594,31	1282,03
594,50	1286,12
594,70	1288,17
594,89	1286,12
595,08	1234,93
595,28	1230,83
595,47	1251,31
595,66	1314,80
595,86	1232,88
596,05	1310,70
596,24	1286,12
596,43	1261,55
596,63	1290,22
596,82	1269,74
597,01	1329,13
597,21	1232,88
597,40	1265,64
597,59	1255,40
597,79	1361,90
597,98	1314,80
598,17	1271,79
598,36	1286,12
598,56	1204,21
598,75	1271,79
598,94	1331,18
599,14	1341,42
599,33	1230,83
599,52	1294,32
599,71	1234,93
599,91	1263,60
600,10	1329,13
600,29	1269,74
600,48	1286,12
600,68	1288,17
600,87	1193,97
601,06	1214,45
601,26	1155,05
601,45	1320,94
601,64	1251,31
601,83	1271,79
602,03	1245,16
602,22	1300,46
602,41	1269,74
602,60	1261,55
602,80	1263,60
602,99	1273,84
603,18	1234,93
603,37	1232,88
603,57	1275,88
603,76	1314,80
603,95	1255,40
604,14	1230,83
604,34	1331,18
604,53	1249,26
604,72	1296,36
604,91	1300,46
605,10	1247,21
605,30	1224,69
605,49	1292,27
605,68	1290,22
605,87	1218,54
606,07	1273,84
606,26	1267,69
606,45	1327,08
606,64	1251,31
606,84	1300,46
607,03	1327,08
607,22	1259,50
607,41	1267,69
607,60	1253,36
607,80	1261,55
607,99	1327,08
608,18	1269,74
608,37	1355,76
608,56	1279,98
608,76	1273,84
608,95	1249,26
609,14	1329,13
609,33	1269,74
609,52	1265,64
609,72	1193,97
609,91	1288,17
610,10	1310,70
610,29	1259,50
610,48	1296,36
610,68	1269,74
610,87	1294,32
611,06	1349,61
611,25	1245,16
611,44	1271,79
611,63	1265,64
611,83	1212,40
612,02	1318,89
612,21	1353,71
612,40	1277,93
612,59	1259,50
612,79	1304,56
612,98	1226,73
613,17	1259,50
613,36	1302,51
613,55	1224,69
613,74	1247,21
613,93	1300,46
614,13	1230,83
614,32	1294,32
614,51	1249,26
614,70	1288,17
614,89	1263,60
615,08	1308,65
615,28	1294,32
615,47	1232,88
615,66	1333,23
615,85	1212,40
616,04	1230,83
616,23	1333,23
616,42	1236,97
616,62	1267,69
616,81	1202,16
617,00	1251,31
617,19	1249,26
617,38	1331,18
617,57	1257,45
617,76	1296,36
617,95	1282,03
618,15	1275,88
618,34	1279,98
618,53	1224,69
618,72	1214,45
618,91	1320,94
619,10	1241,07
619,29	1269,74
619,48	1294,32
619,68	1267,69
619,87	1232,88
620,06	1269,74
620,25	1331,18
620,44	1292,27
620,63	1222,64
620,82	1257,45
621,01	1249,26
621,20	1333,23
621,39	1228,78
621,59	1257,45
621,78	1273,84
621,97	1294,32
622,16	1204,21
622,35	1269,74
622,54	1288,17
622,73	1282,03
622,92	1228,78
623,11	1265,64
623,30	1245,16
623,49	1247,21
623,68	1261,55
623,88	1286,12
624,07	1290,22
624,26	1193,97
624,45	1208,30
624,64	1277,93
624,83	1193,97
625,02	1214,45
625,21	1335,28
625,40	1316,84
625,59	1294,32
625,78	1304,56
625,97	1341,42
626,16	1234,93
626,35	1290,22
626,54	1279,98
626,74	1263,60
626,93	1286,12
627,12	1296,36
627,31	1318,89
627,50	1267,69
627,69	1306,60
627,88	1277,93
628,07	1322,99
628,26	1308,65
628,45	1308,65
628,64	1302,51
628,83	1243,12
629,02	1243,12
629,21	1261,55
629,40	1296,36
629,59	1290,22
629,78	1257,45
629,97	1333,23
630,16	1298,41
630,35	1337,32
630,54	1357,80
630,73	1302,51
630,92	1384,43
631,11	1306,60
631,30	1282,03
631,49	1331,18
631,68	1656,81
631,87	2787,29
632,06	7323,54
632,25	13674,29
632,44	16264,97
632,63	17952,49
632,82	10399,59
633,01	3946,44
633,20	2746,33
633,39	2480,09
633,58	2068,45
633,77	1775,59
633,96	1574,89
634,15	1791,97
634,34	1724,39
634,53	1591,27
634,72	1585,13
634,91	1499,11
635,10	1515,50
635,29	1462,25
635,48	1495,02
635,67	1429,48
635,86	1466,35
636,05	1415,15
636,24	1421,29
636,43	1357,80
636,62	1368,04
636,81	1322,99
637,00	1386,47
637,19	1345,52
637,38	1314,80
637,57	1423,34
637,76	1296,36
637,95	1259,50
638,14	1339,37
638,33	1327,08
638,52	1329,13
638,71	1327,08
638,89	1320,94
639,08	1304,56
639,27	1312,75
639,46	1277,93
639,65	1273,84
639,84	1277,93
640,03	1257,45
640,22	1249,26
640,41	1265,64
640,60	1226,73
640,79	1304,56
640,98	1239,02
641,17	1224,69
641,36	1349,61
641,55	1361,90
641,74	1310,70
641,92	1251,31
642,11	1265,64
642,30	1282,03
642,49	1249,26
642,68	1249,26
642,87	1318,89
643,06	1255,40
643,25	1259,50
643,44	1351,66
643,63	1325,04
643,82	1261,55
644,00	1236,97
644,19	1308,65
644,38	1259,50
644,57	1304,56
644,76	1212,40
644,95	1249,26
645,14	1298,41
645,33	1316,84
645,52	1251,31
645,71	1230,83
645,89	1230,83
646,08	1232,88
646,27	1241,07
646,46	1265,64
646,65	1306,60
646,84	1257,45
647,03	1282,03
647,22	1269,74
647,40	1249,26
647,59	1310,70
647,78	1247,21
647,97	1286,12
648,16	1298,41
648,35	1279,98
648,54	1226,73
648,73	1273,84
648,91	1173,49
649,10	1275,88
649,29	1312,75
649,48	1226,73
649,67	1267,69
649,86	1257,45
650,05	1267,69
650,23	1310,70
650,42	1216,49
650,61	1249,26
650,80	1269,74
650,99	1271,79
651,18	1247,21
651,36	1249,26
651,55	1239,02
651,74	1241,07
651,93	1290,22
652,12	1310,70
652,31	1290,22
652,49	1314,80
652,68	1294,32
652,87	1329,13
653,06	1296,36
653,25	1257,45
653,44	1216,49
653,62	1282,03
653,81	1349,61
654,00	1222,64
654,19	1259,50
654,38	1288,17
654,56	1222,64
654,75	1243,12
654,94	1265,64
655,13	1284,08
655,32	1220,59
655,51	1288,17
655,69	1267,69
655,88	1226,73
656,07	1302,51
656,26	1226,73
656,45	1216,49
656,63	1245,16
656,82	1224,69
657,01	1345,52
657,20	1220,59
657,38	1318,89
657,57	1290,22
657,76	1300,46
657,95	1273,84
658,14	1312,75
658,32	1366,00
658,51	1232,88
658,70	1228,78
658,89	1322,99
659,08	1249,26
659,26	1282,03
659,45	1253,36
659,64	1271,79
659,83	1255,40
660,01	1306,60
660,20	1294,32
660,39	1167,34
660,58	1284,08
660,76	1241,07
660,95	1279,98
661,14	1259,50
661,33	1302,51
661,51	1271,79
661,70	1314,80
661,89	1255,40
662,08	1310,70
662,26	1265,64
662,45	1290,22
662,64	1353,71
662,83	1232,88
663,01	1320,94
663,20	1265,64
663,39	1267,69
663,58	1290,22
663,76	1333,23
663,95	1284,08
664,14	1226,73
664,32	1253,36
664,51	1259,50
664,70	1343,47
664,89	1273,84
665,07	1218,54
665,26	1312,75
665,45	1284,08
665,64	1249,26
665,82	1282,03
666,01	1284,08
666,20	1267,69
666,38	1247,21
666,57	1216,49
666,76	1310,70
666,95	1282,03
667,13	1279,98
667,32	1255,40
667,51	1288,17
667,69	1284,08
667,88	1341,42
668,07	1232,88
668,25	1273,84
668,44	1257,45
668,63	1265,64
668,81	1261,55
669,00	1267,69
669,19	1310,70
669,38	1292,27
669,56	1273,84
669,75	1245,16
669,94	1228,78
670,12	1347,56
670,31	1275,88
670,50	1357,80
670,68	1249,26
670,87	1273,84
671,06	1288,17
671,24	1273,84
671,43	1234,93
671,62	1241,07
671,80	1282,03
671,99	1327,08
672,18	1284,08
672,36	1322,99
672,55	1286,12
672,74	1191,92
672,92	1241,07
673,11	1304,56
673,29	1277,93
673,48	1249,26
673,67	1302,51
673,85	1282,03
674,04	1257,45
674,23	1245,16
674,41	1255,40
674,60	1306,60
674,79	1230,83
674,97	1296,36
675,16	1263,60
675,34	1243,12
675,53	1304,56
675,72	1277,93
675,90	1312,75
676,09	1267,69
676,28	1216,49
676,46	1296,36
676,65	1216,49
676,83	1261,55
677,02	1310,70
677,21	1279,98
677,39	1286,12
677,58	1259,50
677,77	1226,73
677,95	1232,88
678,14	1249,26
678,32	1273,84
678,51	1300,46
678,70	1345,52
678,88	1263,60
679,07	1243,12
679,25	1224,69
679,44	1251,31
679,63	1320,94
679,81	1261,55
680,00	1327,08
680,18	1353,71
680,37	1255,40
680,55	1247,21
680,74	1253,36
680,93	1216,49
681,11	1257,45
681,30	1230,83
681,48	1265,64
681,67	1325,04
681,85	1298,41
682,04	1265,64
682,23	1316,84
682,41	1243,12
682,60	1216,49
682,78	1259,50
682,97	1251,31
683,15	1249,26
683,34	1173,49
683,53	1345,52
683,71	1175,53
683,90	1247,21
684,08	1243,12
684,27	1292,27
684,45	1275,88
684,64	1380,33
684,82	1228,78
685,01	1284,08
685,19	1296,36
685,38	1286,12
685,57	1267,69
685,75	1259,50
685,94	1284,08
686,12	1292,27
686,31	1263,60
686,49	1257,45
686,68	1220,59
686,86	1273,84
687,05	1286,12
687,23	1249,26
687,42	1232,88
687,60	1247,21
687,79	1224,69
687,97	1263,60
688,16	1220,59
688,34	1298,41
688,53	1167,34
688,71	1265,64
688,90	1249,26
689,08	1218,54
689,27	1261,55
689,45	1273,84
689,64	1257,45
689,82	1327,08
690,01	1255,40
690,19	1226,73
690,38	1271,79
690,56	1226,73
690,75	1331,18
690,93	1249,26
691,12	1236,97
691,30	1288,17
691,49	1282,03
691,67	1253,36
691,86	1251,31
692,04	1292,27
692,23	1228,78
692,41	1322,99
692,60	1269,74
692,78	1288,17
692,97	1263,60
693,15	1288,17
693,34	1247,21
693,52	1241,07
693,71	1275,88
693,89	1230,83
694,08	1263,60
694,26	1284,08
694,44	1331,18
694,63	1316,84
694,81	1273,84
695,00	1279,98
695,18	1193,97
695,37	1357,80
695,55	1212,40
695,74	1257,45
695,92	1351,66
696,10	1343,47
696,29	1304,56
696,47	1316,84
696,66	1193,97
696,84	1245,16
697,03	1275,88
697,21	1286,12
697,40	1294,32
697,58	1304,56
697,76	1288,17
697,95	1277,93
698,13	1226,73
698,32	1208,30
698,50	1275,88
698,68	1273,84
698,87	1273,84
699,05	1282,03
699,24	1224,69
699,42	1312,75
699,61	1290,22
699,79	1329,13
699,97	1312,75
700,16	1306,60
700,34	1277,93
700,53	1200,11
700,71	1314,80
700,89	1241,07
701,08	1212,40
701,26	1265,64
701,45	1343,47
701,63	1241,07
701,81	1249,26
702,00	1316,84
702,18	1267,69
702,37	1337,32
702,55	1263,60
702,73	1269,74
702,92	1277,93
703,10	1294,32
703,28	1247,21
703,47	1208,30
703,65	1339,37
703,84	1247,21
704,02	1290,22
704,20	1234,93
704,39	1304,56
704,57	1253,36
704,75	1284,08
704,94	1294,32
705,12	1220,59
705,30	1222,64
705,49	1294,32
705,67	1320,94
705,86	1292,27
706,04	1241,07
706,22	1241,07
706,41	1249,26
706,59	1314,80
706,77	1265,64
706,96	1234,93
707,14	1181,68
707,32	1347,56
707,51	1230,83
707,69	1267,69
707,87	1243,12
708,06	1312,75
708,24	1325,04
708,42	1279,98
708,61	1251,31
708,79	1257,45
708,97	1296,36
709,16	1286,12
709,34	1337,32
709,52	1218,54
709,71	1337,32
709,89	1210,35
710,07	1239,02
710,26	1261,55
710,44	1345,52
710,62	1220,59
710,80	1255,40
710,99	1251,31
711,17	1265,64
711,35	1292,27
711,54	1228,78
711,72	1347,56
711,90	1269,74
712,09	1282,03
712,27	1265,64
712,45	1259,50
712,63	1292,27
712,82	1222,64
713,00	1261,55
713,18	1230,83
713,37	1312,75
713,55	1249,26
713,73	1288,17
713,91	1298,41
714,10	1294,32
714,28	1241,07
714,46	1302,51
714,65	1286,12
714,83	1329,13
715,01	1288,17
715,19	1290,22
715,38	1251,31
715,56	1255,40
715,74	1279,98
715,92	1255,40
716,11	1308,65
716,29	1222,64
716,47	1296,36
716,65	1261,55
716,84	1253,36
717,02	1267,69
717,20	1245,16
717,38	1232,88
717,57	1359,85
717,75	1181,68
717,93	1271,79
718,11	1236,97
718,30	1294,32
718,48	1198,06
718,66	1296,36
718,84	1243,12
719,03	1251,31
719,21	1279,98
719,39	1310,70
719,57	1288,17
719,75	1222,64
719,94	1239,02
720,12	1284,08
720,30	1251,31
720,48	1245,16
720,67	1204,21
720,85	1290,22
721,03	1243,12
721,21	1279,98
721,39	1259,50
721,58	1331,18
721,76	1302,51
721,94	1210,35
722,12	1236,97
722,30	1253,36
722,49	1341,42
722,67	1294,32
722,85	1245,16
723,03	1259,50
723,21	1222,64
723,40	1284,08
723,58	1267,69
723,76	1284,08
723,94	1269,74
724,12	1224,69
724,30	1228,78
724,49	1292,27
724,67	1296,36
724,85	1277,93
725,03	1259,50
725,21	1273,84
725,40	1271,79
725,58	1314,80
725,76	1265,64
725,94	1181,68
726,12	1263,60
726,30	1265,64
726,49	1261,55
726,67	1288,17
726,85	1241,07
727,03	1216,49
727,21	1208,30
727,39	1257,45
727,57	1282,03
727,76	1200,11
727,94	1193,97
728,12	1273,84
728,30	1216,49
728,48	1257,45
728,66	1314,80
728,84	1263,60
729,03	1279,98
729,21	1218,54
729,39	1265,64
729,57	1251,31
729,75	1273,84
729,93	1239,02
730,11	1261,55
730,30	1245,16
730,48	1243,12
730,66	1265,64
730,84	1273,84
731,02	1261,55
731,20	1271,79
731,38	1308,65
731,56	1224,69
731,74	1236,97
731,93	1251,31
732,11	1261,55
732,29	1337,32
732,47	1355,76
732,65	1308,65
732,83	1259,50
733,01	1355,76
733,19	1273,84
733,37	1275,88
733,56	1288,17
733,74	1284,08
733,92	1335,28
734,10	1282,03
734,28	1232,88
734,46	1212,40
734,64	1251,31
734,82	1267,69
735,00	1298,41
735,18	1245,16
735,36	1320,94
735,54	1269,74
735,73	1279,98
735,91	1366,00
736,09	1259,50
736,27	1333,23
736,45	1282,03
736,63	1206,25
736,81	1257,45
736,99	1261,55
737,17	1296,36
737,35	1320,94
737,53	1298,41
737,71	1316,84
737,89	1288,17
738,07	1249,26
738,25	1279,98
738,43	1247,21
738,61	1351,66
738,80	1265,64
738,98	1191,92
739,16	1210,35
739,34	1279,98
739,52	1306,60
739,70	1279,98
739,88	1279,98
740,06	1382,38
740,24	1263,60
740,42	1341,42
740,60	1255,40
740,78	1263,60
740,96	1282,03
741,14	1263,60
741,32	1261,55
741,50	1236,97
741,68	1271,79
741,86	1228,78
742,04	1290,22
742,22	1251,31
742,40	1286,12
742,58	1189,87
742,76	1290,22
742,94	1226,73
743,12	1269,74
743,30	1273,84
743,48	1263,60
743,66	1277,93
743,84	1282,03
744,02	1228,78
744,20	1331,18
744,38	1277,93
744,56	1245,16
744,74	1308,65
744,92	1322,99
745,10	1316,84
745,28	1306,60
745,46	1333,23
745,64	1265,64
745,82	1265,64
746,00	1329,13
746,18	1302,51
746,36	1302,51
746,54	1279,98
746,72	1206,25
746,90	1261,55
747,08	1314,80
747,26	1236,97
747,44	1263,60
747,62	1249,26
747,80	1200,11
747,98	1253,36
748,15	1312,75
748,33	1284,08
748,51	1267,69
748,69	1263,60
748,87	1288,17
749,05	1296,36
749,23	1273,84
749,41	1239,02
749,59	1275,88
749,77	1282,03
749,95	1265,64
750,13	1290,22
750,31	1345,52
750,49	1302,51
750,67	1187,82
750,85	1343,47
751,03	1296,36
751,20	1257,45
751,38	1230,83
751,56	1212,40
751,74	1277,93
751,92	1261,55
752,10	1277,93
752,28	1318,89
752,46	1230,83
752,64	1310,70
752,82	1261,55
753,00	1200,11
753,18	1263,60
753,35	1277,93
753,53	1329,13
753,71	1230,83
753,89	1322,99
754,07	1259,50
754,25	1298,41
754,43	1277,93
754,61	1259,50
754,79	1286,12
754,97	1202,16
755,14	1279,98
755,32	1327,08
755,50	1249,26
755,68	1327,08
755,86	1239,02
756,04	1228,78
756,22	1234,93
756,40	1308,65
756,57	1275,88
756,75	1325,04
756,93	1275,88
757,11	1249,26
757,29	1331,18
757,47	1314,80
757,65	1253,36
757,82	1263,60
758,00	1306,60
758,18	1273,84
758,36	1292,27
758,54	1202,16
758,72	1255,40
758,90	1312,75
759,07	1290,22
759,25	1288,17
759,43	1286,12
759,61	1320,94
759,79	1236,97
759,97	1204,21
760,15	1298,41
760,32	1255,40
760,50	1300,46
760,68	1282,03
760,86	1173,49
761,04	1304,56
761,22	1214,45
761,39	1273,84
761,57	1255,40
761,75	1279,98
761,93	1275,88
762,11	1249,26
762,28	1245,16
762,46	1271,79
762,64	1288,17
762,82	1273,84
763,00	1267,69
763,18	1282,03
763,35	1198,06
763,53	1228,78
763,71	1308,65
763,89	1214,45
764,07	1320,94
764,24	1226,73
764,42	1288,17
764,60	1279,98
764,78	1255,40
764,96	1335,28
765,13	1302,51
765,31	1306,60
765,49	1185,77
765,67	1302,51
765,84	1275,88
766,02	1265,64
766,20	1171,44
766,38	1298,41
766,56	1228,78
766,73	1257,45
766,91	1247,21
767,09	1271,79
767,27	1249,26
767,44	1226,73
767,62	1269,74
767,80	1249,26
767,98	1286,12
768,15	1206,25
768,33	1273,84
768,51	1314,80
768,69	1255,40
768,87	1241,07
769,04	1261,55
769,22	1316,84
769,40	1269,74
769,58	1216,49
769,75	1341,42
769,93	1216,49
770,11	1245,16
770,28	1273,84
770,46	1290,22
770,64	1220,59
770,82	1243,12
770,99	1288,17
771,17	1265,64
771,35	1247,21
771,53	1370,09
771,70	1214,45
771,88	1298,41
772,06	1228,78
772,23	1304,56
772,41	1208,30
772,59	1212,40
772,77	1329,13
772,94	1257,45
773,12	1284,08
773,30	1236,97
773,47	1267,69
773,65	1325,04
773,83	1335,28
774,01	1247,21
774,18	1247,21
774,36	1320,94
774,54	1249,26
774,71	1273,84
774,89	1206,25
775,07	1294,32
775,24	1306,60
775,42	1261,55
775,60	1226,73
775,78	1253,36
775,95	1329,13
776,13	1255,40
776,31	1189,87
776,48	1253,36
776,66	1290,22
776,84	1277,93
777,01	1267,69
777,19	1288,17
777,37	1304,56
777,54	1261,55
777,72	1271,79
777,90	1138,67
778,07	1292,27
778,25	1259,50
778,43	1357,80
778,60	1224,69
778,78	1273,84
778,96	1230,83
779,13	1241,07
779,31	1359,85
779,49	1232,88
779,66	1333,23
779,84	1279,98
780,01	1253,36
780,19	1282,03
780,37	1282,03
780,54	1220,59
780,72	1296,36
780,90	1251,31
781,07	1245,16
781,25	1198,06
781,43	1214,45
781,60	1355,76
781,78	1273,84
781,95	1318,89
782,13	1255,40
782,31	1286,12
782,48	1296,36
782,66	1288,17
782,83	1310,70
783,01	1267,69
783,19	1275,88
783,36	1325,04
783,54	1208,30
783,72	1300,46
783,89	1279,98
784,07	1286,12
784,24	1261,55
784,42	1300,46
784,60	1284,08
784,77	1257,45
784,95	1241,07
785,12	1226,73
785,30	1263,60
785,47	1277,93
785,65	1300,46
785,83	1337,32
786,00	1275,88
786,18	1269,74
786,35	1286,12
786,53	1232,88
786,71	1183,73
786,88	1378,28
787,06	1327,08
787,23	1331,18
787,41	1302,51
787,58	1183,73
787,76	1269,74
787,94	1275,88
788,11	1247,21
788,29	1316,84
788,46	1259,50
788,64	1282,03
788,81	1257,45
788,99	1290,22
789,16	1239,02
789,34	1173,49
789,52	1251,31
789,69	1228,78
789,87	1273,84
790,04	1224,69
790,22	1239,02
790,39	1355,76
790,57	1189,87
790,74	1245,16
790,92	1255,40
791,09	1222,64
791,27	1353,71
791,44	1261,55
791,62	1312,75
791,79	1357,80
791,97	1257,45
792,15	1308,65
792,32	1320,94
792,50	1294,32
792,67	1202,16
792,85	1228,78
793,02	1277,93
793,20	1335,28
793,37	1241,07
793,55	1265,64
793,72	1310,70
793,90	1298,41
794,07	1312,75
794,25	1232,88
794,42	1263,60
794,60	1294,32
794,77	1216,49
794,95	1236,97
795,12	1279,98
795,30	1306,60
795,47	1245,16
795,65	1292,27
795,82	1284,08
796,00	1329,13
796,17	1200,11
796,34	1288,17
796,52	1298,41
796,69	1288,17
796,87	1257,45
797,04	1277,93
797,22	1247,21
797,39	1191,92
797,57	1277,93
797,74	1228,78
797,92	1224,69
798,09	1331,18
798,27	1271,79
798,44	1345,52
798,62	1193,97
798,79	1253,36
798,96	1331,18
799,14	1265,64
799,31	1259,50
799,49	1228,78
799,66	1263,60
799,84	1267,69
800,01	1210,35
800,19	1277,93
800,36	1234,93
800,53	1202,16
800,71	1312,75
800,88	1257,45
801,06	1296,36
801,23	1255,40
801,41	1218,54
801,58	1265,64
801,75	1212,40
801,93	1185,77
802,10	1298,41
802,28	1208,30
802,45	1183,73
802,63	1267,69
802,80	1273,84
802,97	1282,03
803,15	1234,93
803,32	1288,17
803,50	1253,36
803,67	1273,84
803,84	1239,02
804,02	1333,23
804,19	1222,64
804,37	1241,07
804,54	1296,36
804,71	1220,59
804,89	1349,61
805,06	1265,64
805,24	1255,40
805,41	1243,12
805,58	1249,26
805,76	1243,12
805,93	1253,36
806,10	1265,64
806,28	1343,47
806,45	1337,32
806,63	1220,59
806,80	1329,13
806,97	1249,26
807,15	1308,65
807,32	1288,17
807,49	1267,69
807,67	1286,12
807,84	1269,74
808,01	1236,97
808,19	1284,08
808,36	1251,31
808,54	1284,08
808,71	1247,21
808,88	1249,26
809,06	1259,50
809,23	1232,88
809,40	1239,02
809,58	1294,32
809,75	1290,22
809,92	1200,11
810,10	1204,21
810,27	1286,12
810,44	1204,21
810,62	1269,74
810,79	1239,02
810,96	1245,16
811,14	1294,32
811,31	1251,31
811,48	1228,78
811,66	1193,97
811,83	1277,93
812,00	1269,74
812,18	1249,26
812,35	1304,56
812,52	1273,84
812,69	1265,64
812,87	1322,99
813,04	1282,03
813,21	1239,02
813,39	1300,46
813,56	1253,36
813,73	1284,08
813,91	1224,69
814,08	1322,99
814,25	1249,26
814,42	1267,69
814,60	1300,46
814,77	1259,50
814,94	1316,84
815,12	1300,46
815,29	1245,16
815,46	1249,26
815,63	1179,63
815,81	1308,65
815,98	1202,16
816,15	1292,27
816,33	1253,36
816,50	1310,70
816,67	1273,84
816,84	1339,37
817,02	1234,93
817,19	1265,64
817,36	1290,22
817,53	1263,60
817,71	1269,74
817,88	1245,16
818,05	1286,12
818,22	1343,47
818,40	1269,74
818,57	1243,12
818,74	1325,04
818,91	1290,22
819,09	1314,80
819,26	1212,40
819,43	1279,98
819,60	1243,12
819,78	1212,40
819,95	1337,32
820,12	1249,26
820,29	1234,93
820,47	1220,59
820,64	1329,13
820,81	1322,99
820,98	1261,55
821,15	1306,60
821,33	1193,97
821,50	1273,84
821,67	1279,98
821,84	1339,37
822,02	1292,27
822,19	1208,30
822,36	1277,93
822,53	1191,92
822,70	1255,40
822,88	1333,23
823,05	1349,61
823,22	1251,31
823,39	1273,84
823,56	1310,70
823,74	1271,79
823,91	1288,17
824,08	1279,98
824,25	1241,07
824,42	1249,26
824,60	1193,97
824,77	1265,64
824,94	1263,60
825,11	1230,83
825,28	1255,40
825,45	1277,93
825,63	1378,28
825,80	1259,50
825,97	1234,93
826,14	1316,84
826,31	1279,98
826,48	1304,56
826,66	1275,88
826,83	1218,54
827,00	1347,56
827,17	1325,04
827,34	1243,12
827,51	1302,51
827,69	1232,88
827,86	1310,70
828,03	1347,56
828,20	1290,22
828,37	1279,98
828,54	1282,03
828,71	1302,51
828,89	1265,64
829,06	1220,59
829,23	1273,84
829,40	1294,32
829,57	1314,80
829,74	1243,12
829,91	1286,12
830,09	1232,88
830,26	1290,22
830,43	1294,32
830,60	1214,45
830,77	1312,75
830,94	1277,93
831,11	1269,74
831,28	1257,45
831,46	1267,69
831,63	1251,31
831,80	1251,31
831,97	1284,08
832,14	1314,80
832,31	1212,40
832,48	1251,31
832,65	1298,41
832,82	1265,64
832,99	1243,12
833,17	1292,27
833,34	1245,16
833,51	1314,80
833,68	1257,45
833,85	1314,80
834,02	1327,08
834,19	1241,07
834,36	1255,40
834,53	1249,26
834,70	1298,41
834,87	1206,25
835,04	1267,69
835,22	1198,06
835,39	1257,45
835,56	1277,93
835,73	1220,59
835,90	1316,84
836,07	1302,51
836,24	1298,41
836,41	1290,22
836,58	1320,94
836,75	1212,40
836,92	1253,36
837,09	1241,07
837,26	1304,56
837,43	1292,27
837,60	1302,51
837,77	1277,93
837,94	1288,17
838,12	1243,12
838,29	1282,03
838,46	1263,60
838,63	1275,88
838,80	1329,13
838,97	1349,61
839,14	1157,10
839,31	1271,79
839,48	1218,54
839,65	1304,56
839,82	1239,02
839,99	1255,40
840,16	1236,97
840,33	1298,41
840,50	1304,56
840,67	1265,64
840,84	1239,02
841,01	1329,13
841,18	1243,12
841,35	1239,02
841,52	1191,92
841,69	1232,88
841,86	1251,31
842,03	1275,88
842,20	1218,54
842,37	1279,98
842,54	1230,83
842,71	1259,50
842,88	1273,84
843,05	1257,45
843,22	1241,07
843,39	1202,16
843,56	1214,45
843,73	1327,08
843,90	1269,74
844,07	1257,45
844,24	1255,40
844,41	1241,07
844,58	1183,73
844,75	1304,56
844,92	1224,69
845,09	1249,26
845,26	1273,84
845,43	1298,41
845,60	1245,16
845,77	1308,65
845,94	1302,51
846,10	1318,89
846,27	1304,56
846,44	1277,93
846,61	1239,02
846,78	1257,45
846,95	1343,47
847,12	1263,60
847,29	1273,84
847,46	1269,74
847,63	1273,84
847,80	1222,64
847,97	1294,32
848,14	1257,45
848,31	1304,56
848,48	1292,27
848,65	1200,11
848,82	1263,60
848,98	1234,93
849,15	1273,84
849,32	1251,31
849,49	1267,69
849,66	1253,36
849,83	1265,64
850,00	1236,97
850,17	1171,44
850,34	1314,80
850,51	1253,36
850,68	1257,45
850,85	1277,93
851,01	1277,93
851,18	1282,03
851,35	1310,70
851,52	1366,00
851,69	1288,17
851,86	1202,16
852,03	1298,41
852,20	1269,74
852,37	1273,84
852,53	1275,88
852,70	1339,37
852,87	1232,88
853,04	1288,17
853,21	1339,37
853,38	1284,08
853,55	1232,88
853,72	1226,73
853,89	1228,78
854,05	1259,50
854,22	1245,16
854,39	1316,84
854,56	1282,03
854,73	1325,04
854,90	1286,12
855,07	1279,98
855,23	1239,02
855,40	1239,02
855,57	1220,59
855,74	1230,83
855,91	1351,66
856,08	1251,31
856,25	1245,16
856,41	1253,36
856,58	1296,36
856,75	1296,36
856,92	1263,60
857,09	1292,27
857,26	1267,69
857,42	1255,40
857,59	1267,69
857,76	1304,56
857,93	1257,45
858,10	1259,50
858,27	1271,79
858,43	1333,23
858,60	1234,93
858,77	1230,83
858,94	1320,94
859,11	1263,60
859,27	1269,74
859,44	1128,43
859,61	1298,41
859,78	1224,69
859,95	1261,55
860,12	1216,49
860,28	1325,04
860,45	1290,22
860,62	1230,83
860,79	1253,36
860,95	1290,22
861,12	1304,56
861,29	1251,31
861,46	1298,41
861,63	1275,88
861,79	1318,89
861,96	1185,77
862,13	1316,84
862,30	1275,88
862,47	1359,85
862,63	1306,60
862,80	1228,78
862,97	1265,64
863,14	1257,45
863,30	1224,69
863,47	1216,49
863,64	1251,31
863,81	1247,21
863,97	1247,21
864,14	1255,40
864,31	1208,30
864,48	1224,69
864,65	1245,16
864,81	1259,50
864,98	1296,36
865,15	1245,16
865,32	1208,30
865,48	1325,04
865,65	1263,60
865,82	1308,65
865,98	1259,50
866,15	1265,64
866,32	1232,88
866,49	1228,78
866,65	1298,41
866,82	1273,84
866,99	1302,51
867,16	1212,40
867,32	1232,88
867,49	1249,26
867,66	1294,32
867,83	1279,98
867,99	1333,23
868,16	1241,07
868,33	1245,16
868,49	1232,88
868,66	1251,31
868,83	1214,45
868,99	1286,12
869,16	1359,85
869,33	1306,60
869,50	1216,49
869,66	1234,93
869,83	1257,45
870,00	1210,35
870,16	1288,17
870,33	1251,31
870,50	1271,79
870,66	1286,12
870,83	1310,70
871,00	1224,69
871,17	1290,22
871,33	1304,56
871,50	1202,16
871,67	1279,98
871,83	1257,45
872,00	1253,36
872,17	1292,27
872,33	1232,88
872,50	1325,04
872,67	1191,92
872,83	1257,45
873,00	1288,17
873,17	1286,12
873,33	1243,12
873,50	1251,31
873,67	1269,74
873,83	1206,25
874,00	1320,94
874,16	1273,84
874,33	1255,40
874,50	1275,88
874,66	1277,93
874,83	1288,17
875,00	1220,59
875,16	1290,22
875,33	1214,45
875,50	1322,99
875,66	1253,36
875,83	1282,03
875,99	1302,51
876,16	1308,65
876,33	1253,36
876,49	1230,83
876,66	1224,69
876,83	1239,02
876,99	1257,45
877,16	1292,27
877,32	1308,65
877,49	1249,26
877,66	1300,46
877,82	1228,78
877,99	1183,73
878,15	1308,65
878,32	1294,32
878,49	1265,64
878,65	1314,80
878,82	1312,75
878,98	1232,88
879,15	1300,46
879,32	1198,06
879,48	1247,21
879,65	1224,69
879,81	1263,60
879,98	1224,69
880,15	1196,01
880,31	1259,50
880,48	1165,29
880,64	1202,16
880,81	1282,03
880,97	1294,32
881,14	1249,26
881,31	1212,40
881,47	1290,22
881,64	1267,69
881,80	1232,88
881,97	1310,70
882,13	1290,22
882,30	1288,17
882,47	1230,83
882,63	1304,56
882,80	1329,13
882,96	1183,73
883,13	1249,26
883,29	1249,26
883,46	1298,41
883,62	1251,31
883,79	1335,28
883,95	1232,88
884,12	1243,12
884,29	1208,30
884,45	1265,64
884,62	1200,11
884,78	1279,98
884,95	1288,17
885,11	1175,53
885,28	1236,97
885,44	1308,65
885,61	1294,32
885,77	1300,46
885,94	1306,60
886,10	1294,32
886,27	1325,04
886,43	1331,18
886,60	1196,01
886,76	1269,74
886,93	1296,36
887,09	1232,88
887,26	1257,45
887,42	1279,98
887,59	1236,97
887,75	1329,13
887,92	1253,36
888,08	1259,50
888,25	1265,64
888,41	1282,03
888,58	1277,93
888,74	1257,45
888,91	1286,12
>>>>>End Processed Spectral Data<<<<<
