SpectraSuite Data File
++++++++++++++++++++++++++++++++++++
Date: Sun Apr 03 16:10:34 CEST 2016
User: root
Dark Spectrum Present: No
Reference Spectrum Present: No
Number of Sampled Component Spectra: 1
Spectrometers: USB4C02835
Integration Time (usec): 10000 (USB4C02835)
Spectra Averaged: 1 (USB4C02835)
Boxcar Smoothing: 0 (USB4C02835)
Correct for Electrical Dark: No (USB4C02835)
Strobe/Lamp Enabled: No (USB4C02835)
Correct for Detector Non-linearity: No (USB4C02835)
Correct for Stray Light: No (USB4C02835)
Number of Pixels in Processed Spectrum: 3648
>>>>>Begin Processed Spectral Data<<<<<
177,47	1292,27
177,69	1292,27
177,91	1292,27
178,13	1277,93
178,36	1308,65
178,58	1243,12
178,80	1257,45
179,02	1251,31
179,24	1239,02
179,46	1245,16
179,68	1239,02
179,90	1232,88
180,13	1249,26
180,35	1288,17
180,57	1255,40
180,79	1267,69
181,01	1228,78
181,23	1279,98
181,45	1316,84
181,67	1222,64
181,90	1259,50
182,12	1251,31
182,34	1290,22
182,56	1177,58
182,78	1275,88
183,00	1294,32
183,22	1241,07
183,44	1206,25
183,66	1290,22
183,89	1269,74
184,11	1273,84
184,33	1277,93
184,55	1265,64
184,77	1363,95
184,99	1249,26
185,21	1183,73
185,43	1320,94
185,65	1265,64
185,87	1296,36
186,10	1220,59
186,32	1279,98
186,54	1210,35
186,76	1224,69
186,98	1236,97
187,20	1245,16
187,42	1253,36
187,64	1368,04
187,86	1296,36
188,08	1292,27
188,30	1304,56
188,52	1181,68
188,75	1200,11
188,97	1263,60
189,19	1267,69
189,41	1337,32
189,63	1222,64
189,85	1261,55
190,07	1279,98
190,29	1230,83
190,51	1222,64
190,73	1253,36
190,95	1243,12
191,17	1200,11
191,39	1294,32
191,61	1296,36
191,84	1306,60
192,06	1216,49
192,28	1204,21
192,50	1263,60
192,72	1167,34
192,94	1286,12
193,16	1220,59
193,38	1249,26
193,60	1249,26
193,82	1226,73
194,04	1249,26
194,26	1282,03
194,48	1275,88
194,70	1243,12
194,92	1292,27
195,14	1247,21
195,36	1275,88
195,58	1343,47
195,80	1290,22
196,02	1290,22
196,24	1310,70
196,46	1310,70
196,69	1230,83
196,91	1259,50
197,13	1243,12
197,35	1226,73
197,57	1228,78
197,79	1312,75
198,01	1306,60
198,23	1286,12
198,45	1263,60
198,67	1306,60
198,89	1294,32
199,11	1273,84
199,33	1290,22
199,55	1298,41
199,77	1251,31
199,99	1218,54
200,21	1292,27
200,43	1298,41
200,65	1255,40
200,87	1253,36
201,09	1318,89
201,31	1347,56
201,53	1222,64
201,75	1189,87
201,97	1290,22
202,19	1251,31
202,41	1279,98
202,63	1353,71
202,85	1255,40
203,07	1222,64
203,29	1300,46
203,51	1290,22
203,73	1275,88
203,95	1271,79
204,17	1288,17
204,39	1277,93
204,61	1353,71
204,83	1284,08
205,05	1251,31
205,27	1279,98
205,49	1273,84
205,71	1214,45
205,93	1337,32
206,15	1284,08
206,37	1302,51
206,59	1290,22
206,81	1222,64
207,03	1288,17
207,25	1277,93
207,47	1226,73
207,69	1286,12
207,91	1269,74
208,13	1298,41
208,34	1267,69
208,56	1318,89
208,78	1282,03
209,00	1245,16
209,22	1316,84
209,44	1251,31
209,66	1271,79
209,88	1234,93
210,10	1335,28
210,32	1296,36
210,54	1241,07
210,76	1282,03
210,98	1306,60
211,20	1337,32
211,42	1236,97
211,64	1253,36
211,86	1316,84
212,08	1320,94
212,30	1263,60
212,52	1290,22
212,74	1331,18
212,96	1296,36
213,17	1265,64
213,39	1322,99
213,61	1333,23
213,83	1273,84
214,05	1302,51
214,27	1298,41
214,49	1200,11
214,71	1273,84
214,93	1279,98
215,15	1226,73
215,37	1310,70
215,59	1277,93
215,81	1239,02
216,03	1284,08
216,24	1282,03
216,46	1314,80
216,68	1320,94
216,90	1200,11
217,12	1265,64
217,34	1329,13
217,56	1282,03
217,78	1294,32
218,00	1222,64
218,22	1216,49
218,44	1271,79
218,66	1314,80
218,87	1337,32
219,09	1249,26
219,31	1282,03
219,53	1253,36
219,75	1380,33
219,97	1239,02
220,19	1236,97
220,41	1304,56
220,63	1249,26
220,85	1294,32
221,06	1257,45
221,28	1241,07
221,50	1337,32
221,72	1220,59
221,94	1363,95
222,16	1314,80
222,38	1275,88
222,60	1347,56
222,82	1312,75
223,03	1218,54
223,25	1255,40
223,47	1310,70
223,69	1259,50
223,91	1265,64
224,13	1214,45
224,35	1294,32
224,57	1232,88
224,78	1267,69
225,00	1263,60
225,22	1210,35
225,44	1269,74
225,66	1343,47
225,88	1290,22
226,10	1261,55
226,32	1271,79
226,53	1275,88
226,75	1290,22
226,97	1247,21
227,19	1267,69
227,41	1345,52
227,63	1261,55
227,85	1230,83
228,06	1286,12
228,28	1243,12
228,50	1275,88
228,72	1247,21
228,94	1265,64
229,16	1212,40
229,37	1302,51
229,59	1327,08
229,81	1327,08
230,03	1277,93
230,25	1241,07
230,47	1335,28
230,69	1277,93
230,90	1273,84
231,12	1341,42
231,34	1273,84
231,56	1261,55
231,78	1261,55
232,00	1265,64
232,21	1261,55
232,43	1249,26
232,65	1230,83
232,87	1357,80
233,09	1294,32
233,30	1265,64
233,52	1271,79
233,74	1320,94
233,96	1263,60
234,18	1255,40
234,40	1253,36
234,61	1257,45
234,83	1243,12
235,05	1196,01
235,27	1335,28
235,49	1249,26
235,70	1251,31
235,92	1236,97
236,14	1302,51
236,36	1277,93
236,58	1216,49
236,79	1265,64
237,01	1269,74
237,23	1335,28
237,45	1222,64
237,67	1288,17
237,88	1310,70
238,10	1224,69
238,32	1200,11
238,54	1277,93
238,76	1230,83
238,97	1339,37
239,19	1288,17
239,41	1294,32
239,63	1241,07
239,85	1294,32
240,06	1300,46
240,28	1224,69
240,50	1267,69
240,72	1318,89
240,93	1273,84
241,15	1255,40
241,37	1329,13
241,59	1265,64
241,81	1290,22
242,02	1257,45
242,24	1265,64
242,46	1345,52
242,68	1300,46
242,89	1251,31
243,11	1304,56
243,33	1193,97
243,55	1261,55
243,76	1232,88
243,98	1247,21
244,20	1245,16
244,42	1304,56
244,64	1304,56
244,85	1259,50
245,07	1253,36
245,29	1290,22
245,51	1318,89
245,72	1284,08
245,94	1216,49
246,16	1253,36
246,38	1239,02
246,59	1304,56
246,81	1257,45
247,03	1267,69
247,24	1271,79
247,46	1263,60
247,68	1179,63
247,90	1292,27
248,11	1275,88
248,33	1300,46
248,55	1232,88
248,77	1247,21
248,98	1259,50
249,20	1300,46
249,42	1302,51
249,64	1296,36
249,85	1245,16
250,07	1273,84
250,29	1320,94
250,50	1241,07
250,72	1337,32
250,94	1282,03
251,16	1298,41
251,37	1292,27
251,59	1279,98
251,81	1314,80
252,02	1294,32
252,24	1286,12
252,46	1284,08
252,68	1263,60
252,89	1282,03
253,11	1210,35
253,33	1224,69
253,54	1253,36
253,76	1302,51
253,98	1214,45
254,20	1247,21
254,41	1249,26
254,63	1236,97
254,85	1222,64
255,06	1269,74
255,28	1306,60
255,50	1183,73
255,71	1316,84
255,93	1335,28
256,15	1320,94
256,36	1249,26
256,58	1241,07
256,80	1337,32
257,02	1282,03
257,23	1290,22
257,45	1273,84
257,67	1259,50
257,88	1243,12
258,10	1265,64
258,32	1232,88
258,53	1337,32
258,75	1200,11
258,97	1331,18
259,18	1222,64
259,40	1204,21
259,62	1214,45
259,83	1257,45
260,05	1302,51
260,27	1247,21
260,48	1290,22
260,70	1236,97
260,92	1300,46
261,13	1302,51
261,35	1261,55
261,57	1261,55
261,78	1273,84
262,00	1249,26
262,22	1273,84
262,43	1306,60
262,65	1333,23
262,86	1228,78
263,08	1228,78
263,30	1241,07
263,51	1312,75
263,73	1294,32
263,95	1236,97
264,16	1228,78
264,38	1306,60
264,60	1245,16
264,81	1193,97
265,03	1263,60
265,25	1275,88
265,46	1300,46
265,68	1282,03
265,89	1331,18
266,11	1208,30
266,33	1320,94
266,54	1239,02
266,76	1259,50
266,98	1267,69
267,19	1378,28
267,41	1253,36
267,62	1249,26
267,84	1310,70
268,06	1243,12
268,27	1251,31
268,49	1310,70
268,70	1308,65
268,92	1167,34
269,14	1290,22
269,35	1322,99
269,57	1269,74
269,79	1288,17
270,00	1288,17
270,22	1249,26
270,43	1234,93
270,65	1282,03
270,87	1196,01
271,08	1277,93
271,30	1279,98
271,51	1304,56
271,73	1306,60
271,95	1306,60
272,16	1243,12
272,38	1273,84
272,59	1261,55
272,81	1304,56
273,02	1288,17
273,24	1322,99
273,46	1216,49
273,67	1200,11
273,89	1284,08
274,10	1288,17
274,32	1261,55
274,54	1179,63
274,75	1234,93
274,97	1200,11
275,18	1257,45
275,40	1239,02
275,61	1275,88
275,83	1200,11
276,05	1271,79
276,26	1247,21
276,48	1290,22
276,69	1335,28
276,91	1243,12
277,12	1277,93
277,34	1288,17
277,55	1314,80
277,77	1263,60
277,99	1298,41
278,20	1193,97
278,42	1224,69
278,63	1288,17
278,85	1249,26
279,06	1206,25
279,28	1290,22
279,49	1339,37
279,71	1279,98
279,93	1269,74
280,14	1269,74
280,36	1308,65
280,57	1245,16
280,79	1290,22
281,00	1279,98
281,22	1290,22
281,43	1214,45
281,65	1241,07
281,86	1241,07
282,08	1241,07
282,29	1239,02
282,51	1261,55
282,73	1296,36
282,94	1292,27
283,16	1310,70
283,37	1327,08
283,59	1255,40
283,80	1290,22
284,02	1298,41
284,23	1269,74
284,45	1282,03
284,66	1304,56
284,88	1288,17
285,09	1286,12
285,31	1273,84
285,52	1241,07
285,74	1273,84
285,95	1179,63
286,17	1296,36
286,38	1298,41
286,60	1339,37
286,81	1300,46
287,03	1282,03
287,24	1267,69
287,46	1277,93
287,67	1239,02
287,89	1292,27
288,10	1245,16
288,32	1232,88
288,53	1306,60
288,75	1308,65
288,96	1222,64
289,18	1282,03
289,39	1222,64
289,61	1267,69
289,82	1263,60
290,04	1314,80
290,25	1282,03
290,47	1288,17
290,68	1241,07
290,90	1312,75
291,11	1259,50
291,33	1175,53
291,54	1257,45
291,76	1232,88
291,97	1284,08
292,18	1257,45
292,40	1230,83
292,61	1339,37
292,83	1245,16
293,04	1294,32
293,26	1327,08
293,47	1310,70
293,69	1212,40
293,90	1234,93
294,12	1279,98
294,33	1224,69
294,55	1269,74
294,76	1236,97
294,97	1316,84
295,19	1265,64
295,40	1255,40
295,62	1306,60
295,83	1331,18
296,05	1294,32
296,26	1277,93
296,48	1187,82
296,69	1232,88
296,90	1279,98
297,12	1275,88
297,33	1314,80
297,55	1277,93
297,76	1292,27
297,98	1224,69
298,19	1292,27
298,41	1322,99
298,62	1275,88
298,83	1275,88
299,05	1261,55
299,26	1247,21
299,48	1271,79
299,69	1304,56
299,90	1239,02
300,12	1228,78
300,33	1251,31
300,55	1308,65
300,76	1279,98
300,98	1261,55
301,19	1257,45
301,40	1259,50
301,62	1247,21
301,83	1208,30
302,05	1290,22
302,26	1230,83
302,47	1230,83
302,69	1341,42
302,90	1298,41
303,12	1255,40
303,33	1271,79
303,54	1216,49
303,76	1220,59
303,97	1320,94
304,19	1325,04
304,40	1279,98
304,61	1222,64
304,83	1351,66
305,04	1271,79
305,26	1228,78
305,47	1288,17
305,68	1144,81
305,90	1304,56
306,11	1261,55
306,33	1366,00
306,54	1255,40
306,75	1271,79
306,97	1310,70
307,18	1271,79
307,39	1312,75
307,61	1300,46
307,82	1284,08
308,04	1329,13
308,25	1273,84
308,46	1259,50
308,68	1312,75
308,89	1257,45
309,10	1216,49
309,32	1304,56
309,53	1255,40
309,74	1257,45
309,96	1245,16
310,17	1310,70
310,39	1300,46
310,60	1277,93
310,81	1275,88
311,03	1232,88
311,24	1249,26
311,45	1210,35
311,67	1279,98
311,88	1279,98
312,09	1228,78
312,31	1339,37
312,52	1236,97
312,73	1267,69
312,95	1347,56
313,16	1355,76
313,37	1267,69
313,59	1208,30
313,80	1273,84
314,01	1345,52
314,23	1191,92
314,44	1253,36
314,65	1312,75
314,87	1359,85
315,08	1140,72
315,29	1257,45
315,51	1271,79
315,72	1255,40
315,93	1279,98
316,15	1255,40
316,36	1243,12
316,57	1329,13
316,79	1296,36
317,00	1277,93
317,21	1257,45
317,43	1265,64
317,64	1306,60
317,85	1316,84
318,07	1282,03
318,28	1273,84
318,49	1191,92
318,70	1259,50
318,92	1232,88
319,13	1200,11
319,34	1214,45
319,56	1214,45
319,77	1261,55
319,98	1218,54
320,20	1286,12
320,41	1239,02
320,62	1228,78
320,83	1259,50
321,05	1363,95
321,26	1312,75
321,47	1257,45
321,69	1300,46
321,90	1306,60
322,11	1257,45
322,32	1269,74
322,54	1271,79
322,75	1312,75
322,96	1265,64
323,18	1322,99
323,39	1249,26
323,60	1263,60
323,81	1337,32
324,03	1263,60
324,24	1253,36
324,45	1222,64
324,66	1275,88
324,88	1288,17
325,09	1288,17
325,30	1296,36
325,52	1265,64
325,73	1269,74
325,94	1232,88
326,15	1214,45
326,37	1216,49
326,58	1220,59
326,79	1294,32
327,00	1318,89
327,22	1239,02
327,43	1236,97
327,64	1273,84
327,85	1245,16
328,07	1314,80
328,28	1259,50
328,49	1282,03
328,70	1214,45
328,92	1261,55
329,13	1259,50
329,34	1228,78
329,55	1247,21
329,76	1290,22
329,98	1253,36
330,19	1261,55
330,40	1335,28
330,61	1183,73
330,83	1210,35
331,04	1273,84
331,25	1245,16
331,46	1220,59
331,68	1279,98
331,89	1202,16
332,10	1232,88
332,31	1290,22
332,52	1183,73
332,74	1253,36
332,95	1226,73
333,16	1271,79
333,37	1275,88
333,58	1267,69
333,80	1277,93
334,01	1298,41
334,22	1251,31
334,43	1277,93
334,64	1282,03
334,86	1220,59
335,07	1282,03
335,28	1257,45
335,49	1331,18
335,70	1277,93
335,92	1282,03
336,13	1370,09
336,34	1296,36
336,55	1282,03
336,76	1269,74
336,98	1282,03
337,19	1247,21
337,40	1284,08
337,61	1290,22
337,82	1310,70
338,04	1259,50
338,25	1247,21
338,46	1298,41
338,67	1247,21
338,88	1288,17
339,09	1208,30
339,31	1339,37
339,52	1214,45
339,73	1212,40
339,94	1216,49
340,15	1206,25
340,36	1308,65
340,58	1245,16
340,79	1310,70
341,00	1255,40
341,21	1265,64
341,42	1265,64
341,63	1218,54
341,85	1167,34
342,06	1296,36
342,27	1232,88
342,48	1261,55
342,69	1259,50
342,90	1279,98
343,12	1290,22
343,33	1222,64
343,54	1261,55
343,75	1263,60
343,96	1282,03
344,17	1234,93
344,38	1294,32
344,60	1230,83
344,81	1243,12
345,02	1234,93
345,23	1320,94
345,44	1300,46
345,65	1292,27
345,86	1345,52
346,07	1298,41
346,29	1271,79
346,50	1322,99
346,71	1302,51
346,92	1249,26
347,13	1193,97
347,34	1284,08
347,55	1282,03
347,76	1228,78
347,98	1269,74
348,19	1277,93
348,40	1318,89
348,61	1220,59
348,82	1304,56
349,03	1271,79
349,24	1300,46
349,45	1294,32
349,66	1296,36
349,88	1277,93
350,09	1333,23
350,30	1253,36
350,51	1269,74
350,72	1259,50
350,93	1320,94
351,14	1275,88
351,35	1282,03
351,56	1220,59
351,77	1302,51
351,99	1259,50
352,20	1306,60
352,41	1292,27
352,62	1232,88
352,83	1288,17
353,04	1234,93
353,25	1265,64
353,46	1282,03
353,67	1277,93
353,88	1357,80
354,09	1234,93
354,30	1253,36
354,52	1249,26
354,73	1255,40
354,94	1292,27
355,15	1275,88
355,36	1306,60
355,57	1284,08
355,78	1314,80
355,99	1234,93
356,20	1249,26
356,41	1294,32
356,62	1347,56
356,83	1314,80
357,04	1292,27
357,25	1249,26
357,46	1273,84
357,68	1312,75
357,89	1232,88
358,10	1329,13
358,31	1224,69
358,52	1234,93
358,73	1292,27
358,94	1271,79
359,15	1247,21
359,36	1232,88
359,57	1220,59
359,78	1306,60
359,99	1282,03
360,20	1239,02
360,41	1329,13
360,62	1253,36
360,83	1267,69
361,04	1296,36
361,25	1261,55
361,46	1279,98
361,67	1298,41
361,88	1296,36
362,09	1310,70
362,30	1275,88
362,51	1345,52
362,72	1298,41
362,93	1282,03
363,14	1202,16
363,35	1236,97
363,56	1300,46
363,78	1253,36
363,99	1224,69
364,20	1263,60
364,41	1275,88
364,62	1198,06
364,83	1253,36
365,04	1267,69
365,25	1263,60
365,46	1310,70
365,67	1298,41
365,88	1269,74
366,09	1239,02
366,30	1261,55
366,51	1322,99
366,72	1257,45
366,93	1222,64
367,14	1331,18
367,35	1249,26
367,56	1230,83
367,77	1241,07
367,98	1279,98
368,18	1228,78
368,39	1284,08
368,60	1261,55
368,81	1263,60
369,02	1249,26
369,23	1302,51
369,44	1208,30
369,65	1284,08
369,86	1191,92
370,07	1308,65
370,28	1239,02
370,49	1298,41
370,70	1228,78
370,91	1284,08
371,12	1339,37
371,33	1185,77
371,54	1284,08
371,75	1292,27
371,96	1220,59
372,17	1212,40
372,38	1259,50
372,59	1267,69
372,80	1198,06
373,01	1312,75
373,22	1269,74
373,43	1234,93
373,64	1251,31
373,85	1314,80
374,06	1288,17
374,26	1282,03
374,47	1282,03
374,68	1261,55
374,89	1255,40
375,10	1304,56
375,31	1279,98
375,52	1290,22
375,73	1214,45
375,94	1296,36
376,15	1249,26
376,36	1267,69
376,57	1251,31
376,78	1300,46
376,99	1224,69
377,20	1230,83
377,40	1312,75
377,61	1255,40
377,82	1216,49
378,03	1275,88
378,24	1247,21
378,45	1318,89
378,66	1331,18
378,87	1306,60
379,08	1277,93
379,29	1286,12
379,50	1255,40
379,71	1253,36
379,91	1284,08
380,12	1271,79
380,33	1208,30
380,54	1247,21
380,75	1228,78
380,96	1243,12
381,17	1343,47
381,38	1245,16
381,59	1251,31
381,80	1202,16
382,00	1316,84
382,21	1298,41
382,42	1216,49
382,63	1310,70
382,84	1228,78
383,05	1212,40
383,26	1298,41
383,47	1282,03
383,68	1232,88
383,88	1230,83
384,09	1298,41
384,30	1243,12
384,51	1310,70
384,72	1271,79
384,93	1241,07
385,14	1318,89
385,35	1241,07
385,55	1312,75
385,76	1286,12
385,97	1230,83
386,18	1265,64
386,39	1255,40
386,60	1314,80
386,81	1251,31
387,02	1247,21
387,22	1228,78
387,43	1269,74
387,64	1257,45
387,85	1230,83
388,06	1296,36
388,27	1304,56
388,48	1232,88
388,68	1331,18
388,89	1253,36
389,10	1286,12
389,31	1277,93
389,52	1304,56
389,73	1306,60
389,93	1165,29
390,14	1314,80
390,35	1302,51
390,56	1277,93
390,77	1331,18
390,98	1288,17
391,18	1339,37
391,39	1341,42
391,60	1275,88
391,81	1173,49
392,02	1279,98
392,23	1232,88
392,43	1241,07
392,64	1349,61
392,85	1245,16
393,06	1269,74
393,27	1292,27
393,47	1191,92
393,68	1263,60
393,89	1302,51
394,10	1236,97
394,31	1241,07
394,52	1253,36
394,72	1257,45
394,93	1304,56
395,14	1269,74
395,35	1234,93
395,56	1220,59
395,76	1220,59
395,97	1310,70
396,18	1357,80
396,39	1271,79
396,60	1259,50
396,80	1345,52
397,01	1306,60
397,22	1251,31
397,43	1216,49
397,64	1249,26
397,84	1306,60
398,05	1261,55
398,26	1253,36
398,47	1271,79
398,67	1265,64
398,88	1226,73
399,09	1333,23
399,30	1284,08
399,51	1290,22
399,71	1210,35
399,92	1239,02
400,13	1173,49
400,34	1265,64
400,54	1282,03
400,75	1261,55
400,96	1243,12
401,17	1245,16
401,37	1257,45
401,58	1216,49
401,79	1269,74
402,00	1243,12
402,21	1288,17
402,41	1298,41
402,62	1316,84
402,83	1292,27
403,04	1261,55
403,24	1294,32
403,45	1228,78
403,66	1296,36
403,87	1290,22
404,07	1271,79
404,28	1320,94
404,49	1329,13
404,70	1224,69
404,90	1224,69
405,11	1290,22
405,32	1226,73
405,52	1279,98
405,73	1243,12
405,94	1273,84
406,15	1239,02
406,35	1249,26
406,56	1275,88
406,77	1253,36
406,98	1249,26
407,18	1277,93
407,39	1253,36
407,60	1224,69
407,80	1253,36
408,01	1220,59
408,22	1249,26
408,43	1290,22
408,63	1286,12
408,84	1267,69
409,05	1294,32
409,25	1263,60
409,46	1296,36
409,67	1277,93
409,88	1282,03
410,08	1288,17
410,29	1345,52
410,50	1187,82
410,70	1206,25
410,91	1296,36
411,12	1349,61
411,32	1290,22
411,53	1228,78
411,74	1236,97
411,95	1206,25
412,15	1294,32
412,36	1263,60
412,57	1247,21
412,77	1232,88
412,98	1320,94
413,19	1239,02
413,39	1269,74
413,60	1296,36
413,81	1279,98
414,01	1269,74
414,22	1275,88
414,43	1286,12
414,63	1308,65
414,84	1290,22
415,05	1316,84
415,25	1347,56
415,46	1257,45
415,67	1282,03
415,87	1269,74
416,08	1292,27
416,29	1210,35
416,49	1273,84
416,70	1263,60
416,91	1288,17
417,11	1333,23
417,32	1236,97
417,53	1316,84
417,73	1249,26
417,94	1236,97
418,15	1271,79
418,35	1228,78
418,56	1245,16
418,77	1351,66
418,97	1251,31
419,18	1228,78
419,38	1210,35
419,59	1257,45
419,80	1257,45
420,00	1282,03
420,21	1247,21
420,42	1370,09
420,62	1296,36
420,83	1273,84
421,04	1298,41
421,24	1271,79
421,45	1263,60
421,65	1271,79
421,86	1191,92
422,07	1269,74
422,27	1302,51
422,48	1255,40
422,69	1251,31
422,89	1314,80
423,10	1304,56
423,30	1257,45
423,51	1273,84
423,72	1322,99
423,92	1331,18
424,13	1282,03
424,33	1302,51
424,54	1302,51
424,75	1322,99
424,95	1263,60
425,16	1261,55
425,36	1230,83
425,57	1210,35
425,78	1286,12
425,98	1279,98
426,19	1185,77
426,39	1200,11
426,60	1220,59
426,81	1263,60
427,01	1316,84
427,22	1331,18
427,42	1320,94
427,63	1269,74
427,83	1206,25
428,04	1257,45
428,25	1322,99
428,45	1318,89
428,66	1208,30
428,86	1249,26
429,07	1269,74
429,28	1200,11
429,48	1236,97
429,69	1257,45
429,89	1310,70
430,10	1243,12
430,30	1288,17
430,51	1273,84
430,71	1253,36
430,92	1249,26
431,13	1189,87
431,33	1243,12
431,54	1230,83
431,74	1282,03
431,95	1282,03
432,15	1261,55
432,36	1290,22
432,56	1388,52
432,77	1251,31
432,98	1294,32
433,18	1314,80
433,39	1284,08
433,59	1322,99
433,80	1222,64
434,00	1251,31
434,21	1253,36
434,41	1331,18
434,62	1241,07
434,82	1357,80
435,03	1249,26
435,23	1279,98
435,44	1224,69
435,64	1282,03
435,85	1282,03
436,06	1245,16
436,26	1310,70
436,47	1251,31
436,67	1298,41
436,88	1298,41
437,08	1329,13
437,29	1241,07
437,49	1269,74
437,70	1277,93
437,90	1206,25
438,11	1236,97
438,31	1261,55
438,52	1196,01
438,72	1226,73
438,93	1224,69
439,13	1263,60
439,34	1290,22
439,54	1335,28
439,75	1310,70
439,95	1261,55
440,16	1271,79
440,36	1279,98
440,57	1329,13
440,77	1290,22
440,98	1302,51
441,18	1245,16
441,39	1312,75
441,59	1224,69
441,80	1200,11
442,00	1208,30
442,21	1294,32
442,41	1255,40
442,62	1263,60
442,82	1288,17
443,02	1208,30
443,23	1263,60
443,43	1279,98
443,64	1259,50
443,84	1230,83
444,05	1284,08
444,25	1290,22
444,46	1314,80
444,66	1253,36
444,87	1306,60
445,07	1271,79
445,28	1196,01
445,48	1239,02
445,69	1273,84
445,89	1273,84
446,09	1245,16
446,30	1222,64
446,50	1296,36
446,71	1294,32
446,91	1341,42
447,12	1239,02
447,32	1314,80
447,53	1220,59
447,73	1263,60
447,93	1275,88
448,14	1267,69
448,34	1300,46
448,55	1271,79
448,75	1212,40
448,96	1216,49
449,16	1216,49
449,36	1298,41
449,57	1259,50
449,77	1286,12
449,98	1265,64
450,18	1236,97
450,39	1290,22
450,59	1279,98
450,79	1273,84
451,00	1253,36
451,20	1310,70
451,41	1298,41
451,61	1243,12
451,81	1224,69
452,02	1259,50
452,22	1198,06
452,43	1302,51
452,63	1251,31
452,84	1308,65
453,04	1216,49
453,24	1286,12
453,45	1292,27
453,65	1298,41
453,86	1224,69
454,06	1271,79
454,26	1286,12
454,47	1296,36
454,67	1249,26
454,87	1331,18
455,08	1341,42
455,28	1181,68
455,49	1232,88
455,69	1265,64
455,89	1247,21
456,10	1312,75
456,30	1249,26
456,51	1239,02
456,71	1279,98
456,91	1353,71
457,12	1255,40
457,32	1273,84
457,52	1236,97
457,73	1214,45
457,93	1232,88
458,14	1271,79
458,34	1265,64
458,54	1243,12
458,75	1282,03
458,95	1282,03
459,15	1265,64
459,36	1282,03
459,56	1320,94
459,76	1277,93
459,97	1267,69
460,17	1269,74
460,37	1279,98
460,58	1282,03
460,78	1306,60
460,99	1294,32
461,19	1222,64
461,39	1230,83
461,60	1312,75
461,80	1290,22
462,00	1204,21
462,21	1230,83
462,41	1277,93
462,61	1271,79
462,82	1290,22
463,02	1228,78
463,22	1247,21
463,43	1259,50
463,63	1306,60
463,83	1277,93
464,04	1189,87
464,24	1200,11
464,44	1230,83
464,64	1249,26
464,85	1273,84
465,05	1269,74
465,25	1249,26
465,46	1198,06
465,66	1308,65
465,86	1193,97
466,07	1304,56
466,27	1298,41
466,47	1273,84
466,68	1298,41
466,88	1267,69
467,08	1239,02
467,29	1292,27
467,49	1284,08
467,69	1234,93
467,89	1290,22
468,10	1269,74
468,30	1193,97
468,50	1294,32
468,71	1284,08
468,91	1298,41
469,11	1298,41
469,31	1230,83
469,52	1210,35
469,72	1302,51
469,92	1355,76
470,13	1249,26
470,33	1239,02
470,53	1284,08
470,73	1247,21
470,94	1314,80
471,14	1290,22
471,34	1249,26
471,54	1253,36
471,75	1296,36
471,95	1302,51
472,15	1349,61
472,36	1325,04
472,56	1247,21
472,76	1296,36
472,96	1306,60
473,17	1273,84
473,37	1306,60
473,57	1279,98
473,77	1177,58
473,98	1325,04
474,18	1212,40
474,38	1216,49
474,58	1245,16
474,79	1382,38
474,99	1325,04
475,19	1253,36
475,39	1286,12
475,60	1275,88
475,80	1306,60
476,00	1286,12
476,20	1273,84
476,41	1220,59
476,61	1294,32
476,81	1269,74
477,01	1279,98
477,21	1265,64
477,42	1261,55
477,62	1269,74
477,82	1345,52
478,02	1265,64
478,23	1335,28
478,43	1296,36
478,63	1273,84
478,83	1265,64
479,03	1257,45
479,24	1255,40
479,44	1345,52
479,64	1263,60
479,84	1263,60
480,04	1220,59
480,25	1214,45
480,45	1312,75
480,65	1249,26
480,85	1316,84
481,06	1308,65
481,26	1222,64
481,46	1271,79
481,66	1273,84
481,86	1224,69
482,06	1259,50
482,27	1349,61
482,47	1304,56
482,67	1218,54
482,87	1257,45
483,07	1376,24
483,28	1331,18
483,48	1247,21
483,68	1304,56
483,88	1239,02
484,08	1232,88
484,29	1255,40
484,49	1234,93
484,69	1269,74
484,89	1202,16
485,09	1241,07
485,29	1216,49
485,50	1228,78
485,70	1253,36
485,90	1292,27
486,10	1249,26
486,30	1277,93
486,50	1253,36
486,71	1265,64
486,91	1265,64
487,11	1277,93
487,31	1212,40
487,51	1220,59
487,71	1243,12
487,91	1239,02
488,12	1216,49
488,32	1296,36
488,52	1234,93
488,72	1239,02
488,92	1239,02
489,12	1230,83
489,32	1220,59
489,53	1257,45
489,73	1331,18
489,93	1241,07
490,13	1302,51
490,33	1253,36
490,53	1224,69
490,73	1314,80
490,94	1300,46
491,14	1271,79
491,34	1253,36
491,54	1263,60
491,74	1271,79
491,94	1265,64
492,14	1251,31
492,34	1308,65
492,54	1265,64
492,75	1212,40
492,95	1257,45
493,15	1263,60
493,35	1267,69
493,55	1230,83
493,75	1239,02
493,95	1271,79
494,15	1288,17
494,35	1343,47
494,56	1239,02
494,76	1304,56
494,96	1269,74
495,16	1179,63
495,36	1322,99
495,56	1284,08
495,76	1202,16
495,96	1216,49
496,16	1226,73
496,36	1316,84
496,56	1212,40
496,77	1247,21
496,97	1263,60
497,17	1275,88
497,37	1259,50
497,57	1300,46
497,77	1253,36
497,97	1263,60
498,17	1271,79
498,37	1288,17
498,57	1243,12
498,77	1261,55
498,97	1259,50
499,17	1335,28
499,38	1331,18
499,58	1234,93
499,78	1298,41
499,98	1398,76
500,18	1245,16
500,38	1335,28
500,58	1255,40
500,78	1355,76
500,98	1234,93
501,18	1267,69
501,38	1243,12
501,58	1273,84
501,78	1245,16
501,98	1255,40
502,18	1224,69
502,38	1392,62
502,58	1230,83
502,78	1275,88
502,98	1286,12
503,18	1343,47
503,38	1239,02
503,59	1329,13
503,79	1265,64
503,99	1273,84
504,19	1296,36
504,39	1222,64
504,59	1218,54
504,79	1187,82
504,99	1224,69
505,19	1331,18
505,39	1312,75
505,59	1277,93
505,79	1273,84
505,99	1288,17
506,19	1300,46
506,39	1249,26
506,59	1228,78
506,79	1275,88
506,99	1200,11
507,19	1251,31
507,39	1216,49
507,59	1335,28
507,79	1224,69
507,99	1359,85
508,19	1236,97
508,39	1232,88
508,59	1273,84
508,79	1263,60
508,99	1234,93
509,19	1247,21
509,39	1196,01
509,59	1286,12
509,79	1193,97
509,99	1296,36
510,19	1257,45
510,39	1224,69
510,59	1265,64
510,79	1347,56
510,99	1286,12
511,19	1234,93
511,39	1241,07
511,59	1312,75
511,79	1228,78
511,99	1304,56
512,19	1251,31
512,38	1275,88
512,58	1255,40
512,78	1259,50
512,98	1300,46
513,18	1173,49
513,38	1267,69
513,58	1234,93
513,78	1269,74
513,98	1322,99
514,18	1290,22
514,38	1177,58
514,58	1300,46
514,78	1239,02
514,98	1236,97
515,18	1284,08
515,38	1228,78
515,58	1275,88
515,78	1208,30
515,98	1296,36
516,18	1243,12
516,38	1271,79
516,57	1290,22
516,77	1329,13
516,97	1239,02
517,17	1292,27
517,37	1191,92
517,57	1304,56
517,77	1282,03
517,97	1241,07
518,17	1282,03
518,37	1204,21
518,57	1312,75
518,77	1259,50
518,97	1277,93
519,16	1273,84
519,36	1255,40
519,56	1286,12
519,76	1269,74
519,96	1316,84
520,16	1251,31
520,36	1241,07
520,56	1341,42
520,76	1232,88
520,96	1294,32
521,16	1290,22
521,35	1284,08
521,55	1218,54
521,75	1273,84
521,95	1153,01
522,15	1185,77
522,35	1249,26
522,55	1310,70
522,75	1322,99
522,95	1255,40
523,14	1247,21
523,34	1325,04
523,54	1273,84
523,74	1314,80
523,94	1306,60
524,14	1294,32
524,34	1245,16
524,54	1259,50
524,73	1269,74
524,93	1249,26
525,13	1314,80
525,33	1292,27
525,53	1322,99
525,73	1271,79
525,93	1232,88
526,13	1255,40
526,32	1251,31
526,52	1322,99
526,72	1241,07
526,92	1288,17
527,12	1284,08
527,32	1224,69
527,52	1279,98
527,71	1247,21
527,91	1329,13
528,11	1259,50
528,31	1286,12
528,51	1259,50
528,71	1372,14
528,90	1298,41
529,10	1263,60
529,30	1314,80
529,50	1263,60
529,70	1241,07
529,90	1251,31
530,09	1290,22
530,29	1257,45
530,49	1224,69
530,69	1290,22
530,89	1308,65
531,09	1269,74
531,28	1243,12
531,48	1239,02
531,68	1236,97
531,88	1333,23
532,08	1333,23
532,28	1249,26
532,47	1296,36
532,67	1290,22
532,87	1257,45
533,07	1257,45
533,27	1314,80
533,46	1232,88
533,66	1236,97
533,86	1271,79
534,06	1292,27
534,26	1208,30
534,45	1247,21
534,65	1273,84
534,85	1271,79
535,05	1302,51
535,25	1243,12
535,44	1265,64
535,64	1320,94
535,84	1322,99
536,04	1249,26
536,24	1259,50
536,43	1296,36
536,63	1282,03
536,83	1304,56
537,03	1249,26
537,22	1247,21
537,42	1314,80
537,62	1277,93
537,82	1212,40
538,02	1271,79
538,21	1282,03
538,41	1302,51
538,61	1200,11
538,81	1222,64
539,00	1257,45
539,20	1366,00
539,40	1267,69
539,60	1314,80
539,79	1294,32
539,99	1331,18
540,19	1306,60
540,39	1271,79
540,58	1325,04
540,78	1245,16
540,98	1314,80
541,18	1212,40
541,37	1327,08
541,57	1312,75
541,77	1316,84
541,97	1267,69
542,16	1251,31
542,36	1290,22
542,56	1253,36
542,76	1284,08
542,95	1292,27
543,15	1304,56
543,35	1275,88
543,54	1234,93
543,74	1271,79
543,94	1239,02
544,14	1292,27
544,33	1320,94
544,53	1269,74
544,73	1292,27
544,93	1257,45
545,12	1306,60
545,32	1374,19
545,52	1286,12
545,71	1296,36
545,91	1239,02
546,11	1275,88
546,30	1222,64
546,50	1263,60
546,70	1294,32
546,90	1329,13
547,09	1267,69
547,29	1304,56
547,49	1247,21
547,68	1269,74
547,88	1312,75
548,08	1155,05
548,27	1306,60
548,47	1198,06
548,67	1269,74
548,87	1325,04
549,06	1300,46
549,26	1112,05
549,46	1236,97
549,65	1290,22
549,85	1245,16
550,05	1198,06
550,24	1261,55
550,44	1187,82
550,64	1230,83
550,83	1259,50
551,03	1234,93
551,23	1286,12
551,42	1327,08
551,62	1271,79
551,82	1259,50
552,01	1228,78
552,21	1214,45
552,41	1271,79
552,60	1224,69
552,80	1275,88
553,00	1300,46
553,19	1220,59
553,39	1187,82
553,59	1359,85
553,78	1298,41
553,98	1243,12
554,17	1189,87
554,37	1259,50
554,57	1269,74
554,76	1241,07
554,96	1331,18
555,16	1279,98
555,35	1269,74
555,55	1224,69
555,75	1241,07
555,94	1255,40
556,14	1208,30
556,33	1214,45
556,53	1245,16
556,73	1265,64
556,92	1245,16
557,12	1255,40
557,32	1286,12
557,51	1269,74
557,71	1337,32
557,90	1292,27
558,10	1275,88
558,30	1320,94
558,49	1232,88
558,69	1331,18
558,88	1228,78
559,08	1314,80
559,28	1269,74
559,47	1292,27
559,67	1204,21
559,86	1296,36
560,06	1253,36
560,26	1249,26
560,45	1239,02
560,65	1220,59
560,84	1302,51
561,04	1236,97
561,24	1273,84
561,43	1327,08
561,63	1292,27
561,82	1275,88
562,02	1279,98
562,22	1263,60
562,41	1226,73
562,61	1275,88
562,80	1257,45
563,00	1314,80
563,19	1251,31
563,39	1286,12
563,59	1249,26
563,78	1245,16
563,98	1267,69
564,17	1388,52
564,37	1265,64
564,56	1257,45
564,76	1265,64
564,96	1306,60
565,15	1327,08
565,35	1212,40
565,54	1214,45
565,74	1339,37
565,93	1241,07
566,13	1257,45
566,32	1279,98
566,52	1312,75
566,71	1253,36
566,91	1236,97
567,11	1339,37
567,30	1220,59
567,50	1325,04
567,69	1177,58
567,89	1282,03
568,08	1261,55
568,28	1259,50
568,47	1341,42
568,67	1230,83
568,86	1279,98
569,06	1243,12
569,25	1263,60
569,45	1286,12
569,64	1284,08
569,84	1222,64
570,04	1247,21
570,23	1257,45
570,43	1218,54
570,62	1245,16
570,82	1279,98
571,01	1259,50
571,21	1224,69
571,40	1210,35
571,60	1267,69
571,79	1300,46
571,99	1279,98
572,18	1314,80
572,38	1282,03
572,57	1275,88
572,77	1222,64
572,96	1261,55
573,16	1271,79
573,35	1263,60
573,55	1325,04
573,74	1243,12
573,94	1353,71
574,13	1292,27
574,33	1302,51
574,52	1279,98
574,71	1302,51
574,91	1302,51
575,10	1263,60
575,30	1204,21
575,49	1214,45
575,69	1239,02
575,88	1296,36
576,08	1282,03
576,27	1249,26
576,47	1243,12
576,66	1241,07
576,86	1304,56
577,05	1208,30
577,25	1224,69
577,44	1263,60
577,64	1251,31
577,83	1333,23
578,02	1331,18
578,22	1296,36
578,41	1316,84
578,61	1204,21
578,80	1282,03
579,00	1288,17
579,19	1226,73
579,39	1314,80
579,58	1284,08
579,77	1275,88
579,97	1249,26
580,16	1320,94
580,36	1314,80
580,55	1298,41
580,75	1286,12
580,94	1251,31
581,13	1200,11
581,33	1288,17
581,52	1251,31
581,72	1298,41
581,91	1335,28
582,11	1255,40
582,30	1232,88
582,49	1290,22
582,69	1333,23
582,88	1277,93
583,08	1277,93
583,27	1263,60
583,47	1282,03
583,66	1216,49
583,85	1202,16
584,05	1265,64
584,24	1290,22
584,44	1247,21
584,63	1318,89
584,82	1333,23
585,02	1290,22
585,21	1292,27
585,41	1255,40
585,60	1259,50
585,79	1300,46
585,99	1304,56
586,18	1298,41
586,37	1273,84
586,57	1249,26
586,76	1292,27
586,96	1230,83
587,15	1271,79
587,34	1253,36
587,54	1257,45
587,73	1239,02
587,93	1275,88
588,12	1308,65
588,31	1226,73
588,51	1339,37
588,70	1273,84
588,89	1249,26
589,09	1273,84
589,28	1249,26
589,47	1269,74
589,67	1241,07
589,86	1210,35
590,06	1247,21
590,25	1273,84
590,44	1345,52
590,64	1255,40
590,83	1269,74
591,02	1245,16
591,22	1314,80
591,41	1282,03
591,60	1286,12
591,80	1243,12
591,99	1232,88
592,18	1296,36
592,38	1300,46
592,57	1198,06
592,76	1173,49
592,96	1286,12
593,15	1296,36
593,34	1220,59
593,54	1316,84
593,73	1320,94
593,92	1292,27
594,12	1306,60
594,31	1255,40
594,50	1302,51
594,70	1277,93
594,89	1286,12
595,08	1220,59
595,28	1263,60
595,47	1320,94
595,66	1308,65
595,86	1286,12
596,05	1304,56
596,24	1220,59
596,43	1277,93
596,63	1269,74
596,82	1251,31
597,01	1320,94
597,21	1333,23
597,40	1245,16
597,59	1228,78
597,79	1337,32
597,98	1339,37
598,17	1277,93
598,36	1273,84
598,56	1259,50
598,75	1290,22
598,94	1273,84
599,14	1267,69
599,33	1318,89
599,52	1314,80
599,71	1277,93
599,91	1292,27
600,10	1279,98
600,29	1288,17
600,48	1271,79
600,68	1329,13
600,87	1249,26
601,06	1206,25
601,26	1275,88
601,45	1257,45
601,64	1273,84
601,83	1277,93
602,03	1249,26
602,22	1290,22
602,41	1351,66
602,60	1279,98
602,80	1277,93
602,99	1322,99
603,18	1355,76
603,37	1306,60
603,57	1255,40
603,76	1245,16
603,95	1302,51
604,14	1267,69
604,34	1249,26
604,53	1232,88
604,72	1282,03
604,91	1267,69
605,10	1288,17
605,30	1314,80
605,49	1234,93
605,68	1236,97
605,87	1273,84
606,07	1224,69
606,26	1245,16
606,45	1247,21
606,64	1239,02
606,84	1282,03
607,03	1286,12
607,22	1257,45
607,41	1253,36
607,60	1232,88
607,80	1257,45
607,99	1269,74
608,18	1322,99
608,37	1296,36
608,56	1353,71
608,76	1275,88
608,95	1241,07
609,14	1230,83
609,33	1224,69
609,52	1224,69
609,72	1310,70
609,91	1288,17
610,10	1306,60
610,29	1279,98
610,48	1206,25
610,68	1261,55
610,87	1261,55
611,06	1204,21
611,25	1193,97
611,44	1255,40
611,63	1282,03
611,83	1306,60
612,02	1269,74
612,21	1224,69
612,40	1275,88
612,59	1249,26
612,79	1304,56
612,98	1292,27
613,17	1386,47
613,36	1228,78
613,55	1286,12
613,74	1284,08
613,93	1257,45
614,13	1265,64
614,32	1312,75
614,51	1282,03
614,70	1249,26
614,89	1341,42
615,08	1341,42
615,28	1275,88
615,47	1341,42
615,66	1282,03
615,85	1261,55
616,04	1300,46
616,23	1349,61
616,42	1314,80
616,62	1314,80
616,81	1216,49
617,00	1253,36
617,19	1249,26
617,38	1249,26
617,57	1312,75
617,76	1359,85
617,95	1243,12
618,15	1306,60
618,34	1236,97
618,53	1316,84
618,72	1353,71
618,91	1339,37
619,10	1234,93
619,29	1327,08
619,48	1335,28
619,68	1273,84
619,87	1277,93
620,06	1228,78
620,25	1286,12
620,44	1232,88
620,63	1331,18
620,82	1212,40
621,01	1279,98
621,20	1226,73
621,39	1247,21
621,59	1257,45
621,78	1265,64
621,97	1249,26
622,16	1361,90
622,35	1290,22
622,54	1296,36
622,73	1228,78
622,92	1257,45
623,11	1316,84
623,30	1347,56
623,49	1290,22
623,68	1239,02
623,88	1216,49
624,07	1206,25
624,26	1230,83
624,45	1273,84
624,64	1222,64
624,83	1331,18
625,02	1253,36
625,21	1247,21
625,40	1329,13
625,59	1282,03
625,78	1339,37
625,97	1331,18
626,16	1257,45
626,35	1286,12
626,54	1271,79
626,74	1288,17
626,93	1339,37
627,12	1257,45
627,31	1243,12
627,50	1312,75
627,69	1286,12
627,88	1298,41
628,07	1279,98
628,26	1286,12
628,45	1339,37
628,64	1239,02
628,83	1265,64
629,02	1279,98
629,21	1257,45
629,40	1265,64
629,59	1249,26
629,78	1290,22
629,97	1292,27
630,16	1349,61
630,35	1288,17
630,54	1267,69
630,73	1273,84
630,92	1374,19
631,11	1279,98
631,30	1329,13
631,49	1320,94
631,68	1834,98
631,87	2383,84
632,06	4978,61
632,25	7653,26
632,44	13958,96
632,63	23807,64
632,82	33887,74
633,01	22259,37
633,20	7995,27
633,39	4523,96
633,58	3330,00
633,77	2562,01
633,96	2203,61
634,15	1968,10
634,34	1853,41
634,53	1744,87
634,72	1697,77
634,91	1521,64
635,10	1458,15
635,29	1544,17
635,48	1431,53
635,67	1406,95
635,86	1419,24
636,05	1396,71
636,24	1335,28
636,43	1386,47
636,62	1275,88
636,81	1284,08
637,00	1247,21
637,19	1366,00
637,38	1304,56
637,57	1308,65
637,76	1329,13
637,95	1286,12
638,14	1320,94
638,33	1310,70
638,52	1220,59
638,71	1290,22
638,89	1277,93
639,08	1290,22
639,27	1318,89
639,46	1218,54
639,65	1320,94
639,84	1269,74
640,03	1236,97
640,22	1279,98
640,41	1282,03
640,60	1210,35
640,79	1286,12
640,98	1327,08
641,17	1224,69
641,36	1296,36
641,55	1361,90
641,74	1294,32
641,92	1236,97
642,11	1241,07
642,30	1249,26
642,49	1257,45
642,68	1304,56
642,87	1277,93
643,06	1290,22
643,25	1175,53
643,44	1300,46
643,63	1257,45
643,82	1333,23
644,00	1337,32
644,19	1318,89
644,38	1353,71
644,57	1267,69
644,76	1298,41
644,95	1335,28
645,14	1241,07
645,33	1263,60
645,52	1269,74
645,71	1239,02
645,89	1247,21
646,08	1263,60
646,27	1261,55
646,46	1243,12
646,65	1279,98
646,84	1312,75
647,03	1259,50
647,22	1279,98
647,40	1228,78
647,59	1271,79
647,78	1202,16
647,97	1351,66
648,16	1261,55
648,35	1282,03
648,54	1265,64
648,73	1282,03
648,91	1273,84
649,10	1292,27
649,29	1251,31
649,48	1363,95
649,67	1310,70
649,86	1286,12
650,05	1267,69
650,23	1308,65
650,42	1257,45
650,61	1210,35
650,80	1273,84
650,99	1222,64
651,18	1320,94
651,36	1267,69
651,55	1189,87
651,74	1239,02
651,93	1325,04
652,12	1292,27
652,31	1282,03
652,49	1347,56
652,68	1302,51
652,87	1271,79
653,06	1322,99
653,25	1263,60
653,44	1236,97
653,62	1331,18
653,81	1314,80
654,00	1335,28
654,19	1267,69
654,38	1304,56
654,56	1282,03
654,75	1279,98
654,94	1302,51
655,13	1341,42
655,32	1286,12
655,51	1318,89
655,69	1288,17
655,88	1306,60
656,07	1267,69
656,26	1239,02
656,45	1312,75
656,63	1271,79
656,82	1269,74
657,01	1296,36
657,20	1273,84
657,38	1304,56
657,57	1228,78
657,76	1279,98
657,95	1327,08
658,14	1257,45
658,32	1234,93
658,51	1294,32
658,70	1185,77
658,89	1306,60
659,08	1277,93
659,26	1273,84
659,45	1298,41
659,64	1214,45
659,83	1239,02
660,01	1247,21
660,20	1302,51
660,39	1257,45
660,58	1236,97
660,76	1292,27
660,95	1206,25
661,14	1253,36
661,33	1273,84
661,51	1322,99
661,70	1292,27
661,89	1253,36
662,08	1249,26
662,26	1288,17
662,45	1316,84
662,64	1232,88
662,83	1255,40
663,01	1318,89
663,20	1290,22
663,39	1245,16
663,58	1218,54
663,76	1331,18
663,95	1193,97
664,14	1230,83
664,32	1220,59
664,51	1337,32
664,70	1232,88
664,89	1335,28
665,07	1302,51
665,26	1206,25
665,45	1234,93
665,64	1265,64
665,82	1257,45
666,01	1263,60
666,20	1275,88
666,38	1234,93
666,57	1300,46
666,76	1322,99
666,95	1271,79
667,13	1310,70
667,32	1300,46
667,51	1306,60
667,69	1304,56
667,88	1245,16
668,07	1243,12
668,25	1249,26
668,44	1251,31
668,63	1312,75
668,81	1234,93
669,00	1333,23
669,19	1271,79
669,38	1253,36
669,56	1288,17
669,75	1257,45
669,94	1226,73
670,12	1300,46
670,31	1253,36
670,50	1206,25
670,68	1196,01
670,87	1228,78
671,06	1214,45
671,24	1222,64
671,43	1300,46
671,62	1222,64
671,80	1265,64
671,99	1302,51
672,18	1212,40
672,36	1316,84
672,55	1232,88
672,74	1183,73
672,92	1265,64
673,11	1370,09
673,29	1226,73
673,48	1329,13
673,67	1312,75
673,85	1243,12
674,04	1232,88
674,23	1300,46
674,41	1279,98
674,60	1286,12
674,79	1206,25
674,97	1288,17
675,16	1327,08
675,34	1310,70
675,53	1220,59
675,72	1277,93
675,90	1370,09
676,09	1259,50
676,28	1267,69
676,46	1163,25
676,65	1279,98
676,83	1169,39
677,02	1277,93
677,21	1296,36
677,39	1247,21
677,58	1196,01
677,77	1341,42
677,95	1241,07
678,14	1347,56
678,32	1265,64
678,51	1271,79
678,70	1247,21
678,88	1316,84
679,07	1263,60
679,25	1306,60
679,44	1335,28
679,63	1214,45
679,81	1329,13
680,00	1253,36
680,18	1265,64
680,37	1234,93
680,55	1331,18
680,74	1282,03
680,93	1181,68
681,11	1320,94
681,30	1288,17
681,48	1286,12
681,67	1294,32
681,85	1288,17
682,04	1318,89
682,23	1269,74
682,41	1290,22
682,60	1212,40
682,78	1296,36
682,97	1253,36
683,15	1253,36
683,34	1241,07
683,53	1286,12
683,71	1267,69
683,90	1300,46
684,08	1277,93
684,27	1245,16
684,45	1263,60
684,64	1304,56
684,82	1251,31
685,01	1261,55
685,19	1208,30
685,38	1331,18
685,57	1316,84
685,75	1263,60
685,94	1210,35
686,12	1318,89
686,31	1282,03
686,49	1216,49
686,68	1243,12
686,86	1308,65
687,05	1320,94
687,23	1204,21
687,42	1226,73
687,60	1226,73
687,79	1236,97
687,97	1282,03
688,16	1255,40
688,34	1316,84
688,53	1230,83
688,71	1253,36
688,90	1316,84
689,08	1247,21
689,27	1265,64
689,45	1345,52
689,64	1220,59
689,82	1273,84
690,01	1200,11
690,19	1265,64
690,38	1253,36
690,56	1253,36
690,75	1245,16
690,93	1193,97
691,12	1263,60
691,30	1353,71
691,49	1282,03
691,67	1277,93
691,86	1232,88
692,04	1208,30
692,23	1234,93
692,41	1337,32
692,60	1308,65
692,78	1304,56
692,97	1224,69
693,15	1257,45
693,34	1261,55
693,52	1249,26
693,71	1187,82
693,89	1312,75
694,08	1224,69
694,26	1196,01
694,44	1327,08
694,63	1273,84
694,81	1222,64
695,00	1271,79
695,18	1214,45
695,37	1294,32
695,55	1210,35
695,74	1277,93
695,92	1255,40
696,10	1288,17
696,29	1329,13
696,47	1226,73
696,66	1210,35
696,84	1298,41
697,03	1265,64
697,21	1341,42
697,40	1298,41
697,58	1302,51
697,76	1273,84
697,95	1282,03
698,13	1265,64
698,32	1294,32
698,50	1271,79
698,68	1302,51
698,87	1333,23
699,05	1294,32
699,24	1263,60
699,42	1275,88
699,61	1255,40
699,79	1263,60
699,97	1259,50
700,16	1259,50
700,34	1298,41
700,53	1269,74
700,71	1277,93
700,89	1214,45
701,08	1327,08
701,26	1304,56
701,45	1284,08
701,63	1263,60
701,81	1302,51
702,00	1239,02
702,18	1271,79
702,37	1279,98
702,55	1292,27
702,73	1265,64
702,92	1255,40
703,10	1243,12
703,28	1296,36
703,47	1271,79
703,65	1249,26
703,84	1239,02
704,02	1239,02
704,20	1236,97
704,39	1282,03
704,57	1265,64
704,75	1220,59
704,94	1277,93
705,12	1296,36
705,30	1335,28
705,49	1296,36
705,67	1318,89
705,86	1282,03
706,04	1249,26
706,22	1284,08
706,41	1335,28
706,59	1294,32
706,77	1247,21
706,96	1294,32
707,14	1245,16
707,32	1234,93
707,51	1333,23
707,69	1255,40
707,87	1259,50
708,06	1318,89
708,24	1267,69
708,42	1226,73
708,61	1314,80
708,79	1214,45
708,97	1243,12
709,16	1259,50
709,34	1347,56
709,52	1241,07
709,71	1259,50
709,89	1159,15
710,07	1251,31
710,26	1267,69
710,44	1273,84
710,62	1196,01
710,80	1228,78
710,99	1228,78
711,17	1251,31
711,35	1314,80
711,54	1314,80
711,72	1337,32
711,90	1296,36
712,09	1208,30
712,27	1265,64
712,45	1232,88
712,63	1269,74
712,82	1245,16
713,00	1288,17
713,18	1267,69
713,37	1265,64
713,55	1243,12
713,73	1302,51
713,91	1294,32
714,10	1322,99
714,28	1355,76
714,46	1255,40
714,65	1224,69
714,83	1292,27
715,01	1286,12
715,19	1308,65
715,38	1284,08
715,56	1335,28
715,74	1296,36
715,92	1298,41
716,11	1220,59
716,29	1245,16
716,47	1210,35
716,65	1247,21
716,84	1196,01
717,02	1288,17
717,20	1169,39
717,38	1222,64
717,57	1310,70
717,75	1265,64
717,93	1228,78
718,11	1239,02
718,30	1314,80
718,48	1243,12
718,66	1218,54
718,84	1273,84
719,03	1284,08
719,21	1255,40
719,39	1241,07
719,57	1312,75
719,75	1271,79
719,94	1275,88
720,12	1331,18
720,30	1206,25
720,48	1261,55
720,67	1308,65
720,85	1189,87
721,03	1308,65
721,21	1351,66
721,39	1271,79
721,58	1228,78
721,76	1245,16
721,94	1234,93
722,12	1263,60
722,30	1314,80
722,49	1290,22
722,67	1304,56
722,85	1288,17
723,03	1234,93
723,21	1298,41
723,40	1310,70
723,58	1312,75
723,76	1275,88
723,94	1253,36
724,12	1247,21
724,30	1325,04
724,49	1273,84
724,67	1243,12
724,85	1300,46
725,03	1355,76
725,21	1243,12
725,40	1279,98
725,58	1218,54
725,76	1228,78
725,94	1327,08
726,12	1273,84
726,30	1255,40
726,49	1302,51
726,67	1284,08
726,85	1316,84
727,03	1241,07
727,21	1277,93
727,39	1247,21
727,57	1271,79
727,76	1249,26
727,94	1349,61
728,12	1255,40
728,30	1273,84
728,48	1257,45
728,66	1249,26
728,84	1275,88
729,03	1247,21
729,21	1232,88
729,39	1263,60
729,57	1259,50
729,75	1292,27
729,93	1239,02
730,11	1271,79
730,30	1224,69
730,48	1304,56
730,66	1239,02
730,84	1261,55
731,02	1292,27
731,20	1322,99
731,38	1243,12
731,56	1200,11
731,74	1239,02
731,93	1292,27
732,11	1294,32
732,29	1345,52
732,47	1263,60
732,65	1234,93
732,83	1284,08
733,01	1294,32
733,19	1214,45
733,37	1222,64
733,56	1302,51
733,74	1296,36
733,92	1327,08
734,10	1216,49
734,28	1353,71
734,46	1251,31
734,64	1273,84
734,82	1288,17
735,00	1187,82
735,18	1202,16
735,36	1236,97
735,54	1302,51
735,73	1255,40
735,91	1255,40
736,09	1316,84
736,27	1241,07
736,45	1177,58
736,63	1171,44
736,81	1200,11
736,99	1273,84
737,17	1267,69
737,35	1286,12
737,53	1234,93
737,71	1263,60
737,89	1282,03
738,07	1234,93
738,25	1345,52
738,43	1339,37
738,61	1249,26
738,80	1208,30
738,98	1279,98
739,16	1251,31
739,34	1282,03
739,52	1249,26
739,70	1236,97
739,88	1251,31
740,06	1245,16
740,24	1196,01
740,42	1355,76
740,60	1306,60
740,78	1222,64
740,96	1241,07
741,14	1298,41
741,32	1288,17
741,50	1232,88
741,68	1239,02
741,86	1200,11
742,04	1234,93
742,22	1222,64
742,40	1282,03
742,58	1310,70
742,76	1277,93
742,94	1298,41
743,12	1236,97
743,30	1265,64
743,48	1247,21
743,66	1275,88
743,84	1259,50
744,02	1331,18
744,20	1294,32
744,38	1269,74
744,56	1236,97
744,74	1286,12
744,92	1294,32
745,10	1302,51
745,28	1294,32
745,46	1288,17
745,64	1300,46
745,82	1251,31
746,00	1333,23
746,18	1216,49
746,36	1290,22
746,54	1292,27
746,72	1277,93
746,90	1290,22
747,08	1204,21
747,26	1290,22
747,44	1310,70
747,62	1247,21
747,80	1300,46
747,98	1284,08
748,15	1277,93
748,33	1226,73
748,51	1331,18
748,69	1288,17
748,87	1273,84
749,05	1226,73
749,23	1236,97
749,41	1226,73
749,59	1306,60
749,77	1249,26
749,95	1292,27
750,13	1208,30
750,31	1286,12
750,49	1257,45
750,67	1279,98
750,85	1255,40
751,03	1249,26
751,20	1304,56
751,38	1230,83
751,56	1241,07
751,74	1286,12
751,92	1269,74
752,10	1290,22
752,28	1228,78
752,46	1212,40
752,64	1265,64
752,82	1267,69
753,00	1296,36
753,18	1288,17
753,35	1226,73
753,53	1236,97
753,71	1255,40
753,89	1273,84
754,07	1253,36
754,25	1288,17
754,43	1284,08
754,61	1286,12
754,79	1320,94
754,97	1282,03
755,14	1267,69
755,32	1257,45
755,50	1312,75
755,68	1212,40
755,86	1236,97
756,04	1216,49
756,22	1296,36
756,40	1275,88
756,57	1325,04
756,75	1263,60
756,93	1322,99
757,11	1279,98
757,29	1308,65
757,47	1310,70
757,65	1341,42
757,82	1298,41
758,00	1224,69
758,18	1282,03
758,36	1308,65
758,54	1325,04
758,72	1290,22
758,90	1298,41
759,07	1277,93
759,25	1261,55
759,43	1325,04
759,61	1257,45
759,79	1361,90
759,97	1339,37
760,15	1314,80
760,32	1306,60
760,50	1265,64
760,68	1298,41
760,86	1261,55
761,04	1249,26
761,22	1279,98
761,39	1265,64
761,57	1322,99
761,75	1310,70
761,93	1271,79
762,11	1257,45
762,28	1241,07
762,46	1349,61
762,64	1292,27
762,82	1329,13
763,00	1294,32
763,18	1306,60
763,35	1230,83
763,53	1318,89
763,71	1163,25
763,89	1288,17
764,07	1306,60
764,24	1228,78
764,42	1259,50
764,60	1273,84
764,78	1222,64
764,96	1288,17
765,13	1277,93
765,31	1284,08
765,49	1273,84
765,67	1251,31
765,84	1267,69
766,02	1247,21
766,20	1214,45
766,38	1282,03
766,56	1316,84
766,73	1304,56
766,91	1279,98
767,09	1267,69
767,27	1382,38
767,44	1314,80
767,62	1216,49
767,80	1261,55
767,98	1308,65
768,15	1232,88
768,33	1257,45
768,51	1314,80
768,69	1253,36
768,87	1384,43
769,04	1210,35
769,22	1245,16
769,40	1279,98
769,58	1314,80
769,75	1261,55
769,93	1261,55
770,11	1267,69
770,28	1267,69
770,46	1241,07
770,64	1230,83
770,82	1230,83
770,99	1232,88
771,17	1275,88
771,35	1282,03
771,53	1308,65
771,70	1247,21
771,88	1208,30
772,06	1239,02
772,23	1243,12
772,41	1275,88
772,59	1282,03
772,77	1355,76
772,94	1255,40
773,12	1263,60
773,30	1331,18
773,47	1329,13
773,65	1320,94
773,83	1351,66
774,01	1245,16
774,18	1243,12
774,36	1253,36
774,54	1245,16
774,71	1298,41
774,89	1286,12
775,07	1366,00
775,24	1259,50
775,42	1294,32
775,60	1277,93
775,78	1255,40
775,95	1220,59
776,13	1243,12
776,31	1277,93
776,48	1273,84
776,66	1261,55
776,84	1265,64
777,01	1290,22
777,19	1236,97
777,37	1331,18
777,54	1273,84
777,72	1320,94
777,90	1249,26
778,07	1306,60
778,25	1243,12
778,43	1292,27
778,60	1257,45
778,78	1230,83
778,96	1167,34
779,13	1187,82
779,31	1236,97
779,49	1316,84
779,66	1177,58
779,84	1249,26
780,01	1275,88
780,19	1327,08
780,37	1265,64
780,54	1257,45
780,72	1273,84
780,90	1320,94
781,07	1259,50
781,25	1243,12
781,43	1308,65
781,60	1214,45
781,78	1267,69
781,95	1249,26
782,13	1327,08
782,31	1331,18
782,48	1257,45
782,66	1282,03
782,83	1273,84
783,01	1259,50
783,19	1241,07
783,36	1316,84
783,54	1259,50
783,72	1253,36
783,89	1243,12
784,07	1224,69
784,24	1314,80
784,42	1337,32
784,60	1269,74
784,77	1230,83
784,95	1288,17
785,12	1294,32
785,30	1277,93
785,47	1288,17
785,65	1277,93
785,83	1300,46
786,00	1304,56
786,18	1318,89
786,35	1222,64
786,53	1253,36
786,71	1282,03
786,88	1226,73
787,06	1232,88
787,23	1292,27
787,41	1320,94
787,58	1241,07
787,76	1304,56
787,94	1304,56
788,11	1245,16
788,29	1298,41
788,46	1308,65
788,64	1271,79
788,81	1314,80
788,99	1271,79
789,16	1284,08
789,34	1279,98
789,52	1212,40
789,69	1214,45
789,87	1288,17
790,04	1187,82
790,22	1306,60
790,39	1265,64
790,57	1302,51
790,74	1288,17
790,92	1263,60
791,09	1267,69
791,27	1296,36
791,44	1282,03
791,62	1279,98
791,79	1249,26
791,97	1236,97
792,15	1245,16
792,32	1257,45
792,50	1234,93
792,67	1333,23
792,85	1259,50
793,02	1234,93
793,20	1236,97
793,37	1214,45
793,55	1239,02
793,72	1304,56
793,90	1220,59
794,07	1320,94
794,25	1318,89
794,42	1247,21
794,60	1257,45
794,77	1212,40
794,95	1226,73
795,12	1263,60
795,30	1296,36
795,47	1232,88
795,65	1232,88
795,82	1216,49
796,00	1306,60
796,17	1212,40
796,34	1239,02
796,52	1284,08
796,69	1247,21
796,87	1269,74
797,04	1284,08
797,22	1370,09
797,39	1191,92
797,57	1253,36
797,74	1206,25
797,92	1300,46
798,09	1265,64
798,27	1290,22
798,44	1304,56
798,62	1277,93
798,79	1261,55
798,96	1279,98
799,14	1337,32
799,31	1341,42
799,49	1243,12
799,66	1228,78
799,84	1304,56
800,01	1302,51
800,19	1273,84
800,36	1255,40
800,53	1212,40
800,71	1251,31
800,88	1337,32
801,06	1298,41
801,23	1200,11
801,41	1271,79
801,58	1271,79
801,75	1341,42
801,93	1269,74
802,10	1298,41
802,28	1273,84
802,45	1308,65
802,63	1331,18
802,80	1306,60
802,97	1243,12
803,15	1241,07
803,32	1308,65
803,50	1243,12
803,67	1298,41
803,84	1204,21
804,02	1339,37
804,19	1243,12
804,37	1308,65
804,54	1355,76
804,71	1208,30
804,89	1325,04
805,06	1253,36
805,24	1253,36
805,41	1161,20
805,58	1282,03
805,76	1247,21
805,93	1257,45
806,10	1312,75
806,28	1273,84
806,45	1243,12
806,63	1269,74
806,80	1247,21
806,97	1224,69
807,15	1230,83
807,32	1298,41
807,49	1234,93
807,67	1279,98
807,84	1284,08
808,01	1255,40
808,19	1247,21
808,36	1306,60
808,54	1282,03
808,71	1222,64
808,88	1243,12
809,06	1263,60
809,23	1286,12
809,40	1273,84
809,58	1226,73
809,75	1282,03
809,92	1316,84
810,10	1302,51
810,27	1247,21
810,44	1277,93
810,62	1243,12
810,79	1243,12
810,96	1284,08
811,14	1245,16
811,31	1282,03
811,48	1273,84
811,66	1245,16
811,83	1263,60
812,00	1290,22
812,18	1298,41
812,35	1306,60
812,52	1259,50
812,69	1216,49
812,87	1253,36
813,04	1329,13
813,21	1271,79
813,39	1308,65
813,56	1306,60
813,73	1239,02
813,91	1294,32
814,08	1253,36
814,25	1325,04
814,42	1318,89
814,60	1294,32
814,77	1228,78
814,94	1257,45
815,12	1265,64
815,29	1239,02
815,46	1234,93
815,63	1284,08
815,81	1249,26
815,98	1265,64
816,15	1230,83
816,33	1253,36
816,50	1251,31
816,67	1236,97
816,84	1257,45
817,02	1214,45
817,19	1206,25
817,36	1236,97
817,53	1325,04
817,71	1345,52
817,88	1290,22
818,05	1253,36
818,22	1241,07
818,40	1249,26
818,57	1267,69
818,74	1202,16
818,91	1232,88
819,09	1306,60
819,26	1261,55
819,43	1286,12
819,60	1249,26
819,78	1343,47
819,95	1337,32
820,12	1243,12
820,29	1345,52
820,47	1224,69
820,64	1269,74
820,81	1251,31
820,98	1251,31
821,15	1230,83
821,33	1288,17
821,50	1331,18
821,67	1279,98
821,84	1261,55
822,02	1329,13
822,19	1271,79
822,36	1304,56
822,53	1273,84
822,70	1261,55
822,88	1247,21
823,05	1259,50
823,22	1167,34
823,39	1249,26
823,56	1282,03
823,74	1284,08
823,91	1288,17
824,08	1263,60
824,25	1226,73
824,42	1310,70
824,60	1212,40
824,77	1249,26
824,94	1279,98
825,11	1273,84
825,28	1206,25
825,45	1284,08
825,63	1232,88
825,80	1290,22
825,97	1261,55
826,14	1322,99
826,31	1292,27
826,48	1277,93
826,66	1239,02
826,83	1273,84
827,00	1263,60
827,17	1261,55
827,34	1249,26
827,51	1296,36
827,69	1241,07
827,86	1265,64
828,03	1277,93
828,20	1316,84
828,37	1239,02
828,54	1216,49
828,71	1292,27
828,89	1212,40
829,06	1241,07
829,23	1327,08
829,40	1236,97
829,57	1265,64
829,74	1284,08
829,91	1304,56
830,09	1357,80
830,26	1335,28
830,43	1241,07
830,60	1247,21
830,77	1245,16
830,94	1200,11
831,11	1282,03
831,28	1265,64
831,46	1271,79
831,63	1325,04
831,80	1335,28
831,97	1220,59
832,14	1314,80
832,31	1214,45
832,48	1257,45
832,65	1296,36
832,82	1333,23
832,99	1337,32
833,17	1249,26
833,34	1296,36
833,51	1304,56
833,68	1239,02
833,85	1277,93
834,02	1251,31
834,19	1288,17
834,36	1300,46
834,53	1271,79
834,70	1261,55
834,87	1206,25
835,04	1275,88
835,22	1271,79
835,39	1243,12
835,56	1378,28
835,73	1263,60
835,90	1275,88
836,07	1306,60
836,24	1247,21
836,41	1333,23
836,58	1206,25
836,75	1306,60
836,92	1333,23
837,09	1273,84
837,26	1273,84
837,43	1331,18
837,60	1265,64
837,77	1302,51
837,94	1312,75
838,12	1269,74
838,29	1273,84
838,46	1239,02
838,63	1243,12
838,80	1267,69
838,97	1241,07
839,14	1331,18
839,31	1265,64
839,48	1236,97
839,65	1210,35
839,82	1333,23
839,99	1204,21
840,16	1335,28
840,33	1331,18
840,50	1255,40
840,67	1200,11
840,84	1331,18
841,01	1308,65
841,18	1296,36
841,35	1224,69
841,52	1327,08
841,69	1337,32
841,86	1300,46
842,03	1232,88
842,20	1228,78
842,37	1320,94
842,54	1261,55
842,71	1331,18
842,88	1230,83
843,05	1259,50
843,22	1300,46
843,39	1325,04
843,56	1249,26
843,73	1253,36
843,90	1236,97
844,07	1320,94
844,24	1333,23
844,41	1302,51
844,58	1271,79
844,75	1314,80
844,92	1320,94
845,09	1216,49
845,26	1284,08
845,43	1222,64
845,60	1259,50
845,77	1245,16
845,94	1286,12
846,10	1288,17
846,27	1249,26
846,44	1267,69
846,61	1228,78
846,78	1316,84
846,95	1163,25
847,12	1253,36
847,29	1230,83
847,46	1253,36
847,63	1312,75
847,80	1191,92
847,97	1320,94
848,14	1304,56
848,31	1263,60
848,48	1247,21
848,65	1245,16
848,82	1228,78
848,98	1228,78
849,15	1359,85
849,32	1279,98
849,49	1298,41
849,66	1241,07
849,83	1218,54
850,00	1265,64
850,17	1267,69
850,34	1269,74
850,51	1286,12
850,68	1279,98
850,85	1316,84
851,01	1261,55
851,18	1265,64
851,35	1257,45
851,52	1265,64
851,69	1275,88
851,86	1206,25
852,03	1226,73
852,20	1325,04
852,37	1198,06
852,53	1230,83
852,70	1261,55
852,87	1320,94
853,04	1329,13
853,21	1351,66
853,38	1273,84
853,55	1273,84
853,72	1277,93
853,89	1282,03
854,05	1288,17
854,22	1196,01
854,39	1249,26
854,56	1257,45
854,73	1257,45
854,90	1329,13
855,07	1273,84
855,23	1263,60
855,40	1202,16
855,57	1304,56
855,74	1271,79
855,91	1269,74
856,08	1257,45
856,25	1220,59
856,41	1206,25
856,58	1181,68
856,75	1216,49
856,92	1216,49
857,09	1339,37
857,26	1255,40
857,42	1226,73
857,59	1247,21
857,76	1239,02
857,93	1210,35
858,10	1230,83
858,27	1173,49
858,43	1282,03
858,60	1247,21
858,77	1204,21
858,94	1181,68
859,11	1265,64
859,27	1318,89
859,44	1271,79
859,61	1318,89
859,78	1327,08
859,95	1202,16
860,12	1241,07
860,28	1286,12
860,45	1320,94
860,62	1247,21
860,79	1288,17
860,95	1269,74
861,12	1269,74
861,29	1251,31
861,46	1239,02
861,63	1249,26
861,79	1263,60
861,96	1296,36
862,13	1273,84
862,30	1261,55
862,47	1308,65
862,63	1251,31
862,80	1249,26
862,97	1277,93
863,14	1263,60
863,30	1306,60
863,47	1298,41
863,64	1273,84
863,81	1218,54
863,97	1347,56
864,14	1206,25
864,31	1228,78
864,48	1288,17
864,65	1329,13
864,81	1282,03
864,98	1175,53
865,15	1325,04
865,32	1232,88
865,48	1279,98
865,65	1228,78
865,82	1247,21
865,98	1253,36
866,15	1212,40
866,32	1286,12
866,49	1286,12
866,65	1335,28
866,82	1263,60
866,99	1263,60
867,16	1210,35
867,32	1251,31
867,49	1236,97
867,66	1286,12
867,83	1259,50
867,99	1243,12
868,16	1251,31
868,33	1253,36
868,49	1310,70
868,66	1206,25
868,83	1216,49
868,99	1294,32
869,16	1277,93
869,33	1249,26
869,50	1341,42
869,66	1298,41
869,83	1406,95
870,00	1331,18
870,16	1279,98
870,33	1279,98
870,50	1222,64
870,66	1310,70
870,83	1226,73
871,00	1245,16
871,17	1245,16
871,33	1241,07
871,50	1275,88
871,67	1257,45
871,83	1294,32
872,00	1243,12
872,17	1290,22
872,33	1316,84
872,50	1198,06
872,67	1269,74
872,83	1308,65
873,00	1191,92
873,17	1279,98
873,33	1286,12
873,50	1351,66
873,67	1216,49
873,83	1294,32
874,00	1277,93
874,16	1331,18
874,33	1296,36
874,50	1210,35
874,66	1282,03
874,83	1259,50
875,00	1273,84
875,16	1265,64
875,33	1271,79
875,50	1232,88
875,66	1263,60
875,83	1273,84
875,99	1279,98
876,16	1265,64
876,33	1239,02
876,49	1214,45
876,66	1175,53
876,83	1288,17
876,99	1257,45
877,16	1302,51
877,32	1263,60
877,49	1273,84
877,66	1247,21
877,82	1269,74
877,99	1306,60
878,15	1257,45
878,32	1269,74
878,49	1275,88
878,65	1204,21
878,82	1255,40
878,98	1245,16
879,15	1325,04
879,32	1222,64
879,48	1224,69
879,65	1335,28
879,81	1265,64
879,98	1222,64
880,15	1345,52
880,31	1255,40
880,48	1236,97
880,64	1282,03
880,81	1314,80
880,97	1261,55
881,14	1304,56
881,31	1277,93
881,47	1228,78
881,64	1261,55
881,80	1257,45
881,97	1322,99
882,13	1234,93
882,30	1230,83
882,47	1308,65
882,63	1337,32
882,80	1286,12
882,96	1302,51
883,13	1322,99
883,29	1249,26
883,46	1392,62
883,62	1322,99
883,79	1302,51
883,95	1271,79
884,12	1257,45
884,29	1267,69
884,45	1294,32
884,62	1243,12
884,78	1249,26
884,95	1273,84
885,11	1269,74
885,28	1286,12
885,44	1286,12
885,61	1279,98
885,77	1345,52
885,94	1288,17
886,10	1320,94
886,27	1318,89
886,43	1279,98
886,60	1232,88
886,76	1269,74
886,93	1236,97
887,09	1218,54
887,26	1333,23
887,42	1245,16
887,59	1304,56
887,75	1273,84
887,92	1329,13
888,08	1290,22
888,25	1253,36
888,41	1347,56
888,58	1245,16
888,74	1318,89
888,91	1298,41
>>>>>End Processed Spectral Data<<<<<
