SpectraSuite Data File
++++++++++++++++++++++++++++++++++++
Date: Sun Apr 03 18:17:04 CEST 2016
User: root
Dark Spectrum Present: No
Reference Spectrum Present: No
Number of Sampled Component Spectra: 1
Spectrometers: USB4C02835
Integration Time (usec): 10000 (USB4C02835)
Spectra Averaged: 1 (USB4C02835)
Boxcar Smoothing: 0 (USB4C02835)
Correct for Electrical Dark: No (USB4C02835)
Strobe/Lamp Enabled: No (USB4C02835)
Correct for Detector Non-linearity: No (USB4C02835)
Correct for Stray Light: No (USB4C02835)
Number of Pixels in Processed Spectrum: 3648
>>>>>Begin Processed Spectral Data<<<<<
177,47	1206,25
177,69	1206,25
177,91	1206,25
178,13	1255,40
178,36	1202,16
178,58	1206,25
178,80	1286,12
179,02	1230,83
179,24	1300,46
179,46	1247,21
179,68	1265,64
179,90	1267,69
180,13	1239,02
180,35	1222,64
180,57	1273,84
180,79	1232,88
181,01	1243,12
181,23	1279,98
181,45	1306,60
181,67	1253,36
181,90	1193,97
182,12	1267,69
182,34	1255,40
182,56	1294,32
182,78	1216,49
183,00	1208,30
183,22	1206,25
183,44	1224,69
183,66	1337,32
183,89	1263,60
184,11	1304,56
184,33	1218,54
184,55	1327,08
184,77	1296,36
184,99	1294,32
185,21	1290,22
185,43	1288,17
185,65	1273,84
185,87	1175,53
186,10	1216,49
186,32	1232,88
186,54	1331,18
186,76	1222,64
186,98	1327,08
187,20	1196,01
187,42	1294,32
187,64	1296,36
187,86	1261,55
188,08	1183,73
188,30	1267,69
188,52	1296,36
188,75	1259,50
188,97	1216,49
189,19	1218,54
189,41	1232,88
189,63	1316,84
189,85	1232,88
190,07	1245,16
190,29	1236,97
190,51	1298,41
190,73	1224,69
190,95	1255,40
191,17	1355,76
191,39	1279,98
191,61	1265,64
191,84	1261,55
192,06	1255,40
192,28	1286,12
192,50	1298,41
192,72	1241,07
192,94	1255,40
193,16	1224,69
193,38	1216,49
193,60	1275,88
193,82	1230,83
194,04	1292,27
194,26	1296,36
194,48	1251,31
194,70	1277,93
194,92	1284,08
195,14	1226,73
195,36	1241,07
195,58	1173,49
195,80	1294,32
196,02	1193,97
196,24	1292,27
196,46	1300,46
196,69	1214,45
196,91	1353,71
197,13	1196,01
197,35	1202,16
197,57	1263,60
197,79	1312,75
198,01	1288,17
198,23	1310,70
198,45	1187,82
198,67	1325,04
198,89	1224,69
199,11	1255,40
199,33	1312,75
199,55	1265,64
199,77	1304,56
199,99	1236,97
200,21	1318,89
200,43	1247,21
200,65	1296,36
200,87	1312,75
201,09	1247,21
201,31	1247,21
201,53	1257,45
201,75	1245,16
201,97	1212,40
202,19	1253,36
202,41	1218,54
202,63	1261,55
202,85	1282,03
203,07	1269,74
203,29	1275,88
203,51	1288,17
203,73	1306,60
203,95	1245,16
204,17	1241,07
204,39	1284,08
204,61	1294,32
204,83	1296,36
205,05	1292,27
205,27	1345,52
205,49	1232,88
205,71	1241,07
205,93	1290,22
206,15	1294,32
206,37	1179,63
206,59	1312,75
206,81	1261,55
207,03	1208,30
207,25	1243,12
207,47	1200,11
207,69	1253,36
207,91	1263,60
208,13	1232,88
208,34	1314,80
208,56	1320,94
208,78	1247,21
209,00	1376,24
209,22	1296,36
209,44	1300,46
209,66	1265,64
209,88	1236,97
210,10	1243,12
210,32	1212,40
210,54	1208,30
210,76	1322,99
210,98	1284,08
211,20	1282,03
211,42	1275,88
211,64	1290,22
211,86	1269,74
212,08	1329,13
212,30	1191,92
212,52	1193,97
212,74	1308,65
212,96	1316,84
213,17	1257,45
213,39	1279,98
213,61	1232,88
213,83	1232,88
214,05	1198,06
214,27	1249,26
214,49	1269,74
214,71	1265,64
214,93	1300,46
215,15	1267,69
215,37	1265,64
215,59	1312,75
215,81	1273,84
216,03	1230,83
216,24	1253,36
216,46	1210,35
216,68	1267,69
216,90	1216,49
217,12	1304,56
217,34	1243,12
217,56	1304,56
217,78	1304,56
218,00	1335,28
218,22	1294,32
218,44	1253,36
218,66	1214,45
218,87	1257,45
219,09	1284,08
219,31	1282,03
219,53	1267,69
219,75	1288,17
219,97	1366,00
220,19	1247,21
220,41	1261,55
220,63	1247,21
220,85	1269,74
221,06	1193,97
221,28	1322,99
221,50	1232,88
221,72	1220,59
221,94	1282,03
222,16	1300,46
222,38	1288,17
222,60	1300,46
222,82	1273,84
223,03	1191,92
223,25	1290,22
223,47	1257,45
223,69	1353,71
223,91	1239,02
224,13	1363,95
224,35	1277,93
224,57	1224,69
224,78	1269,74
225,00	1318,89
225,22	1269,74
225,44	1310,70
225,66	1265,64
225,88	1306,60
226,10	1253,36
226,32	1239,02
226,53	1236,97
226,75	1239,02
226,97	1273,84
227,19	1236,97
227,41	1247,21
227,63	1239,02
227,85	1353,71
228,06	1255,40
228,28	1218,54
228,50	1275,88
228,72	1232,88
228,94	1302,51
229,16	1308,65
229,37	1251,31
229,59	1296,36
229,81	1341,42
230,03	1234,93
230,25	1335,28
230,47	1198,06
230,69	1257,45
230,90	1284,08
231,12	1335,28
231,34	1286,12
231,56	1200,11
231,78	1189,87
232,00	1265,64
232,21	1292,27
232,43	1259,50
232,65	1312,75
232,87	1279,98
233,09	1279,98
233,30	1284,08
233,52	1320,94
233,74	1277,93
233,96	1320,94
234,18	1275,88
234,40	1257,45
234,61	1265,64
234,83	1269,74
235,05	1239,02
235,27	1216,49
235,49	1335,28
235,70	1353,71
235,92	1247,21
236,14	1249,26
236,36	1286,12
236,58	1255,40
236,79	1236,97
237,01	1257,45
237,23	1273,84
237,45	1257,45
237,67	1265,64
237,88	1314,80
238,10	1267,69
238,32	1220,59
238,54	1206,25
238,76	1331,18
238,97	1263,60
239,19	1300,46
239,41	1363,95
239,63	1306,60
239,85	1310,70
240,06	1290,22
240,28	1294,32
240,50	1277,93
240,72	1318,89
240,93	1220,59
241,15	1310,70
241,37	1230,83
241,59	1267,69
241,81	1286,12
242,02	1302,51
242,24	1286,12
242,46	1284,08
242,68	1208,30
242,89	1277,93
243,11	1247,21
243,33	1318,89
243,55	1279,98
243,76	1232,88
243,98	1241,07
244,20	1245,16
244,42	1271,79
244,64	1275,88
244,85	1335,28
245,07	1282,03
245,29	1292,27
245,51	1300,46
245,72	1249,26
245,94	1292,27
246,16	1255,40
246,38	1300,46
246,59	1165,29
246,81	1275,88
247,03	1222,64
247,24	1226,73
247,46	1269,74
247,68	1282,03
247,90	1222,64
248,11	1286,12
248,33	1249,26
248,55	1282,03
248,77	1292,27
248,98	1208,30
249,20	1267,69
249,42	1273,84
249,64	1277,93
249,85	1230,83
250,07	1267,69
250,29	1220,59
250,50	1316,84
250,72	1263,60
250,94	1296,36
251,16	1282,03
251,37	1279,98
251,59	1253,36
251,81	1208,30
252,02	1249,26
252,24	1331,18
252,46	1261,55
252,68	1245,16
252,89	1306,60
253,11	1191,92
253,33	1226,73
253,54	1220,59
253,76	1204,21
253,98	1339,37
254,20	1267,69
254,41	1271,79
254,63	1322,99
254,85	1322,99
255,06	1384,43
255,28	1400,81
255,50	1320,94
255,71	1241,07
255,93	1193,97
256,15	1298,41
256,36	1269,74
256,58	1243,12
256,80	1257,45
257,02	1255,40
257,23	1263,60
257,45	1251,31
257,67	1267,69
257,88	1302,51
258,10	1263,60
258,32	1284,08
258,53	1228,78
258,75	1294,32
258,97	1261,55
259,18	1236,97
259,40	1245,16
259,62	1316,84
259,83	1257,45
260,05	1263,60
260,27	1331,18
260,48	1300,46
260,70	1298,41
260,92	1273,84
261,13	1347,56
261,35	1304,56
261,57	1269,74
261,78	1232,88
262,00	1265,64
262,22	1253,36
262,43	1245,16
262,65	1177,58
262,86	1286,12
263,08	1277,93
263,30	1241,07
263,51	1224,69
263,73	1239,02
263,95	1263,60
264,16	1308,65
264,38	1234,93
264,60	1206,25
264,81	1234,93
265,03	1310,70
265,25	1310,70
265,46	1306,60
265,68	1300,46
265,89	1239,02
266,11	1294,32
266,33	1196,01
266,54	1284,08
266,76	1214,45
266,98	1249,26
267,19	1247,21
267,41	1261,55
267,62	1267,69
267,84	1230,83
268,06	1277,93
268,27	1308,65
268,49	1271,79
268,70	1255,40
268,92	1277,93
269,14	1331,18
269,35	1286,12
269,57	1279,98
269,79	1316,84
270,00	1339,37
270,22	1269,74
270,43	1251,31
270,65	1206,25
270,87	1222,64
271,08	1314,80
271,30	1214,45
271,51	1286,12
271,73	1261,55
271,95	1284,08
272,16	1247,21
272,38	1267,69
272,59	1249,26
272,81	1318,89
273,02	1269,74
273,24	1310,70
273,46	1220,59
273,67	1243,12
273,89	1288,17
274,10	1275,88
274,32	1241,07
274,54	1265,64
274,75	1292,27
274,97	1284,08
275,18	1261,55
275,40	1189,87
275,61	1306,60
275,83	1230,83
276,05	1294,32
276,26	1296,36
276,48	1191,92
276,69	1322,99
276,91	1200,11
277,12	1230,83
277,34	1310,70
277,55	1232,88
277,77	1261,55
277,99	1193,97
278,20	1259,50
278,42	1298,41
278,63	1306,60
278,85	1255,40
279,06	1261,55
279,28	1306,60
279,49	1245,16
279,71	1288,17
279,93	1302,51
280,14	1232,88
280,36	1273,84
280,57	1343,47
280,79	1265,64
281,00	1343,47
281,22	1322,99
281,43	1302,51
281,65	1216,49
281,86	1200,11
282,08	1271,79
282,29	1275,88
282,51	1273,84
282,73	1267,69
282,94	1228,78
283,16	1196,01
283,37	1370,09
283,59	1257,45
283,80	1241,07
284,02	1253,36
284,23	1253,36
284,45	1226,73
284,66	1271,79
284,88	1263,60
285,09	1267,69
285,31	1247,21
285,52	1204,21
285,74	1273,84
285,95	1261,55
286,17	1351,66
286,38	1210,35
286,60	1222,64
286,81	1196,01
287,03	1294,32
287,24	1284,08
287,46	1267,69
287,67	1267,69
287,89	1247,21
288,10	1247,21
288,32	1286,12
288,53	1320,94
288,75	1257,45
288,96	1210,35
289,18	1363,95
289,39	1298,41
289,61	1232,88
289,82	1355,76
290,04	1318,89
290,25	1265,64
290,47	1273,84
290,68	1327,08
290,90	1312,75
291,11	1239,02
291,33	1226,73
291,54	1234,93
291,76	1265,64
291,97	1257,45
292,18	1216,49
292,40	1236,97
292,61	1335,28
292,83	1269,74
293,04	1290,22
293,26	1316,84
293,47	1245,16
293,69	1282,03
293,90	1279,98
294,12	1320,94
294,33	1230,83
294,55	1253,36
294,76	1308,65
294,97	1286,12
295,19	1320,94
295,40	1275,88
295,62	1271,79
295,83	1247,21
296,05	1288,17
296,26	1224,69
296,48	1284,08
296,69	1279,98
296,90	1269,74
297,12	1245,16
297,33	1286,12
297,55	1261,55
297,76	1329,13
297,98	1304,56
298,19	1322,99
298,41	1253,36
298,62	1308,65
298,83	1245,16
299,05	1257,45
299,26	1263,60
299,48	1263,60
299,69	1206,25
299,90	1232,88
300,12	1277,93
300,33	1165,29
300,55	1239,02
300,76	1290,22
300,98	1288,17
301,19	1275,88
301,40	1161,20
301,62	1253,36
301,83	1298,41
302,05	1239,02
302,26	1269,74
302,47	1312,75
302,69	1202,16
302,90	1290,22
303,12	1292,27
303,33	1337,32
303,54	1308,65
303,76	1243,12
303,97	1257,45
304,19	1267,69
304,40	1296,36
304,61	1193,97
304,83	1169,39
305,04	1269,74
305,26	1275,88
305,47	1325,04
305,68	1245,16
305,90	1275,88
306,11	1265,64
306,33	1331,18
306,54	1273,84
306,75	1247,21
306,97	1279,98
307,18	1173,49
307,39	1310,70
307,61	1304,56
307,82	1298,41
308,04	1300,46
308,25	1228,78
308,46	1306,60
308,68	1294,32
308,89	1247,21
309,10	1286,12
309,32	1331,18
309,53	1282,03
309,74	1314,80
309,96	1247,21
310,17	1232,88
310,39	1222,64
310,60	1288,17
310,81	1318,89
311,03	1204,21
311,24	1243,12
311,45	1351,66
311,67	1261,55
311,88	1288,17
312,09	1253,36
312,31	1325,04
312,52	1234,93
312,73	1302,51
312,95	1230,83
313,16	1222,64
313,37	1255,40
313,59	1277,93
313,80	1279,98
314,01	1314,80
314,23	1312,75
314,44	1239,02
314,65	1279,98
314,87	1247,21
315,08	1232,88
315,29	1327,08
315,51	1232,88
315,72	1300,46
315,93	1261,55
316,15	1230,83
316,36	1226,73
316,57	1304,56
316,79	1232,88
317,00	1236,97
317,21	1267,69
317,43	1236,97
317,64	1234,93
317,85	1226,73
318,07	1275,88
318,28	1273,84
318,49	1200,11
318,70	1261,55
318,92	1228,78
319,13	1279,98
319,34	1222,64
319,56	1263,60
319,77	1218,54
319,98	1302,51
320,20	1298,41
320,41	1345,52
320,62	1234,93
320,83	1269,74
321,05	1320,94
321,26	1329,13
321,47	1284,08
321,69	1251,31
321,90	1275,88
322,11	1294,32
322,32	1335,28
322,54	1267,69
322,75	1263,60
322,96	1286,12
323,18	1310,70
323,39	1234,93
323,60	1251,31
323,81	1304,56
324,03	1218,54
324,24	1306,60
324,45	1279,98
324,66	1253,36
324,88	1247,21
325,09	1290,22
325,30	1265,64
325,52	1208,30
325,73	1263,60
325,94	1249,26
326,15	1230,83
326,37	1318,89
326,58	1279,98
326,79	1314,80
327,00	1208,30
327,22	1230,83
327,43	1218,54
327,64	1241,07
327,85	1318,89
328,07	1216,49
328,28	1265,64
328,49	1261,55
328,70	1259,50
328,92	1249,26
329,13	1200,11
329,34	1288,17
329,55	1239,02
329,76	1284,08
329,98	1343,47
330,19	1245,16
330,40	1245,16
330,61	1314,80
330,83	1265,64
331,04	1241,07
331,25	1282,03
331,46	1239,02
331,68	1230,83
331,89	1312,75
332,10	1230,83
332,31	1214,45
332,52	1290,22
332,74	1290,22
332,95	1349,61
333,16	1245,16
333,37	1269,74
333,58	1253,36
333,80	1267,69
334,01	1261,55
334,22	1249,26
334,43	1347,56
334,64	1187,82
334,86	1314,80
335,07	1306,60
335,28	1312,75
335,49	1218,54
335,70	1327,08
335,92	1296,36
336,13	1261,55
336,34	1271,79
336,55	1318,89
336,76	1286,12
336,98	1232,88
337,19	1224,69
337,40	1275,88
337,61	1263,60
337,82	1220,59
338,04	1259,50
338,25	1222,64
338,46	1261,55
338,67	1241,07
338,88	1196,01
339,09	1241,07
339,31	1286,12
339,52	1224,69
339,73	1314,80
339,94	1292,27
340,15	1282,03
340,36	1241,07
340,58	1269,74
340,79	1290,22
341,00	1294,32
341,21	1316,84
341,42	1214,45
341,63	1273,84
341,85	1251,31
342,06	1216,49
342,27	1298,41
342,48	1159,15
342,69	1288,17
342,90	1333,23
343,12	1271,79
343,33	1290,22
343,54	1277,93
343,75	1247,21
343,96	1306,60
344,17	1279,98
344,38	1279,98
344,60	1265,64
344,81	1204,21
345,02	1298,41
345,23	1296,36
345,44	1271,79
345,65	1212,40
345,86	1261,55
346,07	1257,45
346,29	1261,55
346,50	1257,45
346,71	1290,22
346,92	1208,30
347,13	1267,69
347,34	1232,88
347,55	1255,40
347,76	1241,07
347,98	1261,55
348,19	1265,64
348,40	1308,65
348,61	1263,60
348,82	1298,41
349,03	1300,46
349,24	1257,45
349,45	1257,45
349,66	1263,60
349,88	1243,12
350,09	1243,12
350,30	1247,21
350,51	1378,28
350,72	1239,02
350,93	1263,60
351,14	1208,30
351,35	1277,93
351,56	1216,49
351,77	1239,02
351,99	1261,55
352,20	1341,42
352,41	1236,97
352,62	1228,78
352,83	1294,32
353,04	1222,64
353,25	1282,03
353,46	1271,79
353,67	1247,21
353,88	1245,16
354,09	1241,07
354,30	1355,76
354,52	1300,46
354,73	1255,40
354,94	1286,12
355,15	1179,63
355,36	1277,93
355,57	1304,56
355,78	1284,08
355,99	1322,99
356,20	1286,12
356,41	1335,28
356,62	1257,45
356,83	1255,40
357,04	1279,98
357,25	1263,60
357,46	1288,17
357,68	1279,98
357,89	1357,80
358,10	1222,64
358,31	1366,00
358,52	1275,88
358,73	1271,79
358,94	1353,71
359,15	1269,74
359,36	1261,55
359,57	1245,16
359,78	1333,23
359,99	1239,02
360,20	1208,30
360,41	1302,51
360,62	1214,45
360,83	1271,79
361,04	1290,22
361,25	1355,76
361,46	1167,34
361,67	1261,55
361,88	1243,12
362,09	1277,93
362,30	1290,22
362,51	1265,64
362,72	1241,07
362,93	1247,21
363,14	1286,12
363,35	1267,69
363,56	1216,49
363,78	1275,88
363,99	1249,26
364,20	1265,64
364,41	1304,56
364,62	1241,07
364,83	1206,25
365,04	1245,16
365,25	1277,93
365,46	1273,84
365,67	1294,32
365,88	1239,02
366,09	1310,70
366,30	1196,01
366,51	1282,03
366,72	1288,17
366,93	1243,12
367,14	1353,71
367,35	1239,02
367,56	1277,93
367,77	1269,74
367,98	1275,88
368,18	1210,35
368,39	1236,97
368,60	1245,16
368,81	1318,89
369,02	1218,54
369,23	1267,69
369,44	1292,27
369,65	1286,12
369,86	1284,08
370,07	1245,16
370,28	1193,97
370,49	1259,50
370,70	1333,23
370,91	1222,64
371,12	1411,05
371,33	1212,40
371,54	1290,22
371,75	1312,75
371,96	1259,50
372,17	1329,13
372,38	1263,60
372,59	1312,75
372,80	1294,32
373,01	1320,94
373,22	1306,60
373,43	1218,54
373,64	1239,02
373,85	1286,12
374,06	1339,37
374,26	1234,93
374,47	1206,25
374,68	1277,93
374,89	1273,84
375,10	1269,74
375,31	1351,66
375,52	1253,36
375,73	1304,56
375,94	1196,01
376,15	1257,45
376,36	1234,93
376,57	1220,59
376,78	1290,22
376,99	1298,41
377,20	1224,69
377,40	1329,13
377,61	1279,98
377,82	1353,71
378,03	1224,69
378,24	1282,03
378,45	1257,45
378,66	1296,36
378,87	1253,36
379,08	1294,32
379,29	1224,69
379,50	1312,75
379,71	1181,68
379,91	1226,73
380,12	1232,88
380,33	1204,21
380,54	1286,12
380,75	1255,40
380,96	1214,45
381,17	1284,08
381,38	1314,80
381,59	1249,26
381,80	1247,21
382,00	1257,45
382,21	1202,16
382,42	1294,32
382,63	1216,49
382,84	1253,36
383,05	1234,93
383,26	1279,98
383,47	1284,08
383,68	1241,07
383,88	1257,45
384,09	1236,97
384,30	1296,36
384,51	1241,07
384,72	1267,69
384,93	1243,12
385,14	1220,59
385,35	1322,99
385,55	1294,32
385,76	1322,99
385,97	1247,21
386,18	1255,40
386,39	1247,21
386,60	1218,54
386,81	1290,22
387,02	1306,60
387,22	1179,63
387,43	1314,80
387,64	1294,32
387,85	1193,97
388,06	1366,00
388,27	1282,03
388,48	1288,17
388,68	1294,32
388,89	1259,50
389,10	1265,64
389,31	1230,83
389,52	1292,27
389,73	1263,60
389,93	1259,50
390,14	1347,56
390,35	1239,02
390,56	1259,50
390,77	1345,52
390,98	1255,40
391,18	1310,70
391,39	1243,12
391,60	1316,84
391,81	1222,64
392,02	1208,30
392,23	1286,12
392,43	1208,30
392,64	1284,08
392,85	1337,32
393,06	1271,79
393,27	1269,74
393,47	1306,60
393,68	1290,22
393,89	1296,36
394,10	1318,89
394,31	1220,59
394,52	1228,78
394,72	1245,16
394,93	1243,12
395,14	1230,83
395,35	1290,22
395,56	1267,69
395,76	1255,40
395,97	1306,60
396,18	1331,18
396,39	1228,78
396,60	1322,99
396,80	1198,06
397,01	1259,50
397,22	1284,08
397,43	1234,93
397,64	1259,50
397,84	1243,12
398,05	1306,60
398,26	1241,07
398,47	1236,97
398,67	1263,60
398,88	1284,08
399,09	1290,22
399,30	1208,30
399,51	1312,75
399,71	1247,21
399,92	1275,88
400,13	1236,97
400,34	1279,98
400,54	1236,97
400,75	1343,47
400,96	1282,03
401,17	1294,32
401,37	1236,97
401,58	1249,26
401,79	1341,42
402,00	1290,22
402,21	1239,02
402,41	1202,16
402,62	1218,54
402,83	1286,12
403,04	1277,93
403,24	1196,01
403,45	1302,51
403,66	1241,07
403,87	1318,89
404,07	1261,55
404,28	1269,74
404,49	1298,41
404,70	1345,52
404,90	1257,45
405,11	1277,93
405,32	1302,51
405,52	1241,07
405,73	1239,02
405,94	1329,13
406,15	1261,55
406,35	1269,74
406,56	1269,74
406,77	1290,22
406,98	1271,79
407,18	1255,40
407,39	1290,22
407,60	1339,37
407,80	1249,26
408,01	1363,95
408,22	1275,88
408,43	1322,99
408,63	1226,73
408,84	1210,35
409,05	1288,17
409,25	1247,21
409,46	1300,46
409,67	1247,21
409,88	1304,56
410,08	1249,26
410,29	1327,08
410,50	1345,52
410,70	1282,03
410,91	1187,82
411,12	1361,90
411,32	1322,99
411,53	1310,70
411,74	1273,84
411,95	1292,27
412,15	1226,73
412,36	1322,99
412,57	1339,37
412,77	1271,79
412,98	1202,16
413,19	1294,32
413,39	1234,93
413,60	1290,22
413,81	1243,12
414,01	1277,93
414,22	1265,64
414,43	1310,70
414,63	1294,32
414,84	1273,84
415,05	1255,40
415,25	1269,74
415,46	1261,55
415,67	1290,22
415,87	1255,40
416,08	1243,12
416,29	1257,45
416,49	1304,56
416,70	1265,64
416,91	1288,17
417,11	1271,79
417,32	1310,70
417,53	1269,74
417,73	1312,75
417,94	1282,03
418,15	1267,69
418,35	1257,45
418,56	1251,31
418,77	1304,56
418,97	1275,88
419,18	1236,97
419,38	1261,55
419,59	1263,60
419,80	1296,36
420,00	1212,40
420,21	1294,32
420,42	1279,98
420,62	1265,64
420,83	1206,25
421,04	1292,27
421,24	1292,27
421,45	1306,60
421,65	1294,32
421,86	1249,26
422,07	1279,98
422,27	1263,60
422,48	1239,02
422,69	1288,17
422,89	1259,50
423,10	1318,89
423,30	1263,60
423,51	1306,60
423,72	1277,93
423,92	1249,26
424,13	1251,31
424,33	1173,49
424,54	1257,45
424,75	1273,84
424,95	1255,40
425,16	1261,55
425,36	1212,40
425,57	1337,32
425,78	1263,60
425,98	1206,25
426,19	1257,45
426,39	1331,18
426,60	1302,51
426,81	1263,60
427,01	1243,12
427,22	1218,54
427,42	1308,65
427,63	1255,40
427,83	1177,58
428,04	1234,93
428,25	1208,30
428,45	1312,75
428,66	1292,27
428,86	1279,98
429,07	1269,74
429,28	1191,92
429,48	1294,32
429,69	1255,40
429,89	1183,73
430,10	1224,69
430,30	1263,60
430,51	1241,07
430,71	1286,12
430,92	1290,22
431,13	1273,84
431,33	1224,69
431,54	1236,97
431,74	1236,97
431,95	1294,32
432,15	1265,64
432,36	1212,40
432,56	1318,89
432,77	1300,46
432,98	1296,36
433,18	1253,36
433,39	1273,84
433,59	1265,64
433,80	1304,56
434,00	1265,64
434,21	1296,36
434,41	1267,69
434,62	1202,16
434,82	1259,50
435,03	1249,26
435,23	1304,56
435,44	1306,60
435,64	1277,93
435,85	1271,79
436,06	1300,46
436,26	1290,22
436,47	1345,52
436,67	1224,69
436,88	1228,78
437,08	1318,89
437,29	1312,75
437,49	1306,60
437,70	1226,73
437,90	1226,73
438,11	1292,27
438,31	1355,76
438,52	1271,79
438,72	1263,60
438,93	1265,64
439,13	1191,92
439,34	1247,21
439,54	1224,69
439,75	1222,64
439,95	1241,07
440,16	1222,64
440,36	1302,51
440,57	1271,79
440,77	1286,12
440,98	1189,87
441,18	1247,21
441,39	1251,31
441,59	1282,03
441,80	1292,27
442,00	1288,17
442,21	1298,41
442,41	1259,50
442,62	1302,51
442,82	1286,12
443,02	1179,63
443,23	1269,74
443,43	1306,60
443,64	1267,69
443,84	1245,16
444,05	1239,02
444,25	1277,93
444,46	1234,93
444,66	1269,74
444,87	1304,56
445,07	1277,93
445,28	1296,36
445,48	1279,98
445,69	1257,45
445,89	1337,32
446,09	1284,08
446,30	1210,35
446,50	1284,08
446,71	1220,59
446,91	1298,41
447,12	1249,26
447,32	1236,97
447,53	1241,07
447,73	1279,98
447,93	1302,51
448,14	1257,45
448,34	1312,75
448,55	1361,90
448,75	1202,16
448,96	1306,60
449,16	1226,73
449,36	1234,93
449,57	1251,31
449,77	1249,26
449,98	1236,97
450,18	1245,16
450,39	1259,50
450,59	1271,79
450,79	1261,55
451,00	1271,79
451,20	1224,69
451,41	1298,41
451,61	1269,74
451,81	1288,17
452,02	1245,16
452,22	1306,60
452,43	1247,21
452,63	1265,64
452,84	1288,17
453,04	1269,74
453,24	1263,60
453,45	1267,69
453,65	1322,99
453,86	1239,02
454,06	1279,98
454,26	1292,27
454,47	1189,87
454,67	1298,41
454,87	1261,55
455,08	1224,69
455,28	1320,94
455,49	1263,60
455,69	1259,50
455,89	1234,93
456,10	1196,01
456,30	1216,49
456,51	1306,60
456,71	1245,16
456,91	1214,45
457,12	1245,16
457,32	1236,97
457,52	1259,50
457,73	1253,36
457,93	1279,98
458,14	1253,36
458,34	1277,93
458,54	1232,88
458,75	1308,65
458,95	1259,50
459,15	1267,69
459,36	1193,97
459,56	1228,78
459,76	1218,54
459,97	1343,47
460,17	1247,21
460,37	1318,89
460,58	1253,36
460,78	1286,12
460,99	1222,64
461,19	1282,03
461,39	1257,45
461,60	1241,07
461,80	1236,97
462,00	1255,40
462,21	1249,26
462,41	1290,22
462,61	1269,74
462,82	1269,74
463,02	1253,36
463,22	1284,08
463,43	1232,88
463,63	1212,40
463,83	1288,17
464,04	1273,84
464,24	1222,64
464,44	1255,40
464,64	1300,46
464,85	1318,89
465,05	1284,08
465,25	1292,27
465,46	1196,01
465,66	1259,50
465,86	1257,45
466,07	1322,99
466,27	1228,78
466,47	1265,64
466,68	1331,18
466,88	1271,79
467,08	1241,07
467,29	1228,78
467,49	1306,60
467,69	1245,16
467,89	1222,64
468,10	1273,84
468,30	1298,41
468,50	1228,78
468,71	1269,74
468,91	1251,31
469,11	1296,36
469,31	1232,88
469,52	1298,41
469,72	1300,46
469,92	1245,16
470,13	1275,88
470,33	1296,36
470,53	1243,12
470,73	1261,55
470,94	1310,70
471,14	1247,21
471,34	1251,31
471,54	1267,69
471,75	1236,97
471,95	1306,60
472,15	1286,12
472,36	1349,61
472,56	1222,64
472,76	1329,13
472,96	1306,60
473,17	1255,40
473,37	1351,66
473,57	1206,25
473,77	1331,18
473,98	1202,16
474,18	1220,59
474,38	1345,52
474,58	1322,99
474,79	1249,26
474,99	1286,12
475,19	1310,70
475,39	1236,97
475,60	1322,99
475,80	1234,93
476,00	1310,70
476,20	1308,65
476,41	1236,97
476,61	1331,18
476,81	1300,46
477,01	1228,78
477,21	1249,26
477,42	1306,60
477,62	1230,83
477,82	1267,69
478,02	1263,60
478,23	1230,83
478,43	1261,55
478,63	1228,78
478,83	1232,88
479,03	1296,36
479,24	1261,55
479,44	1220,59
479,64	1322,99
479,84	1279,98
480,04	1232,88
480,25	1290,22
480,45	1239,02
480,65	1269,74
480,85	1292,27
481,06	1249,26
481,26	1263,60
481,46	1191,92
481,66	1343,47
481,86	1298,41
482,06	1310,70
482,27	1337,32
482,47	1271,79
482,67	1316,84
482,87	1279,98
483,07	1200,11
483,28	1273,84
483,48	1288,17
483,68	1275,88
483,88	1239,02
484,08	1286,12
484,29	1337,32
484,49	1320,94
484,69	1310,70
484,89	1222,64
485,09	1271,79
485,29	1214,45
485,50	1220,59
485,70	1212,40
485,90	1296,36
486,10	1300,46
486,30	1292,27
486,50	1228,78
486,71	1284,08
486,91	1236,97
487,11	1236,97
487,31	1193,97
487,51	1222,64
487,71	1196,01
487,91	1257,45
488,12	1288,17
488,32	1267,69
488,52	1279,98
488,72	1277,93
488,92	1239,02
489,12	1325,04
489,32	1310,70
489,53	1222,64
489,73	1271,79
489,93	1273,84
490,13	1245,16
490,33	1306,60
490,53	1257,45
490,73	1290,22
490,94	1263,60
491,14	1306,60
491,34	1265,64
491,54	1284,08
491,74	1271,79
491,94	1296,36
492,14	1318,89
492,34	1165,29
492,54	1382,38
492,75	1279,98
492,95	1253,36
493,15	1222,64
493,35	1224,69
493,55	1251,31
493,75	1337,32
493,95	1306,60
494,15	1239,02
494,35	1247,21
494,56	1253,36
494,76	1273,84
494,96	1277,93
495,16	1202,16
495,36	1216,49
495,56	1216,49
495,76	1230,83
495,96	1226,73
496,16	1339,37
496,36	1239,02
496,56	1247,21
496,77	1230,83
496,97	1261,55
497,17	1304,56
497,37	1304,56
497,57	1249,26
497,77	1267,69
497,97	1226,73
498,17	1257,45
498,37	1294,32
498,57	1206,25
498,77	1257,45
498,97	1300,46
499,17	1329,13
499,38	1189,87
499,58	1292,27
499,78	1220,59
499,98	1275,88
500,18	1286,12
500,38	1327,08
500,58	1230,83
500,78	1241,07
500,98	1331,18
501,18	1320,94
501,38	1257,45
501,58	1253,36
501,78	1245,16
501,98	1288,17
502,18	1218,54
502,38	1306,60
502,58	1245,16
502,78	1212,40
502,98	1208,30
503,18	1298,41
503,38	1220,59
503,59	1292,27
503,79	1243,12
503,99	1220,59
504,19	1261,55
504,39	1298,41
504,59	1247,21
504,79	1253,36
504,99	1273,84
505,19	1282,03
505,39	1286,12
505,59	1249,26
505,79	1308,65
505,99	1355,76
506,19	1292,27
506,39	1249,26
506,59	1257,45
506,79	1267,69
506,99	1279,98
507,19	1263,60
507,39	1310,70
507,59	1279,98
507,79	1247,21
507,99	1200,11
508,19	1202,16
508,39	1271,79
508,59	1210,35
508,79	1347,56
508,99	1312,75
509,19	1269,74
509,39	1263,60
509,59	1220,59
509,79	1259,50
509,99	1271,79
510,19	1183,73
510,39	1265,64
510,59	1253,36
510,79	1251,31
510,99	1243,12
511,19	1265,64
511,39	1204,21
511,59	1304,56
511,79	1292,27
511,99	1253,36
512,19	1316,84
512,38	1226,73
512,58	1228,78
512,78	1292,27
512,98	1298,41
513,18	1275,88
513,38	1241,07
513,58	1249,26
513,78	1206,25
513,98	1306,60
514,18	1265,64
514,38	1284,08
514,58	1208,30
514,78	1255,40
514,98	1228,78
515,18	1241,07
515,38	1202,16
515,58	1245,16
515,78	1302,51
515,98	1210,35
516,18	1298,41
516,38	1255,40
516,57	1265,64
516,77	1318,89
516,97	1273,84
517,17	1255,40
517,37	1308,65
517,57	1183,73
517,77	1177,58
517,97	1249,26
518,17	1239,02
518,37	1294,32
518,57	1290,22
518,77	1243,12
518,97	1331,18
519,16	1300,46
519,36	1214,45
519,56	1265,64
519,76	1275,88
519,96	1337,32
520,16	1339,37
520,36	1204,21
520,56	1191,92
520,76	1314,80
520,96	1245,16
521,16	1245,16
521,35	1275,88
521,55	1261,55
521,75	1275,88
521,95	1236,97
522,15	1249,26
522,35	1304,56
522,55	1294,32
522,75	1286,12
522,95	1290,22
523,14	1241,07
523,34	1265,64
523,54	1232,88
523,74	1220,59
523,94	1296,36
524,14	1210,35
524,34	1230,83
524,54	1245,16
524,73	1185,77
524,93	1261,55
525,13	1310,70
525,33	1236,97
525,53	1249,26
525,73	1292,27
525,93	1279,98
526,13	1210,35
526,32	1224,69
526,52	1228,78
526,72	1232,88
526,92	1218,54
527,12	1249,26
527,32	1222,64
527,52	1243,12
527,71	1175,53
527,91	1255,40
528,11	1284,08
528,31	1269,74
528,51	1345,52
528,71	1294,32
528,90	1263,60
529,10	1341,42
529,30	1245,16
529,50	1183,73
529,70	1320,94
529,90	1236,97
530,09	1312,75
530,29	1210,35
530,49	1239,02
530,69	1271,79
530,89	1267,69
531,09	1236,97
531,28	1222,64
531,48	1222,64
531,68	1202,16
531,88	1349,61
532,08	1239,02
532,28	1306,60
532,47	1241,07
532,67	1288,17
532,87	1243,12
533,07	1232,88
533,27	1271,79
533,46	1337,32
533,66	1273,84
533,86	1282,03
534,06	1300,46
534,26	1304,56
534,45	1294,32
534,65	1288,17
534,85	1308,65
535,05	1212,40
535,25	1312,75
535,44	1273,84
535,64	1320,94
535,84	1288,17
536,04	1257,45
536,24	1271,79
536,43	1271,79
536,63	1298,41
536,83	1322,99
537,03	1271,79
537,22	1193,97
537,42	1263,60
537,62	1341,42
537,82	1282,03
538,02	1288,17
538,21	1263,60
538,41	1224,69
538,61	1322,99
538,81	1306,60
539,00	1261,55
539,20	1294,32
539,40	1220,59
539,60	1337,32
539,79	1265,64
539,99	1284,08
540,19	1243,12
540,39	1304,56
540,58	1349,61
540,78	1245,16
540,98	1329,13
541,18	1310,70
541,37	1292,27
541,57	1269,74
541,77	1226,73
541,97	1269,74
542,16	1273,84
542,36	1245,16
542,56	1253,36
542,76	1292,27
542,95	1286,12
543,15	1249,26
543,35	1189,87
543,54	1234,93
543,74	1208,30
543,94	1306,60
544,14	1306,60
544,33	1341,42
544,53	1322,99
544,73	1267,69
544,93	1255,40
545,12	1245,16
545,32	1265,64
545,52	1259,50
545,71	1345,52
545,91	1241,07
546,11	1314,80
546,30	1325,04
546,50	1245,16
546,70	1218,54
546,90	1261,55
547,09	1236,97
547,29	1265,64
547,49	1228,78
547,68	1331,18
547,88	1273,84
548,08	1202,16
548,27	1259,50
548,47	1263,60
548,67	1267,69
548,87	1302,51
549,06	1310,70
549,26	1243,12
549,46	1310,70
549,65	1196,01
549,85	1228,78
550,05	1327,08
550,24	1253,36
550,44	1210,35
550,64	1277,93
550,83	1298,41
551,03	1300,46
551,23	1222,64
551,42	1259,50
551,62	1261,55
551,82	1282,03
552,01	1226,73
552,21	1261,55
552,41	1161,20
552,60	1308,65
552,80	1298,41
553,00	1191,92
553,19	1257,45
553,39	1376,24
553,59	1255,40
553,78	1282,03
553,98	1216,49
554,17	1247,21
554,37	1243,12
554,57	1236,97
554,76	1259,50
554,96	1214,45
555,16	1335,28
555,35	1296,36
555,55	1265,64
555,75	1294,32
555,94	1288,17
556,14	1296,36
556,33	1292,27
556,53	1243,12
556,73	1204,21
556,92	1259,50
557,12	1329,13
557,32	1224,69
557,51	1249,26
557,71	1255,40
557,90	1318,89
558,10	1255,40
558,30	1239,02
558,49	1232,88
558,69	1304,56
558,88	1374,19
559,08	1265,64
559,28	1269,74
559,47	1286,12
559,67	1204,21
559,86	1267,69
560,06	1314,80
560,26	1269,74
560,45	1318,89
560,65	1249,26
560,84	1292,27
561,04	1286,12
561,24	1181,68
561,43	1210,35
561,63	1265,64
561,82	1220,59
562,02	1257,45
562,22	1249,26
562,41	1277,93
562,61	1224,69
562,80	1335,28
563,00	1290,22
563,19	1277,93
563,39	1241,07
563,59	1275,88
563,78	1216,49
563,98	1308,65
564,17	1296,36
564,37	1265,64
564,56	1273,84
564,76	1265,64
564,96	1243,12
565,15	1198,06
565,35	1257,45
565,54	1279,98
565,74	1349,61
565,93	1304,56
566,13	1150,96
566,32	1241,07
566,52	1312,75
566,71	1200,11
566,91	1284,08
567,11	1249,26
567,30	1306,60
567,50	1282,03
567,69	1253,36
567,89	1320,94
568,08	1198,06
568,28	1234,93
568,47	1228,78
568,67	1191,92
568,86	1322,99
569,06	1320,94
569,25	1216,49
569,45	1257,45
569,64	1212,40
569,84	1255,40
570,04	1261,55
570,23	1251,31
570,43	1288,17
570,62	1245,16
570,82	1279,98
571,01	1249,26
571,21	1271,79
571,40	1241,07
571,60	1236,97
571,79	1329,13
571,99	1292,27
572,18	1261,55
572,38	1265,64
572,57	1284,08
572,77	1257,45
572,96	1322,99
573,16	1286,12
573,35	1265,64
573,55	1243,12
573,74	1249,26
573,94	1314,80
574,13	1318,89
574,33	1196,01
574,52	1292,27
574,71	1306,60
574,91	1286,12
575,10	1300,46
575,30	1271,79
575,49	1263,60
575,69	1214,45
575,88	1275,88
576,08	1275,88
576,27	1329,13
576,47	1239,02
576,66	1183,73
576,86	1304,56
577,05	1239,02
577,25	1265,64
577,44	1302,51
577,64	1241,07
577,83	1331,18
578,02	1245,16
578,22	1279,98
578,41	1322,99
578,61	1304,56
578,80	1271,79
579,00	1325,04
579,19	1322,99
579,39	1234,93
579,58	1236,97
579,77	1214,45
579,97	1277,93
580,16	1310,70
580,36	1288,17
580,55	1363,95
580,75	1245,16
580,94	1298,41
581,13	1253,36
581,33	1271,79
581,52	1263,60
581,72	1208,30
581,91	1239,02
582,11	1263,60
582,30	1282,03
582,49	1277,93
582,69	1275,88
582,88	1243,12
583,08	1288,17
583,27	1255,40
583,47	1226,73
583,66	1306,60
583,85	1259,50
584,05	1220,59
584,24	1329,13
584,44	1236,97
584,63	1239,02
584,82	1316,84
585,02	1224,69
585,21	1206,25
585,41	1255,40
585,60	1282,03
585,79	1232,88
585,99	1312,75
586,18	1259,50
586,37	1226,73
586,57	1290,22
586,76	1277,93
586,96	1308,65
587,15	1257,45
587,34	1265,64
587,54	1292,27
587,73	1282,03
587,93	1249,26
588,12	1208,30
588,31	1312,75
588,51	1220,59
588,70	1214,45
588,89	1253,36
589,09	1304,56
589,28	1279,98
589,47	1267,69
589,67	1210,35
589,86	1251,31
590,06	1255,40
590,25	1329,13
590,44	1275,88
590,64	1302,51
590,83	1277,93
591,02	1277,93
591,22	1191,92
591,41	1306,60
591,60	1279,98
591,80	1261,55
591,99	1243,12
592,18	1222,64
592,38	1314,80
592,57	1298,41
592,76	1322,99
592,96	1277,93
593,15	1249,26
593,34	1296,36
593,54	1245,16
593,73	1279,98
593,92	1218,54
594,12	1286,12
594,31	1322,99
594,50	1304,56
594,70	1292,27
594,89	1249,26
595,08	1267,69
595,28	1208,30
595,47	1277,93
595,66	1220,59
595,86	1275,88
596,05	1271,79
596,24	1271,79
596,43	1273,84
596,63	1282,03
596,82	1269,74
597,01	1251,31
597,21	1253,36
597,40	1271,79
597,59	1216,49
597,79	1206,25
597,98	1224,69
598,17	1241,07
598,36	1265,64
598,56	1187,82
598,75	1347,56
598,94	1150,96
599,14	1339,37
599,33	1212,40
599,52	1243,12
599,71	1253,36
599,91	1279,98
600,10	1181,68
600,29	1288,17
600,48	1316,84
600,68	1290,22
600,87	1224,69
601,06	1331,18
601,26	1286,12
601,45	1290,22
601,64	1284,08
601,83	1234,93
602,03	1353,71
602,22	1320,94
602,41	1267,69
602,60	1302,51
602,80	1302,51
602,99	1269,74
603,18	1216,49
603,37	1288,17
603,57	1249,26
603,76	1335,28
603,95	1308,65
604,14	1265,64
604,34	1282,03
604,53	1224,69
604,72	1210,35
604,91	1339,37
605,10	1236,97
605,30	1245,16
605,49	1298,41
605,68	1286,12
605,87	1314,80
606,07	1204,21
606,26	1292,27
606,45	1247,21
606,64	1286,12
606,84	1267,69
607,03	1286,12
607,22	1263,60
607,41	1241,07
607,60	1322,99
607,80	1224,69
607,99	1202,16
608,18	1236,97
608,37	1261,55
608,56	1245,16
608,76	1232,88
608,95	1286,12
609,14	1234,93
609,33	1249,26
609,52	1257,45
609,72	1265,64
609,91	1247,21
610,10	1249,26
610,29	1273,84
610,48	1296,36
610,68	1284,08
610,87	1232,88
611,06	1263,60
611,25	1253,36
611,44	1261,55
611,63	1234,93
611,83	1298,41
612,02	1306,60
612,21	1286,12
612,40	1234,93
612,59	1253,36
612,79	1259,50
612,98	1312,75
613,17	1245,16
613,36	1271,79
613,55	1286,12
613,74	1273,84
613,93	1282,03
614,13	1277,93
614,32	1191,92
614,51	1257,45
614,70	1165,29
614,89	1265,64
615,08	1245,16
615,28	1337,32
615,47	1247,21
615,66	1288,17
615,85	1290,22
616,04	1245,16
616,23	1234,93
616,42	1277,93
616,62	1355,76
616,81	1282,03
617,00	1312,75
617,19	1255,40
617,38	1296,36
617,57	1261,55
617,76	1306,60
617,95	1249,26
618,15	1263,60
618,34	1261,55
618,53	1241,07
618,72	1296,36
618,91	1318,89
619,10	1353,71
619,29	1288,17
619,48	1284,08
619,68	1316,84
619,87	1269,74
620,06	1331,18
620,25	1241,07
620,44	1314,80
620,63	1263,60
620,82	1239,02
621,01	1263,60
621,20	1222,64
621,39	1308,65
621,59	1239,02
621,78	1251,31
621,97	1296,36
622,16	1253,36
622,35	1275,88
622,54	1263,60
622,73	1306,60
622,92	1239,02
623,11	1320,94
623,30	1302,51
623,49	1310,70
623,68	1232,88
623,88	1263,60
624,07	1259,50
624,26	1261,55
624,45	1304,56
624,64	1269,74
624,83	1320,94
625,02	1202,16
625,21	1304,56
625,40	1210,35
625,59	1314,80
625,78	1329,13
625,97	1296,36
626,16	1345,52
626,35	1292,27
626,54	1220,59
626,74	1294,32
626,93	1228,78
627,12	1277,93
627,31	1370,09
627,50	1294,32
627,69	1255,40
627,88	1398,76
628,07	1312,75
628,26	1333,23
628,45	1284,08
628,64	1263,60
628,83	1300,46
629,02	1267,69
629,21	1327,08
629,40	1318,89
629,59	1259,50
629,78	1255,40
629,97	1306,60
630,16	1296,36
630,35	1247,21
630,54	1239,02
630,73	1411,05
630,92	1331,18
631,11	1226,73
631,30	1325,04
631,49	1318,89
631,68	1519,59
631,87	3520,46
632,06	11552,59
632,25	22052,53
632,44	25218,69
632,63	26521,20
632,82	13815,60
633,01	5320,62
633,20	3573,71
633,39	3014,61
633,58	2443,23
633,77	2011,11
633,96	1859,56
634,15	1894,37
634,34	1820,64
634,53	1628,14
634,72	1597,42
634,91	1511,40
635,10	1568,74
635,29	1597,42
635,48	1544,17
635,67	1478,63
635,86	1519,59
636,05	1480,68
636,24	1484,78
636,43	1335,28
636,62	1318,89
636,81	1357,80
637,00	1273,84
637,19	1310,70
637,38	1355,76
637,57	1306,60
637,76	1341,42
637,95	1359,85
638,14	1282,03
638,33	1243,12
638,52	1310,70
638,71	1339,37
638,89	1294,32
639,08	1294,32
639,27	1243,12
639,46	1304,56
639,65	1327,08
639,84	1316,84
640,03	1245,16
640,22	1298,41
640,41	1279,98
640,60	1304,56
640,79	1275,88
640,98	1251,31
641,17	1204,21
641,36	1261,55
641,55	1282,03
641,74	1214,45
641,92	1267,69
642,11	1216,49
642,30	1224,69
642,49	1312,75
642,68	1284,08
642,87	1294,32
643,06	1282,03
643,25	1286,12
643,44	1337,32
643,63	1306,60
643,82	1290,22
644,00	1265,64
644,19	1243,12
644,38	1263,60
644,57	1284,08
644,76	1212,40
644,95	1279,98
645,14	1263,60
645,33	1241,07
645,52	1308,65
645,71	1312,75
645,89	1216,49
646,08	1263,60
646,27	1325,04
646,46	1312,75
646,65	1202,16
646,84	1312,75
647,03	1320,94
647,22	1265,64
647,40	1302,51
647,59	1241,07
647,78	1236,97
647,97	1284,08
648,16	1316,84
648,35	1255,40
648,54	1230,83
648,73	1200,11
648,91	1222,64
649,10	1267,69
649,29	1314,80
649,48	1294,32
649,67	1294,32
649,86	1308,65
650,05	1200,11
650,23	1239,02
650,42	1257,45
650,61	1288,17
650,80	1306,60
650,99	1230,83
651,18	1308,65
651,36	1329,13
651,55	1292,27
651,74	1239,02
651,93	1259,50
652,12	1206,25
652,31	1306,60
652,49	1255,40
652,68	1230,83
652,87	1204,21
653,06	1181,68
653,25	1273,84
653,44	1277,93
653,62	1302,51
653,81	1198,06
654,00	1153,01
654,19	1224,69
654,38	1329,13
654,56	1200,11
654,75	1345,52
654,94	1259,50
655,13	1271,79
655,32	1284,08
655,51	1318,89
655,69	1325,04
655,88	1245,16
656,07	1273,84
656,26	1302,51
656,45	1228,78
656,63	1320,94
656,82	1241,07
657,01	1290,22
657,20	1267,69
657,38	1249,26
657,57	1220,59
657,76	1245,16
657,95	1306,60
658,14	1261,55
658,32	1253,36
658,51	1239,02
658,70	1277,93
658,89	1263,60
659,08	1228,78
659,26	1279,98
659,45	1277,93
659,64	1259,50
659,83	1255,40
660,01	1277,93
660,20	1198,06
660,39	1312,75
660,58	1316,84
660,76	1282,03
660,95	1241,07
661,14	1249,26
661,33	1241,07
661,51	1296,36
661,70	1320,94
661,89	1308,65
662,08	1318,89
662,26	1245,16
662,45	1220,59
662,64	1273,84
662,83	1337,32
663,01	1314,80
663,20	1226,73
663,39	1282,03
663,58	1322,99
663,76	1261,55
663,95	1232,88
664,14	1267,69
664,32	1191,92
664,51	1298,41
664,70	1226,73
664,89	1208,30
665,07	1261,55
665,26	1239,02
665,45	1251,31
665,64	1222,64
665,82	1148,91
666,01	1200,11
666,20	1263,60
666,38	1296,36
666,57	1247,21
666,76	1363,95
666,95	1282,03
667,13	1265,64
667,32	1308,65
667,51	1249,26
667,69	1329,13
667,88	1271,79
668,07	1267,69
668,25	1320,94
668,44	1247,21
668,63	1316,84
668,81	1310,70
669,00	1298,41
669,19	1275,88
669,38	1216,49
669,56	1249,26
669,75	1265,64
669,94	1247,21
670,12	1314,80
670,31	1263,60
670,50	1234,93
670,68	1222,64
670,87	1273,84
671,06	1232,88
671,24	1249,26
671,43	1286,12
671,62	1263,60
671,80	1273,84
671,99	1277,93
672,18	1220,59
672,36	1253,36
672,55	1232,88
672,74	1265,64
672,92	1273,84
673,11	1286,12
673,29	1243,12
673,48	1331,18
673,67	1251,31
673,85	1265,64
674,04	1310,70
674,23	1222,64
674,41	1222,64
674,60	1177,58
674,79	1335,28
674,97	1214,45
675,16	1286,12
675,34	1257,45
675,53	1249,26
675,72	1329,13
675,90	1224,69
676,09	1269,74
676,28	1273,84
676,46	1257,45
676,65	1226,73
676,83	1331,18
677,02	1232,88
677,21	1335,28
677,39	1253,36
677,58	1335,28
677,77	1265,64
677,95	1267,69
678,14	1292,27
678,32	1183,73
678,51	1306,60
678,70	1279,98
678,88	1310,70
679,07	1306,60
679,25	1265,64
679,44	1239,02
679,63	1275,88
679,81	1282,03
680,00	1220,59
680,18	1243,12
680,37	1282,03
680,55	1279,98
680,74	1271,79
680,93	1353,71
681,11	1198,06
681,30	1329,13
681,48	1253,36
681,67	1275,88
681,85	1220,59
682,04	1245,16
682,23	1251,31
682,41	1292,27
682,60	1273,84
682,78	1279,98
682,97	1269,74
683,15	1265,64
683,34	1200,11
683,53	1234,93
683,71	1320,94
683,90	1273,84
684,08	1261,55
684,27	1267,69
684,45	1292,27
684,64	1308,65
684,82	1232,88
685,01	1249,26
685,19	1275,88
685,38	1232,88
685,57	1230,83
685,75	1255,40
685,94	1282,03
686,12	1236,97
686,31	1298,41
686,49	1284,08
686,68	1271,79
686,86	1312,75
687,05	1275,88
687,23	1257,45
687,42	1265,64
687,60	1239,02
687,79	1304,56
687,97	1275,88
688,16	1269,74
688,34	1290,22
688,53	1298,41
688,71	1331,18
688,90	1290,22
689,08	1251,31
689,27	1288,17
689,45	1296,36
689,64	1296,36
689,82	1263,60
690,01	1265,64
690,19	1304,56
690,38	1282,03
690,56	1275,88
690,75	1253,36
690,93	1304,56
691,12	1251,31
691,30	1253,36
691,49	1251,31
691,67	1232,88
691,86	1300,46
692,04	1302,51
692,23	1222,64
692,41	1247,21
692,60	1269,74
692,78	1273,84
692,97	1257,45
693,15	1247,21
693,34	1320,94
693,52	1288,17
693,71	1263,60
693,89	1298,41
694,08	1273,84
694,26	1271,79
694,44	1251,31
694,63	1267,69
694,81	1239,02
695,00	1273,84
695,18	1271,79
695,37	1304,56
695,55	1310,70
695,74	1239,02
695,92	1257,45
696,10	1265,64
696,29	1290,22
696,47	1304,56
696,66	1257,45
696,84	1267,69
697,03	1234,93
697,21	1277,93
697,40	1253,36
697,58	1300,46
697,76	1230,83
697,95	1312,75
698,13	1306,60
698,32	1288,17
698,50	1292,27
698,68	1257,45
698,87	1253,36
699,05	1245,16
699,24	1320,94
699,42	1284,08
699,61	1269,74
699,79	1249,26
699,97	1333,23
700,16	1247,21
700,34	1306,60
700,53	1249,26
700,71	1214,45
700,89	1265,64
701,08	1253,36
701,26	1298,41
701,45	1296,36
701,63	1275,88
701,81	1204,21
702,00	1245,16
702,18	1290,22
702,37	1245,16
702,55	1290,22
702,73	1308,65
702,92	1273,84
703,10	1277,93
703,28	1216,49
703,47	1267,69
703,65	1282,03
703,84	1234,93
704,02	1239,02
704,20	1251,31
704,39	1208,30
704,57	1247,21
704,75	1249,26
704,94	1292,27
705,12	1288,17
705,30	1200,11
705,49	1153,01
705,67	1312,75
705,86	1296,36
706,04	1279,98
706,22	1292,27
706,41	1273,84
706,59	1277,93
706,77	1249,26
706,96	1279,98
707,14	1263,60
707,32	1314,80
707,51	1247,21
707,69	1294,32
707,87	1329,13
708,06	1284,08
708,24	1341,42
708,42	1243,12
708,61	1310,70
708,79	1327,08
708,97	1279,98
709,16	1220,59
709,34	1232,88
709,52	1220,59
709,71	1325,04
709,89	1212,40
710,07	1257,45
710,26	1269,74
710,44	1361,90
710,62	1284,08
710,80	1277,93
710,99	1267,69
711,17	1263,60
711,35	1275,88
711,54	1292,27
711,72	1259,50
711,90	1257,45
712,09	1230,83
712,27	1277,93
712,45	1243,12
712,63	1232,88
712,82	1239,02
713,00	1265,64
713,18	1206,25
713,37	1261,55
713,55	1306,60
713,73	1271,79
713,91	1325,04
714,10	1304,56
714,28	1247,21
714,46	1337,32
714,65	1279,98
714,83	1259,50
715,01	1316,84
715,19	1253,36
715,38	1265,64
715,56	1302,51
715,74	1282,03
715,92	1320,94
716,11	1259,50
716,29	1277,93
716,47	1153,01
716,65	1265,64
716,84	1298,41
717,02	1282,03
717,20	1226,73
717,38	1294,32
717,57	1298,41
717,75	1306,60
717,93	1265,64
718,11	1234,93
718,30	1251,31
718,48	1298,41
718,66	1290,22
718,84	1259,50
719,03	1257,45
719,21	1212,40
719,39	1263,60
719,57	1230,83
719,75	1265,64
719,94	1279,98
720,12	1249,26
720,30	1329,13
720,48	1257,45
720,67	1310,70
720,85	1214,45
721,03	1341,42
721,21	1271,79
721,39	1202,16
721,58	1257,45
721,76	1320,94
721,94	1224,69
722,12	1314,80
722,30	1187,82
722,49	1183,73
722,67	1241,07
722,85	1306,60
723,03	1263,60
723,21	1249,26
723,40	1279,98
723,58	1228,78
723,76	1220,59
723,94	1296,36
724,12	1257,45
724,30	1234,93
724,49	1265,64
724,67	1259,50
724,85	1279,98
725,03	1298,41
725,21	1296,36
725,40	1230,83
725,58	1286,12
725,76	1234,93
725,94	1204,21
726,12	1204,21
726,30	1273,84
726,49	1259,50
726,67	1284,08
726,85	1273,84
727,03	1277,93
727,21	1243,12
727,39	1241,07
727,57	1290,22
727,76	1294,32
727,94	1243,12
728,12	1249,26
728,30	1267,69
728,48	1320,94
728,66	1314,80
728,84	1284,08
729,03	1306,60
729,21	1200,11
729,39	1267,69
729,57	1253,36
729,75	1259,50
729,93	1292,27
730,11	1300,46
730,30	1271,79
730,48	1304,56
730,66	1267,69
730,84	1353,71
731,02	1257,45
731,20	1259,50
731,38	1331,18
731,56	1251,31
731,74	1255,40
731,93	1206,25
732,11	1298,41
732,29	1251,31
732,47	1273,84
732,65	1267,69
732,83	1214,45
733,01	1269,74
733,19	1284,08
733,37	1232,88
733,56	1241,07
733,74	1249,26
733,92	1286,12
734,10	1269,74
734,28	1220,59
734,46	1234,93
734,64	1185,77
734,82	1255,40
735,00	1290,22
735,18	1224,69
735,36	1241,07
735,54	1249,26
735,73	1273,84
735,91	1161,20
736,09	1259,50
736,27	1228,78
736,45	1302,51
736,63	1189,87
736,81	1265,64
736,99	1259,50
737,17	1298,41
737,35	1294,32
737,53	1288,17
737,71	1253,36
737,89	1261,55
738,07	1171,44
738,25	1241,07
738,43	1275,88
738,61	1224,69
738,80	1265,64
738,98	1261,55
739,16	1331,18
739,34	1267,69
739,52	1312,75
739,70	1296,36
739,88	1310,70
740,06	1290,22
740,24	1322,99
740,42	1261,55
740,60	1216,49
740,78	1251,31
740,96	1183,73
741,14	1296,36
741,32	1279,98
741,50	1243,12
741,68	1275,88
741,86	1359,85
742,04	1378,28
742,22	1191,92
742,40	1300,46
742,58	1288,17
742,76	1257,45
742,94	1226,73
743,12	1206,25
743,30	1263,60
743,48	1153,01
743,66	1273,84
743,84	1243,12
744,02	1253,36
744,20	1230,83
744,38	1273,84
744,56	1288,17
744,74	1251,31
744,92	1300,46
745,10	1273,84
745,28	1226,73
745,46	1255,40
745,64	1257,45
745,82	1286,12
746,00	1290,22
746,18	1277,93
746,36	1206,25
746,54	1273,84
746,72	1304,56
746,90	1208,30
747,08	1269,74
747,26	1224,69
747,44	1243,12
747,62	1345,52
747,80	1290,22
747,98	1302,51
748,15	1267,69
748,33	1200,11
748,51	1241,07
748,69	1265,64
748,87	1282,03
749,05	1245,16
749,23	1271,79
749,41	1218,54
749,59	1298,41
749,77	1206,25
749,95	1292,27
750,13	1265,64
750,31	1296,36
750,49	1218,54
750,67	1234,93
750,85	1273,84
751,03	1230,83
751,20	1331,18
751,38	1243,12
751,56	1267,69
751,74	1284,08
751,92	1202,16
752,10	1247,21
752,28	1193,97
752,46	1247,21
752,64	1234,93
752,82	1296,36
753,00	1245,16
753,18	1224,69
753,35	1245,16
753,53	1212,40
753,71	1298,41
753,89	1261,55
754,07	1210,35
754,25	1253,36
754,43	1275,88
754,61	1279,98
754,79	1249,26
754,97	1259,50
755,14	1249,26
755,32	1279,98
755,50	1234,93
755,68	1331,18
755,86	1232,88
756,04	1263,60
756,22	1288,17
756,40	1230,83
756,57	1284,08
756,75	1275,88
756,93	1234,93
757,11	1282,03
757,29	1257,45
757,47	1298,41
757,65	1253,36
757,82	1304,56
758,00	1257,45
758,18	1316,84
758,36	1263,60
758,54	1263,60
758,72	1196,01
758,90	1325,04
759,07	1261,55
759,25	1204,21
759,43	1232,88
759,61	1247,21
759,79	1253,36
759,97	1288,17
760,15	1265,64
760,32	1263,60
760,50	1306,60
760,68	1288,17
760,86	1333,23
761,04	1312,75
761,22	1286,12
761,39	1226,73
761,57	1204,21
761,75	1265,64
761,93	1298,41
762,11	1325,04
762,28	1210,35
762,46	1298,41
762,64	1284,08
762,82	1282,03
763,00	1200,11
763,18	1261,55
763,35	1249,26
763,53	1263,60
763,71	1255,40
763,89	1279,98
764,07	1245,16
764,24	1345,52
764,42	1288,17
764,60	1279,98
764,78	1269,74
764,96	1173,49
765,13	1269,74
765,31	1218,54
765,49	1306,60
765,67	1230,83
765,84	1261,55
766,02	1296,36
766,20	1228,78
766,38	1302,51
766,56	1216,49
766,73	1322,99
766,91	1298,41
767,09	1204,21
767,27	1327,08
767,44	1220,59
767,62	1251,31
767,80	1275,88
767,98	1343,47
768,15	1271,79
768,33	1292,27
768,51	1275,88
768,69	1263,60
768,87	1208,30
769,04	1292,27
769,22	1269,74
769,40	1282,03
769,58	1226,73
769,75	1286,12
769,93	1306,60
770,11	1243,12
770,28	1316,84
770,46	1265,64
770,64	1288,17
770,82	1335,28
770,99	1263,60
771,17	1273,84
771,35	1290,22
771,53	1294,32
771,70	1288,17
771,88	1265,64
772,06	1224,69
772,23	1206,25
772,41	1284,08
772,59	1341,42
772,77	1345,52
772,94	1298,41
773,12	1279,98
773,30	1212,40
773,47	1300,46
773,65	1216,49
773,83	1263,60
774,01	1267,69
774,18	1206,25
774,36	1212,40
774,54	1292,27
774,71	1243,12
774,89	1263,60
775,07	1251,31
775,24	1282,03
775,42	1185,77
775,60	1310,70
775,78	1232,88
775,95	1218,54
776,13	1286,12
776,31	1226,73
776,48	1282,03
776,66	1314,80
776,84	1269,74
777,01	1236,97
777,19	1282,03
777,37	1259,50
777,54	1232,88
777,72	1253,36
777,90	1222,64
778,07	1210,35
778,25	1271,79
778,43	1230,83
778,60	1275,88
778,78	1296,36
778,96	1269,74
779,13	1374,19
779,31	1282,03
779,49	1314,80
779,66	1230,83
779,84	1228,78
780,01	1200,11
780,19	1333,23
780,37	1339,37
780,54	1189,87
780,72	1322,99
780,90	1277,93
781,07	1275,88
781,25	1241,07
781,43	1257,45
781,60	1259,50
781,78	1241,07
781,95	1306,60
782,13	1243,12
782,31	1327,08
782,48	1300,46
782,66	1302,51
782,83	1239,02
783,01	1200,11
783,19	1308,65
783,36	1290,22
783,54	1282,03
783,72	1249,26
783,89	1269,74
784,07	1261,55
784,24	1277,93
784,42	1279,98
784,60	1236,97
784,77	1167,34
784,95	1236,97
785,12	1290,22
785,30	1251,31
785,47	1222,64
785,65	1255,40
785,83	1224,69
786,00	1337,32
786,18	1196,01
786,35	1210,35
786,53	1353,71
786,71	1288,17
786,88	1247,21
787,06	1220,59
787,23	1259,50
787,41	1269,74
787,58	1273,84
787,76	1243,12
787,94	1224,69
788,11	1288,17
788,29	1255,40
788,46	1245,16
788,64	1232,88
788,81	1206,25
788,99	1298,41
789,16	1216,49
789,34	1314,80
789,52	1249,26
789,69	1261,55
789,87	1337,32
790,04	1261,55
790,22	1322,99
790,39	1255,40
790,57	1239,02
790,74	1255,40
790,92	1275,88
791,09	1249,26
791,27	1169,39
791,44	1273,84
791,62	1298,41
791,79	1333,23
791,97	1279,98
792,15	1273,84
792,32	1181,68
792,50	1232,88
792,67	1286,12
792,85	1302,51
793,02	1282,03
793,20	1261,55
793,37	1255,40
793,55	1282,03
793,72	1335,28
793,90	1204,21
794,07	1218,54
794,25	1310,70
794,42	1277,93
794,60	1255,40
794,77	1255,40
794,95	1257,45
795,12	1181,68
795,30	1337,32
795,47	1331,18
795,65	1249,26
795,82	1222,64
796,00	1288,17
796,17	1230,83
796,34	1306,60
796,52	1189,87
796,69	1284,08
796,87	1318,89
797,04	1267,69
797,22	1294,32
797,39	1243,12
797,57	1218,54
797,74	1228,78
797,92	1226,73
798,09	1214,45
798,27	1347,56
798,44	1206,25
798,62	1218,54
798,79	1216,49
798,96	1257,45
799,14	1236,97
799,31	1224,69
799,49	1277,93
799,66	1284,08
799,84	1279,98
800,01	1251,31
800,19	1292,27
800,36	1230,83
800,53	1273,84
800,71	1282,03
800,88	1234,93
801,06	1290,22
801,23	1284,08
801,41	1277,93
801,58	1247,21
801,75	1243,12
801,93	1224,69
802,10	1302,51
802,28	1279,98
802,45	1294,32
802,63	1298,41
802,80	1261,55
802,97	1259,50
803,15	1189,87
803,32	1306,60
803,50	1345,52
803,67	1138,67
803,84	1212,40
804,02	1239,02
804,19	1236,97
804,37	1214,45
804,54	1275,88
804,71	1247,21
804,89	1275,88
805,06	1216,49
805,24	1294,32
805,41	1245,16
805,58	1251,31
805,76	1279,98
805,93	1214,45
806,10	1282,03
806,28	1329,13
806,45	1292,27
806,63	1267,69
806,80	1329,13
806,97	1218,54
807,15	1331,18
807,32	1288,17
807,49	1247,21
807,67	1241,07
807,84	1288,17
808,01	1310,70
808,19	1230,83
808,36	1355,76
808,54	1251,31
808,71	1279,98
808,88	1302,51
809,06	1271,79
809,23	1230,83
809,40	1271,79
809,58	1245,16
809,75	1284,08
809,92	1288,17
810,10	1273,84
810,27	1196,01
810,44	1241,07
810,62	1241,07
810,79	1198,06
810,96	1183,73
811,14	1302,51
811,31	1183,73
811,48	1322,99
811,66	1296,36
811,83	1253,36
812,00	1320,94
812,18	1249,26
812,35	1253,36
812,52	1273,84
812,69	1314,80
812,87	1253,36
813,04	1288,17
813,21	1230,83
813,39	1259,50
813,56	1202,16
813,73	1322,99
813,91	1253,36
814,08	1232,88
814,25	1302,51
814,42	1253,36
814,60	1214,45
814,77	1279,98
814,94	1249,26
815,12	1288,17
815,29	1302,51
815,46	1290,22
815,63	1341,42
815,81	1263,60
815,98	1302,51
816,15	1214,45
816,33	1206,25
816,50	1261,55
816,67	1265,64
816,84	1327,08
817,02	1271,79
817,19	1265,64
817,36	1249,26
817,53	1243,12
817,71	1267,69
817,88	1234,93
818,05	1257,45
818,22	1224,69
818,40	1292,27
818,57	1249,26
818,74	1241,07
818,91	1187,82
819,09	1271,79
819,26	1316,84
819,43	1349,61
819,60	1353,71
819,78	1320,94
819,95	1282,03
820,12	1255,40
820,29	1259,50
820,47	1245,16
820,64	1232,88
820,81	1228,78
820,98	1271,79
821,15	1196,01
821,33	1282,03
821,50	1216,49
821,67	1218,54
821,84	1265,64
822,02	1282,03
822,19	1259,50
822,36	1202,16
822,53	1241,07
822,70	1257,45
822,88	1255,40
823,05	1284,08
823,22	1302,51
823,39	1220,59
823,56	1230,83
823,74	1269,74
823,91	1261,55
824,08	1265,64
824,25	1292,27
824,42	1208,30
824,60	1216,49
824,77	1265,64
824,94	1234,93
825,11	1245,16
825,28	1339,37
825,45	1286,12
825,63	1296,36
825,80	1230,83
825,97	1298,41
826,14	1247,21
826,31	1286,12
826,48	1253,36
826,66	1322,99
826,83	1279,98
827,00	1273,84
827,17	1236,97
827,34	1265,64
827,51	1234,93
827,69	1271,79
827,86	1269,74
828,03	1304,56
828,20	1290,22
828,37	1210,35
828,54	1318,89
828,71	1204,21
828,89	1269,74
829,06	1273,84
829,23	1316,84
829,40	1269,74
829,57	1257,45
829,74	1257,45
829,91	1216,49
830,09	1282,03
830,26	1273,84
830,43	1216,49
830,60	1243,12
830,77	1263,60
830,94	1310,70
831,11	1275,88
831,28	1255,40
831,46	1312,75
831,63	1318,89
831,80	1271,79
831,97	1200,11
832,14	1224,69
832,31	1261,55
832,48	1275,88
832,65	1290,22
832,82	1177,58
832,99	1259,50
833,17	1269,74
833,34	1329,13
833,51	1257,45
833,68	1263,60
833,85	1320,94
834,02	1212,40
834,19	1210,35
834,36	1222,64
834,53	1228,78
834,70	1253,36
834,87	1255,40
835,04	1310,70
835,22	1257,45
835,39	1247,21
835,56	1224,69
835,73	1306,60
835,90	1187,82
836,07	1251,31
836,24	1294,32
836,41	1353,71
836,58	1325,04
836,75	1325,04
836,92	1302,51
837,09	1294,32
837,26	1183,73
837,43	1255,40
837,60	1279,98
837,77	1251,31
837,94	1189,87
838,12	1239,02
838,29	1153,01
838,46	1265,64
838,63	1259,50
838,80	1306,60
838,97	1355,76
839,14	1306,60
839,31	1288,17
839,48	1296,36
839,65	1228,78
839,82	1263,60
839,99	1275,88
840,16	1302,51
840,33	1249,26
840,50	1306,60
840,67	1218,54
840,84	1298,41
841,01	1210,35
841,18	1308,65
841,35	1273,84
841,52	1208,30
841,69	1224,69
841,86	1296,36
842,03	1290,22
842,20	1304,56
842,37	1284,08
842,54	1300,46
842,71	1163,25
842,88	1259,50
843,05	1239,02
843,22	1263,60
843,39	1253,36
843,56	1267,69
843,73	1322,99
843,90	1232,88
844,07	1267,69
844,24	1294,32
844,41	1259,50
844,58	1300,46
844,75	1218,54
844,92	1269,74
845,09	1255,40
845,26	1269,74
845,43	1286,12
845,60	1331,18
845,77	1269,74
845,94	1249,26
846,10	1179,63
846,27	1255,40
846,44	1175,53
846,61	1298,41
846,78	1253,36
846,95	1200,11
847,12	1320,94
847,29	1239,02
847,46	1296,36
847,63	1277,93
847,80	1290,22
847,97	1353,71
848,14	1288,17
848,31	1288,17
848,48	1277,93
848,65	1286,12
848,82	1218,54
848,98	1294,32
849,15	1243,12
849,32	1218,54
849,49	1273,84
849,66	1245,16
849,83	1251,31
850,00	1239,02
850,17	1322,99
850,34	1234,93
850,51	1241,07
850,68	1200,11
850,85	1279,98
851,01	1310,70
851,18	1200,11
851,35	1288,17
851,52	1329,13
851,69	1310,70
851,86	1257,45
852,03	1320,94
852,20	1271,79
852,37	1200,11
852,53	1224,69
852,70	1247,21
852,87	1353,71
853,04	1279,98
853,21	1255,40
853,38	1232,88
853,55	1314,80
853,72	1347,56
853,89	1183,73
854,05	1208,30
854,22	1298,41
854,39	1286,12
854,56	1226,73
854,73	1216,49
854,90	1236,97
855,07	1214,45
855,23	1306,60
855,40	1273,84
855,57	1282,03
855,74	1247,21
855,91	1335,28
856,08	1263,60
856,25	1239,02
856,41	1232,88
856,58	1300,46
856,75	1318,89
856,92	1234,93
857,09	1241,07
857,26	1245,16
857,42	1257,45
857,59	1327,08
857,76	1273,84
857,93	1236,97
858,10	1193,97
858,27	1316,84
858,43	1228,78
858,60	1204,21
858,77	1282,03
858,94	1181,68
859,11	1261,55
859,27	1253,36
859,44	1298,41
859,61	1300,46
859,78	1222,64
859,95	1230,83
860,12	1226,73
860,28	1249,26
860,45	1245,16
860,62	1267,69
860,79	1337,32
860,95	1204,21
861,12	1290,22
861,29	1310,70
861,46	1267,69
861,63	1196,01
861,79	1241,07
861,96	1243,12
862,13	1306,60
862,30	1265,64
862,47	1288,17
862,63	1308,65
862,80	1306,60
862,97	1228,78
863,14	1265,64
863,30	1333,23
863,47	1275,88
863,64	1267,69
863,81	1282,03
863,97	1249,26
864,14	1216,49
864,31	1247,21
864,48	1251,31
864,65	1314,80
864,81	1296,36
864,98	1251,31
865,15	1312,75
865,32	1271,79
865,48	1318,89
865,65	1271,79
865,82	1206,25
865,98	1257,45
866,15	1279,98
866,32	1331,18
866,49	1261,55
866,65	1210,35
866,82	1300,46
866,99	1257,45
867,16	1308,65
867,32	1173,49
867,49	1232,88
867,66	1318,89
867,83	1290,22
867,99	1269,74
868,16	1253,36
868,33	1241,07
868,49	1259,50
868,66	1245,16
868,83	1220,59
868,99	1236,97
869,16	1263,60
869,33	1224,69
869,50	1255,40
869,66	1279,98
869,83	1265,64
870,00	1241,07
870,16	1310,70
870,33	1230,83
870,50	1288,17
870,66	1267,69
870,83	1290,22
871,00	1302,51
871,17	1306,60
871,33	1331,18
871,50	1368,04
871,67	1200,11
871,83	1294,32
872,00	1251,31
872,17	1236,97
872,33	1347,56
872,50	1271,79
872,67	1316,84
872,83	1269,74
873,00	1318,89
873,17	1234,93
873,33	1247,21
873,50	1261,55
873,67	1253,36
873,83	1187,82
874,00	1206,25
874,16	1269,74
874,33	1234,93
874,50	1271,79
874,66	1290,22
874,83	1273,84
875,00	1335,28
875,16	1308,65
875,33	1271,79
875,50	1294,32
875,66	1228,78
875,83	1288,17
875,99	1320,94
876,16	1282,03
876,33	1257,45
876,49	1251,31
876,66	1306,60
876,83	1308,65
876,99	1277,93
877,16	1265,64
877,32	1320,94
877,49	1247,21
877,66	1224,69
877,82	1310,70
877,99	1236,97
878,15	1290,22
878,32	1263,60
878,49	1314,80
878,65	1245,16
878,82	1273,84
878,98	1298,41
879,15	1265,64
879,32	1224,69
879,48	1327,08
879,65	1239,02
879,81	1298,41
879,98	1267,69
880,15	1267,69
880,31	1241,07
880,48	1228,78
880,64	1263,60
880,81	1306,60
880,97	1247,21
881,14	1230,83
881,31	1331,18
881,47	1282,03
881,64	1275,88
881,80	1259,50
881,97	1220,59
882,13	1243,12
882,30	1341,42
882,47	1263,60
882,63	1200,11
882,80	1189,87
882,96	1245,16
883,13	1312,75
883,29	1292,27
883,46	1251,31
883,62	1265,64
883,79	1298,41
883,95	1271,79
884,12	1282,03
884,29	1206,25
884,45	1230,83
884,62	1275,88
884,78	1312,75
884,95	1298,41
885,11	1226,73
885,28	1279,98
885,44	1320,94
885,61	1279,98
885,77	1339,37
885,94	1288,17
886,10	1261,55
886,27	1239,02
886,43	1212,40
886,60	1292,27
886,76	1282,03
886,93	1286,12
887,09	1187,82
887,26	1224,69
887,42	1269,74
887,59	1357,80
887,75	1298,41
887,92	1279,98
888,08	1310,70
888,25	1277,93
888,41	1308,65
888,58	1253,36
888,74	1253,36
888,91	1234,93
>>>>>End Processed Spectral Data<<<<<
