SpectraSuite Data File
++++++++++++++++++++++++++++++++++++
Date: Sun Apr 03 16:18:04 CEST 2016
User: root
Dark Spectrum Present: No
Reference Spectrum Present: No
Number of Sampled Component Spectra: 1
Spectrometers: USB4C02835
Integration Time (usec): 10000 (USB4C02835)
Spectra Averaged: 1 (USB4C02835)
Boxcar Smoothing: 0 (USB4C02835)
Correct for Electrical Dark: No (USB4C02835)
Strobe/Lamp Enabled: No (USB4C02835)
Correct for Detector Non-linearity: No (USB4C02835)
Correct for Stray Light: No (USB4C02835)
Number of Pixels in Processed Spectrum: 3648
>>>>>Begin Processed Spectral Data<<<<<
177,47	1226,73
177,69	1226,73
177,91	1226,73
178,13	1249,26
178,36	1259,50
178,58	1226,73
178,80	1279,98
179,02	1251,31
179,24	1263,60
179,46	1290,22
179,68	1271,79
179,90	1298,41
180,13	1257,45
180,35	1261,55
180,57	1282,03
180,79	1320,94
181,01	1261,55
181,23	1282,03
181,45	1226,73
181,67	1224,69
181,90	1267,69
182,12	1269,74
182,34	1290,22
182,56	1292,27
182,78	1210,35
183,00	1267,69
183,22	1279,98
183,44	1234,93
183,66	1296,36
183,89	1351,66
184,11	1294,32
184,33	1294,32
184,55	1273,84
184,77	1257,45
184,99	1322,99
185,21	1329,13
185,43	1189,87
185,65	1304,56
185,87	1277,93
186,10	1216,49
186,32	1292,27
186,54	1271,79
186,76	1255,40
186,98	1273,84
187,20	1255,40
187,42	1277,93
187,64	1216,49
187,86	1277,93
188,08	1249,26
188,30	1265,64
188,52	1204,21
188,75	1251,31
188,97	1228,78
189,19	1341,42
189,41	1265,64
189,63	1236,97
189,85	1245,16
190,07	1261,55
190,29	1243,12
190,51	1224,69
190,73	1196,01
190,95	1288,17
191,17	1277,93
191,39	1214,45
191,61	1275,88
191,84	1251,31
192,06	1275,88
192,28	1218,54
192,50	1234,93
192,72	1271,79
192,94	1329,13
193,16	1239,02
193,38	1245,16
193,60	1298,41
193,82	1318,89
194,04	1204,21
194,26	1292,27
194,48	1263,60
194,70	1314,80
194,92	1161,20
195,14	1306,60
195,36	1282,03
195,58	1282,03
195,80	1279,98
196,02	1196,01
196,24	1310,70
196,46	1257,45
196,69	1222,64
196,91	1253,36
197,13	1232,88
197,35	1277,93
197,57	1189,87
197,79	1159,15
198,01	1259,50
198,23	1228,78
198,45	1257,45
198,67	1189,87
198,89	1249,26
199,11	1265,64
199,33	1271,79
199,55	1241,07
199,77	1239,02
199,99	1226,73
200,21	1259,50
200,43	1349,61
200,65	1286,12
200,87	1277,93
201,09	1198,06
201,31	1288,17
201,53	1226,73
201,75	1222,64
201,97	1304,56
202,19	1294,32
202,41	1302,51
202,63	1339,37
202,85	1292,27
203,07	1306,60
203,29	1228,78
203,51	1288,17
203,73	1249,26
203,95	1286,12
204,17	1157,10
204,39	1241,07
204,61	1322,99
204,83	1302,51
205,05	1257,45
205,27	1351,66
205,49	1263,60
205,71	1282,03
205,93	1267,69
206,15	1259,50
206,37	1286,12
206,59	1198,06
206,81	1257,45
207,03	1312,75
207,25	1247,21
207,47	1320,94
207,69	1300,46
207,91	1214,45
208,13	1261,55
208,34	1228,78
208,56	1273,84
208,78	1263,60
209,00	1288,17
209,22	1339,37
209,44	1206,25
209,66	1222,64
209,88	1292,27
210,10	1247,21
210,32	1220,59
210,54	1239,02
210,76	1261,55
210,98	1241,07
211,20	1273,84
211,42	1306,60
211,64	1282,03
211,86	1261,55
212,08	1212,40
212,30	1314,80
212,52	1269,74
212,74	1347,56
212,96	1259,50
213,17	1288,17
213,39	1214,45
213,61	1343,47
213,83	1273,84
214,05	1216,49
214,27	1282,03
214,49	1263,60
214,71	1273,84
214,93	1277,93
215,15	1257,45
215,37	1249,26
215,59	1243,12
215,81	1298,41
216,03	1310,70
216,24	1216,49
216,46	1241,07
216,68	1298,41
216,90	1339,37
217,12	1288,17
217,34	1232,88
217,56	1232,88
217,78	1236,97
218,00	1259,50
218,22	1255,40
218,44	1294,32
218,66	1304,56
218,87	1208,30
219,09	1234,93
219,31	1353,71
219,53	1232,88
219,75	1277,93
219,97	1239,02
220,19	1286,12
220,41	1224,69
220,63	1329,13
220,85	1337,32
221,06	1271,79
221,28	1310,70
221,50	1255,40
221,72	1288,17
221,94	1302,51
222,16	1234,93
222,38	1218,54
222,60	1269,74
222,82	1306,60
223,03	1296,36
223,25	1228,78
223,47	1245,16
223,69	1241,07
223,91	1239,02
224,13	1308,65
224,35	1282,03
224,57	1286,12
224,78	1228,78
225,00	1269,74
225,22	1245,16
225,44	1320,94
225,66	1257,45
225,88	1290,22
226,10	1232,88
226,32	1251,31
226,53	1220,59
226,75	1253,36
226,97	1243,12
227,19	1312,75
227,41	1298,41
227,63	1347,56
227,85	1279,98
228,06	1286,12
228,28	1271,79
228,50	1329,13
228,72	1322,99
228,94	1228,78
229,16	1249,26
229,37	1363,95
229,59	1214,45
229,81	1314,80
230,03	1341,42
230,25	1255,40
230,47	1304,56
230,69	1263,60
230,90	1259,50
231,12	1337,32
231,34	1282,03
231,56	1273,84
231,78	1271,79
232,00	1263,60
232,21	1288,17
232,43	1267,69
232,65	1286,12
232,87	1337,32
233,09	1253,36
233,30	1329,13
233,52	1251,31
233,74	1273,84
233,96	1239,02
234,18	1253,36
234,40	1239,02
234,61	1253,36
234,83	1265,64
235,05	1263,60
235,27	1288,17
235,49	1284,08
235,70	1267,69
235,92	1255,40
236,14	1257,45
236,36	1302,51
236,58	1296,36
236,79	1230,83
237,01	1263,60
237,23	1212,40
237,45	1286,12
237,67	1286,12
237,88	1185,77
238,10	1257,45
238,32	1247,21
238,54	1251,31
238,76	1306,60
238,97	1241,07
239,19	1298,41
239,41	1241,07
239,63	1267,69
239,85	1228,78
240,06	1306,60
240,28	1273,84
240,50	1314,80
240,72	1253,36
240,93	1239,02
241,15	1277,93
241,37	1290,22
241,59	1257,45
241,81	1232,88
242,02	1269,74
242,24	1216,49
242,46	1351,66
242,68	1275,88
242,89	1239,02
243,11	1255,40
243,33	1341,42
243,55	1265,64
243,76	1249,26
243,98	1241,07
244,20	1210,35
244,42	1230,83
244,64	1247,21
244,85	1189,87
245,07	1314,80
245,29	1292,27
245,51	1208,30
245,72	1335,28
245,94	1253,36
246,16	1351,66
246,38	1241,07
246,59	1236,97
246,81	1277,93
247,03	1251,31
247,24	1275,88
247,46	1288,17
247,68	1212,40
247,90	1173,49
248,11	1290,22
248,33	1247,21
248,55	1265,64
248,77	1214,45
248,98	1329,13
249,20	1306,60
249,42	1214,45
249,64	1286,12
249,85	1245,16
250,07	1261,55
250,29	1251,31
250,50	1290,22
250,72	1302,51
250,94	1288,17
251,16	1282,03
251,37	1230,83
251,59	1359,85
251,81	1196,01
252,02	1296,36
252,24	1294,32
252,46	1279,98
252,68	1351,66
252,89	1296,36
253,11	1294,32
253,33	1286,12
253,54	1247,21
253,76	1290,22
253,98	1228,78
254,20	1306,60
254,41	1267,69
254,63	1361,90
254,85	1327,08
255,06	1230,83
255,28	1277,93
255,50	1325,04
255,71	1232,88
255,93	1249,26
256,15	1279,98
256,36	1292,27
256,58	1232,88
256,80	1279,98
257,02	1294,32
257,23	1273,84
257,45	1263,60
257,67	1196,01
257,88	1261,55
258,10	1292,27
258,32	1310,70
258,53	1298,41
258,75	1271,79
258,97	1357,80
259,18	1259,50
259,40	1224,69
259,62	1273,84
259,83	1273,84
260,05	1296,36
260,27	1304,56
260,48	1331,18
260,70	1257,45
260,92	1277,93
261,13	1320,94
261,35	1363,95
261,57	1355,76
261,78	1267,69
262,00	1374,19
262,22	1271,79
262,43	1220,59
262,65	1284,08
262,86	1232,88
263,08	1300,46
263,30	1239,02
263,51	1214,45
263,73	1343,47
263,95	1265,64
264,16	1255,40
264,38	1353,71
264,60	1300,46
264,81	1294,32
265,03	1241,07
265,25	1255,40
265,46	1189,87
265,68	1325,04
265,89	1302,51
266,11	1325,04
266,33	1212,40
266,54	1146,86
266,76	1206,25
266,98	1368,04
267,19	1339,37
267,41	1200,11
267,62	1247,21
267,84	1255,40
268,06	1239,02
268,27	1355,76
268,49	1259,50
268,70	1232,88
268,92	1333,23
269,14	1267,69
269,35	1261,55
269,57	1318,89
269,79	1167,34
270,00	1232,88
270,22	1284,08
270,43	1310,70
270,65	1314,80
270,87	1251,31
271,08	1263,60
271,30	1298,41
271,51	1296,36
271,73	1302,51
271,95	1241,07
272,16	1333,23
272,38	1253,36
272,59	1189,87
272,81	1228,78
273,02	1300,46
273,24	1257,45
273,46	1236,97
273,67	1263,60
273,89	1290,22
274,10	1206,25
274,32	1257,45
274,54	1200,11
274,75	1236,97
274,97	1257,45
275,18	1288,17
275,40	1282,03
275,61	1286,12
275,83	1261,55
276,05	1288,17
276,26	1241,07
276,48	1220,59
276,69	1376,24
276,91	1249,26
277,12	1261,55
277,34	1298,41
277,55	1325,04
277,77	1200,11
277,99	1191,92
278,20	1282,03
278,42	1263,60
278,63	1255,40
278,85	1253,36
279,06	1210,35
279,28	1239,02
279,49	1251,31
279,71	1286,12
279,93	1277,93
280,14	1308,65
280,36	1263,60
280,57	1257,45
280,79	1341,42
281,00	1206,25
281,22	1318,89
281,43	1269,74
281,65	1234,93
281,86	1275,88
282,08	1245,16
282,29	1269,74
282,51	1265,64
282,73	1232,88
282,94	1271,79
283,16	1288,17
283,37	1271,79
283,59	1228,78
283,80	1269,74
284,02	1341,42
284,23	1282,03
284,45	1298,41
284,66	1236,97
284,88	1255,40
285,09	1282,03
285,31	1230,83
285,52	1284,08
285,74	1277,93
285,95	1255,40
286,17	1290,22
286,38	1224,69
286,60	1259,50
286,81	1325,04
287,03	1245,16
287,24	1320,94
287,46	1206,25
287,67	1228,78
287,89	1224,69
288,10	1200,11
288,32	1267,69
288,53	1239,02
288,75	1298,41
288,96	1175,53
289,18	1337,32
289,39	1253,36
289,61	1247,21
289,82	1255,40
290,04	1296,36
290,25	1263,60
290,47	1271,79
290,68	1288,17
290,90	1259,50
291,11	1253,36
291,33	1300,46
291,54	1282,03
291,76	1271,79
291,97	1232,88
292,18	1230,83
292,40	1265,64
292,61	1294,32
292,83	1257,45
293,04	1263,60
293,26	1251,31
293,47	1263,60
293,69	1304,56
293,90	1329,13
294,12	1269,74
294,33	1296,36
294,55	1298,41
294,76	1290,22
294,97	1247,21
295,19	1247,21
295,40	1230,83
295,62	1275,88
295,83	1247,21
296,05	1288,17
296,26	1333,23
296,48	1261,55
296,69	1279,98
296,90	1247,21
297,12	1265,64
297,33	1300,46
297,55	1292,27
297,76	1204,21
297,98	1210,35
298,19	1255,40
298,41	1210,35
298,62	1343,47
298,83	1267,69
299,05	1243,12
299,26	1294,32
299,48	1251,31
299,69	1167,34
299,90	1265,64
300,12	1253,36
300,33	1314,80
300,55	1245,16
300,76	1247,21
300,98	1286,12
301,19	1298,41
301,40	1230,83
301,62	1210,35
301,83	1247,21
302,05	1374,19
302,26	1239,02
302,47	1296,36
302,69	1232,88
302,90	1249,26
303,12	1263,60
303,33	1279,98
303,54	1241,07
303,76	1185,77
303,97	1284,08
304,19	1273,84
304,40	1294,32
304,61	1247,21
304,83	1253,36
305,04	1279,98
305,26	1253,36
305,47	1230,83
305,68	1255,40
305,90	1239,02
306,11	1261,55
306,33	1263,60
306,54	1255,40
306,75	1263,60
306,97	1249,26
307,18	1282,03
307,39	1253,36
307,61	1320,94
307,82	1251,31
308,04	1255,40
308,25	1269,74
308,46	1284,08
308,68	1294,32
308,89	1298,41
309,10	1294,32
309,32	1314,80
309,53	1210,35
309,74	1296,36
309,96	1261,55
310,17	1310,70
310,39	1247,21
310,60	1247,21
310,81	1282,03
311,03	1267,69
311,24	1249,26
311,45	1325,04
311,67	1261,55
311,88	1300,46
312,09	1249,26
312,31	1277,93
312,52	1294,32
312,73	1290,22
312,95	1228,78
313,16	1222,64
313,37	1312,75
313,59	1259,50
313,80	1327,08
314,01	1304,56
314,23	1273,84
314,44	1286,12
314,65	1243,12
314,87	1284,08
315,08	1257,45
315,29	1271,79
315,51	1318,89
315,72	1298,41
315,93	1349,61
316,15	1355,76
316,36	1294,32
316,57	1286,12
316,79	1265,64
317,00	1275,88
317,21	1247,21
317,43	1189,87
317,64	1288,17
317,85	1306,60
318,07	1286,12
318,28	1290,22
318,49	1282,03
318,70	1314,80
318,92	1327,08
319,13	1290,22
319,34	1239,02
319,56	1298,41
319,77	1265,64
319,98	1257,45
320,20	1232,88
320,41	1265,64
320,62	1265,64
320,83	1265,64
321,05	1306,60
321,26	1202,16
321,47	1298,41
321,69	1327,08
321,90	1247,21
322,11	1263,60
322,32	1241,07
322,54	1214,45
322,75	1251,31
322,96	1282,03
323,18	1224,69
323,39	1306,60
323,60	1234,93
323,81	1282,03
324,03	1206,25
324,24	1279,98
324,45	1314,80
324,66	1247,21
324,88	1261,55
325,09	1298,41
325,30	1249,26
325,52	1271,79
325,73	1286,12
325,94	1255,40
326,15	1236,97
326,37	1255,40
326,58	1245,16
326,79	1220,59
327,00	1214,45
327,22	1290,22
327,43	1243,12
327,64	1247,21
327,85	1216,49
328,07	1286,12
328,28	1320,94
328,49	1224,69
328,70	1259,50
328,92	1277,93
329,13	1284,08
329,34	1316,84
329,55	1245,16
329,76	1298,41
329,98	1275,88
330,19	1306,60
330,40	1265,64
330,61	1290,22
330,83	1282,03
331,04	1261,55
331,25	1208,30
331,46	1265,64
331,68	1261,55
331,89	1310,70
332,10	1284,08
332,31	1263,60
332,52	1275,88
332,74	1300,46
332,95	1310,70
333,16	1202,16
333,37	1308,65
333,58	1265,64
333,80	1236,97
334,01	1263,60
334,22	1249,26
334,43	1218,54
334,64	1259,50
334,86	1175,53
335,07	1304,56
335,28	1288,17
335,49	1271,79
335,70	1282,03
335,92	1263,60
336,13	1261,55
336,34	1204,21
336,55	1347,56
336,76	1236,97
336,98	1230,83
337,19	1294,32
337,40	1243,12
337,61	1249,26
337,82	1333,23
338,04	1249,26
338,25	1316,84
338,46	1255,40
338,67	1245,16
338,88	1318,89
339,09	1208,30
339,31	1277,93
339,52	1255,40
339,73	1302,51
339,94	1265,64
340,15	1292,27
340,36	1271,79
340,58	1306,60
340,79	1310,70
341,00	1189,87
341,21	1222,64
341,42	1279,98
341,63	1269,74
341,85	1282,03
342,06	1263,60
342,27	1247,21
342,48	1304,56
342,69	1251,31
342,90	1222,64
343,12	1302,51
343,33	1296,36
343,54	1196,01
343,75	1306,60
343,96	1337,32
344,17	1269,74
344,38	1306,60
344,60	1273,84
344,81	1253,36
345,02	1251,31
345,23	1226,73
345,44	1312,75
345,65	1241,07
345,86	1269,74
346,07	1294,32
346,29	1263,60
346,50	1224,69
346,71	1259,50
346,92	1277,93
347,13	1206,25
347,34	1265,64
347,55	1288,17
347,76	1216,49
347,98	1263,60
348,19	1298,41
348,40	1261,55
348,61	1265,64
348,82	1310,70
349,03	1286,12
349,24	1230,83
349,45	1228,78
349,66	1216,49
349,88	1261,55
350,09	1286,12
350,30	1269,74
350,51	1286,12
350,72	1296,36
350,93	1232,88
351,14	1232,88
351,35	1236,97
351,56	1224,69
351,77	1196,01
351,99	1265,64
352,20	1290,22
352,41	1273,84
352,62	1241,07
352,83	1288,17
353,04	1230,83
353,25	1208,30
353,46	1282,03
353,67	1316,84
353,88	1288,17
354,09	1368,04
354,30	1236,97
354,52	1327,08
354,73	1316,84
354,94	1230,83
355,15	1241,07
355,36	1265,64
355,57	1222,64
355,78	1198,06
355,99	1279,98
356,20	1204,21
356,41	1341,42
356,62	1236,97
356,83	1314,80
357,04	1298,41
357,25	1255,40
357,46	1282,03
357,68	1232,88
357,89	1284,08
358,10	1304,56
358,31	1269,74
358,52	1327,08
358,73	1275,88
358,94	1173,49
359,15	1308,65
359,36	1218,54
359,57	1261,55
359,78	1251,31
359,99	1282,03
360,20	1249,26
360,41	1226,73
360,62	1265,64
360,83	1257,45
361,04	1265,64
361,25	1300,46
361,46	1308,65
361,67	1232,88
361,88	1275,88
362,09	1271,79
362,30	1298,41
362,51	1306,60
362,72	1275,88
362,93	1341,42
363,14	1228,78
363,35	1284,08
363,56	1275,88
363,78	1200,11
363,99	1306,60
364,20	1269,74
364,41	1257,45
364,62	1284,08
364,83	1212,40
365,04	1269,74
365,25	1277,93
365,46	1226,73
365,67	1265,64
365,88	1265,64
366,09	1329,13
366,30	1306,60
366,51	1249,26
366,72	1245,16
366,93	1261,55
367,14	1275,88
367,35	1239,02
367,56	1232,88
367,77	1294,32
367,98	1263,60
368,18	1337,32
368,39	1290,22
368,60	1241,07
368,81	1302,51
369,02	1322,99
369,23	1290,22
369,44	1214,45
369,65	1273,84
369,86	1210,35
370,07	1306,60
370,28	1273,84
370,49	1267,69
370,70	1249,26
370,91	1241,07
371,12	1288,17
371,33	1261,55
371,54	1314,80
371,75	1302,51
371,96	1255,40
372,17	1290,22
372,38	1245,16
372,59	1226,73
372,80	1271,79
373,01	1310,70
373,22	1241,07
373,43	1339,37
373,64	1251,31
373,85	1249,26
374,06	1284,08
374,26	1312,75
374,47	1251,31
374,68	1331,18
374,89	1198,06
375,10	1333,23
375,31	1251,31
375,52	1232,88
375,73	1271,79
375,94	1241,07
376,15	1353,71
376,36	1290,22
376,57	1277,93
376,78	1232,88
376,99	1255,40
377,20	1259,50
377,40	1322,99
377,61	1267,69
377,82	1284,08
378,03	1181,68
378,24	1286,12
378,45	1247,21
378,66	1273,84
378,87	1261,55
379,08	1273,84
379,29	1255,40
379,50	1269,74
379,71	1271,79
379,91	1306,60
380,12	1300,46
380,33	1296,36
380,54	1282,03
380,75	1253,36
380,96	1251,31
381,17	1191,92
381,38	1247,21
381,59	1294,32
381,80	1316,84
382,00	1304,56
382,21	1279,98
382,42	1265,64
382,63	1208,30
382,84	1239,02
383,05	1251,31
383,26	1296,36
383,47	1288,17
383,68	1288,17
383,88	1230,83
384,09	1267,69
384,30	1267,69
384,51	1277,93
384,72	1273,84
384,93	1288,17
385,14	1331,18
385,35	1273,84
385,55	1249,26
385,76	1300,46
385,97	1325,04
386,18	1277,93
386,39	1261,55
386,60	1267,69
386,81	1251,31
387,02	1267,69
387,22	1187,82
387,43	1286,12
387,64	1384,43
387,85	1320,94
388,06	1275,88
388,27	1236,97
388,48	1261,55
388,68	1241,07
388,89	1218,54
389,10	1245,16
389,31	1236,97
389,52	1265,64
389,73	1228,78
389,93	1298,41
390,14	1308,65
390,35	1253,36
390,56	1292,27
390,77	1294,32
390,98	1294,32
391,18	1239,02
391,39	1306,60
391,60	1275,88
391,81	1325,04
392,02	1331,18
392,23	1282,03
392,43	1279,98
392,64	1277,93
392,85	1290,22
393,06	1269,74
393,27	1304,56
393,47	1314,80
393,68	1279,98
393,89	1191,92
394,10	1232,88
394,31	1263,60
394,52	1257,45
394,72	1277,93
394,93	1322,99
395,14	1267,69
395,35	1304,56
395,56	1232,88
395,76	1267,69
395,97	1247,21
396,18	1273,84
396,39	1241,07
396,60	1236,97
396,80	1306,60
397,01	1193,97
397,22	1253,36
397,43	1298,41
397,64	1208,30
397,84	1255,40
398,05	1255,40
398,26	1255,40
398,47	1282,03
398,67	1286,12
398,88	1376,24
399,09	1232,88
399,30	1255,40
399,51	1302,51
399,71	1298,41
399,92	1247,21
400,13	1304,56
400,34	1286,12
400,54	1265,64
400,75	1183,73
400,96	1204,21
401,17	1288,17
401,37	1333,23
401,58	1322,99
401,79	1271,79
402,00	1304,56
402,21	1191,92
402,41	1255,40
402,62	1263,60
402,83	1234,93
403,04	1329,13
403,24	1220,59
403,45	1294,32
403,66	1329,13
403,87	1228,78
404,07	1265,64
404,28	1282,03
404,49	1265,64
404,70	1191,92
404,90	1243,12
405,11	1290,22
405,32	1288,17
405,52	1259,50
405,73	1259,50
405,94	1273,84
406,15	1312,75
406,35	1296,36
406,56	1300,46
406,77	1265,64
406,98	1273,84
407,18	1247,21
407,39	1290,22
407,60	1306,60
407,80	1279,98
408,01	1265,64
408,22	1284,08
408,43	1284,08
408,63	1275,88
408,84	1294,32
409,05	1230,83
409,25	1245,16
409,46	1304,56
409,67	1290,22
409,88	1257,45
410,08	1251,31
410,29	1251,31
410,50	1277,93
410,70	1304,56
410,91	1253,36
411,12	1220,59
411,32	1288,17
411,53	1267,69
411,74	1249,26
411,95	1286,12
412,15	1210,35
412,36	1226,73
412,57	1247,21
412,77	1265,64
412,98	1239,02
413,19	1255,40
413,39	1294,32
413,60	1304,56
413,81	1265,64
414,01	1255,40
414,22	1304,56
414,43	1347,56
414,63	1261,55
414,84	1290,22
415,05	1288,17
415,25	1327,08
415,46	1230,83
415,67	1271,79
415,87	1300,46
416,08	1273,84
416,29	1298,41
416,49	1261,55
416,70	1267,69
416,91	1275,88
417,11	1259,50
417,32	1263,60
417,53	1226,73
417,73	1308,65
417,94	1267,69
418,15	1288,17
418,35	1282,03
418,56	1234,93
418,77	1310,70
418,97	1286,12
419,18	1241,07
419,38	1232,88
419,59	1179,63
419,80	1331,18
420,00	1243,12
420,21	1275,88
420,42	1302,51
420,62	1316,84
420,83	1316,84
421,04	1335,28
421,24	1261,55
421,45	1275,88
421,65	1251,31
421,86	1296,36
422,07	1230,83
422,27	1222,64
422,48	1255,40
422,69	1304,56
422,89	1187,82
423,10	1269,74
423,30	1304,56
423,51	1322,99
423,72	1277,93
423,92	1269,74
424,13	1300,46
424,33	1296,36
424,54	1284,08
424,75	1259,50
424,95	1353,71
425,16	1265,64
425,36	1232,88
425,57	1292,27
425,78	1284,08
425,98	1263,60
426,19	1216,49
426,39	1241,07
426,60	1259,50
426,81	1349,61
427,01	1239,02
427,22	1253,36
427,42	1259,50
427,63	1245,16
427,83	1234,93
428,04	1261,55
428,25	1198,06
428,45	1306,60
428,66	1316,84
428,86	1296,36
429,07	1345,52
429,28	1339,37
429,48	1271,79
429,69	1279,98
429,89	1261,55
430,10	1267,69
430,30	1353,71
430,51	1306,60
430,71	1351,66
430,92	1222,64
431,13	1304,56
431,33	1288,17
431,54	1269,74
431,74	1263,60
431,95	1263,60
432,15	1290,22
432,36	1224,69
432,56	1249,26
432,77	1212,40
432,98	1275,88
433,18	1243,12
433,39	1220,59
433,59	1335,28
433,80	1310,70
434,00	1257,45
434,21	1277,93
434,41	1239,02
434,62	1316,84
434,82	1275,88
435,03	1206,25
435,23	1282,03
435,44	1249,26
435,64	1282,03
435,85	1214,45
436,06	1277,93
436,26	1298,41
436,47	1279,98
436,67	1277,93
436,88	1253,36
437,08	1306,60
437,29	1343,47
437,49	1208,30
437,70	1271,79
437,90	1300,46
438,11	1290,22
438,31	1275,88
438,52	1335,28
438,72	1212,40
438,93	1230,83
439,13	1298,41
439,34	1277,93
439,54	1222,64
439,75	1255,40
439,95	1189,87
440,16	1296,36
440,36	1333,23
440,57	1282,03
440,77	1198,06
440,98	1255,40
441,18	1202,16
441,39	1243,12
441,59	1275,88
441,80	1218,54
442,00	1241,07
442,21	1273,84
442,41	1220,59
442,62	1191,92
442,82	1236,97
443,02	1279,98
443,23	1306,60
443,43	1284,08
443,64	1302,51
443,84	1322,99
444,05	1230,83
444,25	1269,74
444,46	1271,79
444,66	1288,17
444,87	1282,03
445,07	1263,60
445,28	1222,64
445,48	1269,74
445,69	1253,36
445,89	1275,88
446,09	1236,97
446,30	1345,52
446,50	1273,84
446,71	1253,36
446,91	1355,76
447,12	1226,73
447,32	1310,70
447,53	1337,32
447,73	1327,08
447,93	1257,45
448,14	1239,02
448,34	1290,22
448,55	1296,36
448,75	1212,40
448,96	1320,94
449,16	1247,21
449,36	1279,98
449,57	1257,45
449,77	1292,27
449,98	1320,94
450,18	1306,60
450,39	1310,70
450,59	1177,58
450,79	1253,36
451,00	1273,84
451,20	1241,07
451,41	1286,12
451,61	1261,55
451,81	1318,89
452,02	1312,75
452,22	1259,50
452,43	1255,40
452,63	1230,83
452,84	1236,97
453,04	1171,44
453,24	1169,39
453,45	1241,07
453,65	1304,56
453,86	1415,15
454,06	1331,18
454,26	1290,22
454,47	1279,98
454,67	1325,04
454,87	1320,94
455,08	1304,56
455,28	1279,98
455,49	1282,03
455,69	1318,89
455,89	1304,56
456,10	1329,13
456,30	1284,08
456,51	1263,60
456,71	1322,99
456,91	1224,69
457,12	1269,74
457,32	1282,03
457,52	1294,32
457,73	1296,36
457,93	1335,28
458,14	1314,80
458,34	1265,64
458,54	1286,12
458,75	1265,64
458,95	1265,64
459,15	1325,04
459,36	1224,69
459,56	1308,65
459,76	1245,16
459,97	1286,12
460,17	1239,02
460,37	1247,21
460,58	1290,22
460,78	1261,55
460,99	1282,03
461,19	1263,60
461,39	1261,55
461,60	1277,93
461,80	1245,16
462,00	1259,50
462,21	1261,55
462,41	1271,79
462,61	1294,32
462,82	1284,08
463,02	1202,16
463,22	1261,55
463,43	1193,97
463,63	1232,88
463,83	1243,12
464,04	1269,74
464,24	1253,36
464,44	1331,18
464,64	1259,50
464,85	1228,78
465,05	1343,47
465,25	1208,30
465,46	1239,02
465,66	1282,03
465,86	1210,35
466,07	1282,03
466,27	1224,69
466,47	1206,25
466,68	1286,12
466,88	1265,64
467,08	1284,08
467,29	1335,28
467,49	1282,03
467,69	1294,32
467,89	1271,79
468,10	1239,02
468,30	1239,02
468,50	1282,03
468,71	1277,93
468,91	1236,97
469,11	1286,12
469,31	1267,69
469,52	1329,13
469,72	1273,84
469,92	1277,93
470,13	1308,65
470,33	1300,46
470,53	1273,84
470,73	1269,74
470,94	1232,88
471,14	1232,88
471,34	1226,73
471,54	1259,50
471,75	1275,88
471,95	1232,88
472,15	1255,40
472,36	1265,64
472,56	1296,36
472,76	1247,21
472,96	1273,84
473,17	1269,74
473,37	1329,13
473,57	1220,59
473,77	1269,74
473,98	1282,03
474,18	1279,98
474,38	1257,45
474,58	1257,45
474,79	1310,70
474,99	1267,69
475,19	1273,84
475,39	1314,80
475,60	1255,40
475,80	1320,94
476,00	1198,06
476,20	1273,84
476,41	1273,84
476,61	1224,69
476,81	1318,89
477,01	1243,12
477,21	1232,88
477,42	1263,60
477,62	1320,94
477,82	1312,75
478,02	1349,61
478,23	1243,12
478,43	1302,51
478,63	1263,60
478,83	1212,40
479,03	1304,56
479,24	1290,22
479,44	1304,56
479,64	1253,36
479,84	1284,08
480,04	1234,93
480,25	1261,55
480,45	1322,99
480,65	1273,84
480,85	1304,56
481,06	1198,06
481,26	1241,07
481,46	1294,32
481,66	1284,08
481,86	1228,78
482,06	1241,07
482,27	1228,78
482,47	1288,17
482,67	1292,27
482,87	1343,47
483,07	1306,60
483,28	1296,36
483,48	1300,46
483,68	1247,21
483,88	1259,50
484,08	1212,40
484,29	1279,98
484,49	1230,83
484,69	1265,64
484,89	1335,28
485,09	1312,75
485,29	1290,22
485,50	1294,32
485,70	1263,60
485,90	1284,08
486,10	1277,93
486,30	1279,98
486,50	1257,45
486,71	1241,07
486,91	1273,84
487,11	1271,79
487,31	1247,21
487,51	1292,27
487,71	1251,31
487,91	1327,08
488,12	1253,36
488,32	1261,55
488,52	1265,64
488,72	1230,83
488,92	1306,60
489,12	1224,69
489,32	1234,93
489,53	1239,02
489,73	1320,94
489,93	1304,56
490,13	1327,08
490,33	1230,83
490,53	1292,27
490,73	1226,73
490,94	1265,64
491,14	1263,60
491,34	1255,40
491,54	1333,23
491,74	1292,27
491,94	1271,79
492,14	1228,78
492,34	1226,73
492,54	1245,16
492,75	1314,80
492,95	1306,60
493,15	1331,18
493,35	1261,55
493,55	1300,46
493,75	1265,64
493,95	1282,03
494,15	1243,12
494,35	1259,50
494,56	1232,88
494,76	1222,64
494,96	1279,98
495,16	1259,50
495,36	1277,93
495,56	1253,36
495,76	1179,63
495,96	1318,89
496,16	1279,98
496,36	1308,65
496,56	1310,70
496,77	1263,60
496,97	1304,56
497,17	1275,88
497,37	1241,07
497,57	1257,45
497,77	1198,06
497,97	1331,18
498,17	1234,93
498,37	1257,45
498,57	1255,40
498,77	1208,30
498,97	1284,08
499,17	1271,79
499,38	1165,29
499,58	1255,40
499,78	1325,04
499,98	1265,64
500,18	1245,16
500,38	1316,84
500,58	1331,18
500,78	1275,88
500,98	1261,55
501,18	1284,08
501,38	1220,59
501,58	1232,88
501,78	1212,40
501,98	1329,13
502,18	1331,18
502,38	1271,79
502,58	1296,36
502,78	1247,21
502,98	1236,97
503,18	1282,03
503,38	1206,25
503,59	1239,02
503,79	1322,99
503,99	1220,59
504,19	1241,07
504,39	1259,50
504,59	1282,03
504,79	1327,08
504,99	1224,69
505,19	1191,92
505,39	1230,83
505,59	1230,83
505,79	1271,79
505,99	1288,17
506,19	1269,74
506,39	1239,02
506,59	1312,75
506,79	1273,84
506,99	1234,93
507,19	1298,41
507,39	1241,07
507,59	1234,93
507,79	1294,32
507,99	1290,22
508,19	1341,42
508,39	1253,36
508,59	1298,41
508,79	1249,26
508,99	1234,93
509,19	1206,25
509,39	1279,98
509,59	1253,36
509,79	1236,97
509,99	1257,45
510,19	1308,65
510,39	1275,88
510,59	1165,29
510,79	1236,97
510,99	1308,65
511,19	1267,69
511,39	1208,30
511,59	1318,89
511,79	1292,27
511,99	1247,21
512,19	1318,89
512,38	1310,70
512,58	1253,36
512,78	1247,21
512,98	1222,64
513,18	1239,02
513,38	1222,64
513,58	1249,26
513,78	1312,75
513,98	1269,74
514,18	1255,40
514,38	1228,78
514,58	1220,59
514,78	1245,16
514,98	1243,12
515,18	1224,69
515,38	1279,98
515,58	1245,16
515,78	1312,75
515,98	1349,61
516,18	1312,75
516,38	1282,03
516,57	1263,60
516,77	1236,97
516,97	1308,65
517,17	1277,93
517,37	1290,22
517,57	1267,69
517,77	1322,99
517,97	1257,45
518,17	1196,01
518,37	1263,60
518,57	1228,78
518,77	1298,41
518,97	1243,12
519,16	1331,18
519,36	1318,89
519,56	1273,84
519,76	1212,40
519,96	1243,12
520,16	1228,78
520,36	1331,18
520,56	1228,78
520,76	1259,50
520,96	1210,35
521,16	1257,45
521,35	1208,30
521,55	1294,32
521,75	1243,12
521,95	1263,60
522,15	1275,88
522,35	1296,36
522,55	1273,84
522,75	1261,55
522,95	1257,45
523,14	1273,84
523,34	1331,18
523,54	1296,36
523,74	1255,40
523,94	1269,74
524,14	1322,99
524,34	1247,21
524,54	1304,56
524,73	1267,69
524,93	1308,65
525,13	1236,97
525,33	1196,01
525,53	1214,45
525,73	1314,80
525,93	1351,66
526,13	1234,93
526,32	1357,80
526,52	1210,35
526,72	1279,98
526,92	1314,80
527,12	1329,13
527,32	1282,03
527,52	1304,56
527,71	1236,97
527,91	1294,32
528,11	1261,55
528,31	1296,36
528,51	1318,89
528,71	1259,50
528,90	1290,22
529,10	1265,64
529,30	1273,84
529,50	1286,12
529,70	1273,84
529,90	1275,88
530,09	1239,02
530,29	1265,64
530,49	1243,12
530,69	1181,68
530,89	1249,26
531,09	1265,64
531,28	1302,51
531,48	1320,94
531,68	1249,26
531,88	1255,40
532,08	1232,88
532,28	1228,78
532,47	1308,65
532,67	1273,84
532,87	1241,07
533,07	1224,69
533,27	1277,93
533,46	1312,75
533,66	1232,88
533,86	1245,16
534,06	1300,46
534,26	1316,84
534,45	1224,69
534,65	1318,89
534,85	1263,60
535,05	1282,03
535,25	1312,75
535,44	1304,56
535,64	1269,74
535,84	1277,93
536,04	1236,97
536,24	1234,93
536,43	1306,60
536,63	1298,41
536,83	1269,74
537,03	1216,49
537,22	1232,88
537,42	1208,30
537,62	1247,21
537,82	1241,07
538,02	1253,36
538,21	1290,22
538,41	1239,02
538,61	1329,13
538,81	1241,07
539,00	1284,08
539,20	1259,50
539,40	1265,64
539,60	1335,28
539,79	1255,40
539,99	1142,77
540,19	1320,94
540,39	1294,32
540,58	1288,17
540,78	1214,45
540,98	1284,08
541,18	1273,84
541,37	1267,69
541,57	1247,21
541,77	1320,94
541,97	1273,84
542,16	1277,93
542,36	1245,16
542,56	1222,64
542,76	1257,45
542,95	1275,88
543,15	1167,34
543,35	1249,26
543,54	1226,73
543,74	1294,32
543,94	1337,32
544,14	1239,02
544,33	1353,71
544,53	1259,50
544,73	1290,22
544,93	1269,74
545,12	1216,49
545,32	1271,79
545,52	1282,03
545,71	1335,28
545,91	1345,52
546,11	1263,60
546,30	1273,84
546,50	1204,21
546,70	1312,75
546,90	1290,22
547,09	1304,56
547,29	1247,21
547,49	1175,53
547,68	1234,93
547,88	1290,22
548,08	1294,32
548,27	1296,36
548,47	1230,83
548,67	1275,88
548,87	1241,07
549,06	1255,40
549,26	1259,50
549,46	1288,17
549,65	1241,07
549,85	1288,17
550,05	1204,21
550,24	1277,93
550,44	1269,74
550,64	1230,83
550,83	1277,93
551,03	1269,74
551,23	1214,45
551,42	1327,08
551,62	1269,74
551,82	1320,94
552,01	1302,51
552,21	1284,08
552,41	1214,45
552,60	1298,41
552,80	1239,02
553,00	1298,41
553,19	1329,13
553,39	1259,50
553,59	1335,28
553,78	1275,88
553,98	1265,64
554,17	1290,22
554,37	1282,03
554,57	1290,22
554,76	1269,74
554,96	1247,21
555,16	1214,45
555,35	1216,49
555,55	1294,32
555,75	1279,98
555,94	1198,06
556,14	1355,76
556,33	1241,07
556,53	1300,46
556,73	1296,36
556,92	1318,89
557,12	1304,56
557,32	1249,26
557,51	1241,07
557,71	1214,45
557,90	1181,68
558,10	1148,91
558,30	1275,88
558,49	1306,60
558,69	1208,30
558,88	1255,40
559,08	1267,69
559,28	1277,93
559,47	1271,79
559,67	1282,03
559,86	1314,80
560,06	1208,30
560,26	1298,41
560,45	1288,17
560,65	1271,79
560,84	1257,45
561,04	1273,84
561,24	1247,21
561,43	1298,41
561,63	1255,40
561,82	1310,70
562,02	1208,30
562,22	1239,02
562,41	1198,06
562,61	1273,84
562,80	1214,45
563,00	1247,21
563,19	1300,46
563,39	1275,88
563,59	1245,16
563,78	1247,21
563,98	1230,83
564,17	1312,75
564,37	1241,07
564,56	1298,41
564,76	1208,30
564,96	1273,84
565,15	1286,12
565,35	1253,36
565,54	1230,83
565,74	1273,84
565,93	1212,40
566,13	1304,56
566,32	1312,75
566,52	1296,36
566,71	1294,32
566,91	1316,84
567,11	1349,61
567,30	1304,56
567,50	1171,44
567,69	1269,74
567,89	1267,69
568,08	1277,93
568,28	1232,88
568,47	1263,60
568,67	1271,79
568,86	1167,34
569,06	1269,74
569,25	1327,08
569,45	1277,93
569,64	1310,70
569,84	1249,26
570,04	1314,80
570,23	1263,60
570,43	1282,03
570,62	1306,60
570,82	1322,99
571,01	1316,84
571,21	1216,49
571,40	1232,88
571,60	1282,03
571,79	1273,84
571,99	1290,22
572,18	1282,03
572,38	1273,84
572,57	1218,54
572,77	1282,03
572,96	1253,36
573,16	1302,51
573,35	1222,64
573,55	1232,88
573,74	1271,79
573,94	1290,22
574,13	1292,27
574,33	1200,11
574,52	1226,73
574,71	1222,64
574,91	1208,30
575,10	1261,55
575,30	1300,46
575,49	1257,45
575,69	1236,97
575,88	1171,44
576,08	1271,79
576,27	1261,55
576,47	1302,51
576,66	1312,75
576,86	1329,13
577,05	1206,25
577,25	1228,78
577,44	1257,45
577,64	1282,03
577,83	1314,80
578,02	1302,51
578,22	1251,31
578,41	1255,40
578,61	1243,12
578,80	1257,45
579,00	1296,36
579,19	1263,60
579,39	1310,70
579,58	1251,31
579,77	1263,60
579,97	1312,75
580,16	1288,17
580,36	1261,55
580,55	1312,75
580,75	1320,94
580,94	1282,03
581,13	1288,17
581,33	1298,41
581,52	1298,41
581,72	1306,60
581,91	1316,84
582,11	1339,37
582,30	1257,45
582,49	1279,98
582,69	1308,65
582,88	1263,60
583,08	1337,32
583,27	1312,75
583,47	1239,02
583,66	1279,98
583,85	1261,55
584,05	1269,74
584,24	1298,41
584,44	1288,17
584,63	1310,70
584,82	1282,03
585,02	1263,60
585,21	1245,16
585,41	1271,79
585,60	1294,32
585,79	1202,16
585,99	1257,45
586,18	1189,87
586,37	1265,64
586,57	1263,60
586,76	1183,73
586,96	1265,64
587,15	1241,07
587,34	1359,85
587,54	1296,36
587,73	1298,41
587,93	1261,55
588,12	1220,59
588,31	1304,56
588,51	1284,08
588,70	1288,17
588,89	1345,52
589,09	1290,22
589,28	1230,83
589,47	1208,30
589,67	1333,23
589,86	1279,98
590,06	1263,60
590,25	1269,74
590,44	1206,25
590,64	1265,64
590,83	1357,80
591,02	1322,99
591,22	1286,12
591,41	1255,40
591,60	1277,93
591,80	1214,45
591,99	1273,84
592,18	1320,94
592,38	1255,40
592,57	1355,76
592,76	1224,69
592,96	1247,21
593,15	1310,70
593,34	1339,37
593,54	1189,87
593,73	1282,03
593,92	1222,64
594,12	1327,08
594,31	1275,88
594,50	1302,51
594,70	1245,16
594,89	1232,88
595,08	1241,07
595,28	1257,45
595,47	1327,08
595,66	1298,41
595,86	1275,88
596,05	1304,56
596,24	1316,84
596,43	1239,02
596,63	1253,36
596,82	1224,69
597,01	1222,64
597,21	1347,56
597,40	1277,93
597,59	1327,08
597,79	1265,64
597,98	1318,89
598,17	1304,56
598,36	1312,75
598,56	1284,08
598,75	1284,08
598,94	1249,26
599,14	1296,36
599,33	1304,56
599,52	1206,25
599,71	1249,26
599,91	1216,49
600,10	1322,99
600,29	1224,69
600,48	1218,54
600,68	1273,84
600,87	1224,69
601,06	1251,31
601,26	1275,88
601,45	1310,70
601,64	1265,64
601,83	1255,40
602,03	1271,79
602,22	1224,69
602,41	1335,28
602,60	1271,79
602,80	1286,12
602,99	1320,94
603,18	1257,45
603,37	1232,88
603,57	1267,69
603,76	1339,37
603,95	1322,99
604,14	1259,50
604,34	1282,03
604,53	1296,36
604,72	1265,64
604,91	1228,78
605,10	1339,37
605,30	1290,22
605,49	1273,84
605,68	1204,21
605,87	1312,75
606,07	1265,64
606,26	1267,69
606,45	1310,70
606,64	1247,21
606,84	1263,60
607,03	1259,50
607,22	1318,89
607,41	1267,69
607,60	1241,07
607,80	1224,69
607,99	1247,21
608,18	1261,55
608,37	1333,23
608,56	1234,93
608,76	1359,85
608,95	1282,03
609,14	1247,21
609,33	1290,22
609,52	1251,31
609,72	1236,97
609,91	1269,74
610,10	1288,17
610,29	1339,37
610,48	1257,45
610,68	1222,64
610,87	1249,26
611,06	1282,03
611,25	1275,88
611,44	1288,17
611,63	1257,45
611,83	1275,88
612,02	1257,45
612,21	1269,74
612,40	1306,60
612,59	1351,66
612,79	1247,21
612,98	1222,64
613,17	1218,54
613,36	1325,04
613,55	1228,78
613,74	1222,64
613,93	1290,22
614,13	1269,74
614,32	1267,69
614,51	1353,71
614,70	1222,64
614,89	1210,35
615,08	1288,17
615,28	1257,45
615,47	1284,08
615,66	1304,56
615,85	1249,26
616,04	1273,84
616,23	1296,36
616,42	1222,64
616,62	1253,36
616,81	1271,79
617,00	1325,04
617,19	1210,35
617,38	1277,93
617,57	1271,79
617,76	1232,88
617,95	1275,88
618,15	1245,16
618,34	1341,42
618,53	1261,55
618,72	1318,89
618,91	1322,99
619,10	1304,56
619,29	1253,36
619,48	1306,60
619,68	1284,08
619,87	1372,14
620,06	1327,08
620,25	1320,94
620,44	1310,70
620,63	1327,08
620,82	1265,64
621,01	1275,88
621,20	1273,84
621,39	1208,30
621,59	1279,98
621,78	1329,13
621,97	1239,02
622,16	1259,50
622,35	1228,78
622,54	1300,46
622,73	1259,50
622,92	1230,83
623,11	1300,46
623,30	1267,69
623,49	1226,73
623,68	1241,07
623,88	1300,46
624,07	1275,88
624,26	1269,74
624,45	1263,60
624,64	1282,03
624,83	1298,41
625,02	1282,03
625,21	1312,75
625,40	1257,45
625,59	1239,02
625,78	1286,12
625,97	1296,36
626,16	1234,93
626,35	1271,79
626,54	1329,13
626,74	1249,26
626,93	1267,69
627,12	1339,37
627,31	1310,70
627,50	1310,70
627,69	1257,45
627,88	1310,70
628,07	1271,79
628,26	1337,32
628,45	1212,40
628,64	1265,64
628,83	1257,45
629,02	1245,16
629,21	1220,59
629,40	1271,79
629,59	1310,70
629,78	1277,93
629,97	1296,36
630,16	1284,08
630,35	1282,03
630,54	1241,07
630,73	1357,80
630,92	1361,90
631,11	1304,56
631,30	1288,17
631,49	1271,79
631,68	2144,22
631,87	9553,77
632,06	35878,36
632,25	65535,00
632,44	65535,00
632,63	65535,00
632,82	53071,06
633,01	39189,93
633,20	12238,66
633,39	4341,69
633,58	3010,51
633,77	3043,28
633,96	2588,63
634,15	2101,22
634,34	1920,99
634,53	1781,73
634,72	1703,91
634,91	1552,36
635,10	1548,26
635,29	1564,65
635,48	1511,40
635,67	1466,35
635,86	1478,63
636,05	1390,57
636,24	1429,48
636,43	1329,13
636,62	1327,08
636,81	1306,60
637,00	1273,84
637,19	1298,41
637,38	1390,57
637,57	1241,07
637,76	1292,27
637,95	1353,71
638,14	1314,80
638,33	1329,13
638,52	1333,23
638,71	1247,21
638,89	1308,65
639,08	1314,80
639,27	1271,79
639,46	1329,13
639,65	1288,17
639,84	1349,61
640,03	1320,94
640,22	1259,50
640,41	1282,03
640,60	1294,32
640,79	1322,99
640,98	1327,08
641,17	1331,18
641,36	1290,22
641,55	1253,36
641,74	1267,69
641,92	1255,40
642,11	1218,54
642,30	1255,40
642,49	1265,64
642,68	1271,79
642,87	1316,84
643,06	1300,46
643,25	1216,49
643,44	1265,64
643,63	1300,46
643,82	1259,50
644,00	1261,55
644,19	1284,08
644,38	1279,98
644,57	1257,45
644,76	1228,78
644,95	1316,84
645,14	1220,59
645,33	1232,88
645,52	1241,07
645,71	1267,69
645,89	1292,27
646,08	1284,08
646,27	1230,83
646,46	1304,56
646,65	1318,89
646,84	1312,75
647,03	1224,69
647,22	1318,89
647,40	1228,78
647,59	1265,64
647,78	1318,89
647,97	1226,73
648,16	1277,93
648,35	1257,45
648,54	1327,08
648,73	1331,18
648,91	1331,18
649,10	1312,75
649,29	1302,51
649,48	1191,92
649,67	1314,80
649,86	1273,84
650,05	1275,88
650,23	1279,98
650,42	1230,83
650,61	1273,84
650,80	1314,80
650,99	1333,23
651,18	1333,23
651,36	1243,12
651,55	1288,17
651,74	1368,04
651,93	1302,51
652,12	1234,93
652,31	1275,88
652,49	1359,85
652,68	1275,88
652,87	1279,98
653,06	1259,50
653,25	1300,46
653,44	1308,65
653,62	1296,36
653,81	1255,40
654,00	1232,88
654,19	1226,73
654,38	1212,40
654,56	1271,79
654,75	1320,94
654,94	1304,56
655,13	1288,17
655,32	1275,88
655,51	1286,12
655,69	1273,84
655,88	1243,12
656,07	1322,99
656,26	1296,36
656,45	1247,21
656,63	1228,78
656,82	1288,17
657,01	1314,80
657,20	1228,78
657,38	1241,07
657,57	1292,27
657,76	1243,12
657,95	1234,93
658,14	1290,22
658,32	1265,64
658,51	1263,60
658,70	1263,60
658,89	1204,21
659,08	1208,30
659,26	1374,19
659,45	1269,74
659,64	1255,40
659,83	1222,64
660,01	1282,03
660,20	1253,36
660,39	1251,31
660,58	1310,70
660,76	1247,21
660,95	1312,75
661,14	1226,73
661,33	1239,02
661,51	1267,69
661,70	1284,08
661,89	1302,51
662,08	1279,98
662,26	1304,56
662,45	1263,60
662,64	1277,93
662,83	1298,41
663,01	1224,69
663,20	1298,41
663,39	1228,78
663,58	1261,55
663,76	1339,37
663,95	1310,70
664,14	1314,80
664,32	1191,92
664,51	1292,27
664,70	1294,32
664,89	1282,03
665,07	1204,21
665,26	1249,26
665,45	1257,45
665,64	1249,26
665,82	1255,40
666,01	1255,40
666,20	1316,84
666,38	1269,74
666,57	1236,97
666,76	1298,41
666,95	1318,89
667,13	1296,36
667,32	1286,12
667,51	1271,79
667,69	1275,88
667,88	1241,07
668,07	1282,03
668,25	1296,36
668,44	1253,36
668,63	1226,73
668,81	1253,36
669,00	1282,03
669,19	1177,58
669,38	1243,12
669,56	1267,69
669,75	1251,31
669,94	1292,27
670,12	1271,79
670,31	1259,50
670,50	1298,41
670,68	1304,56
670,87	1239,02
671,06	1243,12
671,24	1247,21
671,43	1259,50
671,62	1214,45
671,80	1257,45
671,99	1331,18
672,18	1228,78
672,36	1222,64
672,55	1220,59
672,74	1288,17
672,92	1239,02
673,11	1286,12
673,29	1277,93
673,48	1316,84
673,67	1298,41
673,85	1159,15
674,04	1255,40
674,23	1251,31
674,41	1298,41
674,60	1353,71
674,79	1259,50
674,97	1249,26
675,16	1206,25
675,34	1239,02
675,53	1331,18
675,72	1279,98
675,90	1265,64
676,09	1292,27
676,28	1232,88
676,46	1292,27
676,65	1200,11
676,83	1232,88
677,02	1267,69
677,21	1257,45
677,39	1314,80
677,58	1318,89
677,77	1275,88
677,95	1253,36
678,14	1214,45
678,32	1290,22
678,51	1222,64
678,70	1288,17
678,88	1279,98
679,07	1382,38
679,25	1243,12
679,44	1292,27
679,63	1335,28
679,81	1171,44
680,00	1294,32
680,18	1347,56
680,37	1239,02
680,55	1247,21
680,74	1343,47
680,93	1222,64
681,11	1271,79
681,30	1247,21
681,48	1265,64
681,67	1236,97
681,85	1290,22
682,04	1277,93
682,23	1234,93
682,41	1306,60
682,60	1263,60
682,78	1368,04
682,97	1245,16
683,15	1284,08
683,34	1193,97
683,53	1214,45
683,71	1241,07
683,90	1273,84
684,08	1269,74
684,27	1282,03
684,45	1216,49
684,64	1265,64
684,82	1212,40
685,01	1314,80
685,19	1249,26
685,38	1300,46
685,57	1294,32
685,75	1269,74
685,94	1210,35
686,12	1220,59
686,31	1366,00
686,49	1259,50
686,68	1290,22
686,86	1294,32
687,05	1282,03
687,23	1257,45
687,42	1269,74
687,60	1232,88
687,79	1247,21
687,97	1257,45
688,16	1265,64
688,34	1269,74
688,53	1228,78
688,71	1279,98
688,90	1257,45
689,08	1245,16
689,27	1243,12
689,45	1294,32
689,64	1243,12
689,82	1288,17
690,01	1290,22
690,19	1236,97
690,38	1282,03
690,56	1347,56
690,75	1308,65
690,93	1372,14
691,12	1247,21
691,30	1288,17
691,49	1271,79
691,67	1261,55
691,86	1275,88
692,04	1210,35
692,23	1277,93
692,41	1296,36
692,60	1271,79
692,78	1292,27
692,97	1224,69
693,15	1208,30
693,34	1239,02
693,52	1243,12
693,71	1345,52
693,89	1329,13
694,08	1247,21
694,26	1320,94
694,44	1222,64
694,63	1216,49
694,81	1277,93
695,00	1253,36
695,18	1327,08
695,37	1259,50
695,55	1300,46
695,74	1263,60
695,92	1261,55
696,10	1298,41
696,29	1239,02
696,47	1247,21
696,66	1253,36
696,84	1232,88
697,03	1304,56
697,21	1236,97
697,40	1277,93
697,58	1298,41
697,76	1308,65
697,95	1300,46
698,13	1228,78
698,32	1200,11
698,50	1261,55
698,68	1247,21
698,87	1232,88
699,05	1273,84
699,24	1306,60
699,42	1286,12
699,61	1290,22
699,79	1322,99
699,97	1230,83
700,16	1255,40
700,34	1265,64
700,53	1306,60
700,71	1282,03
700,89	1263,60
701,08	1310,70
701,26	1243,12
701,45	1335,28
701,63	1228,78
701,81	1335,28
702,00	1210,35
702,18	1259,50
702,37	1273,84
702,55	1271,79
702,73	1273,84
702,92	1363,95
703,10	1234,93
703,28	1253,36
703,47	1290,22
703,65	1273,84
703,84	1402,86
704,02	1216,49
704,20	1165,29
704,39	1290,22
704,57	1331,18
704,75	1255,40
704,94	1290,22
705,12	1204,21
705,30	1177,58
705,49	1296,36
705,67	1290,22
705,86	1212,40
706,04	1341,42
706,22	1265,64
706,41	1198,06
706,59	1257,45
706,77	1273,84
706,96	1234,93
707,14	1261,55
707,32	1304,56
707,51	1308,65
707,69	1345,52
707,87	1251,31
708,06	1220,59
708,24	1234,93
708,42	1292,27
708,61	1279,98
708,79	1302,51
708,97	1265,64
709,16	1261,55
709,34	1302,51
709,52	1347,56
709,71	1290,22
709,89	1310,70
710,07	1253,36
710,26	1243,12
710,44	1208,30
710,62	1271,79
710,80	1363,95
710,99	1320,94
711,17	1325,04
711,35	1257,45
711,54	1282,03
711,72	1253,36
711,90	1306,60
712,09	1259,50
712,27	1284,08
712,45	1200,11
712,63	1230,83
712,82	1261,55
713,00	1249,26
713,18	1331,18
713,37	1222,64
713,55	1282,03
713,73	1312,75
713,91	1218,54
714,10	1228,78
714,28	1259,50
714,46	1310,70
714,65	1292,27
714,83	1275,88
715,01	1349,61
715,19	1271,79
715,38	1263,60
715,56	1255,40
715,74	1245,16
715,92	1333,23
716,11	1232,88
716,29	1296,36
716,47	1210,35
716,65	1290,22
716,84	1331,18
717,02	1247,21
717,20	1243,12
717,38	1226,73
717,57	1282,03
717,75	1255,40
717,93	1255,40
718,11	1261,55
718,30	1185,77
718,48	1335,28
718,66	1236,97
718,84	1267,69
719,03	1224,69
719,21	1259,50
719,39	1290,22
719,57	1347,56
719,75	1275,88
719,94	1204,21
720,12	1282,03
720,30	1316,84
720,48	1257,45
720,67	1286,12
720,85	1243,12
721,03	1224,69
721,21	1175,53
721,39	1318,89
721,58	1279,98
721,76	1282,03
721,94	1224,69
722,12	1243,12
722,30	1290,22
722,49	1200,11
722,67	1286,12
722,85	1249,26
723,03	1204,21
723,21	1296,36
723,40	1282,03
723,58	1275,88
723,76	1312,75
723,94	1261,55
724,12	1277,93
724,30	1247,21
724,49	1310,70
724,67	1234,93
724,85	1267,69
725,03	1294,32
725,21	1292,27
725,40	1322,99
725,58	1251,31
725,76	1239,02
725,94	1255,40
726,12	1220,59
726,30	1271,79
726,49	1296,36
726,67	1308,65
726,85	1275,88
727,03	1306,60
727,21	1335,28
727,39	1327,08
727,57	1253,36
727,76	1275,88
727,94	1296,36
728,12	1286,12
728,30	1232,88
728,48	1247,21
728,66	1322,99
728,84	1290,22
729,03	1331,18
729,21	1269,74
729,39	1259,50
729,57	1273,84
729,75	1339,37
729,93	1249,26
730,11	1234,93
730,30	1251,31
730,48	1257,45
730,66	1245,16
730,84	1384,43
731,02	1249,26
731,20	1257,45
731,38	1167,34
731,56	1257,45
731,74	1286,12
731,93	1228,78
732,11	1275,88
732,29	1191,92
732,47	1267,69
732,65	1208,30
732,83	1255,40
733,01	1247,21
733,19	1288,17
733,37	1329,13
733,56	1304,56
733,74	1298,41
733,92	1224,69
734,10	1241,07
734,28	1279,98
734,46	1193,97
734,64	1267,69
734,82	1265,64
735,00	1189,87
735,18	1277,93
735,36	1232,88
735,54	1294,32
735,73	1230,83
735,91	1273,84
736,09	1222,64
736,27	1241,07
736,45	1196,01
736,63	1251,31
736,81	1239,02
736,99	1294,32
737,17	1273,84
737,35	1263,60
737,53	1245,16
737,71	1284,08
737,89	1349,61
738,07	1282,03
738,25	1253,36
738,43	1202,16
738,61	1333,23
738,80	1312,75
738,98	1247,21
739,16	1259,50
739,34	1243,12
739,52	1265,64
739,70	1255,40
739,88	1245,16
740,06	1249,26
740,24	1320,94
740,42	1310,70
740,60	1210,35
740,78	1263,60
740,96	1349,61
741,14	1310,70
741,32	1300,46
741,50	1228,78
741,68	1325,04
741,86	1347,56
742,04	1273,84
742,22	1210,35
742,40	1284,08
742,58	1292,27
742,76	1259,50
742,94	1257,45
743,12	1279,98
743,30	1243,12
743,48	1200,11
743,66	1220,59
743,84	1249,26
744,02	1267,69
744,20	1243,12
744,38	1251,31
744,56	1292,27
744,74	1245,16
744,92	1255,40
745,10	1347,56
745,28	1302,51
745,46	1267,69
745,64	1236,97
745,82	1325,04
746,00	1282,03
746,18	1253,36
746,36	1310,70
746,54	1288,17
746,72	1247,21
746,90	1290,22
747,08	1286,12
747,26	1277,93
747,44	1282,03
747,62	1304,56
747,80	1282,03
747,98	1210,35
748,15	1279,98
748,33	1290,22
748,51	1234,93
748,69	1208,30
748,87	1271,79
749,05	1255,40
749,23	1306,60
749,41	1327,08
749,59	1269,74
749,77	1275,88
749,95	1308,65
750,13	1275,88
750,31	1261,55
750,49	1296,36
750,67	1230,83
750,85	1216,49
751,03	1232,88
751,20	1312,75
751,38	1236,97
751,56	1208,30
751,74	1273,84
751,92	1226,73
752,10	1239,02
752,28	1282,03
752,46	1263,60
752,64	1241,07
752,82	1249,26
753,00	1318,89
753,18	1239,02
753,35	1290,22
753,53	1292,27
753,71	1226,73
753,89	1296,36
754,07	1312,75
754,25	1251,31
754,43	1302,51
754,61	1273,84
754,79	1202,16
754,97	1271,79
755,14	1341,42
755,32	1333,23
755,50	1273,84
755,68	1282,03
755,86	1279,98
756,04	1341,42
756,22	1202,16
756,40	1290,22
756,57	1286,12
756,75	1206,25
756,93	1318,89
757,11	1232,88
757,29	1224,69
757,47	1247,21
757,65	1359,85
757,82	1351,66
758,00	1273,84
758,18	1286,12
758,36	1249,26
758,54	1222,64
758,72	1236,97
758,90	1286,12
759,07	1271,79
759,25	1308,65
759,43	1282,03
759,61	1329,13
759,79	1298,41
759,97	1265,64
760,15	1261,55
760,32	1177,58
760,50	1212,40
760,68	1298,41
760,86	1263,60
761,04	1251,31
761,22	1288,17
761,39	1294,32
761,57	1275,88
761,75	1261,55
761,93	1253,36
762,11	1247,21
762,28	1216,49
762,46	1239,02
762,64	1282,03
762,82	1355,76
763,00	1196,01
763,18	1322,99
763,35	1279,98
763,53	1288,17
763,71	1343,47
763,89	1396,71
764,07	1226,73
764,24	1269,74
764,42	1286,12
764,60	1310,70
764,78	1214,45
764,96	1241,07
765,13	1300,46
765,31	1247,21
765,49	1331,18
765,67	1253,36
765,84	1191,92
766,02	1316,84
766,20	1286,12
766,38	1329,13
766,56	1314,80
766,73	1308,65
766,91	1279,98
767,09	1245,16
767,27	1304,56
767,44	1216,49
767,62	1206,25
767,80	1249,26
767,98	1273,84
768,15	1347,56
768,33	1265,64
768,51	1271,79
768,69	1312,75
768,87	1282,03
769,04	1265,64
769,22	1261,55
769,40	1263,60
769,58	1300,46
769,75	1173,49
769,93	1198,06
770,11	1273,84
770,28	1279,98
770,46	1290,22
770,64	1273,84
770,82	1267,69
770,99	1218,54
771,17	1273,84
771,35	1335,28
771,53	1333,23
771,70	1298,41
771,88	1279,98
772,06	1212,40
772,23	1267,69
772,41	1288,17
772,59	1302,51
772,77	1314,80
772,94	1273,84
773,12	1296,36
773,30	1271,79
773,47	1282,03
773,65	1206,25
773,83	1329,13
774,01	1279,98
774,18	1320,94
774,36	1327,08
774,54	1304,56
774,71	1271,79
774,89	1175,53
775,07	1247,21
775,24	1282,03
775,42	1216,49
775,60	1329,13
775,78	1228,78
775,95	1267,69
776,13	1253,36
776,31	1216,49
776,48	1236,97
776,66	1259,50
776,84	1243,12
777,01	1236,97
777,19	1222,64
777,37	1312,75
777,54	1269,74
777,72	1265,64
777,90	1271,79
778,07	1224,69
778,25	1306,60
778,43	1198,06
778,60	1181,68
778,78	1294,32
778,96	1206,25
779,13	1312,75
779,31	1265,64
779,49	1259,50
779,66	1247,21
779,84	1308,65
780,01	1232,88
780,19	1347,56
780,37	1245,16
780,54	1273,84
780,72	1224,69
780,90	1265,64
781,07	1263,60
781,25	1290,22
781,43	1286,12
781,60	1220,59
781,78	1230,83
781,95	1263,60
782,13	1249,26
782,31	1388,52
782,48	1296,36
782,66	1263,60
782,83	1282,03
783,01	1310,70
783,19	1300,46
783,36	1228,78
783,54	1187,82
783,72	1222,64
783,89	1241,07
784,07	1294,32
784,24	1236,97
784,42	1282,03
784,60	1251,31
784,77	1241,07
784,95	1218,54
785,12	1345,52
785,30	1306,60
785,47	1271,79
785,65	1275,88
785,83	1247,21
786,00	1234,93
786,18	1232,88
786,35	1322,99
786,53	1329,13
786,71	1282,03
786,88	1261,55
787,06	1300,46
787,23	1261,55
787,41	1253,36
787,58	1247,21
787,76	1241,07
787,94	1318,89
788,11	1232,88
788,29	1294,32
788,46	1257,45
788,64	1302,51
788,81	1236,97
788,99	1282,03
789,16	1228,78
789,34	1232,88
789,52	1282,03
789,69	1228,78
789,87	1218,54
790,04	1265,64
790,22	1265,64
790,39	1302,51
790,57	1286,12
790,74	1257,45
790,92	1255,40
791,09	1275,88
791,27	1282,03
791,44	1243,12
791,62	1322,99
791,79	1286,12
791,97	1275,88
792,15	1298,41
792,32	1335,28
792,50	1214,45
792,67	1292,27
792,85	1239,02
793,02	1255,40
793,20	1265,64
793,37	1196,01
793,55	1210,35
793,72	1282,03
793,90	1247,21
794,07	1263,60
794,25	1277,93
794,42	1290,22
794,60	1247,21
794,77	1251,31
794,95	1239,02
795,12	1296,36
795,30	1259,50
795,47	1239,02
795,65	1275,88
795,82	1267,69
796,00	1200,11
796,17	1261,55
796,34	1210,35
796,52	1282,03
796,69	1241,07
796,87	1239,02
797,04	1273,84
797,22	1275,88
797,39	1253,36
797,57	1189,87
797,74	1236,97
797,92	1228,78
798,09	1185,77
798,27	1292,27
798,44	1251,31
798,62	1236,97
798,79	1222,64
798,96	1183,73
799,14	1273,84
799,31	1241,07
799,49	1251,31
799,66	1185,77
799,84	1273,84
800,01	1210,35
800,19	1304,56
800,36	1284,08
800,53	1200,11
800,71	1255,40
800,88	1228,78
801,06	1271,79
801,23	1232,88
801,41	1298,41
801,58	1302,51
801,75	1220,59
801,93	1279,98
802,10	1228,78
802,28	1306,60
802,45	1196,01
802,63	1322,99
802,80	1239,02
802,97	1304,56
803,15	1316,84
803,32	1294,32
803,50	1290,22
803,67	1259,50
803,84	1255,40
804,02	1271,79
804,19	1316,84
804,37	1236,97
804,54	1228,78
804,71	1337,32
804,89	1265,64
805,06	1290,22
805,24	1312,75
805,41	1355,76
805,58	1239,02
805,76	1271,79
805,93	1308,65
806,10	1271,79
806,28	1198,06
806,45	1257,45
806,63	1236,97
806,80	1253,36
806,97	1271,79
807,15	1249,26
807,32	1257,45
807,49	1322,99
807,67	1236,97
807,84	1288,17
808,01	1214,45
808,19	1249,26
808,36	1282,03
808,54	1286,12
808,71	1236,97
808,88	1259,50
809,06	1314,80
809,23	1232,88
809,40	1202,16
809,58	1290,22
809,75	1284,08
809,92	1279,98
810,10	1298,41
810,27	1282,03
810,44	1234,93
810,62	1277,93
810,79	1306,60
810,96	1265,64
811,14	1349,61
811,31	1271,79
811,48	1269,74
811,66	1222,64
811,83	1261,55
812,00	1320,94
812,18	1267,69
812,35	1234,93
812,52	1191,92
812,69	1259,50
812,87	1318,89
813,04	1210,35
813,21	1239,02
813,39	1279,98
813,56	1247,21
813,73	1263,60
813,91	1306,60
814,08	1329,13
814,25	1261,55
814,42	1308,65
814,60	1333,23
814,77	1275,88
814,94	1320,94
815,12	1210,35
815,29	1302,51
815,46	1243,12
815,63	1286,12
815,81	1265,64
815,98	1220,59
816,15	1306,60
816,33	1261,55
816,50	1345,52
816,67	1302,51
816,84	1251,31
817,02	1349,61
817,19	1288,17
817,36	1296,36
817,53	1302,51
817,71	1230,83
817,88	1251,31
818,05	1226,73
818,22	1265,64
818,40	1228,78
818,57	1318,89
818,74	1300,46
818,91	1269,74
819,09	1261,55
819,26	1187,82
819,43	1239,02
819,60	1302,51
819,78	1298,41
819,95	1322,99
820,12	1322,99
820,29	1286,12
820,47	1255,40
820,64	1208,30
820,81	1286,12
820,98	1232,88
821,15	1294,32
821,33	1275,88
821,50	1290,22
821,67	1241,07
821,84	1277,93
822,02	1351,66
822,19	1282,03
822,36	1294,32
822,53	1304,56
822,70	1366,00
822,88	1200,11
823,05	1269,74
823,22	1189,87
823,39	1241,07
823,56	1236,97
823,74	1292,27
823,91	1243,12
824,08	1286,12
824,25	1251,31
824,42	1308,65
824,60	1234,93
824,77	1239,02
824,94	1306,60
825,11	1351,66
825,28	1271,79
825,45	1241,07
825,63	1267,69
825,80	1282,03
825,97	1284,08
826,14	1306,60
826,31	1300,46
826,48	1173,49
826,66	1290,22
826,83	1286,12
827,00	1277,93
827,17	1261,55
827,34	1257,45
827,51	1292,27
827,69	1257,45
827,86	1255,40
828,03	1208,30
828,20	1273,84
828,37	1339,37
828,54	1249,26
828,71	1224,69
828,89	1296,36
829,06	1263,60
829,23	1232,88
829,40	1249,26
829,57	1288,17
829,74	1263,60
829,91	1241,07
830,09	1261,55
830,26	1341,42
830,43	1286,12
830,60	1302,51
830,77	1265,64
830,94	1214,45
831,11	1286,12
831,28	1216,49
831,46	1327,08
831,63	1304,56
831,80	1271,79
831,97	1304,56
832,14	1228,78
832,31	1288,17
832,48	1290,22
832,65	1288,17
832,82	1273,84
832,99	1181,68
833,17	1243,12
833,34	1234,93
833,51	1210,35
833,68	1314,80
833,85	1282,03
834,02	1224,69
834,19	1298,41
834,36	1304,56
834,53	1273,84
834,70	1263,60
834,87	1263,60
835,04	1153,01
835,22	1179,63
835,39	1279,98
835,56	1353,71
835,73	1210,35
835,90	1206,25
836,07	1284,08
836,24	1306,60
836,41	1232,88
836,58	1343,47
836,75	1253,36
836,92	1306,60
837,09	1239,02
837,26	1210,35
837,43	1224,69
837,60	1224,69
837,77	1261,55
837,94	1329,13
838,12	1249,26
838,29	1331,18
838,46	1196,01
838,63	1196,01
838,80	1300,46
838,97	1290,22
839,14	1220,59
839,31	1249,26
839,48	1298,41
839,65	1228,78
839,82	1273,84
839,99	1232,88
840,16	1322,99
840,33	1333,23
840,50	1286,12
840,67	1236,97
840,84	1249,26
841,01	1302,51
841,18	1257,45
841,35	1208,30
841,52	1322,99
841,69	1292,27
841,86	1263,60
842,03	1257,45
842,20	1271,79
842,37	1228,78
842,54	1253,36
842,71	1322,99
842,88	1304,56
843,05	1279,98
843,22	1302,51
843,39	1304,56
843,56	1279,98
843,73	1193,97
843,90	1255,40
844,07	1267,69
844,24	1253,36
844,41	1249,26
844,58	1208,30
844,75	1302,51
844,92	1316,84
845,09	1265,64
845,26	1288,17
845,43	1290,22
845,60	1239,02
845,77	1255,40
845,94	1271,79
846,10	1312,75
846,27	1232,88
846,44	1269,74
846,61	1265,64
846,78	1279,98
846,95	1269,74
847,12	1282,03
847,29	1222,64
847,46	1290,22
847,63	1226,73
847,80	1296,36
847,97	1202,16
848,14	1296,36
848,31	1251,31
848,48	1284,08
848,65	1247,21
848,82	1208,30
848,98	1282,03
849,15	1286,12
849,32	1294,32
849,49	1298,41
849,66	1257,45
849,83	1253,36
850,00	1265,64
850,17	1187,82
850,34	1273,84
850,51	1345,52
850,68	1267,69
850,85	1269,74
851,01	1230,83
851,18	1259,50
851,35	1239,02
851,52	1343,47
851,69	1247,21
851,86	1249,26
852,03	1290,22
852,20	1296,36
852,37	1273,84
852,53	1279,98
852,70	1357,80
852,87	1259,50
853,04	1359,85
853,21	1253,36
853,38	1279,98
853,55	1226,73
853,72	1288,17
853,89	1339,37
854,05	1243,12
854,22	1249,26
854,39	1296,36
854,56	1247,21
854,73	1353,71
854,90	1257,45
855,07	1267,69
855,23	1239,02
855,40	1263,60
855,57	1298,41
855,74	1331,18
855,91	1243,12
856,08	1286,12
856,25	1300,46
856,41	1345,52
856,58	1318,89
856,75	1247,21
856,92	1275,88
857,09	1241,07
857,26	1304,56
857,42	1255,40
857,59	1253,36
857,76	1267,69
857,93	1232,88
858,10	1273,84
858,27	1277,93
858,43	1249,26
858,60	1310,70
858,77	1337,32
858,94	1294,32
859,11	1263,60
859,27	1249,26
859,44	1261,55
859,61	1275,88
859,78	1279,98
859,95	1275,88
860,12	1343,47
860,28	1292,27
860,45	1208,30
860,62	1214,45
860,79	1308,65
860,95	1284,08
861,12	1226,73
861,29	1325,04
861,46	1296,36
861,63	1286,12
861,79	1263,60
861,96	1216,49
862,13	1255,40
862,30	1222,64
862,47	1275,88
862,63	1292,27
862,80	1243,12
862,97	1333,23
863,14	1318,89
863,30	1249,26
863,47	1259,50
863,64	1300,46
863,81	1294,32
863,97	1290,22
864,14	1261,55
864,31	1286,12
864,48	1279,98
864,65	1234,93
864,81	1193,97
864,98	1308,65
865,15	1310,70
865,32	1198,06
865,48	1286,12
865,65	1228,78
865,82	1300,46
865,98	1243,12
866,15	1277,93
866,32	1265,64
866,49	1255,40
866,65	1337,32
866,82	1306,60
866,99	1310,70
867,16	1214,45
867,32	1187,82
867,49	1259,50
867,66	1265,64
867,83	1292,27
867,99	1212,40
868,16	1347,56
868,33	1232,88
868,49	1300,46
868,66	1327,08
868,83	1255,40
868,99	1228,78
869,16	1249,26
869,33	1325,04
869,50	1265,64
869,66	1257,45
869,83	1255,40
870,00	1204,21
870,16	1179,63
870,33	1322,99
870,50	1347,56
870,66	1259,50
870,83	1243,12
871,00	1349,61
871,17	1222,64
871,33	1271,79
871,50	1263,60
871,67	1232,88
871,83	1279,98
872,00	1269,74
872,17	1241,07
872,33	1263,60
872,50	1320,94
872,67	1327,08
872,83	1245,16
873,00	1232,88
873,17	1234,93
873,33	1226,73
873,50	1288,17
873,67	1222,64
873,83	1294,32
874,00	1302,51
874,16	1236,97
874,33	1279,98
874,50	1247,21
874,66	1302,51
874,83	1288,17
875,00	1257,45
875,16	1282,03
875,33	1247,21
875,50	1279,98
875,66	1320,94
875,83	1236,97
875,99	1277,93
876,16	1292,27
876,33	1245,16
876,49	1265,64
876,66	1228,78
876,83	1351,66
876,99	1214,45
877,16	1224,69
877,32	1265,64
877,49	1335,28
877,66	1310,70
877,82	1271,79
877,99	1282,03
878,15	1320,94
878,32	1314,80
878,49	1345,52
878,65	1185,77
878,82	1226,73
878,98	1189,87
879,15	1232,88
879,32	1388,52
879,48	1306,60
879,65	1257,45
879,81	1218,54
879,98	1312,75
880,15	1241,07
880,31	1314,80
880,48	1222,64
880,64	1257,45
880,81	1296,36
880,97	1216,49
881,14	1261,55
881,31	1189,87
881,47	1232,88
881,64	1239,02
881,80	1245,16
881,97	1300,46
882,13	1259,50
882,30	1247,21
882,47	1261,55
882,63	1286,12
882,80	1218,54
882,96	1236,97
883,13	1247,21
883,29	1212,40
883,46	1241,07
883,62	1198,06
883,79	1279,98
883,95	1269,74
884,12	1329,13
884,29	1247,21
884,45	1202,16
884,62	1232,88
884,78	1290,22
884,95	1216,49
885,11	1279,98
885,28	1277,93
885,44	1255,40
885,61	1218,54
885,77	1247,21
885,94	1263,60
886,10	1232,88
886,27	1306,60
886,43	1271,79
886,60	1230,83
886,76	1327,08
886,93	1261,55
887,09	1267,69
887,26	1294,32
887,42	1296,36
887,59	1214,45
887,75	1300,46
887,92	1261,55
888,08	1265,64
888,25	1249,26
888,41	1259,50
888,58	1298,41
888,74	1304,56
888,91	1290,22
>>>>>End Processed Spectral Data<<<<<
