SpectraSuite Data File
++++++++++++++++++++++++++++++++++++
Date: Sun Apr 03 14:45:04 CEST 2016
User: root
Dark Spectrum Present: No
Reference Spectrum Present: No
Number of Sampled Component Spectra: 1
Spectrometers: USB4C02835
Integration Time (usec): 10000 (USB4C02835)
Spectra Averaged: 1 (USB4C02835)
Boxcar Smoothing: 0 (USB4C02835)
Correct for Electrical Dark: No (USB4C02835)
Strobe/Lamp Enabled: No (USB4C02835)
Correct for Detector Non-linearity: No (USB4C02835)
Correct for Stray Light: No (USB4C02835)
Number of Pixels in Processed Spectrum: 3648
>>>>>Begin Processed Spectral Data<<<<<
177,47	1290,22
177,69	1290,22
177,91	1290,22
178,13	1218,54
178,36	1230,83
178,58	1261,55
178,80	1300,46
179,02	1292,27
179,24	1249,26
179,46	1269,74
179,68	1269,74
179,90	1312,75
180,13	1204,21
180,35	1253,36
180,57	1239,02
180,79	1249,26
181,01	1339,37
181,23	1255,40
181,45	1282,03
181,67	1222,64
181,90	1232,88
182,12	1202,16
182,34	1259,50
182,56	1200,11
182,78	1247,21
183,00	1171,44
183,22	1265,64
183,44	1247,21
183,66	1271,79
183,89	1257,45
184,11	1288,17
184,33	1271,79
184,55	1241,07
184,77	1236,97
184,99	1310,70
185,21	1189,87
185,43	1230,83
185,65	1308,65
185,87	1183,73
186,10	1263,60
186,32	1269,74
186,54	1275,88
186,76	1286,12
186,98	1243,12
187,20	1292,27
187,42	1269,74
187,64	1226,73
187,86	1306,60
188,08	1257,45
188,30	1271,79
188,52	1312,75
188,75	1220,59
188,97	1322,99
189,19	1294,32
189,41	1253,36
189,63	1286,12
189,85	1253,36
190,07	1310,70
190,29	1331,18
190,51	1325,04
190,73	1347,56
190,95	1200,11
191,17	1255,40
191,39	1290,22
191,61	1257,45
191,84	1271,79
192,06	1230,83
192,28	1183,73
192,50	1271,79
192,72	1318,89
192,94	1267,69
193,16	1261,55
193,38	1298,41
193,60	1204,21
193,82	1263,60
194,04	1230,83
194,26	1322,99
194,48	1277,93
194,70	1247,21
194,92	1261,55
195,14	1255,40
195,36	1265,64
195,58	1273,84
195,80	1284,08
196,02	1304,56
196,24	1257,45
196,46	1353,71
196,69	1245,16
196,91	1331,18
197,13	1318,89
197,35	1261,55
197,57	1224,69
197,79	1302,51
198,01	1339,37
198,23	1271,79
198,45	1222,64
198,67	1333,23
198,89	1277,93
199,11	1306,60
199,33	1339,37
199,55	1271,79
199,77	1243,12
199,99	1314,80
200,21	1269,74
200,43	1308,65
200,65	1196,01
200,87	1290,22
201,09	1298,41
201,31	1284,08
201,53	1294,32
201,75	1279,98
201,97	1275,88
202,19	1347,56
202,41	1292,27
202,63	1314,80
202,85	1273,84
203,07	1208,30
203,29	1304,56
203,51	1171,44
203,73	1312,75
203,95	1314,80
204,17	1210,35
204,39	1236,97
204,61	1269,74
204,83	1273,84
205,05	1263,60
205,27	1259,50
205,49	1277,93
205,71	1306,60
205,93	1257,45
206,15	1302,51
206,37	1220,59
206,59	1265,64
206,81	1249,26
207,03	1251,31
207,25	1286,12
207,47	1312,75
207,69	1284,08
207,91	1245,16
208,13	1253,36
208,34	1259,50
208,56	1314,80
208,78	1296,36
209,00	1275,88
209,22	1329,13
209,44	1208,30
209,66	1220,59
209,88	1257,45
210,10	1277,93
210,32	1251,31
210,54	1318,89
210,76	1284,08
210,98	1255,40
211,20	1261,55
211,42	1312,75
211,64	1298,41
211,86	1259,50
212,08	1257,45
212,30	1300,46
212,52	1271,79
212,74	1265,64
212,96	1267,69
213,17	1286,12
213,39	1224,69
213,61	1329,13
213,83	1275,88
214,05	1216,49
214,27	1216,49
214,49	1282,03
214,71	1337,32
214,93	1320,94
215,15	1208,30
215,37	1277,93
215,59	1265,64
215,81	1265,64
216,03	1282,03
216,24	1331,18
216,46	1249,26
216,68	1306,60
216,90	1257,45
217,12	1341,42
217,34	1290,22
217,56	1294,32
217,78	1292,27
218,00	1228,78
218,22	1245,16
218,44	1245,16
218,66	1294,32
218,87	1245,16
219,09	1273,84
219,31	1263,60
219,53	1226,73
219,75	1220,59
219,97	1263,60
220,19	1318,89
220,41	1277,93
220,63	1378,28
220,85	1224,69
221,06	1302,51
221,28	1255,40
221,50	1318,89
221,72	1228,78
221,94	1267,69
222,16	1279,98
222,38	1234,93
222,60	1253,36
222,82	1181,68
223,03	1263,60
223,25	1290,22
223,47	1239,02
223,69	1279,98
223,91	1269,74
224,13	1212,40
224,35	1275,88
224,57	1224,69
224,78	1245,16
225,00	1247,21
225,22	1286,12
225,44	1279,98
225,66	1218,54
225,88	1312,75
226,10	1302,51
226,32	1263,60
226,53	1308,65
226,75	1273,84
226,97	1288,17
227,19	1224,69
227,41	1222,64
227,63	1306,60
227,85	1290,22
228,06	1271,79
228,28	1265,64
228,50	1318,89
228,72	1259,50
228,94	1296,36
229,16	1218,54
229,37	1200,11
229,59	1308,65
229,81	1339,37
230,03	1243,12
230,25	1214,45
230,47	1206,25
230,69	1288,17
230,90	1322,99
231,12	1325,04
231,34	1243,12
231,56	1267,69
231,78	1241,07
232,00	1296,36
232,21	1341,42
232,43	1249,26
232,65	1327,08
232,87	1210,35
233,09	1267,69
233,30	1228,78
233,52	1263,60
233,74	1230,83
233,96	1349,61
234,18	1271,79
234,40	1214,45
234,61	1239,02
234,83	1275,88
235,05	1232,88
235,27	1259,50
235,49	1230,83
235,70	1298,41
235,92	1230,83
236,14	1279,98
236,36	1349,61
236,58	1269,74
236,79	1253,36
237,01	1304,56
237,23	1220,59
237,45	1298,41
237,67	1325,04
237,88	1273,84
238,10	1288,17
238,32	1251,31
238,54	1292,27
238,76	1312,75
238,97	1273,84
239,19	1249,26
239,41	1318,89
239,63	1263,60
239,85	1290,22
240,06	1234,93
240,28	1230,83
240,50	1181,68
240,72	1275,88
240,93	1249,26
241,15	1316,84
241,37	1243,12
241,59	1222,64
241,81	1292,27
242,02	1265,64
242,24	1239,02
242,46	1214,45
242,68	1259,50
242,89	1259,50
243,11	1337,32
243,33	1273,84
243,55	1253,36
243,76	1282,03
243,98	1253,36
244,20	1306,60
244,42	1351,66
244,64	1214,45
244,85	1284,08
245,07	1310,70
245,29	1267,69
245,51	1230,83
245,72	1261,55
245,94	1265,64
246,16	1226,73
246,38	1187,82
246,59	1341,42
246,81	1275,88
247,03	1265,64
247,24	1232,88
247,46	1261,55
247,68	1249,26
247,90	1296,36
248,11	1245,16
248,33	1251,31
248,55	1273,84
248,77	1265,64
248,98	1304,56
249,20	1400,81
249,42	1361,90
249,64	1296,36
249,85	1398,76
250,07	1277,93
250,29	1267,69
250,50	1322,99
250,72	1267,69
250,94	1243,12
251,16	1273,84
251,37	1259,50
251,59	1320,94
251,81	1282,03
252,02	1273,84
252,24	1343,47
252,46	1300,46
252,68	1306,60
252,89	1284,08
253,11	1269,74
253,33	1363,95
253,54	1308,65
253,76	1302,51
253,98	1304,56
254,20	1294,32
254,41	1277,93
254,63	1275,88
254,85	1204,21
255,06	1273,84
255,28	1232,88
255,50	1275,88
255,71	1224,69
255,93	1312,75
256,15	1245,16
256,36	1277,93
256,58	1271,79
256,80	1306,60
257,02	1310,70
257,23	1300,46
257,45	1306,60
257,67	1304,56
257,88	1208,30
258,10	1241,07
258,32	1298,41
258,53	1286,12
258,75	1312,75
258,97	1265,64
259,18	1249,26
259,40	1257,45
259,62	1253,36
259,83	1253,36
260,05	1234,93
260,27	1165,29
260,48	1345,52
260,70	1204,21
260,92	1196,01
261,13	1325,04
261,35	1302,51
261,57	1214,45
261,78	1247,21
262,00	1245,16
262,22	1275,88
262,43	1267,69
262,65	1277,93
262,86	1339,37
263,08	1210,35
263,30	1261,55
263,51	1265,64
263,73	1296,36
263,95	1204,21
264,16	1267,69
264,38	1200,11
264,60	1314,80
264,81	1196,01
265,03	1349,61
265,25	1255,40
265,46	1263,60
265,68	1322,99
265,89	1304,56
266,11	1335,28
266,33	1253,36
266,54	1292,27
266,76	1304,56
266,98	1286,12
267,19	1322,99
267,41	1253,36
267,62	1292,27
267,84	1249,26
268,06	1312,75
268,27	1216,49
268,49	1282,03
268,70	1277,93
268,92	1353,71
269,14	1204,21
269,35	1349,61
269,57	1302,51
269,79	1265,64
270,00	1277,93
270,22	1314,80
270,43	1308,65
270,65	1286,12
270,87	1269,74
271,08	1325,04
271,30	1284,08
271,51	1226,73
271,73	1282,03
271,95	1363,95
272,16	1318,89
272,38	1296,36
272,59	1230,83
272,81	1265,64
273,02	1255,40
273,24	1265,64
273,46	1300,46
273,67	1202,16
273,89	1255,40
274,10	1271,79
274,32	1247,21
274,54	1271,79
274,75	1255,40
274,97	1318,89
275,18	1331,18
275,40	1314,80
275,61	1271,79
275,83	1294,32
276,05	1228,78
276,26	1261,55
276,48	1282,03
276,69	1277,93
276,91	1290,22
277,12	1296,36
277,34	1312,75
277,55	1259,50
277,77	1253,36
277,99	1265,64
278,20	1314,80
278,42	1220,59
278,63	1241,07
278,85	1210,35
279,06	1314,80
279,28	1247,21
279,49	1294,32
279,71	1236,97
279,93	1257,45
280,14	1279,98
280,36	1255,40
280,57	1236,97
280,79	1282,03
281,00	1189,87
281,22	1292,27
281,43	1265,64
281,65	1257,45
281,86	1230,83
282,08	1290,22
282,29	1329,13
282,51	1230,83
282,73	1265,64
282,94	1214,45
283,16	1284,08
283,37	1210,35
283,59	1366,00
283,80	1245,16
284,02	1304,56
284,23	1275,88
284,45	1267,69
284,66	1284,08
284,88	1243,12
285,09	1314,80
285,31	1263,60
285,52	1255,40
285,74	1325,04
285,95	1290,22
286,17	1273,84
286,38	1269,74
286,60	1296,36
286,81	1275,88
287,03	1277,93
287,24	1259,50
287,46	1261,55
287,67	1257,45
287,89	1220,59
288,10	1261,55
288,32	1284,08
288,53	1339,37
288,75	1241,07
288,96	1296,36
289,18	1204,21
289,39	1224,69
289,61	1331,18
289,82	1312,75
290,04	1263,60
290,25	1202,16
290,47	1216,49
290,68	1196,01
290,90	1304,56
291,11	1259,50
291,33	1269,74
291,54	1318,89
291,76	1259,50
291,97	1259,50
292,18	1320,94
292,40	1296,36
292,61	1269,74
292,83	1298,41
293,04	1279,98
293,26	1292,27
293,47	1255,40
293,69	1341,42
293,90	1296,36
294,12	1232,88
294,33	1318,89
294,55	1269,74
294,76	1236,97
294,97	1265,64
295,19	1331,18
295,40	1288,17
295,62	1267,69
295,83	1243,12
296,05	1320,94
296,26	1232,88
296,48	1312,75
296,69	1316,84
296,90	1204,21
297,12	1265,64
297,33	1269,74
297,55	1265,64
297,76	1263,60
297,98	1267,69
298,19	1314,80
298,41	1275,88
298,62	1265,64
298,83	1249,26
299,05	1253,36
299,26	1243,12
299,48	1290,22
299,69	1263,60
299,90	1255,40
300,12	1267,69
300,33	1245,16
300,55	1257,45
300,76	1251,31
300,98	1279,98
301,19	1273,84
301,40	1275,88
301,62	1257,45
301,83	1288,17
302,05	1245,16
302,26	1273,84
302,47	1345,52
302,69	1279,98
302,90	1224,69
303,12	1314,80
303,33	1331,18
303,54	1292,27
303,76	1304,56
303,97	1177,58
304,19	1220,59
304,40	1165,29
304,61	1269,74
304,83	1210,35
305,04	1239,02
305,26	1290,22
305,47	1259,50
305,68	1300,46
305,90	1222,64
306,11	1312,75
306,33	1269,74
306,54	1302,51
306,75	1298,41
306,97	1265,64
307,18	1277,93
307,39	1265,64
307,61	1304,56
307,82	1249,26
308,04	1337,32
308,25	1314,80
308,46	1302,51
308,68	1251,31
308,89	1314,80
309,10	1337,32
309,32	1304,56
309,53	1245,16
309,74	1241,07
309,96	1202,16
310,17	1222,64
310,39	1263,60
310,60	1296,36
310,81	1189,87
311,03	1257,45
311,24	1255,40
311,45	1329,13
311,67	1265,64
311,88	1255,40
312,09	1284,08
312,31	1224,69
312,52	1273,84
312,73	1232,88
312,95	1288,17
313,16	1271,79
313,37	1243,12
313,59	1296,36
313,80	1200,11
314,01	1247,21
314,23	1232,88
314,44	1277,93
314,65	1183,73
314,87	1273,84
315,08	1304,56
315,29	1312,75
315,51	1318,89
315,72	1267,69
315,93	1361,90
316,15	1286,12
316,36	1290,22
316,57	1310,70
316,79	1245,16
317,00	1220,59
317,21	1279,98
317,43	1286,12
317,64	1277,93
317,85	1314,80
318,07	1265,64
318,28	1255,40
318,49	1230,83
318,70	1288,17
318,92	1275,88
319,13	1277,93
319,34	1177,58
319,56	1286,12
319,77	1208,30
319,98	1312,75
320,20	1253,36
320,41	1243,12
320,62	1308,65
320,83	1300,46
321,05	1312,75
321,26	1218,54
321,47	1284,08
321,69	1314,80
321,90	1310,70
322,11	1284,08
322,32	1249,26
322,54	1269,74
322,75	1273,84
322,96	1312,75
323,18	1204,21
323,39	1284,08
323,60	1279,98
323,81	1316,84
324,03	1304,56
324,24	1322,99
324,45	1263,60
324,66	1261,55
324,88	1263,60
325,09	1292,27
325,30	1226,73
325,52	1296,36
325,73	1263,60
325,94	1279,98
326,15	1331,18
326,37	1275,88
326,58	1271,79
326,79	1214,45
327,00	1275,88
327,22	1263,60
327,43	1239,02
327,64	1279,98
327,85	1261,55
328,07	1267,69
328,28	1290,22
328,49	1255,40
328,70	1294,32
328,92	1198,06
329,13	1310,70
329,34	1239,02
329,55	1300,46
329,76	1265,64
329,98	1232,88
330,19	1271,79
330,40	1275,88
330,61	1279,98
330,83	1308,65
331,04	1259,50
331,25	1318,89
331,46	1265,64
331,68	1265,64
331,89	1222,64
332,10	1277,93
332,31	1232,88
332,52	1271,79
332,74	1294,32
332,95	1279,98
333,16	1320,94
333,37	1329,13
333,58	1253,36
333,80	1193,97
334,01	1261,55
334,22	1263,60
334,43	1345,52
334,64	1284,08
334,86	1347,56
335,07	1292,27
335,28	1347,56
335,49	1294,32
335,70	1245,16
335,92	1263,60
336,13	1292,27
336,34	1273,84
336,55	1306,60
336,76	1269,74
336,98	1247,21
337,19	1259,50
337,40	1302,51
337,61	1320,94
337,82	1337,32
338,04	1163,25
338,25	1269,74
338,46	1218,54
338,67	1290,22
338,88	1265,64
339,09	1292,27
339,31	1191,92
339,52	1282,03
339,73	1241,07
339,94	1302,51
340,15	1212,40
340,36	1322,99
340,58	1241,07
340,79	1224,69
341,00	1236,97
341,21	1251,31
341,42	1353,71
341,63	1198,06
341,85	1325,04
342,06	1271,79
342,27	1277,93
342,48	1200,11
342,69	1202,16
342,90	1318,89
343,12	1300,46
343,33	1245,16
343,54	1339,37
343,75	1366,00
343,96	1347,56
344,17	1243,12
344,38	1271,79
344,60	1322,99
344,81	1267,69
345,02	1353,71
345,23	1261,55
345,44	1249,26
345,65	1220,59
345,86	1212,40
346,07	1290,22
346,29	1282,03
346,50	1296,36
346,71	1279,98
346,92	1298,41
347,13	1226,73
347,34	1251,31
347,55	1345,52
347,76	1236,97
347,98	1294,32
348,19	1310,70
348,40	1218,54
348,61	1290,22
348,82	1316,84
349,03	1271,79
349,24	1251,31
349,45	1267,69
349,66	1279,98
349,88	1257,45
350,09	1331,18
350,30	1279,98
350,51	1296,36
350,72	1257,45
350,93	1251,31
351,14	1265,64
351,35	1232,88
351,56	1253,36
351,77	1298,41
351,99	1269,74
352,20	1306,60
352,41	1290,22
352,62	1273,84
352,83	1282,03
353,04	1271,79
353,25	1310,70
353,46	1320,94
353,67	1253,36
353,88	1218,54
354,09	1259,50
354,30	1255,40
354,52	1232,88
354,73	1288,17
354,94	1320,94
355,15	1277,93
355,36	1304,56
355,57	1265,64
355,78	1257,45
355,99	1298,41
356,20	1212,40
356,41	1292,27
356,62	1318,89
356,83	1259,50
357,04	1288,17
357,25	1255,40
357,46	1327,08
357,68	1255,40
357,89	1232,88
358,10	1228,78
358,31	1290,22
358,52	1273,84
358,73	1329,13
358,94	1255,40
359,15	1288,17
359,36	1241,07
359,57	1294,32
359,78	1251,31
359,99	1189,87
360,20	1282,03
360,41	1259,50
360,62	1265,64
360,83	1265,64
361,04	1253,36
361,25	1269,74
361,46	1277,93
361,67	1306,60
361,88	1284,08
362,09	1304,56
362,30	1290,22
362,51	1333,23
362,72	1193,97
362,93	1259,50
363,14	1277,93
363,35	1255,40
363,56	1210,35
363,78	1277,93
363,99	1282,03
364,20	1294,32
364,41	1345,52
364,62	1228,78
364,83	1273,84
365,04	1234,93
365,25	1308,65
365,46	1296,36
365,67	1253,36
365,88	1284,08
366,09	1312,75
366,30	1255,40
366,51	1304,56
366,72	1273,84
366,93	1312,75
367,14	1243,12
367,35	1341,42
367,56	1329,13
367,77	1308,65
367,98	1279,98
368,18	1306,60
368,39	1263,60
368,60	1261,55
368,81	1257,45
369,02	1243,12
369,23	1290,22
369,44	1273,84
369,65	1322,99
369,86	1314,80
370,07	1294,32
370,28	1277,93
370,49	1222,64
370,70	1306,60
370,91	1253,36
371,12	1245,16
371,33	1255,40
371,54	1310,70
371,75	1214,45
371,96	1261,55
372,17	1337,32
372,38	1306,60
372,59	1239,02
372,80	1263,60
373,01	1228,78
373,22	1290,22
373,43	1249,26
373,64	1339,37
373,85	1253,36
374,06	1333,23
374,26	1275,88
374,47	1308,65
374,68	1251,31
374,89	1273,84
375,10	1275,88
375,31	1300,46
375,52	1222,64
375,73	1277,93
375,94	1212,40
376,15	1230,83
376,36	1259,50
376,57	1325,04
376,78	1331,18
376,99	1275,88
377,20	1232,88
377,40	1288,17
377,61	1218,54
377,82	1181,68
378,03	1286,12
378,24	1241,07
378,45	1284,08
378,66	1265,64
378,87	1304,56
379,08	1253,36
379,29	1247,21
379,50	1318,89
379,71	1220,59
379,91	1273,84
380,12	1308,65
380,33	1298,41
380,54	1294,32
380,75	1335,28
380,96	1243,12
381,17	1277,93
381,38	1251,31
381,59	1273,84
381,80	1294,32
382,00	1241,07
382,21	1275,88
382,42	1255,40
382,63	1261,55
382,84	1275,88
383,05	1251,31
383,26	1339,37
383,47	1374,19
383,68	1290,22
383,88	1302,51
384,09	1335,28
384,30	1296,36
384,51	1320,94
384,72	1263,60
384,93	1259,50
385,14	1310,70
385,35	1220,59
385,55	1228,78
385,76	1273,84
385,97	1298,41
386,18	1257,45
386,39	1286,12
386,60	1230,83
386,81	1325,04
387,02	1294,32
387,22	1308,65
387,43	1204,21
387,64	1288,17
387,85	1368,04
388,06	1249,26
388,27	1282,03
388,48	1267,69
388,68	1265,64
388,89	1286,12
389,10	1282,03
389,31	1243,12
389,52	1210,35
389,73	1277,93
389,93	1322,99
390,14	1267,69
390,35	1316,84
390,56	1247,21
390,77	1200,11
390,98	1325,04
391,18	1292,27
391,39	1300,46
391,60	1292,27
391,81	1292,27
392,02	1290,22
392,23	1290,22
392,43	1288,17
392,64	1288,17
392,85	1234,93
393,06	1255,40
393,27	1306,60
393,47	1236,97
393,68	1224,69
393,89	1251,31
394,10	1214,45
394,31	1259,50
394,52	1265,64
394,72	1245,16
394,93	1288,17
395,14	1191,92
395,35	1314,80
395,56	1224,69
395,76	1257,45
395,97	1273,84
396,18	1316,84
396,39	1249,26
396,60	1382,38
396,80	1314,80
397,01	1210,35
397,22	1310,70
397,43	1224,69
397,64	1241,07
397,84	1277,93
398,05	1284,08
398,26	1282,03
398,47	1273,84
398,67	1255,40
398,88	1257,45
399,09	1277,93
399,30	1261,55
399,51	1277,93
399,71	1241,07
399,92	1290,22
400,13	1284,08
400,34	1224,69
400,54	1257,45
400,75	1370,09
400,96	1265,64
401,17	1366,00
401,37	1310,70
401,58	1271,79
401,79	1314,80
402,00	1292,27
402,21	1253,36
402,41	1275,88
402,62	1218,54
402,83	1267,69
403,04	1200,11
403,24	1234,93
403,45	1282,03
403,66	1325,04
403,87	1273,84
404,07	1236,97
404,28	1298,41
404,49	1322,99
404,70	1212,40
404,90	1292,27
405,11	1298,41
405,32	1263,60
405,52	1327,08
405,73	1251,31
405,94	1222,64
406,15	1263,60
406,35	1267,69
406,56	1230,83
406,77	1294,32
406,98	1210,35
407,18	1265,64
407,39	1394,67
407,60	1208,30
407,80	1325,04
408,01	1329,13
408,22	1288,17
408,43	1320,94
408,63	1312,75
408,84	1247,21
409,05	1228,78
409,25	1212,40
409,46	1277,93
409,67	1212,40
409,88	1198,06
410,08	1222,64
410,29	1290,22
410,50	1361,90
410,70	1304,56
410,91	1212,40
411,12	1312,75
411,32	1259,50
411,53	1277,93
411,74	1314,80
411,95	1232,88
412,15	1230,83
412,36	1316,84
412,57	1314,80
412,77	1241,07
412,98	1322,99
413,19	1228,78
413,39	1277,93
413,60	1245,16
413,81	1271,79
414,01	1310,70
414,22	1234,93
414,43	1314,80
414,63	1279,98
414,84	1239,02
415,05	1382,38
415,25	1134,57
415,46	1191,92
415,67	1286,12
415,87	1271,79
416,08	1355,76
416,29	1175,53
416,49	1308,65
416,70	1366,00
416,91	1259,50
417,11	1265,64
417,32	1247,21
417,53	1275,88
417,73	1249,26
417,94	1329,13
418,15	1284,08
418,35	1329,13
418,56	1376,24
418,77	1337,32
418,97	1310,70
419,18	1288,17
419,38	1200,11
419,59	1327,08
419,80	1320,94
420,00	1288,17
420,21	1306,60
420,42	1288,17
420,62	1300,46
420,83	1316,84
421,04	1222,64
421,24	1275,88
421,45	1241,07
421,65	1251,31
421,86	1253,36
422,07	1279,98
422,27	1355,76
422,48	1322,99
422,69	1300,46
422,89	1298,41
423,10	1204,21
423,30	1290,22
423,51	1325,04
423,72	1216,49
423,92	1312,75
424,13	1331,18
424,33	1353,71
424,54	1251,31
424,75	1298,41
424,95	1265,64
425,16	1257,45
425,36	1298,41
425,57	1224,69
425,78	1277,93
425,98	1308,65
426,19	1288,17
426,39	1200,11
426,60	1277,93
426,81	1265,64
427,01	1298,41
427,22	1298,41
427,42	1175,53
427,63	1269,74
427,83	1216,49
428,04	1300,46
428,25	1253,36
428,45	1273,84
428,66	1308,65
428,86	1331,18
429,07	1333,23
429,28	1253,36
429,48	1355,76
429,69	1302,51
429,89	1304,56
430,10	1253,36
430,30	1286,12
430,51	1284,08
430,71	1306,60
430,92	1241,07
431,13	1247,21
431,33	1310,70
431,54	1308,65
431,74	1279,98
431,95	1251,31
432,15	1306,60
432,36	1275,88
432,56	1230,83
432,77	1230,83
432,98	1284,08
433,18	1185,77
433,39	1259,50
433,59	1255,40
433,80	1220,59
434,00	1265,64
434,21	1243,12
434,41	1298,41
434,62	1312,75
434,82	1298,41
435,03	1259,50
435,23	1253,36
435,44	1228,78
435,64	1249,26
435,85	1294,32
436,06	1337,32
436,26	1329,13
436,47	1228,78
436,67	1232,88
436,88	1234,93
437,08	1275,88
437,29	1282,03
437,49	1290,22
437,70	1198,06
437,90	1318,89
438,11	1255,40
438,31	1267,69
438,52	1273,84
438,72	1292,27
438,93	1298,41
439,13	1298,41
439,34	1257,45
439,54	1312,75
439,75	1294,32
439,95	1245,16
440,16	1257,45
440,36	1230,83
440,57	1251,31
440,77	1230,83
440,98	1196,01
441,18	1300,46
441,39	1265,64
441,59	1296,36
441,80	1241,07
442,00	1226,73
442,21	1267,69
442,41	1214,45
442,62	1200,11
442,82	1347,56
443,02	1318,89
443,23	1312,75
443,43	1230,83
443,64	1339,37
443,84	1312,75
444,05	1236,97
444,25	1277,93
444,46	1304,56
444,66	1226,73
444,87	1275,88
445,07	1191,92
445,28	1290,22
445,48	1298,41
445,69	1314,80
445,89	1290,22
446,09	1341,42
446,30	1298,41
446,50	1267,69
446,71	1251,31
446,91	1308,65
447,12	1263,60
447,32	1271,79
447,53	1308,65
447,73	1230,83
447,93	1249,26
448,14	1284,08
448,34	1282,03
448,55	1263,60
448,75	1284,08
448,96	1263,60
449,16	1327,08
449,36	1277,93
449,57	1273,84
449,77	1335,28
449,98	1230,83
450,18	1296,36
450,39	1282,03
450,59	1224,69
450,79	1255,40
451,00	1216,49
451,20	1298,41
451,41	1251,31
451,61	1214,45
451,81	1239,02
452,02	1261,55
452,22	1294,32
452,43	1300,46
452,63	1353,71
452,84	1261,55
453,04	1331,18
453,24	1261,55
453,45	1302,51
453,65	1249,26
453,86	1286,12
454,06	1279,98
454,26	1353,71
454,47	1257,45
454,67	1322,99
454,87	1251,31
455,08	1216,49
455,28	1236,97
455,49	1331,18
455,69	1243,12
455,89	1279,98
456,10	1269,74
456,30	1331,18
456,51	1243,12
456,71	1249,26
456,91	1257,45
457,12	1284,08
457,32	1277,93
457,52	1263,60
457,73	1290,22
457,93	1347,56
458,14	1236,97
458,34	1253,36
458,54	1304,56
458,75	1232,88
458,95	1230,83
459,15	1251,31
459,36	1345,52
459,56	1279,98
459,76	1273,84
459,97	1306,60
460,17	1261,55
460,37	1341,42
460,58	1232,88
460,78	1269,74
460,99	1304,56
461,19	1251,31
461,39	1253,36
461,60	1294,32
461,80	1341,42
462,00	1318,89
462,21	1312,75
462,41	1282,03
462,61	1312,75
462,82	1298,41
463,02	1230,83
463,22	1191,92
463,43	1257,45
463,63	1329,13
463,83	1265,64
464,04	1261,55
464,24	1298,41
464,44	1298,41
464,64	1222,64
464,85	1212,40
465,05	1181,68
465,25	1310,70
465,46	1265,64
465,66	1196,01
465,86	1279,98
466,07	1318,89
466,27	1196,01
466,47	1261,55
466,68	1226,73
466,88	1282,03
467,08	1191,92
467,29	1331,18
467,49	1296,36
467,69	1331,18
467,89	1306,60
468,10	1306,60
468,30	1245,16
468,50	1249,26
468,71	1239,02
468,91	1286,12
469,11	1255,40
469,31	1302,51
469,52	1300,46
469,72	1261,55
469,92	1265,64
470,13	1253,36
470,33	1236,97
470,53	1247,21
470,73	1312,75
470,94	1290,22
471,14	1306,60
471,34	1275,88
471,54	1275,88
471,75	1290,22
471,95	1286,12
472,15	1243,12
472,36	1286,12
472,56	1335,28
472,76	1241,07
472,96	1284,08
473,17	1245,16
473,37	1255,40
473,57	1253,36
473,77	1253,36
473,98	1304,56
474,18	1257,45
474,38	1249,26
474,58	1255,40
474,79	1300,46
474,99	1316,84
475,19	1191,92
475,39	1279,98
475,60	1306,60
475,80	1273,84
476,00	1265,64
476,20	1312,75
476,41	1279,98
476,61	1251,31
476,81	1218,54
477,01	1302,51
477,21	1265,64
477,42	1320,94
477,62	1275,88
477,82	1284,08
478,02	1243,12
478,23	1290,22
478,43	1304,56
478,63	1234,93
478,83	1222,64
479,03	1292,27
479,24	1290,22
479,44	1284,08
479,64	1288,17
479,84	1259,50
480,04	1296,36
480,25	1255,40
480,45	1265,64
480,65	1253,36
480,85	1206,25
481,06	1284,08
481,26	1273,84
481,46	1263,60
481,66	1314,80
481,86	1255,40
482,06	1314,80
482,27	1296,36
482,47	1243,12
482,67	1243,12
482,87	1298,41
483,07	1292,27
483,28	1312,75
483,48	1239,02
483,68	1251,31
483,88	1320,94
484,08	1296,36
484,29	1308,65
484,49	1214,45
484,69	1247,21
484,89	1257,45
485,09	1320,94
485,29	1347,56
485,50	1290,22
485,70	1222,64
485,90	1232,88
486,10	1327,08
486,30	1302,51
486,50	1214,45
486,71	1232,88
486,91	1273,84
487,11	1271,79
487,31	1277,93
487,51	1204,21
487,71	1308,65
487,91	1259,50
488,12	1333,23
488,32	1230,83
488,52	1279,98
488,72	1290,22
488,92	1222,64
489,12	1302,51
489,32	1318,89
489,53	1259,50
489,73	1269,74
489,93	1286,12
490,13	1304,56
490,33	1310,70
490,53	1269,74
490,73	1275,88
490,94	1370,09
491,14	1318,89
491,34	1247,21
491,54	1286,12
491,74	1234,93
491,94	1263,60
492,14	1300,46
492,34	1288,17
492,54	1269,74
492,75	1265,64
492,95	1292,27
493,15	1325,04
493,35	1288,17
493,55	1269,74
493,75	1333,23
493,95	1265,64
494,15	1208,30
494,35	1257,45
494,56	1271,79
494,76	1232,88
494,96	1341,42
495,16	1241,07
495,36	1107,95
495,56	1263,60
495,76	1253,36
495,96	1271,79
496,16	1343,47
496,36	1232,88
496,56	1292,27
496,77	1263,60
496,97	1232,88
497,17	1159,15
497,37	1265,64
497,57	1292,27
497,77	1263,60
497,97	1265,64
498,17	1296,36
498,37	1249,26
498,57	1300,46
498,77	1265,64
498,97	1308,65
499,17	1273,84
499,38	1279,98
499,58	1255,40
499,78	1165,29
499,98	1292,27
500,18	1331,18
500,38	1343,47
500,58	1220,59
500,78	1282,03
500,98	1198,06
501,18	1286,12
501,38	1269,74
501,58	1302,51
501,78	1208,30
501,98	1247,21
502,18	1343,47
502,38	1314,80
502,58	1269,74
502,78	1253,36
502,98	1210,35
503,18	1349,61
503,38	1247,21
503,59	1279,98
503,79	1239,02
503,99	1355,76
504,19	1327,08
504,39	1187,82
504,59	1273,84
504,79	1337,32
504,99	1327,08
505,19	1296,36
505,39	1255,40
505,59	1290,22
505,79	1271,79
505,99	1269,74
506,19	1269,74
506,39	1265,64
506,59	1224,69
506,79	1345,52
506,99	1259,50
507,19	1314,80
507,39	1282,03
507,59	1304,56
507,79	1232,88
507,99	1318,89
508,19	1277,93
508,39	1255,40
508,59	1273,84
508,79	1363,95
508,99	1202,16
509,19	1345,52
509,39	1267,69
509,59	1257,45
509,79	1339,37
509,99	1279,98
510,19	1316,84
510,39	1298,41
510,59	1275,88
510,79	1341,42
510,99	1284,08
511,19	1294,32
511,39	1284,08
511,59	1333,23
511,79	1251,31
511,99	1304,56
512,19	1222,64
512,38	1226,73
512,58	1228,78
512,78	1275,88
512,98	1261,55
513,18	1271,79
513,38	1251,31
513,58	1277,93
513,78	1257,45
513,98	1288,17
514,18	1228,78
514,38	1241,07
514,58	1310,70
514,78	1335,28
514,98	1288,17
515,18	1222,64
515,38	1255,40
515,58	1318,89
515,78	1273,84
515,98	1253,36
516,18	1259,50
516,38	1288,17
516,57	1298,41
516,77	1257,45
516,97	1253,36
517,17	1294,32
517,37	1245,16
517,57	1228,78
517,77	1173,49
517,97	1222,64
518,17	1269,74
518,37	1304,56
518,57	1269,74
518,77	1341,42
518,97	1339,37
519,16	1296,36
519,36	1249,26
519,56	1247,21
519,76	1251,31
519,96	1269,74
520,16	1220,59
520,36	1275,88
520,56	1333,23
520,76	1275,88
520,96	1267,69
521,16	1292,27
521,35	1249,26
521,55	1269,74
521,75	1269,74
521,95	1290,22
522,15	1310,70
522,35	1370,09
522,55	1263,60
522,75	1282,03
522,95	1275,88
523,14	1243,12
523,34	1247,21
523,54	1239,02
523,74	1265,64
523,94	1357,80
524,14	1259,50
524,34	1275,88
524,54	1279,98
524,73	1368,04
524,93	1302,51
525,13	1269,74
525,33	1312,75
525,53	1255,40
525,73	1286,12
525,93	1265,64
526,13	1339,37
526,32	1279,98
526,52	1277,93
526,72	1292,27
526,92	1288,17
527,12	1261,55
527,32	1220,59
527,52	1261,55
527,71	1275,88
527,91	1271,79
528,11	1290,22
528,31	1312,75
528,51	1275,88
528,71	1318,89
528,90	1288,17
529,10	1259,50
529,30	1239,02
529,50	1243,12
529,70	1282,03
529,90	1247,21
530,09	1228,78
530,29	1302,51
530,49	1251,31
530,69	1257,45
530,89	1308,65
531,09	1273,84
531,28	1341,42
531,48	1333,23
531,68	1304,56
531,88	1271,79
532,08	1245,16
532,28	1300,46
532,47	1288,17
532,67	1257,45
532,87	1279,98
533,07	1259,50
533,27	1288,17
533,46	1265,64
533,66	1245,16
533,86	1257,45
534,06	1208,30
534,26	1212,40
534,45	1263,60
534,65	1322,99
534,85	1275,88
535,05	1284,08
535,25	1316,84
535,44	1298,41
535,64	1294,32
535,84	1224,69
536,04	1234,93
536,24	1273,84
536,43	1241,07
536,63	1282,03
536,83	1290,22
537,03	1228,78
537,22	1257,45
537,42	1265,64
537,62	1267,69
537,82	1284,08
538,02	1216,49
538,21	1282,03
538,41	1275,88
538,61	1183,73
538,81	1333,23
539,00	1265,64
539,20	1304,56
539,40	1214,45
539,60	1292,27
539,79	1247,21
539,99	1212,40
540,19	1298,41
540,39	1288,17
540,58	1290,22
540,78	1318,89
540,98	1282,03
541,18	1239,02
541,37	1226,73
541,57	1193,97
541,77	1263,60
541,97	1245,16
542,16	1220,59
542,36	1224,69
542,56	1214,45
542,76	1310,70
542,95	1247,21
543,15	1236,97
543,35	1292,27
543,54	1218,54
543,74	1322,99
543,94	1277,93
544,14	1261,55
544,33	1265,64
544,53	1288,17
544,73	1234,93
544,93	1300,46
545,12	1228,78
545,32	1292,27
545,52	1222,64
545,71	1310,70
545,91	1193,97
546,11	1310,70
546,30	1290,22
546,50	1273,84
546,70	1261,55
546,90	1288,17
547,09	1183,73
547,29	1265,64
547,49	1234,93
547,68	1253,36
547,88	1253,36
548,08	1318,89
548,27	1286,12
548,47	1269,74
548,67	1249,26
548,87	1322,99
549,06	1222,64
549,26	1286,12
549,46	1263,60
549,65	1415,15
549,85	1269,74
550,05	1243,12
550,24	1269,74
550,44	1247,21
550,64	1335,28
550,83	1304,56
551,03	1284,08
551,23	1304,56
551,42	1279,98
551,62	1275,88
551,82	1251,31
552,01	1339,37
552,21	1216,49
552,41	1290,22
552,60	1331,18
552,80	1241,07
553,00	1331,18
553,19	1296,36
553,39	1284,08
553,59	1261,55
553,78	1304,56
553,98	1267,69
554,17	1193,97
554,37	1396,71
554,57	1302,51
554,76	1251,31
554,96	1239,02
555,16	1257,45
555,35	1241,07
555,55	1216,49
555,75	1196,01
555,94	1370,09
556,14	1271,79
556,33	1343,47
556,53	1179,63
556,73	1226,73
556,92	1226,73
557,12	1273,84
557,32	1337,32
557,51	1288,17
557,71	1257,45
557,90	1277,93
558,10	1335,28
558,30	1290,22
558,49	1337,32
558,69	1300,46
558,88	1245,16
559,08	1275,88
559,28	1292,27
559,47	1308,65
559,67	1329,13
559,86	1253,36
560,06	1402,86
560,26	1269,74
560,45	1245,16
560,65	1200,11
560,84	1269,74
561,04	1267,69
561,24	1294,32
561,43	1247,21
561,63	1300,46
561,82	1243,12
562,02	1318,89
562,22	1224,69
562,41	1329,13
562,61	1212,40
562,80	1290,22
563,00	1200,11
563,19	1282,03
563,39	1273,84
563,59	1241,07
563,78	1294,32
563,98	1269,74
564,17	1322,99
564,37	1234,93
564,56	1320,94
564,76	1271,79
564,96	1257,45
565,15	1241,07
565,35	1302,51
565,54	1273,84
565,74	1249,26
565,93	1261,55
566,13	1218,54
566,32	1294,32
566,52	1286,12
566,71	1322,99
566,91	1357,80
567,11	1269,74
567,30	1249,26
567,50	1302,51
567,69	1222,64
567,89	1290,22
568,08	1329,13
568,28	1189,87
568,47	1275,88
568,67	1255,40
568,86	1265,64
569,06	1243,12
569,25	1294,32
569,45	1245,16
569,64	1277,93
569,84	1267,69
570,04	1228,78
570,23	1261,55
570,43	1296,36
570,62	1245,16
570,82	1306,60
571,01	1255,40
571,21	1298,41
571,40	1316,84
571,60	1271,79
571,79	1296,36
571,99	1300,46
572,18	1302,51
572,38	1230,83
572,57	1232,88
572,77	1263,60
572,96	1300,46
573,16	1320,94
573,35	1265,64
573,55	1359,85
573,74	1159,15
573,94	1247,21
574,13	1259,50
574,33	1304,56
574,52	1239,02
574,71	1279,98
574,91	1286,12
575,10	1249,26
575,30	1271,79
575,49	1273,84
575,69	1212,40
575,88	1318,89
576,08	1200,11
576,27	1331,18
576,47	1247,21
576,66	1218,54
576,86	1312,75
577,05	1249,26
577,25	1331,18
577,44	1343,47
577,64	1302,51
577,83	1253,36
578,02	1306,60
578,22	1218,54
578,41	1189,87
578,61	1251,31
578,80	1206,25
579,00	1304,56
579,19	1310,70
579,39	1361,90
579,58	1243,12
579,77	1234,93
579,97	1224,69
580,16	1300,46
580,36	1312,75
580,55	1247,21
580,75	1288,17
580,94	1245,16
581,13	1228,78
581,33	1236,97
581,52	1312,75
581,72	1345,52
581,91	1249,26
582,11	1226,73
582,30	1282,03
582,49	1202,16
582,69	1257,45
582,88	1269,74
583,08	1275,88
583,27	1306,60
583,47	1247,21
583,66	1275,88
583,85	1271,79
584,05	1196,01
584,24	1292,27
584,44	1288,17
584,63	1177,58
584,82	1366,00
585,02	1312,75
585,21	1374,19
585,41	1159,15
585,60	1239,02
585,79	1279,98
585,99	1314,80
586,18	1210,35
586,37	1247,21
586,57	1282,03
586,76	1267,69
586,96	1304,56
587,15	1269,74
587,34	1292,27
587,54	1279,98
587,73	1286,12
587,93	1277,93
588,12	1302,51
588,31	1200,11
588,51	1304,56
588,70	1284,08
588,89	1314,80
589,09	1282,03
589,28	1339,37
589,47	1239,02
589,67	1339,37
589,86	1286,12
590,06	1343,47
590,25	1296,36
590,44	1368,04
590,64	1251,31
590,83	1318,89
591,02	1325,04
591,22	1335,28
591,41	1273,84
591,60	1267,69
591,80	1339,37
591,99	1329,13
592,18	1220,59
592,38	1157,10
592,57	1306,60
592,76	1232,88
592,96	1261,55
593,15	1337,32
593,34	1318,89
593,54	1257,45
593,73	1300,46
593,92	1243,12
594,12	1351,66
594,31	1296,36
594,50	1259,50
594,70	1216,49
594,89	1222,64
595,08	1312,75
595,28	1316,84
595,47	1286,12
595,66	1146,86
595,86	1302,51
596,05	1320,94
596,24	1220,59
596,43	1277,93
596,63	1296,36
596,82	1206,25
597,01	1243,12
597,21	1286,12
597,40	1214,45
597,59	1226,73
597,79	1214,45
597,98	1312,75
598,17	1286,12
598,36	1257,45
598,56	1286,12
598,75	1265,64
598,94	1259,50
599,14	1339,37
599,33	1259,50
599,52	1284,08
599,71	1271,79
599,91	1236,97
600,10	1304,56
600,29	1269,74
600,48	1284,08
600,68	1304,56
600,87	1275,88
601,06	1271,79
601,26	1257,45
601,45	1290,22
601,64	1243,12
601,83	1288,17
602,03	1277,93
602,22	1296,36
602,41	1241,07
602,60	1333,23
602,80	1341,42
602,99	1343,47
603,18	1277,93
603,37	1265,64
603,57	1300,46
603,76	1269,74
603,95	1267,69
604,14	1284,08
604,34	1222,64
604,53	1343,47
604,72	1251,31
604,91	1230,83
605,10	1298,41
605,30	1245,16
605,49	1210,35
605,68	1306,60
605,87	1251,31
606,07	1241,07
606,26	1314,80
606,45	1265,64
606,64	1204,21
606,84	1269,74
607,03	1206,25
607,22	1304,56
607,41	1277,93
607,60	1296,36
607,80	1243,12
607,99	1206,25
608,18	1290,22
608,37	1349,61
608,56	1257,45
608,76	1339,37
608,95	1206,25
609,14	1279,98
609,33	1302,51
609,52	1331,18
609,72	1261,55
609,91	1259,50
610,10	1347,56
610,29	1322,99
610,48	1316,84
610,68	1339,37
610,87	1265,64
611,06	1394,67
611,25	1181,68
611,44	1308,65
611,63	1288,17
611,83	1273,84
612,02	1359,85
612,21	1308,65
612,40	1222,64
612,59	1257,45
612,79	1257,45
612,98	1253,36
613,17	1263,60
613,36	1298,41
613,55	1265,64
613,74	1286,12
613,93	1288,17
614,13	1263,60
614,32	1335,28
614,51	1249,26
614,70	1265,64
614,89	1247,21
615,08	1241,07
615,28	1265,64
615,47	1335,28
615,66	1308,65
615,85	1234,93
616,04	1255,40
616,23	1243,12
616,42	1288,17
616,62	1339,37
616,81	1298,41
617,00	1290,22
617,19	1318,89
617,38	1249,26
617,57	1269,74
617,76	1249,26
617,95	1312,75
618,15	1310,70
618,34	1300,46
618,53	1271,79
618,72	1288,17
618,91	1353,71
619,10	1267,69
619,29	1359,85
619,48	1282,03
619,68	1222,64
619,87	1245,16
620,06	1290,22
620,25	1292,27
620,44	1241,07
620,63	1290,22
620,82	1185,77
621,01	1247,21
621,20	1284,08
621,39	1263,60
621,59	1282,03
621,78	1353,71
621,97	1271,79
622,16	1302,51
622,35	1279,98
622,54	1296,36
622,73	1279,98
622,92	1214,45
623,11	1286,12
623,30	1288,17
623,49	1230,83
623,68	1275,88
623,88	1265,64
624,07	1284,08
624,26	1302,51
624,45	1243,12
624,64	1265,64
624,83	1269,74
625,02	1335,28
625,21	1257,45
625,40	1286,12
625,59	1306,60
625,78	1329,13
625,97	1253,36
626,16	1251,31
626,35	1355,76
626,54	1308,65
626,74	1282,03
626,93	1331,18
627,12	1239,02
627,31	1294,32
627,50	1290,22
627,69	1288,17
627,88	1318,89
628,07	1314,80
628,26	1351,66
628,45	1261,55
628,64	1298,41
628,83	1232,88
629,02	1279,98
629,21	1284,08
629,40	1310,70
629,59	1251,31
629,78	1267,69
629,97	1196,01
630,16	1304,56
630,35	1286,12
630,54	1339,37
630,73	1255,40
630,92	1329,13
631,11	1400,81
631,30	1263,60
631,49	1355,76
631,68	1329,13
631,87	1458,15
632,06	1869,80
632,25	1529,83
632,44	1634,28
632,63	1961,95
632,82	2211,81
633,01	5183,41
633,20	4872,12
633,39	3866,56
633,58	2074,59
633,77	2582,49
633,96	5099,44
634,15	6657,95
634,34	5613,48
634,53	3946,44
634,72	2502,62
634,91	1998,82
635,10	1554,41
635,29	1490,92
635,48	1554,41
635,67	1511,40
635,86	1370,09
636,05	1409,00
636,24	1394,67
636,43	1359,85
636,62	1357,80
636,81	1327,08
637,00	1279,98
637,19	1376,24
637,38	1329,13
637,57	1345,52
637,76	1368,04
637,95	1347,56
638,14	1265,64
638,33	1312,75
638,52	1290,22
638,71	1322,99
638,89	1339,37
639,08	1290,22
639,27	1284,08
639,46	1230,83
639,65	1286,12
639,84	1232,88
640,03	1300,46
640,22	1329,13
640,41	1257,45
640,60	1245,16
640,79	1249,26
640,98	1320,94
641,17	1325,04
641,36	1222,64
641,55	1255,40
641,74	1204,21
641,92	1353,71
642,11	1249,26
642,30	1304,56
642,49	1253,36
642,68	1212,40
642,87	1279,98
643,06	1247,21
643,25	1218,54
643,44	1298,41
643,63	1331,18
643,82	1318,89
644,00	1300,46
644,19	1230,83
644,38	1290,22
644,57	1267,69
644,76	1294,32
644,95	1232,88
645,14	1304,56
645,33	1310,70
645,52	1245,16
645,71	1239,02
645,89	1257,45
646,08	1288,17
646,27	1277,93
646,46	1322,99
646,65	1298,41
646,84	1306,60
647,03	1216,49
647,22	1253,36
647,40	1290,22
647,59	1273,84
647,78	1239,02
647,97	1251,31
648,16	1179,63
648,35	1245,16
648,54	1304,56
648,73	1333,23
648,91	1286,12
649,10	1277,93
649,29	1241,07
649,48	1245,16
649,67	1243,12
649,86	1214,45
650,05	1249,26
650,23	1181,68
650,42	1273,84
650,61	1279,98
650,80	1314,80
650,99	1230,83
651,18	1294,32
651,36	1286,12
651,55	1298,41
651,74	1325,04
651,93	1298,41
652,12	1279,98
652,31	1316,84
652,49	1292,27
652,68	1230,83
652,87	1284,08
653,06	1257,45
653,25	1349,61
653,44	1216,49
653,62	1298,41
653,81	1251,31
654,00	1296,36
654,19	1310,70
654,38	1259,50
654,56	1222,64
654,75	1273,84
654,94	1243,12
655,13	1322,99
655,32	1277,93
655,51	1320,94
655,69	1339,37
655,88	1265,64
656,07	1249,26
656,26	1222,64
656,45	1263,60
656,63	1220,59
656,82	1271,79
657,01	1288,17
657,20	1271,79
657,38	1243,12
657,57	1239,02
657,76	1300,46
657,95	1187,82
658,14	1286,12
658,32	1263,60
658,51	1241,07
658,70	1228,78
658,89	1290,22
659,08	1275,88
659,26	1277,93
659,45	1273,84
659,64	1241,07
659,83	1259,50
660,01	1193,97
660,20	1263,60
660,39	1253,36
660,58	1318,89
660,76	1312,75
660,95	1275,88
661,14	1304,56
661,33	1288,17
661,51	1216,49
661,70	1320,94
661,89	1288,17
662,08	1214,45
662,26	1255,40
662,45	1224,69
662,64	1288,17
662,83	1228,78
663,01	1304,56
663,20	1269,74
663,39	1320,94
663,58	1271,79
663,76	1306,60
663,95	1277,93
664,14	1265,64
664,32	1273,84
664,51	1292,27
664,70	1208,30
664,89	1261,55
665,07	1314,80
665,26	1247,21
665,45	1296,36
665,64	1310,70
665,82	1243,12
666,01	1282,03
666,20	1298,41
666,38	1259,50
666,57	1253,36
666,76	1292,27
666,95	1263,60
667,13	1239,02
667,32	1216,49
667,51	1259,50
667,69	1390,57
667,88	1335,28
668,07	1251,31
668,25	1263,60
668,44	1226,73
668,63	1243,12
668,81	1294,32
669,00	1306,60
669,19	1284,08
669,38	1175,53
669,56	1298,41
669,75	1269,74
669,94	1261,55
670,12	1282,03
670,31	1314,80
670,50	1343,47
670,68	1263,60
670,87	1271,79
671,06	1284,08
671,24	1269,74
671,43	1247,21
671,62	1212,40
671,80	1292,27
671,99	1259,50
672,18	1216,49
672,36	1247,21
672,55	1288,17
672,74	1226,73
672,92	1337,32
673,11	1304,56
673,29	1275,88
673,48	1259,50
673,67	1220,59
673,85	1189,87
674,04	1247,21
674,23	1265,64
674,41	1312,75
674,60	1239,02
674,79	1257,45
674,97	1335,28
675,16	1279,98
675,34	1273,84
675,53	1236,97
675,72	1261,55
675,90	1275,88
676,09	1263,60
676,28	1345,52
676,46	1273,84
676,65	1265,64
676,83	1263,60
677,02	1282,03
677,21	1275,88
677,39	1288,17
677,58	1265,64
677,77	1269,74
677,95	1282,03
678,14	1243,12
678,32	1312,75
678,51	1286,12
678,70	1298,41
678,88	1253,36
679,07	1296,36
679,25	1224,69
679,44	1277,93
679,63	1228,78
679,81	1255,40
680,00	1257,45
680,18	1314,80
680,37	1333,23
680,55	1200,11
680,74	1267,69
680,93	1310,70
681,11	1310,70
681,30	1251,31
681,48	1294,32
681,67	1282,03
681,85	1312,75
682,04	1255,40
682,23	1210,35
682,41	1298,41
682,60	1220,59
682,78	1302,51
682,97	1273,84
683,15	1290,22
683,34	1298,41
683,53	1230,83
683,71	1253,36
683,90	1308,65
684,08	1284,08
684,27	1226,73
684,45	1288,17
684,64	1298,41
684,82	1308,65
685,01	1230,83
685,19	1294,32
685,38	1257,45
685,57	1320,94
685,75	1316,84
685,94	1277,93
686,12	1304,56
686,31	1257,45
686,49	1290,22
686,68	1359,85
686,86	1263,60
687,05	1234,93
687,23	1271,79
687,42	1308,65
687,60	1263,60
687,79	1255,40
687,97	1320,94
688,16	1282,03
688,34	1253,36
688,53	1198,06
688,71	1277,93
688,90	1298,41
689,08	1294,32
689,27	1232,88
689,45	1277,93
689,64	1298,41
689,82	1279,98
690,01	1263,60
690,19	1230,83
690,38	1224,69
690,56	1294,32
690,75	1271,79
690,93	1318,89
691,12	1290,22
691,30	1257,45
691,49	1255,40
691,67	1263,60
691,86	1261,55
692,04	1267,69
692,23	1230,83
692,41	1243,12
692,60	1275,88
692,78	1241,07
692,97	1232,88
693,15	1310,70
693,34	1253,36
693,52	1232,88
693,71	1261,55
693,89	1312,75
694,08	1331,18
694,26	1314,80
694,44	1222,64
694,63	1331,18
694,81	1267,69
695,00	1318,89
695,18	1263,60
695,37	1261,55
695,55	1204,21
695,74	1251,31
695,92	1249,26
696,10	1277,93
696,29	1290,22
696,47	1409,00
696,66	1325,04
696,84	1214,45
697,03	1245,16
697,21	1316,84
697,40	1277,93
697,58	1304,56
697,76	1318,89
697,95	1245,16
698,13	1271,79
698,32	1269,74
698,50	1273,84
698,68	1279,98
698,87	1228,78
699,05	1241,07
699,24	1257,45
699,42	1298,41
699,61	1206,25
699,79	1322,99
699,97	1282,03
700,16	1318,89
700,34	1247,21
700,53	1265,64
700,71	1214,45
700,89	1300,46
701,08	1265,64
701,26	1277,93
701,45	1241,07
701,63	1304,56
701,81	1234,93
702,00	1196,01
702,18	1255,40
702,37	1230,83
702,55	1275,88
702,73	1191,92
702,92	1243,12
703,10	1327,08
703,28	1239,02
703,47	1316,84
703,65	1320,94
703,84	1304,56
704,02	1298,41
704,20	1290,22
704,39	1249,26
704,57	1298,41
704,75	1275,88
704,94	1257,45
705,12	1263,60
705,30	1282,03
705,49	1255,40
705,67	1275,88
705,86	1273,84
706,04	1343,47
706,22	1228,78
706,41	1255,40
706,59	1273,84
706,77	1249,26
706,96	1273,84
707,14	1222,64
707,32	1263,60
707,51	1222,64
707,69	1322,99
707,87	1241,07
708,06	1316,84
708,24	1333,23
708,42	1269,74
708,61	1314,80
708,79	1241,07
708,97	1249,26
709,16	1296,36
709,34	1257,45
709,52	1191,92
709,71	1306,60
709,89	1236,97
710,07	1222,64
710,26	1226,73
710,44	1288,17
710,62	1337,32
710,80	1273,84
710,99	1279,98
711,17	1282,03
711,35	1288,17
711,54	1249,26
711,72	1249,26
711,90	1306,60
712,09	1333,23
712,27	1386,47
712,45	1261,55
712,63	1271,79
712,82	1261,55
713,00	1271,79
713,18	1312,75
713,37	1288,17
713,55	1288,17
713,73	1243,12
713,91	1296,36
714,10	1292,27
714,28	1263,60
714,46	1220,59
714,65	1241,07
714,83	1263,60
715,01	1243,12
715,19	1316,84
715,38	1275,88
715,56	1302,51
715,74	1255,40
715,92	1273,84
716,11	1247,21
716,29	1320,94
716,47	1255,40
716,65	1275,88
716,84	1306,60
717,02	1284,08
717,20	1312,75
717,38	1267,69
717,57	1308,65
717,75	1247,21
717,93	1349,61
718,11	1243,12
718,30	1220,59
718,48	1284,08
718,66	1277,93
718,84	1288,17
719,03	1275,88
719,21	1234,93
719,39	1275,88
719,57	1234,93
719,75	1265,64
719,94	1226,73
720,12	1273,84
720,30	1284,08
720,48	1292,27
720,67	1286,12
720,85	1251,31
721,03	1261,55
721,21	1247,21
721,39	1226,73
721,58	1202,16
721,76	1247,21
721,94	1277,93
722,12	1257,45
722,30	1226,73
722,49	1359,85
722,67	1325,04
722,85	1271,79
723,03	1294,32
723,21	1286,12
723,40	1290,22
723,58	1304,56
723,76	1298,41
723,94	1243,12
724,12	1230,83
724,30	1312,75
724,49	1269,74
724,67	1273,84
724,85	1230,83
725,03	1273,84
725,21	1273,84
725,40	1337,32
725,58	1257,45
725,76	1255,40
725,94	1279,98
726,12	1277,93
726,30	1241,07
726,49	1214,45
726,67	1273,84
726,85	1282,03
727,03	1259,50
727,21	1343,47
727,39	1294,32
727,57	1273,84
727,76	1241,07
727,94	1214,45
728,12	1212,40
728,30	1273,84
728,48	1288,17
728,66	1255,40
728,84	1320,94
729,03	1255,40
729,21	1288,17
729,39	1339,37
729,57	1271,79
729,75	1308,65
729,93	1273,84
730,11	1210,35
730,30	1279,98
730,48	1282,03
730,66	1228,78
730,84	1236,97
731,02	1318,89
731,20	1304,56
731,38	1271,79
731,56	1204,21
731,74	1282,03
731,93	1220,59
732,11	1249,26
732,29	1230,83
732,47	1300,46
732,65	1222,64
732,83	1341,42
733,01	1241,07
733,19	1234,93
733,37	1320,94
733,56	1273,84
733,74	1277,93
733,92	1185,77
734,10	1261,55
734,28	1310,70
734,46	1282,03
734,64	1255,40
734,82	1306,60
735,00	1208,30
735,18	1312,75
735,36	1294,32
735,54	1302,51
735,73	1230,83
735,91	1310,70
736,09	1337,32
736,27	1212,40
736,45	1187,82
736,63	1236,97
736,81	1288,17
736,99	1251,31
737,17	1294,32
737,35	1366,00
737,53	1271,79
737,71	1255,40
737,89	1357,80
738,07	1296,36
738,25	1306,60
738,43	1218,54
738,61	1236,97
738,80	1253,36
738,98	1290,22
739,16	1282,03
739,34	1308,65
739,52	1228,78
739,70	1279,98
739,88	1322,99
740,06	1220,59
740,24	1318,89
740,42	1249,26
740,60	1228,78
740,78	1243,12
740,96	1263,60
741,14	1140,72
741,32	1220,59
741,50	1288,17
741,68	1251,31
741,86	1243,12
742,04	1230,83
742,22	1290,22
742,40	1282,03
742,58	1247,21
742,76	1288,17
742,94	1302,51
743,12	1288,17
743,30	1226,73
743,48	1228,78
743,66	1265,64
743,84	1206,25
744,02	1193,97
744,20	1228,78
744,38	1275,88
744,56	1273,84
744,74	1335,28
744,92	1263,60
745,10	1294,32
745,28	1232,88
745,46	1288,17
745,64	1279,98
745,82	1273,84
746,00	1290,22
746,18	1257,45
746,36	1279,98
746,54	1234,93
746,72	1349,61
746,90	1288,17
747,08	1359,85
747,26	1300,46
747,44	1282,03
747,62	1343,47
747,80	1249,26
747,98	1310,70
748,15	1261,55
748,33	1247,21
748,51	1292,27
748,69	1271,79
748,87	1282,03
749,05	1245,16
749,23	1218,54
749,41	1286,12
749,59	1273,84
749,77	1339,37
749,95	1239,02
750,13	1228,78
750,31	1269,74
750,49	1296,36
750,67	1302,51
750,85	1312,75
751,03	1292,27
751,20	1263,60
751,38	1329,13
751,56	1243,12
751,74	1226,73
751,92	1218,54
752,10	1253,36
752,28	1308,65
752,46	1329,13
752,64	1325,04
752,82	1255,40
753,00	1257,45
753,18	1249,26
753,35	1304,56
753,53	1224,69
753,71	1329,13
753,89	1200,11
754,07	1282,03
754,25	1259,50
754,43	1286,12
754,61	1343,47
754,79	1312,75
754,97	1265,64
755,14	1224,69
755,32	1202,16
755,50	1257,45
755,68	1261,55
755,86	1228,78
756,04	1277,93
756,22	1290,22
756,40	1279,98
756,57	1232,88
756,75	1214,45
756,93	1284,08
757,11	1347,56
757,29	1271,79
757,47	1253,36
757,65	1232,88
757,82	1294,32
758,00	1257,45
758,18	1245,16
758,36	1282,03
758,54	1273,84
758,72	1298,41
758,90	1374,19
759,07	1261,55
759,25	1232,88
759,43	1259,50
759,61	1271,79
759,79	1376,24
759,97	1277,93
760,15	1257,45
760,32	1222,64
760,50	1257,45
760,68	1282,03
760,86	1294,32
761,04	1304,56
761,22	1347,56
761,39	1314,80
761,57	1236,97
761,75	1269,74
761,93	1361,90
762,11	1208,30
762,28	1243,12
762,46	1282,03
762,64	1257,45
762,82	1263,60
763,00	1310,70
763,18	1286,12
763,35	1257,45
763,53	1329,13
763,71	1247,21
763,89	1279,98
764,07	1273,84
764,24	1239,02
764,42	1327,08
764,60	1286,12
764,78	1304,56
764,96	1277,93
765,13	1271,79
765,31	1267,69
765,49	1267,69
765,67	1236,97
765,84	1331,18
766,02	1355,76
766,20	1316,84
766,38	1251,31
766,56	1222,64
766,73	1249,26
766,91	1218,54
767,09	1241,07
767,27	1249,26
767,44	1253,36
767,62	1312,75
767,80	1259,50
767,98	1314,80
768,15	1296,36
768,33	1247,21
768,51	1345,52
768,69	1232,88
768,87	1253,36
769,04	1312,75
769,22	1226,73
769,40	1275,88
769,58	1322,99
769,75	1249,26
769,93	1282,03
770,11	1236,97
770,28	1243,12
770,46	1247,21
770,64	1269,74
770,82	1273,84
770,99	1216,49
771,17	1275,88
771,35	1282,03
771,53	1312,75
771,70	1300,46
771,88	1271,79
772,06	1314,80
772,23	1224,69
772,41	1320,94
772,59	1243,12
772,77	1370,09
772,94	1257,45
773,12	1296,36
773,30	1277,93
773,47	1331,18
773,65	1257,45
773,83	1179,63
774,01	1302,51
774,18	1179,63
774,36	1255,40
774,54	1214,45
774,71	1257,45
774,89	1241,07
775,07	1265,64
775,24	1263,60
775,42	1273,84
775,60	1253,36
775,78	1214,45
775,95	1239,02
776,13	1337,32
776,31	1208,30
776,48	1286,12
776,66	1322,99
776,84	1241,07
777,01	1282,03
777,19	1267,69
777,37	1218,54
777,54	1261,55
777,72	1290,22
777,90	1271,79
778,07	1277,93
778,25	1308,65
778,43	1314,80
778,60	1279,98
778,78	1243,12
778,96	1282,03
779,13	1308,65
779,31	1296,36
779,49	1298,41
779,66	1228,78
779,84	1288,17
780,01	1294,32
780,19	1298,41
780,37	1230,83
780,54	1261,55
780,72	1275,88
780,90	1232,88
781,07	1200,11
781,25	1296,36
781,43	1179,63
781,60	1333,23
781,78	1228,78
781,95	1234,93
782,13	1255,40
782,31	1325,04
782,48	1261,55
782,66	1243,12
782,83	1263,60
783,01	1312,75
783,19	1282,03
783,36	1294,32
783,54	1259,50
783,72	1288,17
783,89	1267,69
784,07	1265,64
784,24	1327,08
784,42	1302,51
784,60	1263,60
784,77	1257,45
784,95	1234,93
785,12	1212,40
785,30	1275,88
785,47	1286,12
785,65	1259,50
785,83	1298,41
786,00	1306,60
786,18	1298,41
786,35	1261,55
786,53	1314,80
786,71	1239,02
786,88	1288,17
787,06	1275,88
787,23	1277,93
787,41	1284,08
787,58	1263,60
787,76	1292,27
787,94	1249,26
788,11	1255,40
788,29	1220,59
788,46	1253,36
788,64	1329,13
788,81	1353,71
788,99	1318,89
789,16	1236,97
789,34	1296,36
789,52	1302,51
789,69	1302,51
789,87	1331,18
790,04	1306,60
790,22	1228,78
790,39	1200,11
790,57	1378,28
790,74	1267,69
790,92	1245,16
791,09	1214,45
791,27	1304,56
791,44	1284,08
791,62	1290,22
791,79	1222,64
791,97	1333,23
792,15	1314,80
792,32	1245,16
792,50	1306,60
792,67	1284,08
792,85	1198,06
793,02	1226,73
793,20	1261,55
793,37	1372,14
793,55	1267,69
793,72	1224,69
793,90	1296,36
794,07	1339,37
794,25	1155,05
794,42	1279,98
794,60	1222,64
794,77	1259,50
794,95	1255,40
795,12	1210,35
795,30	1267,69
795,47	1196,01
795,65	1298,41
795,82	1236,97
796,00	1226,73
796,17	1222,64
796,34	1331,18
796,52	1277,93
796,69	1210,35
796,87	1292,27
797,04	1275,88
797,22	1325,04
797,39	1286,12
797,57	1261,55
797,74	1247,21
797,92	1282,03
798,09	1284,08
798,27	1339,37
798,44	1247,21
798,62	1241,07
798,79	1316,84
798,96	1214,45
799,14	1292,27
799,31	1275,88
799,49	1263,60
799,66	1351,66
799,84	1200,11
800,01	1263,60
800,19	1279,98
800,36	1257,45
800,53	1288,17
800,71	1220,59
800,88	1298,41
801,06	1306,60
801,23	1261,55
801,41	1308,65
801,58	1259,50
801,75	1290,22
801,93	1273,84
802,10	1210,35
802,28	1310,70
802,45	1318,89
802,63	1312,75
802,80	1292,27
802,97	1347,56
803,15	1286,12
803,32	1214,45
803,50	1282,03
803,67	1249,26
803,84	1263,60
804,02	1243,12
804,19	1288,17
804,37	1222,64
804,54	1333,23
804,71	1294,32
804,89	1241,07
805,06	1257,45
805,24	1206,25
805,41	1200,11
805,58	1249,26
805,76	1329,13
805,93	1265,64
806,10	1304,56
806,28	1271,79
806,45	1269,74
806,63	1322,99
806,80	1257,45
806,97	1259,50
807,15	1191,92
807,32	1275,88
807,49	1300,46
807,67	1271,79
807,84	1320,94
808,01	1265,64
808,19	1314,80
808,36	1265,64
808,54	1259,50
808,71	1275,88
808,88	1222,64
809,06	1275,88
809,23	1243,12
809,40	1269,74
809,58	1277,93
809,75	1269,74
809,92	1308,65
810,10	1290,22
810,27	1290,22
810,44	1327,08
810,62	1269,74
810,79	1243,12
810,96	1294,32
811,14	1284,08
811,31	1277,93
811,48	1259,50
811,66	1220,59
811,83	1261,55
812,00	1355,76
812,18	1310,70
812,35	1304,56
812,52	1265,64
812,69	1267,69
812,87	1298,41
813,04	1355,76
813,21	1282,03
813,39	1265,64
813,56	1261,55
813,73	1345,52
813,91	1228,78
814,08	1210,35
814,25	1232,88
814,42	1298,41
814,60	1214,45
814,77	1216,49
814,94	1232,88
815,12	1296,36
815,29	1267,69
815,46	1337,32
815,63	1339,37
815,81	1275,88
815,98	1257,45
816,15	1263,60
816,33	1216,49
816,50	1232,88
816,67	1265,64
816,84	1298,41
817,02	1263,60
817,19	1390,57
817,36	1302,51
817,53	1286,12
817,71	1337,32
817,88	1220,59
818,05	1302,51
818,22	1275,88
818,40	1310,70
818,57	1243,12
818,74	1249,26
818,91	1251,31
819,09	1286,12
819,26	1243,12
819,43	1257,45
819,60	1288,17
819,78	1335,28
819,95	1279,98
820,12	1275,88
820,29	1322,99
820,47	1245,16
820,64	1304,56
820,81	1220,59
820,98	1243,12
821,15	1273,84
821,33	1232,88
821,50	1263,60
821,67	1208,30
821,84	1234,93
822,02	1288,17
822,19	1218,54
822,36	1279,98
822,53	1263,60
822,70	1286,12
822,88	1279,98
823,05	1304,56
823,22	1335,28
823,39	1261,55
823,56	1214,45
823,74	1322,99
823,91	1214,45
824,08	1318,89
824,25	1222,64
824,42	1261,55
824,60	1298,41
824,77	1275,88
824,94	1253,36
825,11	1282,03
825,28	1261,55
825,45	1359,85
825,63	1214,45
825,80	1224,69
825,97	1290,22
826,14	1304,56
826,31	1302,51
826,48	1304,56
826,66	1296,36
826,83	1273,84
827,00	1234,93
827,17	1316,84
827,34	1331,18
827,51	1198,06
827,69	1267,69
827,86	1290,22
828,03	1251,31
828,20	1335,28
828,37	1212,40
828,54	1241,07
828,71	1239,02
828,89	1269,74
829,06	1284,08
829,23	1310,70
829,40	1247,21
829,57	1181,68
829,74	1296,36
829,91	1220,59
830,09	1241,07
830,26	1288,17
830,43	1253,36
830,60	1251,31
830,77	1288,17
830,94	1322,99
831,11	1327,08
831,28	1339,37
831,46	1335,28
831,63	1333,23
831,80	1245,16
831,97	1228,78
832,14	1277,93
832,31	1232,88
832,48	1257,45
832,65	1265,64
832,82	1210,35
832,99	1308,65
833,17	1286,12
833,34	1230,83
833,51	1286,12
833,68	1257,45
833,85	1279,98
834,02	1261,55
834,19	1253,36
834,36	1359,85
834,53	1290,22
834,70	1224,69
834,87	1259,50
835,04	1165,29
835,22	1343,47
835,39	1292,27
835,56	1359,85
835,73	1271,79
835,90	1325,04
836,07	1239,02
836,24	1284,08
836,41	1230,83
836,58	1284,08
836,75	1331,18
836,92	1243,12
837,09	1216,49
837,26	1202,16
837,43	1282,03
837,60	1290,22
837,77	1353,71
837,94	1300,46
838,12	1245,16
838,29	1302,51
838,46	1284,08
838,63	1310,70
838,80	1290,22
838,97	1286,12
839,14	1314,80
839,31	1312,75
839,48	1273,84
839,65	1140,72
839,82	1345,52
839,99	1284,08
840,16	1292,27
840,33	1320,94
840,50	1265,64
840,67	1255,40
840,84	1312,75
841,01	1263,60
841,18	1198,06
841,35	1196,01
841,52	1286,12
841,69	1331,18
841,86	1312,75
842,03	1261,55
842,20	1298,41
842,37	1208,30
842,54	1243,12
842,71	1310,70
842,88	1243,12
843,05	1273,84
843,22	1306,60
843,39	1218,54
843,56	1249,26
843,73	1308,65
843,90	1263,60
844,07	1273,84
844,24	1277,93
844,41	1320,94
844,58	1236,97
844,75	1316,84
844,92	1318,89
845,09	1282,03
845,26	1310,70
845,43	1230,83
845,60	1196,01
845,77	1269,74
845,94	1277,93
846,10	1306,60
846,27	1271,79
846,44	1310,70
846,61	1216,49
846,78	1290,22
846,95	1239,02
847,12	1279,98
847,29	1236,97
847,46	1298,41
847,63	1265,64
847,80	1247,21
847,97	1271,79
848,14	1284,08
848,31	1239,02
848,48	1279,98
848,65	1279,98
848,82	1341,42
848,98	1232,88
849,15	1249,26
849,32	1296,36
849,49	1236,97
849,66	1222,64
849,83	1263,60
850,00	1314,80
850,17	1304,56
850,34	1296,36
850,51	1275,88
850,68	1304,56
850,85	1226,73
851,01	1300,46
851,18	1241,07
851,35	1273,84
851,52	1191,92
851,69	1255,40
851,86	1228,78
852,03	1286,12
852,20	1304,56
852,37	1271,79
852,53	1314,80
852,70	1302,51
852,87	1202,16
853,04	1255,40
853,21	1230,83
853,38	1284,08
853,55	1306,60
853,72	1320,94
853,89	1304,56
854,05	1265,64
854,22	1294,32
854,39	1263,60
854,56	1312,75
854,73	1249,26
854,90	1275,88
855,07	1263,60
855,23	1243,12
855,40	1298,41
855,57	1261,55
855,74	1296,36
855,91	1284,08
856,08	1249,26
856,25	1216,49
856,41	1322,99
856,58	1314,80
856,75	1343,47
856,92	1265,64
857,09	1318,89
857,26	1247,21
857,42	1304,56
857,59	1282,03
857,76	1304,56
857,93	1294,32
858,10	1239,02
858,27	1257,45
858,43	1187,82
858,60	1335,28
858,77	1261,55
858,94	1220,59
859,11	1239,02
859,27	1230,83
859,44	1259,50
859,61	1222,64
859,78	1296,36
859,95	1320,94
860,12	1245,16
860,28	1263,60
860,45	1263,60
860,62	1318,89
860,79	1259,50
860,95	1261,55
861,12	1279,98
861,29	1218,54
861,46	1273,84
861,63	1279,98
861,79	1277,93
861,96	1249,26
862,13	1292,27
862,30	1239,02
862,47	1224,69
862,63	1241,07
862,80	1372,14
862,97	1259,50
863,14	1284,08
863,30	1230,83
863,47	1218,54
863,64	1302,51
863,81	1329,13
863,97	1306,60
864,14	1204,21
864,31	1259,50
864,48	1286,12
864,65	1249,26
864,81	1189,87
864,98	1314,80
865,15	1261,55
865,32	1298,41
865,48	1269,74
865,65	1220,59
865,82	1249,26
865,98	1275,88
866,15	1216,49
866,32	1322,99
866,49	1286,12
866,65	1247,21
866,82	1234,93
866,99	1239,02
867,16	1263,60
867,32	1351,66
867,49	1267,69
867,66	1322,99
867,83	1271,79
867,99	1234,93
868,16	1279,98
868,33	1277,93
868,49	1279,98
868,66	1263,60
868,83	1265,64
868,99	1234,93
869,16	1265,64
869,33	1267,69
869,50	1261,55
869,66	1189,87
869,83	1263,60
870,00	1265,64
870,16	1271,79
870,33	1273,84
870,50	1306,60
870,66	1228,78
870,83	1351,66
871,00	1230,83
871,17	1153,01
871,33	1241,07
871,50	1284,08
871,67	1200,11
871,83	1222,64
872,00	1255,40
872,17	1263,60
872,33	1249,26
872,50	1314,80
872,67	1214,45
872,83	1265,64
873,00	1230,83
873,17	1337,32
873,33	1269,74
873,50	1294,32
873,67	1294,32
873,83	1263,60
874,00	1282,03
874,16	1257,45
874,33	1269,74
874,50	1159,15
874,66	1271,79
874,83	1314,80
875,00	1247,21
875,16	1253,36
875,33	1241,07
875,50	1247,21
875,66	1232,88
875,83	1261,55
875,99	1273,84
876,16	1265,64
876,33	1226,73
876,49	1341,42
876,66	1196,01
876,83	1255,40
876,99	1314,80
877,16	1249,26
877,32	1253,36
877,49	1257,45
877,66	1296,36
877,82	1236,97
877,99	1284,08
878,15	1214,45
878,32	1339,37
878,49	1296,36
878,65	1243,12
878,82	1214,45
878,98	1290,22
879,15	1247,21
879,32	1339,37
879,48	1271,79
879,65	1245,16
879,81	1294,32
879,98	1206,25
880,15	1247,21
880,31	1282,03
880,48	1216,49
880,64	1273,84
880,81	1216,49
880,97	1279,98
881,14	1312,75
881,31	1298,41
881,47	1282,03
881,64	1312,75
881,80	1290,22
881,97	1253,36
882,13	1339,37
882,30	1308,65
882,47	1282,03
882,63	1288,17
882,80	1259,50
882,96	1265,64
883,13	1316,84
883,29	1345,52
883,46	1265,64
883,62	1294,32
883,79	1257,45
883,95	1306,60
884,12	1300,46
884,29	1200,11
884,45	1247,21
884,62	1359,85
884,78	1228,78
884,95	1310,70
885,11	1298,41
885,28	1267,69
885,44	1271,79
885,61	1212,40
885,77	1306,60
885,94	1273,84
886,10	1296,36
886,27	1218,54
886,43	1296,36
886,60	1292,27
886,76	1232,88
886,93	1247,21
887,09	1279,98
887,26	1337,32
887,42	1265,64
887,59	1322,99
887,75	1304,56
887,92	1282,03
888,08	1296,36
888,25	1300,46
888,41	1265,64
888,58	1290,22
888,74	1284,08
888,91	1206,25
>>>>>End Processed Spectral Data<<<<<
