SpectraSuite Data File
++++++++++++++++++++++++++++++++++++
Date: Sun Apr 03 17:28:34 CEST 2016
User: root
Dark Spectrum Present: No
Reference Spectrum Present: No
Number of Sampled Component Spectra: 1
Spectrometers: USB4C02835
Integration Time (usec): 10000 (USB4C02835)
Spectra Averaged: 1 (USB4C02835)
Boxcar Smoothing: 0 (USB4C02835)
Correct for Electrical Dark: No (USB4C02835)
Strobe/Lamp Enabled: No (USB4C02835)
Correct for Detector Non-linearity: No (USB4C02835)
Correct for Stray Light: No (USB4C02835)
Number of Pixels in Processed Spectrum: 3648
>>>>>Begin Processed Spectral Data<<<<<
177,47	1220,59
177,69	1220,59
177,91	1220,59
178,13	1230,83
178,36	1239,02
178,58	1322,99
178,80	1331,18
179,02	1253,36
179,24	1288,17
179,46	1271,79
179,68	1222,64
179,90	1288,17
180,13	1179,63
180,35	1179,63
180,57	1191,92
180,79	1282,03
181,01	1245,16
181,23	1318,89
181,45	1282,03
181,67	1320,94
181,90	1329,13
182,12	1290,22
182,34	1216,49
182,56	1265,64
182,78	1265,64
183,00	1267,69
183,22	1298,41
183,44	1204,21
183,66	1234,93
183,89	1210,35
184,11	1302,51
184,33	1302,51
184,55	1247,21
184,77	1314,80
184,99	1249,26
185,21	1196,01
185,43	1261,55
185,65	1245,16
185,87	1265,64
186,10	1245,16
186,32	1249,26
186,54	1187,82
186,76	1294,32
186,98	1206,25
187,20	1288,17
187,42	1265,64
187,64	1282,03
187,86	1222,64
188,08	1241,07
188,30	1218,54
188,52	1222,64
188,75	1335,28
188,97	1255,40
189,19	1232,88
189,41	1284,08
189,63	1267,69
189,85	1275,88
190,07	1218,54
190,29	1232,88
190,51	1218,54
190,73	1290,22
190,95	1243,12
191,17	1259,50
191,39	1284,08
191,61	1273,84
191,84	1290,22
192,06	1279,98
192,28	1230,83
192,50	1370,09
192,72	1273,84
192,94	1247,21
193,16	1327,08
193,38	1284,08
193,60	1236,97
193,82	1226,73
194,04	1271,79
194,26	1312,75
194,48	1218,54
194,70	1222,64
194,92	1302,51
195,14	1243,12
195,36	1290,22
195,58	1228,78
195,80	1236,97
196,02	1314,80
196,24	1271,79
196,46	1302,51
196,69	1247,21
196,91	1269,74
197,13	1325,04
197,35	1226,73
197,57	1243,12
197,79	1222,64
198,01	1282,03
198,23	1245,16
198,45	1339,37
198,67	1204,21
198,89	1263,60
199,11	1304,56
199,33	1243,12
199,55	1214,45
199,77	1273,84
199,99	1251,31
200,21	1277,93
200,43	1322,99
200,65	1216,49
200,87	1296,36
201,09	1275,88
201,31	1282,03
201,53	1236,97
201,75	1249,26
201,97	1279,98
202,19	1310,70
202,41	1236,97
202,63	1284,08
202,85	1290,22
203,07	1322,99
203,29	1308,65
203,51	1284,08
203,73	1220,59
203,95	1189,87
204,17	1294,32
204,39	1288,17
204,61	1277,93
204,83	1241,07
205,05	1322,99
205,27	1288,17
205,49	1275,88
205,71	1277,93
205,93	1275,88
206,15	1251,31
206,37	1200,11
206,59	1255,40
206,81	1275,88
207,03	1282,03
207,25	1234,93
207,47	1288,17
207,69	1302,51
207,91	1335,28
208,13	1271,79
208,34	1288,17
208,56	1298,41
208,78	1259,50
209,00	1236,97
209,22	1345,52
209,44	1245,16
209,66	1183,73
209,88	1292,27
210,10	1218,54
210,32	1239,02
210,54	1259,50
210,76	1314,80
210,98	1255,40
211,20	1279,98
211,42	1241,07
211,64	1286,12
211,86	1267,69
212,08	1251,31
212,30	1257,45
212,52	1294,32
212,74	1249,26
212,96	1304,56
213,17	1318,89
213,39	1273,84
213,61	1306,60
213,83	1259,50
214,05	1312,75
214,27	1333,23
214,49	1230,83
214,71	1290,22
214,93	1296,36
215,15	1294,32
215,37	1261,55
215,59	1269,74
215,81	1226,73
216,03	1234,93
216,24	1288,17
216,46	1259,50
216,68	1306,60
216,90	1204,21
217,12	1308,65
217,34	1206,25
217,56	1247,21
217,78	1275,88
218,00	1224,69
218,22	1249,26
218,44	1327,08
218,66	1212,40
218,87	1331,18
219,09	1345,52
219,31	1216,49
219,53	1236,97
219,75	1216,49
219,97	1243,12
220,19	1290,22
220,41	1214,45
220,63	1351,66
220,85	1257,45
221,06	1251,31
221,28	1296,36
221,50	1277,93
221,72	1234,93
221,94	1202,16
222,16	1241,07
222,38	1304,56
222,60	1220,59
222,82	1275,88
223,03	1277,93
223,25	1384,43
223,47	1222,64
223,69	1257,45
223,91	1255,40
224,13	1288,17
224,35	1286,12
224,57	1290,22
224,78	1253,36
225,00	1273,84
225,22	1222,64
225,44	1320,94
225,66	1298,41
225,88	1273,84
226,10	1331,18
226,32	1257,45
226,53	1249,26
226,75	1275,88
226,97	1277,93
227,19	1339,37
227,41	1232,88
227,63	1290,22
227,85	1279,98
228,06	1224,69
228,28	1234,93
228,50	1216,49
228,72	1267,69
228,94	1255,40
229,16	1208,30
229,37	1255,40
229,59	1290,22
229,81	1261,55
230,03	1243,12
230,25	1236,97
230,47	1288,17
230,69	1296,36
230,90	1343,47
231,12	1292,27
231,34	1277,93
231,56	1325,04
231,78	1275,88
232,00	1273,84
232,21	1308,65
232,43	1320,94
232,65	1232,88
232,87	1282,03
233,09	1241,07
233,30	1232,88
233,52	1216,49
233,74	1214,45
233,96	1282,03
234,18	1261,55
234,40	1279,98
234,61	1345,52
234,83	1300,46
235,05	1306,60
235,27	1279,98
235,49	1271,79
235,70	1257,45
235,92	1296,36
236,14	1245,16
236,36	1216,49
236,58	1263,60
236,79	1329,13
237,01	1284,08
237,23	1314,80
237,45	1279,98
237,67	1298,41
237,88	1290,22
238,10	1284,08
238,32	1230,83
238,54	1288,17
238,76	1269,74
238,97	1306,60
239,19	1179,63
239,41	1316,84
239,63	1267,69
239,85	1228,78
240,06	1286,12
240,28	1275,88
240,50	1257,45
240,72	1306,60
240,93	1222,64
241,15	1265,64
241,37	1275,88
241,59	1304,56
241,81	1306,60
242,02	1267,69
242,24	1249,26
242,46	1329,13
242,68	1230,83
242,89	1306,60
243,11	1318,89
243,33	1187,82
243,55	1247,21
243,76	1261,55
243,98	1279,98
244,20	1298,41
244,42	1279,98
244,64	1265,64
244,85	1331,18
245,07	1277,93
245,29	1298,41
245,51	1261,55
245,72	1265,64
245,94	1226,73
246,16	1247,21
246,38	1247,21
246,59	1308,65
246,81	1269,74
247,03	1146,86
247,24	1259,50
247,46	1282,03
247,68	1308,65
247,90	1320,94
248,11	1329,13
248,33	1230,83
248,55	1343,47
248,77	1218,54
248,98	1259,50
249,20	1275,88
249,42	1247,21
249,64	1247,21
249,85	1300,46
250,07	1300,46
250,29	1261,55
250,50	1294,32
250,72	1259,50
250,94	1269,74
251,16	1257,45
251,37	1327,08
251,59	1204,21
251,81	1251,31
252,02	1253,36
252,24	1294,32
252,46	1273,84
252,68	1261,55
252,89	1290,22
253,11	1216,49
253,33	1181,68
253,54	1306,60
253,76	1236,97
253,98	1179,63
254,20	1384,43
254,41	1228,78
254,63	1251,31
254,85	1308,65
255,06	1282,03
255,28	1329,13
255,50	1394,67
255,71	1409,00
255,93	1222,64
256,15	1318,89
256,36	1277,93
256,58	1257,45
256,80	1253,36
257,02	1300,46
257,23	1247,21
257,45	1286,12
257,67	1275,88
257,88	1265,64
258,10	1343,47
258,32	1255,40
258,53	1261,55
258,75	1261,55
258,97	1230,83
259,18	1267,69
259,40	1271,79
259,62	1288,17
259,83	1351,66
260,05	1222,64
260,27	1269,74
260,48	1294,32
260,70	1271,79
260,92	1263,60
261,13	1294,32
261,35	1277,93
261,57	1335,28
261,78	1206,25
262,00	1226,73
262,22	1310,70
262,43	1230,83
262,65	1243,12
262,86	1279,98
263,08	1298,41
263,30	1345,52
263,51	1327,08
263,73	1327,08
263,95	1284,08
264,16	1298,41
264,38	1222,64
264,60	1308,65
264,81	1253,36
265,03	1269,74
265,25	1216,49
265,46	1292,27
265,68	1273,84
265,89	1239,02
266,11	1214,45
266,33	1320,94
266,54	1314,80
266,76	1308,65
266,98	1279,98
267,19	1300,46
267,41	1259,50
267,62	1290,22
267,84	1298,41
268,06	1341,42
268,27	1257,45
268,49	1306,60
268,70	1214,45
268,92	1212,40
269,14	1366,00
269,35	1288,17
269,57	1257,45
269,79	1255,40
270,00	1294,32
270,22	1318,89
270,43	1296,36
270,65	1259,50
270,87	1288,17
271,08	1271,79
271,30	1275,88
271,51	1288,17
271,73	1247,21
271,95	1222,64
272,16	1269,74
272,38	1271,79
272,59	1292,27
272,81	1253,36
273,02	1325,04
273,24	1232,88
273,46	1298,41
273,67	1282,03
273,89	1349,61
274,10	1261,55
274,32	1236,97
274,54	1318,89
274,75	1251,31
274,97	1228,78
275,18	1241,07
275,40	1220,59
275,61	1239,02
275,83	1277,93
276,05	1239,02
276,26	1345,52
276,48	1275,88
276,69	1239,02
276,91	1255,40
277,12	1228,78
277,34	1357,80
277,55	1302,51
277,77	1269,74
277,99	1298,41
278,20	1253,36
278,42	1230,83
278,63	1247,21
278,85	1296,36
279,06	1249,26
279,28	1294,32
279,49	1292,27
279,71	1292,27
279,93	1292,27
280,14	1226,73
280,36	1302,51
280,57	1363,95
280,79	1257,45
281,00	1255,40
281,22	1189,87
281,43	1312,75
281,65	1288,17
281,86	1206,25
282,08	1290,22
282,29	1265,64
282,51	1220,59
282,73	1290,22
282,94	1337,32
283,16	1282,03
283,37	1251,31
283,59	1193,97
283,80	1241,07
284,02	1282,03
284,23	1261,55
284,45	1265,64
284,66	1339,37
284,88	1228,78
285,09	1267,69
285,31	1318,89
285,52	1259,50
285,74	1249,26
285,95	1275,88
286,17	1198,06
286,38	1255,40
286,60	1245,16
286,81	1300,46
287,03	1153,01
287,24	1243,12
287,46	1251,31
287,67	1216,49
287,89	1345,52
288,10	1339,37
288,32	1335,28
288,53	1210,35
288,75	1320,94
288,96	1294,32
289,18	1228,78
289,39	1183,73
289,61	1322,99
289,82	1259,50
290,04	1318,89
290,25	1241,07
290,47	1226,73
290,68	1261,55
290,90	1290,22
291,11	1234,93
291,33	1290,22
291,54	1304,56
291,76	1263,60
291,97	1290,22
292,18	1228,78
292,40	1155,05
292,61	1204,21
292,83	1282,03
293,04	1214,45
293,26	1294,32
293,47	1296,36
293,69	1224,69
293,90	1234,93
294,12	1243,12
294,33	1245,16
294,55	1253,36
294,76	1224,69
294,97	1267,69
295,19	1236,97
295,40	1269,74
295,62	1312,75
295,83	1284,08
296,05	1241,07
296,26	1302,51
296,48	1255,40
296,69	1304,56
296,90	1271,79
297,12	1273,84
297,33	1259,50
297,55	1300,46
297,76	1292,27
297,98	1279,98
298,19	1314,80
298,41	1277,93
298,62	1220,59
298,83	1251,31
299,05	1298,41
299,26	1269,74
299,48	1290,22
299,69	1257,45
299,90	1216,49
300,12	1302,51
300,33	1300,46
300,55	1318,89
300,76	1265,64
300,98	1273,84
301,19	1200,11
301,40	1222,64
301,62	1230,83
301,83	1286,12
302,05	1232,88
302,26	1181,68
302,47	1275,88
302,69	1277,93
302,90	1304,56
303,12	1275,88
303,33	1302,51
303,54	1304,56
303,76	1228,78
303,97	1257,45
304,19	1269,74
304,40	1294,32
304,61	1236,97
304,83	1220,59
305,04	1241,07
305,26	1224,69
305,47	1236,97
305,68	1304,56
305,90	1282,03
306,11	1322,99
306,33	1177,58
306,54	1273,84
306,75	1386,47
306,97	1255,40
307,18	1318,89
307,39	1245,16
307,61	1279,98
307,82	1251,31
308,04	1273,84
308,25	1271,79
308,46	1374,19
308,68	1339,37
308,89	1210,35
309,10	1298,41
309,32	1241,07
309,53	1208,30
309,74	1275,88
309,96	1230,83
310,17	1329,13
310,39	1273,84
310,60	1282,03
310,81	1335,28
311,03	1343,47
311,24	1302,51
311,45	1292,27
311,67	1304,56
311,88	1343,47
312,09	1345,52
312,31	1259,50
312,52	1253,36
312,73	1241,07
312,95	1298,41
313,16	1267,69
313,37	1155,05
313,59	1292,27
313,80	1277,93
314,01	1327,08
314,23	1226,73
314,44	1288,17
314,65	1224,69
314,87	1249,26
315,08	1302,51
315,29	1222,64
315,51	1292,27
315,72	1220,59
315,93	1337,32
316,15	1251,31
316,36	1267,69
316,57	1290,22
316,79	1232,88
317,00	1300,46
317,21	1269,74
317,43	1212,40
317,64	1245,16
317,85	1216,49
318,07	1251,31
318,28	1232,88
318,49	1208,30
318,70	1267,69
318,92	1259,50
319,13	1269,74
319,34	1269,74
319,56	1282,03
319,77	1239,02
319,98	1288,17
320,20	1306,60
320,41	1257,45
320,62	1273,84
320,83	1226,73
321,05	1263,60
321,26	1257,45
321,47	1263,60
321,69	1296,36
321,90	1255,40
322,11	1314,80
322,32	1247,21
322,54	1320,94
322,75	1277,93
322,96	1271,79
323,18	1257,45
323,39	1337,32
323,60	1320,94
323,81	1341,42
324,03	1249,26
324,24	1243,12
324,45	1290,22
324,66	1320,94
324,88	1292,27
325,09	1271,79
325,30	1216,49
325,52	1261,55
325,73	1271,79
325,94	1337,32
326,15	1265,64
326,37	1239,02
326,58	1298,41
326,79	1282,03
327,00	1265,64
327,22	1212,40
327,43	1224,69
327,64	1302,51
327,85	1320,94
328,07	1247,21
328,28	1263,60
328,49	1282,03
328,70	1243,12
328,92	1193,97
329,13	1296,36
329,34	1282,03
329,55	1341,42
329,76	1290,22
329,98	1212,40
330,19	1320,94
330,40	1230,83
330,61	1206,25
330,83	1224,69
331,04	1275,88
331,25	1263,60
331,46	1218,54
331,68	1236,97
331,89	1216,49
332,10	1306,60
332,31	1261,55
332,52	1263,60
332,74	1259,50
332,95	1271,79
333,16	1212,40
333,37	1286,12
333,58	1247,21
333,80	1193,97
334,01	1325,04
334,22	1275,88
334,43	1253,36
334,64	1296,36
334,86	1239,02
335,07	1308,65
335,28	1327,08
335,49	1257,45
335,70	1316,84
335,92	1310,70
336,13	1298,41
336,34	1210,35
336,55	1351,66
336,76	1310,70
336,98	1245,16
337,19	1275,88
337,40	1316,84
337,61	1224,69
337,82	1251,31
338,04	1294,32
338,25	1265,64
338,46	1241,07
338,67	1314,80
338,88	1249,26
339,09	1345,52
339,31	1273,84
339,52	1255,40
339,73	1288,17
339,94	1239,02
340,15	1298,41
340,36	1282,03
340,58	1243,12
340,79	1241,07
341,00	1325,04
341,21	1284,08
341,42	1257,45
341,63	1296,36
341,85	1271,79
342,06	1273,84
342,27	1273,84
342,48	1294,32
342,69	1243,12
342,90	1247,21
343,12	1298,41
343,33	1333,23
343,54	1308,65
343,75	1257,45
343,96	1284,08
344,17	1234,93
344,38	1271,79
344,60	1337,32
344,81	1185,77
345,02	1296,36
345,23	1290,22
345,44	1277,93
345,65	1255,40
345,86	1370,09
346,07	1267,69
346,29	1290,22
346,50	1292,27
346,71	1296,36
346,92	1282,03
347,13	1290,22
347,34	1247,21
347,55	1337,32
347,76	1220,59
347,98	1257,45
348,19	1234,93
348,40	1290,22
348,61	1253,36
348,82	1284,08
349,03	1294,32
349,24	1267,69
349,45	1230,83
349,66	1263,60
349,88	1253,36
350,09	1263,60
350,30	1282,03
350,51	1308,65
350,72	1288,17
350,93	1261,55
351,14	1271,79
351,35	1292,27
351,56	1327,08
351,77	1298,41
351,99	1204,21
352,20	1286,12
352,41	1259,50
352,62	1251,31
352,83	1271,79
353,04	1239,02
353,25	1247,21
353,46	1282,03
353,67	1247,21
353,88	1236,97
354,09	1232,88
354,30	1259,50
354,52	1327,08
354,73	1308,65
354,94	1245,16
355,15	1337,32
355,36	1308,65
355,57	1282,03
355,78	1236,97
355,99	1241,07
356,20	1210,35
356,41	1279,98
356,62	1228,78
356,83	1253,36
357,04	1241,07
357,25	1251,31
357,46	1325,04
357,68	1277,93
357,89	1247,21
358,10	1263,60
358,31	1259,50
358,52	1300,46
358,73	1304,56
358,94	1273,84
359,15	1224,69
359,36	1243,12
359,57	1232,88
359,78	1273,84
359,99	1277,93
360,20	1183,73
360,41	1288,17
360,62	1312,75
360,83	1241,07
361,04	1314,80
361,25	1251,31
361,46	1288,17
361,67	1224,69
361,88	1380,33
362,09	1234,93
362,30	1222,64
362,51	1239,02
362,72	1259,50
362,93	1234,93
363,14	1267,69
363,35	1290,22
363,56	1212,40
363,78	1198,06
363,99	1288,17
364,20	1228,78
364,41	1277,93
364,62	1200,11
364,83	1279,98
365,04	1308,65
365,25	1355,76
365,46	1333,23
365,67	1265,64
365,88	1267,69
366,09	1329,13
366,30	1200,11
366,51	1333,23
366,72	1236,97
366,93	1243,12
367,14	1335,28
367,35	1292,27
367,56	1222,64
367,77	1312,75
367,98	1290,22
368,18	1273,84
368,39	1282,03
368,60	1257,45
368,81	1214,45
369,02	1230,83
369,23	1243,12
369,44	1232,88
369,65	1232,88
369,86	1253,36
370,07	1243,12
370,28	1296,36
370,49	1245,16
370,70	1355,76
370,91	1277,93
371,12	1273,84
371,33	1284,08
371,54	1357,80
371,75	1249,26
371,96	1265,64
372,17	1245,16
372,38	1251,31
372,59	1206,25
372,80	1236,97
373,01	1253,36
373,22	1302,51
373,43	1345,52
373,64	1282,03
373,85	1234,93
374,06	1265,64
374,26	1294,32
374,47	1208,30
374,68	1306,60
374,89	1216,49
375,10	1277,93
375,31	1249,26
375,52	1292,27
375,73	1241,07
375,94	1284,08
376,15	1292,27
376,36	1277,93
376,57	1290,22
376,78	1230,83
376,99	1290,22
377,20	1275,88
377,40	1257,45
377,61	1269,74
377,82	1279,98
378,03	1296,36
378,24	1245,16
378,45	1265,64
378,66	1296,36
378,87	1320,94
379,08	1245,16
379,29	1273,84
379,50	1282,03
379,71	1312,75
379,91	1316,84
380,12	1179,63
380,33	1236,97
380,54	1187,82
380,75	1329,13
380,96	1251,31
381,17	1339,37
381,38	1349,61
381,59	1320,94
381,80	1286,12
382,00	1294,32
382,21	1241,07
382,42	1310,70
382,63	1241,07
382,84	1316,84
383,05	1306,60
383,26	1288,17
383,47	1224,69
383,68	1226,73
383,88	1331,18
384,09	1241,07
384,30	1157,10
384,51	1275,88
384,72	1282,03
384,93	1261,55
385,14	1322,99
385,35	1222,64
385,55	1206,25
385,76	1277,93
385,97	1284,08
386,18	1275,88
386,39	1322,99
386,60	1284,08
386,81	1261,55
387,02	1277,93
387,22	1261,55
387,43	1255,40
387,64	1267,69
387,85	1304,56
388,06	1298,41
388,27	1296,36
388,48	1173,49
388,68	1249,26
388,89	1228,78
389,10	1314,80
389,31	1277,93
389,52	1208,30
389,73	1290,22
389,93	1239,02
390,14	1228,78
390,35	1265,64
390,56	1306,60
390,77	1210,35
390,98	1247,21
391,18	1318,89
391,39	1259,50
391,60	1286,12
391,81	1306,60
392,02	1402,86
392,23	1306,60
392,43	1286,12
392,64	1216,49
392,85	1273,84
393,06	1275,88
393,27	1279,98
393,47	1243,12
393,68	1310,70
393,89	1273,84
394,10	1329,13
394,31	1343,47
394,52	1265,64
394,72	1269,74
394,93	1275,88
395,14	1277,93
395,35	1335,28
395,56	1259,50
395,76	1241,07
395,97	1259,50
396,18	1339,37
396,39	1216,49
396,60	1327,08
396,80	1269,74
397,01	1325,04
397,22	1224,69
397,43	1267,69
397,64	1251,31
397,84	1304,56
398,05	1279,98
398,26	1208,30
398,47	1230,83
398,67	1284,08
398,88	1245,16
399,09	1284,08
399,30	1249,26
399,51	1200,11
399,71	1265,64
399,92	1271,79
400,13	1249,26
400,34	1329,13
400,54	1230,83
400,75	1298,41
400,96	1267,69
401,17	1288,17
401,37	1290,22
401,58	1302,51
401,79	1255,40
402,00	1222,64
402,21	1259,50
402,41	1333,23
402,62	1306,60
402,83	1304,56
403,04	1259,50
403,24	1263,60
403,45	1261,55
403,66	1208,30
403,87	1302,51
404,07	1312,75
404,28	1308,65
404,49	1296,36
404,70	1284,08
404,90	1222,64
405,11	1206,25
405,32	1314,80
405,52	1265,64
405,73	1314,80
405,94	1245,16
406,15	1275,88
406,35	1257,45
406,56	1249,26
406,77	1271,79
406,98	1282,03
407,18	1267,69
407,39	1327,08
407,60	1265,64
407,80	1294,32
408,01	1343,47
408,22	1290,22
408,43	1253,36
408,63	1273,84
408,84	1259,50
409,05	1265,64
409,25	1210,35
409,46	1282,03
409,67	1183,73
409,88	1267,69
410,08	1282,03
410,29	1310,70
410,50	1275,88
410,70	1267,69
410,91	1259,50
411,12	1241,07
411,32	1249,26
411,53	1220,59
411,74	1290,22
411,95	1259,50
412,15	1290,22
412,36	1318,89
412,57	1245,16
412,77	1335,28
412,98	1271,79
413,19	1335,28
413,39	1249,26
413,60	1228,78
413,81	1228,78
414,01	1257,45
414,22	1247,21
414,43	1288,17
414,63	1282,03
414,84	1298,41
415,05	1271,79
415,25	1253,36
415,46	1265,64
415,67	1255,40
415,87	1239,02
416,08	1304,56
416,29	1253,36
416,49	1298,41
416,70	1230,83
416,91	1259,50
417,11	1292,27
417,32	1273,84
417,53	1300,46
417,73	1241,07
417,94	1249,26
418,15	1257,45
418,35	1228,78
418,56	1253,36
418,77	1251,31
418,97	1216,49
419,18	1304,56
419,38	1288,17
419,59	1259,50
419,80	1263,60
420,00	1198,06
420,21	1263,60
420,42	1296,36
420,62	1282,03
420,83	1220,59
421,04	1343,47
421,24	1245,16
421,45	1288,17
421,65	1277,93
421,86	1232,88
422,07	1261,55
422,27	1230,83
422,48	1218,54
422,69	1290,22
422,89	1232,88
423,10	1390,57
423,30	1232,88
423,51	1304,56
423,72	1300,46
423,92	1314,80
424,13	1198,06
424,33	1331,18
424,54	1255,40
424,75	1265,64
424,95	1259,50
425,16	1208,30
425,36	1212,40
425,57	1271,79
425,78	1300,46
425,98	1241,07
426,19	1218,54
426,39	1263,60
426,60	1263,60
426,81	1265,64
427,01	1298,41
427,22	1325,04
427,42	1263,60
427,63	1222,64
427,83	1288,17
428,04	1265,64
428,25	1279,98
428,45	1239,02
428,66	1257,45
428,86	1284,08
429,07	1331,18
429,28	1259,50
429,48	1322,99
429,69	1253,36
429,89	1279,98
430,10	1308,65
430,30	1314,80
430,51	1308,65
430,71	1222,64
430,92	1306,60
431,13	1234,93
431,33	1320,94
431,54	1294,32
431,74	1347,56
431,95	1265,64
432,15	1296,36
432,36	1251,31
432,56	1263,60
432,77	1286,12
432,98	1325,04
433,18	1294,32
433,39	1279,98
433,59	1292,27
433,80	1308,65
434,00	1290,22
434,21	1251,31
434,41	1261,55
434,62	1241,07
434,82	1325,04
435,03	1196,01
435,23	1241,07
435,44	1269,74
435,64	1286,12
435,85	1290,22
436,06	1277,93
436,26	1282,03
436,47	1282,03
436,67	1279,98
436,88	1185,77
437,08	1249,26
437,29	1288,17
437,49	1234,93
437,70	1277,93
437,90	1265,64
438,11	1339,37
438,31	1275,88
438,52	1304,56
438,72	1255,40
438,93	1245,16
439,13	1314,80
439,34	1245,16
439,54	1288,17
439,75	1236,97
439,95	1282,03
440,16	1253,36
440,36	1253,36
440,57	1257,45
440,77	1314,80
440,98	1142,77
441,18	1316,84
441,39	1310,70
441,59	1251,31
441,80	1322,99
442,00	1234,93
442,21	1279,98
442,41	1265,64
442,62	1273,84
442,82	1220,59
443,02	1230,83
443,23	1310,70
443,43	1245,16
443,64	1214,45
443,84	1234,93
444,05	1316,84
444,25	1296,36
444,46	1290,22
444,66	1239,02
444,87	1241,07
445,07	1298,41
445,28	1245,16
445,48	1306,60
445,69	1329,13
445,89	1253,36
446,09	1245,16
446,30	1282,03
446,50	1261,55
446,71	1318,89
446,91	1279,98
447,12	1255,40
447,32	1290,22
447,53	1216,49
447,73	1288,17
447,93	1318,89
448,14	1345,52
448,34	1239,02
448,55	1249,26
448,75	1275,88
448,96	1214,45
449,16	1279,98
449,36	1241,07
449,57	1314,80
449,77	1267,69
449,98	1275,88
450,18	1275,88
450,39	1279,98
450,59	1273,84
450,79	1255,40
451,00	1261,55
451,20	1261,55
451,41	1232,88
451,61	1249,26
451,81	1318,89
452,02	1214,45
452,22	1269,74
452,43	1236,97
452,63	1189,87
452,84	1288,17
453,04	1239,02
453,24	1282,03
453,45	1286,12
453,65	1271,79
453,86	1269,74
454,06	1255,40
454,26	1230,83
454,47	1314,80
454,67	1257,45
454,87	1284,08
455,08	1277,93
455,28	1263,60
455,49	1253,36
455,69	1216,49
455,89	1218,54
456,10	1183,73
456,30	1314,80
456,51	1271,79
456,71	1339,37
456,91	1239,02
457,12	1271,79
457,32	1239,02
457,52	1265,64
457,73	1327,08
457,93	1290,22
458,14	1257,45
458,34	1267,69
458,54	1226,73
458,75	1275,88
458,95	1298,41
459,15	1290,22
459,36	1310,70
459,56	1236,97
459,76	1331,18
459,97	1333,23
460,17	1218,54
460,37	1267,69
460,58	1263,60
460,78	1269,74
460,99	1236,97
461,19	1257,45
461,39	1288,17
461,60	1288,17
461,80	1275,88
462,00	1325,04
462,21	1220,59
462,41	1239,02
462,61	1353,71
462,82	1236,97
463,02	1234,93
463,22	1322,99
463,43	1372,14
463,63	1271,79
463,83	1279,98
464,04	1298,41
464,24	1261,55
464,44	1259,50
464,64	1241,07
464,85	1320,94
465,05	1265,64
465,25	1239,02
465,46	1230,83
465,66	1341,42
465,86	1255,40
466,07	1261,55
466,27	1232,88
466,47	1230,83
466,68	1245,16
466,88	1249,26
467,08	1259,50
467,29	1277,93
467,49	1265,64
467,69	1214,45
467,89	1243,12
468,10	1239,02
468,30	1267,69
468,50	1312,75
468,71	1322,99
468,91	1263,60
469,11	1282,03
469,31	1265,64
469,52	1275,88
469,72	1241,07
469,92	1300,46
470,13	1204,21
470,33	1269,74
470,53	1245,16
470,73	1296,36
470,94	1298,41
471,14	1216,49
471,34	1220,59
471,54	1259,50
471,75	1265,64
471,95	1320,94
472,15	1220,59
472,36	1298,41
472,56	1363,95
472,76	1224,69
472,96	1345,52
473,17	1200,11
473,37	1214,45
473,57	1322,99
473,77	1200,11
473,98	1236,97
474,18	1230,83
474,38	1234,93
474,58	1263,60
474,79	1204,21
474,99	1284,08
475,19	1265,64
475,39	1206,25
475,60	1175,53
475,80	1318,89
476,00	1331,18
476,20	1310,70
476,41	1249,26
476,61	1263,60
476,81	1239,02
477,01	1261,55
477,21	1257,45
477,42	1335,28
477,62	1249,26
477,82	1284,08
478,02	1298,41
478,23	1251,31
478,43	1257,45
478,63	1218,54
478,83	1271,79
479,03	1314,80
479,24	1290,22
479,44	1267,69
479,64	1284,08
479,84	1337,32
480,04	1255,40
480,25	1312,75
480,45	1265,64
480,65	1320,94
480,85	1255,40
481,06	1249,26
481,26	1284,08
481,46	1251,31
481,66	1304,56
481,86	1236,97
482,06	1322,99
482,27	1206,25
482,47	1214,45
482,67	1271,79
482,87	1273,84
483,07	1320,94
483,28	1247,21
483,48	1259,50
483,68	1251,31
483,88	1288,17
484,08	1214,45
484,29	1239,02
484,49	1310,70
484,69	1206,25
484,89	1286,12
485,09	1245,16
485,29	1284,08
485,50	1286,12
485,70	1239,02
485,90	1249,26
486,10	1294,32
486,30	1294,32
486,50	1247,21
486,71	1265,64
486,91	1259,50
487,11	1234,93
487,31	1327,08
487,51	1230,83
487,71	1247,21
487,91	1204,21
488,12	1218,54
488,32	1220,59
488,52	1290,22
488,72	1329,13
488,92	1308,65
489,12	1226,73
489,32	1271,79
489,53	1202,16
489,73	1282,03
489,93	1292,27
490,13	1232,88
490,33	1277,93
490,53	1267,69
490,73	1314,80
490,94	1333,23
491,14	1218,54
491,34	1269,74
491,54	1322,99
491,74	1302,51
491,94	1232,88
492,14	1355,76
492,34	1318,89
492,54	1286,12
492,75	1290,22
492,95	1333,23
493,15	1259,50
493,35	1282,03
493,55	1230,83
493,75	1282,03
493,95	1224,69
494,15	1245,16
494,35	1380,33
494,56	1345,52
494,76	1261,55
494,96	1329,13
495,16	1265,64
495,36	1220,59
495,56	1236,97
495,76	1269,74
495,96	1249,26
496,16	1337,32
496,36	1267,69
496,56	1196,01
496,77	1284,08
496,97	1290,22
497,17	1290,22
497,37	1189,87
497,57	1232,88
497,77	1241,07
497,97	1230,83
498,17	1263,60
498,37	1196,01
498,57	1284,08
498,77	1282,03
498,97	1236,97
499,17	1206,25
499,38	1210,35
499,58	1294,32
499,78	1224,69
499,98	1249,26
500,18	1267,69
500,38	1175,53
500,58	1236,97
500,78	1288,17
500,98	1216,49
501,18	1310,70
501,38	1183,73
501,58	1288,17
501,78	1269,74
501,98	1220,59
502,18	1335,28
502,38	1322,99
502,58	1263,60
502,78	1271,79
502,98	1279,98
503,18	1216,49
503,38	1220,59
503,59	1341,42
503,79	1255,40
503,99	1228,78
504,19	1282,03
504,39	1230,83
504,59	1239,02
504,79	1298,41
504,99	1290,22
505,19	1279,98
505,39	1337,32
505,59	1273,84
505,79	1239,02
505,99	1224,69
506,19	1249,26
506,39	1318,89
506,59	1351,66
506,79	1222,64
506,99	1284,08
507,19	1259,50
507,39	1312,75
507,59	1320,94
507,79	1282,03
507,99	1253,36
508,19	1189,87
508,39	1267,69
508,59	1265,64
508,79	1302,51
508,99	1292,27
509,19	1286,12
509,39	1222,64
509,59	1294,32
509,79	1327,08
509,99	1275,88
510,19	1257,45
510,39	1216,49
510,59	1224,69
510,79	1286,12
510,99	1267,69
511,19	1296,36
511,39	1314,80
511,59	1304,56
511,79	1228,78
511,99	1257,45
512,19	1228,78
512,38	1257,45
512,58	1273,84
512,78	1282,03
512,98	1232,88
513,18	1288,17
513,38	1243,12
513,58	1308,65
513,78	1245,16
513,98	1359,85
514,18	1380,33
514,38	1239,02
514,58	1179,63
514,78	1347,56
514,98	1181,68
515,18	1282,03
515,38	1214,45
515,58	1282,03
515,78	1191,92
515,98	1222,64
516,18	1212,40
516,38	1271,79
516,57	1255,40
516,77	1294,32
516,97	1368,04
517,17	1263,60
517,37	1273,84
517,57	1255,40
517,77	1265,64
517,97	1239,02
518,17	1275,88
518,37	1267,69
518,57	1296,36
518,77	1304,56
518,97	1273,84
519,16	1267,69
519,36	1259,50
519,56	1339,37
519,76	1218,54
519,96	1288,17
520,16	1257,45
520,36	1277,93
520,56	1415,15
520,76	1312,75
520,96	1267,69
521,16	1187,82
521,35	1255,40
521,55	1310,70
521,75	1249,26
521,95	1314,80
522,15	1282,03
522,35	1236,97
522,55	1292,27
522,75	1206,25
522,95	1230,83
523,14	1316,84
523,34	1290,22
523,54	1300,46
523,74	1333,23
523,94	1267,69
524,14	1275,88
524,34	1335,28
524,54	1236,97
524,73	1286,12
524,93	1214,45
525,13	1269,74
525,33	1239,02
525,53	1288,17
525,73	1236,97
525,93	1169,39
526,13	1304,56
526,32	1245,16
526,52	1263,60
526,72	1277,93
526,92	1255,40
527,12	1273,84
527,32	1288,17
527,52	1320,94
527,71	1265,64
527,91	1292,27
528,11	1224,69
528,31	1310,70
528,51	1259,50
528,71	1239,02
528,90	1298,41
529,10	1333,23
529,30	1302,51
529,50	1282,03
529,70	1279,98
529,90	1257,45
530,09	1239,02
530,29	1228,78
530,49	1234,93
530,69	1189,87
530,89	1247,21
531,09	1288,17
531,28	1292,27
531,48	1257,45
531,68	1228,78
531,88	1200,11
532,08	1261,55
532,28	1239,02
532,47	1263,60
532,67	1255,40
532,87	1232,88
533,07	1243,12
533,27	1302,51
533,46	1263,60
533,66	1212,40
533,86	1271,79
534,06	1306,60
534,26	1320,94
534,45	1298,41
534,65	1243,12
534,85	1279,98
535,05	1249,26
535,25	1257,45
535,44	1304,56
535,64	1353,71
535,84	1284,08
536,04	1271,79
536,24	1226,73
536,43	1333,23
536,63	1212,40
536,83	1222,64
537,03	1277,93
537,22	1261,55
537,42	1255,40
537,62	1273,84
537,82	1267,69
538,02	1253,36
538,21	1306,60
538,41	1263,60
538,61	1290,22
538,81	1288,17
539,00	1322,99
539,20	1261,55
539,40	1327,08
539,60	1261,55
539,79	1284,08
539,99	1261,55
540,19	1251,31
540,39	1224,69
540,58	1320,94
540,78	1204,21
540,98	1288,17
541,18	1298,41
541,37	1284,08
541,57	1200,11
541,77	1251,31
541,97	1275,88
542,16	1290,22
542,36	1296,36
542,56	1282,03
542,76	1298,41
542,95	1220,59
543,15	1191,92
543,35	1249,26
543,54	1265,64
543,74	1331,18
543,94	1288,17
544,14	1273,84
544,33	1228,78
544,53	1255,40
544,73	1269,74
544,93	1294,32
545,12	1265,64
545,32	1236,97
545,52	1273,84
545,71	1282,03
545,91	1263,60
546,11	1353,71
546,30	1236,97
546,50	1304,56
546,70	1284,08
546,90	1187,82
547,09	1236,97
547,29	1292,27
547,49	1318,89
547,68	1273,84
547,88	1208,30
548,08	1249,26
548,27	1298,41
548,47	1239,02
548,67	1288,17
548,87	1245,16
549,06	1288,17
549,26	1245,16
549,46	1368,04
549,65	1300,46
549,85	1284,08
550,05	1279,98
550,24	1314,80
550,44	1222,64
550,64	1253,36
550,83	1216,49
551,03	1284,08
551,23	1273,84
551,42	1298,41
551,62	1300,46
551,82	1239,02
552,01	1255,40
552,21	1263,60
552,41	1304,56
552,60	1243,12
552,80	1226,73
553,00	1153,01
553,19	1372,14
553,39	1316,84
553,59	1341,42
553,78	1292,27
553,98	1249,26
554,17	1335,28
554,37	1261,55
554,57	1255,40
554,76	1253,36
554,96	1257,45
555,16	1363,95
555,35	1269,74
555,55	1236,97
555,75	1191,92
555,94	1222,64
556,14	1245,16
556,33	1314,80
556,53	1277,93
556,73	1269,74
556,92	1212,40
557,12	1212,40
557,32	1298,41
557,51	1327,08
557,71	1265,64
557,90	1341,42
558,10	1263,60
558,30	1312,75
558,49	1236,97
558,69	1271,79
558,88	1284,08
559,08	1282,03
559,28	1279,98
559,47	1218,54
559,67	1245,16
559,86	1325,04
560,06	1286,12
560,26	1243,12
560,45	1277,93
560,65	1230,83
560,84	1271,79
561,04	1218,54
561,24	1257,45
561,43	1263,60
561,63	1296,36
561,82	1216,49
562,02	1234,93
562,22	1279,98
562,41	1308,65
562,61	1296,36
562,80	1224,69
563,00	1306,60
563,19	1290,22
563,39	1249,26
563,59	1288,17
563,78	1261,55
563,98	1230,83
564,17	1249,26
564,37	1320,94
564,56	1302,51
564,76	1222,64
564,96	1376,24
565,15	1247,21
565,35	1241,07
565,54	1318,89
565,74	1320,94
565,93	1216,49
566,13	1271,79
566,32	1263,60
566,52	1288,17
566,71	1243,12
566,91	1314,80
567,11	1200,11
567,30	1263,60
567,50	1210,35
567,69	1208,30
567,89	1255,40
568,08	1296,36
568,28	1259,50
568,47	1292,27
568,67	1318,89
568,86	1271,79
569,06	1210,35
569,25	1282,03
569,45	1259,50
569,64	1345,52
569,84	1312,75
570,04	1290,22
570,23	1306,60
570,43	1259,50
570,62	1273,84
570,82	1269,74
571,01	1257,45
571,21	1251,31
571,40	1230,83
571,60	1284,08
571,79	1247,21
571,99	1259,50
572,18	1196,01
572,38	1298,41
572,57	1216,49
572,77	1224,69
572,96	1220,59
573,16	1253,36
573,35	1273,84
573,55	1310,70
573,74	1212,40
573,94	1333,23
574,13	1189,87
574,33	1304,56
574,52	1243,12
574,71	1312,75
574,91	1220,59
575,10	1226,73
575,30	1230,83
575,49	1322,99
575,69	1269,74
575,88	1230,83
576,08	1214,45
576,27	1265,64
576,47	1249,26
576,66	1247,21
576,86	1357,80
577,05	1273,84
577,25	1200,11
577,44	1218,54
577,64	1226,73
577,83	1298,41
578,02	1220,59
578,22	1224,69
578,41	1185,77
578,61	1253,36
578,80	1279,98
579,00	1282,03
579,19	1339,37
579,39	1265,64
579,58	1249,26
579,77	1257,45
579,97	1277,93
580,16	1343,47
580,36	1142,77
580,55	1345,52
580,75	1306,60
580,94	1316,84
581,13	1366,00
581,33	1247,21
581,52	1398,76
581,72	1329,13
581,91	1239,02
582,11	1286,12
582,30	1228,78
582,49	1257,45
582,69	1239,02
582,88	1247,21
583,08	1284,08
583,27	1273,84
583,47	1282,03
583,66	1273,84
583,85	1273,84
584,05	1273,84
584,24	1302,51
584,44	1271,79
584,63	1226,73
584,82	1253,36
585,02	1245,16
585,21	1236,97
585,41	1232,88
585,60	1316,84
585,79	1302,51
585,99	1247,21
586,18	1343,47
586,37	1282,03
586,57	1202,16
586,76	1271,79
586,96	1298,41
587,15	1290,22
587,34	1249,26
587,54	1263,60
587,73	1210,35
587,93	1337,32
588,12	1251,31
588,31	1331,18
588,51	1261,55
588,70	1243,12
588,89	1204,21
589,09	1271,79
589,28	1251,31
589,47	1282,03
589,67	1261,55
589,86	1212,40
590,06	1243,12
590,25	1196,01
590,44	1288,17
590,64	1282,03
590,83	1212,40
591,02	1165,29
591,22	1263,60
591,41	1241,07
591,60	1206,25
591,80	1304,56
591,99	1294,32
592,18	1245,16
592,38	1239,02
592,57	1279,98
592,76	1288,17
592,96	1226,73
593,15	1327,08
593,34	1271,79
593,54	1245,16
593,73	1294,32
593,92	1380,33
594,12	1247,21
594,31	1267,69
594,50	1320,94
594,70	1249,26
594,89	1353,71
595,08	1261,55
595,28	1265,64
595,47	1257,45
595,66	1259,50
595,86	1273,84
596,05	1298,41
596,24	1273,84
596,43	1228,78
596,63	1259,50
596,82	1331,18
597,01	1339,37
597,21	1298,41
597,40	1304,56
597,59	1167,34
597,79	1322,99
597,98	1257,45
598,17	1284,08
598,36	1312,75
598,56	1218,54
598,75	1226,73
598,94	1269,74
599,14	1271,79
599,33	1294,32
599,52	1239,02
599,71	1239,02
599,91	1257,45
600,10	1210,35
600,29	1263,60
600,48	1259,50
600,68	1239,02
600,87	1208,30
601,06	1337,32
601,26	1230,83
601,45	1243,12
601,64	1251,31
601,83	1243,12
602,03	1226,73
602,22	1300,46
602,41	1302,51
602,60	1308,65
602,80	1269,74
602,99	1255,40
603,18	1306,60
603,37	1308,65
603,57	1255,40
603,76	1296,36
603,95	1257,45
604,14	1306,60
604,34	1155,05
604,53	1300,46
604,72	1304,56
604,91	1259,50
605,10	1282,03
605,30	1232,88
605,49	1271,79
605,68	1314,80
605,87	1284,08
606,07	1259,50
606,26	1263,60
606,45	1310,70
606,64	1294,32
606,84	1345,52
607,03	1257,45
607,22	1310,70
607,41	1269,74
607,60	1251,31
607,80	1261,55
607,99	1277,93
608,18	1273,84
608,37	1318,89
608,56	1296,36
608,76	1267,69
608,95	1296,36
609,14	1224,69
609,33	1327,08
609,52	1374,19
609,72	1300,46
609,91	1271,79
610,10	1245,16
610,29	1222,64
610,48	1253,36
610,68	1241,07
610,87	1249,26
611,06	1286,12
611,25	1216,49
611,44	1263,60
611,63	1306,60
611,83	1261,55
612,02	1257,45
612,21	1263,60
612,40	1282,03
612,59	1239,02
612,79	1312,75
612,98	1263,60
613,17	1269,74
613,36	1320,94
613,55	1316,84
613,74	1241,07
613,93	1312,75
614,13	1247,21
614,32	1292,27
614,51	1306,60
614,70	1257,45
614,89	1216,49
615,08	1294,32
615,28	1292,27
615,47	1308,65
615,66	1341,42
615,85	1284,08
616,04	1245,16
616,23	1257,45
616,42	1236,97
616,62	1243,12
616,81	1296,36
617,00	1273,84
617,19	1259,50
617,38	1208,30
617,57	1273,84
617,76	1259,50
617,95	1230,83
618,15	1269,74
618,34	1290,22
618,53	1243,12
618,72	1337,32
618,91	1202,16
619,10	1218,54
619,29	1204,21
619,48	1208,30
619,68	1265,64
619,87	1232,88
620,06	1273,84
620,25	1294,32
620,44	1255,40
620,63	1282,03
620,82	1208,30
621,01	1226,73
621,20	1216,49
621,39	1331,18
621,59	1251,31
621,78	1279,98
621,97	1335,28
622,16	1279,98
622,35	1318,89
622,54	1251,31
622,73	1286,12
622,92	1259,50
623,11	1251,31
623,30	1277,93
623,49	1320,94
623,68	1294,32
623,88	1247,21
624,07	1239,02
624,26	1267,69
624,45	1294,32
624,64	1273,84
624,83	1255,40
625,02	1279,98
625,21	1245,16
625,40	1191,92
625,59	1267,69
625,78	1257,45
625,97	1339,37
626,16	1265,64
626,35	1339,37
626,54	1261,55
626,74	1239,02
626,93	1304,56
627,12	1318,89
627,31	1302,51
627,50	1267,69
627,69	1263,60
627,88	1304,56
628,07	1310,70
628,26	1312,75
628,45	1253,36
628,64	1329,13
628,83	1296,36
629,02	1277,93
629,21	1320,94
629,40	1273,84
629,59	1265,64
629,78	1294,32
629,97	1314,80
630,16	1218,54
630,35	1220,59
630,54	1271,79
630,73	1271,79
630,92	1310,70
631,11	1269,74
631,30	1314,80
631,49	1257,45
631,68	1386,47
631,87	1386,47
632,06	1445,87
632,25	1341,42
632,44	1361,90
632,63	1417,19
632,82	1425,39
633,01	1409,00
633,20	1361,90
633,39	1417,19
633,58	1411,05
633,77	1396,71
633,96	1460,20
634,15	1468,39
634,34	1482,73
634,53	1566,70
634,72	1452,01
634,91	1376,24
635,10	1409,00
635,29	1476,59
635,48	1656,81
635,67	1644,52
635,86	1556,46
636,05	1447,91
636,24	1472,49
636,43	1402,86
636,62	1425,39
636,81	1347,56
637,00	1271,79
637,19	1322,99
637,38	1327,08
637,57	1267,69
637,76	1320,94
637,95	1363,95
638,14	1335,28
638,33	1288,17
638,52	1253,36
638,71	1390,57
638,89	1277,93
639,08	1290,22
639,27	1312,75
639,46	1318,89
639,65	1265,64
639,84	1325,04
640,03	1380,33
640,22	1275,88
640,41	1269,74
640,60	1316,84
640,79	1294,32
640,98	1263,60
641,17	1284,08
641,36	1296,36
641,55	1261,55
641,74	1286,12
641,92	1296,36
642,11	1294,32
642,30	1298,41
642,49	1196,01
642,68	1277,93
642,87	1284,08
643,06	1267,69
643,25	1284,08
643,44	1275,88
643,63	1202,16
643,82	1351,66
644,00	1296,36
644,19	1261,55
644,38	1249,26
644,57	1290,22
644,76	1265,64
644,95	1310,70
645,14	1267,69
645,33	1306,60
645,52	1234,93
645,71	1267,69
645,89	1314,80
646,08	1191,92
646,27	1306,60
646,46	1265,64
646,65	1267,69
646,84	1273,84
647,03	1320,94
647,22	1343,47
647,40	1267,69
647,59	1245,16
647,78	1259,50
647,97	1304,56
648,16	1292,27
648,35	1329,13
648,54	1216,49
648,73	1230,83
648,91	1275,88
649,10	1372,14
649,29	1232,88
649,48	1232,88
649,67	1247,21
649,86	1298,41
650,05	1243,12
650,23	1271,79
650,42	1306,60
650,61	1220,59
650,80	1298,41
650,99	1351,66
651,18	1261,55
651,36	1288,17
651,55	1333,23
651,74	1269,74
651,93	1263,60
652,12	1232,88
652,31	1232,88
652,49	1249,26
652,68	1282,03
652,87	1185,77
653,06	1216,49
653,25	1255,40
653,44	1243,12
653,62	1406,95
653,81	1247,21
654,00	1310,70
654,19	1298,41
654,38	1275,88
654,56	1275,88
654,75	1292,27
654,94	1271,79
655,13	1259,50
655,32	1269,74
655,51	1265,64
655,69	1255,40
655,88	1337,32
656,07	1263,60
656,26	1243,12
656,45	1316,84
656,63	1300,46
656,82	1273,84
657,01	1290,22
657,20	1220,59
657,38	1204,21
657,57	1269,74
657,76	1312,75
657,95	1263,60
658,14	1296,36
658,32	1236,97
658,51	1222,64
658,70	1296,36
658,89	1255,40
659,08	1271,79
659,26	1290,22
659,45	1228,78
659,64	1236,97
659,83	1257,45
660,01	1292,27
660,20	1306,60
660,39	1257,45
660,58	1224,69
660,76	1298,41
660,95	1322,99
661,14	1232,88
661,33	1284,08
661,51	1241,07
661,70	1296,36
661,89	1222,64
662,08	1300,46
662,26	1304,56
662,45	1214,45
662,64	1343,47
662,83	1353,71
663,01	1314,80
663,20	1196,01
663,39	1286,12
663,58	1261,55
663,76	1267,69
663,95	1394,67
664,14	1208,30
664,32	1355,76
664,51	1310,70
664,70	1232,88
664,89	1247,21
665,07	1208,30
665,26	1191,92
665,45	1232,88
665,64	1241,07
665,82	1236,97
666,01	1288,17
666,20	1212,40
666,38	1296,36
666,57	1226,73
666,76	1284,08
666,95	1273,84
667,13	1202,16
667,32	1277,93
667,51	1325,04
667,69	1275,88
667,88	1261,55
668,07	1204,21
668,25	1206,25
668,44	1243,12
668,63	1318,89
668,81	1253,36
669,00	1279,98
669,19	1265,64
669,38	1263,60
669,56	1206,25
669,75	1335,28
669,94	1277,93
670,12	1261,55
670,31	1191,92
670,50	1294,32
670,68	1241,07
670,87	1222,64
671,06	1294,32
671,24	1282,03
671,43	1261,55
671,62	1312,75
671,80	1206,25
671,99	1204,21
672,18	1273,84
672,36	1210,35
672,55	1263,60
672,74	1187,82
672,92	1282,03
673,11	1288,17
673,29	1249,26
673,48	1259,50
673,67	1275,88
673,85	1224,69
674,04	1279,98
674,23	1288,17
674,41	1183,73
674,60	1187,82
674,79	1249,26
674,97	1232,88
675,16	1249,26
675,34	1286,12
675,53	1310,70
675,72	1296,36
675,90	1275,88
676,09	1310,70
676,28	1288,17
676,46	1316,84
676,65	1216,49
676,83	1292,27
677,02	1249,26
677,21	1265,64
677,39	1325,04
677,58	1306,60
677,77	1257,45
677,95	1300,46
678,14	1290,22
678,32	1314,80
678,51	1292,27
678,70	1359,85
678,88	1312,75
679,07	1384,43
679,25	1290,22
679,44	1230,83
679,63	1273,84
679,81	1314,80
680,00	1271,79
680,18	1370,09
680,37	1306,60
680,55	1249,26
680,74	1196,01
680,93	1271,79
681,11	1271,79
681,30	1290,22
681,48	1239,02
681,67	1243,12
681,85	1310,70
682,04	1249,26
682,23	1304,56
682,41	1296,36
682,60	1239,02
682,78	1241,07
682,97	1275,88
683,15	1290,22
683,34	1269,74
683,53	1296,36
683,71	1206,25
683,90	1304,56
684,08	1187,82
684,27	1337,32
684,45	1333,23
684,64	1200,11
684,82	1271,79
685,01	1259,50
685,19	1331,18
685,38	1286,12
685,57	1314,80
685,75	1269,74
685,94	1265,64
686,12	1208,30
686,31	1271,79
686,49	1269,74
686,68	1257,45
686,86	1226,73
687,05	1271,79
687,23	1308,65
687,42	1298,41
687,60	1273,84
687,79	1288,17
687,97	1361,90
688,16	1259,50
688,34	1329,13
688,53	1355,76
688,71	1263,60
688,90	1265,64
689,08	1314,80
689,27	1200,11
689,45	1322,99
689,64	1230,83
689,82	1210,35
690,01	1329,13
690,19	1277,93
690,38	1218,54
690,56	1232,88
690,75	1282,03
690,93	1312,75
691,12	1222,64
691,30	1273,84
691,49	1292,27
691,67	1296,36
691,86	1206,25
692,04	1300,46
692,23	1255,40
692,41	1263,60
692,60	1269,74
692,78	1255,40
692,97	1243,12
693,15	1286,12
693,34	1308,65
693,52	1230,83
693,71	1277,93
693,89	1263,60
694,08	1222,64
694,26	1251,31
694,44	1234,93
694,63	1245,16
694,81	1218,54
695,00	1300,46
695,18	1259,50
695,37	1279,98
695,55	1220,59
695,74	1302,51
695,92	1245,16
696,10	1294,32
696,29	1220,59
696,47	1312,75
696,66	1282,03
696,84	1269,74
697,03	1288,17
697,21	1345,52
697,40	1241,07
697,58	1273,84
697,76	1216,49
697,95	1300,46
698,13	1298,41
698,32	1288,17
698,50	1290,22
698,68	1310,70
698,87	1273,84
699,05	1271,79
699,24	1277,93
699,42	1249,26
699,61	1236,97
699,79	1230,83
699,97	1304,56
700,16	1259,50
700,34	1228,78
700,53	1222,64
700,71	1249,26
700,89	1191,92
701,08	1310,70
701,26	1232,88
701,45	1333,23
701,63	1294,32
701,81	1202,16
702,00	1263,60
702,18	1294,32
702,37	1267,69
702,55	1294,32
702,73	1218,54
702,92	1224,69
703,10	1236,97
703,28	1296,36
703,47	1267,69
703,65	1245,16
703,84	1218,54
704,02	1290,22
704,20	1279,98
704,39	1279,98
704,57	1298,41
704,75	1327,08
704,94	1273,84
705,12	1224,69
705,30	1294,32
705,49	1218,54
705,67	1282,03
705,86	1366,00
706,04	1239,02
706,22	1206,25
706,41	1279,98
706,59	1290,22
706,77	1298,41
706,96	1318,89
707,14	1208,30
707,32	1282,03
707,51	1347,56
707,69	1292,27
707,87	1218,54
708,06	1236,97
708,24	1275,88
708,42	1275,88
708,61	1253,36
708,79	1255,40
708,97	1282,03
709,16	1290,22
709,34	1312,75
709,52	1279,98
709,71	1206,25
709,89	1175,53
710,07	1226,73
710,26	1339,37
710,44	1275,88
710,62	1220,59
710,80	1282,03
710,99	1261,55
711,17	1314,80
711,35	1214,45
711,54	1241,07
711,72	1269,74
711,90	1294,32
712,09	1296,36
712,27	1255,40
712,45	1261,55
712,63	1259,50
712,82	1329,13
713,00	1273,84
713,18	1275,88
713,37	1222,64
713,55	1239,02
713,73	1198,06
713,91	1236,97
714,10	1232,88
714,28	1243,12
714,46	1335,28
714,65	1302,51
714,83	1277,93
715,01	1322,99
715,19	1329,13
715,38	1282,03
715,56	1320,94
715,74	1241,07
715,92	1273,84
716,11	1175,53
716,29	1310,70
716,47	1271,79
716,65	1269,74
716,84	1224,69
717,02	1279,98
717,20	1234,93
717,38	1263,60
717,57	1228,78
717,75	1290,22
717,93	1255,40
718,11	1247,21
718,30	1224,69
718,48	1255,40
718,66	1230,83
718,84	1306,60
719,03	1198,06
719,21	1279,98
719,39	1312,75
719,57	1253,36
719,75	1249,26
719,94	1292,27
720,12	1282,03
720,30	1292,27
720,48	1286,12
720,67	1269,74
720,85	1239,02
721,03	1234,93
721,21	1294,32
721,39	1257,45
721,58	1294,32
721,76	1288,17
721,94	1349,61
722,12	1282,03
722,30	1308,65
722,49	1255,40
722,67	1282,03
722,85	1236,97
723,03	1261,55
723,21	1292,27
723,40	1339,37
723,58	1267,69
723,76	1286,12
723,94	1349,61
724,12	1273,84
724,30	1294,32
724,49	1277,93
724,67	1271,79
724,85	1296,36
725,03	1261,55
725,21	1322,99
725,40	1302,51
725,58	1353,71
725,76	1308,65
725,94	1292,27
726,12	1226,73
726,30	1271,79
726,49	1241,07
726,67	1222,64
726,85	1224,69
727,03	1304,56
727,21	1282,03
727,39	1212,40
727,57	1273,84
727,76	1257,45
727,94	1241,07
728,12	1273,84
728,30	1296,36
728,48	1292,27
728,66	1214,45
728,84	1292,27
729,03	1337,32
729,21	1322,99
729,39	1288,17
729,57	1202,16
729,75	1331,18
729,93	1288,17
730,11	1245,16
730,30	1220,59
730,48	1320,94
730,66	1251,31
730,84	1386,47
731,02	1273,84
731,20	1249,26
731,38	1302,51
731,56	1222,64
731,74	1277,93
731,93	1232,88
732,11	1333,23
732,29	1298,41
732,47	1312,75
732,65	1200,11
732,83	1220,59
733,01	1286,12
733,19	1261,55
733,37	1214,45
733,56	1275,88
733,74	1226,73
733,92	1243,12
734,10	1249,26
734,28	1337,32
734,46	1316,84
734,64	1257,45
734,82	1230,83
735,00	1298,41
735,18	1284,08
735,36	1259,50
735,54	1249,26
735,73	1269,74
735,91	1255,40
736,09	1279,98
736,27	1243,12
736,45	1273,84
736,63	1243,12
736,81	1206,25
736,99	1286,12
737,17	1218,54
737,35	1245,16
737,53	1247,21
737,71	1253,36
737,89	1216,49
738,07	1314,80
738,25	1275,88
738,43	1257,45
738,61	1222,64
738,80	1275,88
738,98	1308,65
739,16	1298,41
739,34	1222,64
739,52	1243,12
739,70	1269,74
739,88	1257,45
740,06	1288,17
740,24	1236,97
740,42	1298,41
740,60	1216,49
740,78	1230,83
740,96	1304,56
741,14	1275,88
741,32	1275,88
741,50	1239,02
741,68	1261,55
741,86	1273,84
742,04	1275,88
742,22	1310,70
742,40	1300,46
742,58	1239,02
742,76	1298,41
742,94	1255,40
743,12	1288,17
743,30	1316,84
743,48	1243,12
743,66	1247,21
743,84	1357,80
744,02	1312,75
744,20	1304,56
744,38	1288,17
744,56	1263,60
744,74	1337,32
744,92	1253,36
745,10	1236,97
745,28	1183,73
745,46	1218,54
745,64	1292,27
745,82	1296,36
746,00	1353,71
746,18	1269,74
746,36	1320,94
746,54	1282,03
746,72	1245,16
746,90	1259,50
747,08	1325,04
747,26	1343,47
747,44	1249,26
747,62	1273,84
747,80	1247,21
747,98	1296,36
748,15	1296,36
748,33	1316,84
748,51	1290,22
748,69	1273,84
748,87	1241,07
749,05	1333,23
749,23	1312,75
749,41	1226,73
749,59	1185,77
749,77	1212,40
749,95	1269,74
750,13	1261,55
750,31	1310,70
750,49	1296,36
750,67	1230,83
750,85	1286,12
751,03	1222,64
751,20	1273,84
751,38	1275,88
751,56	1288,17
751,74	1318,89
751,92	1191,92
752,10	1286,12
752,28	1273,84
752,46	1230,83
752,64	1259,50
752,82	1275,88
753,00	1282,03
753,18	1230,83
753,35	1230,83
753,53	1257,45
753,71	1189,87
753,89	1282,03
754,07	1339,37
754,25	1255,40
754,43	1214,45
754,61	1316,84
754,79	1263,60
754,97	1271,79
755,14	1263,60
755,32	1339,37
755,50	1290,22
755,68	1318,89
755,86	1243,12
756,04	1290,22
756,22	1314,80
756,40	1222,64
756,57	1228,78
756,75	1200,11
756,93	1263,60
757,11	1191,92
757,29	1232,88
757,47	1277,93
757,65	1245,16
757,82	1243,12
758,00	1314,80
758,18	1249,26
758,36	1261,55
758,54	1298,41
758,72	1204,21
758,90	1288,17
759,07	1257,45
759,25	1314,80
759,43	1292,27
759,61	1241,07
759,79	1327,08
759,97	1308,65
760,15	1273,84
760,32	1236,97
760,50	1275,88
760,68	1279,98
760,86	1290,22
761,04	1279,98
761,22	1249,26
761,39	1257,45
761,57	1243,12
761,75	1292,27
761,93	1294,32
762,11	1271,79
762,28	1249,26
762,46	1282,03
762,64	1177,58
762,82	1241,07
763,00	1275,88
763,18	1275,88
763,35	1277,93
763,53	1308,65
763,71	1279,98
763,89	1265,64
764,07	1245,16
764,24	1277,93
764,42	1261,55
764,60	1208,30
764,78	1259,50
764,96	1286,12
765,13	1257,45
765,31	1247,21
765,49	1284,08
765,67	1265,64
765,84	1261,55
766,02	1230,83
766,20	1220,59
766,38	1314,80
766,56	1257,45
766,73	1282,03
766,91	1236,97
767,09	1257,45
767,27	1234,93
767,44	1275,88
767,62	1290,22
767,80	1234,93
767,98	1294,32
768,15	1236,97
768,33	1269,74
768,51	1271,79
768,69	1267,69
768,87	1290,22
769,04	1288,17
769,22	1290,22
769,40	1363,95
769,58	1335,28
769,75	1226,73
769,93	1167,34
770,11	1216,49
770,28	1284,08
770,46	1269,74
770,64	1273,84
770,82	1218,54
770,99	1304,56
771,17	1226,73
771,35	1271,79
771,53	1222,64
771,70	1286,12
771,88	1269,74
772,06	1286,12
772,23	1249,26
772,41	1279,98
772,59	1257,45
772,77	1265,64
772,94	1214,45
773,12	1300,46
773,30	1329,13
773,47	1253,36
773,65	1236,97
773,83	1220,59
774,01	1269,74
774,18	1267,69
774,36	1282,03
774,54	1292,27
774,71	1359,85
774,89	1288,17
775,07	1284,08
775,24	1138,67
775,42	1273,84
775,60	1347,56
775,78	1230,83
775,95	1228,78
776,13	1286,12
776,31	1247,21
776,48	1312,75
776,66	1273,84
776,84	1327,08
777,01	1239,02
777,19	1167,34
777,37	1333,23
777,54	1308,65
777,72	1370,09
777,90	1212,40
778,07	1236,97
778,25	1257,45
778,43	1314,80
778,60	1282,03
778,78	1292,27
778,96	1257,45
779,13	1271,79
779,31	1279,98
779,49	1177,58
779,66	1265,64
779,84	1261,55
780,01	1253,36
780,19	1288,17
780,37	1288,17
780,54	1269,74
780,72	1259,50
780,90	1271,79
781,07	1249,26
781,25	1302,51
781,43	1232,88
781,60	1322,99
781,78	1173,49
781,95	1247,21
782,13	1279,98
782,31	1257,45
782,48	1220,59
782,66	1214,45
782,83	1331,18
783,01	1271,79
783,19	1189,87
783,36	1288,17
783,54	1329,13
783,72	1284,08
783,89	1286,12
784,07	1200,11
784,24	1234,93
784,42	1200,11
784,60	1310,70
784,77	1224,69
784,95	1288,17
785,12	1304,56
785,30	1216,49
785,47	1259,50
785,65	1253,36
785,83	1214,45
786,00	1259,50
786,18	1327,08
786,35	1255,40
786,53	1226,73
786,71	1259,50
786,88	1349,61
787,06	1325,04
787,23	1216,49
787,41	1327,08
787,58	1204,21
787,76	1226,73
787,94	1269,74
788,11	1232,88
788,29	1183,73
788,46	1216,49
788,64	1257,45
788,81	1218,54
788,99	1234,93
789,16	1290,22
789,34	1267,69
789,52	1239,02
789,69	1202,16
789,87	1267,69
790,04	1284,08
790,22	1300,46
790,39	1310,70
790,57	1279,98
790,74	1288,17
790,92	1296,36
791,09	1294,32
791,27	1257,45
791,44	1298,41
791,62	1298,41
791,79	1288,17
791,97	1290,22
792,15	1298,41
792,32	1312,75
792,50	1241,07
792,67	1247,21
792,85	1298,41
793,02	1257,45
793,20	1279,98
793,37	1200,11
793,55	1333,23
793,72	1273,84
793,90	1263,60
794,07	1236,97
794,25	1257,45
794,42	1269,74
794,60	1277,93
794,77	1316,84
794,95	1339,37
795,12	1198,06
795,30	1288,17
795,47	1265,64
795,65	1245,16
795,82	1243,12
796,00	1249,26
796,17	1239,02
796,34	1251,31
796,52	1187,82
796,69	1294,32
796,87	1275,88
797,04	1279,98
797,22	1314,80
797,39	1269,74
797,57	1316,84
797,74	1335,28
797,92	1279,98
798,09	1288,17
798,27	1372,14
798,44	1239,02
798,62	1318,89
798,79	1230,83
798,96	1290,22
799,14	1218,54
799,31	1322,99
799,49	1243,12
799,66	1273,84
799,84	1320,94
800,01	1220,59
800,19	1257,45
800,36	1267,69
800,53	1312,75
800,71	1275,88
800,88	1310,70
801,06	1329,13
801,23	1327,08
801,41	1277,93
801,58	1204,21
801,75	1363,95
801,93	1263,60
802,10	1279,98
802,28	1273,84
802,45	1220,59
802,63	1273,84
802,80	1372,14
802,97	1196,01
803,15	1249,26
803,32	1296,36
803,50	1314,80
803,67	1296,36
803,84	1236,97
804,02	1236,97
804,19	1247,21
804,37	1230,83
804,54	1290,22
804,71	1312,75
804,89	1296,36
805,06	1206,25
805,24	1306,60
805,41	1329,13
805,58	1279,98
805,76	1193,97
805,93	1302,51
806,10	1286,12
806,28	1251,31
806,45	1241,07
806,63	1245,16
806,80	1300,46
806,97	1322,99
807,15	1208,30
807,32	1267,69
807,49	1255,40
807,67	1241,07
807,84	1300,46
808,01	1230,83
808,19	1329,13
808,36	1257,45
808,54	1257,45
808,71	1310,70
808,88	1331,18
809,06	1232,88
809,23	1251,31
809,40	1236,97
809,58	1294,32
809,75	1239,02
809,92	1294,32
810,10	1232,88
810,27	1312,75
810,44	1263,60
810,62	1255,40
810,79	1306,60
810,96	1269,74
811,14	1263,60
811,31	1224,69
811,48	1318,89
811,66	1290,22
811,83	1275,88
812,00	1261,55
812,18	1200,11
812,35	1222,64
812,52	1318,89
812,69	1288,17
812,87	1245,16
813,04	1322,99
813,21	1296,36
813,39	1335,28
813,56	1239,02
813,73	1322,99
813,91	1271,79
814,08	1282,03
814,25	1279,98
814,42	1230,83
814,60	1277,93
814,77	1284,08
814,94	1228,78
815,12	1308,65
815,29	1271,79
815,46	1316,84
815,63	1355,76
815,81	1300,46
815,98	1312,75
816,15	1279,98
816,33	1366,00
816,50	1257,45
816,67	1302,51
816,84	1277,93
817,02	1273,84
817,19	1265,64
817,36	1304,56
817,53	1282,03
817,71	1327,08
817,88	1294,32
818,05	1279,98
818,22	1200,11
818,40	1296,36
818,57	1200,11
818,74	1298,41
818,91	1236,97
819,09	1290,22
819,26	1263,60
819,43	1236,97
819,60	1286,12
819,78	1351,66
819,95	1335,28
820,12	1198,06
820,29	1304,56
820,47	1230,83
820,64	1279,98
820,81	1210,35
820,98	1261,55
821,15	1214,45
821,33	1294,32
821,50	1279,98
821,67	1294,32
821,84	1273,84
822,02	1261,55
822,19	1265,64
822,36	1306,60
822,53	1267,69
822,70	1318,89
822,88	1255,40
823,05	1320,94
823,22	1212,40
823,39	1273,84
823,56	1273,84
823,74	1275,88
823,91	1257,45
824,08	1257,45
824,25	1245,16
824,42	1333,23
824,60	1294,32
824,77	1259,50
824,94	1282,03
825,11	1255,40
825,28	1222,64
825,45	1298,41
825,63	1257,45
825,80	1290,22
825,97	1259,50
826,14	1241,07
826,31	1279,98
826,48	1353,71
826,66	1267,69
826,83	1255,40
827,00	1261,55
827,17	1308,65
827,34	1255,40
827,51	1247,21
827,69	1273,84
827,86	1259,50
828,03	1247,21
828,20	1273,84
828,37	1259,50
828,54	1273,84
828,71	1265,64
828,89	1249,26
829,06	1159,15
829,23	1210,35
829,40	1269,74
829,57	1224,69
829,74	1300,46
829,91	1247,21
830,09	1261,55
830,26	1253,36
830,43	1261,55
830,60	1314,80
830,77	1224,69
830,94	1263,60
831,11	1243,12
831,28	1298,41
831,46	1255,40
831,63	1273,84
831,80	1245,16
831,97	1243,12
832,14	1288,17
832,31	1312,75
832,48	1275,88
832,65	1290,22
832,82	1275,88
832,99	1288,17
833,17	1257,45
833,34	1263,60
833,51	1333,23
833,68	1245,16
833,85	1306,60
834,02	1257,45
834,19	1286,12
834,36	1247,21
834,53	1226,73
834,70	1300,46
834,87	1263,60
835,04	1308,65
835,22	1228,78
835,39	1273,84
835,56	1290,22
835,73	1335,28
835,90	1212,40
836,07	1286,12
836,24	1247,21
836,41	1284,08
836,58	1333,23
836,75	1257,45
836,92	1267,69
837,09	1288,17
837,26	1230,83
837,43	1222,64
837,60	1337,32
837,77	1345,52
837,94	1255,40
838,12	1210,35
838,29	1279,98
838,46	1239,02
838,63	1271,79
838,80	1380,33
838,97	1296,36
839,14	1263,60
839,31	1247,21
839,48	1304,56
839,65	1189,87
839,82	1294,32
839,99	1329,13
840,16	1337,32
840,33	1290,22
840,50	1304,56
840,67	1277,93
840,84	1267,69
841,01	1318,89
841,18	1363,95
841,35	1353,71
841,52	1265,64
841,69	1294,32
841,86	1294,32
842,03	1271,79
842,20	1306,60
842,37	1325,04
842,54	1288,17
842,71	1322,99
842,88	1292,27
843,05	1284,08
843,22	1279,98
843,39	1271,79
843,56	1300,46
843,73	1304,56
843,90	1255,40
844,07	1193,97
844,24	1327,08
844,41	1304,56
844,58	1263,60
844,75	1277,93
844,92	1265,64
845,09	1263,60
845,26	1306,60
845,43	1263,60
845,60	1251,31
845,77	1216,49
845,94	1269,74
846,10	1241,07
846,27	1265,64
846,44	1247,21
846,61	1230,83
846,78	1216,49
846,95	1261,55
847,12	1261,55
847,29	1241,07
847,46	1228,78
847,63	1261,55
847,80	1218,54
847,97	1230,83
848,14	1294,32
848,31	1298,41
848,48	1245,16
848,65	1320,94
848,82	1230,83
848,98	1294,32
849,15	1282,03
849,32	1255,40
849,49	1298,41
849,66	1267,69
849,83	1282,03
850,00	1310,70
850,17	1269,74
850,34	1351,66
850,51	1279,98
850,68	1230,83
850,85	1277,93
851,01	1279,98
851,18	1255,40
851,35	1261,55
851,52	1253,36
851,69	1269,74
851,86	1193,97
852,03	1339,37
852,20	1312,75
852,37	1282,03
852,53	1269,74
852,70	1300,46
852,87	1210,35
853,04	1308,65
853,21	1333,23
853,38	1306,60
853,55	1232,88
853,72	1263,60
853,89	1357,80
854,05	1306,60
854,22	1208,30
854,39	1239,02
854,56	1267,69
854,73	1273,84
854,90	1171,44
855,07	1329,13
855,23	1355,76
855,40	1249,26
855,57	1312,75
855,74	1257,45
855,91	1288,17
856,08	1325,04
856,25	1222,64
856,41	1236,97
856,58	1290,22
856,75	1275,88
856,92	1253,36
857,09	1271,79
857,26	1265,64
857,42	1302,51
857,59	1331,18
857,76	1265,64
857,93	1286,12
858,10	1234,93
858,27	1271,79
858,43	1279,98
858,60	1296,36
858,77	1249,26
858,94	1216,49
859,11	1304,56
859,27	1230,83
859,44	1236,97
859,61	1286,12
859,78	1245,16
859,95	1245,16
860,12	1288,17
860,28	1267,69
860,45	1228,78
860,62	1247,21
860,79	1279,98
860,95	1206,25
861,12	1419,24
861,29	1220,59
861,46	1318,89
861,63	1312,75
861,79	1273,84
861,96	1232,88
862,13	1161,20
862,30	1259,50
862,47	1230,83
862,63	1169,39
862,80	1259,50
862,97	1275,88
863,14	1290,22
863,30	1271,79
863,47	1282,03
863,64	1226,73
863,81	1292,27
863,97	1161,20
864,14	1222,64
864,31	1327,08
864,48	1294,32
864,65	1210,35
864,81	1263,60
864,98	1288,17
865,15	1261,55
865,32	1269,74
865,48	1292,27
865,65	1318,89
865,82	1255,40
865,98	1234,93
866,15	1261,55
866,32	1316,84
866,49	1263,60
866,65	1228,78
866,82	1298,41
866,99	1265,64
867,16	1296,36
867,32	1277,93
867,49	1259,50
867,66	1249,26
867,83	1216,49
867,99	1247,21
868,16	1277,93
868,33	1212,40
868,49	1290,22
868,66	1269,74
868,83	1343,47
868,99	1259,50
869,16	1277,93
869,33	1302,51
869,50	1288,17
869,66	1290,22
869,83	1263,60
870,00	1257,45
870,16	1189,87
870,33	1298,41
870,50	1298,41
870,66	1249,26
870,83	1257,45
871,00	1335,28
871,17	1296,36
871,33	1275,88
871,50	1273,84
871,67	1288,17
871,83	1241,07
872,00	1247,21
872,17	1265,64
872,33	1292,27
872,50	1226,73
872,67	1292,27
872,83	1210,35
873,00	1286,12
873,17	1300,46
873,33	1241,07
873,50	1234,93
873,67	1220,59
873,83	1253,36
874,00	1257,45
874,16	1271,79
874,33	1308,65
874,50	1236,97
874,66	1322,99
874,83	1329,13
875,00	1296,36
875,16	1320,94
875,33	1314,80
875,50	1333,23
875,66	1292,27
875,83	1255,40
875,99	1261,55
876,16	1320,94
876,33	1314,80
876,49	1249,26
876,66	1204,21
876,83	1247,21
876,99	1292,27
877,16	1257,45
877,32	1214,45
877,49	1269,74
877,66	1314,80
877,82	1265,64
877,99	1273,84
878,15	1222,64
878,32	1277,93
878,49	1245,16
878,65	1261,55
878,82	1296,36
878,98	1257,45
879,15	1279,98
879,32	1249,26
879,48	1310,70
879,65	1308,65
879,81	1269,74
879,98	1296,36
880,15	1277,93
880,31	1255,40
880,48	1279,98
880,64	1296,36
880,81	1241,07
880,97	1290,22
881,14	1261,55
881,31	1263,60
881,47	1294,32
881,64	1282,03
881,80	1298,41
881,97	1263,60
882,13	1290,22
882,30	1273,84
882,47	1263,60
882,63	1290,22
882,80	1314,80
882,96	1300,46
883,13	1259,50
883,29	1284,08
883,46	1325,04
883,62	1341,42
883,79	1247,21
883,95	1286,12
884,12	1261,55
884,29	1277,93
884,45	1298,41
884,62	1279,98
884,78	1271,79
884,95	1247,21
885,11	1269,74
885,28	1343,47
885,44	1261,55
885,61	1277,93
885,77	1294,32
885,94	1322,99
886,10	1279,98
886,27	1290,22
886,43	1259,50
886,60	1296,36
886,76	1251,31
886,93	1259,50
887,09	1257,45
887,26	1216,49
887,42	1322,99
887,59	1273,84
887,75	1273,84
887,92	1294,32
888,08	1259,50
888,25	1275,88
888,41	1259,50
888,58	1236,97
888,74	1226,73
888,91	1275,88
>>>>>End Processed Spectral Data<<<<<
