SpectraSuite Data File
++++++++++++++++++++++++++++++++++++
Date: Sun Apr 03 13:44:04 CEST 2016
User: root
Dark Spectrum Present: No
Reference Spectrum Present: No
Number of Sampled Component Spectra: 1
Spectrometers: USB4C02835
Integration Time (usec): 10000 (USB4C02835)
Spectra Averaged: 1 (USB4C02835)
Boxcar Smoothing: 0 (USB4C02835)
Correct for Electrical Dark: No (USB4C02835)
Strobe/Lamp Enabled: No (USB4C02835)
Correct for Detector Non-linearity: No (USB4C02835)
Correct for Stray Light: No (USB4C02835)
Number of Pixels in Processed Spectrum: 3648
>>>>>Begin Processed Spectral Data<<<<<
177,47	1222,64
177,69	1222,64
177,91	1222,64
178,13	1257,45
178,36	1193,97
178,58	1249,26
178,80	1273,84
179,02	1298,41
179,24	1353,71
179,46	1269,74
179,68	1255,40
179,90	1298,41
180,13	1296,36
180,35	1200,11
180,57	1263,60
180,79	1320,94
181,01	1288,17
181,23	1204,21
181,45	1255,40
181,67	1329,13
181,90	1286,12
182,12	1282,03
182,34	1322,99
182,56	1187,82
182,78	1189,87
183,00	1212,40
183,22	1331,18
183,44	1212,40
183,66	1286,12
183,89	1306,60
184,11	1236,97
184,33	1269,74
184,55	1288,17
184,77	1300,46
184,99	1273,84
185,21	1312,75
185,43	1236,97
185,65	1249,26
185,87	1234,93
186,10	1220,59
186,32	1275,88
186,54	1325,04
186,76	1316,84
186,98	1208,30
187,20	1312,75
187,42	1308,65
187,64	1314,80
187,86	1314,80
188,08	1333,23
188,30	1263,60
188,52	1288,17
188,75	1279,98
188,97	1320,94
189,19	1302,51
189,41	1224,69
189,63	1269,74
189,85	1271,79
190,07	1290,22
190,29	1331,18
190,51	1269,74
190,73	1331,18
190,95	1273,84
191,17	1241,07
191,39	1261,55
191,61	1347,56
191,84	1296,36
192,06	1331,18
192,28	1304,56
192,50	1304,56
192,72	1271,79
192,94	1269,74
193,16	1298,41
193,38	1325,04
193,60	1359,85
193,82	1208,30
194,04	1314,80
194,26	1279,98
194,48	1298,41
194,70	1253,36
194,92	1339,37
195,14	1236,97
195,36	1161,20
195,58	1259,50
195,80	1202,16
196,02	1306,60
196,24	1341,42
196,46	1234,93
196,69	1277,93
196,91	1294,32
197,13	1253,36
197,35	1312,75
197,57	1282,03
197,79	1343,47
198,01	1198,06
198,23	1306,60
198,45	1228,78
198,67	1353,71
198,89	1249,26
199,11	1294,32
199,33	1249,26
199,55	1259,50
199,77	1251,31
199,99	1294,32
200,21	1271,79
200,43	1234,93
200,65	1292,27
200,87	1251,31
201,09	1183,73
201,31	1193,97
201,53	1255,40
201,75	1279,98
201,97	1284,08
202,19	1304,56
202,41	1347,56
202,63	1253,36
202,85	1306,60
203,07	1302,51
203,29	1292,27
203,51	1288,17
203,73	1247,21
203,95	1284,08
204,17	1284,08
204,39	1337,32
204,61	1269,74
204,83	1288,17
205,05	1269,74
205,27	1290,22
205,49	1304,56
205,71	1282,03
205,93	1255,40
206,15	1216,49
206,37	1288,17
206,59	1249,26
206,81	1290,22
207,03	1181,68
207,25	1339,37
207,47	1241,07
207,69	1239,02
207,91	1411,05
208,13	1200,11
208,34	1286,12
208,56	1265,64
208,78	1232,88
209,00	1228,78
209,22	1279,98
209,44	1224,69
209,66	1257,45
209,88	1269,74
210,10	1279,98
210,32	1230,83
210,54	1327,08
210,76	1249,26
210,98	1302,51
211,20	1200,11
211,42	1298,41
211,64	1273,84
211,86	1245,16
212,08	1292,27
212,30	1314,80
212,52	1202,16
212,74	1376,24
212,96	1296,36
213,17	1263,60
213,39	1327,08
213,61	1312,75
213,83	1249,26
214,05	1329,13
214,27	1333,23
214,49	1296,36
214,71	1214,45
214,93	1347,56
215,15	1269,74
215,37	1290,22
215,59	1214,45
215,81	1267,69
216,03	1206,25
216,24	1251,31
216,46	1210,35
216,68	1322,99
216,90	1329,13
217,12	1290,22
217,34	1322,99
217,56	1320,94
217,78	1230,83
218,00	1255,40
218,22	1277,93
218,44	1206,25
218,66	1306,60
218,87	1245,16
219,09	1333,23
219,31	1294,32
219,53	1351,66
219,75	1308,65
219,97	1189,87
220,19	1247,21
220,41	1255,40
220,63	1282,03
220,85	1286,12
221,06	1200,11
221,28	1279,98
221,50	1300,46
221,72	1234,93
221,94	1339,37
222,16	1263,60
222,38	1218,54
222,60	1312,75
222,82	1269,74
223,03	1269,74
223,25	1265,64
223,47	1312,75
223,69	1271,79
223,91	1339,37
224,13	1302,51
224,35	1288,17
224,57	1263,60
224,78	1329,13
225,00	1343,47
225,22	1241,07
225,44	1294,32
225,66	1279,98
225,88	1284,08
226,10	1288,17
226,32	1241,07
226,53	1329,13
226,75	1325,04
226,97	1271,79
227,19	1290,22
227,41	1230,83
227,63	1273,84
227,85	1220,59
228,06	1314,80
228,28	1302,51
228,50	1234,93
228,72	1269,74
228,94	1255,40
229,16	1224,69
229,37	1318,89
229,59	1292,27
229,81	1300,46
230,03	1228,78
230,25	1247,21
230,47	1236,97
230,69	1302,51
230,90	1267,69
231,12	1236,97
231,34	1261,55
231,56	1277,93
231,78	1302,51
232,00	1257,45
232,21	1320,94
232,43	1245,16
232,65	1355,76
232,87	1304,56
233,09	1314,80
233,30	1378,28
233,52	1277,93
233,74	1380,33
233,96	1277,93
234,18	1247,21
234,40	1251,31
234,61	1320,94
234,83	1345,52
235,05	1351,66
235,27	1290,22
235,49	1290,22
235,70	1249,26
235,92	1339,37
236,14	1316,84
236,36	1294,32
236,58	1216,49
236,79	1271,79
237,01	1241,07
237,23	1282,03
237,45	1310,70
237,67	1290,22
237,88	1214,45
238,10	1247,21
238,32	1265,64
238,54	1228,78
238,76	1286,12
238,97	1290,22
239,19	1310,70
239,41	1329,13
239,63	1265,64
239,85	1304,56
240,06	1249,26
240,28	1253,36
240,50	1286,12
240,72	1273,84
240,93	1288,17
241,15	1271,79
241,37	1228,78
241,59	1214,45
241,81	1265,64
242,02	1341,42
242,24	1236,97
242,46	1333,23
242,68	1239,02
242,89	1316,84
243,11	1257,45
243,33	1206,25
243,55	1255,40
243,76	1271,79
243,98	1271,79
244,20	1273,84
244,42	1230,83
244,64	1269,74
244,85	1308,65
245,07	1279,98
245,29	1298,41
245,51	1284,08
245,72	1263,60
245,94	1279,98
246,16	1236,97
246,38	1304,56
246,59	1245,16
246,81	1269,74
247,03	1232,88
247,24	1234,93
247,46	1284,08
247,68	1279,98
247,90	1265,64
248,11	1292,27
248,33	1241,07
248,55	1216,49
248,77	1239,02
248,98	1327,08
249,20	1279,98
249,42	1298,41
249,64	1325,04
249,85	1247,21
250,07	1302,51
250,29	1251,31
250,50	1198,06
250,72	1216,49
250,94	1277,93
251,16	1267,69
251,37	1310,70
251,59	1255,40
251,81	1308,65
252,02	1253,36
252,24	1325,04
252,46	1232,88
252,68	1304,56
252,89	1218,54
253,11	1275,88
253,33	1310,70
253,54	1181,68
253,76	1318,89
253,98	1247,21
254,20	1210,35
254,41	1302,51
254,63	1320,94
254,85	1185,77
255,06	1267,69
255,28	1251,31
255,50	1261,55
255,71	1234,93
255,93	1294,32
256,15	1271,79
256,36	1243,12
256,58	1341,42
256,80	1261,55
257,02	1257,45
257,23	1312,75
257,45	1200,11
257,67	1294,32
257,88	1257,45
258,10	1304,56
258,32	1310,70
258,53	1241,07
258,75	1243,12
258,97	1247,21
259,18	1251,31
259,40	1349,61
259,62	1282,03
259,83	1290,22
260,05	1204,21
260,27	1372,14
260,48	1298,41
260,70	1331,18
260,92	1290,22
261,13	1232,88
261,35	1265,64
261,57	1288,17
261,78	1263,60
262,00	1239,02
262,22	1259,50
262,43	1261,55
262,65	1290,22
262,86	1271,79
263,08	1269,74
263,30	1241,07
263,51	1224,69
263,73	1296,36
263,95	1279,98
264,16	1312,75
264,38	1189,87
264,60	1282,03
264,81	1245,16
265,03	1347,56
265,25	1257,45
265,46	1263,60
265,68	1273,84
265,89	1288,17
266,11	1249,26
266,33	1277,93
266,54	1253,36
266,76	1269,74
266,98	1306,60
267,19	1273,84
267,41	1263,60
267,62	1331,18
267,84	1345,52
268,06	1314,80
268,27	1277,93
268,49	1251,31
268,70	1294,32
268,92	1198,06
269,14	1257,45
269,35	1298,41
269,57	1298,41
269,79	1343,47
270,00	1239,02
270,22	1200,11
270,43	1249,26
270,65	1251,31
270,87	1298,41
271,08	1310,70
271,30	1271,79
271,51	1228,78
271,73	1247,21
271,95	1296,36
272,16	1253,36
272,38	1236,97
272,59	1265,64
272,81	1265,64
273,02	1220,59
273,24	1206,25
273,46	1302,51
273,67	1318,89
273,89	1257,45
274,10	1320,94
274,32	1327,08
274,54	1257,45
274,75	1308,65
274,97	1249,26
275,18	1208,30
275,40	1275,88
275,61	1288,17
275,83	1267,69
276,05	1236,97
276,26	1257,45
276,48	1306,60
276,69	1222,64
276,91	1279,98
277,12	1306,60
277,34	1253,36
277,55	1339,37
277,77	1245,16
277,99	1257,45
278,20	1296,36
278,42	1253,36
278,63	1308,65
278,85	1277,93
279,06	1269,74
279,28	1310,70
279,49	1286,12
279,71	1265,64
279,93	1279,98
280,14	1249,26
280,36	1298,41
280,57	1343,47
280,79	1363,95
281,00	1259,50
281,22	1128,43
281,43	1253,36
281,65	1279,98
281,86	1329,13
282,08	1329,13
282,29	1298,41
282,51	1310,70
282,73	1249,26
282,94	1294,32
283,16	1236,97
283,37	1310,70
283,59	1241,07
283,80	1269,74
284,02	1302,51
284,23	1255,40
284,45	1271,79
284,66	1271,79
284,88	1267,69
285,09	1300,46
285,31	1273,84
285,52	1298,41
285,74	1320,94
285,95	1286,12
286,17	1261,55
286,38	1343,47
286,60	1232,88
286,81	1230,83
287,03	1343,47
287,24	1226,73
287,46	1329,13
287,67	1277,93
287,89	1306,60
288,10	1294,32
288,32	1300,46
288,53	1273,84
288,75	1247,21
288,96	1255,40
289,18	1257,45
289,39	1265,64
289,61	1314,80
289,82	1236,97
290,04	1312,75
290,25	1222,64
290,47	1277,93
290,68	1265,64
290,90	1294,32
291,11	1247,21
291,33	1271,79
291,54	1234,93
291,76	1247,21
291,97	1249,26
292,18	1263,60
292,40	1288,17
292,61	1265,64
292,83	1218,54
293,04	1302,51
293,26	1296,36
293,47	1257,45
293,69	1220,59
293,90	1327,08
294,12	1347,56
294,33	1337,32
294,55	1245,16
294,76	1329,13
294,97	1263,60
295,19	1241,07
295,40	1257,45
295,62	1279,98
295,83	1153,01
296,05	1361,90
296,26	1212,40
296,48	1290,22
296,69	1302,51
296,90	1232,88
297,12	1234,93
297,33	1306,60
297,55	1288,17
297,76	1267,69
297,98	1306,60
298,19	1185,77
298,41	1279,98
298,62	1239,02
298,83	1226,73
299,05	1259,50
299,26	1279,98
299,48	1245,16
299,69	1269,74
299,90	1302,51
300,12	1263,60
300,33	1193,97
300,55	1247,21
300,76	1271,79
300,98	1306,60
301,19	1224,69
301,40	1232,88
301,62	1296,36
301,83	1249,26
302,05	1261,55
302,26	1261,55
302,47	1261,55
302,69	1265,64
302,90	1204,21
303,12	1247,21
303,33	1288,17
303,54	1269,74
303,76	1265,64
303,97	1245,16
304,19	1230,83
304,40	1253,36
304,61	1312,75
304,83	1253,36
305,04	1208,30
305,26	1230,83
305,47	1277,93
305,68	1200,11
305,90	1247,21
306,11	1300,46
306,33	1327,08
306,54	1316,84
306,75	1322,99
306,97	1325,04
307,18	1241,07
307,39	1263,60
307,61	1288,17
307,82	1230,83
308,04	1222,64
308,25	1298,41
308,46	1318,89
308,68	1265,64
308,89	1245,16
309,10	1290,22
309,32	1288,17
309,53	1306,60
309,74	1214,45
309,96	1343,47
310,17	1290,22
310,39	1275,88
310,60	1304,56
310,81	1314,80
311,03	1249,26
311,24	1294,32
311,45	1245,16
311,67	1261,55
311,88	1322,99
312,09	1265,64
312,31	1236,97
312,52	1263,60
312,73	1277,93
312,95	1294,32
313,16	1304,56
313,37	1310,70
313,59	1265,64
313,80	1290,22
314,01	1236,97
314,23	1249,26
314,44	1316,84
314,65	1277,93
314,87	1263,60
315,08	1376,24
315,29	1226,73
315,51	1331,18
315,72	1230,83
315,93	1308,65
316,15	1292,27
316,36	1302,51
316,57	1282,03
316,79	1257,45
317,00	1249,26
317,21	1259,50
317,43	1337,32
317,64	1247,21
317,85	1282,03
318,07	1222,64
318,28	1253,36
318,49	1255,40
318,70	1234,93
318,92	1300,46
319,13	1302,51
319,34	1230,83
319,56	1257,45
319,77	1320,94
319,98	1304,56
320,20	1331,18
320,41	1286,12
320,62	1253,36
320,83	1271,79
321,05	1318,89
321,26	1294,32
321,47	1314,80
321,69	1351,66
321,90	1273,84
322,11	1343,47
322,32	1329,13
322,54	1306,60
322,75	1239,02
322,96	1251,31
323,18	1335,28
323,39	1232,88
323,60	1257,45
323,81	1230,83
324,03	1322,99
324,24	1368,04
324,45	1249,26
324,66	1267,69
324,88	1247,21
325,09	1228,78
325,30	1265,64
325,52	1318,89
325,73	1277,93
325,94	1241,07
326,15	1302,51
326,37	1306,60
326,58	1325,04
326,79	1228,78
327,00	1255,40
327,22	1249,26
327,43	1251,31
327,64	1269,74
327,85	1249,26
328,07	1290,22
328,28	1263,60
328,49	1271,79
328,70	1296,36
328,92	1247,21
329,13	1282,03
329,34	1236,97
329,55	1249,26
329,76	1290,22
329,98	1230,83
330,19	1298,41
330,40	1316,84
330,61	1255,40
330,83	1339,37
331,04	1329,13
331,25	1251,31
331,46	1269,74
331,68	1216,49
331,89	1251,31
332,10	1232,88
332,31	1234,93
332,52	1267,69
332,74	1277,93
332,95	1288,17
333,16	1257,45
333,37	1232,88
333,58	1212,40
333,80	1359,85
334,01	1255,40
334,22	1247,21
334,43	1347,56
334,64	1290,22
334,86	1296,36
335,07	1318,89
335,28	1298,41
335,49	1355,76
335,70	1273,84
335,92	1234,93
336,13	1267,69
336,34	1343,47
336,55	1282,03
336,76	1265,64
336,98	1282,03
337,19	1175,53
337,40	1259,50
337,61	1288,17
337,82	1277,93
338,04	1267,69
338,25	1239,02
338,46	1257,45
338,67	1257,45
338,88	1232,88
339,09	1263,60
339,31	1222,64
339,52	1304,56
339,73	1232,88
339,94	1300,46
340,15	1263,60
340,36	1292,27
340,58	1267,69
340,79	1271,79
341,00	1306,60
341,21	1282,03
341,42	1333,23
341,63	1298,41
341,85	1382,38
342,06	1351,66
342,27	1226,73
342,48	1271,79
342,69	1302,51
342,90	1320,94
343,12	1314,80
343,33	1327,08
343,54	1349,61
343,75	1290,22
343,96	1234,93
344,17	1277,93
344,38	1259,50
344,60	1300,46
344,81	1273,84
345,02	1300,46
345,23	1318,89
345,44	1298,41
345,65	1232,88
345,86	1290,22
346,07	1339,37
346,29	1329,13
346,50	1318,89
346,71	1310,70
346,92	1261,55
347,13	1302,51
347,34	1288,17
347,55	1261,55
347,76	1298,41
347,98	1349,61
348,19	1304,56
348,40	1218,54
348,61	1290,22
348,82	1314,80
349,03	1294,32
349,24	1318,89
349,45	1261,55
349,66	1239,02
349,88	1259,50
350,09	1325,04
350,30	1239,02
350,51	1347,56
350,72	1236,97
350,93	1282,03
351,14	1288,17
351,35	1314,80
351,56	1302,51
351,77	1251,31
351,99	1259,50
352,20	1361,90
352,41	1239,02
352,62	1253,36
352,83	1271,79
353,04	1292,27
353,25	1277,93
353,46	1284,08
353,67	1316,84
353,88	1296,36
354,09	1255,40
354,30	1267,69
354,52	1333,23
354,73	1263,60
354,94	1179,63
355,15	1261,55
355,36	1343,47
355,57	1273,84
355,78	1257,45
355,99	1273,84
356,20	1261,55
356,41	1220,59
356,62	1355,76
356,83	1222,64
357,04	1245,16
357,25	1286,12
357,46	1308,65
357,68	1286,12
357,89	1257,45
358,10	1310,70
358,31	1257,45
358,52	1294,32
358,73	1284,08
358,94	1296,36
359,15	1325,04
359,36	1286,12
359,57	1310,70
359,78	1275,88
359,99	1236,97
360,20	1314,80
360,41	1279,98
360,62	1302,51
360,83	1212,40
361,04	1214,45
361,25	1232,88
361,46	1245,16
361,67	1251,31
361,88	1384,43
362,09	1271,79
362,30	1341,42
362,51	1261,55
362,72	1333,23
362,93	1302,51
363,14	1335,28
363,35	1306,60
363,56	1230,83
363,78	1247,21
363,99	1312,75
364,20	1308,65
364,41	1257,45
364,62	1230,83
364,83	1200,11
365,04	1265,64
365,25	1294,32
365,46	1267,69
365,67	1306,60
365,88	1236,97
366,09	1273,84
366,30	1277,93
366,51	1239,02
366,72	1224,69
366,93	1300,46
367,14	1263,60
367,35	1279,98
367,56	1241,07
367,77	1290,22
367,98	1236,97
368,18	1286,12
368,39	1300,46
368,60	1312,75
368,81	1306,60
369,02	1230,83
369,23	1296,36
369,44	1247,21
369,65	1253,36
369,86	1267,69
370,07	1212,40
370,28	1245,16
370,49	1247,21
370,70	1257,45
370,91	1249,26
371,12	1232,88
371,33	1294,32
371,54	1300,46
371,75	1216,49
371,96	1304,56
372,17	1282,03
372,38	1226,73
372,59	1263,60
372,80	1290,22
373,01	1218,54
373,22	1306,60
373,43	1384,43
373,64	1265,64
373,85	1275,88
374,06	1355,76
374,26	1245,16
374,47	1251,31
374,68	1322,99
374,89	1318,89
375,10	1257,45
375,31	1265,64
375,52	1232,88
375,73	1214,45
375,94	1251,31
376,15	1269,74
376,36	1277,93
376,57	1318,89
376,78	1286,12
376,99	1288,17
377,20	1277,93
377,40	1284,08
377,61	1296,36
377,82	1222,64
378,03	1284,08
378,24	1263,60
378,45	1263,60
378,66	1337,32
378,87	1228,78
379,08	1183,73
379,29	1337,32
379,50	1282,03
379,71	1282,03
379,91	1245,16
380,12	1310,70
380,33	1241,07
380,54	1284,08
380,75	1329,13
380,96	1267,69
381,17	1243,12
381,38	1314,80
381,59	1333,23
381,80	1286,12
382,00	1261,55
382,21	1304,56
382,42	1245,16
382,63	1296,36
382,84	1222,64
383,05	1300,46
383,26	1298,41
383,47	1249,26
383,68	1322,99
383,88	1234,93
384,09	1290,22
384,30	1314,80
384,51	1255,40
384,72	1163,25
384,93	1294,32
385,14	1273,84
385,35	1306,60
385,55	1220,59
385,76	1318,89
385,97	1331,18
386,18	1269,74
386,39	1286,12
386,60	1251,31
386,81	1202,16
387,02	1261,55
387,22	1306,60
387,43	1314,80
387,64	1271,79
387,85	1320,94
388,06	1290,22
388,27	1325,04
388,48	1253,36
388,68	1228,78
388,89	1277,93
389,10	1279,98
389,31	1236,97
389,52	1241,07
389,73	1288,17
389,93	1335,28
390,14	1265,64
390,35	1255,40
390,56	1243,12
390,77	1277,93
390,98	1296,36
391,18	1202,16
391,39	1263,60
391,60	1253,36
391,81	1372,14
392,02	1220,59
392,23	1187,82
392,43	1257,45
392,64	1241,07
392,85	1282,03
393,06	1290,22
393,27	1253,36
393,47	1294,32
393,68	1286,12
393,89	1267,69
394,10	1230,83
394,31	1230,83
394,52	1284,08
394,72	1290,22
394,93	1370,09
395,14	1312,75
395,35	1312,75
395,56	1318,89
395,76	1241,07
395,97	1269,74
396,18	1193,97
396,39	1241,07
396,60	1263,60
396,80	1310,70
397,01	1306,60
397,22	1290,22
397,43	1236,97
397,64	1282,03
397,84	1284,08
398,05	1273,84
398,26	1376,24
398,47	1294,32
398,67	1273,84
398,88	1331,18
399,09	1226,73
399,30	1232,88
399,51	1251,31
399,71	1292,27
399,92	1210,35
400,13	1265,64
400,34	1318,89
400,54	1226,73
400,75	1259,50
400,96	1224,69
401,17	1239,02
401,37	1376,24
401,58	1265,64
401,79	1218,54
402,00	1296,36
402,21	1236,97
402,41	1247,21
402,62	1185,77
402,83	1314,80
403,04	1325,04
403,24	1265,64
403,45	1308,65
403,66	1275,88
403,87	1263,60
404,07	1232,88
404,28	1259,50
404,49	1296,36
404,70	1318,89
404,90	1302,51
405,11	1208,30
405,32	1234,93
405,52	1288,17
405,73	1259,50
405,94	1296,36
406,15	1230,83
406,35	1290,22
406,56	1249,26
406,77	1269,74
406,98	1308,65
407,18	1214,45
407,39	1259,50
407,60	1331,18
407,80	1359,85
408,01	1259,50
408,22	1271,79
408,43	1275,88
408,63	1247,21
408,84	1341,42
409,05	1282,03
409,25	1314,80
409,46	1288,17
409,67	1261,55
409,88	1279,98
410,08	1259,50
410,29	1304,56
410,50	1263,60
410,70	1279,98
410,91	1228,78
411,12	1247,21
411,32	1275,88
411,53	1255,40
411,74	1216,49
411,95	1277,93
412,15	1275,88
412,36	1259,50
412,57	1232,88
412,77	1290,22
412,98	1308,65
413,19	1275,88
413,39	1279,98
413,60	1261,55
413,81	1294,32
414,01	1243,12
414,22	1271,79
414,43	1263,60
414,63	1267,69
414,84	1290,22
415,05	1265,64
415,25	1271,79
415,46	1243,12
415,67	1345,52
415,87	1284,08
416,08	1337,32
416,29	1267,69
416,49	1300,46
416,70	1318,89
416,91	1247,21
417,11	1251,31
417,32	1222,64
417,53	1290,22
417,73	1312,75
417,94	1212,40
418,15	1212,40
418,35	1249,26
418,56	1310,70
418,77	1257,45
418,97	1302,51
419,18	1279,98
419,38	1253,36
419,59	1232,88
419,80	1347,56
420,00	1294,32
420,21	1339,37
420,42	1208,30
420,62	1282,03
420,83	1345,52
421,04	1255,40
421,24	1292,27
421,45	1331,18
421,65	1290,22
421,86	1349,61
422,07	1314,80
422,27	1251,31
422,48	1241,07
422,69	1294,32
422,89	1220,59
423,10	1220,59
423,30	1308,65
423,51	1263,60
423,72	1275,88
423,92	1259,50
424,13	1241,07
424,33	1361,90
424,54	1273,84
424,75	1327,08
424,95	1331,18
425,16	1382,38
425,36	1308,65
425,57	1282,03
425,78	1292,27
425,98	1339,37
426,19	1290,22
426,39	1271,79
426,60	1277,93
426,81	1349,61
427,01	1320,94
427,22	1220,59
427,42	1257,45
427,63	1271,79
427,83	1243,12
428,04	1241,07
428,25	1292,27
428,45	1271,79
428,66	1204,21
428,86	1304,56
429,07	1247,21
429,28	1271,79
429,48	1247,21
429,69	1275,88
429,89	1286,12
430,10	1241,07
430,30	1320,94
430,51	1249,26
430,71	1290,22
430,92	1265,64
431,13	1241,07
431,33	1198,06
431,54	1269,74
431,74	1290,22
431,95	1282,03
432,15	1243,12
432,36	1284,08
432,56	1255,40
432,77	1257,45
432,98	1302,51
433,18	1286,12
433,39	1335,28
433,59	1187,82
433,80	1312,75
434,00	1239,02
434,21	1243,12
434,41	1339,37
434,62	1277,93
434,82	1265,64
435,03	1339,37
435,23	1249,26
435,44	1228,78
435,64	1298,41
435,85	1218,54
436,06	1257,45
436,26	1216,49
436,47	1304,56
436,67	1247,21
436,88	1282,03
437,08	1304,56
437,29	1265,64
437,49	1245,16
437,70	1277,93
437,90	1239,02
438,11	1265,64
438,31	1228,78
438,52	1318,89
438,72	1243,12
438,93	1308,65
439,13	1271,79
439,34	1290,22
439,54	1294,32
439,75	1296,36
439,95	1239,02
440,16	1318,89
440,36	1298,41
440,57	1271,79
440,77	1271,79
440,98	1271,79
441,18	1230,83
441,39	1325,04
441,59	1312,75
441,80	1257,45
442,00	1279,98
442,21	1228,78
442,41	1290,22
442,62	1316,84
442,82	1308,65
443,02	1312,75
443,23	1312,75
443,43	1312,75
443,64	1296,36
443,84	1269,74
444,05	1290,22
444,25	1279,98
444,46	1325,04
444,66	1214,45
444,87	1304,56
445,07	1261,55
445,28	1265,64
445,48	1243,12
445,69	1255,40
445,89	1279,98
446,09	1198,06
446,30	1263,60
446,50	1241,07
446,71	1253,36
446,91	1310,70
447,12	1175,53
447,32	1308,65
447,53	1269,74
447,73	1294,32
447,93	1255,40
448,14	1208,30
448,34	1300,46
448,55	1191,92
448,75	1320,94
448,96	1208,30
449,16	1284,08
449,36	1284,08
449,57	1263,60
449,77	1263,60
449,98	1310,70
450,18	1275,88
450,39	1322,99
450,59	1316,84
450,79	1269,74
451,00	1210,35
451,20	1335,28
451,41	1296,36
451,61	1224,69
451,81	1273,84
452,02	1329,13
452,22	1327,08
452,43	1253,36
452,63	1318,89
452,84	1275,88
453,04	1374,19
453,24	1304,56
453,45	1249,26
453,65	1312,75
453,86	1257,45
454,06	1292,27
454,26	1263,60
454,47	1222,64
454,67	1304,56
454,87	1306,60
455,08	1265,64
455,28	1255,40
455,49	1279,98
455,69	1304,56
455,89	1298,41
456,10	1261,55
456,30	1288,17
456,51	1345,52
456,71	1251,31
456,91	1314,80
457,12	1288,17
457,32	1298,41
457,52	1202,16
457,73	1333,23
457,93	1314,80
458,14	1333,23
458,34	1234,93
458,54	1236,97
458,75	1314,80
458,95	1261,55
459,15	1331,18
459,36	1241,07
459,56	1275,88
459,76	1318,89
459,97	1335,28
460,17	1275,88
460,37	1265,64
460,58	1255,40
460,78	1243,12
460,99	1316,84
461,19	1300,46
461,39	1265,64
461,60	1269,74
461,80	1308,65
462,00	1304,56
462,21	1345,52
462,41	1284,08
462,61	1308,65
462,82	1298,41
463,02	1288,17
463,22	1277,93
463,43	1284,08
463,63	1304,56
463,83	1263,60
464,04	1288,17
464,24	1300,46
464,44	1271,79
464,64	1247,21
464,85	1259,50
465,05	1279,98
465,25	1208,30
465,46	1316,84
465,66	1257,45
465,86	1363,95
466,07	1255,40
466,27	1302,51
466,47	1296,36
466,68	1253,36
466,88	1325,04
467,08	1310,70
467,29	1286,12
467,49	1263,60
467,69	1261,55
467,89	1302,51
468,10	1234,93
468,30	1228,78
468,50	1263,60
468,71	1279,98
468,91	1271,79
469,11	1243,12
469,31	1249,26
469,52	1251,31
469,72	1310,70
469,92	1279,98
470,13	1249,26
470,33	1277,93
470,53	1329,13
470,73	1216,49
470,94	1269,74
471,14	1314,80
471,34	1304,56
471,54	1230,83
471,75	1306,60
471,95	1288,17
472,15	1271,79
472,36	1239,02
472,56	1239,02
472,76	1212,40
472,96	1263,60
473,17	1273,84
473,37	1329,13
473,57	1306,60
473,77	1318,89
473,98	1269,74
474,18	1282,03
474,38	1320,94
474,58	1306,60
474,79	1290,22
474,99	1208,30
475,19	1198,06
475,39	1277,93
475,60	1331,18
475,80	1212,40
476,00	1316,84
476,20	1284,08
476,41	1269,74
476,61	1247,21
476,81	1298,41
477,01	1288,17
477,21	1304,56
477,42	1314,80
477,62	1222,64
477,82	1230,83
478,02	1308,65
478,23	1265,64
478,43	1288,17
478,63	1273,84
478,83	1249,26
479,03	1210,35
479,24	1310,70
479,44	1243,12
479,64	1294,32
479,84	1294,32
480,04	1314,80
480,25	1269,74
480,45	1273,84
480,65	1279,98
480,85	1320,94
481,06	1275,88
481,26	1251,31
481,46	1294,32
481,66	1284,08
481,86	1273,84
482,06	1279,98
482,27	1331,18
482,47	1282,03
482,67	1314,80
482,87	1349,61
483,07	1247,21
483,28	1286,12
483,48	1185,77
483,68	1265,64
483,88	1277,93
484,08	1204,21
484,29	1312,75
484,49	1234,93
484,69	1253,36
484,89	1312,75
485,09	1282,03
485,29	1282,03
485,50	1314,80
485,70	1308,65
485,90	1312,75
486,10	1318,89
486,30	1368,04
486,50	1255,40
486,71	1300,46
486,91	1263,60
487,11	1314,80
487,31	1279,98
487,51	1241,07
487,71	1253,36
487,91	1263,60
488,12	1322,99
488,32	1298,41
488,52	1247,21
488,72	1304,56
488,92	1327,08
489,12	1263,60
489,32	1202,16
489,53	1302,51
489,73	1259,50
489,93	1318,89
490,13	1298,41
490,33	1212,40
490,53	1316,84
490,73	1353,71
490,94	1273,84
491,14	1243,12
491,34	1341,42
491,54	1273,84
491,74	1310,70
491,94	1261,55
492,14	1214,45
492,34	1325,04
492,54	1220,59
492,75	1261,55
492,95	1304,56
493,15	1329,13
493,35	1263,60
493,55	1290,22
493,75	1234,93
493,95	1255,40
494,15	1290,22
494,35	1255,40
494,56	1239,02
494,76	1312,75
494,96	1275,88
495,16	1329,13
495,36	1255,40
495,56	1267,69
495,76	1286,12
495,96	1228,78
496,16	1296,36
496,36	1312,75
496,56	1288,17
496,77	1249,26
496,97	1288,17
497,17	1261,55
497,37	1259,50
497,57	1306,60
497,77	1300,46
497,97	1296,36
498,17	1177,58
498,37	1267,69
498,57	1251,31
498,77	1314,80
498,97	1294,32
499,17	1288,17
499,38	1288,17
499,58	1288,17
499,78	1263,60
499,98	1259,50
500,18	1263,60
500,38	1259,50
500,58	1275,88
500,78	1224,69
500,98	1249,26
501,18	1271,79
501,38	1236,97
501,58	1279,98
501,78	1269,74
501,98	1290,22
502,18	1245,16
502,38	1263,60
502,58	1298,41
502,78	1251,31
502,98	1306,60
503,18	1261,55
503,38	1300,46
503,59	1265,64
503,79	1234,93
503,99	1232,88
504,19	1316,84
504,39	1296,36
504,59	1282,03
504,79	1296,36
504,99	1275,88
505,19	1286,12
505,39	1277,93
505,59	1286,12
505,79	1310,70
505,99	1214,45
506,19	1279,98
506,39	1263,60
506,59	1333,23
506,79	1218,54
506,99	1277,93
507,19	1247,21
507,39	1255,40
507,59	1249,26
507,79	1296,36
507,99	1263,60
508,19	1247,21
508,39	1273,84
508,59	1273,84
508,79	1257,45
508,99	1304,56
509,19	1308,65
509,39	1273,84
509,59	1308,65
509,79	1204,21
509,99	1236,97
510,19	1292,27
510,39	1302,51
510,59	1247,21
510,79	1243,12
510,99	1253,36
511,19	1343,47
511,39	1275,88
511,59	1363,95
511,79	1255,40
511,99	1316,84
512,19	1290,22
512,38	1279,98
512,58	1263,60
512,78	1228,78
512,98	1290,22
513,18	1230,83
513,38	1271,79
513,58	1279,98
513,78	1349,61
513,98	1230,83
514,18	1292,27
514,38	1322,99
514,58	1333,23
514,78	1241,07
514,98	1339,37
515,18	1265,64
515,38	1216,49
515,58	1282,03
515,78	1245,16
515,98	1341,42
516,18	1234,93
516,38	1243,12
516,57	1273,84
516,77	1249,26
516,97	1279,98
517,17	1167,34
517,37	1275,88
517,57	1259,50
517,77	1179,63
517,97	1337,32
518,17	1275,88
518,37	1257,45
518,57	1298,41
518,77	1306,60
518,97	1329,13
519,16	1318,89
519,36	1269,74
519,56	1279,98
519,76	1345,52
519,96	1310,70
520,16	1267,69
520,36	1220,59
520,56	1304,56
520,76	1247,21
520,96	1241,07
521,16	1331,18
521,35	1337,32
521,55	1300,46
521,75	1259,50
521,95	1263,60
522,15	1273,84
522,35	1279,98
522,55	1322,99
522,75	1239,02
522,95	1249,26
523,14	1279,98
523,34	1259,50
523,54	1241,07
523,74	1290,22
523,94	1222,64
524,14	1329,13
524,34	1263,60
524,54	1208,30
524,73	1247,21
524,93	1224,69
525,13	1304,56
525,33	1290,22
525,53	1218,54
525,73	1284,08
525,93	1288,17
526,13	1261,55
526,32	1241,07
526,52	1318,89
526,72	1222,64
526,92	1269,74
527,12	1292,27
527,32	1314,80
527,52	1304,56
527,71	1267,69
527,91	1302,51
528,11	1228,78
528,31	1292,27
528,51	1290,22
528,71	1331,18
528,90	1284,08
529,10	1267,69
529,30	1322,99
529,50	1282,03
529,70	1210,35
529,90	1257,45
530,09	1282,03
530,29	1247,21
530,49	1269,74
530,69	1298,41
530,89	1318,89
531,09	1273,84
531,28	1290,22
531,48	1308,65
531,68	1249,26
531,88	1290,22
532,08	1277,93
532,28	1282,03
532,47	1269,74
532,67	1245,16
532,87	1286,12
533,07	1337,32
533,27	1294,32
533,46	1322,99
533,66	1236,97
533,86	1255,40
534,06	1296,36
534,26	1271,79
534,45	1265,64
534,65	1265,64
534,85	1267,69
535,05	1277,93
535,25	1249,26
535,44	1275,88
535,64	1279,98
535,84	1239,02
536,04	1261,55
536,24	1310,70
536,43	1251,31
536,63	1282,03
536,83	1284,08
537,03	1337,32
537,22	1284,08
537,42	1239,02
537,62	1261,55
537,82	1222,64
538,02	1286,12
538,21	1261,55
538,41	1232,88
538,61	1339,37
538,81	1322,99
539,00	1290,22
539,20	1200,11
539,40	1261,55
539,60	1230,83
539,79	1277,93
539,99	1243,12
540,19	1327,08
540,39	1247,21
540,58	1329,13
540,78	1241,07
540,98	1368,04
541,18	1302,51
541,37	1208,30
541,57	1243,12
541,77	1279,98
541,97	1282,03
542,16	1245,16
542,36	1292,27
542,56	1243,12
542,76	1310,70
542,95	1292,27
543,15	1314,80
543,35	1255,40
543,54	1292,27
543,74	1304,56
543,94	1212,40
544,14	1318,89
544,33	1271,79
544,53	1220,59
544,73	1261,55
544,93	1286,12
545,12	1279,98
545,32	1314,80
545,52	1230,83
545,71	1322,99
545,91	1265,64
546,11	1245,16
546,30	1318,89
546,50	1314,80
546,70	1279,98
546,90	1345,52
547,09	1312,75
547,29	1277,93
547,49	1241,07
547,68	1263,60
547,88	1353,71
548,08	1288,17
548,27	1263,60
548,47	1247,21
548,67	1322,99
548,87	1314,80
549,06	1294,32
549,26	1312,75
549,46	1241,07
549,65	1314,80
549,85	1277,93
550,05	1286,12
550,24	1267,69
550,44	1206,25
550,64	1265,64
550,83	1273,84
551,03	1286,12
551,23	1296,36
551,42	1216,49
551,62	1265,64
551,82	1181,68
552,01	1241,07
552,21	1230,83
552,41	1306,60
552,60	1255,40
552,80	1288,17
553,00	1232,88
553,19	1290,22
553,39	1251,31
553,59	1298,41
553,78	1234,93
553,98	1292,27
554,17	1290,22
554,37	1292,27
554,57	1300,46
554,76	1161,20
554,96	1277,93
555,16	1261,55
555,35	1296,36
555,55	1265,64
555,75	1325,04
555,94	1298,41
556,14	1257,45
556,33	1261,55
556,53	1239,02
556,73	1320,94
556,92	1357,80
557,12	1259,50
557,32	1243,12
557,51	1337,32
557,71	1294,32
557,90	1245,16
558,10	1269,74
558,30	1220,59
558,49	1273,84
558,69	1216,49
558,88	1282,03
559,08	1325,04
559,28	1306,60
559,47	1284,08
559,67	1196,01
559,86	1198,06
560,06	1245,16
560,26	1333,23
560,45	1239,02
560,65	1314,80
560,84	1275,88
561,04	1247,21
561,24	1232,88
561,43	1265,64
561,63	1310,70
561,82	1243,12
562,02	1210,35
562,22	1335,28
562,41	1312,75
562,61	1253,36
562,80	1288,17
563,00	1265,64
563,19	1294,32
563,39	1325,04
563,59	1259,50
563,78	1212,40
563,98	1282,03
564,17	1263,60
564,37	1263,60
564,56	1273,84
564,76	1251,31
564,96	1339,37
565,15	1308,65
565,35	1263,60
565,54	1306,60
565,74	1288,17
565,93	1277,93
566,13	1263,60
566,32	1329,13
566,52	1282,03
566,71	1257,45
566,91	1298,41
567,11	1267,69
567,30	1390,57
567,50	1267,69
567,69	1273,84
567,89	1292,27
568,08	1306,60
568,28	1239,02
568,47	1261,55
568,67	1290,22
568,86	1249,26
569,06	1284,08
569,25	1298,41
569,45	1224,69
569,64	1282,03
569,84	1269,74
570,04	1288,17
570,23	1253,36
570,43	1318,89
570,62	1329,13
570,82	1245,16
571,01	1257,45
571,21	1247,21
571,40	1290,22
571,60	1236,97
571,79	1335,28
571,99	1335,28
572,18	1286,12
572,38	1343,47
572,57	1257,45
572,77	1300,46
572,96	1271,79
573,16	1279,98
573,35	1337,32
573,55	1312,75
573,74	1290,22
573,94	1261,55
574,13	1279,98
574,33	1245,16
574,52	1314,80
574,71	1294,32
574,91	1261,55
575,10	1239,02
575,30	1292,27
575,49	1314,80
575,69	1261,55
575,88	1255,40
576,08	1298,41
576,27	1327,08
576,47	1214,45
576,66	1310,70
576,86	1284,08
577,05	1257,45
577,25	1249,26
577,44	1327,08
577,64	1277,93
577,83	1306,60
578,02	1357,80
578,22	1261,55
578,41	1290,22
578,61	1294,32
578,80	1255,40
579,00	1247,21
579,19	1284,08
579,39	1312,75
579,58	1320,94
579,77	1247,21
579,97	1337,32
580,16	1241,07
580,36	1239,02
580,55	1294,32
580,75	1306,60
580,94	1212,40
581,13	1239,02
581,33	1279,98
581,52	1308,65
581,72	1239,02
581,91	1239,02
582,11	1222,64
582,30	1304,56
582,49	1230,83
582,69	1286,12
582,88	1279,98
583,08	1298,41
583,27	1302,51
583,47	1343,47
583,66	1263,60
583,85	1241,07
584,05	1245,16
584,24	1294,32
584,44	1271,79
584,63	1214,45
584,82	1255,40
585,02	1288,17
585,21	1275,88
585,41	1318,89
585,60	1241,07
585,79	1318,89
585,99	1292,27
586,18	1236,97
586,37	1273,84
586,57	1316,84
586,76	1282,03
586,96	1259,50
587,15	1284,08
587,34	1286,12
587,54	1251,31
587,73	1273,84
587,93	1277,93
588,12	1267,69
588,31	1267,69
588,51	1206,25
588,70	1320,94
588,89	1259,50
589,09	1288,17
589,28	1290,22
589,47	1200,11
589,67	1204,21
589,86	1232,88
590,06	1234,93
590,25	1257,45
590,44	1298,41
590,64	1310,70
590,83	1279,98
591,02	1251,31
591,22	1226,73
591,41	1265,64
591,60	1247,21
591,80	1341,42
591,99	1222,64
592,18	1312,75
592,38	1345,52
592,57	1226,73
592,76	1312,75
592,96	1259,50
593,15	1298,41
593,34	1329,13
593,54	1253,36
593,73	1320,94
593,92	1253,36
594,12	1296,36
594,31	1224,69
594,50	1263,60
594,70	1239,02
594,89	1187,82
595,08	1228,78
595,28	1277,93
595,47	1298,41
595,66	1277,93
595,86	1316,84
596,05	1273,84
596,24	1259,50
596,43	1271,79
596,63	1302,51
596,82	1279,98
597,01	1288,17
597,21	1269,74
597,40	1265,64
597,59	1273,84
597,79	1310,70
597,98	1236,97
598,17	1300,46
598,36	1220,59
598,56	1294,32
598,75	1239,02
598,94	1275,88
599,14	1275,88
599,33	1241,07
599,52	1302,51
599,71	1239,02
599,91	1236,97
600,10	1284,08
600,29	1282,03
600,48	1255,40
600,68	1218,54
600,87	1255,40
601,06	1288,17
601,26	1239,02
601,45	1261,55
601,64	1222,64
601,83	1310,70
602,03	1247,21
602,22	1214,45
602,41	1327,08
602,60	1290,22
602,80	1222,64
602,99	1337,32
603,18	1239,02
603,37	1218,54
603,57	1282,03
603,76	1279,98
603,95	1245,16
604,14	1265,64
604,34	1232,88
604,53	1288,17
604,72	1255,40
604,91	1273,84
605,10	1288,17
605,30	1232,88
605,49	1318,89
605,68	1275,88
605,87	1294,32
606,07	1249,26
606,26	1241,07
606,45	1255,40
606,64	1210,35
606,84	1245,16
607,03	1232,88
607,22	1175,53
607,41	1318,89
607,60	1288,17
607,80	1228,78
607,99	1249,26
608,18	1304,56
608,37	1263,60
608,56	1189,87
608,76	1263,60
608,95	1298,41
609,14	1296,36
609,33	1288,17
609,52	1212,40
609,72	1306,60
609,91	1208,30
610,10	1290,22
610,29	1255,40
610,48	1245,16
610,68	1234,93
610,87	1263,60
611,06	1308,65
611,25	1282,03
611,44	1325,04
611,63	1257,45
611,83	1245,16
612,02	1300,46
612,21	1239,02
612,40	1288,17
612,59	1296,36
612,79	1368,04
612,98	1200,11
613,17	1282,03
613,36	1294,32
613,55	1288,17
613,74	1222,64
613,93	1314,80
614,13	1298,41
614,32	1257,45
614,51	1273,84
614,70	1333,23
614,89	1275,88
615,08	1251,31
615,28	1269,74
615,47	1220,59
615,66	1230,83
615,85	1208,30
616,04	1245,16
616,23	1300,46
616,42	1241,07
616,62	1236,97
616,81	1259,50
617,00	1261,55
617,19	1206,25
617,38	1253,36
617,57	1226,73
617,76	1288,17
617,95	1298,41
618,15	1212,40
618,34	1284,08
618,53	1275,88
618,72	1302,51
618,91	1247,21
619,10	1298,41
619,29	1322,99
619,48	1265,64
619,68	1308,65
619,87	1247,21
620,06	1320,94
620,25	1271,79
620,44	1300,46
620,63	1282,03
620,82	1302,51
621,01	1288,17
621,20	1357,80
621,39	1267,69
621,59	1308,65
621,78	1337,32
621,97	1298,41
622,16	1267,69
622,35	1288,17
622,54	1263,60
622,73	1372,14
622,92	1269,74
623,11	1302,51
623,30	1294,32
623,49	1263,60
623,68	1267,69
623,88	1308,65
624,07	1183,73
624,26	1236,97
624,45	1279,98
624,64	1212,40
624,83	1269,74
625,02	1243,12
625,21	1341,42
625,40	1286,12
625,59	1316,84
625,78	1355,76
625,97	1232,88
626,16	1251,31
626,35	1257,45
626,54	1296,36
626,74	1343,47
626,93	1353,71
627,12	1282,03
627,31	1312,75
627,50	1390,57
627,69	1318,89
627,88	1245,16
628,07	1284,08
628,26	1286,12
628,45	1243,12
628,64	1267,69
628,83	1228,78
629,02	1341,42
629,21	1277,93
629,40	1200,11
629,59	1288,17
629,78	1361,90
629,97	1269,74
630,16	1208,30
630,35	1300,46
630,54	1341,42
630,73	1304,56
630,92	1386,47
631,11	1279,98
631,30	1339,37
631,49	1325,04
631,68	1411,05
631,87	2158,56
632,06	4753,34
632,25	6188,96
632,44	11325,27
632,63	16641,79
632,82	29599,29
633,01	40326,55
633,20	23686,81
633,39	10174,31
633,58	4556,73
633,77	3524,55
633,96	3426,25
634,15	2873,30
634,34	2279,39
634,53	2111,46
634,72	1972,19
634,91	1931,23
635,10	1834,98
635,29	1837,03
635,48	1718,25
635,67	1642,47
635,86	1710,05
636,05	1605,61
636,24	1478,63
636,43	1544,17
636,62	1531,88
636,81	1439,72
637,00	1437,67
637,19	1468,39
637,38	1376,24
637,57	1384,43
637,76	1366,00
637,95	1329,13
638,14	1368,04
638,33	1384,43
638,52	1294,32
638,71	1329,13
638,89	1304,56
639,08	1310,70
639,27	1263,60
639,46	1318,89
639,65	1337,32
639,84	1282,03
640,03	1290,22
640,22	1275,88
640,41	1347,56
640,60	1255,40
640,79	1282,03
640,98	1261,55
641,17	1320,94
641,36	1327,08
641,55	1320,94
641,74	1325,04
641,92	1290,22
642,11	1277,93
642,30	1273,84
642,49	1247,21
642,68	1265,64
642,87	1241,07
643,06	1232,88
643,25	1306,60
643,44	1286,12
643,63	1273,84
643,82	1310,70
644,00	1273,84
644,19	1273,84
644,38	1251,31
644,57	1296,36
644,76	1294,32
644,95	1249,26
645,14	1226,73
645,33	1339,37
645,52	1271,79
645,71	1239,02
645,89	1314,80
646,08	1302,51
646,27	1232,88
646,46	1263,60
646,65	1296,36
646,84	1249,26
647,03	1263,60
647,22	1257,45
647,40	1304,56
647,59	1255,40
647,78	1245,16
647,97	1306,60
648,16	1234,93
648,35	1343,47
648,54	1353,71
648,73	1267,69
648,91	1249,26
649,10	1271,79
649,29	1236,97
649,48	1249,26
649,67	1253,36
649,86	1259,50
650,05	1290,22
650,23	1337,32
650,42	1269,74
650,61	1339,37
650,80	1273,84
650,99	1361,90
651,18	1314,80
651,36	1277,93
651,55	1202,16
651,74	1259,50
651,93	1327,08
652,12	1306,60
652,31	1247,21
652,49	1230,83
652,68	1296,36
652,87	1347,56
653,06	1341,42
653,25	1247,21
653,44	1329,13
653,62	1284,08
653,81	1247,21
654,00	1271,79
654,19	1273,84
654,38	1279,98
654,56	1288,17
654,75	1310,70
654,94	1368,04
655,13	1200,11
655,32	1279,98
655,51	1218,54
655,69	1249,26
655,88	1208,30
656,07	1275,88
656,26	1269,74
656,45	1312,75
656,63	1269,74
656,82	1282,03
657,01	1181,68
657,20	1345,52
657,38	1257,45
657,57	1290,22
657,76	1345,52
657,95	1284,08
658,14	1282,03
658,32	1312,75
658,51	1279,98
658,70	1298,41
658,89	1290,22
659,08	1349,61
659,26	1347,56
659,45	1279,98
659,64	1380,33
659,83	1257,45
660,01	1288,17
660,20	1292,27
660,39	1222,64
660,58	1273,84
660,76	1267,69
660,95	1208,30
661,14	1216,49
661,33	1292,27
661,51	1257,45
661,70	1357,80
661,89	1325,04
662,08	1265,64
662,26	1226,73
662,45	1318,89
662,64	1243,12
662,83	1255,40
663,01	1316,84
663,20	1267,69
663,39	1273,84
663,58	1236,97
663,76	1253,36
663,95	1296,36
664,14	1361,90
664,32	1341,42
664,51	1347,56
664,70	1320,94
664,89	1282,03
665,07	1353,71
665,26	1249,26
665,45	1222,64
665,64	1331,18
665,82	1243,12
666,01	1273,84
666,20	1337,32
666,38	1286,12
666,57	1363,95
666,76	1202,16
666,95	1259,50
667,13	1251,31
667,32	1271,79
667,51	1269,74
667,69	1239,02
667,88	1357,80
668,07	1269,74
668,25	1232,88
668,44	1269,74
668,63	1322,99
668,81	1282,03
669,00	1357,80
669,19	1277,93
669,38	1290,22
669,56	1255,40
669,75	1234,93
669,94	1298,41
670,12	1267,69
670,31	1314,80
670,50	1263,60
670,68	1320,94
670,87	1337,32
671,06	1343,47
671,24	1298,41
671,43	1210,35
671,62	1241,07
671,80	1181,68
671,99	1236,97
672,18	1273,84
672,36	1333,23
672,55	1277,93
672,74	1261,55
672,92	1267,69
673,11	1277,93
673,29	1210,35
673,48	1290,22
673,67	1239,02
673,85	1247,21
674,04	1286,12
674,23	1302,51
674,41	1314,80
674,60	1255,40
674,79	1298,41
674,97	1288,17
675,16	1261,55
675,34	1329,13
675,53	1275,88
675,72	1251,31
675,90	1210,35
676,09	1294,32
676,28	1316,84
676,46	1239,02
676,65	1341,42
676,83	1261,55
677,02	1300,46
677,21	1290,22
677,39	1241,07
677,58	1308,65
677,77	1294,32
677,95	1316,84
678,14	1279,98
678,32	1193,97
678,51	1269,74
678,70	1333,23
678,88	1230,83
679,07	1304,56
679,25	1329,13
679,44	1286,12
679,63	1232,88
679,81	1355,76
680,00	1271,79
680,18	1296,36
680,37	1279,98
680,55	1292,27
680,74	1257,45
680,93	1243,12
681,11	1292,27
681,30	1370,09
681,48	1298,41
681,67	1228,78
681,85	1310,70
682,04	1257,45
682,23	1275,88
682,41	1298,41
682,60	1228,78
682,78	1202,16
682,97	1271,79
683,15	1318,89
683,34	1228,78
683,53	1218,54
683,71	1247,21
683,90	1263,60
684,08	1265,64
684,27	1312,75
684,45	1165,29
684,64	1288,17
684,82	1263,60
685,01	1220,59
685,19	1198,06
685,38	1304,56
685,57	1306,60
685,75	1312,75
685,94	1331,18
686,12	1275,88
686,31	1349,61
686,49	1269,74
686,68	1263,60
686,86	1236,97
687,05	1228,78
687,23	1302,51
687,42	1200,11
687,60	1243,12
687,79	1298,41
687,97	1282,03
688,16	1292,27
688,34	1273,84
688,53	1279,98
688,71	1259,50
688,90	1286,12
689,08	1265,64
689,27	1357,80
689,45	1247,21
689,64	1286,12
689,82	1273,84
690,01	1316,84
690,19	1236,97
690,38	1347,56
690,56	1331,18
690,75	1245,16
690,93	1232,88
691,12	1273,84
691,30	1251,31
691,49	1271,79
691,67	1310,70
691,86	1298,41
692,04	1236,97
692,23	1241,07
692,41	1255,40
692,60	1255,40
692,78	1222,64
692,97	1265,64
693,15	1247,21
693,34	1224,69
693,52	1275,88
693,71	1191,92
693,89	1302,51
694,08	1210,35
694,26	1333,23
694,44	1224,69
694,63	1279,98
694,81	1239,02
695,00	1265,64
695,18	1255,40
695,37	1306,60
695,55	1279,98
695,74	1298,41
695,92	1277,93
696,10	1261,55
696,29	1318,89
696,47	1249,26
696,66	1316,84
696,84	1251,31
697,03	1302,51
697,21	1312,75
697,40	1286,12
697,58	1304,56
697,76	1222,64
697,95	1257,45
698,13	1269,74
698,32	1286,12
698,50	1288,17
698,68	1357,80
698,87	1286,12
699,05	1257,45
699,24	1290,22
699,42	1292,27
699,61	1282,03
699,79	1386,47
699,97	1337,32
700,16	1271,79
700,34	1312,75
700,53	1257,45
700,71	1290,22
700,89	1275,88
701,08	1232,88
701,26	1269,74
701,45	1314,80
701,63	1277,93
701,81	1214,45
702,00	1267,69
702,18	1300,46
702,37	1290,22
702,55	1228,78
702,73	1275,88
702,92	1298,41
703,10	1247,21
703,28	1333,23
703,47	1286,12
703,65	1300,46
703,84	1337,32
704,02	1241,07
704,20	1265,64
704,39	1261,55
704,57	1292,27
704,75	1269,74
704,94	1257,45
705,12	1316,84
705,30	1226,73
705,49	1259,50
705,67	1253,36
705,86	1337,32
706,04	1304,56
706,22	1271,79
706,41	1282,03
706,59	1243,12
706,77	1355,76
706,96	1292,27
707,14	1288,17
707,32	1200,11
707,51	1255,40
707,69	1247,21
707,87	1284,08
708,06	1214,45
708,24	1247,21
708,42	1236,97
708,61	1265,64
708,79	1304,56
708,97	1294,32
709,16	1263,60
709,34	1263,60
709,52	1275,88
709,71	1271,79
709,89	1263,60
710,07	1261,55
710,26	1284,08
710,44	1294,32
710,62	1255,40
710,80	1320,94
710,99	1282,03
711,17	1302,51
711,35	1243,12
711,54	1222,64
711,72	1269,74
711,90	1277,93
712,09	1269,74
712,27	1363,95
712,45	1241,07
712,63	1261,55
712,82	1263,60
713,00	1222,64
713,18	1253,36
713,37	1224,69
713,55	1290,22
713,73	1214,45
713,91	1312,75
714,10	1247,21
714,28	1265,64
714,46	1200,11
714,65	1206,25
714,83	1263,60
715,01	1308,65
715,19	1263,60
715,38	1200,11
715,56	1273,84
715,74	1310,70
715,92	1255,40
716,11	1314,80
716,29	1251,31
716,47	1269,74
716,65	1230,83
716,84	1306,60
717,02	1335,28
717,20	1249,26
717,38	1277,93
717,57	1234,93
717,75	1230,83
717,93	1288,17
718,11	1261,55
718,30	1304,56
718,48	1263,60
718,66	1343,47
718,84	1232,88
719,03	1308,65
719,21	1261,55
719,39	1298,41
719,57	1294,32
719,75	1271,79
719,94	1310,70
720,12	1245,16
720,30	1275,88
720,48	1196,01
720,67	1288,17
720,85	1220,59
721,03	1294,32
721,21	1249,26
721,39	1314,80
721,58	1261,55
721,76	1353,71
721,94	1275,88
722,12	1300,46
722,30	1314,80
722,49	1366,00
722,67	1243,12
722,85	1339,37
723,03	1302,51
723,21	1292,27
723,40	1261,55
723,58	1284,08
723,76	1314,80
723,94	1296,36
724,12	1292,27
724,30	1343,47
724,49	1226,73
724,67	1198,06
724,85	1247,21
725,03	1314,80
725,21	1271,79
725,40	1230,83
725,58	1191,92
725,76	1331,18
725,94	1300,46
726,12	1290,22
726,30	1335,28
726,49	1267,69
726,67	1296,36
726,85	1269,74
727,03	1236,97
727,21	1220,59
727,39	1271,79
727,57	1271,79
727,76	1279,98
727,94	1236,97
728,12	1257,45
728,30	1296,36
728,48	1318,89
728,66	1335,28
728,84	1241,07
729,03	1288,17
729,21	1341,42
729,39	1230,83
729,57	1251,31
729,75	1310,70
729,93	1296,36
730,11	1312,75
730,30	1292,27
730,48	1347,56
730,66	1339,37
730,84	1343,47
731,02	1271,79
731,20	1300,46
731,38	1296,36
731,56	1327,08
731,74	1325,04
731,93	1261,55
732,11	1298,41
732,29	1286,12
732,47	1245,16
732,65	1247,21
732,83	1257,45
733,01	1279,98
733,19	1290,22
733,37	1327,08
733,56	1288,17
733,74	1279,98
733,92	1142,77
734,10	1294,32
734,28	1191,92
734,46	1265,64
734,64	1257,45
734,82	1308,65
735,00	1298,41
735,18	1290,22
735,36	1251,31
735,54	1257,45
735,73	1198,06
735,91	1318,89
736,09	1239,02
736,27	1271,79
736,45	1288,17
736,63	1224,69
736,81	1206,25
736,99	1247,21
737,17	1357,80
737,35	1271,79
737,53	1247,21
737,71	1290,22
737,89	1279,98
738,07	1294,32
738,25	1171,44
738,43	1271,79
738,61	1220,59
738,80	1232,88
738,98	1181,68
739,16	1279,98
739,34	1288,17
739,52	1294,32
739,70	1275,88
739,88	1314,80
740,06	1236,97
740,24	1261,55
740,42	1247,21
740,60	1253,36
740,78	1296,36
740,96	1222,64
741,14	1275,88
741,32	1253,36
741,50	1257,45
741,68	1304,56
741,86	1263,60
742,04	1230,83
742,22	1279,98
742,40	1226,73
742,58	1275,88
742,76	1294,32
742,94	1308,65
743,12	1208,30
743,30	1263,60
743,48	1286,12
743,66	1310,70
743,84	1210,35
744,02	1263,60
744,20	1343,47
744,38	1284,08
744,56	1298,41
744,74	1212,40
744,92	1236,97
745,10	1300,46
745,28	1279,98
745,46	1296,36
745,64	1196,01
745,82	1300,46
746,00	1314,80
746,18	1236,97
746,36	1263,60
746,54	1333,23
746,72	1234,93
746,90	1247,21
747,08	1257,45
747,26	1257,45
747,44	1292,27
747,62	1331,18
747,80	1255,40
747,98	1282,03
748,15	1251,31
748,33	1271,79
748,51	1277,93
748,69	1255,40
748,87	1232,88
749,05	1308,65
749,23	1265,64
749,41	1198,06
749,59	1304,56
749,77	1239,02
749,95	1296,36
750,13	1245,16
750,31	1241,07
750,49	1286,12
750,67	1282,03
750,85	1208,30
751,03	1265,64
751,20	1232,88
751,38	1247,21
751,56	1265,64
751,74	1314,80
751,92	1327,08
752,10	1290,22
752,28	1310,70
752,46	1288,17
752,64	1290,22
752,82	1302,51
753,00	1230,83
753,18	1216,49
753,35	1249,26
753,53	1251,31
753,71	1271,79
753,89	1273,84
754,07	1234,93
754,25	1269,74
754,43	1177,58
754,61	1241,07
754,79	1259,50
754,97	1275,88
755,14	1247,21
755,32	1224,69
755,50	1308,65
755,68	1282,03
755,86	1232,88
756,04	1294,32
756,22	1318,89
756,40	1241,07
756,57	1335,28
756,75	1296,36
756,93	1218,54
757,11	1247,21
757,29	1239,02
757,47	1251,31
757,65	1298,41
757,82	1314,80
758,00	1271,79
758,18	1292,27
758,36	1279,98
758,54	1286,12
758,72	1333,23
758,90	1249,26
759,07	1333,23
759,25	1247,21
759,43	1273,84
759,61	1140,72
759,79	1312,75
759,97	1222,64
760,15	1275,88
760,32	1261,55
760,50	1267,69
760,68	1261,55
760,86	1214,45
761,04	1265,64
761,22	1259,50
761,39	1290,22
761,57	1294,32
761,75	1269,74
761,93	1310,70
762,11	1228,78
762,28	1204,21
762,46	1359,85
762,64	1331,18
762,82	1247,21
763,00	1288,17
763,18	1316,84
763,35	1286,12
763,53	1310,70
763,71	1234,93
763,89	1302,51
764,07	1263,60
764,24	1261,55
764,42	1222,64
764,60	1320,94
764,78	1288,17
764,96	1316,84
765,13	1357,80
765,31	1300,46
765,49	1267,69
765,67	1275,88
765,84	1210,35
766,02	1277,93
766,20	1292,27
766,38	1257,45
766,56	1200,11
766,73	1255,40
766,91	1275,88
767,09	1243,12
767,27	1257,45
767,44	1374,19
767,62	1312,75
767,80	1200,11
767,98	1306,60
768,15	1251,31
768,33	1331,18
768,51	1302,51
768,69	1302,51
768,87	1286,12
769,04	1198,06
769,22	1325,04
769,40	1322,99
769,58	1228,78
769,75	1325,04
769,93	1275,88
770,11	1355,76
770,28	1241,07
770,46	1226,73
770,64	1292,27
770,82	1269,74
770,99	1249,26
771,17	1290,22
771,35	1298,41
771,53	1273,84
771,70	1275,88
771,88	1261,55
772,06	1271,79
772,23	1253,36
772,41	1331,18
772,59	1263,60
772,77	1245,16
772,94	1220,59
773,12	1257,45
773,30	1347,56
773,47	1329,13
773,65	1273,84
773,83	1251,31
774,01	1204,21
774,18	1239,02
774,36	1320,94
774,54	1271,79
774,71	1236,97
774,89	1257,45
775,07	1263,60
775,24	1318,89
775,42	1245,16
775,60	1220,59
775,78	1249,26
775,95	1279,98
776,13	1271,79
776,31	1212,40
776,48	1296,36
776,66	1265,64
776,84	1327,08
777,01	1261,55
777,19	1265,64
777,37	1249,26
777,54	1251,31
777,72	1273,84
777,90	1220,59
778,07	1298,41
778,25	1300,46
778,43	1302,51
778,60	1175,53
778,78	1253,36
778,96	1277,93
779,13	1269,74
779,31	1259,50
779,49	1353,71
779,66	1314,80
779,84	1288,17
780,01	1239,02
780,19	1343,47
780,37	1206,25
780,54	1302,51
780,72	1322,99
780,90	1337,32
781,07	1286,12
781,25	1320,94
781,43	1304,56
781,60	1265,64
781,78	1378,28
781,95	1255,40
782,13	1245,16
782,31	1337,32
782,48	1306,60
782,66	1314,80
782,83	1259,50
783,01	1247,21
783,19	1265,64
783,36	1314,80
783,54	1288,17
783,72	1226,73
783,89	1267,69
784,07	1216,49
784,24	1206,25
784,42	1325,04
784,60	1245,16
784,77	1257,45
784,95	1253,36
785,12	1298,41
785,30	1232,88
785,47	1228,78
785,65	1306,60
785,83	1359,85
786,00	1331,18
786,18	1306,60
786,35	1329,13
786,53	1255,40
786,71	1310,70
786,88	1251,31
787,06	1284,08
787,23	1169,39
787,41	1271,79
787,58	1320,94
787,76	1310,70
787,94	1239,02
788,11	1337,32
788,29	1269,74
788,46	1284,08
788,64	1345,52
788,81	1286,12
788,99	1298,41
789,16	1314,80
789,34	1322,99
789,52	1275,88
789,69	1273,84
789,87	1271,79
790,04	1253,36
790,22	1302,51
790,39	1288,17
790,57	1261,55
790,74	1228,78
790,92	1253,36
791,09	1306,60
791,27	1282,03
791,44	1241,07
791,62	1249,26
791,79	1320,94
791,97	1275,88
792,15	1253,36
792,32	1361,90
792,50	1236,97
792,67	1245,16
792,85	1306,60
793,02	1232,88
793,20	1279,98
793,37	1318,89
793,55	1271,79
793,72	1308,65
793,90	1259,50
794,07	1275,88
794,25	1273,84
794,42	1255,40
794,60	1269,74
794,77	1263,60
794,95	1269,74
795,12	1120,24
795,30	1222,64
795,47	1257,45
795,65	1327,08
795,82	1304,56
796,00	1308,65
796,17	1304,56
796,34	1292,27
796,52	1239,02
796,69	1296,36
796,87	1200,11
797,04	1200,11
797,22	1320,94
797,39	1263,60
797,57	1312,75
797,74	1331,18
797,92	1282,03
798,09	1304,56
798,27	1279,98
798,44	1277,93
798,62	1257,45
798,79	1300,46
798,96	1243,12
799,14	1316,84
799,31	1339,37
799,49	1292,27
799,66	1277,93
799,84	1257,45
800,01	1310,70
800,19	1380,33
800,36	1271,79
800,53	1320,94
800,71	1212,40
800,88	1322,99
801,06	1243,12
801,23	1300,46
801,41	1331,18
801,58	1230,83
801,75	1271,79
801,93	1277,93
802,10	1290,22
802,28	1294,32
802,45	1236,97
802,63	1249,26
802,80	1308,65
802,97	1273,84
803,15	1228,78
803,32	1331,18
803,50	1167,34
803,67	1247,21
803,84	1263,60
804,02	1394,67
804,19	1265,64
804,37	1273,84
804,54	1247,21
804,71	1294,32
804,89	1271,79
805,06	1290,22
805,24	1259,50
805,41	1269,74
805,58	1222,64
805,76	1292,27
805,93	1263,60
806,10	1249,26
806,28	1292,27
806,45	1277,93
806,63	1218,54
806,80	1282,03
806,97	1320,94
807,15	1345,52
807,32	1206,25
807,49	1292,27
807,67	1290,22
807,84	1279,98
808,01	1300,46
808,19	1304,56
808,36	1308,65
808,54	1312,75
808,71	1224,69
808,88	1275,88
809,06	1310,70
809,23	1286,12
809,40	1228,78
809,58	1292,27
809,75	1241,07
809,92	1214,45
810,10	1265,64
810,27	1308,65
810,44	1314,80
810,62	1347,56
810,79	1265,64
810,96	1255,40
811,14	1265,64
811,31	1236,97
811,48	1241,07
811,66	1304,56
811,83	1257,45
812,00	1218,54
812,18	1259,50
812,35	1224,69
812,52	1290,22
812,69	1249,26
812,87	1271,79
813,04	1236,97
813,21	1249,26
813,39	1306,60
813,56	1288,17
813,73	1314,80
813,91	1251,31
814,08	1275,88
814,25	1304,56
814,42	1259,50
814,60	1284,08
814,77	1302,51
814,94	1314,80
815,12	1302,51
815,29	1163,25
815,46	1206,25
815,63	1316,84
815,81	1349,61
815,98	1212,40
816,15	1359,85
816,33	1241,07
816,50	1228,78
816,67	1271,79
816,84	1296,36
817,02	1275,88
817,19	1271,79
817,36	1277,93
817,53	1298,41
817,71	1290,22
817,88	1288,17
818,05	1247,21
818,22	1282,03
818,40	1316,84
818,57	1294,32
818,74	1249,26
818,91	1310,70
819,09	1224,69
819,26	1265,64
819,43	1267,69
819,60	1300,46
819,78	1300,46
819,95	1273,84
820,12	1222,64
820,29	1298,41
820,47	1200,11
820,64	1255,40
820,81	1308,65
820,98	1251,31
821,15	1322,99
821,33	1230,83
821,50	1253,36
821,67	1366,00
821,84	1175,53
822,02	1316,84
822,19	1306,60
822,36	1312,75
822,53	1247,21
822,70	1314,80
822,88	1292,27
823,05	1269,74
823,22	1261,55
823,39	1241,07
823,56	1236,97
823,74	1216,49
823,91	1273,84
824,08	1325,04
824,25	1255,40
824,42	1294,32
824,60	1300,46
824,77	1269,74
824,94	1271,79
825,11	1292,27
825,28	1251,31
825,45	1331,18
825,63	1255,40
825,80	1351,66
825,97	1302,51
826,14	1249,26
826,31	1247,21
826,48	1222,64
826,66	1236,97
826,83	1271,79
827,00	1318,89
827,17	1288,17
827,34	1300,46
827,51	1183,73
827,69	1282,03
827,86	1189,87
828,03	1279,98
828,20	1265,64
828,37	1210,35
828,54	1257,45
828,71	1251,31
828,89	1294,32
829,06	1202,16
829,23	1273,84
829,40	1296,36
829,57	1230,83
829,74	1253,36
829,91	1277,93
830,09	1294,32
830,26	1261,55
830,43	1243,12
830,60	1316,84
830,77	1286,12
830,94	1314,80
831,11	1322,99
831,28	1314,80
831,46	1265,64
831,63	1273,84
831,80	1286,12
831,97	1273,84
832,14	1296,36
832,31	1286,12
832,48	1216,49
832,65	1310,70
832,82	1257,45
832,99	1228,78
833,17	1304,56
833,34	1267,69
833,51	1253,36
833,68	1273,84
833,85	1245,16
834,02	1282,03
834,19	1210,35
834,36	1292,27
834,53	1259,50
834,70	1329,13
834,87	1325,04
835,04	1290,22
835,22	1247,21
835,39	1298,41
835,56	1226,73
835,73	1320,94
835,90	1232,88
836,07	1296,36
836,24	1214,45
836,41	1187,82
836,58	1341,42
836,75	1271,79
836,92	1339,37
837,09	1306,60
837,26	1257,45
837,43	1253,36
837,60	1259,50
837,77	1310,70
837,94	1320,94
838,12	1282,03
838,29	1245,16
838,46	1282,03
838,63	1275,88
838,80	1265,64
838,97	1191,92
839,14	1249,26
839,31	1294,32
839,48	1253,36
839,65	1284,08
839,82	1306,60
839,99	1234,93
840,16	1273,84
840,33	1288,17
840,50	1314,80
840,67	1136,62
840,84	1320,94
841,01	1282,03
841,18	1216,49
841,35	1218,54
841,52	1263,60
841,69	1345,52
841,86	1318,89
842,03	1220,59
842,20	1269,74
842,37	1212,40
842,54	1265,64
842,71	1220,59
842,88	1265,64
843,05	1275,88
843,22	1241,07
843,39	1249,26
843,56	1245,16
843,73	1247,21
843,90	1337,32
844,07	1343,47
844,24	1239,02
844,41	1241,07
844,58	1273,84
844,75	1241,07
844,92	1282,03
845,09	1282,03
845,26	1216,49
845,43	1284,08
845,60	1306,60
845,77	1275,88
845,94	1263,60
846,10	1294,32
846,27	1271,79
846,44	1259,50
846,61	1327,08
846,78	1279,98
846,95	1279,98
847,12	1286,12
847,29	1282,03
847,46	1257,45
847,63	1298,41
847,80	1236,97
847,97	1202,16
848,14	1327,08
848,31	1298,41
848,48	1329,13
848,65	1302,51
848,82	1325,04
848,98	1212,40
849,15	1347,56
849,32	1327,08
849,49	1400,81
849,66	1239,02
849,83	1288,17
850,00	1314,80
850,17	1333,23
850,34	1302,51
850,51	1253,36
850,68	1253,36
850,85	1320,94
851,01	1230,83
851,18	1261,55
851,35	1241,07
851,52	1286,12
851,69	1247,21
851,86	1298,41
852,03	1312,75
852,20	1234,93
852,37	1253,36
852,53	1224,69
852,70	1308,65
852,87	1316,84
853,04	1343,47
853,21	1220,59
853,38	1212,40
853,55	1339,37
853,72	1273,84
853,89	1282,03
854,05	1271,79
854,22	1267,69
854,39	1310,70
854,56	1398,76
854,73	1214,45
854,90	1331,18
855,07	1286,12
855,23	1241,07
855,40	1253,36
855,57	1255,40
855,74	1271,79
855,91	1288,17
856,08	1257,45
856,25	1292,27
856,41	1284,08
856,58	1275,88
856,75	1294,32
856,92	1230,83
857,09	1236,97
857,26	1251,31
857,42	1296,36
857,59	1230,83
857,76	1275,88
857,93	1296,36
858,10	1228,78
858,27	1304,56
858,43	1275,88
858,60	1316,84
858,77	1304,56
858,94	1282,03
859,11	1263,60
859,27	1302,51
859,44	1347,56
859,61	1279,98
859,78	1279,98
859,95	1282,03
860,12	1339,37
860,28	1249,26
860,45	1214,45
860,62	1263,60
860,79	1304,56
860,95	1273,84
861,12	1222,64
861,29	1282,03
861,46	1263,60
861,63	1214,45
861,79	1247,21
861,96	1286,12
862,13	1265,64
862,30	1269,74
862,47	1261,55
862,63	1290,22
862,80	1267,69
862,97	1310,70
863,14	1329,13
863,30	1290,22
863,47	1253,36
863,64	1314,80
863,81	1263,60
863,97	1236,97
864,14	1339,37
864,31	1251,31
864,48	1257,45
864,65	1241,07
864,81	1331,18
864,98	1243,12
865,15	1298,41
865,32	1316,84
865,48	1224,69
865,65	1261,55
865,82	1245,16
865,98	1308,65
866,15	1247,21
866,32	1263,60
866,49	1249,26
866,65	1322,99
866,82	1304,56
866,99	1273,84
867,16	1241,07
867,32	1271,79
867,49	1279,98
867,66	1245,16
867,83	1271,79
867,99	1277,93
868,16	1288,17
868,33	1228,78
868,49	1282,03
868,66	1310,70
868,83	1337,32
868,99	1306,60
869,16	1234,93
869,33	1329,13
869,50	1261,55
869,66	1331,18
869,83	1335,28
870,00	1232,88
870,16	1304,56
870,33	1249,26
870,50	1206,25
870,66	1259,50
870,83	1241,07
871,00	1318,89
871,17	1271,79
871,33	1261,55
871,50	1275,88
871,67	1239,02
871,83	1322,99
872,00	1224,69
872,17	1316,84
872,33	1302,51
872,50	1331,18
872,67	1304,56
872,83	1279,98
873,00	1185,77
873,17	1269,74
873,33	1279,98
873,50	1265,64
873,67	1298,41
873,83	1284,08
874,00	1327,08
874,16	1277,93
874,33	1288,17
874,50	1361,90
874,66	1284,08
874,83	1255,40
875,00	1220,59
875,16	1239,02
875,33	1249,26
875,50	1245,16
875,66	1273,84
875,83	1208,30
875,99	1277,93
876,16	1245,16
876,33	1228,78
876,49	1232,88
876,66	1224,69
876,83	1257,45
876,99	1236,97
877,16	1284,08
877,32	1296,36
877,49	1234,93
877,66	1314,80
877,82	1284,08
877,99	1325,04
878,15	1257,45
878,32	1286,12
878,49	1245,16
878,65	1288,17
878,82	1249,26
878,98	1335,28
879,15	1331,18
879,32	1308,65
879,48	1247,21
879,65	1269,74
879,81	1214,45
879,98	1230,83
880,15	1224,69
880,31	1290,22
880,48	1263,60
880,64	1288,17
880,81	1304,56
880,97	1329,13
881,14	1298,41
881,31	1247,21
881,47	1290,22
881,64	1296,36
881,80	1314,80
881,97	1300,46
882,13	1329,13
882,30	1249,26
882,47	1282,03
882,63	1308,65
882,80	1212,40
882,96	1249,26
883,13	1300,46
883,29	1206,25
883,46	1308,65
883,62	1290,22
883,79	1263,60
883,95	1275,88
884,12	1275,88
884,29	1249,26
884,45	1292,27
884,62	1228,78
884,78	1263,60
884,95	1230,83
885,11	1282,03
885,28	1275,88
885,44	1255,40
885,61	1284,08
885,77	1249,26
885,94	1257,45
886,10	1273,84
886,27	1198,06
886,43	1253,36
886,60	1234,93
886,76	1327,08
886,93	1239,02
887,09	1275,88
887,26	1257,45
887,42	1300,46
887,59	1216,49
887,75	1325,04
887,92	1275,88
888,08	1271,79
888,25	1249,26
888,41	1253,36
888,58	1230,83
888,74	1271,79
888,91	1320,94
>>>>>End Processed Spectral Data<<<<<
