SpectraSuite Data File
++++++++++++++++++++++++++++++++++++
Date: Sun Apr 03 16:07:34 CEST 2016
User: root
Dark Spectrum Present: No
Reference Spectrum Present: No
Number of Sampled Component Spectra: 1
Spectrometers: USB4C02835
Integration Time (usec): 10000 (USB4C02835)
Spectra Averaged: 1 (USB4C02835)
Boxcar Smoothing: 0 (USB4C02835)
Correct for Electrical Dark: No (USB4C02835)
Strobe/Lamp Enabled: No (USB4C02835)
Correct for Detector Non-linearity: No (USB4C02835)
Correct for Stray Light: No (USB4C02835)
Number of Pixels in Processed Spectrum: 3648
>>>>>Begin Processed Spectral Data<<<<<
177,47	1255,40
177,69	1255,40
177,91	1255,40
178,13	1230,83
178,36	1277,93
178,58	1236,97
178,80	1267,69
179,02	1269,74
179,24	1230,83
179,46	1300,46
179,68	1286,12
179,90	1222,64
180,13	1271,79
180,35	1318,89
180,57	1196,01
180,79	1245,16
181,01	1173,49
181,23	1243,12
181,45	1259,50
181,67	1263,60
181,90	1345,52
182,12	1282,03
182,34	1204,21
182,56	1259,50
182,78	1290,22
183,00	1234,93
183,22	1150,96
183,44	1296,36
183,66	1288,17
183,89	1269,74
184,11	1212,40
184,33	1279,98
184,55	1200,11
184,77	1296,36
184,99	1261,55
185,21	1253,36
185,43	1314,80
185,65	1249,26
185,87	1263,60
186,10	1241,07
186,32	1257,45
186,54	1314,80
186,76	1271,79
186,98	1347,56
187,20	1257,45
187,42	1312,75
187,64	1228,78
187,86	1187,82
188,08	1298,41
188,30	1318,89
188,52	1300,46
188,75	1310,70
188,97	1359,85
189,19	1310,70
189,41	1343,47
189,63	1316,84
189,85	1241,07
190,07	1230,83
190,29	1208,30
190,51	1279,98
190,73	1222,64
190,95	1284,08
191,17	1337,32
191,39	1269,74
191,61	1253,36
191,84	1218,54
192,06	1300,46
192,28	1144,81
192,50	1314,80
192,72	1265,64
192,94	1253,36
193,16	1294,32
193,38	1273,84
193,60	1269,74
193,82	1296,36
194,04	1253,36
194,26	1265,64
194,48	1222,64
194,70	1314,80
194,92	1343,47
195,14	1239,02
195,36	1294,32
195,58	1265,64
195,80	1351,66
196,02	1282,03
196,24	1216,49
196,46	1306,60
196,69	1288,17
196,91	1267,69
197,13	1370,09
197,35	1226,73
197,57	1288,17
197,79	1216,49
198,01	1271,79
198,23	1265,64
198,45	1269,74
198,67	1290,22
198,89	1277,93
199,11	1249,26
199,33	1239,02
199,55	1273,84
199,77	1277,93
199,99	1253,36
200,21	1204,21
200,43	1249,26
200,65	1290,22
200,87	1302,51
201,09	1255,40
201,31	1206,25
201,53	1310,70
201,75	1249,26
201,97	1318,89
202,19	1282,03
202,41	1208,30
202,63	1357,80
202,85	1275,88
203,07	1288,17
203,29	1282,03
203,51	1337,32
203,73	1224,69
203,95	1189,87
204,17	1286,12
204,39	1255,40
204,61	1343,47
204,83	1265,64
205,05	1312,75
205,27	1304,56
205,49	1265,64
205,71	1294,32
205,93	1290,22
206,15	1318,89
206,37	1241,07
206,59	1249,26
206,81	1339,37
207,03	1290,22
207,25	1267,69
207,47	1232,88
207,69	1290,22
207,91	1296,36
208,13	1296,36
208,34	1241,07
208,56	1243,12
208,78	1339,37
209,00	1282,03
209,22	1288,17
209,44	1349,61
209,66	1224,69
209,88	1241,07
210,10	1236,97
210,32	1282,03
210,54	1308,65
210,76	1304,56
210,98	1253,36
211,20	1288,17
211,42	1284,08
211,64	1247,21
211,86	1290,22
212,08	1189,87
212,30	1304,56
212,52	1271,79
212,74	1349,61
212,96	1286,12
213,17	1261,55
213,39	1251,31
213,61	1232,88
213,83	1329,13
214,05	1261,55
214,27	1206,25
214,49	1312,75
214,71	1243,12
214,93	1279,98
215,15	1269,74
215,37	1267,69
215,59	1290,22
215,81	1296,36
216,03	1253,36
216,24	1216,49
216,46	1286,12
216,68	1247,21
216,90	1212,40
217,12	1308,65
217,34	1277,93
217,56	1308,65
217,78	1308,65
218,00	1255,40
218,22	1277,93
218,44	1325,04
218,66	1196,01
218,87	1193,97
219,09	1234,93
219,31	1259,50
219,53	1357,80
219,75	1318,89
219,97	1292,27
220,19	1271,79
220,41	1263,60
220,63	1322,99
220,85	1236,97
221,06	1271,79
221,28	1150,96
221,50	1335,28
221,72	1245,16
221,94	1271,79
222,16	1298,41
222,38	1273,84
222,60	1261,55
222,82	1402,86
223,03	1331,18
223,25	1286,12
223,47	1273,84
223,69	1234,93
223,91	1228,78
224,13	1288,17
224,35	1275,88
224,57	1263,60
224,78	1294,32
225,00	1271,79
225,22	1228,78
225,44	1257,45
225,66	1288,17
225,88	1251,31
226,10	1255,40
226,32	1327,08
226,53	1269,74
226,75	1261,55
226,97	1204,21
227,19	1163,25
227,41	1284,08
227,63	1349,61
227,85	1335,28
228,06	1230,83
228,28	1282,03
228,50	1220,59
228,72	1269,74
228,94	1306,60
229,16	1271,79
229,37	1322,99
229,59	1286,12
229,81	1230,83
230,03	1208,30
230,25	1288,17
230,47	1253,36
230,69	1273,84
230,90	1187,82
231,12	1208,30
231,34	1214,45
231,56	1265,64
231,78	1220,59
232,00	1257,45
232,21	1259,50
232,43	1296,36
232,65	1212,40
232,87	1273,84
233,09	1284,08
233,30	1327,08
233,52	1277,93
233,74	1253,36
233,96	1269,74
234,18	1265,64
234,40	1277,93
234,61	1271,79
234,83	1304,56
235,05	1286,12
235,27	1290,22
235,49	1245,16
235,70	1308,65
235,92	1275,88
236,14	1212,40
236,36	1337,32
236,58	1251,31
236,79	1253,36
237,01	1273,84
237,23	1298,41
237,45	1279,98
237,67	1224,69
237,88	1245,16
238,10	1290,22
238,32	1228,78
238,54	1249,26
238,76	1228,78
238,97	1273,84
239,19	1290,22
239,41	1290,22
239,63	1343,47
239,85	1255,40
240,06	1263,60
240,28	1314,80
240,50	1208,30
240,72	1257,45
240,93	1279,98
241,15	1265,64
241,37	1282,03
241,59	1353,71
241,81	1265,64
242,02	1247,21
242,24	1218,54
242,46	1247,21
242,68	1267,69
242,89	1288,17
243,11	1259,50
243,33	1196,01
243,55	1277,93
243,76	1308,65
243,98	1282,03
244,20	1296,36
244,42	1347,56
244,64	1325,04
244,85	1255,40
245,07	1214,45
245,29	1212,40
245,51	1327,08
245,72	1243,12
245,94	1187,82
246,16	1212,40
246,38	1314,80
246,59	1247,21
246,81	1273,84
247,03	1247,21
247,24	1310,70
247,46	1234,93
247,68	1257,45
247,90	1302,51
248,11	1236,97
248,33	1255,40
248,55	1288,17
248,77	1220,59
248,98	1232,88
249,20	1290,22
249,42	1239,02
249,64	1273,84
249,85	1228,78
250,07	1337,32
250,29	1243,12
250,50	1296,36
250,72	1345,52
250,94	1196,01
251,16	1316,84
251,37	1282,03
251,59	1355,76
251,81	1304,56
252,02	1273,84
252,24	1232,88
252,46	1279,98
252,68	1208,30
252,89	1290,22
253,11	1294,32
253,33	1353,71
253,54	1275,88
253,76	1263,60
253,98	1265,64
254,20	1306,60
254,41	1327,08
254,63	1265,64
254,85	1298,41
255,06	1196,01
255,28	1298,41
255,50	1239,02
255,71	1206,25
255,93	1279,98
256,15	1325,04
256,36	1271,79
256,58	1210,35
256,80	1222,64
257,02	1290,22
257,23	1322,99
257,45	1249,26
257,67	1298,41
257,88	1218,54
258,10	1312,75
258,32	1314,80
258,53	1253,36
258,75	1292,27
258,97	1310,70
259,18	1282,03
259,40	1271,79
259,62	1286,12
259,83	1282,03
260,05	1245,16
260,27	1286,12
260,48	1302,51
260,70	1263,60
260,92	1259,50
261,13	1314,80
261,35	1269,74
261,57	1318,89
261,78	1273,84
262,00	1279,98
262,22	1269,74
262,43	1269,74
262,65	1226,73
262,86	1265,64
263,08	1261,55
263,30	1304,56
263,51	1245,16
263,73	1308,65
263,95	1292,27
264,16	1239,02
264,38	1310,70
264,60	1273,84
264,81	1277,93
265,03	1275,88
265,25	1267,69
265,46	1261,55
265,68	1239,02
265,89	1282,03
266,11	1284,08
266,33	1292,27
266,54	1251,31
266,76	1282,03
266,98	1265,64
267,19	1267,69
267,41	1247,21
267,62	1314,80
267,84	1214,45
268,06	1230,83
268,27	1261,55
268,49	1316,84
268,70	1239,02
268,92	1245,16
269,14	1249,26
269,35	1271,79
269,57	1249,26
269,79	1202,16
270,00	1265,64
270,22	1312,75
270,43	1251,31
270,65	1198,06
270,87	1282,03
271,08	1306,60
271,30	1200,11
271,51	1251,31
271,73	1275,88
271,95	1322,99
272,16	1261,55
272,38	1288,17
272,59	1220,59
272,81	1310,70
273,02	1337,32
273,24	1306,60
273,46	1296,36
273,67	1210,35
273,89	1261,55
274,10	1294,32
274,32	1282,03
274,54	1298,41
274,75	1286,12
274,97	1204,21
275,18	1269,74
275,40	1298,41
275,61	1239,02
275,83	1247,21
276,05	1177,58
276,26	1265,64
276,48	1249,26
276,69	1265,64
276,91	1277,93
277,12	1282,03
277,34	1296,36
277,55	1314,80
277,77	1290,22
277,99	1259,50
278,20	1290,22
278,42	1279,98
278,63	1259,50
278,85	1347,56
279,06	1239,02
279,28	1181,68
279,49	1224,69
279,71	1228,78
279,93	1251,31
280,14	1263,60
280,36	1275,88
280,57	1341,42
280,79	1257,45
281,00	1271,79
281,22	1239,02
281,43	1298,41
281,65	1204,21
281,86	1312,75
282,08	1296,36
282,29	1253,36
282,51	1294,32
282,73	1243,12
282,94	1257,45
283,16	1296,36
283,37	1187,82
283,59	1337,32
283,80	1253,36
284,02	1200,11
284,23	1253,36
284,45	1306,60
284,66	1251,31
284,88	1279,98
285,09	1269,74
285,31	1245,16
285,52	1255,40
285,74	1208,30
285,95	1183,73
286,17	1257,45
286,38	1310,70
286,60	1249,26
286,81	1322,99
287,03	1306,60
287,24	1230,83
287,46	1290,22
287,67	1284,08
287,89	1220,59
288,10	1226,73
288,32	1288,17
288,53	1263,60
288,75	1249,26
288,96	1327,08
289,18	1177,58
289,39	1267,69
289,61	1282,03
289,82	1290,22
290,04	1316,84
290,25	1259,50
290,47	1251,31
290,68	1230,83
290,90	1261,55
291,11	1232,88
291,33	1279,98
291,54	1267,69
291,76	1261,55
291,97	1290,22
292,18	1306,60
292,40	1353,71
292,61	1245,16
292,83	1378,28
293,04	1314,80
293,26	1286,12
293,47	1224,69
293,69	1212,40
293,90	1296,36
294,12	1302,51
294,33	1257,45
294,55	1259,50
294,76	1294,32
294,97	1282,03
295,19	1284,08
295,40	1320,94
295,62	1302,51
295,83	1329,13
296,05	1243,12
296,26	1267,69
296,48	1316,84
296,69	1312,75
296,90	1208,30
297,12	1249,26
297,33	1290,22
297,55	1222,64
297,76	1273,84
297,98	1318,89
298,19	1282,03
298,41	1304,56
298,62	1296,36
298,83	1322,99
299,05	1329,13
299,26	1345,52
299,48	1322,99
299,69	1363,95
299,90	1253,36
300,12	1267,69
300,33	1210,35
300,55	1318,89
300,76	1308,65
300,98	1232,88
301,19	1294,32
301,40	1183,73
301,62	1239,02
301,83	1294,32
302,05	1222,64
302,26	1296,36
302,47	1294,32
302,69	1269,74
302,90	1267,69
303,12	1279,98
303,33	1275,88
303,54	1253,36
303,76	1267,69
303,97	1284,08
304,19	1284,08
304,40	1322,99
304,61	1212,40
304,83	1339,37
305,04	1282,03
305,26	1239,02
305,47	1255,40
305,68	1310,70
305,90	1243,12
306,11	1239,02
306,33	1265,64
306,54	1292,27
306,75	1232,88
306,97	1282,03
307,18	1322,99
307,39	1306,60
307,61	1294,32
307,82	1253,36
308,04	1306,60
308,25	1263,60
308,46	1316,84
308,68	1236,97
308,89	1253,36
309,10	1273,84
309,32	1304,56
309,53	1247,21
309,74	1286,12
309,96	1234,93
310,17	1163,25
310,39	1294,32
310,60	1214,45
310,81	1267,69
311,03	1251,31
311,24	1288,17
311,45	1331,18
311,67	1243,12
311,88	1243,12
312,09	1251,31
312,31	1312,75
312,52	1306,60
312,73	1247,21
312,95	1325,04
313,16	1341,42
313,37	1247,21
313,59	1275,88
313,80	1265,64
314,01	1314,80
314,23	1265,64
314,44	1353,71
314,65	1241,07
314,87	1288,17
315,08	1269,74
315,29	1265,64
315,51	1257,45
315,72	1259,50
315,93	1320,94
316,15	1251,31
316,36	1343,47
316,57	1310,70
316,79	1296,36
317,00	1263,60
317,21	1302,51
317,43	1341,42
317,64	1257,45
317,85	1265,64
318,07	1296,36
318,28	1284,08
318,49	1263,60
318,70	1191,92
318,92	1296,36
319,13	1232,88
319,34	1294,32
319,56	1279,98
319,77	1241,07
319,98	1277,93
320,20	1277,93
320,41	1355,76
320,62	1265,64
320,83	1239,02
321,05	1288,17
321,26	1243,12
321,47	1298,41
321,69	1255,40
321,90	1294,32
322,11	1282,03
322,32	1290,22
322,54	1290,22
322,75	1232,88
322,96	1312,75
323,18	1288,17
323,39	1312,75
323,60	1286,12
323,81	1236,97
324,03	1204,21
324,24	1224,69
324,45	1224,69
324,66	1263,60
324,88	1245,16
325,09	1333,23
325,30	1236,97
325,52	1267,69
325,73	1216,49
325,94	1279,98
326,15	1249,26
326,37	1269,74
326,58	1253,36
326,79	1327,08
327,00	1298,41
327,22	1214,45
327,43	1296,36
327,64	1144,81
327,85	1279,98
328,07	1335,28
328,28	1277,93
328,49	1298,41
328,70	1259,50
328,92	1208,30
329,13	1345,52
329,34	1255,40
329,55	1339,37
329,76	1216,49
329,98	1208,30
330,19	1271,79
330,40	1249,26
330,61	1318,89
330,83	1271,79
331,04	1310,70
331,25	1275,88
331,46	1298,41
331,68	1263,60
331,89	1243,12
332,10	1298,41
332,31	1298,41
332,52	1210,35
332,74	1224,69
332,95	1263,60
333,16	1241,07
333,37	1249,26
333,58	1259,50
333,80	1341,42
334,01	1331,18
334,22	1265,64
334,43	1228,78
334,64	1290,22
334,86	1273,84
335,07	1271,79
335,28	1335,28
335,49	1290,22
335,70	1255,40
335,92	1236,97
336,13	1212,40
336,34	1259,50
336,55	1288,17
336,76	1232,88
336,98	1210,35
337,19	1241,07
337,40	1247,21
337,61	1271,79
337,82	1302,51
338,04	1251,31
338,25	1296,36
338,46	1308,65
338,67	1296,36
338,88	1288,17
339,09	1333,23
339,31	1245,16
339,52	1275,88
339,73	1257,45
339,94	1230,83
340,15	1306,60
340,36	1337,32
340,58	1253,36
340,79	1261,55
341,00	1239,02
341,21	1255,40
341,42	1306,60
341,63	1304,56
341,85	1275,88
342,06	1255,40
342,27	1271,79
342,48	1212,40
342,69	1189,87
342,90	1222,64
343,12	1322,99
343,33	1284,08
343,54	1290,22
343,75	1269,74
343,96	1263,60
344,17	1286,12
344,38	1243,12
344,60	1288,17
344,81	1249,26
345,02	1241,07
345,23	1302,51
345,44	1339,37
345,65	1228,78
345,86	1294,32
346,07	1304,56
346,29	1206,25
346,50	1216,49
346,71	1259,50
346,92	1282,03
347,13	1277,93
347,34	1288,17
347,55	1193,97
347,76	1312,75
347,98	1275,88
348,19	1232,88
348,40	1298,41
348,61	1255,40
348,82	1239,02
349,03	1236,97
349,24	1314,80
349,45	1277,93
349,66	1292,27
349,88	1232,88
350,09	1255,40
350,30	1302,51
350,51	1341,42
350,72	1298,41
350,93	1335,28
351,14	1224,69
351,35	1249,26
351,56	1185,77
351,77	1300,46
351,99	1300,46
352,20	1243,12
352,41	1261,55
352,62	1163,25
352,83	1153,01
353,04	1282,03
353,25	1273,84
353,46	1277,93
353,67	1292,27
353,88	1306,60
354,09	1273,84
354,30	1279,98
354,52	1316,84
354,73	1230,83
354,94	1261,55
355,15	1306,60
355,36	1406,95
355,57	1304,56
355,78	1279,98
355,99	1243,12
356,20	1138,67
356,41	1261,55
356,62	1265,64
356,83	1249,26
357,04	1214,45
357,25	1292,27
357,46	1314,80
357,68	1290,22
357,89	1298,41
358,10	1333,23
358,31	1273,84
358,52	1267,69
358,73	1308,65
358,94	1222,64
359,15	1243,12
359,36	1310,70
359,57	1228,78
359,78	1292,27
359,99	1212,40
360,20	1249,26
360,41	1331,18
360,62	1193,97
360,83	1269,74
361,04	1241,07
361,25	1261,55
361,46	1273,84
361,67	1304,56
361,88	1282,03
362,09	1277,93
362,30	1316,84
362,51	1337,32
362,72	1261,55
362,93	1247,21
363,14	1277,93
363,35	1230,83
363,56	1218,54
363,78	1282,03
363,99	1273,84
364,20	1335,28
364,41	1230,83
364,62	1333,23
364,83	1232,88
365,04	1310,70
365,25	1290,22
365,46	1265,64
365,67	1288,17
365,88	1222,64
366,09	1275,88
366,30	1255,40
366,51	1296,36
366,72	1314,80
366,93	1279,98
367,14	1298,41
367,35	1349,61
367,56	1300,46
367,77	1263,60
367,98	1243,12
368,18	1310,70
368,39	1322,99
368,60	1239,02
368,81	1220,59
369,02	1339,37
369,23	1286,12
369,44	1263,60
369,65	1302,51
369,86	1335,28
370,07	1263,60
370,28	1329,13
370,49	1290,22
370,70	1318,89
370,91	1277,93
371,12	1290,22
371,33	1265,64
371,54	1239,02
371,75	1312,75
371,96	1214,45
372,17	1196,01
372,38	1292,27
372,59	1251,31
372,80	1249,26
373,01	1243,12
373,22	1247,21
373,43	1257,45
373,64	1255,40
373,85	1322,99
374,06	1234,93
374,26	1363,95
374,47	1292,27
374,68	1185,77
374,89	1298,41
375,10	1282,03
375,31	1206,25
375,52	1236,97
375,73	1269,74
375,94	1282,03
376,15	1273,84
376,36	1271,79
376,57	1224,69
376,78	1261,55
376,99	1261,55
377,20	1247,21
377,40	1335,28
377,61	1294,32
377,82	1239,02
378,03	1294,32
378,24	1345,52
378,45	1320,94
378,66	1273,84
378,87	1183,73
379,08	1263,60
379,29	1228,78
379,50	1269,74
379,71	1267,69
379,91	1251,31
380,12	1206,25
380,33	1298,41
380,54	1310,70
380,75	1275,88
380,96	1273,84
381,17	1263,60
381,38	1343,47
381,59	1286,12
381,80	1331,18
382,00	1308,65
382,21	1241,07
382,42	1273,84
382,63	1316,84
382,84	1277,93
383,05	1370,09
383,26	1275,88
383,47	1290,22
383,68	1247,21
383,88	1290,22
384,09	1230,83
384,30	1228,78
384,51	1298,41
384,72	1271,79
384,93	1226,73
385,14	1236,97
385,35	1308,65
385,55	1318,89
385,76	1265,64
385,97	1253,36
386,18	1292,27
386,39	1249,26
386,60	1271,79
386,81	1253,36
387,02	1296,36
387,22	1230,83
387,43	1337,32
387,64	1296,36
387,85	1263,60
388,06	1290,22
388,27	1304,56
388,48	1253,36
388,68	1372,14
388,89	1267,69
389,10	1267,69
389,31	1286,12
389,52	1232,88
389,73	1216,49
389,93	1308,65
390,14	1306,60
390,35	1359,85
390,56	1251,31
390,77	1302,51
390,98	1249,26
391,18	1286,12
391,39	1230,83
391,60	1273,84
391,81	1312,75
392,02	1314,80
392,23	1339,37
392,43	1239,02
392,64	1265,64
392,85	1273,84
393,06	1290,22
393,27	1361,90
393,47	1282,03
393,68	1265,64
393,89	1206,25
394,10	1245,16
394,31	1267,69
394,52	1245,16
394,72	1241,07
394,93	1224,69
395,14	1247,21
395,35	1259,50
395,56	1327,08
395,76	1210,35
395,97	1304,56
396,18	1243,12
396,39	1294,32
396,60	1200,11
396,80	1347,56
397,01	1351,66
397,22	1243,12
397,43	1292,27
397,64	1277,93
397,84	1218,54
398,05	1206,25
398,26	1284,08
398,47	1261,55
398,67	1316,84
398,88	1169,39
399,09	1288,17
399,30	1253,36
399,51	1296,36
399,71	1247,21
399,92	1251,31
400,13	1259,50
400,34	1282,03
400,54	1236,97
400,75	1331,18
400,96	1245,16
401,17	1239,02
401,37	1255,40
401,58	1322,99
401,79	1322,99
402,00	1251,31
402,21	1265,64
402,41	1243,12
402,62	1222,64
402,83	1263,60
403,04	1357,80
403,24	1253,36
403,45	1239,02
403,66	1257,45
403,87	1226,73
404,07	1265,64
404,28	1222,64
404,49	1212,40
404,70	1243,12
404,90	1216,49
405,11	1296,36
405,32	1298,41
405,52	1245,16
405,73	1218,54
405,94	1329,13
406,15	1290,22
406,35	1253,36
406,56	1296,36
406,77	1318,89
406,98	1181,68
407,18	1265,64
407,39	1353,71
407,60	1279,98
407,80	1300,46
408,01	1255,40
408,22	1271,79
408,43	1288,17
408,63	1265,64
408,84	1224,69
409,05	1200,11
409,25	1267,69
409,46	1288,17
409,67	1271,79
409,88	1208,30
410,08	1284,08
410,29	1271,79
410,50	1259,50
410,70	1316,84
410,91	1296,36
411,12	1234,93
411,32	1257,45
411,53	1304,56
411,74	1249,26
411,95	1298,41
412,15	1282,03
412,36	1290,22
412,57	1294,32
412,77	1284,08
412,98	1161,20
413,19	1263,60
413,39	1234,93
413,60	1296,36
413,81	1275,88
414,01	1249,26
414,22	1288,17
414,43	1220,59
414,63	1239,02
414,84	1191,92
415,05	1316,84
415,25	1286,12
415,46	1288,17
415,67	1193,97
415,87	1300,46
416,08	1282,03
416,29	1200,11
416,49	1263,60
416,70	1157,10
416,91	1263,60
417,11	1247,21
417,32	1247,21
417,53	1308,65
417,73	1333,23
417,94	1263,60
418,15	1224,69
418,35	1232,88
418,56	1259,50
418,77	1255,40
418,97	1282,03
419,18	1327,08
419,38	1232,88
419,59	1183,73
419,80	1314,80
420,00	1357,80
420,21	1347,56
420,42	1372,14
420,62	1265,64
420,83	1290,22
421,04	1284,08
421,24	1243,12
421,45	1306,60
421,65	1282,03
421,86	1210,35
422,07	1230,83
422,27	1273,84
422,48	1269,74
422,69	1230,83
422,89	1206,25
423,10	1288,17
423,30	1234,93
423,51	1224,69
423,72	1267,69
423,92	1214,45
424,13	1210,35
424,33	1241,07
424,54	1288,17
424,75	1251,31
424,95	1300,46
425,16	1308,65
425,36	1292,27
425,57	1245,16
425,78	1200,11
425,98	1261,55
426,19	1196,01
426,39	1300,46
426,60	1279,98
426,81	1247,21
427,01	1267,69
427,22	1312,75
427,42	1269,74
427,63	1269,74
427,83	1279,98
428,04	1257,45
428,25	1282,03
428,45	1241,07
428,66	1353,71
428,86	1163,25
429,07	1187,82
429,28	1316,84
429,48	1232,88
429,69	1327,08
429,89	1247,21
430,10	1271,79
430,30	1292,27
430,51	1314,80
430,71	1306,60
430,92	1279,98
431,13	1288,17
431,33	1185,77
431,54	1290,22
431,74	1271,79
431,95	1224,69
432,15	1273,84
432,36	1247,21
432,56	1298,41
432,77	1228,78
432,98	1388,52
433,18	1198,06
433,39	1214,45
433,59	1257,45
433,80	1304,56
434,00	1234,93
434,21	1222,64
434,41	1210,35
434,62	1312,75
434,82	1261,55
435,03	1259,50
435,23	1257,45
435,44	1247,21
435,64	1286,12
435,85	1253,36
436,06	1234,93
436,26	1267,69
436,47	1236,97
436,67	1265,64
436,88	1308,65
437,08	1294,32
437,29	1271,79
437,49	1302,51
437,70	1187,82
437,90	1267,69
438,11	1277,93
438,31	1239,02
438,52	1284,08
438,72	1294,32
438,93	1306,60
439,13	1322,99
439,34	1241,07
439,54	1196,01
439,75	1288,17
439,95	1333,23
440,16	1329,13
440,36	1269,74
440,57	1228,78
440,77	1251,31
440,98	1316,84
441,18	1329,13
441,39	1273,84
441,59	1253,36
441,80	1327,08
442,00	1290,22
442,21	1302,51
442,41	1236,97
442,62	1173,49
442,82	1249,26
443,02	1232,88
443,23	1259,50
443,43	1267,69
443,64	1290,22
443,84	1277,93
444,05	1279,98
444,25	1267,69
444,46	1271,79
444,66	1277,93
444,87	1329,13
445,07	1275,88
445,28	1302,51
445,48	1282,03
445,69	1277,93
445,89	1257,45
446,09	1271,79
446,30	1259,50
446,50	1273,84
446,71	1296,36
446,91	1292,27
447,12	1277,93
447,32	1267,69
447,53	1234,93
447,73	1296,36
447,93	1314,80
448,14	1241,07
448,34	1241,07
448,55	1245,16
448,75	1259,50
448,96	1261,55
449,16	1249,26
449,36	1277,93
449,57	1228,78
449,77	1236,97
449,98	1267,69
450,18	1224,69
450,39	1298,41
450,59	1302,51
450,79	1212,40
451,00	1198,06
451,20	1300,46
451,41	1226,73
451,61	1243,12
451,81	1327,08
452,02	1249,26
452,22	1269,74
452,43	1279,98
452,63	1198,06
452,84	1294,32
453,04	1263,60
453,24	1290,22
453,45	1292,27
453,65	1253,36
453,86	1241,07
454,06	1312,75
454,26	1249,26
454,47	1296,36
454,67	1282,03
454,87	1318,89
455,08	1302,51
455,28	1320,94
455,49	1318,89
455,69	1269,74
455,89	1247,21
456,10	1279,98
456,30	1265,64
456,51	1306,60
456,71	1282,03
456,91	1265,64
457,12	1196,01
457,32	1263,60
457,52	1232,88
457,73	1239,02
457,93	1304,56
458,14	1253,36
458,34	1292,27
458,54	1288,17
458,75	1191,92
458,95	1273,84
459,15	1279,98
459,36	1271,79
459,56	1294,32
459,76	1329,13
459,97	1241,07
460,17	1298,41
460,37	1265,64
460,58	1261,55
460,78	1243,12
460,99	1269,74
461,19	1306,60
461,39	1234,93
461,60	1322,99
461,80	1236,97
462,00	1253,36
462,21	1290,22
462,41	1239,02
462,61	1314,80
462,82	1210,35
463,02	1198,06
463,22	1318,89
463,43	1284,08
463,63	1263,60
463,83	1247,21
464,04	1226,73
464,24	1267,69
464,44	1259,50
464,64	1257,45
464,85	1273,84
465,05	1261,55
465,25	1257,45
465,46	1249,26
465,66	1306,60
465,86	1294,32
466,07	1347,56
466,27	1269,74
466,47	1308,65
466,68	1308,65
466,88	1239,02
467,08	1222,64
467,29	1302,51
467,49	1284,08
467,69	1226,73
467,89	1167,34
468,10	1236,97
468,30	1259,50
468,50	1261,55
468,71	1218,54
468,91	1214,45
469,11	1294,32
469,31	1214,45
469,52	1265,64
469,72	1263,60
469,92	1247,21
470,13	1279,98
470,33	1236,97
470,53	1279,98
470,73	1253,36
470,94	1265,64
471,14	1282,03
471,34	1304,56
471,54	1345,52
471,75	1257,45
471,95	1265,64
472,15	1204,21
472,36	1312,75
472,56	1234,93
472,76	1239,02
472,96	1198,06
473,17	1204,21
473,37	1177,58
473,57	1298,41
473,77	1286,12
473,98	1171,44
474,18	1222,64
474,38	1331,18
474,58	1202,16
474,79	1232,88
474,99	1253,36
475,19	1257,45
475,39	1218,54
475,60	1290,22
475,80	1253,36
476,00	1204,21
476,20	1331,18
476,41	1279,98
476,61	1163,25
476,81	1294,32
477,01	1216,49
477,21	1310,70
477,42	1267,69
477,62	1355,76
477,82	1316,84
478,02	1245,16
478,23	1249,26
478,43	1269,74
478,63	1247,21
478,83	1275,88
479,03	1249,26
479,24	1230,83
479,44	1275,88
479,64	1228,78
479,84	1208,30
480,04	1318,89
480,25	1228,78
480,45	1259,50
480,65	1325,04
480,85	1304,56
481,06	1300,46
481,26	1282,03
481,46	1271,79
481,66	1312,75
481,86	1282,03
482,06	1275,88
482,27	1255,40
482,47	1288,17
482,67	1279,98
482,87	1327,08
483,07	1316,84
483,28	1216,49
483,48	1247,21
483,68	1241,07
483,88	1249,26
484,08	1216,49
484,29	1327,08
484,49	1267,69
484,69	1284,08
484,89	1261,55
485,09	1284,08
485,29	1288,17
485,50	1273,84
485,70	1308,65
485,90	1296,36
486,10	1333,23
486,30	1224,69
486,50	1265,64
486,71	1239,02
486,91	1224,69
487,11	1282,03
487,31	1236,97
487,51	1239,02
487,71	1198,06
487,91	1249,26
488,12	1191,92
488,32	1329,13
488,52	1298,41
488,72	1337,32
488,92	1224,69
489,12	1249,26
489,32	1251,31
489,53	1318,89
489,73	1275,88
489,93	1236,97
490,13	1298,41
490,33	1263,60
490,53	1296,36
490,73	1198,06
490,94	1265,64
491,14	1234,93
491,34	1310,70
491,54	1200,11
491,74	1171,44
491,94	1288,17
492,14	1267,69
492,34	1230,83
492,54	1320,94
492,75	1255,40
492,95	1253,36
493,15	1288,17
493,35	1245,16
493,55	1257,45
493,75	1216,49
493,95	1353,71
494,15	1286,12
494,35	1241,07
494,56	1271,79
494,76	1312,75
494,96	1275,88
495,16	1245,16
495,36	1218,54
495,56	1245,16
495,76	1181,68
495,96	1290,22
496,16	1224,69
496,36	1290,22
496,56	1302,51
496,77	1265,64
496,97	1331,18
497,17	1255,40
497,37	1253,36
497,57	1306,60
497,77	1222,64
497,97	1263,60
498,17	1210,35
498,37	1236,97
498,57	1294,32
498,77	1296,36
498,97	1200,11
499,17	1255,40
499,38	1308,65
499,58	1216,49
499,78	1269,74
499,98	1279,98
500,18	1288,17
500,38	1183,73
500,58	1267,69
500,78	1259,50
500,98	1275,88
501,18	1253,36
501,38	1257,45
501,58	1284,08
501,78	1294,32
501,98	1325,04
502,18	1247,21
502,38	1222,64
502,58	1286,12
502,78	1290,22
502,98	1294,32
503,18	1255,40
503,38	1259,50
503,59	1253,36
503,79	1261,55
503,99	1296,36
504,19	1261,55
504,39	1265,64
504,59	1263,60
504,79	1327,08
504,99	1279,98
505,19	1253,36
505,39	1187,82
505,59	1312,75
505,79	1224,69
505,99	1292,27
506,19	1261,55
506,39	1255,40
506,59	1236,97
506,79	1314,80
506,99	1312,75
507,19	1265,64
507,39	1259,50
507,59	1275,88
507,79	1314,80
507,99	1288,17
508,19	1279,98
508,39	1259,50
508,59	1241,07
508,79	1245,16
508,99	1241,07
509,19	1251,31
509,39	1249,26
509,59	1191,92
509,79	1255,40
509,99	1271,79
510,19	1218,54
510,39	1331,18
510,59	1253,36
510,79	1243,12
510,99	1245,16
511,19	1306,60
511,39	1259,50
511,59	1302,51
511,79	1312,75
511,99	1343,47
512,19	1310,70
512,38	1271,79
512,58	1206,25
512,78	1318,89
512,98	1245,16
513,18	1320,94
513,38	1257,45
513,58	1316,84
513,78	1282,03
513,98	1263,60
514,18	1261,55
514,38	1304,56
514,58	1241,07
514,78	1257,45
514,98	1269,74
515,18	1239,02
515,38	1234,93
515,58	1241,07
515,78	1191,92
515,98	1257,45
516,18	1243,12
516,38	1273,84
516,57	1226,73
516,77	1265,64
516,97	1253,36
517,17	1325,04
517,37	1255,40
517,57	1230,83
517,77	1236,97
517,97	1265,64
518,17	1275,88
518,37	1306,60
518,57	1218,54
518,77	1327,08
518,97	1226,73
519,16	1273,84
519,36	1322,99
519,56	1167,34
519,76	1304,56
519,96	1214,45
520,16	1239,02
520,36	1314,80
520,56	1212,40
520,76	1259,50
520,96	1279,98
521,16	1216,49
521,35	1261,55
521,55	1290,22
521,75	1224,69
521,95	1296,36
522,15	1239,02
522,35	1304,56
522,55	1382,38
522,75	1271,79
522,95	1257,45
523,14	1204,21
523,34	1331,18
523,54	1284,08
523,74	1249,26
523,94	1314,80
524,14	1310,70
524,34	1263,60
524,54	1306,60
524,73	1200,11
524,93	1257,45
525,13	1261,55
525,33	1259,50
525,53	1300,46
525,73	1243,12
525,93	1249,26
526,13	1290,22
526,32	1259,50
526,52	1239,02
526,72	1259,50
526,92	1308,65
527,12	1294,32
527,32	1241,07
527,52	1298,41
527,71	1257,45
527,91	1249,26
528,11	1271,79
528,31	1267,69
528,51	1193,97
528,71	1228,78
528,90	1314,80
529,10	1253,36
529,30	1304,56
529,50	1257,45
529,70	1320,94
529,90	1269,74
530,09	1277,93
530,29	1314,80
530,49	1208,30
530,69	1294,32
530,89	1263,60
531,09	1343,47
531,28	1210,35
531,48	1198,06
531,68	1265,64
531,88	1173,49
532,08	1263,60
532,28	1294,32
532,47	1279,98
532,67	1300,46
532,87	1265,64
533,07	1230,83
533,27	1337,32
533,46	1271,79
533,66	1310,70
533,86	1253,36
534,06	1249,26
534,26	1245,16
534,45	1224,69
534,65	1196,01
534,85	1251,31
535,05	1222,64
535,25	1187,82
535,44	1239,02
535,64	1212,40
535,84	1230,83
536,04	1259,50
536,24	1273,84
536,43	1308,65
536,63	1259,50
536,83	1265,64
537,03	1253,36
537,22	1290,22
537,42	1202,16
537,62	1261,55
537,82	1224,69
538,02	1271,79
538,21	1214,45
538,41	1298,41
538,61	1208,30
538,81	1298,41
539,00	1232,88
539,20	1310,70
539,40	1208,30
539,60	1241,07
539,79	1275,88
539,99	1290,22
540,19	1216,49
540,39	1271,79
540,58	1243,12
540,78	1253,36
540,98	1236,97
541,18	1282,03
541,37	1247,21
541,57	1267,69
541,77	1300,46
541,97	1241,07
542,16	1224,69
542,36	1277,93
542,56	1368,04
542,76	1290,22
542,95	1333,23
543,15	1279,98
543,35	1337,32
543,54	1191,92
543,74	1331,18
543,94	1306,60
544,14	1302,51
544,33	1314,80
544,53	1277,93
544,73	1247,21
544,93	1298,41
545,12	1198,06
545,32	1286,12
545,52	1202,16
545,71	1302,51
545,91	1214,45
546,11	1232,88
546,30	1259,50
546,50	1312,75
546,70	1247,21
546,90	1327,08
547,09	1290,22
547,29	1296,36
547,49	1239,02
547,68	1255,40
547,88	1296,36
548,08	1247,21
548,27	1257,45
548,47	1353,71
548,67	1298,41
548,87	1298,41
549,06	1275,88
549,26	1239,02
549,46	1247,21
549,65	1208,30
549,85	1312,75
550,05	1279,98
550,24	1269,74
550,44	1329,13
550,64	1314,80
550,83	1282,03
551,03	1286,12
551,23	1282,03
551,42	1347,56
551,62	1239,02
551,82	1214,45
552,01	1202,16
552,21	1243,12
552,41	1306,60
552,60	1277,93
552,80	1230,83
553,00	1249,26
553,19	1214,45
553,39	1320,94
553,59	1312,75
553,78	1241,07
553,98	1363,95
554,17	1265,64
554,37	1261,55
554,57	1273,84
554,76	1271,79
554,96	1249,26
555,16	1220,59
555,35	1308,65
555,55	1277,93
555,75	1292,27
555,94	1263,60
556,14	1275,88
556,33	1245,16
556,53	1257,45
556,73	1265,64
556,92	1265,64
557,12	1298,41
557,32	1247,21
557,51	1259,50
557,71	1304,56
557,90	1267,69
558,10	1241,07
558,30	1288,17
558,49	1306,60
558,69	1271,79
558,88	1253,36
559,08	1294,32
559,28	1286,12
559,47	1214,45
559,67	1284,08
559,86	1259,50
560,06	1284,08
560,26	1275,88
560,45	1247,21
560,65	1247,21
560,84	1187,82
561,04	1351,66
561,24	1288,17
561,43	1265,64
561,63	1196,01
561,82	1284,08
562,02	1210,35
562,22	1271,79
562,41	1282,03
562,61	1247,21
562,80	1271,79
563,00	1226,73
563,19	1275,88
563,39	1243,12
563,59	1196,01
563,78	1251,31
563,98	1298,41
564,17	1216,49
564,37	1300,46
564,56	1202,16
564,76	1218,54
564,96	1290,22
565,15	1312,75
565,35	1230,83
565,54	1224,69
565,74	1275,88
565,93	1275,88
566,13	1247,21
566,32	1236,97
566,52	1282,03
566,71	1277,93
566,91	1279,98
567,11	1144,81
567,30	1273,84
567,50	1353,71
567,69	1314,80
567,89	1322,99
568,08	1253,36
568,28	1226,73
568,47	1325,04
568,67	1316,84
568,86	1265,64
569,06	1265,64
569,25	1165,29
569,45	1267,69
569,64	1286,12
569,84	1273,84
570,04	1302,51
570,23	1177,58
570,43	1300,46
570,62	1304,56
570,82	1226,73
571,01	1239,02
571,21	1339,37
571,40	1224,69
571,60	1220,59
571,79	1222,64
571,99	1255,40
572,18	1259,50
572,38	1261,55
572,57	1269,74
572,77	1290,22
572,96	1279,98
573,16	1257,45
573,35	1269,74
573,55	1273,84
573,74	1206,25
573,94	1267,69
574,13	1210,35
574,33	1216,49
574,52	1312,75
574,71	1263,60
574,91	1277,93
575,10	1251,31
575,30	1261,55
575,49	1290,22
575,69	1286,12
575,88	1267,69
576,08	1245,16
576,27	1304,56
576,47	1265,64
576,66	1269,74
576,86	1282,03
577,05	1259,50
577,25	1245,16
577,44	1255,40
577,64	1245,16
577,83	1241,07
578,02	1206,25
578,22	1363,95
578,41	1294,32
578,61	1314,80
578,80	1198,06
579,00	1275,88
579,19	1261,55
579,39	1335,28
579,58	1226,73
579,77	1189,87
579,97	1263,60
580,16	1232,88
580,36	1265,64
580,55	1304,56
580,75	1351,66
580,94	1273,84
581,13	1255,40
581,33	1259,50
581,52	1312,75
581,72	1204,21
581,91	1245,16
582,11	1337,32
582,30	1243,12
582,49	1200,11
582,69	1265,64
582,88	1292,27
583,08	1279,98
583,27	1255,40
583,47	1206,25
583,66	1204,21
583,85	1290,22
584,05	1337,32
584,24	1255,40
584,44	1310,70
584,63	1257,45
584,82	1257,45
585,02	1236,97
585,21	1259,50
585,41	1273,84
585,60	1241,07
585,79	1308,65
585,99	1308,65
586,18	1234,93
586,37	1286,12
586,57	1257,45
586,76	1245,16
586,96	1212,40
587,15	1343,47
587,34	1271,79
587,54	1296,36
587,73	1249,26
587,93	1245,16
588,12	1269,74
588,31	1310,70
588,51	1298,41
588,70	1275,88
588,89	1284,08
589,09	1325,04
589,28	1325,04
589,47	1204,21
589,67	1255,40
589,86	1339,37
590,06	1247,21
590,25	1322,99
590,44	1286,12
590,64	1304,56
590,83	1298,41
591,02	1286,12
591,22	1286,12
591,41	1271,79
591,60	1239,02
591,80	1284,08
591,99	1245,16
592,18	1232,88
592,38	1298,41
592,57	1210,35
592,76	1292,27
592,96	1230,83
593,15	1277,93
593,34	1282,03
593,54	1245,16
593,73	1345,52
593,92	1316,84
594,12	1306,60
594,31	1214,45
594,50	1284,08
594,70	1269,74
594,89	1249,26
595,08	1251,31
595,28	1267,69
595,47	1241,07
595,66	1265,64
595,86	1245,16
596,05	1138,67
596,24	1212,40
596,43	1220,59
596,63	1239,02
596,82	1261,55
597,01	1216,49
597,21	1341,42
597,40	1290,22
597,59	1218,54
597,79	1304,56
597,98	1298,41
598,17	1245,16
598,36	1308,65
598,56	1275,88
598,75	1284,08
598,94	1277,93
599,14	1222,64
599,33	1236,97
599,52	1271,79
599,71	1245,16
599,91	1282,03
600,10	1275,88
600,29	1308,65
600,48	1294,32
600,68	1245,16
600,87	1255,40
601,06	1202,16
601,26	1273,84
601,45	1312,75
601,64	1308,65
601,83	1255,40
602,03	1277,93
602,22	1275,88
602,41	1245,16
602,60	1261,55
602,80	1302,51
602,99	1241,07
603,18	1259,50
603,37	1234,93
603,57	1206,25
603,76	1275,88
603,95	1239,02
604,14	1228,78
604,34	1273,84
604,53	1298,41
604,72	1284,08
604,91	1325,04
605,10	1306,60
605,30	1386,47
605,49	1261,55
605,68	1247,21
605,87	1277,93
606,07	1189,87
606,26	1257,45
606,45	1212,40
606,64	1288,17
606,84	1255,40
607,03	1327,08
607,22	1372,14
607,41	1267,69
607,60	1298,41
607,80	1208,30
607,99	1265,64
608,18	1232,88
608,37	1230,83
608,56	1282,03
608,76	1210,35
608,95	1279,98
609,14	1273,84
609,33	1304,56
609,52	1239,02
609,72	1222,64
609,91	1316,84
610,10	1224,69
610,29	1329,13
610,48	1220,59
610,68	1304,56
610,87	1273,84
611,06	1296,36
611,25	1257,45
611,44	1255,40
611,63	1257,45
611,83	1277,93
612,02	1265,64
612,21	1292,27
612,40	1249,26
612,59	1286,12
612,79	1347,56
612,98	1271,79
613,17	1325,04
613,36	1347,56
613,55	1198,06
613,74	1304,56
613,93	1234,93
614,13	1277,93
614,32	1263,60
614,51	1300,46
614,70	1337,32
614,89	1366,00
615,08	1265,64
615,28	1325,04
615,47	1304,56
615,66	1265,64
615,85	1208,30
616,04	1296,36
616,23	1261,55
616,42	1263,60
616,62	1239,02
616,81	1273,84
617,00	1255,40
617,19	1257,45
617,38	1300,46
617,57	1353,71
617,76	1220,59
617,95	1327,08
618,15	1279,98
618,34	1249,26
618,53	1351,66
618,72	1329,13
618,91	1257,45
619,10	1267,69
619,29	1271,79
619,48	1304,56
619,68	1314,80
619,87	1185,77
620,06	1279,98
620,25	1286,12
620,44	1347,56
620,63	1322,99
620,82	1222,64
621,01	1327,08
621,20	1288,17
621,39	1298,41
621,59	1228,78
621,78	1241,07
621,97	1245,16
622,16	1290,22
622,35	1253,36
622,54	1261,55
622,73	1271,79
622,92	1263,60
623,11	1310,70
623,30	1290,22
623,49	1345,52
623,68	1279,98
623,88	1282,03
624,07	1255,40
624,26	1296,36
624,45	1269,74
624,64	1337,32
624,83	1253,36
625,02	1275,88
625,21	1327,08
625,40	1228,78
625,59	1239,02
625,78	1339,37
625,97	1343,47
626,16	1292,27
626,35	1284,08
626,54	1329,13
626,74	1290,22
626,93	1310,70
627,12	1249,26
627,31	1263,60
627,50	1290,22
627,69	1275,88
627,88	1224,69
628,07	1253,36
628,26	1257,45
628,45	1253,36
628,64	1308,65
628,83	1310,70
629,02	1304,56
629,21	1333,23
629,40	1329,13
629,59	1282,03
629,78	1265,64
629,97	1193,97
630,16	1286,12
630,35	1228,78
630,54	1255,40
630,73	1333,23
630,92	1310,70
631,11	1343,47
631,30	1288,17
631,49	1355,76
631,68	1320,94
631,87	1734,63
632,06	2838,48
632,25	2156,51
632,44	2467,80
632,63	2412,51
632,82	2455,51
633,01	3672,01
633,20	5480,36
633,39	7157,65
633,58	11175,77
633,77	21071,55
633,96	33097,22
634,15	41047,44
634,34	38137,27
634,53	26259,06
634,72	14298,92
634,91	7002,01
635,10	4347,84
635,29	3352,52
635,48	2891,73
635,67	2424,80
635,86	2158,56
636,05	1902,56
636,24	1877,99
636,43	1626,09
636,62	1675,24
636,81	1630,18
637,00	1533,93
637,19	1535,98
637,38	1478,63
637,57	1449,96
637,76	1423,34
637,95	1376,24
638,14	1386,47
638,33	1353,71
638,52	1333,23
638,71	1284,08
638,89	1359,85
639,08	1298,41
639,27	1386,47
639,46	1271,79
639,65	1302,51
639,84	1216,49
640,03	1325,04
640,22	1290,22
640,41	1230,83
640,60	1273,84
640,79	1275,88
640,98	1288,17
641,17	1304,56
641,36	1271,79
641,55	1292,27
641,74	1234,93
641,92	1292,27
642,11	1366,00
642,30	1284,08
642,49	1236,97
642,68	1187,82
642,87	1290,22
643,06	1255,40
643,25	1261,55
643,44	1304,56
643,63	1288,17
643,82	1296,36
644,00	1230,83
644,19	1275,88
644,38	1300,46
644,57	1212,40
644,76	1245,16
644,95	1296,36
645,14	1257,45
645,33	1298,41
645,52	1269,74
645,71	1243,12
645,89	1247,21
646,08	1263,60
646,27	1243,12
646,46	1273,84
646,65	1400,81
646,84	1251,31
647,03	1245,16
647,22	1290,22
647,40	1247,21
647,59	1251,31
647,78	1282,03
647,97	1290,22
648,16	1341,42
648,35	1294,32
648,54	1288,17
648,73	1357,80
648,91	1284,08
649,10	1198,06
649,29	1257,45
649,48	1279,98
649,67	1241,07
649,86	1161,20
650,05	1218,54
650,23	1304,56
650,42	1249,26
650,61	1296,36
650,80	1271,79
650,99	1267,69
651,18	1247,21
651,36	1224,69
651,55	1249,26
651,74	1294,32
651,93	1261,55
652,12	1241,07
652,31	1243,12
652,49	1230,83
652,68	1288,17
652,87	1282,03
653,06	1226,73
653,25	1290,22
653,44	1255,40
653,62	1247,21
653,81	1288,17
654,00	1292,27
654,19	1243,12
654,38	1409,00
654,56	1230,83
654,75	1277,93
654,94	1179,63
655,13	1322,99
655,32	1286,12
655,51	1322,99
655,69	1271,79
655,88	1275,88
656,07	1286,12
656,26	1304,56
656,45	1273,84
656,63	1304,56
656,82	1251,31
657,01	1239,02
657,20	1214,45
657,38	1271,79
657,57	1239,02
657,76	1208,30
657,95	1189,87
658,14	1300,46
658,32	1208,30
658,51	1288,17
658,70	1241,07
658,89	1310,70
659,08	1257,45
659,26	1292,27
659,45	1241,07
659,64	1265,64
659,83	1234,93
660,01	1282,03
660,20	1322,99
660,39	1329,13
660,58	1275,88
660,76	1228,78
660,95	1279,98
661,14	1288,17
661,33	1347,56
661,51	1267,69
661,70	1257,45
661,89	1267,69
662,08	1327,08
662,26	1245,16
662,45	1312,75
662,64	1314,80
662,83	1310,70
663,01	1259,50
663,20	1298,41
663,39	1202,16
663,58	1249,26
663,76	1257,45
663,95	1253,36
664,14	1286,12
664,32	1292,27
664,51	1257,45
664,70	1243,12
664,89	1269,74
665,07	1296,36
665,26	1314,80
665,45	1167,34
665,64	1261,55
665,82	1259,50
666,01	1337,32
666,20	1245,16
666,38	1286,12
666,57	1282,03
666,76	1249,26
666,95	1249,26
667,13	1312,75
667,32	1243,12
667,51	1294,32
667,69	1279,98
667,88	1337,32
668,07	1279,98
668,25	1261,55
668,44	1175,53
668,63	1265,64
668,81	1318,89
669,00	1259,50
669,19	1226,73
669,38	1193,97
669,56	1302,51
669,75	1247,21
669,94	1222,64
670,12	1257,45
670,31	1255,40
670,50	1210,35
670,68	1296,36
670,87	1284,08
671,06	1216,49
671,24	1308,65
671,43	1282,03
671,62	1279,98
671,80	1228,78
671,99	1282,03
672,18	1247,21
672,36	1228,78
672,55	1255,40
672,74	1286,12
672,92	1249,26
673,11	1249,26
673,29	1216,49
673,48	1284,08
673,67	1292,27
673,85	1230,83
674,04	1245,16
674,23	1300,46
674,41	1257,45
674,60	1282,03
674,79	1236,97
674,97	1302,51
675,16	1300,46
675,34	1261,55
675,53	1202,16
675,72	1263,60
675,90	1261,55
676,09	1208,30
676,28	1302,51
676,46	1220,59
676,65	1251,31
676,83	1294,32
677,02	1273,84
677,21	1265,64
677,39	1290,22
677,58	1294,32
677,77	1298,41
677,95	1257,45
678,14	1257,45
678,32	1288,17
678,51	1208,30
678,70	1333,23
678,88	1290,22
679,07	1310,70
679,25	1263,60
679,44	1271,79
679,63	1241,07
679,81	1200,11
680,00	1249,26
680,18	1271,79
680,37	1236,97
680,55	1204,21
680,74	1249,26
680,93	1284,08
681,11	1298,41
681,30	1302,51
681,48	1273,84
681,67	1331,18
681,85	1222,64
682,04	1224,69
682,23	1236,97
682,41	1251,31
682,60	1189,87
682,78	1247,21
682,97	1208,30
683,15	1284,08
683,34	1304,56
683,53	1263,60
683,71	1241,07
683,90	1269,74
684,08	1290,22
684,27	1296,36
684,45	1337,32
684,64	1337,32
684,82	1353,71
685,01	1277,93
685,19	1300,46
685,38	1271,79
685,57	1308,65
685,75	1341,42
685,94	1173,49
686,12	1320,94
686,31	1218,54
686,49	1232,88
686,68	1284,08
686,86	1239,02
687,05	1294,32
687,23	1298,41
687,42	1257,45
687,60	1247,21
687,79	1318,89
687,97	1208,30
688,16	1198,06
688,34	1161,20
688,53	1218,54
688,71	1251,31
688,90	1279,98
689,08	1277,93
689,27	1310,70
689,45	1294,32
689,64	1255,40
689,82	1298,41
690,01	1255,40
690,19	1376,24
690,38	1239,02
690,56	1306,60
690,75	1277,93
690,93	1187,82
691,12	1198,06
691,30	1236,97
691,49	1284,08
691,67	1214,45
691,86	1200,11
692,04	1247,21
692,23	1284,08
692,41	1290,22
692,60	1335,28
692,78	1302,51
692,97	1220,59
693,15	1257,45
693,34	1218,54
693,52	1224,69
693,71	1263,60
693,89	1282,03
694,08	1306,60
694,26	1261,55
694,44	1196,01
694,63	1261,55
694,81	1265,64
695,00	1241,07
695,18	1294,32
695,37	1286,12
695,55	1224,69
695,74	1331,18
695,92	1253,36
696,10	1384,43
696,29	1255,40
696,47	1224,69
696,66	1261,55
696,84	1288,17
697,03	1220,59
697,21	1296,36
697,40	1306,60
697,58	1255,40
697,76	1257,45
697,95	1322,99
698,13	1212,40
698,32	1234,93
698,50	1230,83
698,68	1241,07
698,87	1306,60
699,05	1294,32
699,24	1298,41
699,42	1253,36
699,61	1208,30
699,79	1214,45
699,97	1306,60
700,16	1282,03
700,34	1286,12
700,53	1341,42
700,71	1277,93
700,89	1312,75
701,08	1236,97
701,26	1265,64
701,45	1282,03
701,63	1314,80
701,81	1331,18
702,00	1304,56
702,18	1247,21
702,37	1284,08
702,55	1288,17
702,73	1296,36
702,92	1337,32
703,10	1257,45
703,28	1290,22
703,47	1193,97
703,65	1300,46
703,84	1306,60
704,02	1234,93
704,20	1226,73
704,39	1290,22
704,57	1306,60
704,75	1286,12
704,94	1282,03
705,12	1249,26
705,30	1296,36
705,49	1304,56
705,67	1265,64
705,86	1255,40
706,04	1304,56
706,22	1277,93
706,41	1224,69
706,59	1290,22
706,77	1165,29
706,96	1193,97
707,14	1196,01
707,32	1198,06
707,51	1243,12
707,69	1300,46
707,87	1351,66
708,06	1230,83
708,24	1273,84
708,42	1249,26
708,61	1290,22
708,79	1304,56
708,97	1253,36
709,16	1279,98
709,34	1263,60
709,52	1212,40
709,71	1273,84
709,89	1275,88
710,07	1261,55
710,26	1290,22
710,44	1267,69
710,62	1255,40
710,80	1322,99
710,99	1255,40
711,17	1279,98
711,35	1267,69
711,54	1279,98
711,72	1249,26
711,90	1282,03
712,09	1216,49
712,27	1288,17
712,45	1329,13
712,63	1206,25
712,82	1273,84
713,00	1273,84
713,18	1236,97
713,37	1222,64
713,55	1300,46
713,73	1286,12
713,91	1236,97
714,10	1198,06
714,28	1243,12
714,46	1220,59
714,65	1261,55
714,83	1316,84
715,01	1247,21
715,19	1239,02
715,38	1288,17
715,56	1267,69
715,74	1253,36
715,92	1269,74
716,11	1255,40
716,29	1298,41
716,47	1275,88
716,65	1261,55
716,84	1351,66
717,02	1275,88
717,20	1284,08
717,38	1298,41
717,57	1286,12
717,75	1282,03
717,93	1251,31
718,11	1292,27
718,30	1245,16
718,48	1241,07
718,66	1236,97
718,84	1333,23
719,03	1308,65
719,21	1232,88
719,39	1286,12
719,57	1247,21
719,75	1306,60
719,94	1236,97
720,12	1314,80
720,30	1339,37
720,48	1249,26
720,67	1241,07
720,85	1236,97
721,03	1267,69
721,21	1314,80
721,39	1255,40
721,58	1279,98
721,76	1306,60
721,94	1220,59
722,12	1257,45
722,30	1255,40
722,49	1239,02
722,67	1310,70
722,85	1273,84
723,03	1236,97
723,21	1259,50
723,40	1204,21
723,58	1243,12
723,76	1279,98
723,94	1214,45
724,12	1204,21
724,30	1294,32
724,49	1310,70
724,67	1251,31
724,85	1333,23
725,03	1265,64
725,21	1218,54
725,40	1257,45
725,58	1263,60
725,76	1263,60
725,94	1331,18
726,12	1277,93
726,30	1277,93
726,49	1277,93
726,67	1249,26
726,85	1265,64
727,03	1239,02
727,21	1251,31
727,39	1282,03
727,57	1230,83
727,76	1271,79
727,94	1282,03
728,12	1300,46
728,30	1279,98
728,48	1314,80
728,66	1255,40
728,84	1228,78
729,03	1224,69
729,21	1196,01
729,39	1267,69
729,57	1267,69
729,75	1284,08
729,93	1318,89
730,11	1306,60
730,30	1318,89
730,48	1314,80
730,66	1255,40
730,84	1261,55
731,02	1308,65
731,20	1298,41
731,38	1193,97
731,56	1239,02
731,74	1312,75
731,93	1191,92
732,11	1189,87
732,29	1302,51
732,47	1267,69
732,65	1322,99
732,83	1214,45
733,01	1296,36
733,19	1282,03
733,37	1337,32
733,56	1263,60
733,74	1267,69
733,92	1275,88
734,10	1249,26
734,28	1298,41
734,46	1220,59
734,64	1267,69
734,82	1320,94
735,00	1255,40
735,18	1320,94
735,36	1279,98
735,54	1239,02
735,73	1296,36
735,91	1247,21
736,09	1355,76
736,27	1290,22
736,45	1300,46
736,63	1298,41
736,81	1257,45
736,99	1288,17
737,17	1316,84
737,35	1232,88
737,53	1282,03
737,71	1314,80
737,89	1218,54
738,07	1196,01
738,25	1341,42
738,43	1253,36
738,61	1286,12
738,80	1257,45
738,98	1273,84
739,16	1218,54
739,34	1253,36
739,52	1253,36
739,70	1284,08
739,88	1206,25
740,06	1298,41
740,24	1288,17
740,42	1314,80
740,60	1230,83
740,78	1239,02
740,96	1290,22
741,14	1249,26
741,32	1208,30
741,50	1253,36
741,68	1224,69
741,86	1241,07
742,04	1216,49
742,22	1243,12
742,40	1271,79
742,58	1267,69
742,76	1308,65
742,94	1288,17
743,12	1236,97
743,30	1236,97
743,48	1282,03
743,66	1329,13
743,84	1253,36
744,02	1273,84
744,20	1320,94
744,38	1282,03
744,56	1292,27
744,74	1298,41
744,92	1277,93
745,10	1300,46
745,28	1300,46
745,46	1306,60
745,64	1269,74
745,82	1286,12
746,00	1230,83
746,18	1232,88
746,36	1294,32
746,54	1206,25
746,72	1306,60
746,90	1257,45
747,08	1263,60
747,26	1212,40
747,44	1275,88
747,62	1206,25
747,80	1277,93
747,98	1263,60
748,15	1327,08
748,33	1228,78
748,51	1304,56
748,69	1257,45
748,87	1273,84
749,05	1241,07
749,23	1249,26
749,41	1284,08
749,59	1388,52
749,77	1226,73
749,95	1204,21
750,13	1218,54
750,31	1277,93
750,49	1241,07
750,67	1261,55
750,85	1245,16
751,03	1255,40
751,20	1245,16
751,38	1269,74
751,56	1282,03
751,74	1183,73
751,92	1243,12
752,10	1261,55
752,28	1263,60
752,46	1284,08
752,64	1247,21
752,82	1222,64
753,00	1302,51
753,18	1284,08
753,35	1341,42
753,53	1292,27
753,71	1251,31
753,89	1193,97
754,07	1277,93
754,25	1275,88
754,43	1179,63
754,61	1308,65
754,79	1282,03
754,97	1206,25
755,14	1193,97
755,32	1216,49
755,50	1298,41
755,68	1241,07
755,86	1234,93
756,04	1216,49
756,22	1337,32
756,40	1269,74
756,57	1265,64
756,75	1269,74
756,93	1300,46
757,11	1236,97
757,29	1255,40
757,47	1282,03
757,65	1298,41
757,82	1239,02
758,00	1288,17
758,18	1245,16
758,36	1282,03
758,54	1253,36
758,72	1279,98
758,90	1333,23
759,07	1273,84
759,25	1216,49
759,43	1183,73
759,61	1222,64
759,79	1355,76
759,97	1286,12
760,15	1273,84
760,32	1294,32
760,50	1257,45
760,68	1370,09
760,86	1185,77
761,04	1314,80
761,22	1255,40
761,39	1226,73
761,57	1329,13
761,75	1257,45
761,93	1273,84
762,11	1239,02
762,28	1247,21
762,46	1230,83
762,64	1234,93
762,82	1265,64
763,00	1290,22
763,18	1277,93
763,35	1228,78
763,53	1241,07
763,71	1282,03
763,89	1214,45
764,07	1302,51
764,24	1294,32
764,42	1277,93
764,60	1212,40
764,78	1284,08
764,96	1228,78
765,13	1294,32
765,31	1224,69
765,49	1282,03
765,67	1243,12
765,84	1267,69
766,02	1333,23
766,20	1318,89
766,38	1275,88
766,56	1314,80
766,73	1314,80
766,91	1251,31
767,09	1359,85
767,27	1298,41
767,44	1279,98
767,62	1284,08
767,80	1277,93
767,98	1247,21
768,15	1269,74
768,33	1251,31
768,51	1298,41
768,69	1279,98
768,87	1267,69
769,04	1239,02
769,22	1183,73
769,40	1322,99
769,58	1320,94
769,75	1306,60
769,93	1210,35
770,11	1257,45
770,28	1314,80
770,46	1310,70
770,64	1200,11
770,82	1226,73
770,99	1279,98
771,17	1284,08
771,35	1263,60
771,53	1230,83
771,70	1343,47
771,88	1249,26
772,06	1206,25
772,23	1206,25
772,41	1259,50
772,59	1273,84
772,77	1298,41
772,94	1196,01
773,12	1222,64
773,30	1257,45
773,47	1279,98
773,65	1267,69
773,83	1163,25
774,01	1298,41
774,18	1269,74
774,36	1265,64
774,54	1226,73
774,71	1251,31
774,89	1255,40
775,07	1181,68
775,24	1247,21
775,42	1269,74
775,60	1220,59
775,78	1308,65
775,95	1302,51
776,13	1212,40
776,31	1247,21
776,48	1245,16
776,66	1296,36
776,84	1327,08
777,01	1304,56
777,19	1253,36
777,37	1228,78
777,54	1282,03
777,72	1257,45
777,90	1269,74
778,07	1275,88
778,25	1226,73
778,43	1318,89
778,60	1275,88
778,78	1349,61
778,96	1282,03
779,13	1257,45
779,31	1286,12
779,49	1341,42
779,66	1322,99
779,84	1271,79
780,01	1261,55
780,19	1337,32
780,37	1282,03
780,54	1175,53
780,72	1222,64
780,90	1316,84
781,07	1261,55
781,25	1333,23
781,43	1341,42
781,60	1265,64
781,78	1308,65
781,95	1273,84
782,13	1277,93
782,31	1277,93
782,48	1277,93
782,66	1261,55
782,83	1220,59
783,01	1208,30
783,19	1288,17
783,36	1261,55
783,54	1310,70
783,72	1271,79
783,89	1261,55
784,07	1257,45
784,24	1187,82
784,42	1294,32
784,60	1241,07
784,77	1271,79
784,95	1298,41
785,12	1314,80
785,30	1327,08
785,47	1255,40
785,65	1191,92
785,83	1300,46
786,00	1210,35
786,18	1279,98
786,35	1267,69
786,53	1296,36
786,71	1292,27
786,88	1310,70
787,06	1339,37
787,23	1331,18
787,41	1290,22
787,58	1257,45
787,76	1249,26
787,94	1310,70
788,11	1304,56
788,29	1255,40
788,46	1263,60
788,64	1296,36
788,81	1273,84
788,99	1275,88
789,16	1228,78
789,34	1316,84
789,52	1329,13
789,69	1216,49
789,87	1214,45
790,04	1245,16
790,22	1275,88
790,39	1224,69
790,57	1239,02
790,74	1265,64
790,92	1269,74
791,09	1277,93
791,27	1218,54
791,44	1271,79
791,62	1298,41
791,79	1245,16
791,97	1263,60
792,15	1216,49
792,32	1261,55
792,50	1204,21
792,67	1273,84
792,85	1284,08
793,02	1288,17
793,20	1222,64
793,37	1245,16
793,55	1249,26
793,72	1288,17
793,90	1269,74
794,07	1273,84
794,25	1245,16
794,42	1259,50
794,60	1288,17
794,77	1277,93
794,95	1277,93
795,12	1318,89
795,30	1296,36
795,47	1255,40
795,65	1302,51
795,82	1267,69
796,00	1206,25
796,17	1333,23
796,34	1374,19
796,52	1253,36
796,69	1286,12
796,87	1312,75
797,04	1241,07
797,22	1220,59
797,39	1302,51
797,57	1261,55
797,74	1263,60
797,92	1232,88
798,09	1253,36
798,27	1259,50
798,44	1277,93
798,62	1275,88
798,79	1255,40
798,96	1294,32
799,14	1267,69
799,31	1265,64
799,49	1273,84
799,66	1243,12
799,84	1282,03
800,01	1200,11
800,19	1288,17
800,36	1204,21
800,53	1255,40
800,71	1277,93
800,88	1259,50
801,06	1234,93
801,23	1236,97
801,41	1202,16
801,58	1277,93
801,75	1282,03
801,93	1269,74
802,10	1267,69
802,28	1310,70
802,45	1318,89
802,63	1259,50
802,80	1259,50
802,97	1341,42
803,15	1273,84
803,32	1304,56
803,50	1189,87
803,67	1210,35
803,84	1269,74
804,02	1284,08
804,19	1298,41
804,37	1294,32
804,54	1247,21
804,71	1331,18
804,89	1224,69
805,06	1345,52
805,24	1273,84
805,41	1279,98
805,58	1251,31
805,76	1267,69
805,93	1271,79
806,10	1265,64
806,28	1253,36
806,45	1239,02
806,63	1206,25
806,80	1296,36
806,97	1255,40
807,15	1296,36
807,32	1241,07
807,49	1259,50
807,67	1327,08
807,84	1226,73
808,01	1300,46
808,19	1220,59
808,36	1167,34
808,54	1226,73
808,71	1277,93
808,88	1300,46
809,06	1314,80
809,23	1284,08
809,40	1316,84
809,58	1282,03
809,75	1261,55
809,92	1329,13
810,10	1255,40
810,27	1267,69
810,44	1304,56
810,62	1298,41
810,79	1214,45
810,96	1269,74
811,14	1202,16
811,31	1210,35
811,48	1257,45
811,66	1288,17
811,83	1333,23
812,00	1247,21
812,18	1273,84
812,35	1236,97
812,52	1245,16
812,69	1294,32
812,87	1322,99
813,04	1331,18
813,21	1294,32
813,39	1288,17
813,56	1228,78
813,73	1216,49
813,91	1261,55
814,08	1308,65
814,25	1308,65
814,42	1279,98
814,60	1290,22
814,77	1314,80
814,94	1191,92
815,12	1316,84
815,29	1255,40
815,46	1300,46
815,63	1318,89
815,81	1284,08
815,98	1296,36
816,15	1335,28
816,33	1302,51
816,50	1257,45
816,67	1327,08
816,84	1232,88
817,02	1296,36
817,19	1275,88
817,36	1224,69
817,53	1302,51
817,71	1257,45
817,88	1290,22
818,05	1247,21
818,22	1318,89
818,40	1284,08
818,57	1304,56
818,74	1318,89
818,91	1296,36
819,09	1316,84
819,26	1257,45
819,43	1212,40
819,60	1255,40
819,78	1273,84
819,95	1214,45
820,12	1273,84
820,29	1220,59
820,47	1241,07
820,64	1218,54
820,81	1245,16
820,98	1296,36
821,15	1282,03
821,33	1245,16
821,50	1312,75
821,67	1306,60
821,84	1296,36
822,02	1277,93
822,19	1257,45
822,36	1234,93
822,53	1208,30
822,70	1306,60
822,88	1245,16
823,05	1296,36
823,22	1239,02
823,39	1325,04
823,56	1245,16
823,74	1232,88
823,91	1308,65
824,08	1329,13
824,25	1282,03
824,42	1286,12
824,60	1320,94
824,77	1230,83
824,94	1243,12
825,11	1306,60
825,28	1212,40
825,45	1269,74
825,63	1165,29
825,80	1279,98
825,97	1308,65
826,14	1282,03
826,31	1265,64
826,48	1271,79
826,66	1263,60
826,83	1236,97
827,00	1247,21
827,17	1245,16
827,34	1271,79
827,51	1318,89
827,69	1257,45
827,86	1230,83
828,03	1265,64
828,20	1273,84
828,37	1241,07
828,54	1318,89
828,71	1333,23
828,89	1333,23
829,06	1251,31
829,23	1271,79
829,40	1300,46
829,57	1236,97
829,74	1259,50
829,91	1232,88
830,09	1292,27
830,26	1306,60
830,43	1269,74
830,60	1304,56
830,77	1376,24
830,94	1273,84
831,11	1241,07
831,28	1288,17
831,46	1255,40
831,63	1269,74
831,80	1249,26
831,97	1306,60
832,14	1263,60
832,31	1288,17
832,48	1355,76
832,65	1284,08
832,82	1279,98
832,99	1322,99
833,17	1292,27
833,34	1263,60
833,51	1232,88
833,68	1251,31
833,85	1347,56
834,02	1304,56
834,19	1249,26
834,36	1251,31
834,53	1253,36
834,70	1275,88
834,87	1271,79
835,04	1241,07
835,22	1302,51
835,39	1306,60
835,56	1290,22
835,73	1230,83
835,90	1261,55
836,07	1263,60
836,24	1351,66
836,41	1214,45
836,58	1255,40
836,75	1269,74
836,92	1282,03
837,09	1325,04
837,26	1220,59
837,43	1279,98
837,60	1236,97
837,77	1208,30
837,94	1212,40
838,12	1290,22
838,29	1304,56
838,46	1282,03
838,63	1273,84
838,80	1310,70
838,97	1220,59
839,14	1263,60
839,31	1318,89
839,48	1255,40
839,65	1249,26
839,82	1282,03
839,99	1224,69
840,16	1224,69
840,33	1279,98
840,50	1282,03
840,67	1333,23
840,84	1322,99
841,01	1193,97
841,18	1236,97
841,35	1312,75
841,52	1347,56
841,69	1257,45
841,86	1306,60
842,03	1386,47
842,20	1230,83
842,37	1288,17
842,54	1198,06
842,71	1261,55
842,88	1339,37
843,05	1292,27
843,22	1304,56
843,39	1271,79
843,56	1275,88
843,73	1296,36
843,90	1337,32
844,07	1277,93
844,24	1271,79
844,41	1298,41
844,58	1189,87
844,75	1269,74
844,92	1298,41
845,09	1263,60
845,26	1259,50
845,43	1247,21
845,60	1320,94
845,77	1255,40
845,94	1208,30
846,10	1271,79
846,27	1234,93
846,44	1257,45
846,61	1310,70
846,78	1263,60
846,95	1335,28
847,12	1257,45
847,29	1259,50
847,46	1310,70
847,63	1304,56
847,80	1230,83
847,97	1255,40
848,14	1243,12
848,31	1263,60
848,48	1245,16
848,65	1236,97
848,82	1273,84
848,98	1304,56
849,15	1251,31
849,32	1288,17
849,49	1298,41
849,66	1273,84
849,83	1243,12
850,00	1265,64
850,17	1337,32
850,34	1191,92
850,51	1300,46
850,68	1292,27
850,85	1261,55
851,01	1241,07
851,18	1255,40
851,35	1353,71
851,52	1275,88
851,69	1253,36
851,86	1351,66
852,03	1298,41
852,20	1273,84
852,37	1189,87
852,53	1224,69
852,70	1298,41
852,87	1277,93
853,04	1257,45
853,21	1241,07
853,38	1286,12
853,55	1261,55
853,72	1282,03
853,89	1247,21
854,05	1245,16
854,22	1230,83
854,39	1312,75
854,56	1298,41
854,73	1220,59
854,90	1284,08
855,07	1294,32
855,23	1269,74
855,40	1249,26
855,57	1320,94
855,74	1296,36
855,91	1363,95
856,08	1267,69
856,25	1228,78
856,41	1341,42
856,58	1251,31
856,75	1241,07
856,92	1304,56
857,09	1282,03
857,26	1325,04
857,42	1279,98
857,59	1218,54
857,76	1239,02
857,93	1216,49
858,10	1261,55
858,27	1255,40
858,43	1306,60
858,60	1198,06
858,77	1263,60
858,94	1220,59
859,11	1261,55
859,27	1290,22
859,44	1259,50
859,61	1265,64
859,78	1277,93
859,95	1310,70
860,12	1331,18
860,28	1288,17
860,45	1316,84
860,62	1275,88
860,79	1243,12
860,95	1275,88
861,12	1210,35
861,29	1210,35
861,46	1322,99
861,63	1259,50
861,79	1347,56
861,96	1288,17
862,13	1241,07
862,30	1232,88
862,47	1282,03
862,63	1234,93
862,80	1267,69
862,97	1247,21
863,14	1286,12
863,30	1193,97
863,47	1222,64
863,64	1251,31
863,81	1277,93
863,97	1243,12
864,14	1245,16
864,31	1310,70
864,48	1249,26
864,65	1363,95
864,81	1251,31
864,98	1306,60
865,15	1273,84
865,32	1257,45
865,48	1363,95
865,65	1314,80
865,82	1318,89
865,98	1306,60
866,15	1294,32
866,32	1230,83
866,49	1253,36
866,65	1310,70
866,82	1282,03
866,99	1263,60
867,16	1206,25
867,32	1284,08
867,49	1230,83
867,66	1312,75
867,83	1355,76
867,99	1296,36
868,16	1302,51
868,33	1204,21
868,49	1257,45
868,66	1263,60
868,83	1288,17
868,99	1267,69
869,16	1277,93
869,33	1322,99
869,50	1296,36
869,66	1271,79
869,83	1245,16
870,00	1357,80
870,16	1290,22
870,33	1304,56
870,50	1320,94
870,66	1308,65
870,83	1343,47
871,00	1263,60
871,17	1267,69
871,33	1249,26
871,50	1189,87
871,67	1206,25
871,83	1216,49
872,00	1288,17
872,17	1261,55
872,33	1247,21
872,50	1300,46
872,67	1234,93
872,83	1335,28
873,00	1275,88
873,17	1212,40
873,33	1247,21
873,50	1271,79
873,67	1316,84
873,83	1292,27
874,00	1304,56
874,16	1312,75
874,33	1214,45
874,50	1282,03
874,66	1286,12
874,83	1308,65
875,00	1265,64
875,16	1306,60
875,33	1198,06
875,50	1306,60
875,66	1386,47
875,83	1282,03
875,99	1290,22
876,16	1263,60
876,33	1247,21
876,49	1220,59
876,66	1267,69
876,83	1226,73
876,99	1208,30
877,16	1253,36
877,32	1253,36
877,49	1261,55
877,66	1222,64
877,82	1263,60
877,99	1275,88
878,15	1263,60
878,32	1269,74
878,49	1245,16
878,65	1214,45
878,82	1312,75
878,98	1296,36
879,15	1261,55
879,32	1273,84
879,48	1216,49
879,65	1279,98
879,81	1306,60
879,98	1218,54
880,15	1249,26
880,31	1236,97
880,48	1239,02
880,64	1247,21
880,81	1298,41
880,97	1230,83
881,14	1241,07
881,31	1286,12
881,47	1275,88
881,64	1335,28
881,80	1263,60
881,97	1290,22
882,13	1261,55
882,30	1284,08
882,47	1308,65
882,63	1310,70
882,80	1255,40
882,96	1208,30
883,13	1286,12
883,29	1245,16
883,46	1236,97
883,62	1284,08
883,79	1222,64
883,95	1269,74
884,12	1218,54
884,29	1214,45
884,45	1239,02
884,62	1269,74
884,78	1288,17
884,95	1179,63
885,11	1310,70
885,28	1314,80
885,44	1251,31
885,61	1269,74
885,77	1193,97
885,94	1304,56
886,10	1298,41
886,27	1296,36
886,43	1271,79
886,60	1314,80
886,76	1331,18
886,93	1236,97
887,09	1279,98
887,26	1325,04
887,42	1204,21
887,59	1277,93
887,75	1294,32
887,92	1212,40
888,08	1269,74
888,25	1271,79
888,41	1253,36
888,58	1249,26
888,74	1333,23
888,91	1253,36
>>>>>End Processed Spectral Data<<<<<
