SpectraSuite Data File
++++++++++++++++++++++++++++++++++++
Date: Sun Apr 03 16:35:34 CEST 2016
User: root
Dark Spectrum Present: No
Reference Spectrum Present: No
Number of Sampled Component Spectra: 1
Spectrometers: USB4C02835
Integration Time (usec): 10000 (USB4C02835)
Spectra Averaged: 1 (USB4C02835)
Boxcar Smoothing: 0 (USB4C02835)
Correct for Electrical Dark: No (USB4C02835)
Strobe/Lamp Enabled: No (USB4C02835)
Correct for Detector Non-linearity: No (USB4C02835)
Correct for Stray Light: No (USB4C02835)
Number of Pixels in Processed Spectrum: 3648
>>>>>Begin Processed Spectral Data<<<<<
177,47	1275,88
177,69	1275,88
177,91	1275,88
178,13	1298,41
178,36	1282,03
178,58	1282,03
178,80	1353,71
179,02	1320,94
179,24	1325,04
179,46	1294,32
179,68	1230,83
179,90	1288,17
180,13	1214,45
180,35	1279,98
180,57	1253,36
180,79	1265,64
181,01	1292,27
181,23	1236,97
181,45	1251,31
181,67	1253,36
181,90	1265,64
182,12	1265,64
182,34	1261,55
182,56	1304,56
182,78	1284,08
183,00	1290,22
183,22	1288,17
183,44	1255,40
183,66	1243,12
183,89	1222,64
184,11	1253,36
184,33	1255,40
184,55	1261,55
184,77	1322,99
184,99	1345,52
185,21	1271,79
185,43	1308,65
185,65	1286,12
185,87	1327,08
186,10	1273,84
186,32	1314,80
186,54	1247,21
186,76	1241,07
186,98	1310,70
187,20	1253,36
187,42	1284,08
187,64	1265,64
187,86	1292,27
188,08	1241,07
188,30	1224,69
188,52	1212,40
188,75	1269,74
188,97	1382,38
189,19	1271,79
189,41	1224,69
189,63	1269,74
189,85	1245,16
190,07	1300,46
190,29	1282,03
190,51	1226,73
190,73	1282,03
190,95	1267,69
191,17	1251,31
191,39	1302,51
191,61	1200,11
191,84	1257,45
192,06	1218,54
192,28	1282,03
192,50	1263,60
192,72	1218,54
192,94	1300,46
193,16	1241,07
193,38	1290,22
193,60	1288,17
193,82	1345,52
194,04	1314,80
194,26	1247,21
194,48	1290,22
194,70	1241,07
194,92	1331,18
195,14	1277,93
195,36	1300,46
195,58	1296,36
195,80	1314,80
196,02	1368,04
196,24	1239,02
196,46	1294,32
196,69	1261,55
196,91	1304,56
197,13	1267,69
197,35	1179,63
197,57	1177,58
197,79	1298,41
198,01	1302,51
198,23	1273,84
198,45	1337,32
198,67	1294,32
198,89	1290,22
199,11	1339,37
199,33	1243,12
199,55	1255,40
199,77	1308,65
199,99	1302,51
200,21	1263,60
200,43	1241,07
200,65	1241,07
200,87	1236,97
201,09	1275,88
201,31	1204,21
201,53	1239,02
201,75	1329,13
201,97	1306,60
202,19	1286,12
202,41	1265,64
202,63	1234,93
202,85	1243,12
203,07	1325,04
203,29	1210,35
203,51	1288,17
203,73	1304,56
203,95	1292,27
204,17	1257,45
204,39	1271,79
204,61	1284,08
204,83	1261,55
205,05	1218,54
205,27	1329,13
205,49	1286,12
205,71	1220,59
205,93	1142,77
206,15	1294,32
206,37	1282,03
206,59	1314,80
206,81	1345,52
207,03	1288,17
207,25	1218,54
207,47	1257,45
207,69	1277,93
207,91	1271,79
208,13	1275,88
208,34	1263,60
208,56	1251,31
208,78	1275,88
209,00	1265,64
209,22	1220,59
209,44	1271,79
209,66	1294,32
209,88	1239,02
210,10	1222,64
210,32	1325,04
210,54	1290,22
210,76	1277,93
210,98	1249,26
211,20	1263,60
211,42	1296,36
211,64	1304,56
211,86	1241,07
212,08	1265,64
212,30	1286,12
212,52	1191,92
212,74	1329,13
212,96	1243,12
213,17	1173,49
213,39	1345,52
213,61	1300,46
213,83	1298,41
214,05	1257,45
214,27	1304,56
214,49	1298,41
214,71	1259,50
214,93	1224,69
215,15	1304,56
215,37	1257,45
215,59	1245,16
215,81	1230,83
216,03	1310,70
216,24	1310,70
216,46	1228,78
216,68	1302,51
216,90	1292,27
217,12	1304,56
217,34	1271,79
217,56	1292,27
217,78	1249,26
218,00	1290,22
218,22	1245,16
218,44	1261,55
218,66	1226,73
218,87	1337,32
219,09	1236,97
219,31	1253,36
219,53	1306,60
219,75	1222,64
219,97	1198,06
220,19	1345,52
220,41	1282,03
220,63	1306,60
220,85	1257,45
221,06	1228,78
221,28	1261,55
221,50	1288,17
221,72	1318,89
221,94	1228,78
222,16	1265,64
222,38	1306,60
222,60	1257,45
222,82	1279,98
223,03	1263,60
223,25	1279,98
223,47	1294,32
223,69	1304,56
223,91	1325,04
224,13	1200,11
224,35	1245,16
224,57	1263,60
224,78	1284,08
225,00	1304,56
225,22	1275,88
225,44	1290,22
225,66	1304,56
225,88	1255,40
226,10	1224,69
226,32	1241,07
226,53	1327,08
226,75	1228,78
226,97	1325,04
227,19	1284,08
227,41	1306,60
227,63	1310,70
227,85	1306,60
228,06	1259,50
228,28	1257,45
228,50	1312,75
228,72	1224,69
228,94	1286,12
229,16	1292,27
229,37	1232,88
229,59	1265,64
229,81	1265,64
230,03	1333,23
230,25	1175,53
230,47	1290,22
230,69	1251,31
230,90	1353,71
231,12	1200,11
231,34	1259,50
231,56	1263,60
231,78	1296,36
232,00	1234,93
232,21	1298,41
232,43	1271,79
232,65	1263,60
232,87	1267,69
233,09	1257,45
233,30	1265,64
233,52	1314,80
233,74	1247,21
233,96	1239,02
234,18	1232,88
234,40	1294,32
234,61	1282,03
234,83	1282,03
235,05	1247,21
235,27	1265,64
235,49	1306,60
235,70	1265,64
235,92	1310,70
236,14	1251,31
236,36	1206,25
236,58	1275,88
236,79	1253,36
237,01	1241,07
237,23	1292,27
237,45	1210,35
237,67	1185,77
237,88	1310,70
238,10	1226,73
238,32	1265,64
238,54	1253,36
238,76	1294,32
238,97	1318,89
239,19	1245,16
239,41	1296,36
239,63	1161,20
239,85	1286,12
240,06	1241,07
240,28	1232,88
240,50	1208,30
240,72	1267,69
240,93	1228,78
241,15	1245,16
241,37	1220,59
241,59	1347,56
241,81	1288,17
242,02	1277,93
242,24	1308,65
242,46	1271,79
242,68	1230,83
242,89	1243,12
243,11	1279,98
243,33	1357,80
243,55	1339,37
243,76	1208,30
243,98	1325,04
244,20	1310,70
244,42	1282,03
244,64	1267,69
244,85	1273,84
245,07	1255,40
245,29	1245,16
245,51	1243,12
245,72	1247,21
245,94	1247,21
246,16	1277,93
246,38	1261,55
246,59	1290,22
246,81	1273,84
247,03	1249,26
247,24	1249,26
247,46	1257,45
247,68	1220,59
247,90	1292,27
248,11	1322,99
248,33	1241,07
248,55	1279,98
248,77	1327,08
248,98	1232,88
249,20	1265,64
249,42	1239,02
249,64	1232,88
249,85	1284,08
250,07	1284,08
250,29	1363,95
250,50	1214,45
250,72	1216,49
250,94	1333,23
251,16	1259,50
251,37	1335,28
251,59	1325,04
251,81	1355,76
252,02	1247,21
252,24	1277,93
252,46	1263,60
252,68	1322,99
252,89	1288,17
253,11	1257,45
253,33	1306,60
253,54	1310,70
253,76	1279,98
253,98	1294,32
254,20	1312,75
254,41	1288,17
254,63	1259,50
254,85	1271,79
255,06	1230,83
255,28	1304,56
255,50	1279,98
255,71	1290,22
255,93	1263,60
256,15	1239,02
256,36	1269,74
256,58	1316,84
256,80	1273,84
257,02	1277,93
257,23	1196,01
257,45	1312,75
257,67	1304,56
257,88	1269,74
258,10	1292,27
258,32	1296,36
258,53	1243,12
258,75	1236,97
258,97	1275,88
259,18	1314,80
259,40	1298,41
259,62	1341,42
259,83	1341,42
260,05	1230,83
260,27	1265,64
260,48	1275,88
260,70	1298,41
260,92	1308,65
261,13	1337,32
261,35	1294,32
261,57	1214,45
261,78	1255,40
262,00	1282,03
262,22	1279,98
262,43	1316,84
262,65	1327,08
262,86	1224,69
263,08	1302,51
263,30	1271,79
263,51	1261,55
263,73	1282,03
263,95	1339,37
264,16	1253,36
264,38	1239,02
264,60	1304,56
264,81	1316,84
265,03	1279,98
265,25	1273,84
265,46	1312,75
265,68	1228,78
265,89	1271,79
266,11	1185,77
266,33	1370,09
266,54	1234,93
266,76	1298,41
266,98	1294,32
267,19	1271,79
267,41	1282,03
267,62	1267,69
267,84	1232,88
268,06	1310,70
268,27	1214,45
268,49	1251,31
268,70	1306,60
268,92	1296,36
269,14	1306,60
269,35	1196,01
269,57	1322,99
269,79	1277,93
270,00	1257,45
270,22	1302,51
270,43	1304,56
270,65	1290,22
270,87	1304,56
271,08	1275,88
271,30	1363,95
271,51	1279,98
271,73	1286,12
271,95	1290,22
272,16	1253,36
272,38	1298,41
272,59	1292,27
272,81	1310,70
273,02	1275,88
273,24	1198,06
273,46	1204,21
273,67	1249,26
273,89	1267,69
274,10	1204,21
274,32	1236,97
274,54	1329,13
274,75	1267,69
274,97	1265,64
275,18	1314,80
275,40	1292,27
275,61	1251,31
275,83	1267,69
276,05	1290,22
276,26	1294,32
276,48	1290,22
276,69	1277,93
276,91	1277,93
277,12	1322,99
277,34	1269,74
277,55	1298,41
277,77	1253,36
277,99	1271,79
278,20	1224,69
278,42	1312,75
278,63	1275,88
278,85	1320,94
279,06	1275,88
279,28	1282,03
279,49	1243,12
279,71	1298,41
279,93	1271,79
280,14	1292,27
280,36	1259,50
280,57	1333,23
280,79	1222,64
281,00	1316,84
281,22	1267,69
281,43	1296,36
281,65	1269,74
281,86	1241,07
282,08	1290,22
282,29	1329,13
282,51	1292,27
282,73	1327,08
282,94	1247,21
283,16	1259,50
283,37	1273,84
283,59	1300,46
283,80	1302,51
284,02	1277,93
284,23	1310,70
284,45	1271,79
284,66	1269,74
284,88	1304,56
285,09	1308,65
285,31	1196,01
285,52	1271,79
285,74	1310,70
285,95	1286,12
286,17	1263,60
286,38	1236,97
286,60	1249,26
286,81	1275,88
287,03	1234,93
287,24	1325,04
287,46	1255,40
287,67	1263,60
287,89	1294,32
288,10	1288,17
288,32	1273,84
288,53	1269,74
288,75	1265,64
288,96	1232,88
289,18	1251,31
289,39	1232,88
289,61	1269,74
289,82	1271,79
290,04	1339,37
290,25	1284,08
290,47	1282,03
290,68	1263,60
290,90	1312,75
291,11	1234,93
291,33	1279,98
291,54	1255,40
291,76	1267,69
291,97	1263,60
292,18	1294,32
292,40	1271,79
292,61	1257,45
292,83	1269,74
293,04	1271,79
293,26	1230,83
293,47	1243,12
293,69	1271,79
293,90	1308,65
294,12	1304,56
294,33	1294,32
294,55	1288,17
294,76	1298,41
294,97	1282,03
295,19	1259,50
295,40	1277,93
295,62	1296,36
295,83	1294,32
296,05	1271,79
296,26	1325,04
296,48	1208,30
296,69	1257,45
296,90	1277,93
297,12	1277,93
297,33	1304,56
297,55	1214,45
297,76	1306,60
297,98	1271,79
298,19	1267,69
298,41	1259,50
298,62	1355,76
298,83	1265,64
299,05	1337,32
299,26	1310,70
299,48	1216,49
299,69	1220,59
299,90	1318,89
300,12	1275,88
300,33	1288,17
300,55	1243,12
300,76	1251,31
300,98	1282,03
301,19	1214,45
301,40	1288,17
301,62	1345,52
301,83	1206,25
302,05	1259,50
302,26	1206,25
302,47	1290,22
302,69	1269,74
302,90	1226,73
303,12	1245,16
303,33	1296,36
303,54	1269,74
303,76	1275,88
303,97	1263,60
304,19	1304,56
304,40	1284,08
304,61	1243,12
304,83	1296,36
305,04	1216,49
305,26	1251,31
305,47	1290,22
305,68	1259,50
305,90	1282,03
306,11	1267,69
306,33	1310,70
306,54	1310,70
306,75	1282,03
306,97	1310,70
307,18	1312,75
307,39	1200,11
307,61	1273,84
307,82	1300,46
308,04	1224,69
308,25	1265,64
308,46	1230,83
308,68	1279,98
308,89	1320,94
309,10	1318,89
309,32	1275,88
309,53	1329,13
309,74	1173,49
309,96	1253,36
310,17	1284,08
310,39	1282,03
310,60	1249,26
310,81	1247,21
311,03	1224,69
311,24	1198,06
311,45	1279,98
311,67	1263,60
311,88	1327,08
312,09	1245,16
312,31	1249,26
312,52	1241,07
312,73	1333,23
312,95	1265,64
313,16	1302,51
313,37	1322,99
313,59	1241,07
313,80	1271,79
314,01	1345,52
314,23	1275,88
314,44	1236,97
314,65	1304,56
314,87	1206,25
315,08	1286,12
315,29	1298,41
315,51	1146,86
315,72	1298,41
315,93	1320,94
316,15	1263,60
316,36	1265,64
316,57	1318,89
316,79	1322,99
317,00	1234,93
317,21	1245,16
317,43	1232,88
317,64	1239,02
317,85	1265,64
318,07	1304,56
318,28	1279,98
318,49	1288,17
318,70	1308,65
318,92	1294,32
319,13	1232,88
319,34	1288,17
319,56	1335,28
319,77	1249,26
319,98	1196,01
320,20	1226,73
320,41	1288,17
320,62	1245,16
320,83	1302,51
321,05	1236,97
321,26	1259,50
321,47	1329,13
321,69	1320,94
321,90	1261,55
322,11	1273,84
322,32	1284,08
322,54	1271,79
322,75	1239,02
322,96	1290,22
323,18	1282,03
323,39	1259,50
323,60	1271,79
323,81	1222,64
324,03	1302,51
324,24	1294,32
324,45	1216,49
324,66	1302,51
324,88	1257,45
325,09	1245,16
325,30	1325,04
325,52	1261,55
325,73	1273,84
325,94	1226,73
326,15	1232,88
326,37	1261,55
326,58	1265,64
326,79	1304,56
327,00	1265,64
327,22	1275,88
327,43	1243,12
327,64	1265,64
327,85	1294,32
328,07	1251,31
328,28	1279,98
328,49	1312,75
328,70	1296,36
328,92	1245,16
329,13	1236,97
329,34	1308,65
329,55	1239,02
329,76	1249,26
329,98	1288,17
330,19	1273,84
330,40	1288,17
330,61	1247,21
330,83	1251,31
331,04	1230,83
331,25	1247,21
331,46	1314,80
331,68	1273,84
331,89	1236,97
332,10	1279,98
332,31	1259,50
332,52	1277,93
332,74	1296,36
332,95	1279,98
333,16	1271,79
333,37	1298,41
333,58	1286,12
333,80	1310,70
334,01	1257,45
334,22	1212,40
334,43	1243,12
334,64	1296,36
334,86	1355,76
335,07	1306,60
335,28	1320,94
335,49	1302,51
335,70	1234,93
335,92	1224,69
336,13	1232,88
336,34	1261,55
336,55	1241,07
336,76	1292,27
336,98	1329,13
337,19	1224,69
337,40	1236,97
337,61	1265,64
337,82	1271,79
338,04	1288,17
338,25	1290,22
338,46	1277,93
338,67	1302,51
338,88	1212,40
339,09	1263,60
339,31	1245,16
339,52	1314,80
339,73	1273,84
339,94	1204,21
340,15	1267,69
340,36	1282,03
340,58	1267,69
340,79	1314,80
341,00	1318,89
341,21	1224,69
341,42	1253,36
341,63	1327,08
341,85	1255,40
342,06	1279,98
342,27	1275,88
342,48	1300,46
342,69	1230,83
342,90	1298,41
343,12	1288,17
343,33	1251,31
343,54	1261,55
343,75	1322,99
343,96	1255,40
344,17	1267,69
344,38	1185,77
344,60	1247,21
344,81	1236,97
345,02	1298,41
345,23	1302,51
345,44	1210,35
345,65	1249,26
345,86	1343,47
346,07	1249,26
346,29	1271,79
346,50	1308,65
346,71	1236,97
346,92	1316,84
347,13	1351,66
347,34	1273,84
347,55	1216,49
347,76	1306,60
347,98	1239,02
348,19	1308,65
348,40	1298,41
348,61	1257,45
348,82	1286,12
349,03	1349,61
349,24	1239,02
349,45	1279,98
349,66	1300,46
349,88	1232,88
350,09	1253,36
350,30	1265,64
350,51	1288,17
350,72	1329,13
350,93	1331,18
351,14	1200,11
351,35	1253,36
351,56	1343,47
351,77	1290,22
351,99	1249,26
352,20	1206,25
352,41	1236,97
352,62	1355,76
352,83	1271,79
353,04	1208,30
353,25	1218,54
353,46	1243,12
353,67	1245,16
353,88	1269,74
354,09	1265,64
354,30	1376,24
354,52	1290,22
354,73	1230,83
354,94	1257,45
355,15	1263,60
355,36	1263,60
355,57	1263,60
355,78	1300,46
355,99	1253,36
356,20	1267,69
356,41	1247,21
356,62	1300,46
356,83	1282,03
357,04	1212,40
357,25	1320,94
357,46	1316,84
357,68	1368,04
357,89	1277,93
358,10	1294,32
358,31	1310,70
358,52	1302,51
358,73	1273,84
358,94	1337,32
359,15	1325,04
359,36	1322,99
359,57	1263,60
359,78	1349,61
359,99	1263,60
360,20	1304,56
360,41	1284,08
360,62	1339,37
360,83	1288,17
361,04	1296,36
361,25	1249,26
361,46	1214,45
361,67	1236,97
361,88	1261,55
362,09	1226,73
362,30	1265,64
362,51	1257,45
362,72	1239,02
362,93	1218,54
363,14	1282,03
363,35	1279,98
363,56	1255,40
363,78	1318,89
363,99	1279,98
364,20	1284,08
364,41	1230,83
364,62	1210,35
364,83	1228,78
365,04	1318,89
365,25	1175,53
365,46	1349,61
365,67	1228,78
365,88	1253,36
366,09	1271,79
366,30	1353,71
366,51	1292,27
366,72	1310,70
366,93	1273,84
367,14	1290,22
367,35	1202,16
367,56	1296,36
367,77	1208,30
367,98	1251,31
368,18	1224,69
368,39	1239,02
368,60	1279,98
368,81	1263,60
369,02	1224,69
369,23	1269,74
369,44	1220,59
369,65	1288,17
369,86	1216,49
370,07	1257,45
370,28	1224,69
370,49	1284,08
370,70	1239,02
370,91	1196,01
371,12	1208,30
371,33	1249,26
371,54	1230,83
371,75	1257,45
371,96	1308,65
372,17	1284,08
372,38	1292,27
372,59	1294,32
372,80	1310,70
373,01	1245,16
373,22	1241,07
373,43	1269,74
373,64	1277,93
373,85	1286,12
374,06	1273,84
374,26	1277,93
374,47	1341,42
374,68	1318,89
374,89	1329,13
375,10	1241,07
375,31	1310,70
375,52	1286,12
375,73	1267,69
375,94	1214,45
376,15	1312,75
376,36	1241,07
376,57	1277,93
376,78	1286,12
376,99	1294,32
377,20	1273,84
377,40	1253,36
377,61	1282,03
377,82	1361,90
378,03	1265,64
378,24	1298,41
378,45	1284,08
378,66	1263,60
378,87	1314,80
379,08	1296,36
379,29	1318,89
379,50	1314,80
379,71	1232,88
379,91	1304,56
380,12	1306,60
380,33	1228,78
380,54	1290,22
380,75	1343,47
380,96	1249,26
381,17	1277,93
381,38	1282,03
381,59	1302,51
381,80	1220,59
382,00	1218,54
382,21	1212,40
382,42	1212,40
382,63	1331,18
382,84	1265,64
383,05	1275,88
383,26	1251,31
383,47	1222,64
383,68	1314,80
383,88	1275,88
384,09	1286,12
384,30	1288,17
384,51	1286,12
384,72	1290,22
384,93	1251,31
385,14	1200,11
385,35	1314,80
385,55	1267,69
385,76	1394,67
385,97	1251,31
386,18	1265,64
386,39	1343,47
386,60	1290,22
386,81	1159,15
387,02	1222,64
387,22	1181,68
387,43	1249,26
387,64	1257,45
387,85	1325,04
388,06	1198,06
388,27	1261,55
388,48	1286,12
388,68	1304,56
388,89	1234,93
389,10	1335,28
389,31	1282,03
389,52	1347,56
389,73	1212,40
389,93	1337,32
390,14	1271,79
390,35	1226,73
390,56	1314,80
390,77	1294,32
390,98	1239,02
391,18	1300,46
391,39	1308,65
391,60	1212,40
391,81	1228,78
392,02	1259,50
392,23	1265,64
392,43	1265,64
392,64	1273,84
392,85	1284,08
393,06	1316,84
393,27	1279,98
393,47	1279,98
393,68	1255,40
393,89	1269,74
394,10	1312,75
394,31	1310,70
394,52	1222,64
394,72	1261,55
394,93	1269,74
395,14	1261,55
395,35	1286,12
395,56	1265,64
395,76	1255,40
395,97	1304,56
396,18	1249,26
396,39	1271,79
396,60	1286,12
396,80	1312,75
397,01	1253,36
397,22	1187,82
397,43	1218,54
397,64	1228,78
397,84	1282,03
398,05	1251,31
398,26	1271,79
398,47	1292,27
398,67	1263,60
398,88	1245,16
399,09	1277,93
399,30	1273,84
399,51	1241,07
399,71	1187,82
399,92	1372,14
400,13	1267,69
400,34	1265,64
400,54	1208,30
400,75	1296,36
400,96	1202,16
401,17	1292,27
401,37	1282,03
401,58	1284,08
401,79	1277,93
402,00	1255,40
402,21	1251,31
402,41	1279,98
402,62	1245,16
402,83	1265,64
403,04	1277,93
403,24	1329,13
403,45	1284,08
403,66	1232,88
403,87	1247,21
404,07	1306,60
404,28	1243,12
404,49	1339,37
404,70	1226,73
404,90	1282,03
405,11	1271,79
405,32	1263,60
405,52	1269,74
405,73	1257,45
405,94	1288,17
406,15	1249,26
406,35	1279,98
406,56	1269,74
406,77	1337,32
406,98	1232,88
407,18	1279,98
407,39	1265,64
407,60	1222,64
407,80	1263,60
408,01	1239,02
408,22	1245,16
408,43	1251,31
408,63	1288,17
408,84	1202,16
409,05	1290,22
409,25	1241,07
409,46	1196,01
409,67	1366,00
409,88	1298,41
410,08	1331,18
410,29	1265,64
410,50	1388,52
410,70	1175,53
410,91	1222,64
411,12	1259,50
411,32	1241,07
411,53	1228,78
411,74	1370,09
411,95	1234,93
412,15	1310,70
412,36	1267,69
412,57	1263,60
412,77	1277,93
412,98	1171,44
413,19	1226,73
413,39	1226,73
413,60	1236,97
413,81	1316,84
414,01	1255,40
414,22	1247,21
414,43	1308,65
414,63	1212,40
414,84	1243,12
415,05	1265,64
415,25	1322,99
415,46	1249,26
415,67	1282,03
415,87	1288,17
416,08	1226,73
416,29	1249,26
416,49	1294,32
416,70	1210,35
416,91	1253,36
417,11	1263,60
417,32	1216,49
417,53	1208,30
417,73	1273,84
417,94	1277,93
418,15	1247,21
418,35	1208,30
418,56	1308,65
418,77	1249,26
418,97	1247,21
419,18	1251,31
419,38	1300,46
419,59	1290,22
419,80	1279,98
420,00	1157,10
420,21	1302,51
420,42	1329,13
420,62	1259,50
420,83	1325,04
421,04	1265,64
421,24	1230,83
421,45	1230,83
421,65	1290,22
421,86	1249,26
422,07	1288,17
422,27	1198,06
422,48	1234,93
422,69	1265,64
422,89	1263,60
423,10	1327,08
423,30	1224,69
423,51	1243,12
423,72	1302,51
423,92	1232,88
424,13	1273,84
424,33	1257,45
424,54	1292,27
424,75	1292,27
424,95	1218,54
425,16	1308,65
425,36	1267,69
425,57	1253,36
425,78	1159,15
425,98	1325,04
426,19	1288,17
426,39	1273,84
426,60	1271,79
426,81	1349,61
427,01	1263,60
427,22	1290,22
427,42	1239,02
427,63	1267,69
427,83	1300,46
428,04	1224,69
428,25	1275,88
428,45	1292,27
428,66	1273,84
428,86	1284,08
429,07	1263,60
429,28	1277,93
429,48	1292,27
429,69	1253,36
429,89	1251,31
430,10	1251,31
430,30	1196,01
430,51	1249,26
430,71	1269,74
430,92	1269,74
431,13	1249,26
431,33	1214,45
431,54	1255,40
431,74	1329,13
431,95	1267,69
432,15	1206,25
432,36	1265,64
432,56	1306,60
432,77	1271,79
432,98	1259,50
433,18	1269,74
433,39	1310,70
433,59	1236,97
433,80	1318,89
434,00	1370,09
434,21	1189,87
434,41	1228,78
434,62	1261,55
434,82	1273,84
435,03	1298,41
435,23	1282,03
435,44	1300,46
435,64	1234,93
435,85	1284,08
436,06	1273,84
436,26	1265,64
436,47	1308,65
436,67	1263,60
436,88	1275,88
437,08	1294,32
437,29	1275,88
437,49	1183,73
437,70	1239,02
437,90	1292,27
438,11	1234,93
438,31	1265,64
438,52	1320,94
438,72	1288,17
438,93	1310,70
439,13	1279,98
439,34	1279,98
439,54	1236,97
439,75	1275,88
439,95	1325,04
440,16	1236,97
440,36	1269,74
440,57	1298,41
440,77	1257,45
440,98	1318,89
441,18	1249,26
441,39	1212,40
441,59	1265,64
441,80	1288,17
442,00	1259,50
442,21	1314,80
442,41	1294,32
442,62	1292,27
442,82	1292,27
443,02	1288,17
443,23	1284,08
443,43	1263,60
443,64	1224,69
443,84	1275,88
444,05	1265,64
444,25	1275,88
444,46	1257,45
444,66	1302,51
444,87	1259,50
445,07	1271,79
445,28	1337,32
445,48	1245,16
445,69	1245,16
445,89	1282,03
446,09	1327,08
446,30	1247,21
446,50	1288,17
446,71	1222,64
446,91	1284,08
447,12	1286,12
447,32	1236,97
447,53	1236,97
447,73	1300,46
447,93	1245,16
448,14	1304,56
448,34	1220,59
448,55	1259,50
448,75	1359,85
448,96	1267,69
449,16	1269,74
449,36	1263,60
449,57	1294,32
449,77	1263,60
449,98	1167,34
450,18	1251,31
450,39	1327,08
450,59	1296,36
450,79	1318,89
451,00	1331,18
451,20	1255,40
451,41	1224,69
451,61	1185,77
451,81	1325,04
452,02	1230,83
452,22	1341,42
452,43	1290,22
452,63	1245,16
452,84	1234,93
453,04	1228,78
453,24	1333,23
453,45	1255,40
453,65	1243,12
453,86	1239,02
454,06	1251,31
454,26	1306,60
454,47	1306,60
454,67	1220,59
454,87	1273,84
455,08	1245,16
455,28	1265,64
455,49	1249,26
455,69	1277,93
455,89	1349,61
456,10	1331,18
456,30	1245,16
456,51	1273,84
456,71	1245,16
456,91	1282,03
457,12	1255,40
457,32	1339,37
457,52	1265,64
457,73	1196,01
457,93	1304,56
458,14	1218,54
458,34	1251,31
458,54	1349,61
458,75	1239,02
458,95	1196,01
459,15	1241,07
459,36	1290,22
459,56	1275,88
459,76	1273,84
459,97	1275,88
460,17	1288,17
460,37	1282,03
460,58	1228,78
460,78	1312,75
460,99	1294,32
461,19	1290,22
461,39	1361,90
461,60	1333,23
461,80	1251,31
462,00	1298,41
462,21	1263,60
462,41	1263,60
462,61	1228,78
462,82	1296,36
463,02	1304,56
463,22	1327,08
463,43	1331,18
463,63	1261,55
463,83	1300,46
464,04	1269,74
464,24	1312,75
464,44	1269,74
464,64	1277,93
464,85	1263,60
465,05	1261,55
465,25	1228,78
465,46	1279,98
465,66	1271,79
465,86	1329,13
466,07	1300,46
466,27	1247,21
466,47	1318,89
466,68	1202,16
466,88	1368,04
467,08	1304,56
467,29	1273,84
467,49	1310,70
467,69	1329,13
467,89	1294,32
468,10	1218,54
468,30	1376,24
468,50	1296,36
468,71	1241,07
468,91	1226,73
469,11	1265,64
469,31	1226,73
469,52	1263,60
469,72	1261,55
469,92	1269,74
470,13	1255,40
470,33	1314,80
470,53	1320,94
470,73	1241,07
470,94	1294,32
471,14	1331,18
471,34	1310,70
471,54	1185,77
471,75	1294,32
471,95	1325,04
472,15	1275,88
472,36	1191,92
472,56	1249,26
472,76	1288,17
472,96	1241,07
473,17	1292,27
473,37	1302,51
473,57	1196,01
473,77	1257,45
473,98	1228,78
474,18	1263,60
474,38	1300,46
474,58	1290,22
474,79	1249,26
474,99	1298,41
475,19	1273,84
475,39	1216,49
475,60	1275,88
475,80	1224,69
476,00	1277,93
476,20	1228,78
476,41	1247,21
476,61	1263,60
476,81	1279,98
477,01	1335,28
477,21	1308,65
477,42	1265,64
477,62	1234,93
477,82	1255,40
478,02	1265,64
478,23	1304,56
478,43	1224,69
478,63	1255,40
478,83	1232,88
479,03	1249,26
479,24	1228,78
479,44	1286,12
479,64	1370,09
479,84	1241,07
480,04	1275,88
480,25	1269,74
480,45	1253,36
480,65	1312,75
480,85	1216,49
481,06	1325,04
481,26	1241,07
481,46	1261,55
481,66	1322,99
481,86	1247,21
482,06	1318,89
482,27	1308,65
482,47	1220,59
482,67	1298,41
482,87	1245,16
483,07	1232,88
483,28	1234,93
483,48	1245,16
483,68	1265,64
483,88	1277,93
484,08	1275,88
484,29	1255,40
484,49	1294,32
484,69	1251,31
484,89	1298,41
485,09	1232,88
485,29	1322,99
485,50	1216,49
485,70	1279,98
485,90	1314,80
486,10	1339,37
486,30	1282,03
486,50	1312,75
486,71	1208,30
486,91	1318,89
487,11	1275,88
487,31	1282,03
487,51	1312,75
487,71	1271,79
487,91	1294,32
488,12	1318,89
488,32	1185,77
488,52	1239,02
488,72	1261,55
488,92	1294,32
489,12	1282,03
489,32	1284,08
489,53	1302,51
489,73	1277,93
489,93	1226,73
490,13	1220,59
490,33	1232,88
490,53	1269,74
490,73	1288,17
490,94	1286,12
491,14	1247,21
491,34	1206,25
491,54	1273,84
491,74	1191,92
491,94	1230,83
492,14	1214,45
492,34	1318,89
492,54	1288,17
492,75	1271,79
492,95	1308,65
493,15	1310,70
493,35	1236,97
493,55	1288,17
493,75	1284,08
493,95	1310,70
494,15	1212,40
494,35	1296,36
494,56	1325,04
494,76	1290,22
494,96	1279,98
495,16	1282,03
495,36	1210,35
495,56	1212,40
495,76	1275,88
495,96	1310,70
496,16	1236,97
496,36	1253,36
496,56	1318,89
496,77	1292,27
496,97	1302,51
497,17	1318,89
497,37	1327,08
497,57	1294,32
497,77	1232,88
497,97	1251,31
498,17	1232,88
498,37	1259,50
498,57	1290,22
498,77	1263,60
498,97	1257,45
499,17	1343,47
499,38	1335,28
499,58	1253,36
499,78	1236,97
499,98	1210,35
500,18	1251,31
500,38	1380,33
500,58	1249,26
500,78	1239,02
500,98	1286,12
501,18	1284,08
501,38	1255,40
501,58	1271,79
501,78	1322,99
501,98	1216,49
502,18	1275,88
502,38	1230,83
502,58	1239,02
502,78	1288,17
502,98	1279,98
503,18	1275,88
503,38	1284,08
503,59	1318,89
503,79	1282,03
503,99	1296,36
504,19	1257,45
504,39	1269,74
504,59	1282,03
504,79	1314,80
504,99	1327,08
505,19	1257,45
505,39	1191,92
505,59	1316,84
505,79	1269,74
505,99	1275,88
506,19	1277,93
506,39	1247,21
506,59	1329,13
506,79	1292,27
506,99	1288,17
507,19	1296,36
507,39	1300,46
507,59	1314,80
507,79	1257,45
507,99	1273,84
508,19	1241,07
508,39	1243,12
508,59	1279,98
508,79	1253,36
508,99	1288,17
509,19	1282,03
509,39	1292,27
509,59	1290,22
509,79	1314,80
509,99	1282,03
510,19	1169,39
510,39	1327,08
510,59	1241,07
510,79	1253,36
510,99	1234,93
511,19	1222,64
511,39	1286,12
511,59	1343,47
511,79	1325,04
511,99	1263,60
512,19	1271,79
512,38	1236,97
512,58	1249,26
512,78	1236,97
512,98	1310,70
513,18	1267,69
513,38	1228,78
513,58	1302,51
513,78	1228,78
513,98	1302,51
514,18	1200,11
514,38	1259,50
514,58	1212,40
514,78	1206,25
514,98	1200,11
515,18	1273,84
515,38	1267,69
515,58	1282,03
515,78	1224,69
515,98	1230,83
516,18	1273,84
516,38	1175,53
516,57	1294,32
516,77	1282,03
516,97	1288,17
517,17	1273,84
517,37	1290,22
517,57	1204,21
517,77	1290,22
517,97	1208,30
518,17	1282,03
518,37	1206,25
518,57	1282,03
518,77	1312,75
518,97	1210,35
519,16	1312,75
519,36	1310,70
519,56	1320,94
519,76	1249,26
519,96	1333,23
520,16	1296,36
520,36	1284,08
520,56	1312,75
520,76	1257,45
520,96	1277,93
521,16	1216,49
521,35	1261,55
521,55	1284,08
521,75	1239,02
521,95	1273,84
522,15	1296,36
522,35	1353,71
522,55	1355,76
522,75	1230,83
522,95	1245,16
523,14	1286,12
523,34	1290,22
523,54	1234,93
523,74	1232,88
523,94	1265,64
524,14	1318,89
524,34	1279,98
524,54	1259,50
524,73	1286,12
524,93	1232,88
525,13	1247,21
525,33	1255,40
525,53	1337,32
525,73	1282,03
525,93	1222,64
526,13	1243,12
526,32	1271,79
526,52	1341,42
526,72	1284,08
526,92	1206,25
527,12	1259,50
527,32	1159,15
527,52	1183,73
527,71	1193,97
527,91	1210,35
528,11	1226,73
528,31	1265,64
528,51	1236,97
528,71	1277,93
528,90	1314,80
529,10	1298,41
529,30	1255,40
529,50	1273,84
529,70	1290,22
529,90	1206,25
530,09	1325,04
530,29	1275,88
530,49	1247,21
530,69	1298,41
530,89	1275,88
531,09	1308,65
531,28	1335,28
531,48	1155,05
531,68	1269,74
531,88	1304,56
532,08	1247,21
532,28	1269,74
532,47	1230,83
532,67	1265,64
532,87	1269,74
533,07	1296,36
533,27	1173,49
533,46	1273,84
533,66	1275,88
533,86	1296,36
534,06	1257,45
534,26	1298,41
534,45	1234,93
534,65	1275,88
534,85	1284,08
535,05	1269,74
535,25	1232,88
535,44	1251,31
535,64	1271,79
535,84	1269,74
536,04	1265,64
536,24	1232,88
536,43	1212,40
536,63	1290,22
536,83	1222,64
537,03	1300,46
537,22	1249,26
537,42	1214,45
537,62	1271,79
537,82	1216,49
538,02	1331,18
538,21	1251,31
538,41	1239,02
538,61	1249,26
538,81	1267,69
539,00	1243,12
539,20	1271,79
539,40	1230,83
539,60	1292,27
539,79	1265,64
539,99	1277,93
540,19	1279,98
540,39	1261,55
540,58	1239,02
540,78	1265,64
540,98	1273,84
541,18	1236,97
541,37	1261,55
541,57	1273,84
541,77	1255,40
541,97	1232,88
542,16	1222,64
542,36	1271,79
542,56	1245,16
542,76	1228,78
542,95	1288,17
543,15	1236,97
543,35	1243,12
543,54	1212,40
543,74	1292,27
543,94	1372,14
544,14	1267,69
544,33	1284,08
544,53	1267,69
544,73	1216,49
544,93	1349,61
545,12	1302,51
545,32	1216,49
545,52	1269,74
545,71	1245,16
545,91	1312,75
546,11	1335,28
546,30	1329,13
546,50	1234,93
546,70	1202,16
546,90	1245,16
547,09	1247,21
547,29	1331,18
547,49	1261,55
547,68	1298,41
547,88	1273,84
548,08	1216,49
548,27	1277,93
548,47	1222,64
548,67	1230,83
548,87	1284,08
549,06	1335,28
549,26	1282,03
549,46	1304,56
549,65	1282,03
549,85	1247,21
550,05	1347,56
550,24	1386,47
550,44	1284,08
550,64	1257,45
550,83	1216,49
551,03	1247,21
551,23	1337,32
551,42	1288,17
551,62	1265,64
551,82	1232,88
552,01	1300,46
552,21	1333,23
552,41	1298,41
552,60	1320,94
552,80	1239,02
553,00	1187,82
553,19	1286,12
553,39	1359,85
553,59	1251,31
553,78	1275,88
553,98	1273,84
554,17	1255,40
554,37	1206,25
554,57	1300,46
554,76	1284,08
554,96	1335,28
555,16	1318,89
555,35	1226,73
555,55	1345,52
555,75	1261,55
555,94	1290,22
556,14	1232,88
556,33	1265,64
556,53	1263,60
556,73	1277,93
556,92	1273,84
557,12	1257,45
557,32	1230,83
557,51	1300,46
557,71	1243,12
557,90	1249,26
558,10	1273,84
558,30	1220,59
558,49	1234,93
558,69	1320,94
558,88	1339,37
559,08	1337,32
559,28	1232,88
559,47	1255,40
559,67	1310,70
559,86	1271,79
560,06	1247,21
560,26	1300,46
560,45	1232,88
560,65	1241,07
560,84	1232,88
561,04	1259,50
561,24	1220,59
561,43	1255,40
561,63	1277,93
561,82	1265,64
562,02	1243,12
562,22	1298,41
562,41	1222,64
562,61	1279,98
562,80	1241,07
563,00	1310,70
563,19	1318,89
563,39	1290,22
563,59	1263,60
563,78	1331,18
563,98	1275,88
564,17	1187,82
564,37	1226,73
564,56	1325,04
564,76	1282,03
564,96	1310,70
565,15	1277,93
565,35	1314,80
565,54	1241,07
565,74	1267,69
565,93	1284,08
566,13	1249,26
566,32	1216,49
566,52	1357,80
566,71	1294,32
566,91	1218,54
567,11	1226,73
567,30	1249,26
567,50	1239,02
567,69	1306,60
567,89	1294,32
568,08	1271,79
568,28	1355,76
568,47	1294,32
568,67	1239,02
568,86	1314,80
569,06	1247,21
569,25	1212,40
569,45	1214,45
569,64	1284,08
569,84	1273,84
570,04	1228,78
570,23	1310,70
570,43	1322,99
570,62	1206,25
570,82	1243,12
571,01	1279,98
571,21	1263,60
571,40	1271,79
571,60	1335,28
571,79	1294,32
571,99	1241,07
572,18	1218,54
572,38	1282,03
572,57	1300,46
572,77	1302,51
572,96	1306,60
573,16	1249,26
573,35	1251,31
573,55	1286,12
573,74	1316,84
573,94	1267,69
574,13	1218,54
574,33	1193,97
574,52	1282,03
574,71	1318,89
574,91	1302,51
575,10	1167,34
575,30	1259,50
575,49	1288,17
575,69	1374,19
575,88	1249,26
576,08	1245,16
576,27	1263,60
576,47	1249,26
576,66	1273,84
576,86	1306,60
577,05	1316,84
577,25	1327,08
577,44	1271,79
577,64	1327,08
577,83	1271,79
578,02	1177,58
578,22	1279,98
578,41	1322,99
578,61	1302,51
578,80	1249,26
579,00	1167,34
579,19	1253,36
579,39	1241,07
579,58	1263,60
579,77	1261,55
579,97	1298,41
580,16	1302,51
580,36	1253,36
580,55	1298,41
580,75	1331,18
580,94	1316,84
581,13	1234,93
581,33	1249,26
581,52	1245,16
581,72	1292,27
581,91	1269,74
582,11	1271,79
582,30	1366,00
582,49	1292,27
582,69	1388,52
582,88	1277,93
583,08	1206,25
583,27	1196,01
583,47	1298,41
583,66	1249,26
583,85	1325,04
584,05	1230,83
584,24	1322,99
584,44	1327,08
584,63	1230,83
584,82	1370,09
585,02	1234,93
585,21	1257,45
585,41	1298,41
585,60	1245,16
585,79	1239,02
585,99	1243,12
586,18	1318,89
586,37	1282,03
586,57	1292,27
586,76	1247,21
586,96	1263,60
587,15	1357,80
587,34	1322,99
587,54	1232,88
587,73	1290,22
587,93	1363,95
588,12	1230,83
588,31	1234,93
588,51	1284,08
588,70	1300,46
588,89	1273,84
589,09	1269,74
589,28	1234,93
589,47	1273,84
589,67	1226,73
589,86	1329,13
590,06	1216,49
590,25	1234,93
590,44	1277,93
590,64	1249,26
590,83	1271,79
591,02	1320,94
591,22	1236,97
591,41	1255,40
591,60	1222,64
591,80	1257,45
591,99	1261,55
592,18	1286,12
592,38	1236,97
592,57	1206,25
592,76	1265,64
592,96	1243,12
593,15	1298,41
593,34	1257,45
593,54	1275,88
593,73	1298,41
593,92	1230,83
594,12	1355,76
594,31	1320,94
594,50	1243,12
594,70	1271,79
594,89	1269,74
595,08	1288,17
595,28	1259,50
595,47	1224,69
595,66	1284,08
595,86	1294,32
596,05	1163,25
596,24	1306,60
596,43	1255,40
596,63	1234,93
596,82	1226,73
597,01	1327,08
597,21	1269,74
597,40	1314,80
597,59	1298,41
597,79	1257,45
597,98	1290,22
598,17	1310,70
598,36	1222,64
598,56	1275,88
598,75	1314,80
598,94	1214,45
599,14	1196,01
599,33	1239,02
599,52	1259,50
599,71	1376,24
599,91	1304,56
600,10	1302,51
600,29	1265,64
600,48	1216,49
600,68	1220,59
600,87	1216,49
601,06	1249,26
601,26	1243,12
601,45	1343,47
601,64	1351,66
601,83	1351,66
602,03	1341,42
602,22	1259,50
602,41	1239,02
602,60	1298,41
602,80	1251,31
602,99	1279,98
603,18	1202,16
603,37	1320,94
603,57	1279,98
603,76	1257,45
603,95	1284,08
604,14	1253,36
604,34	1249,26
604,53	1290,22
604,72	1239,02
604,91	1308,65
605,10	1269,74
605,30	1224,69
605,49	1298,41
605,68	1331,18
605,87	1302,51
606,07	1247,21
606,26	1183,73
606,45	1355,76
606,64	1234,93
606,84	1224,69
607,03	1230,83
607,22	1282,03
607,41	1259,50
607,60	1277,93
607,80	1255,40
607,99	1277,93
608,18	1316,84
608,37	1216,49
608,56	1275,88
608,76	1288,17
608,95	1284,08
609,14	1306,60
609,33	1302,51
609,52	1261,55
609,72	1230,83
609,91	1247,21
610,10	1279,98
610,29	1286,12
610,48	1241,07
610,68	1255,40
610,87	1253,36
611,06	1239,02
611,25	1316,84
611,44	1257,45
611,63	1322,99
611,83	1308,65
612,02	1247,21
612,21	1351,66
612,40	1255,40
612,59	1228,78
612,79	1222,64
612,98	1320,94
613,17	1243,12
613,36	1290,22
613,55	1298,41
613,74	1286,12
613,93	1236,97
614,13	1288,17
614,32	1282,03
614,51	1306,60
614,70	1275,88
614,89	1232,88
615,08	1259,50
615,28	1318,89
615,47	1288,17
615,66	1239,02
615,85	1271,79
616,04	1314,80
616,23	1290,22
616,42	1257,45
616,62	1234,93
616,81	1263,60
617,00	1296,36
617,19	1261,55
617,38	1267,69
617,57	1271,79
617,76	1236,97
617,95	1331,18
618,15	1265,64
618,34	1277,93
618,53	1290,22
618,72	1347,56
618,91	1304,56
619,10	1259,50
619,29	1218,54
619,48	1292,27
619,68	1314,80
619,87	1230,83
620,06	1314,80
620,25	1331,18
620,44	1251,31
620,63	1226,73
620,82	1261,55
621,01	1230,83
621,20	1220,59
621,39	1275,88
621,59	1253,36
621,78	1296,36
621,97	1222,64
622,16	1230,83
622,35	1286,12
622,54	1322,99
622,73	1267,69
622,92	1241,07
623,11	1282,03
623,30	1294,32
623,49	1286,12
623,68	1331,18
623,88	1279,98
624,07	1241,07
624,26	1273,84
624,45	1320,94
624,64	1253,36
624,83	1304,56
625,02	1236,97
625,21	1226,73
625,40	1261,55
625,59	1253,36
625,78	1351,66
625,97	1335,28
626,16	1243,12
626,35	1347,56
626,54	1296,36
626,74	1282,03
626,93	1312,75
627,12	1273,84
627,31	1249,26
627,50	1302,51
627,69	1277,93
627,88	1316,84
628,07	1255,40
628,26	1304,56
628,45	1206,25
628,64	1343,47
628,83	1265,64
629,02	1279,98
629,21	1300,46
629,40	1310,70
629,59	1265,64
629,78	1312,75
629,97	1228,78
630,16	1282,03
630,35	1288,17
630,54	1228,78
630,73	1370,09
630,92	1286,12
631,11	1335,28
631,30	1304,56
631,49	1353,71
631,68	1341,42
631,87	1433,58
632,06	1441,77
632,25	1322,99
632,44	1435,63
632,63	1339,37
632,82	1406,95
633,01	1404,91
633,20	1380,33
633,39	1427,43
633,58	1386,47
633,77	1370,09
633,96	1464,30
634,15	1486,83
634,34	1443,82
634,53	1488,87
634,72	1421,29
634,91	1380,33
635,10	1380,33
635,29	1415,15
635,48	1406,95
635,67	1441,77
635,86	1382,38
636,05	1359,85
636,24	1423,34
636,43	1425,39
636,62	1406,95
636,81	1335,28
637,00	1361,90
637,19	1384,43
637,38	1380,33
637,57	1318,89
637,76	1349,61
637,95	1325,04
638,14	1304,56
638,33	1322,99
638,52	1271,79
638,71	1300,46
638,89	1333,23
639,08	1316,84
639,27	1290,22
639,46	1320,94
639,65	1206,25
639,84	1247,21
640,03	1261,55
640,22	1228,78
640,41	1273,84
640,60	1273,84
640,79	1343,47
640,98	1273,84
641,17	1175,53
641,36	1267,69
641,55	1312,75
641,74	1267,69
641,92	1306,60
642,11	1320,94
642,30	1300,46
642,49	1277,93
642,68	1329,13
642,87	1251,31
643,06	1343,47
643,25	1282,03
643,44	1226,73
643,63	1296,36
643,82	1288,17
644,00	1249,26
644,19	1300,46
644,38	1298,41
644,57	1259,50
644,76	1263,60
644,95	1257,45
645,14	1263,60
645,33	1329,13
645,52	1236,97
645,71	1308,65
645,89	1339,37
646,08	1300,46
646,27	1314,80
646,46	1284,08
646,65	1265,64
646,84	1316,84
647,03	1247,21
647,22	1296,36
647,40	1247,21
647,59	1269,74
647,78	1298,41
647,97	1236,97
648,16	1304,56
648,35	1275,88
648,54	1234,93
648,73	1271,79
648,91	1298,41
649,10	1208,30
649,29	1265,64
649,48	1359,85
649,67	1298,41
649,86	1294,32
650,05	1204,21
650,23	1249,26
650,42	1193,97
650,61	1200,11
650,80	1271,79
650,99	1239,02
651,18	1259,50
651,36	1249,26
651,55	1214,45
651,74	1370,09
651,93	1253,36
652,12	1343,47
652,31	1208,30
652,49	1279,98
652,68	1214,45
652,87	1239,02
653,06	1243,12
653,25	1320,94
653,44	1212,40
653,62	1236,97
653,81	1312,75
654,00	1290,22
654,19	1232,88
654,38	1216,49
654,56	1284,08
654,75	1228,78
654,94	1245,16
655,13	1273,84
655,32	1216,49
655,51	1255,40
655,69	1259,50
655,88	1279,98
656,07	1327,08
656,26	1288,17
656,45	1261,55
656,63	1263,60
656,82	1302,51
657,01	1310,70
657,20	1320,94
657,38	1243,12
657,57	1243,12
657,76	1263,60
657,95	1298,41
658,14	1357,80
658,32	1284,08
658,51	1288,17
658,70	1304,56
658,89	1294,32
659,08	1314,80
659,26	1282,03
659,45	1273,84
659,64	1296,36
659,83	1298,41
660,01	1290,22
660,20	1380,33
660,39	1345,52
660,58	1196,01
660,76	1318,89
660,95	1271,79
661,14	1279,98
661,33	1243,12
661,51	1347,56
661,70	1284,08
661,89	1277,93
662,08	1277,93
662,26	1191,92
662,45	1230,83
662,64	1249,26
662,83	1312,75
663,01	1230,83
663,20	1236,97
663,39	1263,60
663,58	1327,08
663,76	1294,32
663,95	1177,58
664,14	1347,56
664,32	1241,07
664,51	1214,45
664,70	1271,79
664,89	1339,37
665,07	1263,60
665,26	1232,88
665,45	1226,73
665,64	1265,64
665,82	1216,49
666,01	1288,17
666,20	1224,69
666,38	1347,56
666,57	1212,40
666,76	1322,99
666,95	1224,69
667,13	1275,88
667,32	1294,32
667,51	1245,16
667,69	1234,93
667,88	1251,31
668,07	1208,30
668,25	1263,60
668,44	1265,64
668,63	1259,50
668,81	1322,99
669,00	1298,41
669,19	1220,59
669,38	1308,65
669,56	1222,64
669,75	1257,45
669,94	1269,74
670,12	1224,69
670,31	1290,22
670,50	1255,40
670,68	1241,07
670,87	1310,70
671,06	1271,79
671,24	1236,97
671,43	1310,70
671,62	1189,87
671,80	1335,28
671,99	1308,65
672,18	1284,08
672,36	1337,32
672,55	1259,50
672,74	1226,73
672,92	1261,55
673,11	1294,32
673,29	1271,79
673,48	1265,64
673,67	1191,92
673,85	1339,37
674,04	1302,51
674,23	1312,75
674,41	1273,84
674,60	1265,64
674,79	1241,07
674,97	1286,12
675,16	1210,35
675,34	1263,60
675,53	1277,93
675,72	1277,93
675,90	1292,27
676,09	1300,46
676,28	1282,03
676,46	1273,84
676,65	1230,83
676,83	1249,26
677,02	1255,40
677,21	1275,88
677,39	1284,08
677,58	1257,45
677,77	1290,22
677,95	1226,73
678,14	1288,17
678,32	1314,80
678,51	1243,12
678,70	1306,60
678,88	1269,74
679,07	1230,83
679,25	1198,06
679,44	1257,45
679,63	1255,40
679,81	1241,07
680,00	1241,07
680,18	1304,56
680,37	1349,61
680,55	1257,45
680,74	1271,79
680,93	1312,75
681,11	1234,93
681,30	1318,89
681,48	1255,40
681,67	1308,65
681,85	1318,89
682,04	1298,41
682,23	1261,55
682,41	1214,45
682,60	1247,21
682,78	1282,03
682,97	1275,88
683,15	1304,56
683,34	1318,89
683,53	1316,84
683,71	1247,21
683,90	1310,70
684,08	1275,88
684,27	1206,25
684,45	1286,12
684,64	1271,79
684,82	1167,34
685,01	1284,08
685,19	1288,17
685,38	1269,74
685,57	1220,59
685,75	1318,89
685,94	1243,12
686,12	1257,45
686,31	1208,30
686,49	1312,75
686,68	1236,97
686,86	1239,02
687,05	1282,03
687,23	1220,59
687,42	1232,88
687,60	1267,69
687,79	1310,70
687,97	1329,13
688,16	1288,17
688,34	1257,45
688,53	1290,22
688,71	1314,80
688,90	1290,22
689,08	1136,62
689,27	1232,88
689,45	1282,03
689,64	1204,21
689,82	1282,03
690,01	1216,49
690,19	1304,56
690,38	1327,08
690,56	1214,45
690,75	1306,60
690,93	1279,98
691,12	1210,35
691,30	1232,88
691,49	1267,69
691,67	1292,27
691,86	1249,26
692,04	1214,45
692,23	1290,22
692,41	1288,17
692,60	1314,80
692,78	1261,55
692,97	1239,02
693,15	1273,84
693,34	1327,08
693,52	1255,40
693,71	1234,93
693,89	1308,65
694,08	1200,11
694,26	1208,30
694,44	1308,65
694,63	1298,41
694,81	1232,88
695,00	1257,45
695,18	1306,60
695,37	1267,69
695,55	1255,40
695,74	1300,46
695,92	1269,74
696,10	1267,69
696,29	1302,51
696,47	1279,98
696,66	1318,89
696,84	1239,02
697,03	1265,64
697,21	1363,95
697,40	1355,76
697,58	1273,84
697,76	1327,08
697,95	1263,60
698,13	1320,94
698,32	1259,50
698,50	1300,46
698,68	1304,56
698,87	1255,40
699,05	1259,50
699,24	1265,64
699,42	1249,26
699,61	1214,45
699,79	1236,97
699,97	1222,64
700,16	1304,56
700,34	1271,79
700,53	1249,26
700,71	1257,45
700,89	1259,50
701,08	1290,22
701,26	1239,02
701,45	1282,03
701,63	1312,75
701,81	1312,75
702,00	1257,45
702,18	1273,84
702,37	1296,36
702,55	1269,74
702,73	1234,93
702,92	1204,21
703,10	1222,64
703,28	1167,34
703,47	1290,22
703,65	1308,65
703,84	1300,46
704,02	1222,64
704,20	1222,64
704,39	1314,80
704,57	1322,99
704,75	1318,89
704,94	1241,07
705,12	1290,22
705,30	1257,45
705,49	1325,04
705,67	1216,49
705,86	1243,12
706,04	1257,45
706,22	1259,50
706,41	1300,46
706,59	1224,69
706,77	1232,88
706,96	1232,88
707,14	1312,75
707,32	1286,12
707,51	1306,60
707,69	1236,97
707,87	1286,12
708,06	1234,93
708,24	1198,06
708,42	1310,70
708,61	1347,56
708,79	1224,69
708,97	1347,56
709,16	1271,79
709,34	1277,93
709,52	1320,94
709,71	1232,88
709,89	1243,12
710,07	1243,12
710,26	1302,51
710,44	1312,75
710,62	1267,69
710,80	1347,56
710,99	1247,21
711,17	1312,75
711,35	1230,83
711,54	1320,94
711,72	1220,59
711,90	1230,83
712,09	1282,03
712,27	1320,94
712,45	1277,93
712,63	1284,08
712,82	1214,45
713,00	1275,88
713,18	1290,22
713,37	1265,64
713,55	1253,36
713,73	1249,26
713,91	1204,21
714,10	1247,21
714,28	1273,84
714,46	1290,22
714,65	1273,84
714,83	1294,32
715,01	1279,98
715,19	1218,54
715,38	1257,45
715,56	1208,30
715,74	1292,27
715,92	1241,07
716,11	1163,25
716,29	1329,13
716,47	1284,08
716,65	1277,93
716,84	1206,25
717,02	1187,82
717,20	1314,80
717,38	1284,08
717,57	1304,56
717,75	1294,32
717,93	1292,27
718,11	1232,88
718,30	1292,27
718,48	1290,22
718,66	1212,40
718,84	1288,17
719,03	1312,75
719,21	1269,74
719,39	1282,03
719,57	1320,94
719,75	1320,94
719,94	1239,02
720,12	1232,88
720,30	1296,36
720,48	1296,36
720,67	1284,08
720,85	1253,36
721,03	1273,84
721,21	1239,02
721,39	1312,75
721,58	1275,88
721,76	1300,46
721,94	1263,60
722,12	1269,74
722,30	1265,64
722,49	1284,08
722,67	1294,32
722,85	1339,37
723,03	1220,59
723,21	1325,04
723,40	1243,12
723,58	1208,30
723,76	1290,22
723,94	1302,51
724,12	1269,74
724,30	1257,45
724,49	1212,40
724,67	1343,47
724,85	1251,31
725,03	1296,36
725,21	1263,60
725,40	1265,64
725,58	1296,36
725,76	1294,32
725,94	1239,02
726,12	1228,78
726,30	1222,64
726,49	1277,93
726,67	1302,51
726,85	1290,22
727,03	1302,51
727,21	1345,52
727,39	1245,16
727,57	1282,03
727,76	1275,88
727,94	1314,80
728,12	1306,60
728,30	1353,71
728,48	1245,16
728,66	1200,11
728,84	1282,03
729,03	1277,93
729,21	1259,50
729,39	1329,13
729,57	1257,45
729,75	1275,88
729,93	1306,60
730,11	1279,98
730,30	1255,40
730,48	1265,64
730,66	1263,60
730,84	1320,94
731,02	1284,08
731,20	1208,30
731,38	1257,45
731,56	1230,83
731,74	1308,65
731,93	1273,84
732,11	1277,93
732,29	1298,41
732,47	1329,13
732,65	1249,26
732,83	1316,84
733,01	1214,45
733,19	1267,69
733,37	1263,60
733,56	1325,04
733,74	1261,55
733,92	1228,78
734,10	1322,99
734,28	1286,12
734,46	1253,36
734,64	1247,21
734,82	1294,32
735,00	1267,69
735,18	1249,26
735,36	1224,69
735,54	1253,36
735,73	1224,69
735,91	1241,07
736,09	1322,99
736,27	1269,74
736,45	1271,79
736,63	1245,16
736,81	1171,44
736,99	1282,03
737,17	1220,59
737,35	1318,89
737,53	1198,06
737,71	1273,84
737,89	1337,32
738,07	1261,55
738,25	1279,98
738,43	1257,45
738,61	1230,83
738,80	1167,34
738,98	1239,02
739,16	1261,55
739,34	1288,17
739,52	1204,21
739,70	1349,61
739,88	1282,03
740,06	1247,21
740,24	1298,41
740,42	1273,84
740,60	1304,56
740,78	1265,64
740,96	1253,36
741,14	1204,21
741,32	1275,88
741,50	1241,07
741,68	1290,22
741,86	1271,79
742,04	1241,07
742,22	1232,88
742,40	1284,08
742,58	1202,16
742,76	1279,98
742,94	1384,43
743,12	1232,88
743,30	1296,36
743,48	1279,98
743,66	1179,63
743,84	1232,88
744,02	1202,16
744,20	1163,25
744,38	1196,01
744,56	1310,70
744,74	1196,01
744,92	1312,75
745,10	1271,79
745,28	1306,60
745,46	1300,46
745,64	1273,84
745,82	1282,03
746,00	1282,03
746,18	1353,71
746,36	1273,84
746,54	1314,80
746,72	1279,98
746,90	1259,50
747,08	1261,55
747,26	1204,21
747,44	1275,88
747,62	1251,31
747,80	1265,64
747,98	1345,52
748,15	1335,28
748,33	1257,45
748,51	1269,74
748,69	1333,23
748,87	1314,80
749,05	1216,49
749,23	1308,65
749,41	1282,03
749,59	1271,79
749,77	1269,74
749,95	1298,41
750,13	1304,56
750,31	1292,27
750,49	1294,32
750,67	1333,23
750,85	1325,04
751,03	1241,07
751,20	1284,08
751,38	1251,31
751,56	1282,03
751,74	1269,74
751,92	1249,26
752,10	1245,16
752,28	1245,16
752,46	1269,74
752,64	1306,60
752,82	1257,45
753,00	1284,08
753,18	1220,59
753,35	1284,08
753,53	1234,93
753,71	1263,60
753,89	1298,41
754,07	1216,49
754,25	1329,13
754,43	1253,36
754,61	1271,79
754,79	1298,41
754,97	1292,27
755,14	1263,60
755,32	1302,51
755,50	1296,36
755,68	1294,32
755,86	1200,11
756,04	1282,03
756,22	1284,08
756,40	1265,64
756,57	1361,90
756,75	1224,69
756,93	1257,45
757,11	1263,60
757,29	1202,16
757,47	1314,80
757,65	1269,74
757,82	1265,64
758,00	1271,79
758,18	1257,45
758,36	1290,22
758,54	1269,74
758,72	1230,83
758,90	1247,21
759,07	1292,27
759,25	1269,74
759,43	1288,17
759,61	1292,27
759,79	1318,89
759,97	1318,89
760,15	1243,12
760,32	1249,26
760,50	1263,60
760,68	1279,98
760,86	1306,60
761,04	1318,89
761,22	1234,93
761,39	1294,32
761,57	1255,40
761,75	1277,93
761,93	1279,98
762,11	1290,22
762,28	1376,24
762,46	1271,79
762,64	1245,16
762,82	1290,22
763,00	1241,07
763,18	1296,36
763,35	1196,01
763,53	1267,69
763,71	1273,84
763,89	1298,41
764,07	1304,56
764,24	1245,16
764,42	1275,88
764,60	1337,32
764,78	1247,21
764,96	1271,79
765,13	1210,35
765,31	1275,88
765,49	1247,21
765,67	1200,11
765,84	1318,89
766,02	1255,40
766,20	1243,12
766,38	1253,36
766,56	1245,16
766,73	1245,16
766,91	1210,35
767,09	1296,36
767,27	1296,36
767,44	1353,71
767,62	1318,89
767,80	1255,40
767,98	1269,74
768,15	1255,40
768,33	1236,97
768,51	1331,18
768,69	1245,16
768,87	1284,08
769,04	1259,50
769,22	1341,42
769,40	1236,97
769,58	1265,64
769,75	1202,16
769,93	1286,12
770,11	1216,49
770,28	1265,64
770,46	1290,22
770,64	1216,49
770,82	1173,49
770,99	1255,40
771,17	1282,03
771,35	1259,50
771,53	1232,88
771,70	1300,46
771,88	1263,60
772,06	1187,82
772,23	1228,78
772,41	1218,54
772,59	1241,07
772,77	1292,27
772,94	1253,36
773,12	1314,80
773,30	1257,45
773,47	1271,79
773,65	1331,18
773,83	1249,26
774,01	1290,22
774,18	1206,25
774,36	1273,84
774,54	1265,64
774,71	1314,80
774,89	1275,88
775,07	1351,66
775,24	1273,84
775,42	1216,49
775,60	1230,83
775,78	1298,41
775,95	1347,56
776,13	1333,23
776,31	1251,31
776,48	1279,98
776,66	1306,60
776,84	1236,97
777,01	1271,79
777,19	1351,66
777,37	1249,26
777,54	1322,99
777,72	1286,12
777,90	1263,60
778,07	1353,71
778,25	1337,32
778,43	1286,12
778,60	1245,16
778,78	1327,08
778,96	1279,98
779,13	1312,75
779,31	1282,03
779,49	1290,22
779,66	1257,45
779,84	1200,11
780,01	1236,97
780,19	1312,75
780,37	1263,60
780,54	1279,98
780,72	1251,31
780,90	1314,80
781,07	1236,97
781,25	1265,64
781,43	1226,73
781,60	1275,88
781,78	1239,02
781,95	1259,50
782,13	1224,69
782,31	1171,44
782,48	1275,88
782,66	1292,27
782,83	1296,36
783,01	1249,26
783,19	1316,84
783,36	1259,50
783,54	1255,40
783,72	1273,84
783,89	1333,23
784,07	1300,46
784,24	1220,59
784,42	1249,26
784,60	1296,36
784,77	1282,03
784,95	1277,93
785,12	1290,22
785,30	1220,59
785,47	1228,78
785,65	1347,56
785,83	1275,88
786,00	1243,12
786,18	1298,41
786,35	1249,26
786,53	1253,36
786,71	1193,97
786,88	1302,51
787,06	1286,12
787,23	1255,40
787,41	1265,64
787,58	1249,26
787,76	1269,74
787,94	1236,97
788,11	1308,65
788,29	1228,78
788,46	1284,08
788,64	1253,36
788,81	1294,32
788,99	1269,74
789,16	1316,84
789,34	1259,50
789,52	1288,17
789,69	1247,21
789,87	1200,11
790,04	1257,45
790,22	1288,17
790,39	1273,84
790,57	1275,88
790,74	1271,79
790,92	1320,94
791,09	1265,64
791,27	1288,17
791,44	1277,93
791,62	1196,01
791,79	1243,12
791,97	1239,02
792,15	1294,32
792,32	1277,93
792,50	1218,54
792,67	1351,66
792,85	1255,40
793,02	1310,70
793,20	1368,04
793,37	1241,07
793,55	1310,70
793,72	1224,69
793,90	1187,82
794,07	1351,66
794,25	1273,84
794,42	1259,50
794,60	1282,03
794,77	1269,74
794,95	1290,22
795,12	1314,80
795,30	1290,22
795,47	1306,60
795,65	1296,36
795,82	1284,08
796,00	1296,36
796,17	1275,88
796,34	1253,36
796,52	1310,70
796,69	1263,60
796,87	1189,87
797,04	1320,94
797,22	1282,03
797,39	1320,94
797,57	1290,22
797,74	1353,71
797,92	1245,16
798,09	1236,97
798,27	1316,84
798,44	1284,08
798,62	1306,60
798,79	1263,60
798,96	1277,93
799,14	1259,50
799,31	1329,13
799,49	1271,79
799,66	1300,46
799,84	1349,61
800,01	1271,79
800,19	1304,56
800,36	1263,60
800,53	1314,80
800,71	1236,97
800,88	1290,22
801,06	1290,22
801,23	1275,88
801,41	1275,88
801,58	1320,94
801,75	1234,93
801,93	1339,37
802,10	1275,88
802,28	1351,66
802,45	1198,06
802,63	1318,89
802,80	1279,98
802,97	1294,32
803,15	1314,80
803,32	1257,45
803,50	1210,35
803,67	1234,93
803,84	1273,84
804,02	1314,80
804,19	1308,65
804,37	1269,74
804,54	1222,64
804,71	1277,93
804,89	1279,98
805,06	1232,88
805,24	1282,03
805,41	1298,41
805,58	1259,50
805,76	1255,40
805,93	1241,07
806,10	1322,99
806,28	1253,36
806,45	1277,93
806,63	1245,16
806,80	1257,45
806,97	1265,64
807,15	1271,79
807,32	1288,17
807,49	1273,84
807,67	1333,23
807,84	1292,27
808,01	1312,75
808,19	1239,02
808,36	1150,96
808,54	1232,88
808,71	1259,50
808,88	1304,56
809,06	1355,76
809,23	1294,32
809,40	1271,79
809,58	1216,49
809,75	1236,97
809,92	1267,69
810,10	1312,75
810,27	1271,79
810,44	1290,22
810,62	1247,21
810,79	1241,07
810,96	1310,70
811,14	1230,83
811,31	1322,99
811,48	1210,35
811,66	1259,50
811,83	1181,68
812,00	1239,02
812,18	1292,27
812,35	1263,60
812,52	1191,92
812,69	1247,21
812,87	1282,03
813,04	1269,74
813,21	1290,22
813,39	1333,23
813,56	1269,74
813,73	1224,69
813,91	1327,08
814,08	1261,55
814,25	1275,88
814,42	1277,93
814,60	1232,88
814,77	1247,21
814,94	1218,54
815,12	1286,12
815,29	1310,70
815,46	1331,18
815,63	1277,93
815,81	1353,71
815,98	1251,31
816,15	1333,23
816,33	1300,46
816,50	1234,93
816,67	1302,51
816,84	1257,45
817,02	1322,99
817,19	1249,26
817,36	1191,92
817,53	1320,94
817,71	1261,55
817,88	1183,73
818,05	1257,45
818,22	1282,03
818,40	1271,79
818,57	1306,60
818,74	1275,88
818,91	1277,93
819,09	1263,60
819,26	1234,93
819,43	1269,74
819,60	1286,12
819,78	1224,69
819,95	1251,31
820,12	1253,36
820,29	1333,23
820,47	1269,74
820,64	1296,36
820,81	1193,97
820,98	1261,55
821,15	1304,56
821,33	1312,75
821,50	1318,89
821,67	1310,70
821,84	1300,46
822,02	1214,45
822,19	1267,69
822,36	1224,69
822,53	1253,36
822,70	1257,45
822,88	1286,12
823,05	1327,08
823,22	1253,36
823,39	1286,12
823,56	1232,88
823,74	1275,88
823,91	1308,65
824,08	1273,84
824,25	1222,64
824,42	1300,46
824,60	1259,50
824,77	1255,40
824,94	1273,84
825,11	1239,02
825,28	1310,70
825,45	1279,98
825,63	1245,16
825,80	1202,16
825,97	1206,25
826,14	1263,60
826,31	1232,88
826,48	1314,80
826,66	1249,26
826,83	1247,21
827,00	1339,37
827,17	1327,08
827,34	1284,08
827,51	1245,16
827,69	1261,55
827,86	1249,26
828,03	1267,69
828,20	1312,75
828,37	1286,12
828,54	1261,55
828,71	1304,56
828,89	1251,31
829,06	1191,92
829,23	1239,02
829,40	1308,65
829,57	1286,12
829,74	1357,80
829,91	1296,36
830,09	1253,36
830,26	1294,32
830,43	1273,84
830,60	1271,79
830,77	1308,65
830,94	1296,36
831,11	1230,83
831,28	1230,83
831,46	1251,31
831,63	1335,28
831,80	1251,31
831,97	1243,12
832,14	1204,21
832,31	1290,22
832,48	1310,70
832,65	1275,88
832,82	1259,50
832,99	1230,83
833,17	1232,88
833,34	1282,03
833,51	1212,40
833,68	1263,60
833,85	1232,88
834,02	1243,12
834,19	1345,52
834,36	1243,12
834,53	1271,79
834,70	1341,42
834,87	1308,65
835,04	1304,56
835,22	1302,51
835,39	1191,92
835,56	1261,55
835,73	1259,50
835,90	1257,45
836,07	1249,26
836,24	1193,97
836,41	1249,26
836,58	1279,98
836,75	1282,03
836,92	1308,65
837,09	1263,60
837,26	1279,98
837,43	1296,36
837,60	1314,80
837,77	1325,04
837,94	1247,21
838,12	1279,98
838,29	1304,56
838,46	1306,60
838,63	1245,16
838,80	1257,45
838,97	1279,98
839,14	1275,88
839,31	1253,36
839,48	1302,51
839,65	1302,51
839,82	1271,79
839,99	1269,74
840,16	1257,45
840,33	1286,12
840,50	1228,78
840,67	1224,69
840,84	1220,59
841,01	1263,60
841,18	1226,73
841,35	1282,03
841,52	1329,13
841,69	1359,85
841,86	1286,12
842,03	1277,93
842,20	1271,79
842,37	1275,88
842,54	1269,74
842,71	1275,88
842,88	1351,66
843,05	1247,21
843,22	1294,32
843,39	1222,64
843,56	1218,54
843,73	1263,60
843,90	1282,03
844,07	1269,74
844,24	1265,64
844,41	1271,79
844,58	1302,51
844,75	1339,37
844,92	1308,65
845,09	1310,70
845,26	1241,07
845,43	1282,03
845,60	1259,50
845,77	1208,30
845,94	1284,08
846,10	1292,27
846,27	1157,10
846,44	1241,07
846,61	1282,03
846,78	1277,93
846,95	1208,30
847,12	1208,30
847,29	1298,41
847,46	1279,98
847,63	1265,64
847,80	1253,36
847,97	1251,31
848,14	1318,89
848,31	1271,79
848,48	1230,83
848,65	1257,45
848,82	1298,41
848,98	1232,88
849,15	1236,97
849,32	1163,25
849,49	1339,37
849,66	1279,98
849,83	1224,69
850,00	1226,73
850,17	1216,49
850,34	1312,75
850,51	1243,12
850,68	1279,98
850,85	1232,88
851,01	1265,64
851,18	1218,54
851,35	1261,55
851,52	1286,12
851,69	1298,41
851,86	1279,98
852,03	1294,32
852,20	1243,12
852,37	1294,32
852,53	1302,51
852,70	1257,45
852,87	1300,46
853,04	1290,22
853,21	1212,40
853,38	1212,40
853,55	1292,27
853,72	1286,12
853,89	1226,73
854,05	1167,34
854,22	1331,18
854,39	1335,28
854,56	1214,45
854,73	1282,03
854,90	1204,21
855,07	1261,55
855,23	1308,65
855,40	1290,22
855,57	1271,79
855,74	1302,51
855,91	1308,65
856,08	1316,84
856,25	1320,94
856,41	1288,17
856,58	1277,93
856,75	1302,51
856,92	1212,40
857,09	1241,07
857,26	1212,40
857,42	1230,83
857,59	1275,88
857,76	1241,07
857,93	1329,13
858,10	1273,84
858,27	1263,60
858,43	1279,98
858,60	1271,79
858,77	1271,79
858,94	1294,32
859,11	1314,80
859,27	1363,95
859,44	1204,21
859,61	1249,26
859,78	1245,16
859,95	1284,08
860,12	1216,49
860,28	1257,45
860,45	1331,18
860,62	1284,08
860,79	1290,22
860,95	1267,69
861,12	1267,69
861,29	1343,47
861,46	1220,59
861,63	1259,50
861,79	1277,93
861,96	1290,22
862,13	1304,56
862,30	1263,60
862,47	1261,55
862,63	1265,64
862,80	1255,40
862,97	1282,03
863,14	1265,64
863,30	1298,41
863,47	1269,74
863,64	1339,37
863,81	1255,40
863,97	1308,65
864,14	1298,41
864,31	1261,55
864,48	1267,69
864,65	1259,50
864,81	1304,56
864,98	1296,36
865,15	1269,74
865,32	1273,84
865,48	1314,80
865,65	1236,97
865,82	1212,40
865,98	1257,45
866,15	1335,28
866,32	1267,69
866,49	1255,40
866,65	1300,46
866,82	1282,03
866,99	1337,32
867,16	1261,55
867,32	1284,08
867,49	1290,22
867,66	1222,64
867,83	1208,30
867,99	1333,23
868,16	1253,36
868,33	1384,43
868,49	1253,36
868,66	1310,70
868,83	1204,21
868,99	1271,79
869,16	1249,26
869,33	1279,98
869,50	1294,32
869,66	1300,46
869,83	1271,79
870,00	1200,11
870,16	1288,17
870,33	1193,97
870,50	1224,69
870,66	1253,36
870,83	1308,65
871,00	1241,07
871,17	1230,83
871,33	1308,65
871,50	1294,32
871,67	1265,64
871,83	1320,94
872,00	1277,93
872,17	1261,55
872,33	1320,94
872,50	1304,56
872,67	1310,70
872,83	1269,74
873,00	1261,55
873,17	1245,16
873,33	1304,56
873,50	1277,93
873,67	1290,22
873,83	1294,32
874,00	1296,36
874,16	1255,40
874,33	1232,88
874,50	1300,46
874,66	1257,45
874,83	1253,36
875,00	1230,83
875,16	1208,30
875,33	1167,34
875,50	1288,17
875,66	1294,32
875,83	1241,07
875,99	1265,64
876,16	1224,69
876,33	1257,45
876,49	1304,56
876,66	1265,64
876,83	1259,50
876,99	1230,83
877,16	1273,84
877,32	1255,40
877,49	1251,31
877,66	1259,50
877,82	1312,75
877,99	1282,03
878,15	1300,46
878,32	1263,60
878,49	1249,26
878,65	1306,60
878,82	1218,54
878,98	1337,32
879,15	1302,51
879,32	1249,26
879,48	1261,55
879,65	1261,55
879,81	1314,80
879,98	1189,87
880,15	1345,52
880,31	1269,74
880,48	1327,08
880,64	1261,55
880,81	1298,41
880,97	1382,38
881,14	1322,99
881,31	1304,56
881,47	1312,75
881,64	1294,32
881,80	1265,64
881,97	1273,84
882,13	1245,16
882,30	1298,41
882,47	1263,60
882,63	1183,73
882,80	1282,03
882,96	1202,16
883,13	1292,27
883,29	1243,12
883,46	1312,75
883,62	1265,64
883,79	1191,92
883,95	1310,70
884,12	1234,93
884,29	1241,07
884,45	1282,03
884,62	1251,31
884,78	1200,11
884,95	1234,93
885,11	1306,60
885,28	1226,73
885,44	1249,26
885,61	1300,46
885,77	1294,32
885,94	1273,84
886,10	1355,76
886,27	1286,12
886,43	1288,17
886,60	1249,26
886,76	1273,84
886,93	1282,03
887,09	1286,12
887,26	1325,04
887,42	1269,74
887,59	1282,03
887,75	1183,73
887,92	1331,18
888,08	1329,13
888,25	1294,32
888,41	1232,88
888,58	1247,21
888,74	1286,12
888,91	1312,75
>>>>>End Processed Spectral Data<<<<<
