SpectraSuite Data File
++++++++++++++++++++++++++++++++++++
Date: Sun Apr 03 15:52:04 CEST 2016
User: root
Dark Spectrum Present: No
Reference Spectrum Present: No
Number of Sampled Component Spectra: 1
Spectrometers: USB4C02835
Integration Time (usec): 10000 (USB4C02835)
Spectra Averaged: 1 (USB4C02835)
Boxcar Smoothing: 0 (USB4C02835)
Correct for Electrical Dark: No (USB4C02835)
Strobe/Lamp Enabled: No (USB4C02835)
Correct for Detector Non-linearity: No (USB4C02835)
Correct for Stray Light: No (USB4C02835)
Number of Pixels in Processed Spectrum: 3648
>>>>>Begin Processed Spectral Data<<<<<
177,47	1259,50
177,69	1259,50
177,91	1259,50
178,13	1290,22
178,36	1228,78
178,58	1318,89
178,80	1200,11
179,02	1277,93
179,24	1243,12
179,46	1290,22
179,68	1208,30
179,90	1322,99
180,13	1318,89
180,35	1314,80
180,57	1308,65
180,79	1282,03
181,01	1271,79
181,23	1320,94
181,45	1290,22
181,67	1265,64
181,90	1204,21
182,12	1253,36
182,34	1232,88
182,56	1161,20
182,78	1320,94
183,00	1302,51
183,22	1347,56
183,44	1253,36
183,66	1292,27
183,89	1220,59
184,11	1243,12
184,33	1249,26
184,55	1273,84
184,77	1257,45
184,99	1263,60
185,21	1245,16
185,43	1351,66
185,65	1210,35
185,87	1329,13
186,10	1271,79
186,32	1263,60
186,54	1314,80
186,76	1257,45
186,98	1288,17
187,20	1298,41
187,42	1273,84
187,64	1290,22
187,86	1249,26
188,08	1226,73
188,30	1261,55
188,52	1306,60
188,75	1267,69
188,97	1282,03
189,19	1212,40
189,41	1271,79
189,63	1265,64
189,85	1288,17
190,07	1245,16
190,29	1292,27
190,51	1257,45
190,73	1226,73
190,95	1257,45
191,17	1251,31
191,39	1261,55
191,61	1279,98
191,84	1271,79
192,06	1302,51
192,28	1222,64
192,50	1292,27
192,72	1232,88
192,94	1269,74
193,16	1302,51
193,38	1290,22
193,60	1249,26
193,82	1320,94
194,04	1204,21
194,26	1224,69
194,48	1224,69
194,70	1200,11
194,92	1277,93
195,14	1382,38
195,36	1224,69
195,58	1247,21
195,80	1212,40
196,02	1288,17
196,24	1222,64
196,46	1351,66
196,69	1284,08
196,91	1226,73
197,13	1214,45
197,35	1255,40
197,57	1202,16
197,79	1341,42
198,01	1226,73
198,23	1337,32
198,45	1271,79
198,67	1196,01
198,89	1312,75
199,11	1296,36
199,33	1224,69
199,55	1290,22
199,77	1257,45
199,99	1271,79
200,21	1220,59
200,43	1259,50
200,65	1241,07
200,87	1226,73
201,09	1343,47
201,31	1310,70
201,53	1257,45
201,75	1269,74
201,97	1236,97
202,19	1341,42
202,41	1263,60
202,63	1292,27
202,85	1318,89
203,07	1314,80
203,29	1304,56
203,51	1279,98
203,73	1251,31
203,95	1261,55
204,17	1255,40
204,39	1318,89
204,61	1257,45
204,83	1232,88
205,05	1294,32
205,27	1261,55
205,49	1312,75
205,71	1269,74
205,93	1273,84
206,15	1282,03
206,37	1271,79
206,59	1322,99
206,81	1255,40
207,03	1267,69
207,25	1249,26
207,47	1249,26
207,69	1220,59
207,91	1273,84
208,13	1308,65
208,34	1214,45
208,56	1314,80
208,78	1232,88
209,00	1232,88
209,22	1228,78
209,44	1265,64
209,66	1300,46
209,88	1282,03
210,10	1234,93
210,32	1222,64
210,54	1294,32
210,76	1187,82
210,98	1228,78
211,20	1312,75
211,42	1286,12
211,64	1265,64
211,86	1273,84
212,08	1275,88
212,30	1306,60
212,52	1267,69
212,74	1292,27
212,96	1292,27
213,17	1306,60
213,39	1327,08
213,61	1273,84
213,83	1261,55
214,05	1253,36
214,27	1263,60
214,49	1290,22
214,71	1294,32
214,93	1253,36
215,15	1273,84
215,37	1314,80
215,59	1302,51
215,81	1214,45
216,03	1263,60
216,24	1314,80
216,46	1296,36
216,68	1273,84
216,90	1322,99
217,12	1288,17
217,34	1187,82
217,56	1271,79
217,78	1314,80
218,00	1216,49
218,22	1302,51
218,44	1243,12
218,66	1239,02
218,87	1308,65
219,09	1273,84
219,31	1247,21
219,53	1269,74
219,75	1245,16
219,97	1294,32
220,19	1339,37
220,41	1320,94
220,63	1267,69
220,85	1320,94
221,06	1277,93
221,28	1245,16
221,50	1282,03
221,72	1267,69
221,94	1335,28
222,16	1308,65
222,38	1249,26
222,60	1335,28
222,82	1294,32
223,03	1230,83
223,25	1253,36
223,47	1294,32
223,69	1214,45
223,91	1265,64
224,13	1275,88
224,35	1302,51
224,57	1316,84
224,78	1325,04
225,00	1320,94
225,22	1312,75
225,44	1310,70
225,66	1259,50
225,88	1273,84
226,10	1302,51
226,32	1202,16
226,53	1292,27
226,75	1265,64
226,97	1271,79
227,19	1271,79
227,41	1265,64
227,63	1216,49
227,85	1210,35
228,06	1210,35
228,28	1257,45
228,50	1279,98
228,72	1273,84
228,94	1261,55
229,16	1245,16
229,37	1284,08
229,59	1284,08
229,81	1275,88
230,03	1200,11
230,25	1271,79
230,47	1294,32
230,69	1275,88
230,90	1300,46
231,12	1228,78
231,34	1302,51
231,56	1292,27
231,78	1241,07
232,00	1255,40
232,21	1316,84
232,43	1308,65
232,65	1290,22
232,87	1232,88
233,09	1269,74
233,30	1210,35
233,52	1308,65
233,74	1216,49
233,96	1308,65
234,18	1218,54
234,40	1273,84
234,61	1259,50
234,83	1259,50
235,05	1290,22
235,27	1296,36
235,49	1322,99
235,70	1169,39
235,92	1310,70
236,14	1261,55
236,36	1271,79
236,58	1220,59
236,79	1263,60
237,01	1257,45
237,23	1269,74
237,45	1296,36
237,67	1304,56
237,88	1230,83
238,10	1290,22
238,32	1277,93
238,54	1224,69
238,76	1214,45
238,97	1253,36
239,19	1271,79
239,41	1275,88
239,63	1232,88
239,85	1318,89
240,06	1214,45
240,28	1335,28
240,50	1236,97
240,72	1345,52
240,93	1302,51
241,15	1234,93
241,37	1306,60
241,59	1282,03
241,81	1284,08
242,02	1329,13
242,24	1216,49
242,46	1243,12
242,68	1245,16
242,89	1206,25
243,11	1304,56
243,33	1239,02
243,55	1277,93
243,76	1257,45
243,98	1263,60
244,20	1339,37
244,42	1247,21
244,64	1290,22
244,85	1253,36
245,07	1380,33
245,29	1275,88
245,51	1265,64
245,72	1257,45
245,94	1271,79
246,16	1320,94
246,38	1206,25
246,59	1269,74
246,81	1304,56
247,03	1282,03
247,24	1249,26
247,46	1126,38
247,68	1239,02
247,90	1310,70
248,11	1204,21
248,33	1265,64
248,55	1224,69
248,77	1226,73
248,98	1269,74
249,20	1329,13
249,42	1316,84
249,64	1261,55
249,85	1255,40
250,07	1226,73
250,29	1212,40
250,50	1259,50
250,72	1306,60
250,94	1302,51
251,16	1245,16
251,37	1292,27
251,59	1247,21
251,81	1331,18
252,02	1218,54
252,24	1298,41
252,46	1265,64
252,68	1255,40
252,89	1277,93
253,11	1286,12
253,33	1239,02
253,54	1218,54
253,76	1265,64
253,98	1308,65
254,20	1222,64
254,41	1236,97
254,63	1212,40
254,85	1243,12
255,06	1200,11
255,28	1351,66
255,50	1331,18
255,71	1294,32
255,93	1300,46
256,15	1263,60
256,36	1269,74
256,58	1308,65
256,80	1327,08
257,02	1255,40
257,23	1325,04
257,45	1273,84
257,67	1353,71
257,88	1253,36
258,10	1247,21
258,32	1202,16
258,53	1279,98
258,75	1271,79
258,97	1282,03
259,18	1275,88
259,40	1241,07
259,62	1253,36
259,83	1269,74
260,05	1345,52
260,27	1275,88
260,48	1329,13
260,70	1322,99
260,92	1259,50
261,13	1269,74
261,35	1267,69
261,57	1273,84
261,78	1243,12
262,00	1236,97
262,22	1204,21
262,43	1294,32
262,65	1322,99
262,86	1312,75
263,08	1261,55
263,30	1306,60
263,51	1253,36
263,73	1249,26
263,95	1308,65
264,16	1292,27
264,38	1255,40
264,60	1230,83
264,81	1224,69
265,03	1333,23
265,25	1249,26
265,46	1345,52
265,68	1355,76
265,89	1294,32
266,11	1234,93
266,33	1241,07
266,54	1282,03
266,76	1273,84
266,98	1265,64
267,19	1327,08
267,41	1236,97
267,62	1275,88
267,84	1279,98
268,06	1290,22
268,27	1263,60
268,49	1310,70
268,70	1300,46
268,92	1275,88
269,14	1236,97
269,35	1265,64
269,57	1339,37
269,79	1273,84
270,00	1232,88
270,22	1230,83
270,43	1243,12
270,65	1247,21
270,87	1349,61
271,08	1288,17
271,30	1249,26
271,51	1253,36
271,73	1253,36
271,95	1302,51
272,16	1212,40
272,38	1265,64
272,59	1253,36
272,81	1282,03
273,02	1296,36
273,24	1339,37
273,46	1179,63
273,67	1312,75
273,89	1329,13
274,10	1241,07
274,32	1394,67
274,54	1189,87
274,75	1273,84
274,97	1302,51
275,18	1249,26
275,40	1255,40
275,61	1253,36
275,83	1234,93
276,05	1257,45
276,26	1230,83
276,48	1279,98
276,69	1277,93
276,91	1294,32
277,12	1230,83
277,34	1187,82
277,55	1320,94
277,77	1318,89
277,99	1198,06
278,20	1320,94
278,42	1218,54
278,63	1204,21
278,85	1273,84
279,06	1243,12
279,28	1282,03
279,49	1255,40
279,71	1222,64
279,93	1275,88
280,14	1314,80
280,36	1216,49
280,57	1292,27
280,79	1247,21
281,00	1271,79
281,22	1218,54
281,43	1361,90
281,65	1302,51
281,86	1296,36
282,08	1241,07
282,29	1269,74
282,51	1325,04
282,73	1327,08
282,94	1284,08
283,16	1341,42
283,37	1282,03
283,59	1257,45
283,80	1257,45
284,02	1320,94
284,23	1220,59
284,45	1265,64
284,66	1212,40
284,88	1292,27
285,09	1318,89
285,31	1306,60
285,52	1263,60
285,74	1249,26
285,95	1243,12
286,17	1292,27
286,38	1277,93
286,60	1286,12
286,81	1300,46
287,03	1263,60
287,24	1234,93
287,46	1333,23
287,67	1314,80
287,89	1271,79
288,10	1302,51
288,32	1220,59
288,53	1273,84
288,75	1304,56
288,96	1292,27
289,18	1277,93
289,39	1255,40
289,61	1257,45
289,82	1292,27
290,04	1245,16
290,25	1263,60
290,47	1288,17
290,68	1218,54
290,90	1239,02
291,11	1335,28
291,33	1247,21
291,54	1296,36
291,76	1247,21
291,97	1279,98
292,18	1263,60
292,40	1279,98
292,61	1208,30
292,83	1220,59
293,04	1263,60
293,26	1206,25
293,47	1282,03
293,69	1279,98
293,90	1226,73
294,12	1329,13
294,33	1208,30
294,55	1243,12
294,76	1273,84
294,97	1329,13
295,19	1288,17
295,40	1230,83
295,62	1322,99
295,83	1294,32
296,05	1208,30
296,26	1279,98
296,48	1224,69
296,69	1228,78
296,90	1298,41
297,12	1347,56
297,33	1284,08
297,55	1241,07
297,76	1300,46
297,98	1269,74
298,19	1325,04
298,41	1230,83
298,62	1243,12
298,83	1361,90
299,05	1226,73
299,26	1243,12
299,48	1226,73
299,69	1302,51
299,90	1241,07
300,12	1275,88
300,33	1314,80
300,55	1259,50
300,76	1193,97
300,98	1304,56
301,19	1210,35
301,40	1275,88
301,62	1335,28
301,83	1339,37
302,05	1265,64
302,26	1290,22
302,47	1241,07
302,69	1171,44
302,90	1234,93
303,12	1282,03
303,33	1277,93
303,54	1263,60
303,76	1249,26
303,97	1249,26
304,19	1271,79
304,40	1234,93
304,61	1284,08
304,83	1232,88
305,04	1220,59
305,26	1294,32
305,47	1263,60
305,68	1185,77
305,90	1239,02
306,11	1304,56
306,33	1300,46
306,54	1257,45
306,75	1212,40
306,97	1331,18
307,18	1318,89
307,39	1294,32
307,61	1265,64
307,82	1320,94
308,04	1202,16
308,25	1275,88
308,46	1271,79
308,68	1277,93
308,89	1298,41
309,10	1288,17
309,32	1298,41
309,53	1288,17
309,74	1216,49
309,96	1290,22
310,17	1279,98
310,39	1243,12
310,60	1318,89
310,81	1253,36
311,03	1298,41
311,24	1337,32
311,45	1302,51
311,67	1312,75
311,88	1265,64
312,09	1279,98
312,31	1247,21
312,52	1259,50
312,73	1263,60
312,95	1282,03
313,16	1314,80
313,37	1279,98
313,59	1224,69
313,80	1327,08
314,01	1290,22
314,23	1232,88
314,44	1226,73
314,65	1245,16
314,87	1255,40
315,08	1302,51
315,29	1200,11
315,51	1290,22
315,72	1253,36
315,93	1247,21
316,15	1228,78
316,36	1193,97
316,57	1282,03
316,79	1290,22
317,00	1314,80
317,21	1290,22
317,43	1271,79
317,64	1277,93
317,85	1181,68
318,07	1355,76
318,28	1265,64
318,49	1277,93
318,70	1300,46
318,92	1259,50
319,13	1259,50
319,34	1175,53
319,56	1222,64
319,77	1335,28
319,98	1300,46
320,20	1189,87
320,41	1196,01
320,62	1275,88
320,83	1316,84
321,05	1275,88
321,26	1263,60
321,47	1228,78
321,69	1273,84
321,90	1220,59
322,11	1347,56
322,32	1251,31
322,54	1308,65
322,75	1300,46
322,96	1218,54
323,18	1245,16
323,39	1288,17
323,60	1267,69
323,81	1296,36
324,03	1230,83
324,24	1298,41
324,45	1239,02
324,66	1234,93
324,88	1259,50
325,09	1216,49
325,30	1249,26
325,52	1277,93
325,73	1300,46
325,94	1228,78
326,15	1245,16
326,37	1259,50
326,58	1275,88
326,79	1282,03
327,00	1275,88
327,22	1263,60
327,43	1282,03
327,64	1263,60
327,85	1200,11
328,07	1312,75
328,28	1288,17
328,49	1247,21
328,70	1284,08
328,92	1230,83
329,13	1333,23
329,34	1263,60
329,55	1251,31
329,76	1290,22
329,98	1282,03
330,19	1322,99
330,40	1224,69
330,61	1245,16
330,83	1322,99
331,04	1300,46
331,25	1282,03
331,46	1347,56
331,68	1165,29
331,89	1298,41
332,10	1214,45
332,31	1306,60
332,52	1292,27
332,74	1349,61
332,95	1286,12
333,16	1191,92
333,37	1265,64
333,58	1273,84
333,80	1298,41
334,01	1200,11
334,22	1208,30
334,43	1230,83
334,64	1320,94
334,86	1185,77
335,07	1247,21
335,28	1253,36
335,49	1259,50
335,70	1169,39
335,92	1292,27
336,13	1298,41
336,34	1220,59
336,55	1236,97
336,76	1273,84
336,98	1337,32
337,19	1220,59
337,40	1226,73
337,61	1298,41
337,82	1271,79
338,04	1312,75
338,25	1314,80
338,46	1341,42
338,67	1298,41
338,88	1257,45
339,09	1191,92
339,31	1306,60
339,52	1286,12
339,73	1214,45
339,94	1257,45
340,15	1218,54
340,36	1271,79
340,58	1298,41
340,79	1331,18
341,00	1263,60
341,21	1187,82
341,42	1261,55
341,63	1275,88
341,85	1261,55
342,06	1279,98
342,27	1232,88
342,48	1304,56
342,69	1224,69
342,90	1230,83
343,12	1284,08
343,33	1247,21
343,54	1269,74
343,75	1320,94
343,96	1263,60
344,17	1288,17
344,38	1366,00
344,60	1249,26
344,81	1273,84
345,02	1343,47
345,23	1327,08
345,44	1302,51
345,65	1261,55
345,86	1267,69
346,07	1208,30
346,29	1269,74
346,50	1357,80
346,71	1335,28
346,92	1318,89
347,13	1263,60
347,34	1173,49
347,55	1306,60
347,76	1333,23
347,98	1212,40
348,19	1288,17
348,40	1265,64
348,61	1282,03
348,82	1320,94
349,03	1255,40
349,24	1312,75
349,45	1247,21
349,66	1277,93
349,88	1224,69
350,09	1275,88
350,30	1189,87
350,51	1263,60
350,72	1333,23
350,93	1284,08
351,14	1292,27
351,35	1333,23
351,56	1271,79
351,77	1230,83
351,99	1282,03
352,20	1243,12
352,41	1355,76
352,62	1189,87
352,83	1249,26
353,04	1263,60
353,25	1298,41
353,46	1353,71
353,67	1239,02
353,88	1304,56
354,09	1218,54
354,30	1310,70
354,52	1253,36
354,73	1298,41
354,94	1286,12
355,15	1296,36
355,36	1247,21
355,57	1236,97
355,78	1298,41
355,99	1255,40
356,20	1243,12
356,41	1298,41
356,62	1298,41
356,83	1206,25
357,04	1351,66
357,25	1247,21
357,46	1224,69
357,68	1322,99
357,89	1277,93
358,10	1300,46
358,31	1232,88
358,52	1298,41
358,73	1220,59
358,94	1302,51
359,15	1243,12
359,36	1271,79
359,57	1263,60
359,78	1298,41
359,99	1243,12
360,20	1284,08
360,41	1316,84
360,62	1290,22
360,83	1247,21
361,04	1232,88
361,25	1294,32
361,46	1294,32
361,67	1318,89
361,88	1290,22
362,09	1366,00
362,30	1329,13
362,51	1279,98
362,72	1306,60
362,93	1290,22
363,14	1284,08
363,35	1312,75
363,56	1230,83
363,78	1296,36
363,99	1296,36
364,20	1322,99
364,41	1271,79
364,62	1320,94
364,83	1325,04
365,04	1269,74
365,25	1325,04
365,46	1296,36
365,67	1322,99
365,88	1245,16
366,09	1277,93
366,30	1292,27
366,51	1312,75
366,72	1296,36
366,93	1202,16
367,14	1339,37
367,35	1239,02
367,56	1335,28
367,77	1388,52
367,98	1308,65
368,18	1320,94
368,39	1349,61
368,60	1304,56
368,81	1331,18
369,02	1286,12
369,23	1322,99
369,44	1218,54
369,65	1298,41
369,86	1300,46
370,07	1214,45
370,28	1261,55
370,49	1349,61
370,70	1271,79
370,91	1263,60
371,12	1202,16
371,33	1286,12
371,54	1286,12
371,75	1286,12
371,96	1200,11
372,17	1286,12
372,38	1279,98
372,59	1271,79
372,80	1306,60
373,01	1177,58
373,22	1304,56
373,43	1290,22
373,64	1316,84
373,85	1308,65
374,06	1347,56
374,26	1236,97
374,47	1255,40
374,68	1251,31
374,89	1236,97
375,10	1282,03
375,31	1314,80
375,52	1290,22
375,73	1333,23
375,94	1282,03
376,15	1234,93
376,36	1284,08
376,57	1255,40
376,78	1224,69
376,99	1251,31
377,20	1294,32
377,40	1263,60
377,61	1257,45
377,82	1228,78
378,03	1279,98
378,24	1292,27
378,45	1245,16
378,66	1269,74
378,87	1257,45
379,08	1257,45
379,29	1269,74
379,50	1214,45
379,71	1202,16
379,91	1284,08
380,12	1198,06
380,33	1257,45
380,54	1294,32
380,75	1296,36
380,96	1257,45
381,17	1282,03
381,38	1286,12
381,59	1316,84
381,80	1337,32
382,00	1271,79
382,21	1263,60
382,42	1259,50
382,63	1343,47
382,84	1316,84
383,05	1335,28
383,26	1343,47
383,47	1206,25
383,68	1290,22
383,88	1273,84
384,09	1271,79
384,30	1296,36
384,51	1247,21
384,72	1204,21
384,93	1306,60
385,14	1265,64
385,35	1232,88
385,55	1345,52
385,76	1298,41
385,97	1251,31
386,18	1189,87
386,39	1220,59
386,60	1212,40
386,81	1294,32
387,02	1232,88
387,22	1210,35
387,43	1275,88
387,64	1341,42
387,85	1273,84
388,06	1193,97
388,27	1230,83
388,48	1366,00
388,68	1290,22
388,89	1261,55
389,10	1249,26
389,31	1300,46
389,52	1230,83
389,73	1333,23
389,93	1398,76
390,14	1292,27
390,35	1282,03
390,56	1282,03
390,77	1296,36
390,98	1277,93
391,18	1234,93
391,39	1257,45
391,60	1269,74
391,81	1265,64
392,02	1259,50
392,23	1300,46
392,43	1265,64
392,64	1290,22
392,85	1222,64
393,06	1286,12
393,27	1302,51
393,47	1294,32
393,68	1359,85
393,89	1228,78
394,10	1230,83
394,31	1202,16
394,52	1288,17
394,72	1265,64
394,93	1263,60
395,14	1263,60
395,35	1222,64
395,56	1241,07
395,76	1243,12
395,97	1230,83
396,18	1263,60
396,39	1224,69
396,60	1230,83
396,80	1202,16
397,01	1193,97
397,22	1294,32
397,43	1253,36
397,64	1257,45
397,84	1220,59
398,05	1316,84
398,26	1263,60
398,47	1267,69
398,67	1202,16
398,88	1296,36
399,09	1296,36
399,30	1212,40
399,51	1263,60
399,71	1243,12
399,92	1294,32
400,13	1320,94
400,34	1271,79
400,54	1279,98
400,75	1222,64
400,96	1265,64
401,17	1304,56
401,37	1173,49
401,58	1269,74
401,79	1286,12
402,00	1249,26
402,21	1241,07
402,41	1306,60
402,62	1232,88
402,83	1249,26
403,04	1191,92
403,24	1185,77
403,45	1247,21
403,66	1288,17
403,87	1193,97
404,07	1298,41
404,28	1341,42
404,49	1239,02
404,70	1286,12
404,90	1298,41
405,11	1214,45
405,32	1236,97
405,52	1245,16
405,73	1277,93
405,94	1259,50
406,15	1300,46
406,35	1245,16
406,56	1290,22
406,77	1273,84
406,98	1286,12
407,18	1212,40
407,39	1259,50
407,60	1257,45
407,80	1279,98
408,01	1286,12
408,22	1318,89
408,43	1284,08
408,63	1298,41
408,84	1228,78
409,05	1224,69
409,25	1263,60
409,46	1273,84
409,67	1247,21
409,88	1273,84
410,08	1314,80
410,29	1247,21
410,50	1296,36
410,70	1275,88
410,91	1263,60
411,12	1220,59
411,32	1273,84
411,53	1282,03
411,74	1243,12
411,95	1257,45
412,15	1273,84
412,36	1255,40
412,57	1257,45
412,77	1339,37
412,98	1292,27
413,19	1314,80
413,39	1282,03
413,60	1239,02
413,81	1230,83
414,01	1325,04
414,22	1243,12
414,43	1329,13
414,63	1275,88
414,84	1273,84
415,05	1296,36
415,25	1245,16
415,46	1234,93
415,67	1349,61
415,87	1220,59
416,08	1261,55
416,29	1253,36
416,49	1228,78
416,70	1310,70
416,91	1253,36
417,11	1273,84
417,32	1226,73
417,53	1228,78
417,73	1239,02
417,94	1179,63
418,15	1290,22
418,35	1220,59
418,56	1247,21
418,77	1255,40
418,97	1230,83
419,18	1210,35
419,38	1294,32
419,59	1243,12
419,80	1247,21
420,00	1253,36
420,21	1255,40
420,42	1304,56
420,62	1296,36
420,83	1273,84
421,04	1253,36
421,24	1251,31
421,45	1304,56
421,65	1228,78
421,86	1271,79
422,07	1247,21
422,27	1302,51
422,48	1349,61
422,69	1243,12
422,89	1263,60
423,10	1208,30
423,30	1236,97
423,51	1284,08
423,72	1232,88
423,92	1318,89
424,13	1349,61
424,33	1249,26
424,54	1261,55
424,75	1277,93
424,95	1417,19
425,16	1243,12
425,36	1308,65
425,57	1239,02
425,78	1300,46
425,98	1306,60
426,19	1249,26
426,39	1329,13
426,60	1218,54
426,81	1243,12
427,01	1253,36
427,22	1216,49
427,42	1300,46
427,63	1333,23
427,83	1275,88
428,04	1337,32
428,25	1310,70
428,45	1265,64
428,66	1208,30
428,86	1183,73
429,07	1212,40
429,28	1331,18
429,48	1290,22
429,69	1257,45
429,89	1261,55
430,10	1292,27
430,30	1234,93
430,51	1257,45
430,71	1290,22
430,92	1234,93
431,13	1296,36
431,33	1284,08
431,54	1226,73
431,74	1263,60
431,95	1320,94
432,15	1216,49
432,36	1249,26
432,56	1271,79
432,77	1187,82
432,98	1267,69
433,18	1300,46
433,39	1261,55
433,59	1236,97
433,80	1261,55
434,00	1294,32
434,21	1290,22
434,41	1337,32
434,62	1290,22
434,82	1275,88
435,03	1275,88
435,23	1288,17
435,44	1259,50
435,64	1232,88
435,85	1337,32
436,06	1232,88
436,26	1185,77
436,47	1273,84
436,67	1255,40
436,88	1267,69
437,08	1236,97
437,29	1224,69
437,49	1353,71
437,70	1298,41
437,90	1239,02
438,11	1339,37
438,31	1306,60
438,52	1255,40
438,72	1273,84
438,93	1298,41
439,13	1314,80
439,34	1275,88
439,54	1286,12
439,75	1294,32
439,95	1279,98
440,16	1228,78
440,36	1353,71
440,57	1282,03
440,77	1302,51
440,98	1263,60
441,18	1290,22
441,39	1353,71
441,59	1269,74
441,80	1247,21
442,00	1198,06
442,21	1300,46
442,41	1236,97
442,62	1245,16
442,82	1308,65
443,02	1302,51
443,23	1261,55
443,43	1282,03
443,64	1306,60
443,84	1277,93
444,05	1245,16
444,25	1267,69
444,46	1341,42
444,66	1261,55
444,87	1247,21
445,07	1341,42
445,28	1277,93
445,48	1249,26
445,69	1279,98
445,89	1306,60
446,09	1259,50
446,30	1308,65
446,50	1273,84
446,71	1267,69
446,91	1316,84
447,12	1271,79
447,32	1314,80
447,53	1308,65
447,73	1275,88
447,93	1216,49
448,14	1275,88
448,34	1269,74
448,55	1314,80
448,75	1322,99
448,96	1320,94
449,16	1265,64
449,36	1339,37
449,57	1288,17
449,77	1210,35
449,98	1296,36
450,18	1243,12
450,39	1294,32
450,59	1243,12
450,79	1230,83
451,00	1239,02
451,20	1206,25
451,41	1282,03
451,61	1216,49
451,81	1275,88
452,02	1273,84
452,22	1247,21
452,43	1271,79
452,63	1302,51
452,84	1218,54
453,04	1318,89
453,24	1261,55
453,45	1298,41
453,65	1234,93
453,86	1251,31
454,06	1294,32
454,26	1296,36
454,47	1298,41
454,67	1294,32
454,87	1245,16
455,08	1239,02
455,28	1267,69
455,49	1257,45
455,69	1282,03
455,89	1249,26
456,10	1337,32
456,30	1277,93
456,51	1300,46
456,71	1253,36
456,91	1269,74
457,12	1257,45
457,32	1312,75
457,52	1257,45
457,73	1267,69
457,93	1318,89
458,14	1277,93
458,34	1241,07
458,54	1279,98
458,75	1232,88
458,95	1265,64
459,15	1294,32
459,36	1290,22
459,56	1277,93
459,76	1263,60
459,97	1239,02
460,17	1331,18
460,37	1347,56
460,58	1353,71
460,78	1249,26
460,99	1298,41
461,19	1302,51
461,39	1255,40
461,60	1312,75
461,80	1273,84
462,00	1388,52
462,21	1259,50
462,41	1304,56
462,61	1290,22
462,82	1255,40
463,02	1316,84
463,22	1214,45
463,43	1277,93
463,63	1251,31
463,83	1241,07
464,04	1232,88
464,24	1347,56
464,44	1269,74
464,64	1255,40
464,85	1234,93
465,05	1198,06
465,25	1314,80
465,46	1247,21
465,66	1228,78
465,86	1312,75
466,07	1277,93
466,27	1234,93
466,47	1306,60
466,68	1337,32
466,88	1298,41
467,08	1261,55
467,29	1193,97
467,49	1286,12
467,69	1277,93
467,89	1269,74
468,10	1247,21
468,30	1261,55
468,50	1304,56
468,71	1286,12
468,91	1273,84
469,11	1306,60
469,31	1249,26
469,52	1298,41
469,72	1200,11
469,92	1263,60
470,13	1257,45
470,33	1267,69
470,53	1288,17
470,73	1255,40
470,94	1263,60
471,14	1257,45
471,34	1247,21
471,54	1202,16
471,75	1304,56
471,95	1290,22
472,15	1298,41
472,36	1271,79
472,56	1271,79
472,76	1212,40
472,96	1200,11
473,17	1230,83
473,37	1253,36
473,57	1234,93
473,77	1259,50
473,98	1236,97
474,18	1335,28
474,38	1279,98
474,58	1247,21
474,79	1257,45
474,99	1267,69
475,19	1208,30
475,39	1349,61
475,60	1232,88
475,80	1265,64
476,00	1247,21
476,20	1279,98
476,41	1314,80
476,61	1302,51
476,81	1247,21
477,01	1304,56
477,21	1296,36
477,42	1214,45
477,62	1279,98
477,82	1267,69
478,02	1243,12
478,23	1318,89
478,43	1228,78
478,63	1284,08
478,83	1329,13
479,03	1261,55
479,24	1304,56
479,44	1284,08
479,64	1243,12
479,84	1214,45
480,04	1241,07
480,25	1282,03
480,45	1306,60
480,65	1249,26
480,85	1263,60
481,06	1232,88
481,26	1335,28
481,46	1314,80
481,66	1241,07
481,86	1247,21
482,06	1292,27
482,27	1277,93
482,47	1212,40
482,67	1282,03
482,87	1202,16
483,07	1241,07
483,28	1269,74
483,48	1255,40
483,68	1271,79
483,88	1214,45
484,08	1241,07
484,29	1263,60
484,49	1261,55
484,69	1312,75
484,89	1259,50
485,09	1236,97
485,29	1325,04
485,50	1286,12
485,70	1204,21
485,90	1259,50
486,10	1220,59
486,30	1288,17
486,50	1267,69
486,71	1300,46
486,91	1232,88
487,11	1290,22
487,31	1251,31
487,51	1175,53
487,71	1269,74
487,91	1298,41
488,12	1292,27
488,32	1245,16
488,52	1259,50
488,72	1220,59
488,92	1284,08
489,12	1288,17
489,32	1259,50
489,53	1290,22
489,73	1368,04
489,93	1249,26
490,13	1261,55
490,33	1226,73
490,53	1236,97
490,73	1361,90
490,94	1282,03
491,14	1279,98
491,34	1269,74
491,54	1275,88
491,74	1216,49
491,94	1322,99
492,14	1314,80
492,34	1279,98
492,54	1312,75
492,75	1298,41
492,95	1294,32
493,15	1286,12
493,35	1146,86
493,55	1187,82
493,75	1333,23
493,95	1269,74
494,15	1187,82
494,35	1216,49
494,56	1200,11
494,76	1300,46
494,96	1224,69
495,16	1306,60
495,36	1255,40
495,56	1257,45
495,76	1335,28
495,96	1236,97
496,16	1271,79
496,36	1296,36
496,56	1253,36
496,77	1265,64
496,97	1300,46
497,17	1245,16
497,37	1243,12
497,57	1224,69
497,77	1275,88
497,97	1232,88
498,17	1277,93
498,37	1218,54
498,57	1269,74
498,77	1232,88
498,97	1275,88
499,17	1253,36
499,38	1265,64
499,58	1232,88
499,78	1302,51
499,98	1304,56
500,18	1275,88
500,38	1253,36
500,58	1257,45
500,78	1325,04
500,98	1243,12
501,18	1241,07
501,38	1294,32
501,58	1251,31
501,78	1210,35
501,98	1163,25
502,18	1251,31
502,38	1310,70
502,58	1245,16
502,78	1316,84
502,98	1282,03
503,18	1288,17
503,38	1224,69
503,59	1263,60
503,79	1259,50
503,99	1249,26
504,19	1265,64
504,39	1279,98
504,59	1302,51
504,79	1327,08
504,99	1234,93
505,19	1253,36
505,39	1230,83
505,59	1279,98
505,79	1222,64
505,99	1216,49
506,19	1265,64
506,39	1179,63
506,59	1224,69
506,79	1267,69
506,99	1253,36
507,19	1259,50
507,39	1320,94
507,59	1306,60
507,79	1200,11
507,99	1255,40
508,19	1310,70
508,39	1286,12
508,59	1282,03
508,79	1361,90
508,99	1263,60
509,19	1189,87
509,39	1282,03
509,59	1286,12
509,79	1284,08
509,99	1357,80
510,19	1208,30
510,39	1329,13
510,59	1302,51
510,79	1228,78
510,99	1273,84
511,19	1247,21
511,39	1239,02
511,59	1216,49
511,79	1247,21
511,99	1277,93
512,19	1279,98
512,38	1304,56
512,58	1236,97
512,78	1314,80
512,98	1269,74
513,18	1308,65
513,38	1327,08
513,58	1255,40
513,78	1306,60
513,98	1345,52
514,18	1234,93
514,38	1325,04
514,58	1212,40
514,78	1273,84
514,98	1179,63
515,18	1288,17
515,38	1232,88
515,58	1263,60
515,78	1271,79
515,98	1331,18
516,18	1245,16
516,38	1304,56
516,57	1257,45
516,77	1263,60
516,97	1228,78
517,17	1290,22
517,37	1265,64
517,57	1224,69
517,77	1296,36
517,97	1339,37
518,17	1255,40
518,37	1292,27
518,57	1339,37
518,77	1304,56
518,97	1279,98
519,16	1239,02
519,36	1282,03
519,56	1277,93
519,76	1284,08
519,96	1273,84
520,16	1214,45
520,36	1265,64
520,56	1267,69
520,76	1251,31
520,96	1255,40
521,16	1259,50
521,35	1286,12
521,55	1220,59
521,75	1200,11
521,95	1314,80
522,15	1292,27
522,35	1245,16
522,55	1366,00
522,75	1239,02
522,95	1232,88
523,14	1200,11
523,34	1271,79
523,54	1218,54
523,74	1212,40
523,94	1277,93
524,14	1251,31
524,34	1257,45
524,54	1322,99
524,73	1265,64
524,93	1247,21
525,13	1239,02
525,33	1224,69
525,53	1290,22
525,73	1298,41
525,93	1271,79
526,13	1275,88
526,32	1277,93
526,52	1265,64
526,72	1245,16
526,92	1290,22
527,12	1300,46
527,32	1288,17
527,52	1366,00
527,71	1325,04
527,91	1234,93
528,11	1230,83
528,31	1251,31
528,51	1333,23
528,71	1308,65
528,90	1292,27
529,10	1257,45
529,30	1279,98
529,50	1232,88
529,70	1253,36
529,90	1282,03
530,09	1269,74
530,29	1351,66
530,49	1257,45
530,69	1347,56
530,89	1275,88
531,09	1312,75
531,28	1241,07
531,48	1249,26
531,68	1267,69
531,88	1265,64
532,08	1273,84
532,28	1345,52
532,47	1292,27
532,67	1325,04
532,87	1284,08
533,07	1222,64
533,27	1308,65
533,46	1247,21
533,66	1310,70
533,86	1288,17
534,06	1273,84
534,26	1294,32
534,45	1304,56
534,65	1302,51
534,85	1288,17
535,05	1255,40
535,25	1316,84
535,44	1288,17
535,64	1224,69
535,84	1333,23
536,04	1202,16
536,24	1239,02
536,43	1277,93
536,63	1298,41
536,83	1327,08
537,03	1257,45
537,22	1355,76
537,42	1357,80
537,62	1263,60
537,82	1282,03
538,02	1359,85
538,21	1277,93
538,41	1314,80
538,61	1257,45
538,81	1312,75
539,00	1263,60
539,20	1265,64
539,40	1306,60
539,60	1236,97
539,79	1312,75
539,99	1279,98
540,19	1218,54
540,39	1286,12
540,58	1290,22
540,78	1230,83
540,98	1236,97
541,18	1275,88
541,37	1329,13
541,57	1341,42
541,77	1290,22
541,97	1210,35
542,16	1337,32
542,36	1241,07
542,56	1228,78
542,76	1247,21
542,95	1290,22
543,15	1314,80
543,35	1255,40
543,54	1290,22
543,74	1345,52
543,94	1245,16
544,14	1239,02
544,33	1228,78
544,53	1271,79
544,73	1263,60
544,93	1232,88
545,12	1286,12
545,32	1357,80
545,52	1263,60
545,71	1304,56
545,91	1282,03
546,11	1181,68
546,30	1302,51
546,50	1320,94
546,70	1310,70
546,90	1271,79
547,09	1286,12
547,29	1277,93
547,49	1204,21
547,68	1282,03
547,88	1216,49
548,08	1296,36
548,27	1269,74
548,47	1183,73
548,67	1275,88
548,87	1308,65
549,06	1146,86
549,26	1310,70
549,46	1275,88
549,65	1230,83
549,85	1310,70
550,05	1216,49
550,24	1273,84
550,44	1212,40
550,64	1208,30
550,83	1288,17
551,03	1284,08
551,23	1267,69
551,42	1236,97
551,62	1296,36
551,82	1279,98
552,01	1226,73
552,21	1288,17
552,41	1318,89
552,60	1282,03
552,80	1232,88
553,00	1220,59
553,19	1310,70
553,39	1304,56
553,59	1288,17
553,78	1241,07
553,98	1224,69
554,17	1236,97
554,37	1298,41
554,57	1208,30
554,76	1294,32
554,96	1196,01
555,16	1279,98
555,35	1271,79
555,55	1286,12
555,75	1273,84
555,94	1320,94
556,14	1318,89
556,33	1257,45
556,53	1251,31
556,73	1288,17
556,92	1267,69
557,12	1191,92
557,32	1275,88
557,51	1339,37
557,71	1202,16
557,90	1273,84
558,10	1271,79
558,30	1208,30
558,49	1302,51
558,69	1267,69
558,88	1267,69
559,08	1261,55
559,28	1251,31
559,47	1304,56
559,67	1277,93
559,86	1267,69
560,06	1179,63
560,26	1241,07
560,45	1196,01
560,65	1261,55
560,84	1282,03
561,04	1241,07
561,24	1253,36
561,43	1257,45
561,63	1228,78
561,82	1279,98
562,02	1257,45
562,22	1296,36
562,41	1265,64
562,61	1322,99
562,80	1263,60
563,00	1245,16
563,19	1247,21
563,39	1257,45
563,59	1263,60
563,78	1261,55
563,98	1234,93
564,17	1247,21
564,37	1306,60
564,56	1282,03
564,76	1314,80
564,96	1198,06
565,15	1292,27
565,35	1339,37
565,54	1310,70
565,74	1226,73
565,93	1251,31
566,13	1236,97
566,32	1267,69
566,52	1206,25
566,71	1263,60
566,91	1255,40
567,11	1251,31
567,30	1333,23
567,50	1302,51
567,69	1220,59
567,89	1206,25
568,08	1339,37
568,28	1255,40
568,47	1245,16
568,67	1204,21
568,86	1257,45
569,06	1288,17
569,25	1249,26
569,45	1224,69
569,64	1210,35
569,84	1249,26
570,04	1282,03
570,23	1298,41
570,43	1259,50
570,62	1247,21
570,82	1345,52
571,01	1257,45
571,21	1284,08
571,40	1273,84
571,60	1279,98
571,79	1267,69
571,99	1220,59
572,18	1349,61
572,38	1275,88
572,57	1224,69
572,77	1286,12
572,96	1234,93
573,16	1310,70
573,35	1302,51
573,55	1228,78
573,74	1267,69
573,94	1261,55
574,13	1255,40
574,33	1239,02
574,52	1288,17
574,71	1318,89
574,91	1249,26
575,10	1216,49
575,30	1202,16
575,49	1275,88
575,69	1279,98
575,88	1224,69
576,08	1314,80
576,27	1275,88
576,47	1259,50
576,66	1214,45
576,86	1279,98
577,05	1257,45
577,25	1239,02
577,44	1271,79
577,64	1351,66
577,83	1236,97
578,02	1304,56
578,22	1267,69
578,41	1239,02
578,61	1247,21
578,80	1296,36
579,00	1316,84
579,19	1269,74
579,39	1288,17
579,58	1218,54
579,77	1284,08
579,97	1218,54
580,16	1277,93
580,36	1265,64
580,55	1273,84
580,75	1257,45
580,94	1282,03
581,13	1292,27
581,33	1247,21
581,52	1220,59
581,72	1277,93
581,91	1259,50
582,11	1222,64
582,30	1255,40
582,49	1351,66
582,69	1247,21
582,88	1249,26
583,08	1241,07
583,27	1255,40
583,47	1216,49
583,66	1224,69
583,85	1263,60
584,05	1206,25
584,24	1275,88
584,44	1322,99
584,63	1269,74
584,82	1331,18
585,02	1255,40
585,21	1288,17
585,41	1232,88
585,60	1366,00
585,79	1347,56
585,99	1294,32
586,18	1257,45
586,37	1333,23
586,57	1191,92
586,76	1249,26
586,96	1298,41
587,15	1298,41
587,34	1308,65
587,54	1239,02
587,73	1269,74
587,93	1275,88
588,12	1224,69
588,31	1335,28
588,51	1359,85
588,70	1226,73
588,89	1302,51
589,09	1312,75
589,28	1247,21
589,47	1239,02
589,67	1282,03
589,86	1232,88
590,06	1302,51
590,25	1269,74
590,44	1218,54
590,64	1236,97
590,83	1243,12
591,02	1304,56
591,22	1279,98
591,41	1282,03
591,60	1277,93
591,80	1304,56
591,99	1232,88
592,18	1261,55
592,38	1318,89
592,57	1261,55
592,76	1282,03
592,96	1243,12
593,15	1251,31
593,34	1343,47
593,54	1366,00
593,73	1255,40
593,92	1282,03
594,12	1306,60
594,31	1234,93
594,50	1286,12
594,70	1230,83
594,89	1329,13
595,08	1257,45
595,28	1322,99
595,47	1327,08
595,66	1261,55
595,86	1236,97
596,05	1253,36
596,24	1302,51
596,43	1239,02
596,63	1249,26
596,82	1277,93
597,01	1265,64
597,21	1171,44
597,40	1206,25
597,59	1214,45
597,79	1288,17
597,98	1271,79
598,17	1222,64
598,36	1275,88
598,56	1224,69
598,75	1282,03
598,94	1234,93
599,14	1279,98
599,33	1300,46
599,52	1261,55
599,71	1306,60
599,91	1333,23
600,10	1273,84
600,29	1273,84
600,48	1298,41
600,68	1322,99
600,87	1279,98
601,06	1277,93
601,26	1277,93
601,45	1282,03
601,64	1298,41
601,83	1304,56
602,03	1241,07
602,22	1273,84
602,41	1277,93
602,60	1279,98
602,80	1214,45
602,99	1331,18
603,18	1304,56
603,37	1257,45
603,57	1234,93
603,76	1265,64
603,95	1269,74
604,14	1255,40
604,34	1353,71
604,53	1279,98
604,72	1322,99
604,91	1296,36
605,10	1263,60
605,30	1275,88
605,49	1249,26
605,68	1257,45
605,87	1265,64
606,07	1245,16
606,26	1259,50
606,45	1298,41
606,64	1277,93
606,84	1275,88
607,03	1257,45
607,22	1257,45
607,41	1251,31
607,60	1257,45
607,80	1292,27
607,99	1249,26
608,18	1292,27
608,37	1243,12
608,56	1257,45
608,76	1279,98
608,95	1249,26
609,14	1312,75
609,33	1257,45
609,52	1218,54
609,72	1271,79
609,91	1304,56
610,10	1288,17
610,29	1337,32
610,48	1224,69
610,68	1247,21
610,87	1298,41
611,06	1310,70
611,25	1306,60
611,44	1230,83
611,63	1292,27
611,83	1269,74
612,02	1314,80
612,21	1255,40
612,40	1222,64
612,59	1196,01
612,79	1251,31
612,98	1304,56
613,17	1255,40
613,36	1259,50
613,55	1314,80
613,74	1222,64
613,93	1255,40
614,13	1279,98
614,32	1259,50
614,51	1249,26
614,70	1355,76
614,89	1216,49
615,08	1255,40
615,28	1234,93
615,47	1204,21
615,66	1277,93
615,85	1314,80
616,04	1304,56
616,23	1279,98
616,42	1245,16
616,62	1333,23
616,81	1220,59
617,00	1314,80
617,19	1239,02
617,38	1243,12
617,57	1249,26
617,76	1247,21
617,95	1239,02
618,15	1261,55
618,34	1300,46
618,53	1263,60
618,72	1310,70
618,91	1146,86
619,10	1247,21
619,29	1218,54
619,48	1263,60
619,68	1259,50
619,87	1200,11
620,06	1265,64
620,25	1298,41
620,44	1302,51
620,63	1296,36
620,82	1282,03
621,01	1279,98
621,20	1302,51
621,39	1241,07
621,59	1296,36
621,78	1292,27
621,97	1239,02
622,16	1325,04
622,35	1288,17
622,54	1314,80
622,73	1271,79
622,92	1306,60
623,11	1355,76
623,30	1282,03
623,49	1267,69
623,68	1290,22
623,88	1249,26
624,07	1312,75
624,26	1314,80
624,45	1230,83
624,64	1263,60
624,83	1265,64
625,02	1249,26
625,21	1279,98
625,40	1216,49
625,59	1312,75
625,78	1286,12
625,97	1308,65
626,16	1249,26
626,35	1312,75
626,54	1239,02
626,74	1286,12
626,93	1314,80
627,12	1220,59
627,31	1296,36
627,50	1286,12
627,69	1308,65
627,88	1265,64
628,07	1306,60
628,26	1271,79
628,45	1277,93
628,64	1320,94
628,83	1292,27
629,02	1263,60
629,21	1290,22
629,40	1335,28
629,59	1288,17
629,78	1306,60
629,97	1216,49
630,16	1322,99
630,35	1312,75
630,54	1265,64
630,73	1275,88
630,92	1372,14
631,11	1325,04
631,30	1359,85
631,49	1347,56
631,68	1345,52
631,87	1460,20
632,06	1445,87
632,25	1400,81
632,44	1509,35
632,63	1341,42
632,82	1302,51
633,01	1445,87
633,20	1449,96
633,39	1527,78
633,58	1441,77
633,77	1464,30
633,96	1492,97
634,15	1447,91
634,34	1386,47
634,53	1472,49
634,72	1538,02
634,91	1384,43
635,10	1421,29
635,29	1468,39
635,48	1490,92
635,67	1454,06
635,86	1439,72
636,05	1429,48
636,24	1439,72
636,43	1439,72
636,62	1484,78
636,81	1386,47
637,00	1341,42
637,19	1339,37
637,38	1343,47
637,57	1312,75
637,76	1290,22
637,95	1320,94
638,14	1312,75
638,33	1335,28
638,52	1345,52
638,71	1298,41
638,89	1331,18
639,08	1210,35
639,27	1271,79
639,46	1255,40
639,65	1304,56
639,84	1251,31
640,03	1269,74
640,22	1294,32
640,41	1327,08
640,60	1345,52
640,79	1263,60
640,98	1193,97
641,17	1308,65
641,36	1259,50
641,55	1320,94
641,74	1282,03
641,92	1236,97
642,11	1216,49
642,30	1271,79
642,49	1298,41
642,68	1304,56
642,87	1275,88
643,06	1282,03
643,25	1279,98
643,44	1298,41
643,63	1337,32
643,82	1300,46
644,00	1288,17
644,19	1269,74
644,38	1159,15
644,57	1271,79
644,76	1243,12
644,95	1259,50
645,14	1290,22
645,33	1208,30
645,52	1331,18
645,71	1279,98
645,89	1261,55
646,08	1183,73
646,27	1290,22
646,46	1273,84
646,65	1296,36
646,84	1314,80
647,03	1257,45
647,22	1228,78
647,40	1288,17
647,59	1222,64
647,78	1183,73
647,97	1288,17
648,16	1224,69
648,35	1243,12
648,54	1292,27
648,73	1255,40
648,91	1277,93
649,10	1249,26
649,29	1302,51
649,48	1241,07
649,67	1277,93
649,86	1273,84
650,05	1300,46
650,23	1331,18
650,42	1214,45
650,61	1298,41
650,80	1279,98
650,99	1275,88
651,18	1275,88
651,36	1306,60
651,55	1265,64
651,74	1361,90
651,93	1214,45
652,12	1310,70
652,31	1187,82
652,49	1271,79
652,68	1234,93
652,87	1267,69
653,06	1357,80
653,25	1329,13
653,44	1243,12
653,62	1251,31
653,81	1243,12
654,00	1316,84
654,19	1329,13
654,38	1249,26
654,56	1269,74
654,75	1294,32
654,94	1290,22
655,13	1341,42
655,32	1290,22
655,51	1341,42
655,69	1277,93
655,88	1333,23
656,07	1312,75
656,26	1257,45
656,45	1294,32
656,63	1247,21
656,82	1232,88
657,01	1288,17
657,20	1210,35
657,38	1230,83
657,57	1318,89
657,76	1263,60
657,95	1267,69
658,14	1224,69
658,32	1341,42
658,51	1308,65
658,70	1234,93
658,89	1236,97
659,08	1290,22
659,26	1290,22
659,45	1245,16
659,64	1255,40
659,83	1255,40
660,01	1312,75
660,20	1255,40
660,39	1257,45
660,58	1228,78
660,76	1286,12
660,95	1216,49
661,14	1304,56
661,33	1236,97
661,51	1265,64
661,70	1286,12
661,89	1247,21
662,08	1310,70
662,26	1269,74
662,45	1265,64
662,64	1263,60
662,83	1333,23
663,01	1257,45
663,20	1206,25
663,39	1298,41
663,58	1329,13
663,76	1251,31
663,95	1263,60
664,14	1263,60
664,32	1214,45
664,51	1288,17
664,70	1247,21
664,89	1239,02
665,07	1177,58
665,26	1173,49
665,45	1265,64
665,64	1267,69
665,82	1249,26
666,01	1224,69
666,20	1210,35
666,38	1306,60
666,57	1259,50
666,76	1267,69
666,95	1247,21
667,13	1310,70
667,32	1314,80
667,51	1275,88
667,69	1290,22
667,88	1241,07
668,07	1249,26
668,25	1286,12
668,44	1236,97
668,63	1402,86
668,81	1267,69
669,00	1300,46
669,19	1226,73
669,38	1339,37
669,56	1304,56
669,75	1234,93
669,94	1239,02
670,12	1257,45
670,31	1267,69
670,50	1212,40
670,68	1290,22
670,87	1275,88
671,06	1253,36
671,24	1259,50
671,43	1165,29
671,62	1269,74
671,80	1214,45
671,99	1298,41
672,18	1294,32
672,36	1222,64
672,55	1292,27
672,74	1222,64
672,92	1343,47
673,11	1259,50
673,29	1296,36
673,48	1304,56
673,67	1185,77
673,85	1279,98
674,04	1273,84
674,23	1298,41
674,41	1241,07
674,60	1216,49
674,79	1325,04
674,97	1255,40
675,16	1222,64
675,34	1312,75
675,53	1314,80
675,72	1290,22
675,90	1357,80
676,09	1273,84
676,28	1273,84
676,46	1247,21
676,65	1290,22
676,83	1249,26
677,02	1222,64
677,21	1263,60
677,39	1279,98
677,58	1273,84
677,77	1251,31
677,95	1282,03
678,14	1193,97
678,32	1253,36
678,51	1232,88
678,70	1294,32
678,88	1304,56
679,07	1314,80
679,25	1239,02
679,44	1300,46
679,63	1282,03
679,81	1255,40
680,00	1263,60
680,18	1253,36
680,37	1308,65
680,55	1269,74
680,74	1218,54
680,93	1251,31
681,11	1273,84
681,30	1273,84
681,48	1273,84
681,67	1370,09
681,85	1257,45
682,04	1298,41
682,23	1191,92
682,41	1265,64
682,60	1286,12
682,78	1228,78
682,97	1257,45
683,15	1322,99
683,34	1363,95
683,53	1290,22
683,71	1275,88
683,90	1239,02
684,08	1304,56
684,27	1261,55
684,45	1357,80
684,64	1236,97
684,82	1296,36
685,01	1253,36
685,19	1247,21
685,38	1314,80
685,57	1308,65
685,75	1288,17
685,94	1261,55
686,12	1204,21
686,31	1298,41
686,49	1279,98
686,68	1286,12
686,86	1298,41
687,05	1292,27
687,23	1265,64
687,42	1269,74
687,60	1232,88
687,79	1279,98
687,97	1275,88
688,16	1228,78
688,34	1263,60
688,53	1304,56
688,71	1271,79
688,90	1255,40
689,08	1288,17
689,27	1241,07
689,45	1314,80
689,64	1255,40
689,82	1247,21
690,01	1320,94
690,19	1290,22
690,38	1339,37
690,56	1259,50
690,75	1296,36
690,93	1251,31
691,12	1255,40
691,30	1253,36
691,49	1222,64
691,67	1275,88
691,86	1347,56
692,04	1257,45
692,23	1298,41
692,41	1228,78
692,60	1232,88
692,78	1173,49
692,97	1257,45
693,15	1255,40
693,34	1308,65
693,52	1333,23
693,71	1173,49
693,89	1294,32
694,08	1320,94
694,26	1298,41
694,44	1322,99
694,63	1284,08
694,81	1294,32
695,00	1296,36
695,18	1271,79
695,37	1271,79
695,55	1222,64
695,74	1228,78
695,92	1191,92
696,10	1286,12
696,29	1310,70
696,47	1259,50
696,66	1230,83
696,84	1265,64
697,03	1294,32
697,21	1202,16
697,40	1298,41
697,58	1265,64
697,76	1206,25
697,95	1150,96
698,13	1265,64
698,32	1257,45
698,50	1273,84
698,68	1284,08
698,87	1263,60
699,05	1232,88
699,24	1249,26
699,42	1288,17
699,61	1294,32
699,79	1234,93
699,97	1222,64
700,16	1232,88
700,34	1304,56
700,53	1267,69
700,71	1220,59
700,89	1282,03
701,08	1249,26
701,26	1271,79
701,45	1302,51
701,63	1249,26
701,81	1298,41
702,00	1277,93
702,18	1204,21
702,37	1306,60
702,55	1345,52
702,73	1261,55
702,92	1257,45
703,10	1251,31
703,28	1263,60
703,47	1304,56
703,65	1212,40
703,84	1249,26
704,02	1226,73
704,20	1241,07
704,39	1320,94
704,57	1298,41
704,75	1314,80
704,94	1243,12
705,12	1261,55
705,30	1290,22
705,49	1329,13
705,67	1191,92
705,86	1200,11
706,04	1265,64
706,22	1224,69
706,41	1216,49
706,59	1286,12
706,77	1265,64
706,96	1245,16
707,14	1294,32
707,32	1239,02
707,51	1277,93
707,69	1263,60
707,87	1300,46
708,06	1331,18
708,24	1298,41
708,42	1224,69
708,61	1325,04
708,79	1333,23
708,97	1308,65
709,16	1267,69
709,34	1257,45
709,52	1271,79
709,71	1275,88
709,89	1234,93
710,07	1241,07
710,26	1294,32
710,44	1347,56
710,62	1284,08
710,80	1292,27
710,99	1267,69
711,17	1355,76
711,35	1308,65
711,54	1277,93
711,72	1269,74
711,90	1312,75
712,09	1271,79
712,27	1243,12
712,45	1265,64
712,63	1222,64
712,82	1206,25
713,00	1296,36
713,18	1347,56
713,37	1269,74
713,55	1310,70
713,73	1255,40
713,91	1253,36
714,10	1249,26
714,28	1296,36
714,46	1339,37
714,65	1243,12
714,83	1275,88
715,01	1255,40
715,19	1306,60
715,38	1236,97
715,56	1298,41
715,74	1247,21
715,92	1228,78
716,11	1243,12
716,29	1261,55
716,47	1204,21
716,65	1302,51
716,84	1296,36
717,02	1273,84
717,20	1304,56
717,38	1304,56
717,57	1247,21
717,75	1302,51
717,93	1214,45
718,11	1318,89
718,30	1234,93
718,48	1245,16
718,66	1298,41
718,84	1234,93
719,03	1236,97
719,21	1290,22
719,39	1333,23
719,57	1292,27
719,75	1226,73
719,94	1304,56
720,12	1341,42
720,30	1349,61
720,48	1257,45
720,67	1263,60
720,85	1257,45
721,03	1214,45
721,21	1273,84
721,39	1327,08
721,58	1239,02
721,76	1282,03
721,94	1243,12
722,12	1314,80
722,30	1220,59
722,49	1314,80
722,67	1275,88
722,85	1304,56
723,03	1200,11
723,21	1286,12
723,40	1259,50
723,58	1327,08
723,76	1245,16
723,94	1257,45
724,12	1251,31
724,30	1302,51
724,49	1206,25
724,67	1241,07
724,85	1239,02
725,03	1249,26
725,21	1228,78
725,40	1294,32
725,58	1286,12
725,76	1230,83
725,94	1245,16
726,12	1175,53
726,30	1298,41
726,49	1273,84
726,67	1331,18
726,85	1298,41
727,03	1335,28
727,21	1265,64
727,39	1255,40
727,57	1185,77
727,76	1179,63
727,94	1349,61
728,12	1275,88
728,30	1273,84
728,48	1296,36
728,66	1320,94
728,84	1306,60
729,03	1220,59
729,21	1196,01
729,39	1370,09
729,57	1318,89
729,75	1333,23
729,93	1257,45
730,11	1269,74
730,30	1243,12
730,48	1288,17
730,66	1282,03
730,84	1368,04
731,02	1183,73
731,20	1314,80
731,38	1224,69
731,56	1288,17
731,74	1239,02
731,93	1228,78
732,11	1261,55
732,29	1304,56
732,47	1249,26
732,65	1249,26
732,83	1234,93
733,01	1232,88
733,19	1279,98
733,37	1320,94
733,56	1271,79
733,74	1257,45
733,92	1251,31
734,10	1288,17
734,28	1259,50
734,46	1304,56
734,64	1288,17
734,82	1247,21
735,00	1310,70
735,18	1216,49
735,36	1306,60
735,54	1325,04
735,73	1327,08
735,91	1286,12
736,09	1275,88
736,27	1261,55
736,45	1282,03
736,63	1306,60
736,81	1241,07
736,99	1361,90
737,17	1253,36
737,35	1271,79
737,53	1341,42
737,71	1286,12
737,89	1222,64
738,07	1257,45
738,25	1273,84
738,43	1269,74
738,61	1243,12
738,80	1331,18
738,98	1220,59
739,16	1288,17
739,34	1337,32
739,52	1245,16
739,70	1273,84
739,88	1374,19
740,06	1249,26
740,24	1198,06
740,42	1277,93
740,60	1273,84
740,78	1277,93
740,96	1271,79
741,14	1245,16
741,32	1198,06
741,50	1226,73
741,68	1273,84
741,86	1306,60
742,04	1271,79
742,22	1282,03
742,40	1302,51
742,58	1273,84
742,76	1333,23
742,94	1329,13
743,12	1271,79
743,30	1286,12
743,48	1245,16
743,66	1247,21
743,84	1239,02
744,02	1290,22
744,20	1271,79
744,38	1241,07
744,56	1271,79
744,74	1263,60
744,92	1294,32
745,10	1294,32
745,28	1273,84
745,46	1382,38
745,64	1228,78
745,82	1282,03
746,00	1269,74
746,18	1216,49
746,36	1259,50
746,54	1230,83
746,72	1181,68
746,90	1351,66
747,08	1265,64
747,26	1339,37
747,44	1378,28
747,62	1269,74
747,80	1234,93
747,98	1277,93
748,15	1325,04
748,33	1245,16
748,51	1265,64
748,69	1277,93
748,87	1318,89
749,05	1318,89
749,23	1208,30
749,41	1286,12
749,59	1269,74
749,77	1253,36
749,95	1308,65
750,13	1224,69
750,31	1312,75
750,49	1265,64
750,67	1230,83
750,85	1269,74
751,03	1234,93
751,20	1226,73
751,38	1241,07
751,56	1245,16
751,74	1298,41
751,92	1304,56
752,10	1243,12
752,28	1265,64
752,46	1306,60
752,64	1275,88
752,82	1224,69
753,00	1294,32
753,18	1322,99
753,35	1261,55
753,53	1304,56
753,71	1257,45
753,89	1265,64
754,07	1372,14
754,25	1259,50
754,43	1282,03
754,61	1273,84
754,79	1247,21
754,97	1273,84
755,14	1306,60
755,32	1234,93
755,50	1255,40
755,68	1196,01
755,86	1298,41
756,04	1212,40
756,22	1224,69
756,40	1251,31
756,57	1261,55
756,75	1220,59
756,93	1249,26
757,11	1243,12
757,29	1259,50
757,47	1261,55
757,65	1210,35
757,82	1290,22
758,00	1265,64
758,18	1306,60
758,36	1284,08
758,54	1234,93
758,72	1355,76
758,90	1208,30
759,07	1296,36
759,25	1189,87
759,43	1304,56
759,61	1265,64
759,79	1261,55
759,97	1216,49
760,15	1325,04
760,32	1212,40
760,50	1234,93
760,68	1318,89
760,86	1257,45
761,04	1222,64
761,22	1337,32
761,39	1314,80
761,57	1386,47
761,75	1314,80
761,93	1329,13
762,11	1230,83
762,28	1312,75
762,46	1263,60
762,64	1224,69
762,82	1261,55
763,00	1271,79
763,18	1236,97
763,35	1286,12
763,53	1265,64
763,71	1279,98
763,89	1288,17
764,07	1304,56
764,24	1286,12
764,42	1230,83
764,60	1200,11
764,78	1247,21
764,96	1200,11
765,13	1243,12
765,31	1257,45
765,49	1284,08
765,67	1310,70
765,84	1298,41
766,02	1218,54
766,20	1304,56
766,38	1339,37
766,56	1257,45
766,73	1331,18
766,91	1288,17
767,09	1304,56
767,27	1361,90
767,44	1249,26
767,62	1304,56
767,80	1267,69
767,98	1267,69
768,15	1218,54
768,33	1228,78
768,51	1255,40
768,69	1288,17
768,87	1216,49
769,04	1298,41
769,22	1298,41
769,40	1341,42
769,58	1302,51
769,75	1331,18
769,93	1273,84
770,11	1245,16
770,28	1245,16
770,46	1263,60
770,64	1320,94
770,82	1273,84
770,99	1273,84
771,17	1296,36
771,35	1261,55
771,53	1167,34
771,70	1306,60
771,88	1308,65
772,06	1275,88
772,23	1206,25
772,41	1220,59
772,59	1286,12
772,77	1282,03
772,94	1259,50
773,12	1306,60
773,30	1247,21
773,47	1312,75
773,65	1204,21
773,83	1222,64
774,01	1306,60
774,18	1241,07
774,36	1296,36
774,54	1302,51
774,71	1265,64
774,89	1273,84
775,07	1259,50
775,24	1253,36
775,42	1306,60
775,60	1318,89
775,78	1220,59
775,95	1261,55
776,13	1259,50
776,31	1247,21
776,48	1261,55
776,66	1275,88
776,84	1316,84
777,01	1230,83
777,19	1269,74
777,37	1322,99
777,54	1275,88
777,72	1294,32
777,90	1251,31
778,07	1241,07
778,25	1245,16
778,43	1234,93
778,60	1273,84
778,78	1230,83
778,96	1347,56
779,13	1222,64
779,31	1259,50
779,49	1220,59
779,66	1277,93
779,84	1228,78
780,01	1259,50
780,19	1234,93
780,37	1220,59
780,54	1290,22
780,72	1179,63
780,90	1253,36
781,07	1187,82
781,25	1263,60
781,43	1282,03
781,60	1331,18
781,78	1320,94
781,95	1310,70
782,13	1316,84
782,31	1249,26
782,48	1214,45
782,66	1251,31
782,83	1257,45
783,01	1320,94
783,19	1325,04
783,36	1286,12
783,54	1255,40
783,72	1286,12
783,89	1327,08
784,07	1271,79
784,24	1241,07
784,42	1255,40
784,60	1284,08
784,77	1263,60
784,95	1351,66
785,12	1347,56
785,30	1255,40
785,47	1222,64
785,65	1263,60
785,83	1214,45
786,00	1265,64
786,18	1290,22
786,35	1236,97
786,53	1279,98
786,71	1335,28
786,88	1239,02
787,06	1261,55
787,23	1140,72
787,41	1308,65
787,58	1269,74
787,76	1228,78
787,94	1296,36
788,11	1304,56
788,29	1275,88
788,46	1292,27
788,64	1306,60
788,81	1357,80
788,99	1251,31
789,16	1257,45
789,34	1310,70
789,52	1245,16
789,69	1329,13
789,87	1269,74
790,04	1320,94
790,22	1290,22
790,39	1351,66
790,57	1296,36
790,74	1306,60
790,92	1277,93
791,09	1279,98
791,27	1230,83
791,44	1267,69
791,62	1261,55
791,79	1288,17
791,97	1265,64
792,15	1349,61
792,32	1335,28
792,50	1314,80
792,67	1294,32
792,85	1290,22
793,02	1298,41
793,20	1226,73
793,37	1269,74
793,55	1296,36
793,72	1279,98
793,90	1257,45
794,07	1267,69
794,25	1212,40
794,42	1259,50
794,60	1243,12
794,77	1263,60
794,95	1339,37
795,12	1304,56
795,30	1277,93
795,47	1265,64
795,65	1247,21
795,82	1171,44
796,00	1247,21
796,17	1261,55
796,34	1222,64
796,52	1279,98
796,69	1220,59
796,87	1294,32
797,04	1279,98
797,22	1236,97
797,39	1269,74
797,57	1273,84
797,74	1366,00
797,92	1212,40
798,09	1255,40
798,27	1304,56
798,44	1286,12
798,62	1216,49
798,79	1312,75
798,96	1308,65
799,14	1247,21
799,31	1275,88
799,49	1247,21
799,66	1322,99
799,84	1286,12
800,01	1249,26
800,19	1263,60
800,36	1290,22
800,53	1302,51
800,71	1296,36
800,88	1241,07
801,06	1306,60
801,23	1298,41
801,41	1265,64
801,58	1230,83
801,75	1282,03
801,93	1294,32
802,10	1263,60
802,28	1251,31
802,45	1253,36
802,63	1359,85
802,80	1282,03
802,97	1325,04
803,15	1208,30
803,32	1251,31
803,50	1245,16
803,67	1193,97
803,84	1257,45
804,02	1306,60
804,19	1275,88
804,37	1263,60
804,54	1241,07
804,71	1243,12
804,89	1261,55
805,06	1253,36
805,24	1220,59
805,41	1269,74
805,58	1249,26
805,76	1243,12
805,93	1355,76
806,10	1236,97
806,28	1275,88
806,45	1257,45
806,63	1206,25
806,80	1265,64
806,97	1253,36
807,15	1312,75
807,32	1249,26
807,49	1210,35
807,67	1234,93
807,84	1331,18
808,01	1202,16
808,19	1232,88
808,36	1259,50
808,54	1267,69
808,71	1331,18
808,88	1282,03
809,06	1251,31
809,23	1249,26
809,40	1302,51
809,58	1236,97
809,75	1208,30
809,92	1304,56
810,10	1234,93
810,27	1245,16
810,44	1355,76
810,62	1263,60
810,79	1314,80
810,96	1331,18
811,14	1322,99
811,31	1292,27
811,48	1228,78
811,66	1273,84
811,83	1275,88
812,00	1212,40
812,18	1279,98
812,35	1277,93
812,52	1251,31
812,69	1249,26
812,87	1275,88
813,04	1167,34
813,21	1294,32
813,39	1286,12
813,56	1284,08
813,73	1296,36
813,91	1245,16
814,08	1247,21
814,25	1316,84
814,42	1214,45
814,60	1277,93
814,77	1241,07
814,94	1239,02
815,12	1232,88
815,29	1208,30
815,46	1220,59
815,63	1322,99
815,81	1277,93
815,98	1304,56
816,15	1316,84
816,33	1259,50
816,50	1335,28
816,67	1234,93
816,84	1257,45
817,02	1290,22
817,19	1267,69
817,36	1251,31
817,53	1314,80
817,71	1325,04
817,88	1290,22
818,05	1234,93
818,22	1232,88
818,40	1259,50
818,57	1279,98
818,74	1263,60
818,91	1220,59
819,09	1253,36
819,26	1253,36
819,43	1255,40
819,60	1249,26
819,78	1318,89
819,95	1380,33
820,12	1193,97
820,29	1361,90
820,47	1243,12
820,64	1265,64
820,81	1279,98
820,98	1269,74
821,15	1251,31
821,33	1296,36
821,50	1277,93
821,67	1247,21
821,84	1228,78
822,02	1284,08
822,19	1290,22
822,36	1339,37
822,53	1253,36
822,70	1310,70
822,88	1296,36
823,05	1304,56
823,22	1224,69
823,39	1226,73
823,56	1236,97
823,74	1322,99
823,91	1241,07
824,08	1271,79
824,25	1214,45
824,42	1327,08
824,60	1298,41
824,77	1191,92
824,94	1273,84
825,11	1263,60
825,28	1259,50
825,45	1200,11
825,63	1286,12
825,80	1273,84
825,97	1243,12
826,14	1212,40
826,31	1265,64
826,48	1214,45
826,66	1224,69
826,83	1257,45
827,00	1304,56
827,17	1308,65
827,34	1314,80
827,51	1290,22
827,69	1267,69
827,86	1304,56
828,03	1279,98
828,20	1179,63
828,37	1255,40
828,54	1282,03
828,71	1325,04
828,89	1263,60
829,06	1339,37
829,23	1265,64
829,40	1292,27
829,57	1331,18
829,74	1241,07
829,91	1345,52
830,09	1251,31
830,26	1220,59
830,43	1208,30
830,60	1306,60
830,77	1263,60
830,94	1273,84
831,11	1298,41
831,28	1255,40
831,46	1273,84
831,63	1214,45
831,80	1230,83
831,97	1282,03
832,14	1216,49
832,31	1314,80
832,48	1230,83
832,65	1284,08
832,82	1288,17
832,99	1310,70
833,17	1279,98
833,34	1310,70
833,51	1310,70
833,68	1243,12
833,85	1222,64
834,02	1259,50
834,19	1191,92
834,36	1202,16
834,53	1320,94
834,70	1228,78
834,87	1255,40
835,04	1247,21
835,22	1296,36
835,39	1196,01
835,56	1300,46
835,73	1269,74
835,90	1290,22
836,07	1224,69
836,24	1222,64
836,41	1273,84
836,58	1198,06
836,75	1302,51
836,92	1202,16
837,09	1198,06
837,26	1251,31
837,43	1314,80
837,60	1239,02
837,77	1255,40
837,94	1302,51
838,12	1314,80
838,29	1257,45
838,46	1298,41
838,63	1265,64
838,80	1230,83
838,97	1275,88
839,14	1292,27
839,31	1275,88
839,48	1296,36
839,65	1314,80
839,82	1243,12
839,99	1306,60
840,16	1222,64
840,33	1236,97
840,50	1249,26
840,67	1304,56
840,84	1314,80
841,01	1282,03
841,18	1279,98
841,35	1251,31
841,52	1288,17
841,69	1312,75
841,86	1273,84
842,03	1302,51
842,20	1304,56
842,37	1310,70
842,54	1282,03
842,71	1239,02
842,88	1271,79
843,05	1333,23
843,22	1282,03
843,39	1234,93
843,56	1306,60
843,73	1308,65
843,90	1255,40
844,07	1300,46
844,24	1243,12
844,41	1312,75
844,58	1261,55
844,75	1216,49
844,92	1337,32
845,09	1296,36
845,26	1249,26
845,43	1249,26
845,60	1322,99
845,77	1214,45
845,94	1230,83
846,10	1273,84
846,27	1189,87
846,44	1275,88
846,61	1310,70
846,78	1234,93
846,95	1282,03
847,12	1224,69
847,29	1196,01
847,46	1247,21
847,63	1214,45
847,80	1296,36
847,97	1224,69
848,14	1314,80
848,31	1245,16
848,48	1200,11
848,65	1304,56
848,82	1224,69
848,98	1300,46
849,15	1222,64
849,32	1316,84
849,49	1277,93
849,66	1347,56
849,83	1263,60
850,00	1224,69
850,17	1265,64
850,34	1228,78
850,51	1286,12
850,68	1275,88
850,85	1282,03
851,01	1290,22
851,18	1251,31
851,35	1298,41
851,52	1277,93
851,69	1216,49
851,86	1243,12
852,03	1267,69
852,20	1282,03
852,37	1263,60
852,53	1304,56
852,70	1357,80
852,87	1267,69
853,04	1288,17
853,21	1253,36
853,38	1284,08
853,55	1314,80
853,72	1230,83
853,89	1189,87
854,05	1216,49
854,22	1308,65
854,39	1275,88
854,56	1259,50
854,73	1310,70
854,90	1241,07
855,07	1187,82
855,23	1337,32
855,40	1351,66
855,57	1255,40
855,74	1292,27
855,91	1308,65
856,08	1337,32
856,25	1259,50
856,41	1245,16
856,58	1230,83
856,75	1232,88
856,92	1253,36
857,09	1257,45
857,26	1247,21
857,42	1241,07
857,59	1298,41
857,76	1257,45
857,93	1290,22
858,10	1267,69
858,27	1361,90
858,43	1255,40
858,60	1224,69
858,77	1265,64
858,94	1282,03
859,11	1267,69
859,27	1224,69
859,44	1226,73
859,61	1322,99
859,78	1224,69
859,95	1271,79
860,12	1251,31
860,28	1261,55
860,45	1273,84
860,62	1298,41
860,79	1329,13
860,95	1257,45
861,12	1191,92
861,29	1347,56
861,46	1298,41
861,63	1236,97
861,79	1191,92
861,96	1300,46
862,13	1271,79
862,30	1300,46
862,47	1290,22
862,63	1327,08
862,80	1331,18
862,97	1249,26
863,14	1255,40
863,30	1286,12
863,47	1279,98
863,64	1173,49
863,81	1249,26
863,97	1259,50
864,14	1263,60
864,31	1306,60
864,48	1271,79
864,65	1273,84
864,81	1263,60
864,98	1290,22
865,15	1251,31
865,32	1220,59
865,48	1325,04
865,65	1232,88
865,82	1171,44
865,98	1265,64
866,15	1249,26
866,32	1234,93
866,49	1257,45
866,65	1273,84
866,82	1253,36
866,99	1277,93
867,16	1265,64
867,32	1214,45
867,49	1273,84
867,66	1257,45
867,83	1290,22
867,99	1327,08
868,16	1304,56
868,33	1296,36
868,49	1290,22
868,66	1271,79
868,83	1363,95
868,99	1236,97
869,16	1257,45
869,33	1243,12
869,50	1249,26
869,66	1228,78
869,83	1273,84
870,00	1191,92
870,16	1345,52
870,33	1234,93
870,50	1249,26
870,66	1218,54
870,83	1312,75
871,00	1206,25
871,17	1279,98
871,33	1314,80
871,50	1247,21
871,67	1296,36
871,83	1247,21
872,00	1275,88
872,17	1286,12
872,33	1277,93
872,50	1159,15
872,67	1187,82
872,83	1222,64
873,00	1306,60
873,17	1245,16
873,33	1316,84
873,50	1288,17
873,67	1224,69
873,83	1259,50
874,00	1239,02
874,16	1255,40
874,33	1322,99
874,50	1355,76
874,66	1234,93
874,83	1273,84
875,00	1220,59
875,16	1345,52
875,33	1327,08
875,50	1306,60
875,66	1251,31
875,83	1251,31
875,99	1284,08
876,16	1282,03
876,33	1224,69
876,49	1263,60
876,66	1314,80
876,83	1306,60
876,99	1175,53
877,16	1294,32
877,32	1132,53
877,49	1204,21
877,66	1286,12
877,82	1284,08
877,99	1189,87
878,15	1263,60
878,32	1290,22
878,49	1271,79
878,65	1179,63
878,82	1255,40
878,98	1284,08
879,15	1282,03
879,32	1200,11
879,48	1255,40
879,65	1243,12
879,81	1339,37
879,98	1232,88
880,15	1257,45
880,31	1259,50
880,48	1214,45
880,64	1210,35
880,81	1273,84
880,97	1185,77
881,14	1222,64
881,31	1236,97
881,47	1273,84
881,64	1255,40
881,80	1216,49
881,97	1253,36
882,13	1275,88
882,30	1202,16
882,47	1282,03
882,63	1271,79
882,80	1329,13
882,96	1271,79
883,13	1320,94
883,29	1290,22
883,46	1265,64
883,62	1284,08
883,79	1263,60
883,95	1302,51
884,12	1267,69
884,29	1318,89
884,45	1286,12
884,62	1267,69
884,78	1296,36
884,95	1306,60
885,11	1247,21
885,28	1279,98
885,44	1208,30
885,61	1253,36
885,77	1314,80
885,94	1320,94
886,10	1294,32
886,27	1271,79
886,43	1314,80
886,60	1279,98
886,76	1290,22
886,93	1228,78
887,09	1255,40
887,26	1304,56
887,42	1245,16
887,59	1284,08
887,75	1320,94
887,92	1241,07
888,08	1234,93
888,25	1249,26
888,41	1284,08
888,58	1263,60
888,74	1331,18
888,91	1337,32
>>>>>End Processed Spectral Data<<<<<
