SpectraSuite Data File
++++++++++++++++++++++++++++++++++++
Date: Sun Apr 03 14:37:34 CEST 2016
User: root
Dark Spectrum Present: No
Reference Spectrum Present: No
Number of Sampled Component Spectra: 1
Spectrometers: USB4C02835
Integration Time (usec): 10000 (USB4C02835)
Spectra Averaged: 1 (USB4C02835)
Boxcar Smoothing: 0 (USB4C02835)
Correct for Electrical Dark: No (USB4C02835)
Strobe/Lamp Enabled: No (USB4C02835)
Correct for Detector Non-linearity: No (USB4C02835)
Correct for Stray Light: No (USB4C02835)
Number of Pixels in Processed Spectrum: 3648
>>>>>Begin Processed Spectral Data<<<<<
177,47	1243,12
177,69	1243,12
177,91	1243,12
178,13	1239,02
178,36	1222,64
178,58	1230,83
178,80	1249,26
179,02	1306,60
179,24	1193,97
179,46	1318,89
179,68	1304,56
179,90	1312,75
180,13	1302,51
180,35	1232,88
180,57	1222,64
180,79	1273,84
181,01	1308,65
181,23	1298,41
181,45	1169,39
181,67	1193,97
181,90	1236,97
182,12	1230,83
182,34	1306,60
182,56	1275,88
182,78	1292,27
183,00	1310,70
183,22	1333,23
183,44	1298,41
183,66	1214,45
183,89	1341,42
184,11	1304,56
184,33	1263,60
184,55	1218,54
184,77	1253,36
184,99	1216,49
185,21	1196,01
185,43	1320,94
185,65	1353,71
185,87	1366,00
186,10	1257,45
186,32	1257,45
186,54	1282,03
186,76	1290,22
186,98	1228,78
187,20	1269,74
187,42	1220,59
187,64	1290,22
187,86	1312,75
188,08	1234,93
188,30	1255,40
188,52	1263,60
188,75	1243,12
188,97	1300,46
189,19	1265,64
189,41	1310,70
189,63	1241,07
189,85	1331,18
190,07	1284,08
190,29	1331,18
190,51	1279,98
190,73	1279,98
190,95	1320,94
191,17	1304,56
191,39	1251,31
191,61	1241,07
191,84	1308,65
192,06	1249,26
192,28	1341,42
192,50	1255,40
192,72	1322,99
192,94	1288,17
193,16	1232,88
193,38	1265,64
193,60	1275,88
193,82	1337,32
194,04	1243,12
194,26	1320,94
194,48	1228,78
194,70	1259,50
194,92	1183,73
195,14	1304,56
195,36	1310,70
195,58	1288,17
195,80	1253,36
196,02	1249,26
196,24	1206,25
196,46	1302,51
196,69	1308,65
196,91	1308,65
197,13	1279,98
197,35	1228,78
197,57	1232,88
197,79	1331,18
198,01	1310,70
198,23	1292,27
198,45	1316,84
198,67	1241,07
198,89	1298,41
199,11	1275,88
199,33	1265,64
199,55	1206,25
199,77	1282,03
199,99	1282,03
200,21	1259,50
200,43	1292,27
200,65	1249,26
200,87	1249,26
201,09	1269,74
201,31	1253,36
201,53	1296,36
201,75	1269,74
201,97	1243,12
202,19	1239,02
202,41	1306,60
202,63	1275,88
202,85	1230,83
203,07	1251,31
203,29	1304,56
203,51	1331,18
203,73	1331,18
203,95	1138,67
204,17	1241,07
204,39	1247,21
204,61	1243,12
204,83	1282,03
205,05	1277,93
205,27	1277,93
205,49	1216,49
205,71	1243,12
205,93	1245,16
206,15	1294,32
206,37	1316,84
206,59	1275,88
206,81	1337,32
207,03	1251,31
207,25	1296,36
207,47	1239,02
207,69	1333,23
207,91	1290,22
208,13	1200,11
208,34	1292,27
208,56	1310,70
208,78	1320,94
209,00	1259,50
209,22	1247,21
209,44	1263,60
209,66	1292,27
209,88	1302,51
210,10	1327,08
210,32	1193,97
210,54	1273,84
210,76	1218,54
210,98	1290,22
211,20	1306,60
211,42	1275,88
211,64	1232,88
211,86	1226,73
212,08	1259,50
212,30	1282,03
212,52	1239,02
212,74	1286,12
212,96	1185,77
213,17	1251,31
213,39	1284,08
213,61	1341,42
213,83	1179,63
214,05	1271,79
214,27	1255,40
214,49	1288,17
214,71	1271,79
214,93	1308,65
215,15	1282,03
215,37	1335,28
215,59	1202,16
215,81	1312,75
216,03	1265,64
216,24	1300,46
216,46	1239,02
216,68	1265,64
216,90	1359,85
217,12	1247,21
217,34	1249,26
217,56	1288,17
217,78	1220,59
218,00	1300,46
218,22	1234,93
218,44	1261,55
218,66	1249,26
218,87	1329,13
219,09	1353,71
219,31	1302,51
219,53	1261,55
219,75	1386,47
219,97	1304,56
220,19	1288,17
220,41	1290,22
220,63	1304,56
220,85	1265,64
221,06	1253,36
221,28	1273,84
221,50	1302,51
221,72	1255,40
221,94	1351,66
222,16	1331,18
222,38	1294,32
222,60	1286,12
222,82	1241,07
223,03	1275,88
223,25	1290,22
223,47	1353,71
223,69	1271,79
223,91	1216,49
224,13	1279,98
224,35	1255,40
224,57	1318,89
224,78	1208,30
225,00	1292,27
225,22	1230,83
225,44	1306,60
225,66	1322,99
225,88	1212,40
226,10	1241,07
226,32	1271,79
226,53	1230,83
226,75	1271,79
226,97	1296,36
227,19	1232,88
227,41	1286,12
227,63	1282,03
227,85	1284,08
228,06	1228,78
228,28	1279,98
228,50	1249,26
228,72	1214,45
228,94	1306,60
229,16	1255,40
229,37	1277,93
229,59	1249,26
229,81	1279,98
230,03	1288,17
230,25	1257,45
230,47	1296,36
230,69	1273,84
230,90	1230,83
231,12	1253,36
231,34	1210,35
231,56	1255,40
231,78	1277,93
232,00	1322,99
232,21	1239,02
232,43	1306,60
232,65	1173,49
232,87	1288,17
233,09	1239,02
233,30	1261,55
233,52	1208,30
233,74	1245,16
233,96	1304,56
234,18	1247,21
234,40	1273,84
234,61	1220,59
234,83	1265,64
235,05	1273,84
235,27	1288,17
235,49	1316,84
235,70	1267,69
235,92	1314,80
236,14	1322,99
236,36	1269,74
236,58	1271,79
236,79	1239,02
237,01	1304,56
237,23	1284,08
237,45	1267,69
237,67	1329,13
237,88	1191,92
238,10	1255,40
238,32	1234,93
238,54	1265,64
238,76	1220,59
238,97	1247,21
239,19	1302,51
239,41	1304,56
239,63	1269,74
239,85	1230,83
240,06	1253,36
240,28	1263,60
240,50	1279,98
240,72	1279,98
240,93	1202,16
241,15	1314,80
241,37	1298,41
241,59	1296,36
241,81	1292,27
242,02	1245,16
242,24	1255,40
242,46	1318,89
242,68	1290,22
242,89	1341,42
243,11	1247,21
243,33	1292,27
243,55	1308,65
243,76	1284,08
243,98	1236,97
244,20	1220,59
244,42	1241,07
244,64	1339,37
244,85	1255,40
245,07	1325,04
245,29	1288,17
245,51	1271,79
245,72	1214,45
245,94	1279,98
246,16	1214,45
246,38	1290,22
246,59	1306,60
246,81	1292,27
247,03	1277,93
247,24	1265,64
247,46	1187,82
247,68	1269,74
247,90	1187,82
248,11	1216,49
248,33	1273,84
248,55	1318,89
248,77	1294,32
248,98	1191,92
249,20	1269,74
249,42	1320,94
249,64	1290,22
249,85	1271,79
250,07	1255,40
250,29	1310,70
250,50	1286,12
250,72	1226,73
250,94	1292,27
251,16	1273,84
251,37	1247,21
251,59	1279,98
251,81	1187,82
252,02	1327,08
252,24	1253,36
252,46	1208,30
252,68	1208,30
252,89	1335,28
253,11	1267,69
253,33	1292,27
253,54	1263,60
253,76	1273,84
253,98	1228,78
254,20	1269,74
254,41	1222,64
254,63	1275,88
254,85	1212,40
255,06	1292,27
255,28	1257,45
255,50	1241,07
255,71	1325,04
255,93	1241,07
256,15	1265,64
256,36	1251,31
256,58	1290,22
256,80	1265,64
257,02	1251,31
257,23	1212,40
257,45	1282,03
257,67	1296,36
257,88	1150,96
258,10	1370,09
258,32	1253,36
258,53	1306,60
258,75	1325,04
258,97	1230,83
259,18	1263,60
259,40	1329,13
259,62	1310,70
259,83	1331,18
260,05	1273,84
260,27	1290,22
260,48	1239,02
260,70	1214,45
260,92	1198,06
261,13	1234,93
261,35	1310,70
261,57	1267,69
261,78	1212,40
262,00	1263,60
262,22	1294,32
262,43	1239,02
262,65	1335,28
262,86	1269,74
263,08	1282,03
263,30	1310,70
263,51	1239,02
263,73	1277,93
263,95	1263,60
264,16	1302,51
264,38	1273,84
264,60	1247,21
264,81	1245,16
265,03	1259,50
265,25	1304,56
265,46	1173,49
265,68	1335,28
265,89	1275,88
266,11	1273,84
266,33	1196,01
266,54	1216,49
266,76	1249,26
266,98	1259,50
267,19	1228,78
267,41	1167,34
267,62	1284,08
267,84	1263,60
268,06	1269,74
268,27	1220,59
268,49	1322,99
268,70	1306,60
268,92	1265,64
269,14	1216,49
269,35	1257,45
269,57	1306,60
269,79	1284,08
270,00	1302,51
270,22	1228,78
270,43	1228,78
270,65	1320,94
270,87	1275,88
271,08	1312,75
271,30	1277,93
271,51	1265,64
271,73	1269,74
271,95	1306,60
272,16	1302,51
272,38	1314,80
272,59	1243,12
272,81	1265,64
273,02	1314,80
273,24	1234,93
273,46	1241,07
273,67	1196,01
273,89	1294,32
274,10	1314,80
274,32	1257,45
274,54	1245,16
274,75	1345,52
274,97	1267,69
275,18	1275,88
275,40	1273,84
275,61	1331,18
275,83	1296,36
276,05	1288,17
276,26	1269,74
276,48	1275,88
276,69	1320,94
276,91	1243,12
277,12	1275,88
277,34	1226,73
277,55	1288,17
277,77	1320,94
277,99	1226,73
278,20	1302,51
278,42	1310,70
278,63	1206,25
278,85	1269,74
279,06	1318,89
279,28	1216,49
279,49	1345,52
279,71	1308,65
279,93	1345,52
280,14	1316,84
280,36	1312,75
280,57	1370,09
280,79	1255,40
281,00	1241,07
281,22	1265,64
281,43	1267,69
281,65	1314,80
281,86	1230,83
282,08	1253,36
282,29	1265,64
282,51	1249,26
282,73	1288,17
282,94	1286,12
283,16	1394,67
283,37	1302,51
283,59	1265,64
283,80	1214,45
284,02	1298,41
284,23	1265,64
284,45	1228,78
284,66	1271,79
284,88	1353,71
285,09	1273,84
285,31	1341,42
285,52	1277,93
285,74	1257,45
285,95	1271,79
286,17	1263,60
286,38	1243,12
286,60	1341,42
286,81	1259,50
287,03	1241,07
287,24	1298,41
287,46	1265,64
287,67	1226,73
287,89	1359,85
288,10	1216,49
288,32	1277,93
288,53	1327,08
288,75	1288,17
288,96	1239,02
289,18	1284,08
289,39	1279,98
289,61	1282,03
289,82	1312,75
290,04	1314,80
290,25	1169,39
290,47	1216,49
290,68	1263,60
290,90	1251,31
291,11	1208,30
291,33	1284,08
291,54	1265,64
291,76	1249,26
291,97	1269,74
292,18	1265,64
292,40	1271,79
292,61	1267,69
292,83	1277,93
293,04	1302,51
293,26	1306,60
293,47	1279,98
293,69	1318,89
293,90	1236,97
294,12	1249,26
294,33	1288,17
294,55	1292,27
294,76	1263,60
294,97	1224,69
295,19	1320,94
295,40	1228,78
295,62	1322,99
295,83	1204,21
296,05	1271,79
296,26	1312,75
296,48	1314,80
296,69	1261,55
296,90	1218,54
297,12	1245,16
297,33	1232,88
297,55	1327,08
297,76	1312,75
297,98	1275,88
298,19	1173,49
298,41	1179,63
298,62	1282,03
298,83	1236,97
299,05	1286,12
299,26	1320,94
299,48	1267,69
299,69	1304,56
299,90	1296,36
300,12	1273,84
300,33	1226,73
300,55	1279,98
300,76	1345,52
300,98	1249,26
301,19	1265,64
301,40	1216,49
301,62	1249,26
301,83	1263,60
302,05	1271,79
302,26	1284,08
302,47	1234,93
302,69	1282,03
302,90	1298,41
303,12	1265,64
303,33	1288,17
303,54	1279,98
303,76	1292,27
303,97	1255,40
304,19	1247,21
304,40	1253,36
304,61	1275,88
304,83	1286,12
305,04	1265,64
305,26	1302,51
305,47	1251,31
305,68	1400,81
305,90	1308,65
306,11	1363,95
306,33	1327,08
306,54	1312,75
306,75	1257,45
306,97	1208,30
307,18	1255,40
307,39	1310,70
307,61	1316,84
307,82	1253,36
308,04	1263,60
308,25	1282,03
308,46	1269,74
308,68	1298,41
308,89	1308,65
309,10	1351,66
309,32	1228,78
309,53	1255,40
309,74	1294,32
309,96	1226,73
310,17	1282,03
310,39	1224,69
310,60	1210,35
310,81	1273,84
311,03	1286,12
311,24	1302,51
311,45	1363,95
311,67	1304,56
311,88	1294,32
312,09	1232,88
312,31	1200,11
312,52	1284,08
312,73	1312,75
312,95	1263,60
313,16	1282,03
313,37	1196,01
313,59	1191,92
313,80	1249,26
314,01	1306,60
314,23	1304,56
314,44	1263,60
314,65	1300,46
314,87	1249,26
315,08	1261,55
315,29	1226,73
315,51	1306,60
315,72	1249,26
315,93	1380,33
316,15	1206,25
316,36	1273,84
316,57	1241,07
316,79	1241,07
317,00	1232,88
317,21	1234,93
317,43	1245,16
317,64	1286,12
317,85	1224,69
318,07	1251,31
318,28	1210,35
318,49	1300,46
318,70	1193,97
318,92	1282,03
319,13	1292,27
319,34	1247,21
319,56	1249,26
319,77	1247,21
319,98	1241,07
320,20	1290,22
320,41	1308,65
320,62	1298,41
320,83	1325,04
321,05	1316,84
321,26	1255,40
321,47	1316,84
321,69	1251,31
321,90	1241,07
322,11	1273,84
322,32	1191,92
322,54	1327,08
322,75	1298,41
322,96	1298,41
323,18	1232,88
323,39	1271,79
323,60	1214,45
323,81	1200,11
324,03	1183,73
324,24	1304,56
324,45	1214,45
324,66	1259,50
324,88	1249,26
325,09	1263,60
325,30	1259,50
325,52	1341,42
325,73	1292,27
325,94	1236,97
326,15	1269,74
326,37	1220,59
326,58	1296,36
326,79	1212,40
327,00	1296,36
327,22	1282,03
327,43	1269,74
327,64	1257,45
327,85	1292,27
328,07	1216,49
328,28	1320,94
328,49	1226,73
328,70	1259,50
328,92	1179,63
329,13	1300,46
329,34	1224,69
329,55	1284,08
329,76	1222,64
329,98	1343,47
330,19	1290,22
330,40	1277,93
330,61	1337,32
330,83	1273,84
331,04	1308,65
331,25	1275,88
331,46	1206,25
331,68	1212,40
331,89	1284,08
332,10	1243,12
332,31	1314,80
332,52	1241,07
332,74	1286,12
332,95	1206,25
333,16	1175,53
333,37	1245,16
333,58	1273,84
333,80	1271,79
334,01	1183,73
334,22	1239,02
334,43	1300,46
334,64	1267,69
334,86	1306,60
335,07	1271,79
335,28	1282,03
335,49	1314,80
335,70	1247,21
335,92	1259,50
336,13	1298,41
336,34	1273,84
336,55	1269,74
336,76	1290,22
336,98	1320,94
337,19	1273,84
337,40	1251,31
337,61	1284,08
337,82	1251,31
338,04	1286,12
338,25	1193,97
338,46	1279,98
338,67	1245,16
338,88	1302,51
339,09	1284,08
339,31	1241,07
339,52	1232,88
339,73	1257,45
339,94	1249,26
340,15	1265,64
340,36	1183,73
340,58	1234,93
340,79	1286,12
341,00	1243,12
341,21	1279,98
341,42	1257,45
341,63	1292,27
341,85	1300,46
342,06	1275,88
342,27	1282,03
342,48	1230,83
342,69	1320,94
342,90	1249,26
343,12	1277,93
343,33	1224,69
343,54	1239,02
343,75	1298,41
343,96	1294,32
344,17	1269,74
344,38	1294,32
344,60	1239,02
344,81	1333,23
345,02	1181,68
345,23	1239,02
345,44	1304,56
345,65	1222,64
345,86	1236,97
346,07	1277,93
346,29	1243,12
346,50	1249,26
346,71	1230,83
346,92	1249,26
347,13	1261,55
347,34	1296,36
347,55	1269,74
347,76	1261,55
347,98	1277,93
348,19	1267,69
348,40	1347,56
348,61	1302,51
348,82	1288,17
349,03	1269,74
349,24	1343,47
349,45	1273,84
349,66	1304,56
349,88	1255,40
350,09	1255,40
350,30	1241,07
350,51	1306,60
350,72	1198,06
350,93	1286,12
351,14	1226,73
351,35	1279,98
351,56	1245,16
351,77	1349,61
351,99	1232,88
352,20	1253,36
352,41	1271,79
352,62	1306,60
352,83	1228,78
353,04	1314,80
353,25	1296,36
353,46	1349,61
353,67	1247,21
353,88	1275,88
354,09	1302,51
354,30	1208,30
354,52	1273,84
354,73	1302,51
354,94	1310,70
355,15	1284,08
355,36	1253,36
355,57	1310,70
355,78	1224,69
355,99	1206,25
356,20	1294,32
356,41	1239,02
356,62	1294,32
356,83	1327,08
357,04	1224,69
357,25	1314,80
357,46	1193,97
357,68	1275,88
357,89	1167,34
358,10	1329,13
358,31	1228,78
358,52	1259,50
358,73	1279,98
358,94	1282,03
359,15	1269,74
359,36	1329,13
359,57	1214,45
359,78	1312,75
359,99	1236,97
360,20	1251,31
360,41	1333,23
360,62	1243,12
360,83	1265,64
361,04	1230,83
361,25	1325,04
361,46	1306,60
361,67	1292,27
361,88	1318,89
362,09	1230,83
362,30	1282,03
362,51	1253,36
362,72	1343,47
362,93	1265,64
363,14	1273,84
363,35	1322,99
363,56	1257,45
363,78	1165,29
363,99	1298,41
364,20	1247,21
364,41	1341,42
364,62	1292,27
364,83	1304,56
365,04	1222,64
365,25	1314,80
365,46	1298,41
365,67	1304,56
365,88	1261,55
366,09	1296,36
366,30	1214,45
366,51	1282,03
366,72	1279,98
366,93	1357,80
367,14	1267,69
367,35	1206,25
367,56	1279,98
367,77	1316,84
367,98	1251,31
368,18	1306,60
368,39	1220,59
368,60	1224,69
368,81	1232,88
369,02	1220,59
369,23	1302,51
369,44	1298,41
369,65	1282,03
369,86	1259,50
370,07	1263,60
370,28	1218,54
370,49	1265,64
370,70	1232,88
370,91	1255,40
371,12	1318,89
371,33	1290,22
371,54	1230,83
371,75	1204,21
371,96	1181,68
372,17	1294,32
372,38	1277,93
372,59	1271,79
372,80	1273,84
373,01	1308,65
373,22	1273,84
373,43	1277,93
373,64	1357,80
373,85	1243,12
374,06	1271,79
374,26	1220,59
374,47	1308,65
374,68	1247,21
374,89	1304,56
375,10	1241,07
375,31	1306,60
375,52	1302,51
375,73	1187,82
375,94	1282,03
376,15	1314,80
376,36	1259,50
376,57	1304,56
376,78	1261,55
376,99	1234,93
377,20	1212,40
377,40	1206,25
377,61	1302,51
377,82	1271,79
378,03	1298,41
378,24	1239,02
378,45	1204,21
378,66	1265,64
378,87	1296,36
379,08	1316,84
379,29	1220,59
379,50	1222,64
379,71	1216,49
379,91	1218,54
380,12	1236,97
380,33	1357,80
380,54	1292,27
380,75	1286,12
380,96	1247,21
381,17	1253,36
381,38	1267,69
381,59	1337,32
381,80	1263,60
382,00	1298,41
382,21	1325,04
382,42	1312,75
382,63	1284,08
382,84	1251,31
383,05	1230,83
383,26	1259,50
383,47	1329,13
383,68	1265,64
383,88	1261,55
384,09	1296,36
384,30	1269,74
384,51	1275,88
384,72	1191,92
384,93	1329,13
385,14	1275,88
385,35	1269,74
385,55	1247,21
385,76	1247,21
385,97	1347,56
386,18	1222,64
386,39	1249,26
386,60	1314,80
386,81	1216,49
387,02	1298,41
387,22	1275,88
387,43	1329,13
387,64	1193,97
387,85	1230,83
388,06	1263,60
388,27	1263,60
388,48	1290,22
388,68	1282,03
388,89	1273,84
389,10	1290,22
389,31	1245,16
389,52	1312,75
389,73	1216,49
389,93	1325,04
390,14	1322,99
390,35	1302,51
390,56	1296,36
390,77	1251,31
390,98	1277,93
391,18	1214,45
391,39	1261,55
391,60	1263,60
391,81	1255,40
392,02	1226,73
392,23	1269,74
392,43	1308,65
392,64	1349,61
392,85	1267,69
393,06	1265,64
393,27	1333,23
393,47	1316,84
393,68	1308,65
393,89	1181,68
394,10	1249,26
394,31	1157,10
394,52	1347,56
394,72	1265,64
394,93	1208,30
395,14	1275,88
395,35	1345,52
395,56	1255,40
395,76	1312,75
395,97	1310,70
396,18	1267,69
396,39	1255,40
396,60	1241,07
396,80	1308,65
397,01	1277,93
397,22	1200,11
397,43	1269,74
397,64	1292,27
397,84	1245,16
398,05	1292,27
398,26	1265,64
398,47	1224,69
398,67	1277,93
398,88	1228,78
399,09	1273,84
399,30	1296,36
399,51	1277,93
399,71	1279,98
399,92	1259,50
400,13	1234,93
400,34	1218,54
400,54	1249,26
400,75	1200,11
400,96	1349,61
401,17	1267,69
401,37	1261,55
401,58	1286,12
401,79	1269,74
402,00	1312,75
402,21	1214,45
402,41	1257,45
402,62	1226,73
402,83	1294,32
403,04	1251,31
403,24	1294,32
403,45	1255,40
403,66	1286,12
403,87	1275,88
404,07	1376,24
404,28	1232,88
404,49	1327,08
404,70	1314,80
404,90	1185,77
405,11	1290,22
405,32	1298,41
405,52	1232,88
405,73	1232,88
405,94	1325,04
406,15	1277,93
406,35	1312,75
406,56	1312,75
406,77	1239,02
406,98	1300,46
407,18	1294,32
407,39	1290,22
407,60	1351,66
407,80	1286,12
408,01	1282,03
408,22	1204,21
408,43	1271,79
408,63	1331,18
408,84	1261,55
409,05	1220,59
409,25	1306,60
409,46	1269,74
409,67	1265,64
409,88	1265,64
410,08	1351,66
410,29	1355,76
410,50	1232,88
410,70	1279,98
410,91	1239,02
411,12	1316,84
411,32	1232,88
411,53	1249,26
411,74	1261,55
411,95	1212,40
412,15	1257,45
412,36	1294,32
412,57	1243,12
412,77	1345,52
412,98	1275,88
413,19	1282,03
413,39	1308,65
413,60	1286,12
413,81	1273,84
414,01	1249,26
414,22	1228,78
414,43	1292,27
414,63	1277,93
414,84	1339,37
415,05	1298,41
415,25	1275,88
415,46	1245,16
415,67	1318,89
415,87	1325,04
416,08	1284,08
416,29	1193,97
416,49	1255,40
416,70	1218,54
416,91	1196,01
417,11	1273,84
417,32	1222,64
417,53	1222,64
417,73	1265,64
417,94	1269,74
418,15	1314,80
418,35	1245,16
418,56	1302,51
418,77	1224,69
418,97	1282,03
419,18	1247,21
419,38	1251,31
419,59	1214,45
419,80	1257,45
420,00	1234,93
420,21	1257,45
420,42	1327,08
420,62	1314,80
420,83	1255,40
421,04	1302,51
421,24	1261,55
421,45	1239,02
421,65	1302,51
421,86	1312,75
422,07	1284,08
422,27	1331,18
422,48	1206,25
422,69	1204,21
422,89	1316,84
423,10	1279,98
423,30	1214,45
423,51	1243,12
423,72	1275,88
423,92	1290,22
424,13	1222,64
424,33	1263,60
424,54	1322,99
424,75	1243,12
424,95	1191,92
425,16	1228,78
425,36	1255,40
425,57	1273,84
425,78	1277,93
425,98	1253,36
426,19	1267,69
426,39	1234,93
426,60	1279,98
426,81	1271,79
427,01	1314,80
427,22	1263,60
427,42	1275,88
427,63	1298,41
427,83	1249,26
428,04	1335,28
428,25	1296,36
428,45	1247,21
428,66	1216,49
428,86	1290,22
429,07	1239,02
429,28	1234,93
429,48	1304,56
429,69	1236,97
429,89	1339,37
430,10	1292,27
430,30	1261,55
430,51	1314,80
430,71	1306,60
430,92	1284,08
431,13	1247,21
431,33	1308,65
431,54	1234,93
431,74	1327,08
431,95	1232,88
432,15	1257,45
432,36	1148,91
432,56	1302,51
432,77	1253,36
432,98	1320,94
433,18	1331,18
433,39	1263,60
433,59	1271,79
433,80	1251,31
434,00	1347,56
434,21	1214,45
434,41	1290,22
434,62	1228,78
434,82	1247,21
435,03	1275,88
435,23	1290,22
435,44	1296,36
435,64	1236,97
435,85	1363,95
436,06	1290,22
436,26	1284,08
436,47	1282,03
436,67	1282,03
436,88	1226,73
437,08	1269,74
437,29	1290,22
437,49	1273,84
437,70	1261,55
437,90	1292,27
438,11	1239,02
438,31	1259,50
438,52	1220,59
438,72	1261,55
438,93	1267,69
439,13	1261,55
439,34	1316,84
439,54	1257,45
439,75	1267,69
439,95	1255,40
440,16	1241,07
440,36	1290,22
440,57	1286,12
440,77	1271,79
440,98	1261,55
441,18	1349,61
441,39	1204,21
441,59	1241,07
441,80	1234,93
442,00	1214,45
442,21	1296,36
442,41	1228,78
442,62	1331,18
442,82	1267,69
443,02	1288,17
443,23	1216,49
443,43	1257,45
443,64	1294,32
443,84	1284,08
444,05	1286,12
444,25	1175,53
444,46	1286,12
444,66	1202,16
444,87	1327,08
445,07	1263,60
445,28	1306,60
445,48	1175,53
445,69	1257,45
445,89	1374,19
446,09	1284,08
446,30	1234,93
446,50	1193,97
446,71	1331,18
446,91	1257,45
447,12	1234,93
447,32	1327,08
447,53	1288,17
447,73	1304,56
447,93	1249,26
448,14	1247,21
448,34	1351,66
448,55	1277,93
448,75	1257,45
448,96	1284,08
449,16	1263,60
449,36	1265,64
449,57	1415,15
449,77	1300,46
449,98	1357,80
450,18	1259,50
450,39	1273,84
450,59	1269,74
450,79	1259,50
451,00	1255,40
451,20	1234,93
451,41	1277,93
451,61	1220,59
451,81	1335,28
452,02	1286,12
452,22	1288,17
452,43	1318,89
452,63	1282,03
452,84	1224,69
453,04	1239,02
453,24	1261,55
453,45	1239,02
453,65	1271,79
453,86	1243,12
454,06	1310,70
454,26	1294,32
454,47	1245,16
454,67	1331,18
454,87	1261,55
455,08	1265,64
455,28	1341,42
455,49	1271,79
455,69	1316,84
455,89	1241,07
456,10	1284,08
456,30	1253,36
456,51	1284,08
456,71	1247,21
456,91	1265,64
457,12	1318,89
457,32	1265,64
457,52	1331,18
457,73	1306,60
457,93	1304,56
458,14	1259,50
458,34	1232,88
458,54	1251,31
458,75	1234,93
458,95	1282,03
459,15	1171,44
459,36	1253,36
459,56	1322,99
459,76	1298,41
459,97	1361,90
460,17	1265,64
460,37	1318,89
460,58	1236,97
460,78	1322,99
460,99	1239,02
461,19	1312,75
461,39	1308,65
461,60	1279,98
461,80	1257,45
462,00	1296,36
462,21	1298,41
462,41	1228,78
462,61	1208,30
462,82	1294,32
463,02	1265,64
463,22	1228,78
463,43	1249,26
463,63	1218,54
463,83	1282,03
464,04	1206,25
464,24	1286,12
464,44	1241,07
464,64	1277,93
464,85	1329,13
465,05	1187,82
465,25	1253,36
465,46	1290,22
465,66	1234,93
465,86	1247,21
466,07	1304,56
466,27	1273,84
466,47	1308,65
466,68	1290,22
466,88	1288,17
467,08	1206,25
467,29	1363,95
467,49	1245,16
467,69	1271,79
467,89	1259,50
468,10	1337,32
468,30	1308,65
468,50	1322,99
468,71	1239,02
468,91	1288,17
469,11	1294,32
469,31	1286,12
469,52	1243,12
469,72	1257,45
469,92	1216,49
470,13	1282,03
470,33	1271,79
470,53	1288,17
470,73	1232,88
470,94	1265,64
471,14	1318,89
471,34	1271,79
471,54	1271,79
471,75	1210,35
471,95	1304,56
472,15	1288,17
472,36	1243,12
472,56	1251,31
472,76	1288,17
472,96	1216,49
473,17	1271,79
473,37	1372,14
473,57	1261,55
473,77	1253,36
473,98	1230,83
474,18	1304,56
474,38	1253,36
474,58	1230,83
474,79	1329,13
474,99	1255,40
475,19	1218,54
475,39	1234,93
475,60	1277,93
475,80	1300,46
476,00	1271,79
476,20	1267,69
476,41	1273,84
476,61	1220,59
476,81	1255,40
477,01	1277,93
477,21	1333,23
477,42	1322,99
477,62	1230,83
477,82	1277,93
478,02	1232,88
478,23	1232,88
478,43	1294,32
478,63	1314,80
478,83	1298,41
479,03	1222,64
479,24	1308,65
479,44	1357,80
479,64	1247,21
479,84	1294,32
480,04	1296,36
480,25	1142,77
480,45	1277,93
480,65	1265,64
480,85	1247,21
481,06	1253,36
481,26	1304,56
481,46	1245,16
481,66	1230,83
481,86	1284,08
482,06	1234,93
482,27	1265,64
482,47	1255,40
482,67	1318,89
482,87	1232,88
483,07	1314,80
483,28	1255,40
483,48	1249,26
483,68	1294,32
483,88	1232,88
484,08	1218,54
484,29	1247,21
484,49	1259,50
484,69	1247,21
484,89	1247,21
485,09	1271,79
485,29	1277,93
485,50	1300,46
485,70	1294,32
485,90	1257,45
486,10	1302,51
486,30	1247,21
486,50	1269,74
486,71	1241,07
486,91	1236,97
487,11	1271,79
487,31	1271,79
487,51	1222,64
487,71	1226,73
487,91	1282,03
488,12	1279,98
488,32	1310,70
488,52	1294,32
488,72	1216,49
488,92	1329,13
489,12	1269,74
489,32	1208,30
489,53	1241,07
489,73	1253,36
489,93	1298,41
490,13	1359,85
490,33	1259,50
490,53	1306,60
490,73	1218,54
490,94	1206,25
491,14	1304,56
491,34	1228,78
491,54	1271,79
491,74	1282,03
491,94	1271,79
492,14	1232,88
492,34	1279,98
492,54	1245,16
492,75	1204,21
492,95	1265,64
493,15	1230,83
493,35	1247,21
493,55	1292,27
493,75	1222,64
493,95	1279,98
494,15	1298,41
494,35	1261,55
494,56	1329,13
494,76	1314,80
494,96	1198,06
495,16	1277,93
495,36	1286,12
495,56	1355,76
495,76	1302,51
495,96	1247,21
496,16	1243,12
496,36	1249,26
496,56	1257,45
496,77	1183,73
496,97	1304,56
497,17	1275,88
497,37	1259,50
497,57	1230,83
497,77	1310,70
497,97	1234,93
498,17	1310,70
498,37	1230,83
498,57	1294,32
498,77	1263,60
498,97	1331,18
499,17	1259,50
499,38	1298,41
499,58	1284,08
499,78	1314,80
499,98	1255,40
500,18	1257,45
500,38	1314,80
500,58	1286,12
500,78	1241,07
500,98	1288,17
501,18	1181,68
501,38	1243,12
501,58	1298,41
501,78	1214,45
501,98	1241,07
502,18	1241,07
502,38	1267,69
502,58	1218,54
502,78	1271,79
502,98	1214,45
503,18	1294,32
503,38	1239,02
503,59	1277,93
503,79	1218,54
503,99	1232,88
504,19	1310,70
504,39	1200,11
504,59	1241,07
504,79	1331,18
504,99	1249,26
505,19	1296,36
505,39	1236,97
505,59	1257,45
505,79	1275,88
505,99	1239,02
506,19	1341,42
506,39	1273,84
506,59	1314,80
506,79	1304,56
506,99	1204,21
507,19	1257,45
507,39	1241,07
507,59	1273,84
507,79	1210,35
507,99	1267,69
508,19	1308,65
508,39	1273,84
508,59	1224,69
508,79	1279,98
508,99	1249,26
509,19	1181,68
509,39	1247,21
509,59	1282,03
509,79	1284,08
509,99	1284,08
510,19	1247,21
510,39	1349,61
510,59	1322,99
510,79	1200,11
510,99	1236,97
511,19	1277,93
511,39	1312,75
511,59	1255,40
511,79	1214,45
511,99	1261,55
512,19	1267,69
512,38	1290,22
512,58	1318,89
512,78	1316,84
512,98	1277,93
513,18	1327,08
513,38	1241,07
513,58	1263,60
513,78	1247,21
513,98	1253,36
514,18	1282,03
514,38	1259,50
514,58	1239,02
514,78	1335,28
514,98	1271,79
515,18	1241,07
515,38	1290,22
515,58	1249,26
515,78	1263,60
515,98	1320,94
516,18	1310,70
516,38	1310,70
516,57	1261,55
516,77	1198,06
516,97	1306,60
517,17	1294,32
517,37	1294,32
517,57	1290,22
517,77	1206,25
517,97	1282,03
518,17	1263,60
518,37	1310,70
518,57	1212,40
518,77	1239,02
518,97	1249,26
519,16	1241,07
519,36	1255,40
519,56	1329,13
519,76	1230,83
519,96	1296,36
520,16	1282,03
520,36	1261,55
520,56	1228,78
520,76	1259,50
520,96	1267,69
521,16	1298,41
521,35	1249,26
521,55	1290,22
521,75	1181,68
521,95	1279,98
522,15	1267,69
522,35	1253,36
522,55	1253,36
522,75	1259,50
522,95	1247,21
523,14	1288,17
523,34	1196,01
523,54	1271,79
523,74	1255,40
523,94	1304,56
524,14	1224,69
524,34	1204,21
524,54	1263,60
524,73	1245,16
524,93	1173,49
525,13	1267,69
525,33	1269,74
525,53	1351,66
525,73	1253,36
525,93	1275,88
526,13	1208,30
526,32	1277,93
526,52	1259,50
526,72	1296,36
526,92	1333,23
527,12	1245,16
527,32	1230,83
527,52	1239,02
527,71	1230,83
527,91	1355,76
528,11	1249,26
528,31	1318,89
528,51	1255,40
528,71	1361,90
528,90	1239,02
529,10	1234,93
529,30	1327,08
529,50	1292,27
529,70	1310,70
529,90	1296,36
530,09	1224,69
530,29	1212,40
530,49	1257,45
530,69	1275,88
530,89	1300,46
531,09	1302,51
531,28	1322,99
531,48	1296,36
531,68	1306,60
531,88	1241,07
532,08	1304,56
532,28	1189,87
532,47	1286,12
532,67	1275,88
532,87	1257,45
533,07	1265,64
533,27	1292,27
533,46	1306,60
533,66	1216,49
533,86	1275,88
534,06	1294,32
534,26	1337,32
534,45	1290,22
534,65	1243,12
534,85	1312,75
535,05	1331,18
535,25	1234,93
535,44	1339,37
535,64	1310,70
535,84	1290,22
536,04	1245,16
536,24	1277,93
536,43	1253,36
536,63	1333,23
536,83	1312,75
537,03	1273,84
537,22	1355,76
537,42	1251,31
537,62	1206,25
537,82	1208,30
538,02	1208,30
538,21	1253,36
538,41	1196,01
538,61	1265,64
538,81	1224,69
539,00	1265,64
539,20	1275,88
539,40	1298,41
539,60	1249,26
539,79	1282,03
539,99	1284,08
540,19	1208,30
540,39	1322,99
540,58	1224,69
540,78	1292,27
540,98	1261,55
541,18	1294,32
541,37	1284,08
541,57	1275,88
541,77	1286,12
541,97	1175,53
542,16	1290,22
542,36	1269,74
542,56	1316,84
542,76	1298,41
542,95	1251,31
543,15	1290,22
543,35	1218,54
543,54	1224,69
543,74	1302,51
543,94	1294,32
544,14	1265,64
544,33	1337,32
544,53	1339,37
544,73	1290,22
544,93	1269,74
545,12	1302,51
545,32	1271,79
545,52	1404,91
545,71	1263,60
545,91	1284,08
546,11	1263,60
546,30	1216,49
546,50	1331,18
546,70	1273,84
546,90	1255,40
547,09	1325,04
547,29	1273,84
547,49	1239,02
547,68	1282,03
547,88	1279,98
548,08	1271,79
548,27	1329,13
548,47	1255,40
548,67	1255,40
548,87	1267,69
549,06	1282,03
549,26	1267,69
549,46	1296,36
549,65	1257,45
549,85	1220,59
550,05	1306,60
550,24	1308,65
550,44	1224,69
550,64	1232,88
550,83	1214,45
551,03	1318,89
551,23	1282,03
551,42	1284,08
551,62	1349,61
551,82	1200,11
552,01	1316,84
552,21	1282,03
552,41	1234,93
552,60	1308,65
552,80	1269,74
553,00	1284,08
553,19	1331,18
553,39	1224,69
553,59	1214,45
553,78	1300,46
553,98	1353,71
554,17	1239,02
554,37	1308,65
554,57	1277,93
554,76	1306,60
554,96	1290,22
555,16	1282,03
555,35	1310,70
555,55	1351,66
555,75	1208,30
555,94	1259,50
556,14	1222,64
556,33	1294,32
556,53	1288,17
556,73	1316,84
556,92	1300,46
557,12	1339,37
557,32	1308,65
557,51	1273,84
557,71	1353,71
557,90	1249,26
558,10	1234,93
558,30	1247,21
558,49	1304,56
558,69	1331,18
558,88	1325,04
559,08	1288,17
559,28	1247,21
559,47	1279,98
559,67	1263,60
559,86	1296,36
560,06	1294,32
560,26	1275,88
560,45	1263,60
560,65	1263,60
560,84	1273,84
561,04	1261,55
561,24	1261,55
561,43	1243,12
561,63	1273,84
561,82	1232,88
562,02	1261,55
562,22	1306,60
562,41	1253,36
562,61	1275,88
562,80	1304,56
563,00	1325,04
563,19	1318,89
563,39	1269,74
563,59	1193,97
563,78	1329,13
563,98	1277,93
564,17	1255,40
564,37	1322,99
564,56	1230,83
564,76	1314,80
564,96	1273,84
565,15	1310,70
565,35	1298,41
565,54	1308,65
565,74	1236,97
565,93	1204,21
566,13	1230,83
566,32	1284,08
566,52	1284,08
566,71	1241,07
566,91	1292,27
567,11	1249,26
567,30	1302,51
567,50	1222,64
567,69	1265,64
567,89	1306,60
568,08	1247,21
568,28	1351,66
568,47	1290,22
568,67	1292,27
568,86	1271,79
569,06	1263,60
569,25	1218,54
569,45	1282,03
569,64	1222,64
569,84	1275,88
570,04	1261,55
570,23	1243,12
570,43	1253,36
570,62	1306,60
570,82	1282,03
571,01	1284,08
571,21	1222,64
571,40	1279,98
571,60	1308,65
571,79	1302,51
571,99	1243,12
572,18	1226,73
572,38	1275,88
572,57	1271,79
572,77	1314,80
572,96	1300,46
573,16	1304,56
573,35	1282,03
573,55	1222,64
573,74	1286,12
573,94	1271,79
574,13	1243,12
574,33	1224,69
574,52	1230,83
574,71	1282,03
574,91	1353,71
575,10	1300,46
575,30	1363,95
575,49	1247,21
575,69	1243,12
575,88	1298,41
576,08	1251,31
576,27	1390,57
576,47	1290,22
576,66	1230,83
576,86	1271,79
577,05	1329,13
577,25	1282,03
577,44	1284,08
577,64	1218,54
577,83	1302,51
578,02	1298,41
578,22	1288,17
578,41	1267,69
578,61	1255,40
578,80	1290,22
579,00	1253,36
579,19	1277,93
579,39	1210,35
579,58	1251,31
579,77	1232,88
579,97	1284,08
580,16	1222,64
580,36	1269,74
580,55	1290,22
580,75	1226,73
580,94	1310,70
581,13	1339,37
581,33	1230,83
581,52	1202,16
581,72	1333,23
581,91	1329,13
582,11	1228,78
582,30	1282,03
582,49	1284,08
582,69	1253,36
582,88	1261,55
583,08	1288,17
583,27	1271,79
583,47	1294,32
583,66	1200,11
583,85	1210,35
584,05	1245,16
584,24	1202,16
584,44	1247,21
584,63	1306,60
584,82	1251,31
585,02	1355,76
585,21	1269,74
585,41	1255,40
585,60	1306,60
585,79	1277,93
585,99	1279,98
586,18	1306,60
586,37	1292,27
586,57	1214,45
586,76	1202,16
586,96	1296,36
587,15	1294,32
587,34	1236,97
587,54	1294,32
587,73	1286,12
587,93	1304,56
588,12	1255,40
588,31	1218,54
588,51	1269,74
588,70	1259,50
588,89	1312,75
589,09	1257,45
589,28	1318,89
589,47	1275,88
589,67	1271,79
589,86	1259,50
590,06	1275,88
590,25	1257,45
590,44	1259,50
590,64	1312,75
590,83	1224,69
591,02	1306,60
591,22	1228,78
591,41	1298,41
591,60	1265,64
591,80	1232,88
591,99	1177,58
592,18	1288,17
592,38	1191,92
592,57	1320,94
592,76	1347,56
592,96	1290,22
593,15	1290,22
593,34	1267,69
593,54	1263,60
593,73	1259,50
593,92	1230,83
594,12	1271,79
594,31	1255,40
594,50	1257,45
594,70	1267,69
594,89	1251,31
595,08	1257,45
595,28	1345,52
595,47	1255,40
595,66	1273,84
595,86	1339,37
596,05	1251,31
596,24	1277,93
596,43	1273,84
596,63	1273,84
596,82	1298,41
597,01	1271,79
597,21	1322,99
597,40	1234,93
597,59	1282,03
597,79	1212,40
597,98	1257,45
598,17	1290,22
598,36	1208,30
598,56	1282,03
598,75	1261,55
598,94	1245,16
599,14	1310,70
599,33	1249,26
599,52	1335,28
599,71	1310,70
599,91	1308,65
600,10	1241,07
600,29	1304,56
600,48	1302,51
600,68	1179,63
600,87	1304,56
601,06	1245,16
601,26	1349,61
601,45	1257,45
601,64	1265,64
601,83	1255,40
602,03	1298,41
602,22	1267,69
602,41	1204,21
602,60	1249,26
602,80	1277,93
602,99	1296,36
603,18	1279,98
603,37	1292,27
603,57	1259,50
603,76	1200,11
603,95	1277,93
604,14	1286,12
604,34	1302,51
604,53	1277,93
604,72	1226,73
604,91	1218,54
605,10	1277,93
605,30	1263,60
605,49	1275,88
605,68	1271,79
605,87	1286,12
606,07	1247,21
606,26	1286,12
606,45	1249,26
606,64	1241,07
606,84	1306,60
607,03	1261,55
607,22	1261,55
607,41	1333,23
607,60	1284,08
607,80	1222,64
607,99	1259,50
608,18	1265,64
608,37	1325,04
608,56	1261,55
608,76	1279,98
608,95	1251,31
609,14	1292,27
609,33	1290,22
609,52	1224,69
609,72	1322,99
609,91	1308,65
610,10	1232,88
610,29	1271,79
610,48	1320,94
610,68	1296,36
610,87	1294,32
611,06	1204,21
611,25	1243,12
611,44	1249,26
611,63	1310,70
611,83	1282,03
612,02	1234,93
612,21	1320,94
612,40	1320,94
612,59	1380,33
612,79	1236,97
612,98	1316,84
613,17	1308,65
613,36	1320,94
613,55	1353,71
613,74	1196,01
613,93	1216,49
614,13	1222,64
614,32	1312,75
614,51	1300,46
614,70	1249,26
614,89	1232,88
615,08	1288,17
615,28	1351,66
615,47	1308,65
615,66	1224,69
615,85	1230,83
616,04	1310,70
616,23	1257,45
616,42	1312,75
616,62	1232,88
616,81	1236,97
617,00	1265,64
617,19	1298,41
617,38	1241,07
617,57	1302,51
617,76	1306,60
617,95	1253,36
618,15	1290,22
618,34	1224,69
618,53	1222,64
618,72	1265,64
618,91	1255,40
619,10	1314,80
619,29	1329,13
619,48	1312,75
619,68	1275,88
619,87	1320,94
620,06	1239,02
620,25	1275,88
620,44	1224,69
620,63	1247,21
620,82	1236,97
621,01	1232,88
621,20	1304,56
621,39	1312,75
621,59	1257,45
621,78	1259,50
621,97	1249,26
622,16	1257,45
622,35	1263,60
622,54	1263,60
622,73	1232,88
622,92	1255,40
623,11	1241,07
623,30	1253,36
623,49	1314,80
623,68	1249,26
623,88	1308,65
624,07	1325,04
624,26	1312,75
624,45	1267,69
624,64	1363,95
624,83	1259,50
625,02	1247,21
625,21	1288,17
625,40	1282,03
625,59	1296,36
625,78	1304,56
625,97	1245,16
626,16	1300,46
626,35	1228,78
626,54	1286,12
626,74	1306,60
626,93	1220,59
627,12	1284,08
627,31	1273,84
627,50	1288,17
627,69	1294,32
627,88	1290,22
628,07	1290,22
628,26	1325,04
628,45	1331,18
628,64	1279,98
628,83	1296,36
629,02	1286,12
629,21	1267,69
629,40	1279,98
629,59	1331,18
629,78	1245,16
629,97	1249,26
630,16	1310,70
630,35	1218,54
630,54	1277,93
630,73	1288,17
630,92	1316,84
631,11	1325,04
631,30	1320,94
631,49	1411,05
631,68	1456,11
631,87	1449,96
632,06	1904,61
632,25	1525,74
632,44	1720,29
632,63	1949,67
632,82	2396,12
633,01	3086,29
633,20	3383,24
633,39	3268,56
633,58	2383,84
633,77	2183,13
633,96	2973,65
634,15	3985,35
634,34	4073,41
634,53	3440,59
634,72	2650,07
634,91	1994,72
635,10	1783,78
635,29	1628,14
635,48	1613,80
635,67	1576,94
635,86	1495,02
636,05	1382,38
636,24	1398,76
636,43	1368,04
636,62	1394,67
636,81	1363,95
637,00	1292,27
637,19	1372,14
637,38	1368,04
637,57	1341,42
637,76	1357,80
637,95	1331,18
638,14	1230,83
638,33	1277,93
638,52	1292,27
638,71	1320,94
638,89	1304,56
639,08	1316,84
639,27	1263,60
639,46	1271,79
639,65	1222,64
639,84	1353,71
640,03	1282,03
640,22	1255,40
640,41	1247,21
640,60	1298,41
640,79	1265,64
640,98	1294,32
641,17	1279,98
641,36	1310,70
641,55	1329,13
641,74	1234,93
641,92	1298,41
642,11	1241,07
642,30	1304,56
642,49	1239,02
642,68	1325,04
642,87	1316,84
643,06	1245,16
643,25	1269,74
643,44	1273,84
643,63	1163,25
643,82	1245,16
644,00	1269,74
644,19	1206,25
644,38	1218,54
644,57	1304,56
644,76	1282,03
644,95	1234,93
645,14	1251,31
645,33	1251,31
645,52	1292,27
645,71	1253,36
645,89	1308,65
646,08	1239,02
646,27	1267,69
646,46	1271,79
646,65	1308,65
646,84	1247,21
647,03	1282,03
647,22	1347,56
647,40	1224,69
647,59	1290,22
647,78	1247,21
647,97	1284,08
648,16	1306,60
648,35	1296,36
648,54	1316,84
648,73	1314,80
648,91	1298,41
649,10	1275,88
649,29	1298,41
649,48	1322,99
649,67	1316,84
649,86	1277,93
650,05	1271,79
650,23	1239,02
650,42	1204,21
650,61	1251,31
650,80	1212,40
650,99	1193,97
651,18	1255,40
651,36	1263,60
651,55	1257,45
651,74	1269,74
651,93	1228,78
652,12	1302,51
652,31	1341,42
652,49	1216,49
652,68	1261,55
652,87	1298,41
653,06	1325,04
653,25	1263,60
653,44	1230,83
653,62	1329,13
653,81	1243,12
654,00	1208,30
654,19	1292,27
654,38	1265,64
654,56	1304,56
654,75	1279,98
654,94	1284,08
655,13	1288,17
655,32	1288,17
655,51	1288,17
655,69	1241,07
655,88	1302,51
656,07	1259,50
656,26	1296,36
656,45	1259,50
656,63	1355,76
656,82	1263,60
657,01	1273,84
657,20	1177,58
657,38	1259,50
657,57	1257,45
657,76	1253,36
657,95	1220,59
658,14	1298,41
658,32	1284,08
658,51	1269,74
658,70	1314,80
658,89	1277,93
659,08	1142,77
659,26	1388,52
659,45	1255,40
659,64	1345,52
659,83	1267,69
660,01	1241,07
660,20	1200,11
660,39	1275,88
660,58	1265,64
660,76	1331,18
660,95	1214,45
661,14	1277,93
661,33	1253,36
661,51	1206,25
661,70	1290,22
661,89	1253,36
662,08	1228,78
662,26	1253,36
662,45	1241,07
662,64	1282,03
662,83	1261,55
663,01	1241,07
663,20	1279,98
663,39	1228,78
663,58	1224,69
663,76	1249,26
663,95	1269,74
664,14	1282,03
664,32	1230,83
664,51	1216,49
664,70	1314,80
664,89	1251,31
665,07	1255,40
665,26	1202,16
665,45	1267,69
665,64	1275,88
665,82	1214,45
666,01	1200,11
666,20	1310,70
666,38	1204,21
666,57	1193,97
666,76	1312,75
666,95	1269,74
667,13	1306,60
667,32	1204,21
667,51	1320,94
667,69	1263,60
667,88	1273,84
668,07	1298,41
668,25	1282,03
668,44	1339,37
668,63	1255,40
668,81	1253,36
669,00	1318,89
669,19	1294,32
669,38	1279,98
669,56	1277,93
669,75	1183,73
669,94	1230,83
670,12	1265,64
670,31	1255,40
670,50	1331,18
670,68	1275,88
670,87	1347,56
671,06	1265,64
671,24	1230,83
671,43	1339,37
671,62	1294,32
671,80	1120,24
671,99	1261,55
672,18	1239,02
672,36	1335,28
672,55	1189,87
672,74	1269,74
672,92	1224,69
673,11	1298,41
673,29	1236,97
673,48	1243,12
673,67	1214,45
673,85	1277,93
674,04	1286,12
674,23	1200,11
674,41	1267,69
674,60	1239,02
674,79	1243,12
674,97	1187,82
675,16	1282,03
675,34	1294,32
675,53	1218,54
675,72	1255,40
675,90	1302,51
676,09	1271,79
676,28	1316,84
676,46	1298,41
676,65	1239,02
676,83	1300,46
677,02	1224,69
677,21	1239,02
677,39	1224,69
677,58	1241,07
677,77	1310,70
677,95	1230,83
678,14	1277,93
678,32	1269,74
678,51	1259,50
678,70	1320,94
678,88	1232,88
679,07	1335,28
679,25	1298,41
679,44	1286,12
679,63	1286,12
679,81	1271,79
680,00	1216,49
680,18	1273,84
680,37	1232,88
680,55	1277,93
680,74	1236,97
680,93	1282,03
681,11	1257,45
681,30	1255,40
681,48	1310,70
681,67	1296,36
681,85	1318,89
682,04	1288,17
682,23	1222,64
682,41	1327,08
682,60	1275,88
682,78	1259,50
682,97	1230,83
683,15	1279,98
683,34	1337,32
683,53	1308,65
683,71	1277,93
683,90	1353,71
684,08	1267,69
684,27	1277,93
684,45	1306,60
684,64	1239,02
684,82	1212,40
685,01	1263,60
685,19	1296,36
685,38	1335,28
685,57	1347,56
685,75	1273,84
685,94	1306,60
686,12	1271,79
686,31	1230,83
686,49	1257,45
686,68	1261,55
686,86	1263,60
687,05	1386,47
687,23	1236,97
687,42	1282,03
687,60	1318,89
687,79	1245,16
687,97	1263,60
688,16	1257,45
688,34	1282,03
688,53	1236,97
688,71	1279,98
688,90	1314,80
689,08	1261,55
689,27	1255,40
689,45	1279,98
689,64	1277,93
689,82	1329,13
690,01	1208,30
690,19	1284,08
690,38	1290,22
690,56	1282,03
690,75	1308,65
690,93	1236,97
691,12	1322,99
691,30	1220,59
691,49	1325,04
691,67	1230,83
691,86	1189,87
692,04	1239,02
692,23	1275,88
692,41	1255,40
692,60	1202,16
692,78	1273,84
692,97	1191,92
693,15	1249,26
693,34	1271,79
693,52	1206,25
693,71	1271,79
693,89	1273,84
694,08	1247,21
694,26	1279,98
694,44	1202,16
694,63	1273,84
694,81	1271,79
695,00	1296,36
695,18	1241,07
695,37	1263,60
695,55	1220,59
695,74	1269,74
695,92	1314,80
696,10	1273,84
696,29	1267,69
696,47	1279,98
696,66	1218,54
696,84	1335,28
697,03	1314,80
697,21	1308,65
697,40	1236,97
697,58	1277,93
697,76	1320,94
697,95	1257,45
698,13	1257,45
698,32	1296,36
698,50	1212,40
698,68	1298,41
698,87	1318,89
699,05	1196,01
699,24	1265,64
699,42	1210,35
699,61	1218,54
699,79	1288,17
699,97	1273,84
700,16	1259,50
700,34	1282,03
700,53	1220,59
700,71	1359,85
700,89	1247,21
701,08	1241,07
701,26	1253,36
701,45	1351,66
701,63	1230,83
701,81	1288,17
702,00	1273,84
702,18	1361,90
702,37	1310,70
702,55	1234,93
702,73	1292,27
702,92	1286,12
703,10	1355,76
703,28	1161,20
703,47	1282,03
703,65	1269,74
703,84	1290,22
704,02	1335,28
704,20	1335,28
704,39	1210,35
704,57	1222,64
704,75	1265,64
704,94	1261,55
705,12	1329,13
705,30	1279,98
705,49	1263,60
705,67	1218,54
705,86	1265,64
706,04	1267,69
706,22	1290,22
706,41	1294,32
706,59	1277,93
706,77	1241,07
706,96	1290,22
707,14	1306,60
707,32	1292,27
707,51	1304,56
707,69	1257,45
707,87	1279,98
708,06	1185,77
708,24	1249,26
708,42	1267,69
708,61	1318,89
708,79	1222,64
708,97	1241,07
709,16	1341,42
709,34	1282,03
709,52	1292,27
709,71	1245,16
709,89	1245,16
710,07	1286,12
710,26	1230,83
710,44	1308,65
710,62	1214,45
710,80	1247,21
710,99	1261,55
711,17	1306,60
711,35	1245,16
711,54	1277,93
711,72	1271,79
711,90	1218,54
712,09	1261,55
712,27	1296,36
712,45	1277,93
712,63	1224,69
712,82	1193,97
713,00	1286,12
713,18	1273,84
713,37	1257,45
713,55	1286,12
713,73	1325,04
713,91	1253,36
714,10	1222,64
714,28	1290,22
714,46	1191,92
714,65	1341,42
714,83	1271,79
715,01	1202,16
715,19	1267,69
715,38	1232,88
715,56	1243,12
715,74	1271,79
715,92	1361,90
716,11	1179,63
716,29	1241,07
716,47	1288,17
716,65	1333,23
716,84	1204,21
717,02	1239,02
717,20	1200,11
717,38	1279,98
717,57	1232,88
717,75	1300,46
717,93	1245,16
718,11	1255,40
718,30	1212,40
718,48	1284,08
718,66	1331,18
718,84	1216,49
719,03	1300,46
719,21	1292,27
719,39	1284,08
719,57	1265,64
719,75	1236,97
719,94	1259,50
720,12	1208,30
720,30	1292,27
720,48	1255,40
720,67	1255,40
720,85	1183,73
721,03	1288,17
721,21	1277,93
721,39	1306,60
721,58	1335,28
721,76	1312,75
721,94	1290,22
722,12	1304,56
722,30	1255,40
722,49	1245,16
722,67	1243,12
722,85	1206,25
723,03	1263,60
723,21	1322,99
723,40	1202,16
723,58	1269,74
723,76	1263,60
723,94	1226,73
724,12	1257,45
724,30	1292,27
724,49	1290,22
724,67	1239,02
724,85	1325,04
725,03	1312,75
725,21	1273,84
725,40	1212,40
725,58	1253,36
725,76	1288,17
725,94	1286,12
726,12	1314,80
726,30	1216,49
726,49	1234,93
726,67	1218,54
726,85	1263,60
727,03	1294,32
727,21	1335,28
727,39	1290,22
727,57	1314,80
727,76	1318,89
727,94	1331,18
728,12	1267,69
728,30	1294,32
728,48	1288,17
728,66	1239,02
728,84	1322,99
729,03	1279,98
729,21	1325,04
729,39	1370,09
729,57	1277,93
729,75	1296,36
729,93	1282,03
730,11	1279,98
730,30	1257,45
730,48	1302,51
730,66	1224,69
730,84	1247,21
731,02	1279,98
731,20	1255,40
731,38	1284,08
731,56	1357,80
731,74	1257,45
731,93	1288,17
732,11	1265,64
732,29	1322,99
732,47	1404,91
732,65	1335,28
732,83	1310,70
733,01	1263,60
733,19	1257,45
733,37	1253,36
733,56	1290,22
733,74	1269,74
733,92	1216,49
734,10	1275,88
734,28	1243,12
734,46	1200,11
734,64	1243,12
734,82	1286,12
735,00	1230,83
735,18	1353,71
735,36	1277,93
735,54	1331,18
735,73	1232,88
735,91	1245,16
736,09	1232,88
736,27	1304,56
736,45	1243,12
736,63	1261,55
736,81	1308,65
736,99	1304,56
737,17	1316,84
737,35	1236,97
737,53	1277,93
737,71	1312,75
737,89	1273,84
738,07	1273,84
738,25	1273,84
738,43	1290,22
738,61	1249,26
738,80	1234,93
738,98	1234,93
739,16	1335,28
739,34	1290,22
739,52	1329,13
739,70	1224,69
739,88	1292,27
740,06	1286,12
740,24	1208,30
740,42	1302,51
740,60	1298,41
740,78	1279,98
740,96	1316,84
741,14	1277,93
741,32	1341,42
741,50	1261,55
741,68	1257,45
741,86	1298,41
742,04	1265,64
742,22	1218,54
742,40	1236,97
742,58	1286,12
742,76	1306,60
742,94	1236,97
743,12	1259,50
743,30	1263,60
743,48	1282,03
743,66	1286,12
743,84	1261,55
744,02	1243,12
744,20	1271,79
744,38	1247,21
744,56	1288,17
744,74	1230,83
744,92	1288,17
745,10	1222,64
745,28	1257,45
745,46	1331,18
745,64	1271,79
745,82	1288,17
746,00	1288,17
746,18	1318,89
746,36	1239,02
746,54	1222,64
746,72	1298,41
746,90	1277,93
747,08	1298,41
747,26	1277,93
747,44	1255,40
747,62	1314,80
747,80	1282,03
747,98	1277,93
748,15	1298,41
748,33	1329,13
748,51	1271,79
748,69	1277,93
748,87	1251,31
749,05	1335,28
749,23	1265,64
749,41	1277,93
749,59	1241,07
749,77	1271,79
749,95	1249,26
750,13	1337,32
750,31	1288,17
750,49	1191,92
750,67	1312,75
750,85	1327,08
751,03	1261,55
751,20	1349,61
751,38	1308,65
751,56	1230,83
751,74	1249,26
751,92	1269,74
752,10	1230,83
752,28	1318,89
752,46	1314,80
752,64	1232,88
752,82	1232,88
753,00	1327,08
753,18	1269,74
753,35	1239,02
753,53	1277,93
753,71	1259,50
753,89	1267,69
754,07	1230,83
754,25	1306,60
754,43	1292,27
754,61	1320,94
754,79	1189,87
754,97	1241,07
755,14	1220,59
755,32	1230,83
755,50	1271,79
755,68	1251,31
755,86	1337,32
756,04	1290,22
756,22	1239,02
756,40	1271,79
756,57	1322,99
756,75	1253,36
756,93	1277,93
757,11	1247,21
757,29	1271,79
757,47	1298,41
757,65	1314,80
757,82	1263,60
758,00	1243,12
758,18	1308,65
758,36	1206,25
758,54	1325,04
758,72	1224,69
758,90	1339,37
759,07	1302,51
759,25	1296,36
759,43	1259,50
759,61	1312,75
759,79	1316,84
759,97	1314,80
760,15	1241,07
760,32	1298,41
760,50	1261,55
760,68	1314,80
760,86	1327,08
761,04	1286,12
761,22	1259,50
761,39	1353,71
761,57	1314,80
761,75	1277,93
761,93	1189,87
762,11	1329,13
762,28	1290,22
762,46	1292,27
762,64	1286,12
762,82	1282,03
763,00	1298,41
763,18	1261,55
763,35	1273,84
763,53	1271,79
763,71	1267,69
763,89	1337,32
764,07	1269,74
764,24	1290,22
764,42	1245,16
764,60	1245,16
764,78	1222,64
764,96	1245,16
765,13	1208,30
765,31	1275,88
765,49	1271,79
765,67	1327,08
765,84	1234,93
766,02	1263,60
766,20	1343,47
766,38	1261,55
766,56	1230,83
766,73	1286,12
766,91	1253,36
767,09	1302,51
767,27	1282,03
767,44	1277,93
767,62	1277,93
767,80	1290,22
767,98	1269,74
768,15	1204,21
768,33	1232,88
768,51	1298,41
768,69	1261,55
768,87	1241,07
769,04	1232,88
769,22	1265,64
769,40	1234,93
769,58	1226,73
769,75	1269,74
769,93	1273,84
770,11	1271,79
770,28	1230,83
770,46	1282,03
770,64	1239,02
770,82	1312,75
770,99	1259,50
771,17	1265,64
771,35	1271,79
771,53	1261,55
771,70	1292,27
771,88	1282,03
772,06	1243,12
772,23	1216,49
772,41	1314,80
772,59	1308,65
772,77	1226,73
772,94	1228,78
773,12	1226,73
773,30	1306,60
773,47	1269,74
773,65	1220,59
773,83	1273,84
774,01	1263,60
774,18	1265,64
774,36	1234,93
774,54	1294,32
774,71	1292,27
774,89	1202,16
775,07	1261,55
775,24	1298,41
775,42	1212,40
775,60	1284,08
775,78	1230,83
775,95	1224,69
776,13	1243,12
776,31	1374,19
776,48	1200,11
776,66	1220,59
776,84	1273,84
777,01	1222,64
777,19	1202,16
777,37	1331,18
777,54	1249,26
777,72	1288,17
777,90	1279,98
778,07	1310,70
778,25	1265,64
778,43	1218,54
778,60	1259,50
778,78	1310,70
778,96	1263,60
779,13	1255,40
779,31	1273,84
779,49	1306,60
779,66	1380,33
779,84	1239,02
780,01	1292,27
780,19	1271,79
780,37	1200,11
780,54	1320,94
780,72	1277,93
780,90	1253,36
781,07	1349,61
781,25	1310,70
781,43	1261,55
781,60	1341,42
781,78	1341,42
781,95	1220,59
782,13	1251,31
782,31	1277,93
782,48	1308,65
782,66	1249,26
782,83	1255,40
783,01	1257,45
783,19	1308,65
783,36	1316,84
783,54	1310,70
783,72	1247,21
783,89	1247,21
784,07	1191,92
784,24	1290,22
784,42	1224,69
784,60	1306,60
784,77	1288,17
784,95	1349,61
785,12	1249,26
785,30	1269,74
785,47	1298,41
785,65	1277,93
785,83	1275,88
786,00	1230,83
786,18	1304,56
786,35	1200,11
786,53	1314,80
786,71	1327,08
786,88	1318,89
787,06	1265,64
787,23	1273,84
787,41	1265,64
787,58	1308,65
787,76	1222,64
787,94	1202,16
788,11	1267,69
788,29	1279,98
788,46	1374,19
788,64	1234,93
788,81	1271,79
788,99	1335,28
789,16	1298,41
789,34	1302,51
789,52	1253,36
789,69	1284,08
789,87	1284,08
790,04	1298,41
790,22	1265,64
790,39	1263,60
790,57	1251,31
790,74	1210,35
790,92	1290,22
791,09	1279,98
791,27	1327,08
791,44	1273,84
791,62	1257,45
791,79	1255,40
791,97	1308,65
792,15	1234,93
792,32	1232,88
792,50	1292,27
792,67	1243,12
792,85	1247,21
793,02	1269,74
793,20	1277,93
793,37	1222,64
793,55	1275,88
793,72	1224,69
793,90	1327,08
794,07	1286,12
794,25	1269,74
794,42	1263,60
794,60	1249,26
794,77	1230,83
794,95	1290,22
795,12	1318,89
795,30	1185,77
795,47	1230,83
795,65	1286,12
795,82	1290,22
796,00	1148,91
796,17	1304,56
796,34	1277,93
796,52	1228,78
796,69	1306,60
796,87	1189,87
797,04	1284,08
797,22	1232,88
797,39	1327,08
797,57	1296,36
797,74	1322,99
797,92	1318,89
798,09	1239,02
798,27	1275,88
798,44	1251,31
798,62	1239,02
798,79	1286,12
798,96	1249,26
799,14	1296,36
799,31	1257,45
799,49	1290,22
799,66	1282,03
799,84	1312,75
800,01	1306,60
800,19	1288,17
800,36	1259,50
800,53	1245,16
800,71	1253,36
800,88	1245,16
801,06	1322,99
801,23	1292,27
801,41	1204,21
801,58	1247,21
801,75	1279,98
801,93	1296,36
802,10	1247,21
802,28	1255,40
802,45	1257,45
802,63	1302,51
802,80	1302,51
802,97	1196,01
803,15	1265,64
803,32	1329,13
803,50	1226,73
803,67	1165,29
803,84	1322,99
804,02	1249,26
804,19	1310,70
804,37	1282,03
804,54	1249,26
804,71	1218,54
804,89	1320,94
805,06	1298,41
805,24	1247,21
805,41	1267,69
805,58	1263,60
805,76	1263,60
805,93	1277,93
806,10	1312,75
806,28	1279,98
806,45	1302,51
806,63	1314,80
806,80	1273,84
806,97	1257,45
807,15	1331,18
807,32	1261,55
807,49	1232,88
807,67	1277,93
807,84	1292,27
808,01	1271,79
808,19	1234,93
808,36	1355,76
808,54	1257,45
808,71	1259,50
808,88	1220,59
809,06	1277,93
809,23	1314,80
809,40	1267,69
809,58	1277,93
809,75	1247,21
809,92	1290,22
810,10	1236,97
810,27	1208,30
810,44	1314,80
810,62	1273,84
810,79	1306,60
810,96	1271,79
811,14	1257,45
811,31	1320,94
811,48	1220,59
811,66	1282,03
811,83	1249,26
812,00	1304,56
812,18	1298,41
812,35	1298,41
812,52	1300,46
812,69	1296,36
812,87	1239,02
813,04	1224,69
813,21	1230,83
813,39	1243,12
813,56	1294,32
813,73	1282,03
813,91	1253,36
814,08	1267,69
814,25	1243,12
814,42	1230,83
814,60	1232,88
814,77	1282,03
814,94	1230,83
815,12	1245,16
815,29	1247,21
815,46	1269,74
815,63	1271,79
815,81	1226,73
815,98	1220,59
816,15	1230,83
816,33	1275,88
816,50	1216,49
816,67	1261,55
816,84	1226,73
817,02	1271,79
817,19	1253,36
817,36	1304,56
817,53	1347,56
817,71	1255,40
817,88	1325,04
818,05	1296,36
818,22	1224,69
818,40	1347,56
818,57	1275,88
818,74	1331,18
818,91	1290,22
819,09	1255,40
819,26	1241,07
819,43	1304,56
819,60	1300,46
819,78	1282,03
819,95	1183,73
820,12	1300,46
820,29	1263,60
820,47	1269,74
820,64	1257,45
820,81	1320,94
820,98	1245,16
821,15	1316,84
821,33	1316,84
821,50	1284,08
821,67	1241,07
821,84	1349,61
822,02	1257,45
822,19	1232,88
822,36	1273,84
822,53	1239,02
822,70	1388,52
822,88	1314,80
823,05	1232,88
823,22	1247,21
823,39	1292,27
823,56	1224,69
823,74	1310,70
823,91	1261,55
824,08	1259,50
824,25	1288,17
824,42	1202,16
824,60	1265,64
824,77	1294,32
824,94	1220,59
825,11	1257,45
825,28	1288,17
825,45	1290,22
825,63	1290,22
825,80	1255,40
825,97	1329,13
826,14	1302,51
826,31	1265,64
826,48	1257,45
826,66	1277,93
826,83	1314,80
827,00	1273,84
827,17	1263,60
827,34	1257,45
827,51	1290,22
827,69	1275,88
827,86	1245,16
828,03	1279,98
828,20	1339,37
828,37	1263,60
828,54	1341,42
828,71	1189,87
828,89	1259,50
829,06	1241,07
829,23	1361,90
829,40	1314,80
829,57	1239,02
829,74	1261,55
829,91	1288,17
830,09	1257,45
830,26	1220,59
830,43	1339,37
830,60	1200,11
830,77	1253,36
830,94	1257,45
831,11	1349,61
831,28	1312,75
831,46	1296,36
831,63	1165,29
831,80	1312,75
831,97	1298,41
832,14	1212,40
832,31	1312,75
832,48	1200,11
832,65	1345,52
832,82	1263,60
832,99	1249,26
833,17	1236,97
833,34	1306,60
833,51	1279,98
833,68	1288,17
833,85	1286,12
834,02	1314,80
834,19	1214,45
834,36	1251,31
834,53	1247,21
834,70	1251,31
834,87	1325,04
835,04	1312,75
835,22	1261,55
835,39	1296,36
835,56	1325,04
835,73	1230,83
835,90	1232,88
836,07	1273,84
836,24	1222,64
836,41	1261,55
836,58	1253,36
836,75	1288,17
836,92	1312,75
837,09	1290,22
837,26	1308,65
837,43	1288,17
837,60	1310,70
837,77	1308,65
837,94	1306,60
838,12	1243,12
838,29	1310,70
838,46	1296,36
838,63	1279,98
838,80	1255,40
838,97	1282,03
839,14	1300,46
839,31	1322,99
839,48	1247,21
839,65	1261,55
839,82	1265,64
839,99	1277,93
840,16	1265,64
840,33	1232,88
840,50	1241,07
840,67	1314,80
840,84	1255,40
841,01	1286,12
841,18	1288,17
841,35	1255,40
841,52	1286,12
841,69	1318,89
841,86	1361,90
842,03	1271,79
842,20	1267,69
842,37	1245,16
842,54	1302,51
842,71	1245,16
842,88	1265,64
843,05	1279,98
843,22	1241,07
843,39	1333,23
843,56	1228,78
843,73	1322,99
843,90	1171,44
844,07	1296,36
844,24	1290,22
844,41	1363,95
844,58	1257,45
844,75	1173,49
844,92	1337,32
845,09	1239,02
845,26	1239,02
845,43	1191,92
845,60	1259,50
845,77	1304,56
845,94	1275,88
846,10	1310,70
846,27	1261,55
846,44	1230,83
846,61	1263,60
846,78	1286,12
846,95	1245,16
847,12	1300,46
847,29	1234,93
847,46	1263,60
847,63	1261,55
847,80	1265,64
847,97	1282,03
848,14	1185,77
848,31	1325,04
848,48	1277,93
848,65	1265,64
848,82	1261,55
848,98	1210,35
849,15	1243,12
849,32	1277,93
849,49	1269,74
849,66	1298,41
849,83	1294,32
850,00	1259,50
850,17	1263,60
850,34	1255,40
850,51	1265,64
850,68	1245,16
850,85	1210,35
851,01	1228,78
851,18	1300,46
851,35	1292,27
851,52	1196,01
851,69	1277,93
851,86	1232,88
852,03	1257,45
852,20	1239,02
852,37	1261,55
852,53	1269,74
852,70	1292,27
852,87	1267,69
853,04	1286,12
853,21	1327,08
853,38	1245,16
853,55	1304,56
853,72	1279,98
853,89	1275,88
854,05	1312,75
854,22	1222,64
854,39	1316,84
854,56	1286,12
854,73	1355,76
854,90	1269,74
855,07	1327,08
855,23	1226,73
855,40	1282,03
855,57	1335,28
855,74	1257,45
855,91	1294,32
856,08	1265,64
856,25	1288,17
856,41	1263,60
856,58	1212,40
856,75	1325,04
856,92	1257,45
857,09	1265,64
857,26	1265,64
857,42	1275,88
857,59	1218,54
857,76	1232,88
857,93	1259,50
858,10	1247,21
858,27	1261,55
858,43	1249,26
858,60	1239,02
858,77	1282,03
858,94	1226,73
859,11	1298,41
859,27	1312,75
859,44	1224,69
859,61	1208,30
859,78	1200,11
859,95	1288,17
860,12	1333,23
860,28	1275,88
860,45	1282,03
860,62	1224,69
860,79	1255,40
860,95	1273,84
861,12	1243,12
861,29	1247,21
861,46	1271,79
861,63	1267,69
861,79	1251,31
861,96	1284,08
862,13	1261,55
862,30	1206,25
862,47	1202,16
862,63	1232,88
862,80	1267,69
862,97	1288,17
863,14	1279,98
863,30	1216,49
863,47	1271,79
863,64	1288,17
863,81	1292,27
863,97	1282,03
864,14	1275,88
864,31	1316,84
864,48	1245,16
864,65	1214,45
864,81	1253,36
864,98	1228,78
865,15	1331,18
865,32	1236,97
865,48	1263,60
865,65	1327,08
865,82	1261,55
865,98	1202,16
866,15	1331,18
866,32	1234,93
866,49	1273,84
866,65	1318,89
866,82	1181,68
866,99	1232,88
867,16	1310,70
867,32	1316,84
867,49	1259,50
867,66	1279,98
867,83	1294,32
867,99	1286,12
868,16	1355,76
868,33	1273,84
868,49	1179,63
868,66	1255,40
868,83	1226,73
868,99	1259,50
869,16	1312,75
869,33	1273,84
869,50	1257,45
869,66	1329,13
869,83	1255,40
870,00	1265,64
870,16	1282,03
870,33	1302,51
870,50	1308,65
870,66	1275,88
870,83	1304,56
871,00	1304,56
871,17	1239,02
871,33	1310,70
871,50	1230,83
871,67	1279,98
871,83	1220,59
872,00	1275,88
872,17	1257,45
872,33	1271,79
872,50	1261,55
872,67	1282,03
872,83	1212,40
873,00	1335,28
873,17	1333,23
873,33	1286,12
873,50	1286,12
873,67	1232,88
873,83	1286,12
874,00	1298,41
874,16	1271,79
874,33	1351,66
874,50	1247,21
874,66	1286,12
874,83	1263,60
875,00	1253,36
875,16	1306,60
875,33	1267,69
875,50	1234,93
875,66	1296,36
875,83	1259,50
875,99	1282,03
876,16	1247,21
876,33	1208,30
876,49	1249,26
876,66	1245,16
876,83	1284,08
876,99	1200,11
877,16	1296,36
877,32	1288,17
877,49	1265,64
877,66	1282,03
877,82	1316,84
877,99	1257,45
878,15	1282,03
878,32	1253,36
878,49	1310,70
878,65	1273,84
878,82	1273,84
878,98	1249,26
879,15	1294,32
879,32	1236,97
879,48	1277,93
879,65	1279,98
879,81	1189,87
879,98	1304,56
880,15	1257,45
880,31	1259,50
880,48	1230,83
880,64	1251,31
880,81	1282,03
880,97	1208,30
881,14	1306,60
881,31	1341,42
881,47	1247,21
881,64	1353,71
881,80	1241,07
881,97	1239,02
882,13	1265,64
882,30	1316,84
882,47	1277,93
882,63	1249,26
882,80	1286,12
882,96	1288,17
883,13	1251,31
883,29	1282,03
883,46	1292,27
883,62	1312,75
883,79	1320,94
883,95	1226,73
884,12	1265,64
884,29	1251,31
884,45	1286,12
884,62	1230,83
884,78	1216,49
884,95	1320,94
885,11	1216,49
885,28	1298,41
885,44	1325,04
885,61	1333,23
885,77	1284,08
885,94	1243,12
886,10	1421,29
886,27	1202,16
886,43	1271,79
886,60	1288,17
886,76	1243,12
886,93	1259,50
887,09	1265,64
887,26	1325,04
887,42	1265,64
887,59	1282,03
887,75	1247,21
887,92	1322,99
888,08	1253,36
888,25	1275,88
888,41	1212,40
888,58	1263,60
888,74	1279,98
888,91	1292,27
>>>>>End Processed Spectral Data<<<<<
