SpectraSuite Data File
++++++++++++++++++++++++++++++++++++
Date: Sun Apr 03 15:33:04 CEST 2016
User: root
Dark Spectrum Present: No
Reference Spectrum Present: No
Number of Sampled Component Spectra: 1
Spectrometers: USB4C02835
Integration Time (usec): 10000 (USB4C02835)
Spectra Averaged: 1 (USB4C02835)
Boxcar Smoothing: 0 (USB4C02835)
Correct for Electrical Dark: No (USB4C02835)
Strobe/Lamp Enabled: No (USB4C02835)
Correct for Detector Non-linearity: No (USB4C02835)
Correct for Stray Light: No (USB4C02835)
Number of Pixels in Processed Spectrum: 3648
>>>>>Begin Processed Spectral Data<<<<<
177,47	1226,73
177,69	1226,73
177,91	1226,73
178,13	1222,64
178,36	1247,21
178,58	1320,94
178,80	1320,94
179,02	1296,36
179,24	1267,69
179,46	1282,03
179,68	1320,94
179,90	1265,64
180,13	1298,41
180,35	1247,21
180,57	1271,79
180,79	1198,06
181,01	1249,26
181,23	1284,08
181,45	1300,46
181,67	1300,46
181,90	1265,64
182,12	1243,12
182,34	1273,84
182,56	1257,45
182,78	1292,27
183,00	1173,49
183,22	1310,70
183,44	1331,18
183,66	1271,79
183,89	1255,40
184,11	1232,88
184,33	1214,45
184,55	1288,17
184,77	1255,40
184,99	1226,73
185,21	1210,35
185,43	1314,80
185,65	1320,94
185,87	1288,17
186,10	1308,65
186,32	1310,70
186,54	1298,41
186,76	1288,17
186,98	1251,31
187,20	1257,45
187,42	1288,17
187,64	1296,36
187,86	1269,74
188,08	1347,56
188,30	1335,28
188,52	1282,03
188,75	1249,26
188,97	1277,93
189,19	1290,22
189,41	1288,17
189,63	1312,75
189,85	1267,69
190,07	1269,74
190,29	1282,03
190,51	1224,69
190,73	1236,97
190,95	1347,56
191,17	1312,75
191,39	1298,41
191,61	1230,83
191,84	1267,69
192,06	1284,08
192,28	1288,17
192,50	1304,56
192,72	1269,74
192,94	1298,41
193,16	1245,16
193,38	1306,60
193,60	1214,45
193,82	1257,45
194,04	1273,84
194,26	1286,12
194,48	1261,55
194,70	1261,55
194,92	1314,80
195,14	1302,51
195,36	1284,08
195,58	1232,88
195,80	1228,78
196,02	1257,45
196,24	1290,22
196,46	1247,21
196,69	1265,64
196,91	1329,13
197,13	1241,07
197,35	1263,60
197,57	1279,98
197,79	1263,60
198,01	1232,88
198,23	1265,64
198,45	1290,22
198,67	1249,26
198,89	1339,37
199,11	1308,65
199,33	1302,51
199,55	1298,41
199,77	1302,51
199,99	1304,56
200,21	1271,79
200,43	1339,37
200,65	1208,30
200,87	1245,16
201,09	1290,22
201,31	1300,46
201,53	1300,46
201,75	1316,84
201,97	1314,80
202,19	1298,41
202,41	1331,18
202,63	1308,65
202,85	1282,03
203,07	1298,41
203,29	1304,56
203,51	1306,60
203,73	1220,59
203,95	1290,22
204,17	1284,08
204,39	1294,32
204,61	1257,45
204,83	1239,02
205,05	1327,08
205,27	1228,78
205,49	1316,84
205,71	1312,75
205,93	1257,45
206,15	1277,93
206,37	1255,40
206,59	1216,49
206,81	1273,84
207,03	1198,06
207,25	1212,40
207,47	1249,26
207,69	1279,98
207,91	1320,94
208,13	1282,03
208,34	1230,83
208,56	1261,55
208,78	1288,17
209,00	1183,73
209,22	1210,35
209,44	1212,40
209,66	1286,12
209,88	1212,40
210,10	1279,98
210,32	1239,02
210,54	1275,88
210,76	1204,21
210,98	1292,27
211,20	1224,69
211,42	1314,80
211,64	1308,65
211,86	1355,76
212,08	1269,74
212,30	1286,12
212,52	1232,88
212,74	1284,08
212,96	1255,40
213,17	1294,32
213,39	1249,26
213,61	1337,32
213,83	1263,60
214,05	1251,31
214,27	1304,56
214,49	1335,28
214,71	1304,56
214,93	1284,08
215,15	1296,36
215,37	1314,80
215,59	1216,49
215,81	1294,32
216,03	1230,83
216,24	1331,18
216,46	1263,60
216,68	1329,13
216,90	1320,94
217,12	1230,83
217,34	1312,75
217,56	1255,40
217,78	1279,98
218,00	1294,32
218,22	1259,50
218,44	1279,98
218,66	1243,12
218,87	1241,07
219,09	1279,98
219,31	1200,11
219,53	1259,50
219,75	1327,08
219,97	1204,21
220,19	1277,93
220,41	1263,60
220,63	1288,17
220,85	1214,45
221,06	1312,75
221,28	1302,51
221,50	1329,13
221,72	1298,41
221,94	1275,88
222,16	1222,64
222,38	1279,98
222,60	1204,21
222,82	1290,22
223,03	1296,36
223,25	1304,56
223,47	1245,16
223,69	1304,56
223,91	1273,84
224,13	1271,79
224,35	1292,27
224,57	1314,80
224,78	1275,88
225,00	1294,32
225,22	1255,40
225,44	1239,02
225,66	1253,36
225,88	1239,02
226,10	1230,83
226,32	1288,17
226,53	1255,40
226,75	1247,21
226,97	1251,31
227,19	1257,45
227,41	1343,47
227,63	1236,97
227,85	1312,75
228,06	1298,41
228,28	1241,07
228,50	1241,07
228,72	1263,60
228,94	1265,64
229,16	1216,49
229,37	1241,07
229,59	1339,37
229,81	1265,64
230,03	1290,22
230,25	1247,21
230,47	1208,30
230,69	1265,64
230,90	1290,22
231,12	1298,41
231,34	1314,80
231,56	1288,17
231,78	1263,60
232,00	1234,93
232,21	1247,21
232,43	1267,69
232,65	1277,93
232,87	1273,84
233,09	1275,88
233,30	1222,64
233,52	1232,88
233,74	1249,26
233,96	1216,49
234,18	1318,89
234,40	1263,60
234,61	1325,04
234,83	1282,03
235,05	1253,36
235,27	1292,27
235,49	1366,00
235,70	1228,78
235,92	1294,32
236,14	1202,16
236,36	1298,41
236,58	1290,22
236,79	1290,22
237,01	1306,60
237,23	1322,99
237,45	1322,99
237,67	1292,27
237,88	1296,36
238,10	1343,47
238,32	1261,55
238,54	1288,17
238,76	1271,79
238,97	1325,04
239,19	1282,03
239,41	1230,83
239,63	1234,93
239,85	1284,08
240,06	1292,27
240,28	1286,12
240,50	1296,36
240,72	1265,64
240,93	1239,02
241,15	1282,03
241,37	1331,18
241,59	1247,21
241,81	1239,02
242,02	1288,17
242,24	1314,80
242,46	1224,69
242,68	1310,70
242,89	1298,41
243,11	1226,73
243,33	1273,84
243,55	1286,12
243,76	1302,51
243,98	1245,16
244,20	1267,69
244,42	1292,27
244,64	1331,18
244,85	1218,54
245,07	1241,07
245,29	1263,60
245,51	1286,12
245,72	1220,59
245,94	1306,60
246,16	1310,70
246,38	1282,03
246,59	1298,41
246,81	1320,94
247,03	1335,28
247,24	1232,88
247,46	1220,59
247,68	1267,69
247,90	1275,88
248,11	1337,32
248,33	1263,60
248,55	1290,22
248,77	1253,36
248,98	1292,27
249,20	1298,41
249,42	1316,84
249,64	1286,12
249,85	1286,12
250,07	1302,51
250,29	1331,18
250,50	1267,69
250,72	1279,98
250,94	1257,45
251,16	1222,64
251,37	1284,08
251,59	1259,50
251,81	1263,60
252,02	1204,21
252,24	1208,30
252,46	1306,60
252,68	1286,12
252,89	1277,93
253,11	1224,69
253,33	1247,21
253,54	1224,69
253,76	1286,12
253,98	1226,73
254,20	1296,36
254,41	1288,17
254,63	1214,45
254,85	1286,12
255,06	1234,93
255,28	1236,97
255,50	1241,07
255,71	1267,69
255,93	1288,17
256,15	1259,50
256,36	1251,31
256,58	1196,01
256,80	1339,37
257,02	1241,07
257,23	1277,93
257,45	1302,51
257,67	1294,32
257,88	1214,45
258,10	1316,84
258,32	1302,51
258,53	1273,84
258,75	1282,03
258,97	1292,27
259,18	1304,56
259,40	1239,02
259,62	1263,60
259,83	1239,02
260,05	1296,36
260,27	1251,31
260,48	1277,93
260,70	1302,51
260,92	1236,97
261,13	1279,98
261,35	1208,30
261,57	1257,45
261,78	1241,07
262,00	1214,45
262,22	1224,69
262,43	1288,17
262,65	1298,41
262,86	1347,56
263,08	1298,41
263,30	1282,03
263,51	1234,93
263,73	1202,16
263,95	1243,12
264,16	1284,08
264,38	1288,17
264,60	1286,12
264,81	1218,54
265,03	1263,60
265,25	1257,45
265,46	1267,69
265,68	1277,93
265,89	1263,60
266,11	1245,16
266,33	1236,97
266,54	1261,55
266,76	1308,65
266,98	1255,40
267,19	1269,74
267,41	1277,93
267,62	1290,22
267,84	1366,00
268,06	1273,84
268,27	1243,12
268,49	1263,60
268,70	1312,75
268,92	1271,79
269,14	1232,88
269,35	1200,11
269,57	1271,79
269,79	1310,70
270,00	1247,21
270,22	1265,64
270,43	1302,51
270,65	1282,03
270,87	1288,17
271,08	1257,45
271,30	1275,88
271,51	1347,56
271,73	1302,51
271,95	1314,80
272,16	1296,36
272,38	1304,56
272,59	1267,69
272,81	1296,36
273,02	1263,60
273,24	1269,74
273,46	1357,80
273,67	1345,52
273,89	1277,93
274,10	1249,26
274,32	1241,07
274,54	1243,12
274,75	1273,84
274,97	1277,93
275,18	1251,31
275,40	1257,45
275,61	1279,98
275,83	1325,04
276,05	1236,97
276,26	1271,79
276,48	1304,56
276,69	1267,69
276,91	1247,21
277,12	1298,41
277,34	1273,84
277,55	1320,94
277,77	1222,64
277,99	1288,17
278,20	1282,03
278,42	1226,73
278,63	1232,88
278,85	1331,18
279,06	1204,21
279,28	1310,70
279,49	1279,98
279,71	1316,84
279,93	1269,74
280,14	1275,88
280,36	1290,22
280,57	1257,45
280,79	1265,64
281,00	1267,69
281,22	1329,13
281,43	1327,08
281,65	1204,21
281,86	1214,45
282,08	1277,93
282,29	1298,41
282,51	1294,32
282,73	1322,99
282,94	1316,84
283,16	1220,59
283,37	1273,84
283,59	1306,60
283,80	1247,21
284,02	1298,41
284,23	1271,79
284,45	1224,69
284,66	1312,75
284,88	1243,12
285,09	1249,26
285,31	1290,22
285,52	1265,64
285,74	1247,21
285,95	1284,08
286,17	1294,32
286,38	1255,40
286,60	1314,80
286,81	1181,68
287,03	1288,17
287,24	1257,45
287,46	1320,94
287,67	1286,12
287,89	1257,45
288,10	1286,12
288,32	1257,45
288,53	1255,40
288,75	1294,32
288,96	1300,46
289,18	1230,83
289,39	1196,01
289,61	1269,74
289,82	1249,26
290,04	1263,60
290,25	1279,98
290,47	1282,03
290,68	1261,55
290,90	1308,65
291,11	1245,16
291,33	1290,22
291,54	1216,49
291,76	1255,40
291,97	1257,45
292,18	1253,36
292,40	1273,84
292,61	1308,65
292,83	1325,04
293,04	1241,07
293,26	1261,55
293,47	1241,07
293,69	1234,93
293,90	1247,21
294,12	1257,45
294,33	1349,61
294,55	1247,21
294,76	1247,21
294,97	1257,45
295,19	1325,04
295,40	1228,78
295,62	1269,74
295,83	1236,97
296,05	1255,40
296,26	1271,79
296,48	1282,03
296,69	1273,84
296,90	1269,74
297,12	1316,84
297,33	1292,27
297,55	1245,16
297,76	1273,84
297,98	1232,88
298,19	1277,93
298,41	1212,40
298,62	1228,78
298,83	1239,02
299,05	1271,79
299,26	1298,41
299,48	1277,93
299,69	1279,98
299,90	1284,08
300,12	1304,56
300,33	1282,03
300,55	1267,69
300,76	1269,74
300,98	1220,59
301,19	1263,60
301,40	1288,17
301,62	1241,07
301,83	1282,03
302,05	1312,75
302,26	1286,12
302,47	1267,69
302,69	1327,08
302,90	1282,03
303,12	1239,02
303,33	1310,70
303,54	1243,12
303,76	1257,45
303,97	1275,88
304,19	1271,79
304,40	1249,26
304,61	1255,40
304,83	1279,98
305,04	1249,26
305,26	1222,64
305,47	1220,59
305,68	1212,40
305,90	1275,88
306,11	1259,50
306,33	1282,03
306,54	1208,30
306,75	1206,25
306,97	1263,60
307,18	1232,88
307,39	1261,55
307,61	1228,78
307,82	1292,27
308,04	1247,21
308,25	1298,41
308,46	1282,03
308,68	1214,45
308,89	1314,80
309,10	1253,36
309,32	1292,27
309,53	1302,51
309,74	1331,18
309,96	1255,40
310,17	1236,97
310,39	1259,50
310,60	1249,26
310,81	1290,22
311,03	1253,36
311,24	1226,73
311,45	1282,03
311,67	1329,13
311,88	1288,17
312,09	1282,03
312,31	1265,64
312,52	1312,75
312,73	1263,60
312,95	1224,69
313,16	1236,97
313,37	1265,64
313,59	1204,21
313,80	1310,70
314,01	1257,45
314,23	1290,22
314,44	1290,22
314,65	1282,03
314,87	1265,64
315,08	1220,59
315,29	1282,03
315,51	1204,21
315,72	1253,36
315,93	1253,36
316,15	1337,32
316,36	1275,88
316,57	1277,93
316,79	1314,80
317,00	1236,97
317,21	1329,13
317,43	1261,55
317,64	1251,31
317,85	1253,36
318,07	1275,88
318,28	1261,55
318,49	1269,74
318,70	1273,84
318,92	1261,55
319,13	1271,79
319,34	1177,58
319,56	1263,60
319,77	1316,84
319,98	1284,08
320,20	1267,69
320,41	1255,40
320,62	1359,85
320,83	1300,46
321,05	1282,03
321,26	1265,64
321,47	1263,60
321,69	1255,40
321,90	1331,18
322,11	1279,98
322,32	1210,35
322,54	1294,32
322,75	1232,88
322,96	1351,66
323,18	1257,45
323,39	1302,51
323,60	1316,84
323,81	1279,98
324,03	1169,39
324,24	1271,79
324,45	1349,61
324,66	1290,22
324,88	1290,22
325,09	1261,55
325,30	1279,98
325,52	1236,97
325,73	1314,80
325,94	1212,40
326,15	1222,64
326,37	1318,89
326,58	1271,79
326,79	1277,93
327,00	1228,78
327,22	1290,22
327,43	1273,84
327,64	1228,78
327,85	1292,27
328,07	1261,55
328,28	1380,33
328,49	1230,83
328,70	1302,51
328,92	1286,12
329,13	1331,18
329,34	1230,83
329,55	1286,12
329,76	1257,45
329,98	1239,02
330,19	1302,51
330,40	1322,99
330,61	1241,07
330,83	1253,36
331,04	1296,36
331,25	1218,54
331,46	1302,51
331,68	1284,08
331,89	1230,83
332,10	1296,36
332,31	1222,64
332,52	1251,31
332,74	1247,21
332,95	1261,55
333,16	1271,79
333,37	1290,22
333,58	1288,17
333,80	1271,79
334,01	1241,07
334,22	1292,27
334,43	1228,78
334,64	1368,04
334,86	1302,51
335,07	1279,98
335,28	1282,03
335,49	1234,93
335,70	1325,04
335,92	1175,53
336,13	1288,17
336,34	1372,14
336,55	1271,79
336,76	1357,80
336,98	1288,17
337,19	1208,30
337,40	1255,40
337,61	1277,93
337,82	1310,70
338,04	1306,60
338,25	1226,73
338,46	1228,78
338,67	1257,45
338,88	1327,08
339,09	1275,88
339,31	1257,45
339,52	1208,30
339,73	1271,79
339,94	1241,07
340,15	1339,37
340,36	1255,40
340,58	1216,49
340,79	1216,49
341,00	1320,94
341,21	1245,16
341,42	1304,56
341,63	1318,89
341,85	1286,12
342,06	1257,45
342,27	1245,16
342,48	1286,12
342,69	1243,12
342,90	1290,22
343,12	1222,64
343,33	1263,60
343,54	1249,26
343,75	1288,17
343,96	1337,32
344,17	1216,49
344,38	1284,08
344,60	1296,36
344,81	1273,84
345,02	1304,56
345,23	1232,88
345,44	1249,26
345,65	1218,54
345,86	1259,50
346,07	1298,41
346,29	1329,13
346,50	1230,83
346,71	1284,08
346,92	1249,26
347,13	1259,50
347,34	1277,93
347,55	1290,22
347,76	1314,80
347,98	1288,17
348,19	1251,31
348,40	1361,90
348,61	1253,36
348,82	1282,03
349,03	1269,74
349,24	1224,69
349,45	1318,89
349,66	1269,74
349,88	1322,99
350,09	1224,69
350,30	1239,02
350,51	1253,36
350,72	1267,69
350,93	1279,98
351,14	1273,84
351,35	1277,93
351,56	1296,36
351,77	1253,36
351,99	1294,32
352,20	1286,12
352,41	1314,80
352,62	1265,64
352,83	1191,92
353,04	1282,03
353,25	1292,27
353,46	1259,50
353,67	1318,89
353,88	1318,89
354,09	1279,98
354,30	1304,56
354,52	1257,45
354,73	1282,03
354,94	1239,02
355,15	1245,16
355,36	1286,12
355,57	1300,46
355,78	1269,74
355,99	1251,31
356,20	1245,16
356,41	1279,98
356,62	1372,14
356,83	1316,84
357,04	1273,84
357,25	1263,60
357,46	1263,60
357,68	1208,30
357,89	1273,84
358,10	1269,74
358,31	1259,50
358,52	1279,98
358,73	1230,83
358,94	1286,12
359,15	1314,80
359,36	1196,01
359,57	1312,75
359,78	1247,21
359,99	1349,61
360,20	1255,40
360,41	1294,32
360,62	1294,32
360,83	1282,03
361,04	1255,40
361,25	1314,80
361,46	1273,84
361,67	1341,42
361,88	1265,64
362,09	1165,29
362,30	1267,69
362,51	1263,60
362,72	1230,83
362,93	1320,94
363,14	1265,64
363,35	1265,64
363,56	1257,45
363,78	1255,40
363,99	1312,75
364,20	1267,69
364,41	1255,40
364,62	1320,94
364,83	1316,84
365,04	1290,22
365,25	1304,56
365,46	1314,80
365,67	1232,88
365,88	1216,49
366,09	1263,60
366,30	1359,85
366,51	1282,03
366,72	1322,99
366,93	1253,36
367,14	1312,75
367,35	1302,51
367,56	1245,16
367,77	1304,56
367,98	1298,41
368,18	1290,22
368,39	1243,12
368,60	1271,79
368,81	1318,89
369,02	1273,84
369,23	1292,27
369,44	1261,55
369,65	1273,84
369,86	1320,94
370,07	1277,93
370,28	1253,36
370,49	1196,01
370,70	1279,98
370,91	1314,80
371,12	1257,45
371,33	1232,88
371,54	1247,21
371,75	1302,51
371,96	1259,50
372,17	1236,97
372,38	1234,93
372,59	1273,84
372,80	1265,64
373,01	1261,55
373,22	1241,07
373,43	1314,80
373,64	1269,74
373,85	1208,30
374,06	1327,08
374,26	1208,30
374,47	1216,49
374,68	1296,36
374,89	1304,56
375,10	1234,93
375,31	1241,07
375,52	1257,45
375,73	1257,45
375,94	1200,11
376,15	1282,03
376,36	1368,04
376,57	1212,40
376,78	1202,16
376,99	1314,80
377,20	1267,69
377,40	1304,56
377,61	1265,64
377,82	1308,65
378,03	1298,41
378,24	1265,64
378,45	1222,64
378,66	1265,64
378,87	1198,06
379,08	1277,93
379,29	1296,36
379,50	1302,51
379,71	1282,03
379,91	1232,88
380,12	1261,55
380,33	1347,56
380,54	1251,31
380,75	1273,84
380,96	1228,78
381,17	1247,21
381,38	1218,54
381,59	1279,98
381,80	1327,08
382,00	1333,23
382,21	1259,50
382,42	1322,99
382,63	1265,64
382,84	1218,54
383,05	1243,12
383,26	1216,49
383,47	1263,60
383,68	1271,79
383,88	1300,46
384,09	1253,36
384,30	1271,79
384,51	1232,88
384,72	1253,36
384,93	1273,84
385,14	1257,45
385,35	1245,16
385,55	1269,74
385,76	1282,03
385,97	1200,11
386,18	1269,74
386,39	1259,50
386,60	1236,97
386,81	1314,80
387,02	1304,56
387,22	1294,32
387,43	1282,03
387,64	1228,78
387,85	1306,60
388,06	1243,12
388,27	1282,03
388,48	1216,49
388,68	1224,69
388,89	1327,08
389,10	1339,37
389,31	1253,36
389,52	1263,60
389,73	1243,12
389,93	1271,79
390,14	1361,90
390,35	1253,36
390,56	1263,60
390,77	1290,22
390,98	1247,21
391,18	1351,66
391,39	1271,79
391,60	1191,92
391,81	1298,41
392,02	1337,32
392,23	1296,36
392,43	1226,73
392,64	1265,64
392,85	1222,64
393,06	1189,87
393,27	1222,64
393,47	1294,32
393,68	1251,31
393,89	1290,22
394,10	1259,50
394,31	1232,88
394,52	1314,80
394,72	1275,88
394,93	1222,64
395,14	1353,71
395,35	1355,76
395,56	1282,03
395,76	1314,80
395,97	1216,49
396,18	1294,32
396,39	1284,08
396,60	1167,34
396,80	1234,93
397,01	1284,08
397,22	1257,45
397,43	1259,50
397,64	1173,49
397,84	1236,97
398,05	1212,40
398,26	1304,56
398,47	1249,26
398,67	1300,46
398,88	1337,32
399,09	1228,78
399,30	1245,16
399,51	1314,80
399,71	1271,79
399,92	1263,60
400,13	1263,60
400,34	1261,55
400,54	1226,73
400,75	1245,16
400,96	1331,18
401,17	1232,88
401,37	1284,08
401,58	1265,64
401,79	1277,93
402,00	1288,17
402,21	1253,36
402,41	1269,74
402,62	1249,26
402,83	1286,12
403,04	1226,73
403,24	1314,80
403,45	1261,55
403,66	1271,79
403,87	1300,46
404,07	1298,41
404,28	1300,46
404,49	1294,32
404,70	1329,13
404,90	1251,31
405,11	1277,93
405,32	1284,08
405,52	1208,30
405,73	1310,70
405,94	1320,94
406,15	1290,22
406,35	1230,83
406,56	1230,83
406,77	1314,80
406,98	1277,93
407,18	1290,22
407,39	1251,31
407,60	1241,07
407,80	1288,17
408,01	1279,98
408,22	1265,64
408,43	1232,88
408,63	1290,22
408,84	1206,25
409,05	1257,45
409,25	1294,32
409,46	1333,23
409,67	1312,75
409,88	1249,26
410,08	1263,60
410,29	1355,76
410,50	1275,88
410,70	1216,49
410,91	1232,88
411,12	1228,78
411,32	1265,64
411,53	1337,32
411,74	1269,74
411,95	1251,31
412,15	1290,22
412,36	1298,41
412,57	1204,21
412,77	1277,93
412,98	1294,32
413,19	1343,47
413,39	1249,26
413,60	1275,88
413,81	1316,84
414,01	1294,32
414,22	1292,27
414,43	1253,36
414,63	1282,03
414,84	1245,16
415,05	1288,17
415,25	1296,36
415,46	1218,54
415,67	1294,32
415,87	1222,64
416,08	1282,03
416,29	1265,64
416,49	1234,93
416,70	1306,60
416,91	1212,40
417,11	1216,49
417,32	1288,17
417,53	1288,17
417,73	1277,93
417,94	1308,65
418,15	1257,45
418,35	1253,36
418,56	1251,31
418,77	1275,88
418,97	1290,22
419,18	1294,32
419,38	1214,45
419,59	1318,89
419,80	1316,84
420,00	1249,26
420,21	1284,08
420,42	1300,46
420,62	1308,65
420,83	1273,84
421,04	1245,16
421,24	1271,79
421,45	1273,84
421,65	1310,70
421,86	1277,93
422,07	1320,94
422,27	1286,12
422,48	1253,36
422,69	1263,60
422,89	1241,07
423,10	1327,08
423,30	1294,32
423,51	1351,66
423,72	1222,64
423,92	1312,75
424,13	1220,59
424,33	1255,40
424,54	1247,21
424,75	1341,42
424,95	1259,50
425,16	1341,42
425,36	1216,49
425,57	1353,71
425,78	1269,74
425,98	1216,49
426,19	1247,21
426,39	1255,40
426,60	1241,07
426,81	1224,69
427,01	1249,26
427,22	1257,45
427,42	1247,21
427,63	1269,74
427,83	1320,94
428,04	1206,25
428,25	1284,08
428,45	1230,83
428,66	1288,17
428,86	1224,69
429,07	1318,89
429,28	1243,12
429,48	1271,79
429,69	1204,21
429,89	1335,28
430,10	1220,59
430,30	1175,53
430,51	1273,84
430,71	1249,26
430,92	1284,08
431,13	1275,88
431,33	1370,09
431,54	1247,21
431,74	1222,64
431,95	1316,84
432,15	1243,12
432,36	1251,31
432,56	1222,64
432,77	1200,11
432,98	1265,64
433,18	1302,51
433,39	1265,64
433,59	1310,70
433,80	1294,32
434,00	1288,17
434,21	1339,37
434,41	1261,55
434,62	1337,32
434,82	1298,41
435,03	1265,64
435,23	1234,93
435,44	1263,60
435,64	1245,16
435,85	1249,26
436,06	1312,75
436,26	1269,74
436,47	1249,26
436,67	1255,40
436,88	1253,36
437,08	1257,45
437,29	1245,16
437,49	1263,60
437,70	1296,36
437,90	1300,46
438,11	1302,51
438,31	1230,83
438,52	1277,93
438,72	1265,64
438,93	1335,28
439,13	1320,94
439,34	1224,69
439,54	1236,97
439,75	1308,65
439,95	1335,28
440,16	1304,56
440,36	1255,40
440,57	1347,56
440,77	1241,07
440,98	1232,88
441,18	1275,88
441,39	1318,89
441,59	1337,32
441,80	1284,08
442,00	1277,93
442,21	1339,37
442,41	1249,26
442,62	1318,89
442,82	1232,88
443,02	1232,88
443,23	1292,27
443,43	1284,08
443,64	1198,06
443,84	1236,97
444,05	1320,94
444,25	1325,04
444,46	1308,65
444,66	1255,40
444,87	1284,08
445,07	1320,94
445,28	1265,64
445,48	1282,03
445,69	1322,99
445,89	1300,46
446,09	1312,75
446,30	1206,25
446,50	1271,79
446,71	1269,74
446,91	1337,32
447,12	1292,27
447,32	1247,21
447,53	1259,50
447,73	1290,22
447,93	1282,03
448,14	1271,79
448,34	1245,16
448,55	1282,03
448,75	1308,65
448,96	1232,88
449,16	1306,60
449,36	1273,84
449,57	1216,49
449,77	1296,36
449,98	1318,89
450,18	1249,26
450,39	1222,64
450,59	1304,56
450,79	1261,55
451,00	1269,74
451,20	1325,04
451,41	1208,30
451,61	1298,41
451,81	1247,21
452,02	1234,93
452,22	1298,41
452,43	1230,83
452,63	1257,45
452,84	1236,97
453,04	1259,50
453,24	1294,32
453,45	1279,98
453,65	1234,93
453,86	1359,85
454,06	1288,17
454,26	1271,79
454,47	1253,36
454,67	1218,54
454,87	1179,63
455,08	1269,74
455,28	1245,16
455,49	1234,93
455,69	1298,41
455,89	1269,74
456,10	1341,42
456,30	1257,45
456,51	1239,02
456,71	1351,66
456,91	1224,69
457,12	1279,98
457,32	1269,74
457,52	1308,65
457,73	1267,69
457,93	1267,69
458,14	1286,12
458,34	1269,74
458,54	1251,31
458,75	1265,64
458,95	1271,79
459,15	1245,16
459,36	1259,50
459,56	1282,03
459,76	1212,40
459,97	1245,16
460,17	1310,70
460,37	1208,30
460,58	1212,40
460,78	1241,07
460,99	1265,64
461,19	1353,71
461,39	1263,60
461,60	1179,63
461,80	1292,27
462,00	1263,60
462,21	1308,65
462,41	1232,88
462,61	1312,75
462,82	1273,84
463,02	1366,00
463,22	1239,02
463,43	1331,18
463,63	1259,50
463,83	1277,93
464,04	1257,45
464,24	1259,50
464,44	1200,11
464,64	1314,80
464,85	1277,93
465,05	1290,22
465,25	1271,79
465,46	1232,88
465,66	1204,21
465,86	1290,22
466,07	1294,32
466,27	1263,60
466,47	1245,16
466,68	1277,93
466,88	1300,46
467,08	1306,60
467,29	1327,08
467,49	1327,08
467,69	1298,41
467,89	1284,08
468,10	1382,38
468,30	1265,64
468,50	1269,74
468,71	1279,98
468,91	1232,88
469,11	1341,42
469,31	1286,12
469,52	1255,40
469,72	1271,79
469,92	1292,27
470,13	1325,04
470,33	1259,50
470,53	1306,60
470,73	1294,32
470,94	1257,45
471,14	1212,40
471,34	1173,49
471,54	1232,88
471,75	1241,07
471,95	1183,73
472,15	1208,30
472,36	1298,41
472,56	1279,98
472,76	1275,88
472,96	1273,84
473,17	1216,49
473,37	1277,93
473,57	1247,21
473,77	1296,36
473,98	1273,84
474,18	1261,55
474,38	1343,47
474,58	1216,49
474,79	1329,13
474,99	1241,07
475,19	1243,12
475,39	1284,08
475,60	1259,50
475,80	1288,17
476,00	1265,64
476,20	1290,22
476,41	1347,56
476,61	1247,21
476,81	1314,80
477,01	1228,78
477,21	1308,65
477,42	1241,07
477,62	1339,37
477,82	1271,79
478,02	1259,50
478,23	1253,36
478,43	1234,93
478,63	1224,69
478,83	1284,08
479,03	1257,45
479,24	1173,49
479,44	1234,93
479,64	1327,08
479,84	1322,99
480,04	1239,02
480,25	1279,98
480,45	1335,28
480,65	1288,17
480,85	1273,84
481,06	1263,60
481,26	1302,51
481,46	1312,75
481,66	1241,07
481,86	1214,45
482,06	1312,75
482,27	1292,27
482,47	1382,38
482,67	1298,41
482,87	1308,65
483,07	1284,08
483,28	1290,22
483,48	1335,28
483,68	1284,08
483,88	1273,84
484,08	1234,93
484,29	1308,65
484,49	1312,75
484,69	1202,16
484,89	1277,93
485,09	1329,13
485,29	1220,59
485,50	1279,98
485,70	1261,55
485,90	1292,27
486,10	1206,25
486,30	1255,40
486,50	1288,17
486,71	1312,75
486,91	1284,08
487,11	1257,45
487,31	1288,17
487,51	1275,88
487,71	1265,64
487,91	1224,69
488,12	1322,99
488,32	1191,92
488,52	1347,56
488,72	1310,70
488,92	1265,64
489,12	1236,97
489,32	1282,03
489,53	1296,36
489,73	1302,51
489,93	1249,26
490,13	1273,84
490,33	1296,36
490,53	1286,12
490,73	1282,03
490,94	1296,36
491,14	1245,16
491,34	1257,45
491,54	1273,84
491,74	1296,36
491,94	1253,36
492,14	1314,80
492,34	1298,41
492,54	1314,80
492,75	1306,60
492,95	1288,17
493,15	1247,21
493,35	1257,45
493,55	1269,74
493,75	1277,93
493,95	1228,78
494,15	1232,88
494,35	1216,49
494,56	1292,27
494,76	1193,97
494,96	1286,12
495,16	1245,16
495,36	1275,88
495,56	1251,31
495,76	1198,06
495,96	1251,31
496,16	1310,70
496,36	1339,37
496,56	1249,26
496,77	1224,69
496,97	1214,45
497,17	1306,60
497,37	1284,08
497,57	1292,27
497,77	1286,12
497,97	1286,12
498,17	1234,93
498,37	1236,97
498,57	1302,51
498,77	1230,83
498,97	1279,98
499,17	1341,42
499,38	1290,22
499,58	1222,64
499,78	1253,36
499,98	1277,93
500,18	1263,60
500,38	1333,23
500,58	1189,87
500,78	1312,75
500,98	1241,07
501,18	1310,70
501,38	1341,42
501,58	1247,21
501,78	1275,88
501,98	1288,17
502,18	1263,60
502,38	1306,60
502,58	1275,88
502,78	1265,64
502,98	1275,88
503,18	1298,41
503,38	1312,75
503,59	1198,06
503,79	1216,49
503,99	1296,36
504,19	1382,38
504,39	1257,45
504,59	1232,88
504,79	1296,36
504,99	1271,79
505,19	1224,69
505,39	1275,88
505,59	1300,46
505,79	1228,78
505,99	1271,79
506,19	1320,94
506,39	1308,65
506,59	1247,21
506,79	1308,65
506,99	1234,93
507,19	1202,16
507,39	1275,88
507,59	1335,28
507,79	1312,75
507,99	1206,25
508,19	1218,54
508,39	1302,51
508,59	1290,22
508,79	1261,55
508,99	1236,97
509,19	1234,93
509,39	1284,08
509,59	1320,94
509,79	1243,12
509,99	1273,84
510,19	1279,98
510,39	1271,79
510,59	1228,78
510,79	1247,21
510,99	1288,17
511,19	1232,88
511,39	1335,28
511,59	1265,64
511,79	1277,93
511,99	1249,26
512,19	1228,78
512,38	1257,45
512,58	1251,31
512,78	1306,60
512,98	1382,38
513,18	1200,11
513,38	1224,69
513,58	1331,18
513,78	1257,45
513,98	1265,64
514,18	1239,02
514,38	1226,73
514,58	1261,55
514,78	1347,56
514,98	1167,34
515,18	1224,69
515,38	1239,02
515,58	1245,16
515,78	1290,22
515,98	1288,17
516,18	1271,79
516,38	1322,99
516,57	1288,17
516,77	1255,40
516,97	1284,08
517,17	1255,40
517,37	1265,64
517,57	1277,93
517,77	1253,36
517,97	1202,16
518,17	1277,93
518,37	1288,17
518,57	1355,76
518,77	1269,74
518,97	1218,54
519,16	1251,31
519,36	1271,79
519,56	1222,64
519,76	1269,74
519,96	1269,74
520,16	1253,36
520,36	1308,65
520,56	1282,03
520,76	1282,03
520,96	1259,50
521,16	1224,69
521,35	1282,03
521,55	1249,26
521,75	1251,31
521,95	1296,36
522,15	1251,31
522,35	1275,88
522,55	1245,16
522,75	1320,94
522,95	1214,45
523,14	1216,49
523,34	1325,04
523,54	1234,93
523,74	1308,65
523,94	1263,60
524,14	1273,84
524,34	1234,93
524,54	1277,93
524,73	1263,60
524,93	1290,22
525,13	1267,69
525,33	1284,08
525,53	1271,79
525,73	1263,60
525,93	1245,16
526,13	1228,78
526,32	1224,69
526,52	1253,36
526,72	1357,80
526,92	1318,89
527,12	1261,55
527,32	1212,40
527,52	1247,21
527,71	1257,45
527,91	1245,16
528,11	1257,45
528,31	1277,93
528,51	1236,97
528,71	1245,16
528,90	1234,93
529,10	1302,51
529,30	1257,45
529,50	1257,45
529,70	1265,64
529,90	1300,46
530,09	1277,93
530,29	1286,12
530,49	1277,93
530,69	1245,16
530,89	1322,99
531,09	1279,98
531,28	1263,60
531,48	1269,74
531,68	1239,02
531,88	1335,28
532,08	1300,46
532,28	1249,26
532,47	1198,06
532,67	1261,55
532,87	1259,50
533,07	1234,93
533,27	1232,88
533,46	1392,62
533,66	1294,32
533,86	1216,49
534,06	1355,76
534,26	1320,94
534,45	1259,50
534,65	1306,60
534,85	1363,95
535,05	1255,40
535,25	1243,12
535,44	1263,60
535,64	1245,16
535,84	1290,22
536,04	1261,55
536,24	1251,31
536,43	1282,03
536,63	1366,00
536,83	1267,69
537,03	1169,39
537,22	1232,88
537,42	1259,50
537,62	1267,69
537,82	1236,97
538,02	1226,73
538,21	1349,61
538,41	1298,41
538,61	1277,93
538,81	1193,97
539,00	1304,56
539,20	1228,78
539,40	1282,03
539,60	1261,55
539,79	1257,45
539,99	1253,36
540,19	1302,51
540,39	1314,80
540,58	1271,79
540,78	1308,65
540,98	1216,49
541,18	1153,01
541,37	1265,64
541,57	1329,13
541,77	1306,60
541,97	1296,36
542,16	1337,32
542,36	1292,27
542,56	1247,21
542,76	1335,28
542,95	1265,64
543,15	1265,64
543,35	1249,26
543,54	1257,45
543,74	1232,88
543,94	1241,07
544,14	1247,21
544,33	1292,27
544,53	1294,32
544,73	1269,74
544,93	1314,80
545,12	1259,50
545,32	1296,36
545,52	1191,92
545,71	1267,69
545,91	1216,49
546,11	1286,12
546,30	1265,64
546,50	1284,08
546,70	1228,78
546,90	1296,36
547,09	1198,06
547,29	1228,78
547,49	1273,84
547,68	1279,98
547,88	1236,97
548,08	1239,02
548,27	1290,22
548,47	1368,04
548,67	1198,06
548,87	1259,50
549,06	1193,97
549,26	1298,41
549,46	1261,55
549,65	1259,50
549,85	1245,16
550,05	1275,88
550,24	1325,04
550,44	1333,23
550,64	1298,41
550,83	1259,50
551,03	1337,32
551,23	1273,84
551,42	1277,93
551,62	1255,40
551,82	1263,60
552,01	1298,41
552,21	1345,52
552,41	1312,75
552,60	1322,99
552,80	1232,88
553,00	1290,22
553,19	1263,60
553,39	1284,08
553,59	1290,22
553,78	1243,12
553,98	1310,70
554,17	1226,73
554,37	1370,09
554,57	1214,45
554,76	1243,12
554,96	1236,97
555,16	1249,26
555,35	1259,50
555,55	1267,69
555,75	1269,74
555,94	1247,21
556,14	1247,21
556,33	1282,03
556,53	1284,08
556,73	1277,93
556,92	1279,98
557,12	1200,11
557,32	1261,55
557,51	1263,60
557,71	1224,69
557,90	1314,80
558,10	1290,22
558,30	1312,75
558,49	1277,93
558,69	1277,93
558,88	1234,93
559,08	1247,21
559,28	1265,64
559,47	1216,49
559,67	1286,12
559,86	1288,17
560,06	1239,02
560,26	1241,07
560,45	1206,25
560,65	1277,93
560,84	1290,22
561,04	1245,16
561,24	1261,55
561,43	1259,50
561,63	1269,74
561,82	1255,40
562,02	1253,36
562,22	1255,40
562,41	1251,31
562,61	1257,45
562,80	1247,21
563,00	1339,37
563,19	1282,03
563,39	1239,02
563,59	1236,97
563,78	1255,40
563,98	1277,93
564,17	1290,22
564,37	1189,87
564,56	1232,88
564,76	1226,73
564,96	1288,17
565,15	1292,27
565,35	1220,59
565,54	1296,36
565,74	1267,69
565,93	1277,93
566,13	1251,31
566,32	1312,75
566,52	1206,25
566,71	1245,16
566,91	1261,55
567,11	1300,46
567,30	1257,45
567,50	1306,60
567,69	1341,42
567,89	1318,89
568,08	1267,69
568,28	1234,93
568,47	1230,83
568,67	1310,70
568,86	1218,54
569,06	1296,36
569,25	1263,60
569,45	1253,36
569,64	1261,55
569,84	1196,01
570,04	1273,84
570,23	1273,84
570,43	1249,26
570,62	1212,40
570,82	1249,26
571,01	1284,08
571,21	1335,28
571,40	1243,12
571,60	1273,84
571,79	1249,26
571,99	1286,12
572,18	1261,55
572,38	1288,17
572,57	1230,83
572,77	1202,16
572,96	1345,52
573,16	1249,26
573,35	1363,95
573,55	1269,74
573,74	1306,60
573,94	1265,64
574,13	1273,84
574,33	1331,18
574,52	1318,89
574,71	1226,73
574,91	1228,78
575,10	1247,21
575,30	1277,93
575,49	1308,65
575,69	1372,14
575,88	1273,84
576,08	1304,56
576,27	1249,26
576,47	1253,36
576,66	1329,13
576,86	1230,83
577,05	1314,80
577,25	1239,02
577,44	1306,60
577,64	1290,22
577,83	1271,79
578,02	1308,65
578,22	1343,47
578,41	1308,65
578,61	1343,47
578,80	1218,54
579,00	1290,22
579,19	1318,89
579,39	1329,13
579,58	1302,51
579,77	1286,12
579,97	1236,97
580,16	1243,12
580,36	1136,62
580,55	1351,66
580,75	1232,88
580,94	1290,22
581,13	1263,60
581,33	1232,88
581,52	1216,49
581,72	1337,32
581,91	1214,45
582,11	1275,88
582,30	1300,46
582,49	1312,75
582,69	1257,45
582,88	1290,22
583,08	1253,36
583,27	1269,74
583,47	1214,45
583,66	1224,69
583,85	1210,35
584,05	1241,07
584,24	1335,28
584,44	1259,50
584,63	1245,16
584,82	1286,12
585,02	1316,84
585,21	1286,12
585,41	1257,45
585,60	1327,08
585,79	1325,04
585,99	1257,45
586,18	1210,35
586,37	1224,69
586,57	1302,51
586,76	1275,88
586,96	1288,17
587,15	1296,36
587,34	1345,52
587,54	1335,28
587,73	1284,08
587,93	1265,64
588,12	1290,22
588,31	1247,21
588,51	1290,22
588,70	1288,17
588,89	1239,02
589,09	1339,37
589,28	1271,79
589,47	1288,17
589,67	1322,99
589,86	1265,64
590,06	1245,16
590,25	1253,36
590,44	1300,46
590,64	1257,45
590,83	1222,64
591,02	1269,74
591,22	1277,93
591,41	1277,93
591,60	1290,22
591,80	1222,64
591,99	1300,46
592,18	1310,70
592,38	1267,69
592,57	1310,70
592,76	1302,51
592,96	1286,12
593,15	1236,97
593,34	1300,46
593,54	1322,99
593,73	1277,93
593,92	1296,36
594,12	1306,60
594,31	1322,99
594,50	1239,02
594,70	1236,97
594,89	1282,03
595,08	1212,40
595,28	1220,59
595,47	1267,69
595,66	1341,42
595,86	1236,97
596,05	1216,49
596,24	1232,88
596,43	1306,60
596,63	1232,88
596,82	1372,14
597,01	1298,41
597,21	1296,36
597,40	1265,64
597,59	1294,32
597,79	1261,55
597,98	1357,80
598,17	1322,99
598,36	1322,99
598,56	1284,08
598,75	1277,93
598,94	1236,97
599,14	1261,55
599,33	1255,40
599,52	1273,84
599,71	1290,22
599,91	1239,02
600,10	1226,73
600,29	1284,08
600,48	1277,93
600,68	1247,21
600,87	1284,08
601,06	1290,22
601,26	1275,88
601,45	1290,22
601,64	1339,37
601,83	1290,22
602,03	1277,93
602,22	1245,16
602,41	1304,56
602,60	1259,50
602,80	1257,45
602,99	1370,09
603,18	1282,03
603,37	1253,36
603,57	1302,51
603,76	1329,13
603,95	1329,13
604,14	1331,18
604,34	1275,88
604,53	1208,30
604,72	1247,21
604,91	1236,97
605,10	1245,16
605,30	1288,17
605,49	1318,89
605,68	1267,69
605,87	1265,64
606,07	1366,00
606,26	1327,08
606,45	1292,27
606,64	1294,32
606,84	1368,04
607,03	1269,74
607,22	1263,60
607,41	1302,51
607,60	1255,40
607,80	1251,31
607,99	1263,60
608,18	1300,46
608,37	1310,70
608,56	1247,21
608,76	1200,11
608,95	1261,55
609,14	1333,23
609,33	1345,52
609,52	1251,31
609,72	1232,88
609,91	1247,21
610,10	1239,02
610,29	1228,78
610,48	1314,80
610,68	1208,30
610,87	1226,73
611,06	1284,08
611,25	1277,93
611,44	1263,60
611,63	1222,64
611,83	1322,99
612,02	1279,98
612,21	1284,08
612,40	1261,55
612,59	1277,93
612,79	1245,16
612,98	1282,03
613,17	1239,02
613,36	1314,80
613,55	1331,18
613,74	1277,93
613,93	1232,88
614,13	1318,89
614,32	1277,93
614,51	1404,91
614,70	1232,88
614,89	1245,16
615,08	1245,16
615,28	1345,52
615,47	1271,79
615,66	1282,03
615,85	1263,60
616,04	1212,40
616,23	1245,16
616,42	1265,64
616,62	1257,45
616,81	1325,04
617,00	1318,89
617,19	1277,93
617,38	1236,97
617,57	1236,97
617,76	1298,41
617,95	1343,47
618,15	1202,16
618,34	1230,83
618,53	1314,80
618,72	1292,27
618,91	1202,16
619,10	1249,26
619,29	1271,79
619,48	1290,22
619,68	1220,59
619,87	1282,03
620,06	1257,45
620,25	1241,07
620,44	1298,41
620,63	1282,03
620,82	1277,93
621,01	1253,36
621,20	1247,21
621,39	1245,16
621,59	1232,88
621,78	1212,40
621,97	1372,14
622,16	1347,56
622,35	1279,98
622,54	1247,21
622,73	1216,49
622,92	1302,51
623,11	1325,04
623,30	1288,17
623,49	1214,45
623,68	1318,89
623,88	1322,99
624,07	1316,84
624,26	1267,69
624,45	1294,32
624,64	1298,41
624,83	1294,32
625,02	1298,41
625,21	1329,13
625,40	1239,02
625,59	1343,47
625,78	1288,17
625,97	1327,08
626,16	1318,89
626,35	1271,79
626,54	1333,23
626,74	1286,12
626,93	1351,66
627,12	1333,23
627,31	1290,22
627,50	1298,41
627,69	1269,74
627,88	1249,26
628,07	1236,97
628,26	1312,75
628,45	1282,03
628,64	1230,83
628,83	1255,40
629,02	1316,84
629,21	1239,02
629,40	1218,54
629,59	1273,84
629,78	1288,17
629,97	1298,41
630,16	1271,79
630,35	1261,55
630,54	1314,80
630,73	1286,12
630,92	1314,80
631,11	1277,93
631,30	1318,89
631,49	1396,71
631,68	1482,73
631,87	1568,74
632,06	1710,05
632,25	1550,31
632,44	1638,38
632,63	1628,14
632,82	1519,59
633,01	1593,32
633,20	1517,54
633,39	1665,00
633,58	1673,19
633,77	1556,46
633,96	1648,61
634,15	1648,61
634,34	1689,57
634,53	1630,18
634,72	1675,24
634,91	1689,57
635,10	1691,62
635,29	1769,44
635,48	1720,29
635,67	1574,89
635,86	1673,19
636,05	1615,85
636,24	1628,14
636,43	1613,80
636,62	1597,42
636,81	1572,84
637,00	1484,78
637,19	1396,71
637,38	1476,59
637,57	1347,56
637,76	1423,34
637,95	1343,47
638,14	1341,42
638,33	1284,08
638,52	1279,98
638,71	1226,73
638,89	1320,94
639,08	1318,89
639,27	1306,60
639,46	1243,12
639,65	1320,94
639,84	1265,64
640,03	1329,13
640,22	1247,21
640,41	1300,46
640,60	1304,56
640,79	1275,88
640,98	1325,04
641,17	1255,40
641,36	1277,93
641,55	1279,98
641,74	1253,36
641,92	1232,88
642,11	1241,07
642,30	1249,26
642,49	1267,69
642,68	1216,49
642,87	1320,94
643,06	1370,09
643,25	1300,46
643,44	1275,88
643,63	1216,49
643,82	1259,50
644,00	1253,36
644,19	1335,28
644,38	1292,27
644,57	1302,51
644,76	1290,22
644,95	1329,13
645,14	1325,04
645,33	1316,84
645,52	1333,23
645,71	1261,55
645,89	1245,16
646,08	1292,27
646,27	1210,35
646,46	1249,26
646,65	1232,88
646,84	1304,56
647,03	1249,26
647,22	1339,37
647,40	1325,04
647,59	1308,65
647,78	1279,98
647,97	1290,22
648,16	1236,97
648,35	1370,09
648,54	1269,74
648,73	1314,80
648,91	1202,16
649,10	1236,97
649,29	1312,75
649,48	1314,80
649,67	1257,45
649,86	1298,41
650,05	1230,83
650,23	1279,98
650,42	1294,32
650,61	1273,84
650,80	1265,64
650,99	1257,45
651,18	1265,64
651,36	1294,32
651,55	1333,23
651,74	1263,60
651,93	1282,03
652,12	1232,88
652,31	1206,25
652,49	1255,40
652,68	1290,22
652,87	1320,94
653,06	1314,80
653,25	1216,49
653,44	1230,83
653,62	1263,60
653,81	1277,93
654,00	1277,93
654,19	1339,37
654,38	1304,56
654,56	1251,31
654,75	1230,83
654,94	1286,12
655,13	1292,27
655,32	1249,26
655,51	1245,16
655,69	1249,26
655,88	1294,32
656,07	1243,12
656,26	1241,07
656,45	1286,12
656,63	1310,70
656,82	1335,28
657,01	1259,50
657,20	1261,55
657,38	1343,47
657,57	1150,96
657,76	1306,60
657,95	1265,64
658,14	1202,16
658,32	1337,32
658,51	1214,45
658,70	1224,69
658,89	1224,69
659,08	1257,45
659,26	1265,64
659,45	1204,21
659,64	1312,75
659,83	1259,50
660,01	1261,55
660,20	1273,84
660,39	1265,64
660,58	1290,22
660,76	1314,80
660,95	1320,94
661,14	1286,12
661,33	1261,55
661,51	1269,74
661,70	1232,88
661,89	1239,02
662,08	1228,78
662,26	1327,08
662,45	1257,45
662,64	1257,45
662,83	1331,18
663,01	1220,59
663,20	1210,35
663,39	1288,17
663,58	1202,16
663,76	1255,40
663,95	1210,35
664,14	1306,60
664,32	1302,51
664,51	1312,75
664,70	1204,21
664,89	1308,65
665,07	1279,98
665,26	1214,45
665,45	1269,74
665,64	1286,12
665,82	1208,30
666,01	1212,40
666,20	1275,88
666,38	1251,31
666,57	1271,79
666,76	1265,64
666,95	1269,74
667,13	1224,69
667,32	1322,99
667,51	1320,94
667,69	1232,88
667,88	1290,22
668,07	1241,07
668,25	1214,45
668,44	1279,98
668,63	1306,60
668,81	1241,07
669,00	1251,31
669,19	1286,12
669,38	1261,55
669,56	1279,98
669,75	1273,84
669,94	1239,02
670,12	1257,45
670,31	1306,60
670,50	1259,50
670,68	1308,65
670,87	1210,35
671,06	1294,32
671,24	1171,44
671,43	1286,12
671,62	1294,32
671,80	1282,03
671,99	1304,56
672,18	1288,17
672,36	1249,26
672,55	1269,74
672,74	1273,84
672,92	1322,99
673,11	1257,45
673,29	1224,69
673,48	1304,56
673,67	1261,55
673,85	1298,41
674,04	1249,26
674,23	1335,28
674,41	1261,55
674,60	1357,80
674,79	1204,21
674,97	1218,54
675,16	1259,50
675,34	1279,98
675,53	1265,64
675,72	1320,94
675,90	1243,12
676,09	1294,32
676,28	1236,97
676,46	1298,41
676,65	1325,04
676,83	1255,40
677,02	1245,16
677,21	1255,40
677,39	1271,79
677,58	1230,83
677,77	1222,64
677,95	1327,08
678,14	1259,50
678,32	1327,08
678,51	1320,94
678,70	1296,36
678,88	1249,26
679,07	1294,32
679,25	1230,83
679,44	1306,60
679,63	1253,36
679,81	1277,93
680,00	1273,84
680,18	1198,06
680,37	1304,56
680,55	1294,32
680,74	1273,84
680,93	1286,12
681,11	1241,07
681,30	1239,02
681,48	1292,27
681,67	1265,64
681,85	1259,50
682,04	1337,32
682,23	1286,12
682,41	1261,55
682,60	1277,93
682,78	1251,31
682,97	1208,30
683,15	1282,03
683,34	1282,03
683,53	1265,64
683,71	1300,46
683,90	1322,99
684,08	1239,02
684,27	1265,64
684,45	1243,12
684,64	1261,55
684,82	1249,26
685,01	1316,84
685,19	1204,21
685,38	1279,98
685,57	1196,01
685,75	1277,93
685,94	1298,41
686,12	1282,03
686,31	1314,80
686,49	1259,50
686,68	1157,10
686,86	1216,49
687,05	1357,80
687,23	1300,46
687,42	1263,60
687,60	1265,64
687,79	1294,32
687,97	1282,03
688,16	1279,98
688,34	1331,18
688,53	1224,69
688,71	1251,31
688,90	1282,03
689,08	1230,83
689,27	1228,78
689,45	1189,87
689,64	1296,36
689,82	1249,26
690,01	1353,71
690,19	1241,07
690,38	1290,22
690,56	1224,69
690,75	1282,03
690,93	1249,26
691,12	1251,31
691,30	1292,27
691,49	1322,99
691,67	1308,65
691,86	1286,12
692,04	1306,60
692,23	1310,70
692,41	1282,03
692,60	1271,79
692,78	1234,93
692,97	1218,54
693,15	1384,43
693,34	1241,07
693,52	1269,74
693,71	1368,04
693,89	1298,41
694,08	1277,93
694,26	1271,79
694,44	1320,94
694,63	1265,64
694,81	1304,56
695,00	1255,40
695,18	1298,41
695,37	1306,60
695,55	1310,70
695,74	1277,93
695,92	1222,64
696,10	1306,60
696,29	1247,21
696,47	1206,25
696,66	1245,16
696,84	1232,88
697,03	1298,41
697,21	1337,32
697,40	1294,32
697,58	1271,79
697,76	1259,50
697,95	1265,64
698,13	1390,57
698,32	1279,98
698,50	1183,73
698,68	1249,26
698,87	1249,26
699,05	1226,73
699,24	1259,50
699,42	1341,42
699,61	1265,64
699,79	1282,03
699,97	1232,88
700,16	1292,27
700,34	1263,60
700,53	1273,84
700,71	1249,26
700,89	1273,84
701,08	1222,64
701,26	1271,79
701,45	1314,80
701,63	1224,69
701,81	1216,49
702,00	1277,93
702,18	1216,49
702,37	1298,41
702,55	1232,88
702,73	1241,07
702,92	1302,51
703,10	1316,84
703,28	1179,63
703,47	1251,31
703,65	1251,31
703,84	1259,50
704,02	1279,98
704,20	1331,18
704,39	1146,86
704,57	1263,60
704,75	1232,88
704,94	1183,73
705,12	1275,88
705,30	1277,93
705,49	1218,54
705,67	1279,98
705,86	1320,94
706,04	1294,32
706,22	1320,94
706,41	1236,97
706,59	1253,36
706,77	1204,21
706,96	1341,42
707,14	1357,80
707,32	1306,60
707,51	1253,36
707,69	1224,69
707,87	1294,32
708,06	1241,07
708,24	1271,79
708,42	1269,74
708,61	1261,55
708,79	1239,02
708,97	1243,12
709,16	1236,97
709,34	1279,98
709,52	1247,21
709,71	1183,73
709,89	1259,50
710,07	1314,80
710,26	1247,21
710,44	1341,42
710,62	1296,36
710,80	1222,64
710,99	1216,49
711,17	1312,75
711,35	1294,32
711,54	1343,47
711,72	1222,64
711,90	1331,18
712,09	1273,84
712,27	1273,84
712,45	1220,59
712,63	1286,12
712,82	1253,36
713,00	1271,79
713,18	1198,06
713,37	1208,30
713,55	1275,88
713,73	1243,12
713,91	1253,36
714,10	1337,32
714,28	1224,69
714,46	1298,41
714,65	1320,94
714,83	1306,60
715,01	1290,22
715,19	1296,36
715,38	1212,40
715,56	1269,74
715,74	1267,69
715,92	1269,74
716,11	1271,79
716,29	1236,97
716,47	1263,60
716,65	1288,17
716,84	1273,84
717,02	1265,64
717,20	1314,80
717,38	1306,60
717,57	1279,98
717,75	1249,26
717,93	1273,84
718,11	1304,56
718,30	1325,04
718,48	1300,46
718,66	1333,23
718,84	1284,08
719,03	1306,60
719,21	1337,32
719,39	1292,27
719,57	1372,14
719,75	1316,84
719,94	1257,45
720,12	1249,26
720,30	1263,60
720,48	1296,36
720,67	1269,74
720,85	1286,12
721,03	1308,65
721,21	1224,69
721,39	1314,80
721,58	1271,79
721,76	1230,83
721,94	1249,26
722,12	1265,64
722,30	1337,32
722,49	1284,08
722,67	1251,31
722,85	1245,16
723,03	1191,92
723,21	1236,97
723,40	1304,56
723,58	1277,93
723,76	1273,84
723,94	1294,32
724,12	1234,93
724,30	1337,32
724,49	1304,56
724,67	1273,84
724,85	1249,26
725,03	1241,07
725,21	1290,22
725,40	1230,83
725,58	1271,79
725,76	1300,46
725,94	1275,88
726,12	1298,41
726,30	1222,64
726,49	1253,36
726,67	1239,02
726,85	1261,55
727,03	1277,93
727,21	1279,98
727,39	1343,47
727,57	1294,32
727,76	1296,36
727,94	1343,47
728,12	1249,26
728,30	1251,31
728,48	1304,56
728,66	1298,41
728,84	1273,84
729,03	1234,93
729,21	1314,80
729,39	1288,17
729,57	1261,55
729,75	1249,26
729,93	1296,36
730,11	1239,02
730,30	1247,21
730,48	1234,93
730,66	1275,88
730,84	1327,08
731,02	1318,89
731,20	1292,27
731,38	1253,36
731,56	1290,22
731,74	1316,84
731,93	1304,56
732,11	1308,65
732,29	1261,55
732,47	1308,65
732,65	1329,13
732,83	1327,08
733,01	1269,74
733,19	1230,83
733,37	1269,74
733,56	1343,47
733,74	1220,59
733,92	1267,69
734,10	1288,17
734,28	1288,17
734,46	1251,31
734,64	1263,60
734,82	1265,64
735,00	1253,36
735,18	1263,60
735,36	1302,51
735,54	1306,60
735,73	1316,84
735,91	1310,70
736,09	1284,08
736,27	1302,51
736,45	1255,40
736,63	1247,21
736,81	1286,12
736,99	1277,93
737,17	1312,75
737,35	1298,41
737,53	1265,64
737,71	1310,70
737,89	1232,88
738,07	1261,55
738,25	1236,97
738,43	1292,27
738,61	1214,45
738,80	1271,79
738,98	1259,50
739,16	1292,27
739,34	1312,75
739,52	1333,23
739,70	1306,60
739,88	1247,21
740,06	1251,31
740,24	1255,40
740,42	1327,08
740,60	1292,27
740,78	1255,40
740,96	1302,51
741,14	1312,75
741,32	1318,89
741,50	1228,78
741,68	1282,03
741,86	1200,11
742,04	1228,78
742,22	1304,56
742,40	1306,60
742,58	1228,78
742,76	1255,40
742,94	1286,12
743,12	1337,32
743,30	1288,17
743,48	1165,29
743,66	1263,60
743,84	1253,36
744,02	1263,60
744,20	1300,46
744,38	1257,45
744,56	1298,41
744,74	1259,50
744,92	1306,60
745,10	1284,08
745,28	1355,76
745,46	1279,98
745,64	1269,74
745,82	1216,49
746,00	1230,83
746,18	1247,21
746,36	1241,07
746,54	1200,11
746,72	1247,21
746,90	1191,92
747,08	1249,26
747,26	1304,56
747,44	1277,93
747,62	1263,60
747,80	1294,32
747,98	1284,08
748,15	1273,84
748,33	1304,56
748,51	1243,12
748,69	1253,36
748,87	1314,80
749,05	1282,03
749,23	1255,40
749,41	1263,60
749,59	1222,64
749,77	1267,69
749,95	1220,59
750,13	1220,59
750,31	1279,98
750,49	1263,60
750,67	1279,98
750,85	1284,08
751,03	1318,89
751,20	1302,51
751,38	1245,16
751,56	1236,97
751,74	1165,29
751,92	1245,16
752,10	1282,03
752,28	1331,18
752,46	1282,03
752,64	1282,03
752,82	1255,40
753,00	1296,36
753,18	1241,07
753,35	1255,40
753,53	1275,88
753,71	1286,12
753,89	1314,80
754,07	1304,56
754,25	1212,40
754,43	1230,83
754,61	1284,08
754,79	1335,28
754,97	1327,08
755,14	1308,65
755,32	1271,79
755,50	1259,50
755,68	1255,40
755,86	1322,99
756,04	1271,79
756,22	1279,98
756,40	1335,28
756,57	1351,66
756,75	1265,64
756,93	1265,64
757,11	1308,65
757,29	1288,17
757,47	1314,80
757,65	1234,93
757,82	1243,12
758,00	1224,69
758,18	1318,89
758,36	1261,55
758,54	1296,36
758,72	1226,73
758,90	1261,55
759,07	1251,31
759,25	1312,75
759,43	1282,03
759,61	1253,36
759,79	1302,51
759,97	1277,93
760,15	1284,08
760,32	1259,50
760,50	1325,04
760,68	1279,98
760,86	1310,70
761,04	1286,12
761,22	1296,36
761,39	1241,07
761,57	1261,55
761,75	1234,93
761,93	1310,70
762,11	1351,66
762,28	1251,31
762,46	1263,60
762,64	1234,93
762,82	1286,12
763,00	1273,84
763,18	1312,75
763,35	1275,88
763,53	1294,32
763,71	1239,02
763,89	1196,01
764,07	1239,02
764,24	1353,71
764,42	1308,65
764,60	1263,60
764,78	1277,93
764,96	1269,74
765,13	1318,89
765,31	1316,84
765,49	1267,69
765,67	1312,75
765,84	1290,22
766,02	1269,74
766,20	1312,75
766,38	1263,60
766,56	1239,02
766,73	1341,42
766,91	1284,08
767,09	1232,88
767,27	1277,93
767,44	1308,65
767,62	1284,08
767,80	1224,69
767,98	1259,50
768,15	1308,65
768,33	1224,69
768,51	1261,55
768,69	1359,85
768,87	1335,28
769,04	1267,69
769,22	1232,88
769,40	1249,26
769,58	1306,60
769,75	1261,55
769,93	1265,64
770,11	1302,51
770,28	1208,30
770,46	1282,03
770,64	1282,03
770,82	1273,84
770,99	1249,26
771,17	1269,74
771,35	1263,60
771,53	1259,50
771,70	1333,23
771,88	1298,41
772,06	1306,60
772,23	1296,36
772,41	1271,79
772,59	1294,32
772,77	1239,02
772,94	1220,59
773,12	1282,03
773,30	1277,93
773,47	1296,36
773,65	1265,64
773,83	1220,59
774,01	1298,41
774,18	1243,12
774,36	1279,98
774,54	1253,36
774,71	1290,22
774,89	1257,45
775,07	1286,12
775,24	1314,80
775,42	1208,30
775,60	1253,36
775,78	1316,84
775,95	1236,97
776,13	1302,51
776,31	1216,49
776,48	1261,55
776,66	1347,56
776,84	1290,22
777,01	1230,83
777,19	1282,03
777,37	1257,45
777,54	1251,31
777,72	1316,84
777,90	1259,50
778,07	1265,64
778,25	1308,65
778,43	1296,36
778,60	1247,21
778,78	1300,46
778,96	1273,84
779,13	1282,03
779,31	1329,13
779,49	1308,65
779,66	1226,73
779,84	1265,64
780,01	1292,27
780,19	1333,23
780,37	1249,26
780,54	1337,32
780,72	1294,32
780,90	1275,88
781,07	1241,07
781,25	1290,22
781,43	1308,65
781,60	1222,64
781,78	1302,51
781,95	1370,09
782,13	1253,36
782,31	1259,50
782,48	1247,21
782,66	1273,84
782,83	1306,60
783,01	1239,02
783,19	1275,88
783,36	1335,28
783,54	1212,40
783,72	1249,26
783,89	1183,73
784,07	1267,69
784,24	1302,51
784,42	1253,36
784,60	1234,93
784,77	1286,12
784,95	1239,02
785,12	1271,79
785,30	1327,08
785,47	1269,74
785,65	1292,27
785,83	1306,60
786,00	1245,16
786,18	1298,41
786,35	1296,36
786,53	1273,84
786,71	1286,12
786,88	1269,74
787,06	1327,08
787,23	1247,21
787,41	1329,13
787,58	1378,28
787,76	1292,27
787,94	1294,32
788,11	1228,78
788,29	1320,94
788,46	1241,07
788,64	1259,50
788,81	1265,64
788,99	1263,60
789,16	1187,82
789,34	1267,69
789,52	1273,84
789,69	1263,60
789,87	1247,21
790,04	1314,80
790,22	1265,64
790,39	1310,70
790,57	1226,73
790,74	1273,84
790,92	1255,40
791,09	1312,75
791,27	1302,51
791,44	1220,59
791,62	1269,74
791,79	1273,84
791,97	1329,13
792,15	1255,40
792,32	1282,03
792,50	1302,51
792,67	1245,16
792,85	1320,94
793,02	1257,45
793,20	1255,40
793,37	1259,50
793,55	1226,73
793,72	1249,26
793,90	1193,97
794,07	1347,56
794,25	1298,41
794,42	1232,88
794,60	1214,45
794,77	1282,03
794,95	1249,26
795,12	1290,22
795,30	1161,20
795,47	1284,08
795,65	1263,60
795,82	1308,65
796,00	1277,93
796,17	1349,61
796,34	1200,11
796,52	1282,03
796,69	1292,27
796,87	1374,19
797,04	1298,41
797,22	1198,06
797,39	1331,18
797,57	1304,56
797,74	1349,61
797,92	1271,79
798,09	1282,03
798,27	1193,97
798,44	1249,26
798,62	1296,36
798,79	1337,32
798,96	1236,97
799,14	1261,55
799,31	1290,22
799,49	1308,65
799,66	1292,27
799,84	1308,65
800,01	1345,52
800,19	1284,08
800,36	1261,55
800,53	1345,52
800,71	1191,92
800,88	1284,08
801,06	1253,36
801,23	1253,36
801,41	1286,12
801,58	1304,56
801,75	1302,51
801,93	1277,93
802,10	1249,26
802,28	1310,70
802,45	1267,69
802,63	1304,56
802,80	1257,45
802,97	1243,12
803,15	1292,27
803,32	1288,17
803,50	1271,79
803,67	1251,31
803,84	1249,26
804,02	1232,88
804,19	1277,93
804,37	1298,41
804,54	1282,03
804,71	1316,84
804,89	1255,40
805,06	1282,03
805,24	1300,46
805,41	1286,12
805,58	1314,80
805,76	1247,21
805,93	1269,74
806,10	1218,54
806,28	1257,45
806,45	1333,23
806,63	1251,31
806,80	1312,75
806,97	1288,17
807,15	1290,22
807,32	1257,45
807,49	1277,93
807,67	1228,78
807,84	1271,79
808,01	1261,55
808,19	1314,80
808,36	1282,03
808,54	1366,00
808,71	1236,97
808,88	1210,35
809,06	1216,49
809,23	1337,32
809,40	1282,03
809,58	1300,46
809,75	1290,22
809,92	1347,56
810,10	1322,99
810,27	1314,80
810,44	1171,44
810,62	1294,32
810,79	1251,31
810,96	1241,07
811,14	1288,17
811,31	1288,17
811,48	1271,79
811,66	1298,41
811,83	1357,80
812,00	1257,45
812,18	1292,27
812,35	1304,56
812,52	1220,59
812,69	1265,64
812,87	1243,12
813,04	1224,69
813,21	1265,64
813,39	1216,49
813,56	1232,88
813,73	1341,42
813,91	1290,22
814,08	1312,75
814,25	1255,40
814,42	1331,18
814,60	1288,17
814,77	1261,55
814,94	1286,12
815,12	1312,75
815,29	1234,93
815,46	1288,17
815,63	1208,30
815,81	1228,78
815,98	1267,69
816,15	1273,84
816,33	1286,12
816,50	1279,98
816,67	1288,17
816,84	1277,93
817,02	1249,26
817,19	1292,27
817,36	1239,02
817,53	1288,17
817,71	1187,82
817,88	1249,26
818,05	1255,40
818,22	1286,12
818,40	1300,46
818,57	1288,17
818,74	1175,53
818,91	1214,45
819,09	1302,51
819,26	1284,08
819,43	1304,56
819,60	1236,97
819,78	1284,08
819,95	1316,84
820,12	1226,73
820,29	1257,45
820,47	1259,50
820,64	1294,32
820,81	1279,98
820,98	1232,88
821,15	1284,08
821,33	1341,42
821,50	1224,69
821,67	1253,36
821,84	1286,12
822,02	1277,93
822,19	1267,69
822,36	1226,73
822,53	1300,46
822,70	1196,01
822,88	1310,70
823,05	1265,64
823,22	1271,79
823,39	1228,78
823,56	1269,74
823,74	1273,84
823,91	1286,12
824,08	1308,65
824,25	1294,32
824,42	1294,32
824,60	1294,32
824,77	1333,23
824,94	1312,75
825,11	1320,94
825,28	1257,45
825,45	1265,64
825,63	1263,60
825,80	1339,37
825,97	1267,69
826,14	1361,90
826,31	1265,64
826,48	1298,41
826,66	1310,70
826,83	1243,12
827,00	1253,36
827,17	1265,64
827,34	1189,87
827,51	1279,98
827,69	1298,41
827,86	1300,46
828,03	1277,93
828,20	1263,60
828,37	1331,18
828,54	1298,41
828,71	1286,12
828,89	1288,17
829,06	1259,50
829,23	1318,89
829,40	1247,21
829,57	1288,17
829,74	1333,23
829,91	1277,93
830,09	1284,08
830,26	1302,51
830,43	1253,36
830,60	1212,40
830,77	1294,32
830,94	1224,69
831,11	1312,75
831,28	1312,75
831,46	1257,45
831,63	1292,27
831,80	1267,69
831,97	1251,31
832,14	1263,60
832,31	1253,36
832,48	1335,28
832,65	1253,36
832,82	1322,99
832,99	1249,26
833,17	1288,17
833,34	1230,83
833,51	1411,05
833,68	1322,99
833,85	1245,16
834,02	1257,45
834,19	1271,79
834,36	1304,56
834,53	1316,84
834,70	1292,27
834,87	1232,88
835,04	1282,03
835,22	1226,73
835,39	1300,46
835,56	1216,49
835,73	1306,60
835,90	1222,64
836,07	1218,54
836,24	1247,21
836,41	1288,17
836,58	1257,45
836,75	1277,93
836,92	1316,84
837,09	1322,99
837,26	1339,37
837,43	1329,13
837,60	1288,17
837,77	1173,49
837,94	1296,36
838,12	1253,36
838,29	1265,64
838,46	1259,50
838,63	1271,79
838,80	1224,69
838,97	1302,51
839,14	1208,30
839,31	1294,32
839,48	1329,13
839,65	1263,60
839,82	1306,60
839,99	1216,49
840,16	1269,74
840,33	1273,84
840,50	1279,98
840,67	1282,03
840,84	1304,56
841,01	1302,51
841,18	1193,97
841,35	1282,03
841,52	1275,88
841,69	1230,83
841,86	1222,64
842,03	1271,79
842,20	1216,49
842,37	1308,65
842,54	1245,16
842,71	1259,50
842,88	1318,89
843,05	1265,64
843,22	1224,69
843,39	1347,56
843,56	1304,56
843,73	1234,93
843,90	1220,59
844,07	1228,78
844,24	1288,17
844,41	1230,83
844,58	1290,22
844,75	1261,55
844,92	1249,26
845,09	1216,49
845,26	1236,97
845,43	1269,74
845,60	1286,12
845,77	1296,36
845,94	1255,40
846,10	1236,97
846,27	1261,55
846,44	1224,69
846,61	1329,13
846,78	1265,64
846,95	1251,31
847,12	1286,12
847,29	1228,78
847,46	1249,26
847,63	1269,74
847,80	1310,70
847,97	1286,12
848,14	1290,22
848,31	1255,40
848,48	1325,04
848,65	1200,11
848,82	1273,84
848,98	1239,02
849,15	1255,40
849,32	1300,46
849,49	1304,56
849,66	1337,32
849,83	1253,36
850,00	1239,02
850,17	1253,36
850,34	1214,45
850,51	1337,32
850,68	1228,78
850,85	1257,45
851,01	1279,98
851,18	1275,88
851,35	1308,65
851,52	1282,03
851,69	1310,70
851,86	1277,93
852,03	1327,08
852,20	1267,69
852,37	1251,31
852,53	1308,65
852,70	1347,56
852,87	1275,88
853,04	1232,88
853,21	1284,08
853,38	1226,73
853,55	1234,93
853,72	1294,32
853,89	1288,17
854,05	1210,35
854,22	1308,65
854,39	1292,27
854,56	1245,16
854,73	1222,64
854,90	1218,54
855,07	1298,41
855,23	1265,64
855,40	1302,51
855,57	1277,93
855,74	1282,03
855,91	1304,56
856,08	1318,89
856,25	1247,21
856,41	1239,02
856,58	1183,73
856,75	1329,13
856,92	1222,64
857,09	1316,84
857,26	1222,64
857,42	1263,60
857,59	1265,64
857,76	1343,47
857,93	1251,31
858,10	1296,36
858,27	1286,12
858,43	1292,27
858,60	1290,22
858,77	1226,73
858,94	1269,74
859,11	1249,26
859,27	1265,64
859,44	1333,23
859,61	1288,17
859,78	1255,40
859,95	1257,45
860,12	1284,08
860,28	1312,75
860,45	1286,12
860,62	1282,03
860,79	1255,40
860,95	1198,06
861,12	1300,46
861,29	1239,02
861,46	1259,50
861,63	1267,69
861,79	1378,28
861,96	1232,88
862,13	1271,79
862,30	1292,27
862,47	1241,07
862,63	1259,50
862,80	1257,45
862,97	1294,32
863,14	1333,23
863,30	1212,40
863,47	1361,90
863,64	1269,74
863,81	1253,36
863,97	1218,54
864,14	1245,16
864,31	1267,69
864,48	1279,98
864,65	1284,08
864,81	1243,12
864,98	1247,21
865,15	1292,27
865,32	1275,88
865,48	1200,11
865,65	1341,42
865,82	1273,84
865,98	1243,12
866,15	1247,21
866,32	1339,37
866,49	1253,36
866,65	1339,37
866,82	1327,08
866,99	1292,27
867,16	1282,03
867,32	1214,45
867,49	1251,31
867,66	1296,36
867,83	1271,79
867,99	1206,25
868,16	1253,36
868,33	1282,03
868,49	1259,50
868,66	1282,03
868,83	1245,16
868,99	1288,17
869,16	1288,17
869,33	1298,41
869,50	1351,66
869,66	1286,12
869,83	1267,69
870,00	1267,69
870,16	1370,09
870,33	1181,68
870,50	1245,16
870,66	1304,56
870,83	1241,07
871,00	1210,35
871,17	1279,98
871,33	1320,94
871,50	1257,45
871,67	1259,50
871,83	1269,74
872,00	1271,79
872,17	1255,40
872,33	1204,21
872,50	1273,84
872,67	1228,78
872,83	1249,26
873,00	1286,12
873,17	1226,73
873,33	1282,03
873,50	1204,21
873,67	1269,74
873,83	1273,84
874,00	1251,31
874,16	1183,73
874,33	1259,50
874,50	1253,36
874,66	1245,16
874,83	1234,93
875,00	1275,88
875,16	1253,36
875,33	1224,69
875,50	1267,69
875,66	1236,97
875,83	1204,21
875,99	1210,35
876,16	1284,08
876,33	1306,60
876,49	1218,54
876,66	1241,07
876,83	1302,51
876,99	1257,45
877,16	1269,74
877,32	1318,89
877,49	1288,17
877,66	1212,40
877,82	1279,98
877,99	1241,07
878,15	1265,64
878,32	1288,17
878,49	1316,84
878,65	1257,45
878,82	1290,22
878,98	1224,69
879,15	1265,64
879,32	1318,89
879,48	1191,92
879,65	1226,73
879,81	1267,69
879,98	1341,42
880,15	1228,78
880,31	1263,60
880,48	1333,23
880,64	1196,01
880,81	1255,40
880,97	1220,59
881,14	1265,64
881,31	1292,27
881,47	1279,98
881,64	1288,17
881,80	1290,22
881,97	1263,60
882,13	1306,60
882,30	1267,69
882,47	1191,92
882,63	1277,93
882,80	1298,41
882,96	1271,79
883,13	1277,93
883,29	1232,88
883,46	1206,25
883,62	1181,68
883,79	1271,79
883,95	1310,70
884,12	1255,40
884,29	1318,89
884,45	1322,99
884,62	1318,89
884,78	1273,84
884,95	1265,64
885,11	1236,97
885,28	1327,08
885,44	1304,56
885,61	1298,41
885,77	1228,78
885,94	1290,22
886,10	1257,45
886,27	1310,70
886,43	1261,55
886,60	1279,98
886,76	1304,56
886,93	1257,45
887,09	1368,04
887,26	1224,69
887,42	1204,21
887,59	1282,03
887,75	1304,56
887,92	1318,89
888,08	1257,45
888,25	1277,93
888,41	1273,84
888,58	1261,55
888,74	1308,65
888,91	1329,13
>>>>>End Processed Spectral Data<<<<<
