SpectraSuite Data File
++++++++++++++++++++++++++++++++++++
Date: Sun Apr 03 18:16:34 CEST 2016
User: root
Dark Spectrum Present: No
Reference Spectrum Present: No
Number of Sampled Component Spectra: 1
Spectrometers: USB4C02835
Integration Time (usec): 10000 (USB4C02835)
Spectra Averaged: 1 (USB4C02835)
Boxcar Smoothing: 0 (USB4C02835)
Correct for Electrical Dark: No (USB4C02835)
Strobe/Lamp Enabled: No (USB4C02835)
Correct for Detector Non-linearity: No (USB4C02835)
Correct for Stray Light: No (USB4C02835)
Number of Pixels in Processed Spectrum: 3648
>>>>>Begin Processed Spectral Data<<<<<
177,47	1294,32
177,69	1294,32
177,91	1294,32
178,13	1310,70
178,36	1267,69
178,58	1239,02
178,80	1282,03
179,02	1208,30
179,24	1191,92
179,46	1298,41
179,68	1282,03
179,90	1277,93
180,13	1230,83
180,35	1300,46
180,57	1302,51
180,79	1304,56
181,01	1337,32
181,23	1226,73
181,45	1257,45
181,67	1300,46
181,90	1269,74
182,12	1294,32
182,34	1277,93
182,56	1255,40
182,78	1234,93
183,00	1222,64
183,22	1271,79
183,44	1204,21
183,66	1279,98
183,89	1224,69
184,11	1236,97
184,33	1271,79
184,55	1343,47
184,77	1290,22
184,99	1189,87
185,21	1232,88
185,43	1232,88
185,65	1300,46
185,87	1232,88
186,10	1249,26
186,32	1294,32
186,54	1314,80
186,76	1286,12
186,98	1290,22
187,20	1239,02
187,42	1251,31
187,64	1343,47
187,86	1265,64
188,08	1257,45
188,30	1337,32
188,52	1212,40
188,75	1259,50
188,97	1239,02
189,19	1245,16
189,41	1376,24
189,63	1257,45
189,85	1288,17
190,07	1259,50
190,29	1220,59
190,51	1263,60
190,73	1226,73
190,95	1198,06
191,17	1269,74
191,39	1294,32
191,61	1259,50
191,84	1294,32
192,06	1253,36
192,28	1228,78
192,50	1366,00
192,72	1261,55
192,94	1349,61
193,16	1171,44
193,38	1298,41
193,60	1300,46
193,82	1304,56
194,04	1222,64
194,26	1247,21
194,48	1241,07
194,70	1269,74
194,92	1255,40
195,14	1282,03
195,36	1271,79
195,58	1286,12
195,80	1257,45
196,02	1275,88
196,24	1255,40
196,46	1214,45
196,69	1249,26
196,91	1271,79
197,13	1249,26
197,35	1251,31
197,57	1316,84
197,79	1271,79
198,01	1316,84
198,23	1220,59
198,45	1224,69
198,67	1236,97
198,89	1253,36
199,11	1234,93
199,33	1228,78
199,55	1292,27
199,77	1263,60
199,99	1284,08
200,21	1183,73
200,43	1265,64
200,65	1333,23
200,87	1216,49
201,09	1370,09
201,31	1314,80
201,53	1253,36
201,75	1282,03
201,97	1159,15
202,19	1236,97
202,41	1271,79
202,63	1230,83
202,85	1273,84
203,07	1304,56
203,29	1255,40
203,51	1290,22
203,73	1288,17
203,95	1269,74
204,17	1239,02
204,39	1239,02
204,61	1265,64
204,83	1224,69
205,05	1251,31
205,27	1298,41
205,49	1257,45
205,71	1282,03
205,93	1241,07
206,15	1269,74
206,37	1290,22
206,59	1312,75
206,81	1243,12
207,03	1269,74
207,25	1249,26
207,47	1288,17
207,69	1251,31
207,91	1294,32
208,13	1257,45
208,34	1222,64
208,56	1322,99
208,78	1316,84
209,00	1284,08
209,22	1191,92
209,44	1273,84
209,66	1224,69
209,88	1228,78
210,10	1243,12
210,32	1249,26
210,54	1214,45
210,76	1230,83
210,98	1294,32
211,20	1191,92
211,42	1267,69
211,64	1191,92
211,86	1322,99
212,08	1351,66
212,30	1368,04
212,52	1288,17
212,74	1275,88
212,96	1220,59
213,17	1316,84
213,39	1314,80
213,61	1198,06
213,83	1259,50
214,05	1288,17
214,27	1230,83
214,49	1220,59
214,71	1263,60
214,93	1271,79
215,15	1220,59
215,37	1304,56
215,59	1220,59
215,81	1245,16
216,03	1265,64
216,24	1239,02
216,46	1175,53
216,68	1253,36
216,90	1208,30
217,12	1296,36
217,34	1329,13
217,56	1298,41
217,78	1255,40
218,00	1263,60
218,22	1228,78
218,44	1292,27
218,66	1255,40
218,87	1294,32
219,09	1282,03
219,31	1331,18
219,53	1298,41
219,75	1269,74
219,97	1269,74
220,19	1308,65
220,41	1232,88
220,63	1241,07
220,85	1269,74
221,06	1181,68
221,28	1249,26
221,50	1198,06
221,72	1288,17
221,94	1294,32
222,16	1279,98
222,38	1216,49
222,60	1259,50
222,82	1282,03
223,03	1232,88
223,25	1259,50
223,47	1245,16
223,69	1259,50
223,91	1308,65
224,13	1298,41
224,35	1292,27
224,57	1241,07
224,78	1290,22
225,00	1279,98
225,22	1245,16
225,44	1275,88
225,66	1271,79
225,88	1284,08
226,10	1255,40
226,32	1284,08
226,53	1343,47
226,75	1269,74
226,97	1294,32
227,19	1255,40
227,41	1249,26
227,63	1275,88
227,85	1253,36
228,06	1200,11
228,28	1257,45
228,50	1204,21
228,72	1267,69
228,94	1257,45
229,16	1318,89
229,37	1245,16
229,59	1292,27
229,81	1290,22
230,03	1218,54
230,25	1198,06
230,47	1247,21
230,69	1277,93
230,90	1284,08
231,12	1236,97
231,34	1337,32
231,56	1302,51
231,78	1269,74
232,00	1228,78
232,21	1249,26
232,43	1292,27
232,65	1245,16
232,87	1286,12
233,09	1257,45
233,30	1296,36
233,52	1288,17
233,74	1269,74
233,96	1228,78
234,18	1216,49
234,40	1271,79
234,61	1312,75
234,83	1140,72
235,05	1284,08
235,27	1273,84
235,49	1259,50
235,70	1218,54
235,92	1310,70
236,14	1245,16
236,36	1282,03
236,58	1263,60
236,79	1273,84
237,01	1251,31
237,23	1327,08
237,45	1275,88
237,67	1372,14
237,88	1257,45
238,10	1204,21
238,32	1298,41
238,54	1249,26
238,76	1241,07
238,97	1286,12
239,19	1189,87
239,41	1226,73
239,63	1232,88
239,85	1263,60
240,06	1251,31
240,28	1294,32
240,50	1204,21
240,72	1216,49
240,93	1366,00
241,15	1243,12
241,37	1245,16
241,59	1306,60
241,81	1284,08
242,02	1273,84
242,24	1316,84
242,46	1232,88
242,68	1341,42
242,89	1226,73
243,11	1249,26
243,33	1306,60
243,55	1204,21
243,76	1230,83
243,98	1222,64
244,20	1275,88
244,42	1230,83
244,64	1329,13
244,85	1312,75
245,07	1279,98
245,29	1265,64
245,51	1312,75
245,72	1253,36
245,94	1251,31
246,16	1284,08
246,38	1271,79
246,59	1333,23
246,81	1259,50
247,03	1288,17
247,24	1249,26
247,46	1275,88
247,68	1265,64
247,90	1218,54
248,11	1271,79
248,33	1302,51
248,55	1290,22
248,77	1236,97
248,98	1247,21
249,20	1275,88
249,42	1269,74
249,64	1243,12
249,85	1288,17
250,07	1273,84
250,29	1200,11
250,50	1302,51
250,72	1251,31
250,94	1333,23
251,16	1249,26
251,37	1300,46
251,59	1232,88
251,81	1296,36
252,02	1198,06
252,24	1247,21
252,46	1214,45
252,68	1210,35
252,89	1277,93
253,11	1234,93
253,33	1314,80
253,54	1329,13
253,76	1269,74
253,98	1298,41
254,20	1269,74
254,41	1265,64
254,63	1220,59
254,85	1247,21
255,06	1259,50
255,28	1273,84
255,50	1196,01
255,71	1265,64
255,93	1343,47
256,15	1284,08
256,36	1249,26
256,58	1228,78
256,80	1239,02
257,02	1269,74
257,23	1282,03
257,45	1234,93
257,67	1279,98
257,88	1230,83
258,10	1255,40
258,32	1322,99
258,53	1236,97
258,75	1347,56
258,97	1239,02
259,18	1286,12
259,40	1255,40
259,62	1325,04
259,83	1294,32
260,05	1267,69
260,27	1325,04
260,48	1263,60
260,70	1282,03
260,92	1306,60
261,13	1239,02
261,35	1257,45
261,57	1298,41
261,78	1349,61
262,00	1269,74
262,22	1322,99
262,43	1296,36
262,65	1208,30
262,86	1333,23
263,08	1196,01
263,30	1296,36
263,51	1279,98
263,73	1241,07
263,95	1243,12
264,16	1255,40
264,38	1308,65
264,60	1282,03
264,81	1275,88
265,03	1222,64
265,25	1277,93
265,46	1263,60
265,68	1234,93
265,89	1302,51
266,11	1224,69
266,33	1259,50
266,54	1239,02
266,76	1247,21
266,98	1290,22
267,19	1277,93
267,41	1222,64
267,62	1288,17
267,84	1216,49
268,06	1308,65
268,27	1290,22
268,49	1271,79
268,70	1298,41
268,92	1265,64
269,14	1314,80
269,35	1298,41
269,57	1239,02
269,79	1304,56
270,00	1271,79
270,22	1343,47
270,43	1245,16
270,65	1325,04
270,87	1249,26
271,08	1241,07
271,30	1185,77
271,51	1243,12
271,73	1255,40
271,95	1245,16
272,16	1333,23
272,38	1271,79
272,59	1279,98
272,81	1255,40
273,02	1366,00
273,24	1230,83
273,46	1236,97
273,67	1161,20
273,89	1236,97
274,10	1288,17
274,32	1220,59
274,54	1263,60
274,75	1259,50
274,97	1267,69
275,18	1331,18
275,40	1271,79
275,61	1257,45
275,83	1265,64
276,05	1245,16
276,26	1230,83
276,48	1253,36
276,69	1269,74
276,91	1261,55
277,12	1265,64
277,34	1282,03
277,55	1212,40
277,77	1206,25
277,99	1263,60
278,20	1239,02
278,42	1288,17
278,63	1277,93
278,85	1175,53
279,06	1218,54
279,28	1296,36
279,49	1263,60
279,71	1234,93
279,93	1243,12
280,14	1275,88
280,36	1208,30
280,57	1267,69
280,79	1284,08
281,00	1253,36
281,22	1341,42
281,43	1306,60
281,65	1265,64
281,86	1232,88
282,08	1243,12
282,29	1296,36
282,51	1290,22
282,73	1284,08
282,94	1267,69
283,16	1255,40
283,37	1247,21
283,59	1249,26
283,80	1189,87
284,02	1214,45
284,23	1284,08
284,45	1329,13
284,66	1269,74
284,88	1253,36
285,09	1271,79
285,31	1224,69
285,52	1245,16
285,74	1247,21
285,95	1251,31
286,17	1230,83
286,38	1277,93
286,60	1284,08
286,81	1204,21
287,03	1247,21
287,24	1214,45
287,46	1298,41
287,67	1224,69
287,89	1296,36
288,10	1259,50
288,32	1302,51
288,53	1234,93
288,75	1304,56
288,96	1300,46
289,18	1271,79
289,39	1284,08
289,61	1269,74
289,82	1271,79
290,04	1294,32
290,25	1284,08
290,47	1261,55
290,68	1210,35
290,90	1251,31
291,11	1353,71
291,33	1206,25
291,54	1239,02
291,76	1288,17
291,97	1286,12
292,18	1290,22
292,40	1200,11
292,61	1333,23
292,83	1204,21
293,04	1335,28
293,26	1202,16
293,47	1179,63
293,69	1265,64
293,90	1263,60
294,12	1331,18
294,33	1271,79
294,55	1206,25
294,76	1359,85
294,97	1247,21
295,19	1279,98
295,40	1282,03
295,62	1243,12
295,83	1294,32
296,05	1279,98
296,26	1292,27
296,48	1249,26
296,69	1267,69
296,90	1296,36
297,12	1277,93
297,33	1335,28
297,55	1290,22
297,76	1245,16
297,98	1318,89
298,19	1226,73
298,41	1261,55
298,62	1273,84
298,83	1288,17
299,05	1302,51
299,26	1234,93
299,48	1255,40
299,69	1224,69
299,90	1277,93
300,12	1253,36
300,33	1325,04
300,55	1247,21
300,76	1290,22
300,98	1255,40
301,19	1284,08
301,40	1259,50
301,62	1318,89
301,83	1224,69
302,05	1251,31
302,26	1304,56
302,47	1236,97
302,69	1257,45
302,90	1263,60
303,12	1263,60
303,33	1320,94
303,54	1265,64
303,76	1243,12
303,97	1308,65
304,19	1261,55
304,40	1318,89
304,61	1298,41
304,83	1308,65
305,04	1277,93
305,26	1370,09
305,47	1241,07
305,68	1241,07
305,90	1263,60
306,11	1220,59
306,33	1236,97
306,54	1294,32
306,75	1347,56
306,97	1255,40
307,18	1279,98
307,39	1263,60
307,61	1218,54
307,82	1372,14
308,04	1304,56
308,25	1228,78
308,46	1183,73
308,68	1200,11
308,89	1335,28
309,10	1290,22
309,32	1228,78
309,53	1284,08
309,74	1308,65
309,96	1290,22
310,17	1273,84
310,39	1300,46
310,60	1337,32
310,81	1337,32
311,03	1261,55
311,24	1230,83
311,45	1189,87
311,67	1282,03
311,88	1296,36
312,09	1249,26
312,31	1263,60
312,52	1292,27
312,73	1232,88
312,95	1232,88
313,16	1239,02
313,37	1290,22
313,59	1290,22
313,80	1294,32
314,01	1288,17
314,23	1222,64
314,44	1245,16
314,65	1269,74
314,87	1208,30
315,08	1234,93
315,29	1282,03
315,51	1236,97
315,72	1265,64
315,93	1232,88
316,15	1255,40
316,36	1275,88
316,57	1294,32
316,79	1216,49
317,00	1230,83
317,21	1228,78
317,43	1255,40
317,64	1243,12
317,85	1275,88
318,07	1282,03
318,28	1275,88
318,49	1357,80
318,70	1249,26
318,92	1214,45
319,13	1306,60
319,34	1220,59
319,56	1222,64
319,77	1222,64
319,98	1298,41
320,20	1255,40
320,41	1255,40
320,62	1224,69
320,83	1243,12
321,05	1318,89
321,26	1292,27
321,47	1271,79
321,69	1257,45
321,90	1298,41
322,11	1253,36
322,32	1239,02
322,54	1290,22
322,75	1198,06
322,96	1292,27
323,18	1282,03
323,39	1304,56
323,60	1277,93
323,81	1261,55
324,03	1277,93
324,24	1302,51
324,45	1224,69
324,66	1329,13
324,88	1308,65
325,09	1249,26
325,30	1253,36
325,52	1243,12
325,73	1286,12
325,94	1247,21
326,15	1267,69
326,37	1193,97
326,58	1261,55
326,79	1228,78
327,00	1273,84
327,22	1304,56
327,43	1261,55
327,64	1251,31
327,85	1296,36
328,07	1269,74
328,28	1230,83
328,49	1224,69
328,70	1253,36
328,92	1232,88
329,13	1275,88
329,34	1290,22
329,55	1206,25
329,76	1306,60
329,98	1351,66
330,19	1222,64
330,40	1247,21
330,61	1257,45
330,83	1251,31
331,04	1202,16
331,25	1230,83
331,46	1239,02
331,68	1255,40
331,89	1208,30
332,10	1306,60
332,31	1277,93
332,52	1243,12
332,74	1257,45
332,95	1206,25
333,16	1312,75
333,37	1282,03
333,58	1318,89
333,80	1275,88
334,01	1296,36
334,22	1366,00
334,43	1320,94
334,64	1288,17
334,86	1247,21
335,07	1230,83
335,28	1312,75
335,49	1320,94
335,70	1327,08
335,92	1226,73
336,13	1241,07
336,34	1271,79
336,55	1257,45
336,76	1271,79
336,98	1210,35
337,19	1314,80
337,40	1304,56
337,61	1306,60
337,82	1216,49
338,04	1298,41
338,25	1316,84
338,46	1247,21
338,67	1284,08
338,88	1265,64
339,09	1216,49
339,31	1284,08
339,52	1255,40
339,73	1279,98
339,94	1314,80
340,15	1239,02
340,36	1318,89
340,58	1288,17
340,79	1142,77
341,00	1300,46
341,21	1220,59
341,42	1275,88
341,63	1181,68
341,85	1302,51
342,06	1306,60
342,27	1325,04
342,48	1304,56
342,69	1294,32
342,90	1284,08
343,12	1286,12
343,33	1228,78
343,54	1251,31
343,75	1294,32
343,96	1212,40
344,17	1359,85
344,38	1277,93
344,60	1286,12
344,81	1191,92
345,02	1185,77
345,23	1212,40
345,44	1282,03
345,65	1316,84
345,86	1267,69
346,07	1241,07
346,29	1241,07
346,50	1253,36
346,71	1316,84
346,92	1277,93
347,13	1296,36
347,34	1249,26
347,55	1316,84
347,76	1310,70
347,98	1245,16
348,19	1218,54
348,40	1267,69
348,61	1212,40
348,82	1257,45
349,03	1226,73
349,24	1243,12
349,45	1245,16
349,66	1300,46
349,88	1288,17
350,09	1241,07
350,30	1253,36
350,51	1259,50
350,72	1239,02
350,93	1298,41
351,14	1290,22
351,35	1251,31
351,56	1263,60
351,77	1353,71
351,99	1257,45
352,20	1245,16
352,41	1314,80
352,62	1241,07
352,83	1226,73
353,04	1271,79
353,25	1275,88
353,46	1347,56
353,67	1206,25
353,88	1243,12
354,09	1292,27
354,30	1294,32
354,52	1296,36
354,73	1265,64
354,94	1314,80
355,15	1263,60
355,36	1263,60
355,57	1239,02
355,78	1302,51
355,99	1245,16
356,20	1298,41
356,41	1279,98
356,62	1318,89
356,83	1282,03
357,04	1247,21
357,25	1255,40
357,46	1263,60
357,68	1214,45
357,89	1247,21
358,10	1261,55
358,31	1257,45
358,52	1241,07
358,73	1259,50
358,94	1202,16
359,15	1310,70
359,36	1220,59
359,57	1275,88
359,78	1261,55
359,99	1263,60
360,20	1253,36
360,41	1241,07
360,62	1308,65
360,83	1349,61
361,04	1269,74
361,25	1288,17
361,46	1290,22
361,67	1198,06
361,88	1337,32
362,09	1263,60
362,30	1277,93
362,51	1224,69
362,72	1265,64
362,93	1230,83
363,14	1241,07
363,35	1265,64
363,56	1241,07
363,78	1249,26
363,99	1253,36
364,20	1251,31
364,41	1282,03
364,62	1265,64
364,83	1247,21
365,04	1292,27
365,25	1226,73
365,46	1288,17
365,67	1273,84
365,88	1165,29
366,09	1314,80
366,30	1236,97
366,51	1304,56
366,72	1282,03
366,93	1298,41
367,14	1267,69
367,35	1290,22
367,56	1279,98
367,77	1329,13
367,98	1245,16
368,18	1232,88
368,39	1263,60
368,60	1292,27
368,81	1247,21
369,02	1263,60
369,23	1341,42
369,44	1232,88
369,65	1284,08
369,86	1306,60
370,07	1269,74
370,28	1257,45
370,49	1345,52
370,70	1232,88
370,91	1269,74
371,12	1292,27
371,33	1185,77
371,54	1230,83
371,75	1273,84
371,96	1290,22
372,17	1282,03
372,38	1191,92
372,59	1265,64
372,80	1279,98
373,01	1335,28
373,22	1279,98
373,43	1222,64
373,64	1282,03
373,85	1269,74
374,06	1230,83
374,26	1337,32
374,47	1265,64
374,68	1257,45
374,89	1239,02
375,10	1247,21
375,31	1243,12
375,52	1284,08
375,73	1341,42
375,94	1302,51
376,15	1331,18
376,36	1267,69
376,57	1261,55
376,78	1259,50
376,99	1216,49
377,20	1245,16
377,40	1224,69
377,61	1259,50
377,82	1257,45
378,03	1253,36
378,24	1304,56
378,45	1228,78
378,66	1312,75
378,87	1216,49
379,08	1239,02
379,29	1239,02
379,50	1304,56
379,71	1337,32
379,91	1320,94
380,12	1206,25
380,33	1273,84
380,54	1245,16
380,75	1265,64
380,96	1308,65
381,17	1271,79
381,38	1239,02
381,59	1337,32
381,80	1204,21
382,00	1255,40
382,21	1282,03
382,42	1322,99
382,63	1257,45
382,84	1298,41
383,05	1226,73
383,26	1224,69
383,47	1273,84
383,68	1212,40
383,88	1337,32
384,09	1286,12
384,30	1247,21
384,51	1241,07
384,72	1286,12
384,93	1232,88
385,14	1263,60
385,35	1273,84
385,55	1208,30
385,76	1255,40
385,97	1288,17
386,18	1232,88
386,39	1251,31
386,60	1236,97
386,81	1249,26
387,02	1204,21
387,22	1269,74
387,43	1216,49
387,64	1300,46
387,85	1329,13
388,06	1232,88
388,27	1290,22
388,48	1277,93
388,68	1279,98
388,89	1277,93
389,10	1279,98
389,31	1249,26
389,52	1277,93
389,73	1288,17
389,93	1273,84
390,14	1271,79
390,35	1314,80
390,56	1263,60
390,77	1312,75
390,98	1302,51
391,18	1341,42
391,39	1310,70
391,60	1322,99
391,81	1267,69
392,02	1251,31
392,23	1277,93
392,43	1271,79
392,64	1279,98
392,85	1247,21
393,06	1320,94
393,27	1259,50
393,47	1214,45
393,68	1220,59
393,89	1279,98
394,10	1337,32
394,31	1271,79
394,52	1177,58
394,72	1261,55
394,93	1314,80
395,14	1218,54
395,35	1224,69
395,56	1232,88
395,76	1312,75
395,97	1333,23
396,18	1206,25
396,39	1232,88
396,60	1286,12
396,80	1251,31
397,01	1284,08
397,22	1220,59
397,43	1322,99
397,64	1253,36
397,84	1312,75
398,05	1241,07
398,26	1263,60
398,47	1284,08
398,67	1275,88
398,88	1327,08
399,09	1273,84
399,30	1253,36
399,51	1257,45
399,71	1243,12
399,92	1331,18
400,13	1304,56
400,34	1212,40
400,54	1329,13
400,75	1265,64
400,96	1232,88
401,17	1312,75
401,37	1232,88
401,58	1267,69
401,79	1210,35
402,00	1226,73
402,21	1243,12
402,41	1249,26
402,62	1314,80
402,83	1232,88
403,04	1261,55
403,24	1296,36
403,45	1249,26
403,66	1327,08
403,87	1228,78
404,07	1230,83
404,28	1335,28
404,49	1253,36
404,70	1277,93
404,90	1322,99
405,11	1288,17
405,32	1294,32
405,52	1302,51
405,73	1257,45
405,94	1230,83
406,15	1306,60
406,35	1187,82
406,56	1226,73
406,77	1228,78
406,98	1224,69
407,18	1290,22
407,39	1284,08
407,60	1263,60
407,80	1277,93
408,01	1253,36
408,22	1271,79
408,43	1296,36
408,63	1257,45
408,84	1263,60
409,05	1265,64
409,25	1257,45
409,46	1298,41
409,67	1288,17
409,88	1241,07
410,08	1277,93
410,29	1259,50
410,50	1302,51
410,70	1351,66
410,91	1310,70
411,12	1290,22
411,32	1255,40
411,53	1290,22
411,74	1204,21
411,95	1275,88
412,15	1325,04
412,36	1265,64
412,57	1284,08
412,77	1288,17
412,98	1232,88
413,19	1236,97
413,39	1277,93
413,60	1245,16
413,81	1241,07
414,01	1286,12
414,22	1302,51
414,43	1224,69
414,63	1259,50
414,84	1388,52
415,05	1243,12
415,25	1298,41
415,46	1292,27
415,67	1290,22
415,87	1222,64
416,08	1290,22
416,29	1259,50
416,49	1277,93
416,70	1318,89
416,91	1288,17
417,11	1218,54
417,32	1292,27
417,53	1259,50
417,73	1245,16
417,94	1212,40
418,15	1310,70
418,35	1292,27
418,56	1185,77
418,77	1312,75
418,97	1206,25
419,18	1263,60
419,38	1255,40
419,59	1245,16
419,80	1239,02
420,00	1263,60
420,21	1275,88
420,42	1284,08
420,62	1249,26
420,83	1261,55
421,04	1308,65
421,24	1200,11
421,45	1216,49
421,65	1232,88
421,86	1286,12
422,07	1239,02
422,27	1189,87
422,48	1269,74
422,69	1253,36
422,89	1253,36
423,10	1292,27
423,30	1273,84
423,51	1247,21
423,72	1306,60
423,92	1206,25
424,13	1183,73
424,33	1322,99
424,54	1191,92
424,75	1253,36
424,95	1290,22
425,16	1222,64
425,36	1255,40
425,57	1249,26
425,78	1271,79
425,98	1320,94
426,19	1277,93
426,39	1230,83
426,60	1275,88
426,81	1273,84
427,01	1236,97
427,22	1234,93
427,42	1314,80
427,63	1267,69
427,83	1220,59
428,04	1271,79
428,25	1236,97
428,45	1261,55
428,66	1331,18
428,86	1224,69
429,07	1251,31
429,28	1259,50
429,48	1253,36
429,69	1265,64
429,89	1263,60
430,10	1284,08
430,30	1245,16
430,51	1329,13
430,71	1273,84
430,92	1230,83
431,13	1224,69
431,33	1298,41
431,54	1232,88
431,74	1290,22
431,95	1282,03
432,15	1327,08
432,36	1171,44
432,56	1206,25
432,77	1277,93
432,98	1265,64
433,18	1296,36
433,39	1249,26
433,59	1269,74
433,80	1333,23
434,00	1308,65
434,21	1185,77
434,41	1343,47
434,62	1302,51
434,82	1314,80
435,03	1241,07
435,23	1300,46
435,44	1243,12
435,64	1316,84
435,85	1286,12
436,06	1290,22
436,26	1279,98
436,47	1255,40
436,67	1191,92
436,88	1198,06
437,08	1292,27
437,29	1230,83
437,49	1220,59
437,70	1261,55
437,90	1251,31
438,11	1224,69
438,31	1353,71
438,52	1198,06
438,72	1327,08
438,93	1261,55
439,13	1298,41
439,34	1253,36
439,54	1310,70
439,75	1277,93
439,95	1200,11
440,16	1345,52
440,36	1290,22
440,57	1243,12
440,77	1302,51
440,98	1310,70
441,18	1302,51
441,39	1206,25
441,59	1261,55
441,80	1292,27
442,00	1288,17
442,21	1234,93
442,41	1224,69
442,62	1236,97
442,82	1177,58
443,02	1243,12
443,23	1183,73
443,43	1224,69
443,64	1196,01
443,84	1286,12
444,05	1249,26
444,25	1257,45
444,46	1181,68
444,66	1206,25
444,87	1304,56
445,07	1232,88
445,28	1294,32
445,48	1239,02
445,69	1286,12
445,89	1267,69
446,09	1275,88
446,30	1255,40
446,50	1296,36
446,71	1292,27
446,91	1218,54
447,12	1247,21
447,32	1292,27
447,53	1265,64
447,73	1294,32
447,93	1265,64
448,14	1300,46
448,34	1263,60
448,55	1218,54
448,75	1245,16
448,96	1277,93
449,16	1277,93
449,36	1247,21
449,57	1216,49
449,77	1193,97
449,98	1292,27
450,18	1259,50
450,39	1304,56
450,59	1298,41
450,79	1230,83
451,00	1288,17
451,20	1243,12
451,41	1269,74
451,61	1345,52
451,81	1196,01
452,02	1255,40
452,22	1245,16
452,43	1232,88
452,63	1218,54
452,84	1251,31
453,04	1185,77
453,24	1267,69
453,45	1308,65
453,65	1210,35
453,86	1345,52
454,06	1267,69
454,26	1282,03
454,47	1230,83
454,67	1271,79
454,87	1220,59
455,08	1234,93
455,28	1241,07
455,49	1200,11
455,69	1269,74
455,89	1263,60
456,10	1275,88
456,30	1202,16
456,51	1236,97
456,71	1204,21
456,91	1212,40
457,12	1255,40
457,32	1308,65
457,52	1230,83
457,73	1257,45
457,93	1312,75
458,14	1253,36
458,34	1308,65
458,54	1208,30
458,75	1253,36
458,95	1337,32
459,15	1300,46
459,36	1279,98
459,56	1261,55
459,76	1306,60
459,97	1306,60
460,17	1302,51
460,37	1228,78
460,58	1286,12
460,78	1331,18
460,99	1261,55
461,19	1265,64
461,39	1216,49
461,60	1245,16
461,80	1331,18
462,00	1284,08
462,21	1222,64
462,41	1269,74
462,61	1249,26
462,82	1245,16
463,02	1269,74
463,22	1267,69
463,43	1249,26
463,63	1271,79
463,83	1241,07
464,04	1247,21
464,24	1277,93
464,44	1267,69
464,64	1204,21
464,85	1277,93
465,05	1228,78
465,25	1224,69
465,46	1236,97
465,66	1308,65
465,86	1310,70
466,07	1265,64
466,27	1202,16
466,47	1306,60
466,68	1271,79
466,88	1339,37
467,08	1298,41
467,29	1273,84
467,49	1259,50
467,69	1200,11
467,89	1306,60
468,10	1267,69
468,30	1308,65
468,50	1282,03
468,71	1241,07
468,91	1333,23
469,11	1257,45
469,31	1218,54
469,52	1271,79
469,72	1351,66
469,92	1271,79
470,13	1241,07
470,33	1292,27
470,53	1265,64
470,73	1273,84
470,94	1243,12
471,14	1294,32
471,34	1279,98
471,54	1277,93
471,75	1335,28
471,95	1245,16
472,15	1322,99
472,36	1306,60
472,56	1241,07
472,76	1275,88
472,96	1243,12
473,17	1226,73
473,37	1183,73
473,57	1282,03
473,77	1222,64
473,98	1251,31
474,18	1277,93
474,38	1290,22
474,58	1267,69
474,79	1204,21
474,99	1290,22
475,19	1253,36
475,39	1265,64
475,60	1298,41
475,80	1265,64
476,00	1267,69
476,20	1253,36
476,41	1228,78
476,61	1265,64
476,81	1269,74
477,01	1212,40
477,21	1196,01
477,42	1210,35
477,62	1230,83
477,82	1230,83
478,02	1249,26
478,23	1241,07
478,43	1271,79
478,63	1282,03
478,83	1316,84
479,03	1228,78
479,24	1261,55
479,44	1234,93
479,64	1277,93
479,84	1284,08
480,04	1376,24
480,25	1263,60
480,45	1216,49
480,65	1216,49
480,85	1277,93
481,06	1239,02
481,26	1216,49
481,46	1236,97
481,66	1286,12
481,86	1351,66
482,06	1306,60
482,27	1271,79
482,47	1288,17
482,67	1284,08
482,87	1220,59
483,07	1259,50
483,28	1302,51
483,48	1245,16
483,68	1222,64
483,88	1239,02
484,08	1257,45
484,29	1263,60
484,49	1308,65
484,69	1267,69
484,89	1308,65
485,09	1228,78
485,29	1271,79
485,50	1290,22
485,70	1363,95
485,90	1347,56
486,10	1355,76
486,30	1249,26
486,50	1198,06
486,71	1310,70
486,91	1183,73
487,11	1224,69
487,31	1327,08
487,51	1239,02
487,71	1271,79
487,91	1236,97
488,12	1279,98
488,32	1259,50
488,52	1343,47
488,72	1216,49
488,92	1224,69
489,12	1296,36
489,32	1312,75
489,53	1316,84
489,73	1224,69
489,93	1239,02
490,13	1312,75
490,33	1296,36
490,53	1333,23
490,73	1222,64
490,94	1222,64
491,14	1267,69
491,34	1300,46
491,54	1257,45
491,74	1210,35
491,94	1312,75
492,14	1265,64
492,34	1292,27
492,54	1300,46
492,75	1204,21
492,95	1261,55
493,15	1300,46
493,35	1263,60
493,55	1277,93
493,75	1337,32
493,95	1245,16
494,15	1204,21
494,35	1265,64
494,56	1296,36
494,76	1279,98
494,96	1331,18
495,16	1314,80
495,36	1253,36
495,56	1318,89
495,76	1277,93
495,96	1271,79
496,16	1292,27
496,36	1269,74
496,56	1259,50
496,77	1267,69
496,97	1261,55
497,17	1249,26
497,37	1261,55
497,57	1312,75
497,77	1263,60
497,97	1288,17
498,17	1253,36
498,37	1257,45
498,57	1294,32
498,77	1279,98
498,97	1288,17
499,17	1253,36
499,38	1222,64
499,58	1185,77
499,78	1273,84
499,98	1239,02
500,18	1302,51
500,38	1322,99
500,58	1232,88
500,78	1339,37
500,98	1255,40
501,18	1232,88
501,38	1290,22
501,58	1261,55
501,78	1286,12
501,98	1306,60
502,18	1251,31
502,38	1249,26
502,58	1316,84
502,78	1247,21
502,98	1329,13
503,18	1206,25
503,38	1222,64
503,59	1241,07
503,79	1214,45
503,99	1279,98
504,19	1290,22
504,39	1306,60
504,59	1273,84
504,79	1290,22
504,99	1253,36
505,19	1288,17
505,39	1282,03
505,59	1355,76
505,79	1253,36
505,99	1224,69
506,19	1206,25
506,39	1286,12
506,59	1212,40
506,79	1234,93
506,99	1261,55
507,19	1224,69
507,39	1230,83
507,59	1198,06
507,79	1259,50
507,99	1288,17
508,19	1302,51
508,39	1318,89
508,59	1251,31
508,79	1292,27
508,99	1296,36
509,19	1251,31
509,39	1232,88
509,59	1273,84
509,79	1269,74
509,99	1265,64
510,19	1251,31
510,39	1308,65
510,59	1308,65
510,79	1269,74
510,99	1288,17
511,19	1214,45
511,39	1316,84
511,59	1263,60
511,79	1335,28
511,99	1335,28
512,19	1308,65
512,38	1214,45
512,58	1189,87
512,78	1275,88
512,98	1265,64
513,18	1204,21
513,38	1216,49
513,58	1247,21
513,78	1228,78
513,98	1236,97
514,18	1255,40
514,38	1257,45
514,58	1271,79
514,78	1261,55
514,98	1282,03
515,18	1204,21
515,38	1249,26
515,58	1271,79
515,78	1251,31
515,98	1255,40
516,18	1325,04
516,38	1282,03
516,57	1269,74
516,77	1273,84
516,97	1228,78
517,17	1243,12
517,37	1331,18
517,57	1245,16
517,77	1230,83
517,97	1314,80
518,17	1245,16
518,37	1271,79
518,57	1273,84
518,77	1288,17
518,97	1282,03
519,16	1224,69
519,36	1277,93
519,56	1251,31
519,76	1159,15
519,96	1302,51
520,16	1279,98
520,36	1230,83
520,56	1335,28
520,76	1271,79
520,96	1236,97
521,16	1183,73
521,35	1327,08
521,55	1279,98
521,75	1212,40
521,95	1277,93
522,15	1302,51
522,35	1320,94
522,55	1216,49
522,75	1212,40
522,95	1298,41
523,14	1251,31
523,34	1226,73
523,54	1298,41
523,74	1163,25
523,94	1279,98
524,14	1290,22
524,34	1267,69
524,54	1234,93
524,73	1255,40
524,93	1212,40
525,13	1247,21
525,33	1228,78
525,53	1275,88
525,73	1243,12
525,93	1273,84
526,13	1279,98
526,32	1277,93
526,52	1267,69
526,72	1286,12
526,92	1284,08
527,12	1259,50
527,32	1277,93
527,52	1294,32
527,71	1296,36
527,91	1288,17
528,11	1249,26
528,31	1226,73
528,51	1298,41
528,71	1239,02
528,90	1236,97
529,10	1275,88
529,30	1243,12
529,50	1279,98
529,70	1335,28
529,90	1243,12
530,09	1279,98
530,29	1275,88
530,49	1249,26
530,69	1353,71
530,89	1347,56
531,09	1267,69
531,28	1294,32
531,48	1259,50
531,68	1290,22
531,88	1265,64
532,08	1249,26
532,28	1316,84
532,47	1269,74
532,67	1212,40
532,87	1288,17
533,07	1337,32
533,27	1257,45
533,46	1282,03
533,66	1286,12
533,86	1282,03
534,06	1208,30
534,26	1290,22
534,45	1218,54
534,65	1269,74
534,85	1214,45
535,05	1269,74
535,25	1236,97
535,44	1212,40
535,64	1298,41
535,84	1296,36
536,04	1259,50
536,24	1247,21
536,43	1222,64
536,63	1279,98
536,83	1318,89
537,03	1325,04
537,22	1224,69
537,42	1245,16
537,62	1183,73
537,82	1249,26
538,02	1212,40
538,21	1177,58
538,41	1386,47
538,61	1243,12
538,81	1329,13
539,00	1189,87
539,20	1294,32
539,40	1200,11
539,60	1236,97
539,79	1306,60
539,99	1232,88
540,19	1269,74
540,39	1341,42
540,58	1265,64
540,78	1279,98
540,98	1247,21
541,18	1302,51
541,37	1294,32
541,57	1279,98
541,77	1263,60
541,97	1271,79
542,16	1208,30
542,36	1212,40
542,56	1282,03
542,76	1241,07
542,95	1318,89
543,15	1306,60
543,35	1257,45
543,54	1251,31
543,74	1333,23
543,94	1339,37
544,14	1257,45
544,33	1257,45
544,53	1265,64
544,73	1226,73
544,93	1212,40
545,12	1271,79
545,32	1228,78
545,52	1275,88
545,71	1241,07
545,91	1169,39
546,11	1314,80
546,30	1236,97
546,50	1271,79
546,70	1185,77
546,90	1263,60
547,09	1173,49
547,29	1288,17
547,49	1314,80
547,68	1243,12
547,88	1275,88
548,08	1355,76
548,27	1224,69
548,47	1265,64
548,67	1257,45
548,87	1273,84
549,06	1339,37
549,26	1243,12
549,46	1275,88
549,65	1263,60
549,85	1191,92
550,05	1284,08
550,24	1216,49
550,44	1228,78
550,64	1269,74
550,83	1267,69
551,03	1314,80
551,23	1247,21
551,42	1275,88
551,62	1363,95
551,82	1239,02
552,01	1269,74
552,21	1243,12
552,41	1222,64
552,60	1304,56
552,80	1249,26
553,00	1263,60
553,19	1290,22
553,39	1337,32
553,59	1210,35
553,78	1296,36
553,98	1251,31
554,17	1257,45
554,37	1208,30
554,57	1304,56
554,76	1241,07
554,96	1226,73
555,16	1216,49
555,35	1265,64
555,55	1263,60
555,75	1271,79
555,94	1255,40
556,14	1263,60
556,33	1302,51
556,53	1273,84
556,73	1271,79
556,92	1279,98
557,12	1177,58
557,32	1261,55
557,51	1294,32
557,71	1267,69
557,90	1243,12
558,10	1327,08
558,30	1339,37
558,49	1259,50
558,69	1265,64
558,88	1253,36
559,08	1273,84
559,28	1275,88
559,47	1259,50
559,67	1224,69
559,86	1302,51
560,06	1302,51
560,26	1347,56
560,45	1226,73
560,65	1234,93
560,84	1222,64
561,04	1261,55
561,24	1234,93
561,43	1265,64
561,63	1296,36
561,82	1187,82
562,02	1329,13
562,22	1316,84
562,41	1341,42
562,61	1312,75
562,80	1216,49
563,00	1245,16
563,19	1257,45
563,39	1230,83
563,59	1173,49
563,78	1290,22
563,98	1224,69
564,17	1261,55
564,37	1273,84
564,56	1292,27
564,76	1282,03
564,96	1279,98
565,15	1214,45
565,35	1247,21
565,54	1265,64
565,74	1261,55
565,93	1277,93
566,13	1232,88
566,32	1206,25
566,52	1245,16
566,71	1294,32
566,91	1304,56
567,11	1275,88
567,30	1267,69
567,50	1310,70
567,69	1279,98
567,89	1275,88
568,08	1273,84
568,28	1259,50
568,47	1294,32
568,67	1206,25
568,86	1331,18
569,06	1220,59
569,25	1304,56
569,45	1284,08
569,64	1241,07
569,84	1267,69
570,04	1232,88
570,23	1282,03
570,43	1284,08
570,62	1273,84
570,82	1304,56
571,01	1206,25
571,21	1271,79
571,40	1312,75
571,60	1228,78
571,79	1249,26
571,99	1304,56
572,18	1292,27
572,38	1216,49
572,57	1277,93
572,77	1298,41
572,96	1245,16
573,16	1279,98
573,35	1275,88
573,55	1253,36
573,74	1292,27
573,94	1271,79
574,13	1316,84
574,33	1234,93
574,52	1314,80
574,71	1224,69
574,91	1339,37
575,10	1298,41
575,30	1232,88
575,49	1191,92
575,69	1255,40
575,88	1314,80
576,08	1222,64
576,27	1300,46
576,47	1290,22
576,66	1312,75
576,86	1308,65
577,05	1329,13
577,25	1279,98
577,44	1325,04
577,64	1159,15
577,83	1226,73
578,02	1286,12
578,22	1255,40
578,41	1230,83
578,61	1316,84
578,80	1245,16
579,00	1230,83
579,19	1277,93
579,39	1175,53
579,58	1249,26
579,77	1308,65
579,97	1290,22
580,16	1269,74
580,36	1234,93
580,55	1251,31
580,75	1239,02
580,94	1288,17
581,13	1318,89
581,33	1279,98
581,52	1271,79
581,72	1312,75
581,91	1228,78
582,11	1294,32
582,30	1343,47
582,49	1298,41
582,69	1312,75
582,88	1247,21
583,08	1312,75
583,27	1294,32
583,47	1220,59
583,66	1286,12
583,85	1269,74
584,05	1318,89
584,24	1265,64
584,44	1325,04
584,63	1314,80
584,82	1224,69
585,02	1263,60
585,21	1234,93
585,41	1277,93
585,60	1224,69
585,79	1271,79
585,99	1232,88
586,18	1284,08
586,37	1329,13
586,57	1306,60
586,76	1218,54
586,96	1251,31
587,15	1302,51
587,34	1288,17
587,54	1196,01
587,73	1275,88
587,93	1259,50
588,12	1294,32
588,31	1234,93
588,51	1257,45
588,70	1204,21
588,89	1275,88
589,09	1282,03
589,28	1271,79
589,47	1228,78
589,67	1265,64
589,86	1275,88
590,06	1261,55
590,25	1263,60
590,44	1251,31
590,64	1277,93
590,83	1286,12
591,02	1294,32
591,22	1255,40
591,41	1210,35
591,60	1271,79
591,80	1214,45
591,99	1212,40
592,18	1234,93
592,38	1222,64
592,57	1273,84
592,76	1216,49
592,96	1388,52
593,15	1224,69
593,34	1191,92
593,54	1257,45
593,73	1257,45
593,92	1275,88
594,12	1273,84
594,31	1279,98
594,50	1255,40
594,70	1267,69
594,89	1290,22
595,08	1224,69
595,28	1259,50
595,47	1140,72
595,66	1288,17
595,86	1255,40
596,05	1214,45
596,24	1210,35
596,43	1327,08
596,63	1279,98
596,82	1273,84
597,01	1243,12
597,21	1239,02
597,40	1331,18
597,59	1241,07
597,79	1265,64
597,98	1271,79
598,17	1282,03
598,36	1232,88
598,56	1298,41
598,75	1275,88
598,94	1306,60
599,14	1255,40
599,33	1204,21
599,52	1333,23
599,71	1294,32
599,91	1310,70
600,10	1216,49
600,29	1286,12
600,48	1282,03
600,68	1286,12
600,87	1271,79
601,06	1302,51
601,26	1269,74
601,45	1284,08
601,64	1296,36
601,83	1333,23
602,03	1345,52
602,22	1208,30
602,41	1277,93
602,60	1308,65
602,80	1282,03
602,99	1290,22
603,18	1220,59
603,37	1290,22
603,57	1271,79
603,76	1228,78
603,95	1265,64
604,14	1269,74
604,34	1298,41
604,53	1312,75
604,72	1245,16
604,91	1273,84
605,10	1296,36
605,30	1284,08
605,49	1165,29
605,68	1279,98
605,87	1273,84
606,07	1232,88
606,26	1222,64
606,45	1259,50
606,64	1273,84
606,84	1247,21
607,03	1204,21
607,22	1189,87
607,41	1204,21
607,60	1286,12
607,80	1300,46
607,99	1214,45
608,18	1273,84
608,37	1224,69
608,56	1282,03
608,76	1329,13
608,95	1269,74
609,14	1290,22
609,33	1282,03
609,52	1294,32
609,72	1249,26
609,91	1259,50
610,10	1310,70
610,29	1241,07
610,48	1275,88
610,68	1220,59
610,87	1230,83
611,06	1368,04
611,25	1204,21
611,44	1263,60
611,63	1286,12
611,83	1302,51
612,02	1200,11
612,21	1247,21
612,40	1269,74
612,59	1312,75
612,79	1251,31
612,98	1277,93
613,17	1296,36
613,36	1220,59
613,55	1308,65
613,74	1249,26
613,93	1269,74
614,13	1218,54
614,32	1316,84
614,51	1245,16
614,70	1234,93
614,89	1300,46
615,08	1314,80
615,28	1347,56
615,47	1239,02
615,66	1347,56
615,85	1333,23
616,04	1279,98
616,23	1245,16
616,42	1212,40
616,62	1202,16
616,81	1296,36
617,00	1300,46
617,19	1259,50
617,38	1271,79
617,57	1271,79
617,76	1269,74
617,95	1257,45
618,15	1339,37
618,34	1218,54
618,53	1191,92
618,72	1286,12
618,91	1290,22
619,10	1310,70
619,29	1241,07
619,48	1200,11
619,68	1310,70
619,87	1282,03
620,06	1284,08
620,25	1316,84
620,44	1226,73
620,63	1271,79
620,82	1249,26
621,01	1271,79
621,20	1208,30
621,39	1249,26
621,59	1204,21
621,78	1335,28
621,97	1288,17
622,16	1294,32
622,35	1232,88
622,54	1265,64
622,73	1222,64
622,92	1279,98
623,11	1245,16
623,30	1239,02
623,49	1247,21
623,68	1259,50
623,88	1320,94
624,07	1257,45
624,26	1259,50
624,45	1196,01
624,64	1288,17
624,83	1249,26
625,02	1239,02
625,21	1335,28
625,40	1273,84
625,59	1239,02
625,78	1269,74
625,97	1273,84
626,16	1290,22
626,35	1329,13
626,54	1294,32
626,74	1247,21
626,93	1275,88
627,12	1187,82
627,31	1284,08
627,50	1267,69
627,69	1286,12
627,88	1335,28
628,07	1228,78
628,26	1247,21
628,45	1322,99
628,64	1277,93
628,83	1247,21
629,02	1306,60
629,21	1304,56
629,40	1257,45
629,59	1257,45
629,78	1322,99
629,97	1263,60
630,16	1226,73
630,35	1275,88
630,54	1298,41
630,73	1345,52
630,92	1312,75
631,11	1292,27
631,30	1384,43
631,49	1429,48
631,68	1427,43
631,87	1601,51
632,06	1619,94
632,25	1601,51
632,44	1572,84
632,63	1550,31
632,82	1751,01
633,01	2056,16
633,20	1851,36
633,39	1906,66
633,58	1951,71
633,77	1783,78
633,96	1791,97
634,15	1914,85
634,34	1822,69
634,53	1830,88
634,72	1812,45
634,91	1613,80
635,10	1673,19
635,29	1630,18
635,48	1624,04
635,67	1572,84
635,86	1558,50
636,05	1556,46
636,24	1437,67
636,43	1392,62
636,62	1357,80
636,81	1310,70
637,00	1298,41
637,19	1214,45
637,38	1314,80
637,57	1327,08
637,76	1286,12
637,95	1243,12
638,14	1306,60
638,33	1331,18
638,52	1257,45
638,71	1265,64
638,89	1327,08
639,08	1279,98
639,27	1241,07
639,46	1212,40
639,65	1372,14
639,84	1282,03
640,03	1226,73
640,22	1304,56
640,41	1269,74
640,60	1310,70
640,79	1300,46
640,98	1255,40
641,17	1314,80
641,36	1284,08
641,55	1251,31
641,74	1230,83
641,92	1236,97
642,11	1320,94
642,30	1273,84
642,49	1245,16
642,68	1294,32
642,87	1279,98
643,06	1282,03
643,25	1245,16
643,44	1267,69
643,63	1318,89
643,82	1288,17
644,00	1224,69
644,19	1349,61
644,38	1251,31
644,57	1327,08
644,76	1210,35
644,95	1243,12
645,14	1290,22
645,33	1247,21
645,52	1214,45
645,71	1243,12
645,89	1224,69
646,08	1279,98
646,27	1267,69
646,46	1306,60
646,65	1277,93
646,84	1335,28
647,03	1284,08
647,22	1327,08
647,40	1243,12
647,59	1265,64
647,78	1200,11
647,97	1355,76
648,16	1241,07
648,35	1343,47
648,54	1253,36
648,73	1230,83
648,91	1269,74
649,10	1269,74
649,29	1261,55
649,48	1292,27
649,67	1288,17
649,86	1210,35
650,05	1220,59
650,23	1273,84
650,42	1255,40
650,61	1183,73
650,80	1275,88
650,99	1259,50
651,18	1308,65
651,36	1214,45
651,55	1275,88
651,74	1232,88
651,93	1327,08
652,12	1245,16
652,31	1302,51
652,49	1243,12
652,68	1249,26
652,87	1251,31
653,06	1253,36
653,25	1269,74
653,44	1275,88
653,62	1300,46
653,81	1306,60
654,00	1335,28
654,19	1257,45
654,38	1214,45
654,56	1288,17
654,75	1310,70
654,94	1353,71
655,13	1228,78
655,32	1296,36
655,51	1286,12
655,69	1247,21
655,88	1269,74
656,07	1279,98
656,26	1245,16
656,45	1286,12
656,63	1257,45
656,82	1198,06
657,01	1181,68
657,20	1257,45
657,38	1300,46
657,57	1298,41
657,76	1232,88
657,95	1226,73
658,14	1263,60
658,32	1251,31
658,51	1241,07
658,70	1275,88
658,89	1263,60
659,08	1224,69
659,26	1253,36
659,45	1318,89
659,64	1339,37
659,83	1216,49
660,01	1300,46
660,20	1386,47
660,39	1277,93
660,58	1243,12
660,76	1343,47
660,95	1263,60
661,14	1277,93
661,33	1236,97
661,51	1296,36
661,70	1329,13
661,89	1312,75
662,08	1222,64
662,26	1220,59
662,45	1228,78
662,64	1267,69
662,83	1296,36
663,01	1232,88
663,20	1208,30
663,39	1288,17
663,58	1304,56
663,76	1314,80
663,95	1222,64
664,14	1181,68
664,32	1304,56
664,51	1263,60
664,70	1294,32
664,89	1222,64
665,07	1251,31
665,26	1241,07
665,45	1296,36
665,64	1228,78
665,82	1245,16
666,01	1216,49
666,20	1310,70
666,38	1304,56
666,57	1230,83
666,76	1271,79
666,95	1294,32
667,13	1271,79
667,32	1269,74
667,51	1222,64
667,69	1286,12
667,88	1220,59
668,07	1343,47
668,25	1265,64
668,44	1230,83
668,63	1298,41
668,81	1261,55
669,00	1216,49
669,19	1327,08
669,38	1239,02
669,56	1275,88
669,75	1204,21
669,94	1245,16
670,12	1279,98
670,31	1210,35
670,50	1290,22
670,68	1239,02
670,87	1314,80
671,06	1224,69
671,24	1331,18
671,43	1318,89
671,62	1296,36
671,80	1298,41
671,99	1241,07
672,18	1253,36
672,36	1325,04
672,55	1271,79
672,74	1222,64
672,92	1288,17
673,11	1327,08
673,29	1292,27
673,48	1230,83
673,67	1210,35
673,85	1202,16
674,04	1163,25
674,23	1247,21
674,41	1236,97
674,60	1263,60
674,79	1310,70
674,97	1220,59
675,16	1187,82
675,34	1249,26
675,53	1327,08
675,72	1239,02
675,90	1290,22
676,09	1224,69
676,28	1222,64
676,46	1271,79
676,65	1204,21
676,83	1243,12
677,02	1222,64
677,21	1269,74
677,39	1230,83
677,58	1257,45
677,77	1327,08
677,95	1263,60
678,14	1298,41
678,32	1279,98
678,51	1337,32
678,70	1269,74
678,88	1243,12
679,07	1216,49
679,25	1316,84
679,44	1204,21
679,63	1241,07
679,81	1230,83
680,00	1286,12
680,18	1318,89
680,37	1286,12
680,55	1257,45
680,74	1265,64
680,93	1380,33
681,11	1243,12
681,30	1298,41
681,48	1282,03
681,67	1282,03
681,85	1247,21
682,04	1263,60
682,23	1284,08
682,41	1267,69
682,60	1232,88
682,78	1228,78
682,97	1251,31
683,15	1290,22
683,34	1294,32
683,53	1292,27
683,71	1234,93
683,90	1259,50
684,08	1267,69
684,27	1294,32
684,45	1249,26
684,64	1282,03
684,82	1226,73
685,01	1210,35
685,19	1290,22
685,38	1226,73
685,57	1286,12
685,75	1331,18
685,94	1185,77
686,12	1257,45
686,31	1282,03
686,49	1216,49
686,68	1261,55
686,86	1261,55
687,05	1220,59
687,23	1361,90
687,42	1177,58
687,60	1282,03
687,79	1226,73
687,97	1265,64
688,16	1288,17
688,34	1202,16
688,53	1239,02
688,71	1206,25
688,90	1216,49
689,08	1220,59
689,27	1243,12
689,45	1236,97
689,64	1355,76
689,82	1267,69
690,01	1290,22
690,19	1316,84
690,38	1298,41
690,56	1245,16
690,75	1210,35
690,93	1259,50
691,12	1275,88
691,30	1255,40
691,49	1312,75
691,67	1191,92
691,86	1265,64
692,04	1286,12
692,23	1249,26
692,41	1337,32
692,60	1316,84
692,78	1267,69
692,97	1204,21
693,15	1292,27
693,34	1302,51
693,52	1318,89
693,71	1298,41
693,89	1310,70
694,08	1257,45
694,26	1277,93
694,44	1247,21
694,63	1265,64
694,81	1304,56
695,00	1249,26
695,18	1279,98
695,37	1239,02
695,55	1173,49
695,74	1292,27
695,92	1208,30
696,10	1232,88
696,29	1288,17
696,47	1253,36
696,66	1198,06
696,84	1300,46
697,03	1286,12
697,21	1226,73
697,40	1279,98
697,58	1273,84
697,76	1224,69
697,95	1198,06
698,13	1255,40
698,32	1335,28
698,50	1310,70
698,68	1282,03
698,87	1210,35
699,05	1318,89
699,24	1279,98
699,42	1234,93
699,61	1251,31
699,79	1236,97
699,97	1259,50
700,16	1308,65
700,34	1230,83
700,53	1183,73
700,71	1292,27
700,89	1363,95
701,08	1196,01
701,26	1296,36
701,45	1261,55
701,63	1275,88
701,81	1282,03
702,00	1249,26
702,18	1241,07
702,37	1282,03
702,55	1204,21
702,73	1253,36
702,92	1322,99
703,10	1234,93
703,28	1318,89
703,47	1314,80
703,65	1273,84
703,84	1255,40
704,02	1322,99
704,20	1249,26
704,39	1290,22
704,57	1259,50
704,75	1294,32
704,94	1265,64
705,12	1206,25
705,30	1314,80
705,49	1331,18
705,67	1257,45
705,86	1343,47
706,04	1271,79
706,22	1218,54
706,41	1282,03
706,59	1200,11
706,77	1269,74
706,96	1308,65
707,14	1230,83
707,32	1366,00
707,51	1230,83
707,69	1263,60
707,87	1230,83
708,06	1277,93
708,24	1232,88
708,42	1261,55
708,61	1302,51
708,79	1339,37
708,97	1292,27
709,16	1255,40
709,34	1265,64
709,52	1251,31
709,71	1249,26
709,89	1251,31
710,07	1290,22
710,26	1275,88
710,44	1282,03
710,62	1253,36
710,80	1249,26
710,99	1243,12
711,17	1277,93
711,35	1263,60
711,54	1337,32
711,72	1314,80
711,90	1263,60
712,09	1302,51
712,27	1316,84
712,45	1290,22
712,63	1277,93
712,82	1306,60
713,00	1290,22
713,18	1316,84
713,37	1265,64
713,55	1310,70
713,73	1216,49
713,91	1253,36
714,10	1368,04
714,28	1308,65
714,46	1269,74
714,65	1243,12
714,83	1288,17
715,01	1183,73
715,19	1277,93
715,38	1294,32
715,56	1267,69
715,74	1249,26
715,92	1259,50
716,11	1257,45
716,29	1322,99
716,47	1271,79
716,65	1306,60
716,84	1271,79
717,02	1271,79
717,20	1269,74
717,38	1310,70
717,57	1273,84
717,75	1226,73
717,93	1228,78
718,11	1255,40
718,30	1261,55
718,48	1216,49
718,66	1279,98
718,84	1259,50
719,03	1290,22
719,21	1206,25
719,39	1329,13
719,57	1179,63
719,75	1284,08
719,94	1228,78
720,12	1234,93
720,30	1224,69
720,48	1249,26
720,67	1243,12
720,85	1275,88
721,03	1267,69
721,21	1243,12
721,39	1282,03
721,58	1277,93
721,76	1277,93
721,94	1304,56
722,12	1269,74
722,30	1349,61
722,49	1257,45
722,67	1306,60
722,85	1210,35
723,03	1279,98
723,21	1224,69
723,40	1216,49
723,58	1277,93
723,76	1269,74
723,94	1257,45
724,12	1253,36
724,30	1222,64
724,49	1322,99
724,67	1202,16
724,85	1269,74
725,03	1275,88
725,21	1263,60
725,40	1322,99
725,58	1243,12
725,76	1269,74
725,94	1206,25
726,12	1314,80
726,30	1302,51
726,49	1232,88
726,67	1255,40
726,85	1271,79
727,03	1208,30
727,21	1327,08
727,39	1298,41
727,57	1357,80
727,76	1232,88
727,94	1239,02
728,12	1279,98
728,30	1279,98
728,48	1230,83
728,66	1304,56
728,84	1271,79
729,03	1277,93
729,21	1335,28
729,39	1187,82
729,57	1290,22
729,75	1255,40
729,93	1308,65
730,11	1200,11
730,30	1247,21
730,48	1277,93
730,66	1263,60
730,84	1249,26
731,02	1318,89
731,20	1320,94
731,38	1245,16
731,56	1335,28
731,74	1200,11
731,93	1212,40
732,11	1298,41
732,29	1261,55
732,47	1296,36
732,65	1253,36
732,83	1257,45
733,01	1290,22
733,19	1175,53
733,37	1220,59
733,56	1222,64
733,74	1343,47
733,92	1265,64
734,10	1273,84
734,28	1271,79
734,46	1290,22
734,64	1212,40
734,82	1345,52
735,00	1239,02
735,18	1234,93
735,36	1239,02
735,54	1247,21
735,73	1216,49
735,91	1331,18
736,09	1261,55
736,27	1345,52
736,45	1265,64
736,63	1294,32
736,81	1286,12
736,99	1273,84
737,17	1290,22
737,35	1372,14
737,53	1339,37
737,71	1249,26
737,89	1331,18
738,07	1308,65
738,25	1337,32
738,43	1222,64
738,61	1224,69
738,80	1241,07
738,98	1273,84
739,16	1232,88
739,34	1298,41
739,52	1212,40
739,70	1253,36
739,88	1239,02
740,06	1253,36
740,24	1327,08
740,42	1245,16
740,60	1292,27
740,78	1288,17
740,96	1204,21
741,14	1304,56
741,32	1161,20
741,50	1308,65
741,68	1318,89
741,86	1249,26
742,04	1259,50
742,22	1265,64
742,40	1232,88
742,58	1257,45
742,76	1255,40
742,94	1189,87
743,12	1245,16
743,30	1251,31
743,48	1353,71
743,66	1294,32
743,84	1257,45
744,02	1261,55
744,20	1265,64
744,38	1269,74
744,56	1300,46
744,74	1290,22
744,92	1257,45
745,10	1243,12
745,28	1271,79
745,46	1273,84
745,64	1230,83
745,82	1282,03
746,00	1230,83
746,18	1294,32
746,36	1255,40
746,54	1277,93
746,72	1204,21
746,90	1284,08
747,08	1200,11
747,26	1290,22
747,44	1185,77
747,62	1275,88
747,80	1284,08
747,98	1257,45
748,15	1234,93
748,33	1247,21
748,51	1296,36
748,69	1234,93
748,87	1218,54
749,05	1243,12
749,23	1263,60
749,41	1245,16
749,59	1245,16
749,77	1263,60
749,95	1343,47
750,13	1284,08
750,31	1312,75
750,49	1290,22
750,67	1304,56
750,85	1294,32
751,03	1378,28
751,20	1275,88
751,38	1232,88
751,56	1263,60
751,74	1259,50
751,92	1263,60
752,10	1271,79
752,28	1232,88
752,46	1243,12
752,64	1247,21
752,82	1239,02
753,00	1249,26
753,18	1335,28
753,35	1251,31
753,53	1243,12
753,71	1191,92
753,89	1261,55
754,07	1263,60
754,25	1269,74
754,43	1245,16
754,61	1263,60
754,79	1265,64
754,97	1275,88
755,14	1275,88
755,32	1255,40
755,50	1196,01
755,68	1366,00
755,86	1267,69
756,04	1296,36
756,22	1212,40
756,40	1177,58
756,57	1345,52
756,75	1230,83
756,93	1294,32
757,11	1298,41
757,29	1302,51
757,47	1316,84
757,65	1306,60
757,82	1257,45
758,00	1204,21
758,18	1267,69
758,36	1294,32
758,54	1263,60
758,72	1265,64
758,90	1177,58
759,07	1294,32
759,25	1232,88
759,43	1273,84
759,61	1271,79
759,79	1273,84
759,97	1243,12
760,15	1273,84
760,32	1290,22
760,50	1277,93
760,68	1294,32
760,86	1204,21
761,04	1241,07
761,22	1322,99
761,39	1296,36
761,57	1269,74
761,75	1183,73
761,93	1243,12
762,11	1216,49
762,28	1275,88
762,46	1310,70
762,64	1290,22
762,82	1218,54
763,00	1257,45
763,18	1306,60
763,35	1191,92
763,53	1230,83
763,71	1304,56
763,89	1259,50
764,07	1253,36
764,24	1204,21
764,42	1312,75
764,60	1226,73
764,78	1347,56
764,96	1236,97
765,13	1345,52
765,31	1245,16
765,49	1232,88
765,67	1224,69
765,84	1286,12
766,02	1216,49
766,20	1228,78
766,38	1251,31
766,56	1271,79
766,73	1288,17
766,91	1224,69
767,09	1198,06
767,27	1247,21
767,44	1265,64
767,62	1245,16
767,80	1279,98
767,98	1337,32
768,15	1294,32
768,33	1265,64
768,51	1282,03
768,69	1259,50
768,87	1259,50
769,04	1232,88
769,22	1333,23
769,40	1308,65
769,58	1304,56
769,75	1245,16
769,93	1265,64
770,11	1249,26
770,28	1206,25
770,46	1253,36
770,64	1249,26
770,82	1288,17
770,99	1282,03
771,17	1267,69
771,35	1282,03
771,53	1239,02
771,70	1288,17
771,88	1267,69
772,06	1318,89
772,23	1222,64
772,41	1361,90
772,59	1222,64
772,77	1337,32
772,94	1255,40
773,12	1308,65
773,30	1273,84
773,47	1284,08
773,65	1187,82
773,83	1241,07
774,01	1239,02
774,18	1279,98
774,36	1257,45
774,54	1320,94
774,71	1296,36
774,89	1234,93
775,07	1284,08
775,24	1236,97
775,42	1241,07
775,60	1222,64
775,78	1335,28
775,95	1212,40
776,13	1200,11
776,31	1259,50
776,48	1271,79
776,66	1361,90
776,84	1269,74
777,01	1269,74
777,19	1216,49
777,37	1169,39
777,54	1304,56
777,72	1304,56
777,90	1282,03
778,07	1241,07
778,25	1302,51
778,43	1228,78
778,60	1243,12
778,78	1300,46
778,96	1282,03
779,13	1212,40
779,31	1279,98
779,49	1249,26
779,66	1271,79
779,84	1265,64
780,01	1255,40
780,19	1296,36
780,37	1216,49
780,54	1198,06
780,72	1263,60
780,90	1226,73
781,07	1298,41
781,25	1284,08
781,43	1308,65
781,60	1257,45
781,78	1271,79
781,95	1273,84
782,13	1261,55
782,31	1327,08
782,48	1214,45
782,66	1265,64
782,83	1308,65
783,01	1267,69
783,19	1271,79
783,36	1275,88
783,54	1275,88
783,72	1259,50
783,89	1218,54
784,07	1222,64
784,24	1275,88
784,42	1273,84
784,60	1271,79
784,77	1298,41
784,95	1224,69
785,12	1273,84
785,30	1286,12
785,47	1325,04
785,65	1228,78
785,83	1257,45
786,00	1261,55
786,18	1239,02
786,35	1265,64
786,53	1236,97
786,71	1206,25
786,88	1259,50
787,06	1286,12
787,23	1277,93
787,41	1279,98
787,58	1181,68
787,76	1247,21
787,94	1320,94
788,11	1261,55
788,29	1249,26
788,46	1253,36
788,64	1239,02
788,81	1214,45
788,99	1296,36
789,16	1243,12
789,34	1322,99
789,52	1314,80
789,69	1282,03
789,87	1253,36
790,04	1224,69
790,22	1253,36
790,39	1271,79
790,57	1191,92
790,74	1257,45
790,92	1292,27
791,09	1292,27
791,27	1261,55
791,44	1216,49
791,62	1312,75
791,79	1234,93
791,97	1273,84
792,15	1306,60
792,32	1257,45
792,50	1300,46
792,67	1310,70
792,85	1290,22
793,02	1265,64
793,20	1286,12
793,37	1265,64
793,55	1236,97
793,72	1251,31
793,90	1236,97
794,07	1267,69
794,25	1298,41
794,42	1206,25
794,60	1325,04
794,77	1271,79
794,95	1230,83
795,12	1230,83
795,30	1259,50
795,47	1241,07
795,65	1296,36
795,82	1251,31
796,00	1275,88
796,17	1161,20
796,34	1339,37
796,52	1277,93
796,69	1304,56
796,87	1257,45
797,04	1245,16
797,22	1331,18
797,39	1261,55
797,57	1196,01
797,74	1310,70
797,92	1239,02
798,09	1249,26
798,27	1245,16
798,44	1212,40
798,62	1220,59
798,79	1310,70
798,96	1187,82
799,14	1220,59
799,31	1347,56
799,49	1294,32
799,66	1294,32
799,84	1277,93
800,01	1222,64
800,19	1202,16
800,36	1263,60
800,53	1239,02
800,71	1298,41
800,88	1257,45
801,06	1259,50
801,23	1163,25
801,41	1212,40
801,58	1239,02
801,75	1241,07
801,93	1331,18
802,10	1271,79
802,28	1263,60
802,45	1236,97
802,63	1241,07
802,80	1236,97
802,97	1234,93
803,15	1322,99
803,32	1167,34
803,50	1198,06
803,67	1277,93
803,84	1286,12
804,02	1267,69
804,19	1224,69
804,37	1247,21
804,54	1333,23
804,71	1290,22
804,89	1232,88
805,06	1245,16
805,24	1220,59
805,41	1300,46
805,58	1302,51
805,76	1230,83
805,93	1265,64
806,10	1322,99
806,28	1249,26
806,45	1267,69
806,63	1236,97
806,80	1210,35
806,97	1284,08
807,15	1261,55
807,32	1333,23
807,49	1290,22
807,67	1230,83
807,84	1249,26
808,01	1236,97
808,19	1286,12
808,36	1275,88
808,54	1271,79
808,71	1173,49
808,88	1236,97
809,06	1341,42
809,23	1245,16
809,40	1255,40
809,58	1275,88
809,75	1218,54
809,92	1226,73
810,10	1304,56
810,27	1206,25
810,44	1183,73
810,62	1202,16
810,79	1259,50
810,96	1269,74
811,14	1243,12
811,31	1298,41
811,48	1304,56
811,66	1296,36
811,83	1357,80
812,00	1265,64
812,18	1214,45
812,35	1290,22
812,52	1286,12
812,69	1273,84
812,87	1288,17
813,04	1302,51
813,21	1212,40
813,39	1259,50
813,56	1257,45
813,73	1185,77
813,91	1204,21
814,08	1196,01
814,25	1275,88
814,42	1290,22
814,60	1269,74
814,77	1265,64
814,94	1296,36
815,12	1239,02
815,29	1273,84
815,46	1232,88
815,63	1320,94
815,81	1202,16
815,98	1294,32
816,15	1320,94
816,33	1206,25
816,50	1282,03
816,67	1255,40
816,84	1265,64
817,02	1284,08
817,19	1247,21
817,36	1232,88
817,53	1273,84
817,71	1265,64
817,88	1247,21
818,05	1253,36
818,22	1253,36
818,40	1298,41
818,57	1236,97
818,74	1224,69
818,91	1259,50
819,09	1241,07
819,26	1314,80
819,43	1275,88
819,60	1288,17
819,78	1359,85
819,95	1286,12
820,12	1232,88
820,29	1247,21
820,47	1261,55
820,64	1331,18
820,81	1267,69
820,98	1320,94
821,15	1279,98
821,33	1331,18
821,50	1177,58
821,67	1216,49
821,84	1275,88
822,02	1277,93
822,19	1245,16
822,36	1292,27
822,53	1198,06
822,70	1269,74
822,88	1236,97
823,05	1294,32
823,22	1304,56
823,39	1310,70
823,56	1249,26
823,74	1282,03
823,91	1282,03
824,08	1322,99
824,25	1253,36
824,42	1236,97
824,60	1210,35
824,77	1286,12
824,94	1304,56
825,11	1239,02
825,28	1241,07
825,45	1239,02
825,63	1306,60
825,80	1228,78
825,97	1263,60
826,14	1259,50
826,31	1255,40
826,48	1234,93
826,66	1282,03
826,83	1279,98
827,00	1279,98
827,17	1269,74
827,34	1255,40
827,51	1243,12
827,69	1196,01
827,86	1220,59
828,03	1191,92
828,20	1335,28
828,37	1337,32
828,54	1275,88
828,71	1273,84
828,89	1277,93
829,06	1279,98
829,23	1298,41
829,40	1232,88
829,57	1267,69
829,74	1314,80
829,91	1296,36
830,09	1290,22
830,26	1263,60
830,43	1304,56
830,60	1253,36
830,77	1296,36
830,94	1269,74
831,11	1216,49
831,28	1232,88
831,46	1269,74
831,63	1339,37
831,80	1226,73
831,97	1304,56
832,14	1282,03
832,31	1245,16
832,48	1267,69
832,65	1222,64
832,82	1224,69
832,99	1226,73
833,17	1220,59
833,34	1261,55
833,51	1239,02
833,68	1275,88
833,85	1232,88
834,02	1183,73
834,19	1210,35
834,36	1232,88
834,53	1253,36
834,70	1357,80
834,87	1210,35
835,04	1220,59
835,22	1320,94
835,39	1300,46
835,56	1204,21
835,73	1251,31
835,90	1234,93
836,07	1316,84
836,24	1277,93
836,41	1292,27
836,58	1282,03
836,75	1290,22
836,92	1308,65
837,09	1286,12
837,26	1257,45
837,43	1232,88
837,60	1234,93
837,77	1214,45
837,94	1275,88
838,12	1286,12
838,29	1249,26
838,46	1220,59
838,63	1150,96
838,80	1277,93
838,97	1222,64
839,14	1298,41
839,31	1271,79
839,48	1306,60
839,65	1245,16
839,82	1265,64
839,99	1257,45
840,16	1214,45
840,33	1224,69
840,50	1245,16
840,67	1265,64
840,84	1222,64
841,01	1279,98
841,18	1241,07
841,35	1279,98
841,52	1187,82
841,69	1249,26
841,86	1251,31
842,03	1171,44
842,20	1320,94
842,37	1226,73
842,54	1368,04
842,71	1294,32
842,88	1261,55
843,05	1220,59
843,22	1232,88
843,39	1310,70
843,56	1259,50
843,73	1249,26
843,90	1263,60
844,07	1269,74
844,24	1257,45
844,41	1181,68
844,58	1290,22
844,75	1314,80
844,92	1251,31
845,09	1267,69
845,26	1304,56
845,43	1263,60
845,60	1218,54
845,77	1286,12
845,94	1351,66
846,10	1286,12
846,27	1193,97
846,44	1243,12
846,61	1216,49
846,78	1208,30
846,95	1257,45
847,12	1279,98
847,29	1261,55
847,46	1236,97
847,63	1271,79
847,80	1241,07
847,97	1349,61
848,14	1335,28
848,31	1232,88
848,48	1253,36
848,65	1259,50
848,82	1267,69
848,98	1296,36
849,15	1247,21
849,32	1249,26
849,49	1222,64
849,66	1282,03
849,83	1187,82
850,00	1255,40
850,17	1230,83
850,34	1302,51
850,51	1243,12
850,68	1322,99
850,85	1294,32
851,01	1306,60
851,18	1247,21
851,35	1198,06
851,52	1218,54
851,69	1251,31
851,86	1253,36
852,03	1279,98
852,20	1247,21
852,37	1271,79
852,53	1261,55
852,70	1255,40
852,87	1294,32
853,04	1206,25
853,21	1216,49
853,38	1251,31
853,55	1277,93
853,72	1308,65
853,89	1267,69
854,05	1255,40
854,22	1298,41
854,39	1302,51
854,56	1257,45
854,73	1316,84
854,90	1331,18
855,07	1279,98
855,23	1232,88
855,40	1239,02
855,57	1216,49
855,74	1294,32
855,91	1187,82
856,08	1204,21
856,25	1277,93
856,41	1286,12
856,58	1271,79
856,75	1263,60
856,92	1234,93
857,09	1239,02
857,26	1202,16
857,42	1284,08
857,59	1191,92
857,76	1279,98
857,93	1292,27
858,10	1247,21
858,27	1236,97
858,43	1265,64
858,60	1298,41
858,77	1220,59
858,94	1249,26
859,11	1255,40
859,27	1228,78
859,44	1253,36
859,61	1245,16
859,78	1249,26
859,95	1210,35
860,12	1333,23
860,28	1306,60
860,45	1322,99
860,62	1255,40
860,79	1259,50
860,95	1202,16
861,12	1234,93
861,29	1275,88
861,46	1282,03
861,63	1320,94
861,79	1247,21
861,96	1243,12
862,13	1310,70
862,30	1249,26
862,47	1322,99
862,63	1239,02
862,80	1320,94
862,97	1257,45
863,14	1312,75
863,30	1239,02
863,47	1282,03
863,64	1261,55
863,81	1292,27
863,97	1239,02
864,14	1320,94
864,31	1322,99
864,48	1271,79
864,65	1273,84
864,81	1337,32
864,98	1314,80
865,15	1232,88
865,32	1306,60
865,48	1298,41
865,65	1294,32
865,82	1245,16
865,98	1204,21
866,15	1294,32
866,32	1241,07
866,49	1275,88
866,65	1331,18
866,82	1290,22
866,99	1267,69
867,16	1247,21
867,32	1261,55
867,49	1236,97
867,66	1234,93
867,83	1333,23
867,99	1247,21
868,16	1322,99
868,33	1257,45
868,49	1218,54
868,66	1325,04
868,83	1267,69
868,99	1271,79
869,16	1288,17
869,33	1257,45
869,50	1265,64
869,66	1232,88
869,83	1333,23
870,00	1282,03
870,16	1220,59
870,33	1335,28
870,50	1277,93
870,66	1243,12
870,83	1275,88
871,00	1239,02
871,17	1261,55
871,33	1267,69
871,50	1210,35
871,67	1286,12
871,83	1218,54
872,00	1284,08
872,17	1232,88
872,33	1245,16
872,50	1234,93
872,67	1247,21
872,83	1230,83
873,00	1216,49
873,17	1347,56
873,33	1232,88
873,50	1261,55
873,67	1318,89
873,83	1208,30
874,00	1318,89
874,16	1253,36
874,33	1294,32
874,50	1247,21
874,66	1251,31
874,83	1275,88
875,00	1284,08
875,16	1353,71
875,33	1253,36
875,50	1277,93
875,66	1212,40
875,83	1306,60
875,99	1210,35
876,16	1269,74
876,33	1286,12
876,49	1298,41
876,66	1304,56
876,83	1263,60
876,99	1193,97
877,16	1361,90
877,32	1288,17
877,49	1316,84
877,66	1257,45
877,82	1222,64
877,99	1331,18
878,15	1265,64
878,32	1277,93
878,49	1304,56
878,65	1308,65
878,82	1245,16
878,98	1224,69
879,15	1277,93
879,32	1249,26
879,48	1261,55
879,65	1288,17
879,81	1247,21
879,98	1261,55
880,15	1239,02
880,31	1263,60
880,48	1247,21
880,64	1284,08
880,81	1255,40
880,97	1222,64
881,14	1224,69
881,31	1271,79
881,47	1298,41
881,64	1191,92
881,80	1304,56
881,97	1279,98
882,13	1277,93
882,30	1296,36
882,47	1212,40
882,63	1282,03
882,80	1249,26
882,96	1312,75
883,13	1318,89
883,29	1351,66
883,46	1234,93
883,62	1261,55
883,79	1279,98
883,95	1316,84
884,12	1277,93
884,29	1253,36
884,45	1331,18
884,62	1363,95
884,78	1249,26
884,95	1253,36
885,11	1286,12
885,28	1271,79
885,44	1273,84
885,61	1263,60
885,77	1247,21
885,94	1206,25
886,10	1314,80
886,27	1249,26
886,43	1304,56
886,60	1359,85
886,76	1296,36
886,93	1226,73
887,09	1263,60
887,26	1288,17
887,42	1306,60
887,59	1318,89
887,75	1282,03
887,92	1275,88
888,08	1275,88
888,25	1282,03
888,41	1261,55
888,58	1265,64
888,74	1269,74
888,91	1302,51
>>>>>End Processed Spectral Data<<<<<
