SpectraSuite Data File
++++++++++++++++++++++++++++++++++++
Date: Sun Apr 03 15:57:34 CEST 2016
User: root
Dark Spectrum Present: No
Reference Spectrum Present: No
Number of Sampled Component Spectra: 1
Spectrometers: USB4C02835
Integration Time (usec): 10000 (USB4C02835)
Spectra Averaged: 1 (USB4C02835)
Boxcar Smoothing: 0 (USB4C02835)
Correct for Electrical Dark: No (USB4C02835)
Strobe/Lamp Enabled: No (USB4C02835)
Correct for Detector Non-linearity: No (USB4C02835)
Correct for Stray Light: No (USB4C02835)
Number of Pixels in Processed Spectrum: 3648
>>>>>Begin Processed Spectral Data<<<<<
177,47	1284,08
177,69	1284,08
177,91	1284,08
178,13	1228,78
178,36	1226,73
178,58	1208,30
178,80	1247,21
179,02	1267,69
179,24	1279,98
179,46	1296,36
179,68	1236,97
179,90	1263,60
180,13	1263,60
180,35	1210,35
180,57	1245,16
180,79	1294,32
181,01	1267,69
181,23	1265,64
181,45	1259,50
181,67	1206,25
181,90	1210,35
182,12	1335,28
182,34	1216,49
182,56	1333,23
182,78	1228,78
183,00	1224,69
183,22	1259,50
183,44	1267,69
183,66	1273,84
183,89	1243,12
184,11	1282,03
184,33	1241,07
184,55	1286,12
184,77	1210,35
184,99	1206,25
185,21	1269,74
185,43	1241,07
185,65	1296,36
185,87	1259,50
186,10	1298,41
186,32	1300,46
186,54	1284,08
186,76	1241,07
186,98	1212,40
187,20	1222,64
187,42	1210,35
187,64	1306,60
187,86	1241,07
188,08	1259,50
188,30	1261,55
188,52	1325,04
188,75	1318,89
188,97	1249,26
189,19	1314,80
189,41	1310,70
189,63	1298,41
189,85	1218,54
190,07	1320,94
190,29	1263,60
190,51	1261,55
190,73	1306,60
190,95	1306,60
191,17	1312,75
191,39	1224,69
191,61	1279,98
191,84	1216,49
192,06	1308,65
192,28	1282,03
192,50	1349,61
192,72	1253,36
192,94	1275,88
193,16	1279,98
193,38	1267,69
193,60	1241,07
193,82	1288,17
194,04	1243,12
194,26	1257,45
194,48	1273,84
194,70	1288,17
194,92	1224,69
195,14	1296,36
195,36	1224,69
195,58	1204,21
195,80	1232,88
196,02	1257,45
196,24	1269,74
196,46	1271,79
196,69	1277,93
196,91	1282,03
197,13	1247,21
197,35	1234,93
197,57	1200,11
197,79	1282,03
198,01	1310,70
198,23	1322,99
198,45	1226,73
198,67	1206,25
198,89	1228,78
199,11	1247,21
199,33	1265,64
199,55	1247,21
199,77	1271,79
199,99	1271,79
200,21	1284,08
200,43	1208,30
200,65	1343,47
200,87	1306,60
201,09	1312,75
201,31	1210,35
201,53	1253,36
201,75	1232,88
201,97	1279,98
202,19	1253,36
202,41	1208,30
202,63	1292,27
202,85	1298,41
203,07	1251,31
203,29	1200,11
203,51	1298,41
203,73	1230,83
203,95	1224,69
204,17	1290,22
204,39	1329,13
204,61	1316,84
204,83	1224,69
205,05	1277,93
205,27	1271,79
205,49	1284,08
205,71	1224,69
205,93	1282,03
206,15	1198,06
206,37	1298,41
206,59	1208,30
206,81	1206,25
207,03	1259,50
207,25	1312,75
207,47	1208,30
207,69	1271,79
207,91	1212,40
208,13	1253,36
208,34	1298,41
208,56	1263,60
208,78	1322,99
209,00	1310,70
209,22	1292,27
209,44	1232,88
209,66	1255,40
209,88	1275,88
210,10	1255,40
210,32	1241,07
210,54	1247,21
210,76	1261,55
210,98	1265,64
211,20	1259,50
211,42	1316,84
211,64	1329,13
211,86	1300,46
212,08	1322,99
212,30	1191,92
212,52	1294,32
212,74	1343,47
212,96	1275,88
213,17	1245,16
213,39	1282,03
213,61	1275,88
213,83	1314,80
214,05	1183,73
214,27	1302,51
214,49	1232,88
214,71	1282,03
214,93	1316,84
215,15	1224,69
215,37	1331,18
215,59	1265,64
215,81	1284,08
216,03	1241,07
216,24	1279,98
216,46	1245,16
216,68	1292,27
216,90	1257,45
217,12	1247,21
217,34	1290,22
217,56	1226,73
217,78	1296,36
218,00	1290,22
218,22	1261,55
218,44	1177,58
218,66	1277,93
218,87	1355,76
219,09	1255,40
219,31	1298,41
219,53	1249,26
219,75	1249,26
219,97	1243,12
220,19	1214,45
220,41	1325,04
220,63	1312,75
220,85	1263,60
221,06	1298,41
221,28	1286,12
221,50	1347,56
221,72	1212,40
221,94	1253,36
222,16	1275,88
222,38	1269,74
222,60	1220,59
222,82	1316,84
223,03	1296,36
223,25	1325,04
223,47	1302,51
223,69	1267,69
223,91	1226,73
224,13	1282,03
224,35	1226,73
224,57	1339,37
224,78	1220,59
225,00	1271,79
225,22	1251,31
225,44	1183,73
225,66	1247,21
225,88	1298,41
226,10	1353,71
226,32	1263,60
226,53	1259,50
226,75	1282,03
226,97	1251,31
227,19	1306,60
227,41	1257,45
227,63	1273,84
227,85	1249,26
228,06	1259,50
228,28	1224,69
228,50	1329,13
228,72	1212,40
228,94	1282,03
229,16	1251,31
229,37	1236,97
229,59	1245,16
229,81	1288,17
230,03	1230,83
230,25	1249,26
230,47	1245,16
230,69	1282,03
230,90	1290,22
231,12	1294,32
231,34	1275,88
231,56	1239,02
231,78	1236,97
232,00	1333,23
232,21	1204,21
232,43	1273,84
232,65	1322,99
232,87	1273,84
233,09	1282,03
233,30	1210,35
233,52	1302,51
233,74	1243,12
233,96	1269,74
234,18	1255,40
234,40	1271,79
234,61	1255,40
234,83	1269,74
235,05	1228,78
235,27	1265,64
235,49	1228,78
235,70	1265,64
235,92	1327,08
236,14	1226,73
236,36	1296,36
236,58	1261,55
236,79	1245,16
237,01	1249,26
237,23	1204,21
237,45	1271,79
237,67	1308,65
237,88	1255,40
238,10	1236,97
238,32	1277,93
238,54	1333,23
238,76	1294,32
238,97	1232,88
239,19	1247,21
239,41	1322,99
239,63	1284,08
239,85	1298,41
240,06	1259,50
240,28	1249,26
240,50	1234,93
240,72	1226,73
240,93	1306,60
241,15	1320,94
241,37	1222,64
241,59	1308,65
241,81	1228,78
242,02	1241,07
242,24	1353,71
242,46	1210,35
242,68	1275,88
242,89	1181,68
243,11	1243,12
243,33	1257,45
243,55	1239,02
243,76	1312,75
243,98	1236,97
244,20	1257,45
244,42	1224,69
244,64	1298,41
244,85	1245,16
245,07	1335,28
245,29	1257,45
245,51	1300,46
245,72	1282,03
245,94	1200,11
246,16	1351,66
246,38	1347,56
246,59	1257,45
246,81	1265,64
247,03	1300,46
247,24	1257,45
247,46	1325,04
247,68	1243,12
247,90	1282,03
248,11	1216,49
248,33	1230,83
248,55	1286,12
248,77	1241,07
248,98	1230,83
249,20	1247,21
249,42	1216,49
249,64	1265,64
249,85	1345,52
250,07	1267,69
250,29	1331,18
250,50	1290,22
250,72	1243,12
250,94	1234,93
251,16	1241,07
251,37	1310,70
251,59	1296,36
251,81	1265,64
252,02	1245,16
252,24	1224,69
252,46	1282,03
252,68	1253,36
252,89	1241,07
253,11	1255,40
253,33	1263,60
253,54	1224,69
253,76	1218,54
253,98	1288,17
254,20	1224,69
254,41	1282,03
254,63	1308,65
254,85	1216,49
255,06	1374,19
255,28	1247,21
255,50	1247,21
255,71	1294,32
255,93	1255,40
256,15	1277,93
256,36	1255,40
256,58	1263,60
256,80	1279,98
257,02	1357,80
257,23	1282,03
257,45	1257,45
257,67	1277,93
257,88	1308,65
258,10	1259,50
258,32	1243,12
258,53	1269,74
258,75	1304,56
258,97	1191,92
259,18	1265,64
259,40	1249,26
259,62	1335,28
259,83	1239,02
260,05	1249,26
260,27	1296,36
260,48	1335,28
260,70	1284,08
260,92	1316,84
261,13	1214,45
261,35	1300,46
261,57	1247,21
261,78	1335,28
262,00	1253,36
262,22	1269,74
262,43	1292,27
262,65	1290,22
262,86	1269,74
263,08	1220,59
263,30	1243,12
263,51	1288,17
263,73	1277,93
263,95	1296,36
264,16	1224,69
264,38	1271,79
264,60	1253,36
264,81	1310,70
265,03	1232,88
265,25	1257,45
265,46	1273,84
265,68	1331,18
265,89	1310,70
266,11	1349,61
266,33	1298,41
266,54	1232,88
266,76	1261,55
266,98	1259,50
267,19	1331,18
267,41	1349,61
267,62	1286,12
267,84	1257,45
268,06	1300,46
268,27	1257,45
268,49	1204,21
268,70	1329,13
268,92	1261,55
269,14	1249,26
269,35	1329,13
269,57	1314,80
269,79	1255,40
270,00	1208,30
270,22	1284,08
270,43	1224,69
270,65	1267,69
270,87	1286,12
271,08	1267,69
271,30	1327,08
271,51	1243,12
271,73	1247,21
271,95	1325,04
272,16	1331,18
272,38	1277,93
272,59	1185,77
272,81	1257,45
273,02	1273,84
273,24	1198,06
273,46	1218,54
273,67	1255,40
273,89	1267,69
274,10	1241,07
274,32	1282,03
274,54	1345,52
274,75	1300,46
274,97	1314,80
275,18	1253,36
275,40	1200,11
275,61	1247,21
275,83	1273,84
276,05	1265,64
276,26	1310,70
276,48	1302,51
276,69	1288,17
276,91	1243,12
277,12	1269,74
277,34	1234,93
277,55	1267,69
277,77	1273,84
277,99	1255,40
278,20	1312,75
278,42	1275,88
278,63	1236,97
278,85	1253,36
279,06	1257,45
279,28	1290,22
279,49	1243,12
279,71	1337,32
279,93	1220,59
280,14	1204,21
280,36	1232,88
280,57	1226,73
280,79	1318,89
281,00	1339,37
281,22	1337,32
281,43	1273,84
281,65	1308,65
281,86	1267,69
282,08	1261,55
282,29	1243,12
282,51	1212,40
282,73	1257,45
282,94	1312,75
283,16	1310,70
283,37	1282,03
283,59	1177,58
283,80	1212,40
284,02	1277,93
284,23	1275,88
284,45	1261,55
284,66	1310,70
284,88	1234,93
285,09	1269,74
285,31	1286,12
285,52	1269,74
285,74	1298,41
285,95	1277,93
286,17	1249,26
286,38	1222,64
286,60	1241,07
286,81	1263,60
287,03	1277,93
287,24	1228,78
287,46	1314,80
287,67	1243,12
287,89	1261,55
288,10	1320,94
288,32	1331,18
288,53	1234,93
288,75	1275,88
288,96	1353,71
289,18	1259,50
289,39	1220,59
289,61	1314,80
289,82	1294,32
290,04	1286,12
290,25	1255,40
290,47	1255,40
290,68	1318,89
290,90	1339,37
291,11	1259,50
291,33	1222,64
291,54	1189,87
291,76	1304,56
291,97	1241,07
292,18	1159,15
292,40	1228,78
292,61	1290,22
292,83	1232,88
293,04	1271,79
293,26	1300,46
293,47	1249,26
293,69	1259,50
293,90	1355,76
294,12	1325,04
294,33	1226,73
294,55	1277,93
294,76	1214,45
294,97	1279,98
295,19	1273,84
295,40	1224,69
295,62	1251,31
295,83	1302,51
296,05	1294,32
296,26	1302,51
296,48	1212,40
296,69	1322,99
296,90	1259,50
297,12	1259,50
297,33	1318,89
297,55	1253,36
297,76	1294,32
297,98	1234,93
298,19	1226,73
298,41	1226,73
298,62	1273,84
298,83	1216,49
299,05	1243,12
299,26	1228,78
299,48	1249,26
299,69	1277,93
299,90	1251,31
300,12	1239,02
300,33	1288,17
300,55	1232,88
300,76	1318,89
300,98	1298,41
301,19	1236,97
301,40	1310,70
301,62	1247,21
301,83	1249,26
302,05	1353,71
302,26	1277,93
302,47	1310,70
302,69	1271,79
302,90	1304,56
303,12	1261,55
303,33	1294,32
303,54	1304,56
303,76	1224,69
303,97	1239,02
304,19	1337,32
304,40	1265,64
304,61	1310,70
304,83	1279,98
305,04	1265,64
305,26	1255,40
305,47	1249,26
305,68	1247,21
305,90	1198,06
306,11	1265,64
306,33	1265,64
306,54	1267,69
306,75	1292,27
306,97	1292,27
307,18	1269,74
307,39	1198,06
307,61	1265,64
307,82	1286,12
308,04	1288,17
308,25	1314,80
308,46	1247,21
308,68	1263,60
308,89	1279,98
309,10	1335,28
309,32	1304,56
309,53	1286,12
309,74	1257,45
309,96	1239,02
310,17	1273,84
310,39	1318,89
310,60	1243,12
310,81	1261,55
311,03	1296,36
311,24	1236,97
311,45	1222,64
311,67	1239,02
311,88	1232,88
312,09	1259,50
312,31	1251,31
312,52	1247,21
312,73	1314,80
312,95	1189,87
313,16	1210,35
313,37	1298,41
313,59	1294,32
313,80	1273,84
314,01	1282,03
314,23	1198,06
314,44	1263,60
314,65	1314,80
314,87	1267,69
315,08	1304,56
315,29	1228,78
315,51	1206,25
315,72	1267,69
315,93	1312,75
316,15	1216,49
316,36	1255,40
316,57	1265,64
316,79	1347,56
317,00	1261,55
317,21	1304,56
317,43	1279,98
317,64	1249,26
317,85	1257,45
318,07	1284,08
318,28	1296,36
318,49	1234,93
318,70	1224,69
318,92	1212,40
319,13	1263,60
319,34	1269,74
319,56	1179,63
319,77	1312,75
319,98	1259,50
320,20	1263,60
320,41	1273,84
320,62	1271,79
320,83	1243,12
321,05	1273,84
321,26	1259,50
321,47	1296,36
321,69	1290,22
321,90	1224,69
322,11	1265,64
322,32	1216,49
322,54	1288,17
322,75	1245,16
322,96	1325,04
323,18	1236,97
323,39	1253,36
323,60	1187,82
323,81	1312,75
324,03	1239,02
324,24	1275,88
324,45	1216,49
324,66	1220,59
324,88	1259,50
325,09	1337,32
325,30	1243,12
325,52	1259,50
325,73	1273,84
325,94	1296,36
326,15	1275,88
326,37	1196,01
326,58	1325,04
326,79	1236,97
327,00	1308,65
327,22	1255,40
327,43	1267,69
327,64	1224,69
327,85	1273,84
328,07	1273,84
328,28	1277,93
328,49	1327,08
328,70	1294,32
328,92	1306,60
329,13	1275,88
329,34	1345,52
329,55	1394,67
329,76	1351,66
329,98	1308,65
330,19	1339,37
330,40	1261,55
330,61	1277,93
330,83	1220,59
331,04	1222,64
331,25	1331,18
331,46	1314,80
331,68	1279,98
331,89	1292,27
332,10	1228,78
332,31	1232,88
332,52	1228,78
332,74	1202,16
332,95	1304,56
333,16	1245,16
333,37	1318,89
333,58	1284,08
333,80	1257,45
334,01	1329,13
334,22	1253,36
334,43	1247,21
334,64	1251,31
334,86	1275,88
335,07	1202,16
335,28	1236,97
335,49	1314,80
335,70	1314,80
335,92	1253,36
336,13	1290,22
336,34	1282,03
336,55	1320,94
336,76	1345,52
336,98	1208,30
337,19	1325,04
337,40	1259,50
337,61	1310,70
337,82	1257,45
338,04	1308,65
338,25	1288,17
338,46	1288,17
338,67	1249,26
338,88	1191,92
339,09	1312,75
339,31	1288,17
339,52	1259,50
339,73	1284,08
339,94	1298,41
340,15	1304,56
340,36	1302,51
340,58	1306,60
340,79	1351,66
341,00	1290,22
341,21	1208,30
341,42	1273,84
341,63	1288,17
341,85	1261,55
342,06	1245,16
342,27	1261,55
342,48	1316,84
342,69	1220,59
342,90	1247,21
343,12	1265,64
343,33	1253,36
343,54	1243,12
343,75	1298,41
343,96	1200,11
344,17	1220,59
344,38	1271,79
344,60	1261,55
344,81	1259,50
345,02	1279,98
345,23	1222,64
345,44	1210,35
345,65	1292,27
345,86	1277,93
346,07	1241,07
346,29	1216,49
346,50	1204,21
346,71	1187,82
346,92	1306,60
347,13	1222,64
347,34	1183,73
347,55	1288,17
347,76	1253,36
347,98	1335,28
348,19	1316,84
348,40	1234,93
348,61	1241,07
348,82	1290,22
349,03	1312,75
349,24	1320,94
349,45	1267,69
349,66	1292,27
349,88	1282,03
350,09	1292,27
350,30	1269,74
350,51	1306,60
350,72	1314,80
350,93	1271,79
351,14	1273,84
351,35	1312,75
351,56	1294,32
351,77	1263,60
351,99	1314,80
352,20	1306,60
352,41	1331,18
352,62	1200,11
352,83	1318,89
353,04	1318,89
353,25	1271,79
353,46	1243,12
353,67	1284,08
353,88	1251,31
354,09	1234,93
354,30	1347,56
354,52	1228,78
354,73	1298,41
354,94	1232,88
355,15	1269,74
355,36	1337,32
355,57	1269,74
355,78	1302,51
355,99	1282,03
356,20	1255,40
356,41	1234,93
356,62	1388,52
356,83	1288,17
357,04	1245,16
357,25	1300,46
357,46	1251,31
357,68	1279,98
357,89	1181,68
358,10	1279,98
358,31	1236,97
358,52	1279,98
358,73	1310,70
358,94	1261,55
359,15	1273,84
359,36	1265,64
359,57	1286,12
359,78	1277,93
359,99	1290,22
360,20	1335,28
360,41	1267,69
360,62	1306,60
360,83	1249,26
361,04	1275,88
361,25	1216,49
361,46	1304,56
361,67	1198,06
361,88	1232,88
362,09	1290,22
362,30	1282,03
362,51	1339,37
362,72	1279,98
362,93	1261,55
363,14	1290,22
363,35	1290,22
363,56	1331,18
363,78	1224,69
363,99	1224,69
364,20	1347,56
364,41	1298,41
364,62	1273,84
364,83	1343,47
365,04	1208,30
365,25	1234,93
365,46	1368,04
365,67	1327,08
365,88	1263,60
366,09	1298,41
366,30	1284,08
366,51	1214,45
366,72	1337,32
366,93	1279,98
367,14	1222,64
367,35	1230,83
367,56	1314,80
367,77	1296,36
367,98	1275,88
368,18	1337,32
368,39	1275,88
368,60	1284,08
368,81	1255,40
369,02	1263,60
369,23	1245,16
369,44	1320,94
369,65	1286,12
369,86	1277,93
370,07	1257,45
370,28	1325,04
370,49	1310,70
370,70	1339,37
370,91	1232,88
371,12	1325,04
371,33	1185,77
371,54	1249,26
371,75	1296,36
371,96	1241,07
372,17	1273,84
372,38	1206,25
372,59	1208,30
372,80	1325,04
373,01	1251,31
373,22	1191,92
373,43	1279,98
373,64	1249,26
373,85	1353,71
374,06	1212,40
374,26	1232,88
374,47	1273,84
374,68	1241,07
374,89	1310,70
375,10	1361,90
375,31	1247,21
375,52	1257,45
375,73	1277,93
375,94	1269,74
376,15	1232,88
376,36	1239,02
376,57	1265,64
376,78	1181,68
376,99	1355,76
377,20	1331,18
377,40	1257,45
377,61	1226,73
377,82	1273,84
378,03	1310,70
378,24	1312,75
378,45	1239,02
378,66	1271,79
378,87	1290,22
379,08	1349,61
379,29	1261,55
379,50	1279,98
379,71	1257,45
379,91	1236,97
380,12	1298,41
380,33	1226,73
380,54	1349,61
380,75	1245,16
380,96	1282,03
381,17	1263,60
381,38	1292,27
381,59	1245,16
381,80	1214,45
382,00	1290,22
382,21	1337,32
382,42	1298,41
382,63	1228,78
382,84	1251,31
383,05	1296,36
383,26	1249,26
383,47	1142,77
383,68	1298,41
383,88	1304,56
384,09	1322,99
384,30	1277,93
384,51	1247,21
384,72	1200,11
384,93	1288,17
385,14	1269,74
385,35	1241,07
385,55	1282,03
385,76	1300,46
385,97	1275,88
386,18	1249,26
386,39	1318,89
386,60	1368,04
386,81	1304,56
387,02	1228,78
387,22	1226,73
387,43	1234,93
387,64	1290,22
387,85	1316,84
388,06	1286,12
388,27	1269,74
388,48	1337,32
388,68	1296,36
388,89	1259,50
389,10	1232,88
389,31	1304,56
389,52	1316,84
389,73	1136,62
389,93	1366,00
390,14	1185,77
390,35	1183,73
390,56	1200,11
390,77	1269,74
390,98	1234,93
391,18	1355,76
391,39	1257,45
391,60	1298,41
391,81	1261,55
392,02	1251,31
392,23	1271,79
392,43	1386,47
392,64	1241,07
392,85	1214,45
393,06	1312,75
393,27	1228,78
393,47	1310,70
393,68	1300,46
393,89	1251,31
394,10	1261,55
394,31	1335,28
394,52	1277,93
394,72	1257,45
394,93	1282,03
395,14	1275,88
395,35	1216,49
395,56	1304,56
395,76	1298,41
395,97	1224,69
396,18	1232,88
396,39	1273,84
396,60	1314,80
396,80	1277,93
397,01	1218,54
397,22	1224,69
397,43	1273,84
397,64	1292,27
397,84	1271,79
398,05	1341,42
398,26	1261,55
398,47	1257,45
398,67	1304,56
398,88	1179,63
399,09	1257,45
399,30	1263,60
399,51	1218,54
399,71	1282,03
399,92	1361,90
400,13	1247,21
400,34	1263,60
400,54	1331,18
400,75	1282,03
400,96	1222,64
401,17	1329,13
401,37	1245,16
401,58	1273,84
401,79	1341,42
402,00	1304,56
402,21	1230,83
402,41	1247,21
402,62	1273,84
402,83	1310,70
403,04	1302,51
403,24	1218,54
403,45	1257,45
403,66	1271,79
403,87	1228,78
404,07	1294,32
404,28	1308,65
404,49	1290,22
404,70	1255,40
404,90	1294,32
405,11	1247,21
405,32	1339,37
405,52	1267,69
405,73	1269,74
405,94	1271,79
406,15	1241,07
406,35	1290,22
406,56	1220,59
406,77	1191,92
406,98	1263,60
407,18	1286,12
407,39	1279,98
407,60	1257,45
407,80	1236,97
408,01	1226,73
408,22	1277,93
408,43	1171,44
408,63	1345,52
408,84	1279,98
409,05	1298,41
409,25	1249,26
409,46	1150,96
409,67	1269,74
409,88	1267,69
410,08	1325,04
410,29	1241,07
410,50	1232,88
410,70	1320,94
410,91	1230,83
411,12	1239,02
411,32	1228,78
411,53	1239,02
411,74	1269,74
411,95	1298,41
412,15	1296,36
412,36	1245,16
412,57	1308,65
412,77	1288,17
412,98	1271,79
413,19	1275,88
413,39	1380,33
413,60	1239,02
413,81	1302,51
414,01	1277,93
414,22	1253,36
414,43	1224,69
414,63	1257,45
414,84	1320,94
415,05	1288,17
415,25	1290,22
415,46	1232,88
415,67	1300,46
415,87	1275,88
416,08	1236,97
416,29	1292,27
416,49	1239,02
416,70	1228,78
416,91	1239,02
417,11	1232,88
417,32	1255,40
417,53	1277,93
417,73	1339,37
417,94	1306,60
418,15	1239,02
418,35	1253,36
418,56	1294,32
418,77	1247,21
418,97	1245,16
419,18	1275,88
419,38	1249,26
419,59	1191,92
419,80	1236,97
420,00	1292,27
420,21	1279,98
420,42	1282,03
420,62	1300,46
420,83	1249,26
421,04	1318,89
421,24	1234,93
421,45	1310,70
421,65	1308,65
421,86	1271,79
422,07	1204,21
422,27	1290,22
422,48	1279,98
422,69	1300,46
422,89	1286,12
423,10	1275,88
423,30	1310,70
423,51	1241,07
423,72	1255,40
423,92	1232,88
424,13	1269,74
424,33	1284,08
424,54	1216,49
424,75	1251,31
424,95	1220,59
425,16	1265,64
425,36	1267,69
425,57	1290,22
425,78	1296,36
425,98	1220,59
426,19	1249,26
426,39	1288,17
426,60	1292,27
426,81	1265,64
427,01	1304,56
427,22	1230,83
427,42	1224,69
427,63	1290,22
427,83	1249,26
428,04	1210,35
428,25	1239,02
428,45	1310,70
428,66	1345,52
428,86	1296,36
429,07	1269,74
429,28	1228,78
429,48	1259,50
429,69	1273,84
429,89	1177,58
430,10	1265,64
430,30	1265,64
430,51	1322,99
430,71	1214,45
430,92	1212,40
431,13	1249,26
431,33	1222,64
431,54	1331,18
431,74	1284,08
431,95	1210,35
432,15	1271,79
432,36	1269,74
432,56	1232,88
432,77	1208,30
432,98	1263,60
433,18	1288,17
433,39	1296,36
433,59	1247,21
433,80	1263,60
434,00	1316,84
434,21	1261,55
434,41	1341,42
434,62	1298,41
434,82	1232,88
435,03	1314,80
435,23	1253,36
435,44	1279,98
435,64	1288,17
435,85	1312,75
436,06	1265,64
436,26	1345,52
436,47	1239,02
436,67	1269,74
436,88	1208,30
437,08	1269,74
437,29	1245,16
437,49	1318,89
437,70	1300,46
437,90	1273,84
438,11	1286,12
438,31	1314,80
438,52	1271,79
438,72	1253,36
438,93	1310,70
439,13	1220,59
439,34	1216,49
439,54	1222,64
439,75	1339,37
439,95	1341,42
440,16	1284,08
440,36	1255,40
440,57	1273,84
440,77	1359,85
440,98	1239,02
441,18	1255,40
441,39	1247,21
441,59	1374,19
441,80	1290,22
442,00	1208,30
442,21	1279,98
442,41	1232,88
442,62	1304,56
442,82	1241,07
443,02	1263,60
443,23	1222,64
443,43	1216,49
443,64	1243,12
443,84	1271,79
444,05	1232,88
444,25	1228,78
444,46	1245,16
444,66	1325,04
444,87	1228,78
445,07	1318,89
445,28	1255,40
445,48	1286,12
445,69	1261,55
445,89	1226,73
446,09	1202,16
446,30	1236,97
446,50	1335,28
446,71	1210,35
446,91	1171,44
447,12	1322,99
447,32	1312,75
447,53	1290,22
447,73	1269,74
447,93	1253,36
448,14	1261,55
448,34	1320,94
448,55	1279,98
448,75	1284,08
448,96	1261,55
449,16	1216,49
449,36	1273,84
449,57	1243,12
449,77	1228,78
449,98	1243,12
450,18	1228,78
450,39	1257,45
450,59	1200,11
450,79	1208,30
451,00	1232,88
451,20	1241,07
451,41	1273,84
451,61	1210,35
451,81	1271,79
452,02	1245,16
452,22	1255,40
452,43	1267,69
452,63	1312,75
452,84	1239,02
453,04	1294,32
453,24	1255,40
453,45	1224,69
453,65	1263,60
453,86	1234,93
454,06	1263,60
454,26	1243,12
454,47	1204,21
454,67	1333,23
454,87	1286,12
455,08	1275,88
455,28	1275,88
455,49	1222,64
455,69	1259,50
455,89	1284,08
456,10	1288,17
456,30	1286,12
456,51	1269,74
456,71	1269,74
456,91	1312,75
457,12	1335,28
457,32	1361,90
457,52	1243,12
457,73	1236,97
457,93	1267,69
458,14	1288,17
458,34	1214,45
458,54	1245,16
458,75	1271,79
458,95	1304,56
459,15	1290,22
459,36	1251,31
459,56	1292,27
459,76	1273,84
459,97	1286,12
460,17	1271,79
460,37	1294,32
460,58	1282,03
460,78	1296,36
460,99	1306,60
461,19	1216,49
461,39	1230,83
461,60	1286,12
461,80	1236,97
462,00	1251,31
462,21	1277,93
462,41	1249,26
462,61	1269,74
462,82	1304,56
463,02	1247,21
463,22	1298,41
463,43	1312,75
463,63	1245,16
463,83	1312,75
464,04	1312,75
464,24	1251,31
464,44	1294,32
464,64	1277,93
464,85	1335,28
465,05	1275,88
465,25	1236,97
465,46	1273,84
465,66	1314,80
465,86	1269,74
466,07	1322,99
466,27	1298,41
466,47	1226,73
466,68	1302,51
466,88	1349,61
467,08	1224,69
467,29	1257,45
467,49	1265,64
467,69	1239,02
467,89	1292,27
468,10	1267,69
468,30	1263,60
468,50	1263,60
468,71	1286,12
468,91	1224,69
469,11	1247,21
469,31	1298,41
469,52	1300,46
469,72	1282,03
469,92	1255,40
470,13	1253,36
470,33	1290,22
470,53	1222,64
470,73	1343,47
470,94	1292,27
471,14	1265,64
471,34	1286,12
471,54	1249,26
471,75	1224,69
471,95	1300,46
472,15	1239,02
472,36	1314,80
472,56	1249,26
472,76	1296,36
472,96	1331,18
473,17	1263,60
473,37	1284,08
473,57	1253,36
473,77	1298,41
473,98	1306,60
474,18	1259,50
474,38	1286,12
474,58	1277,93
474,79	1181,68
474,99	1228,78
475,19	1253,36
475,39	1271,79
475,60	1286,12
475,80	1292,27
476,00	1277,93
476,20	1320,94
476,41	1247,21
476,61	1300,46
476,81	1200,11
477,01	1224,69
477,21	1220,59
477,42	1234,93
477,62	1282,03
477,82	1277,93
478,02	1208,30
478,23	1282,03
478,43	1290,22
478,63	1224,69
478,83	1263,60
479,03	1218,54
479,24	1249,26
479,44	1345,52
479,64	1304,56
479,84	1261,55
480,04	1236,97
480,25	1292,27
480,45	1277,93
480,65	1310,70
480,85	1236,97
481,06	1249,26
481,26	1257,45
481,46	1282,03
481,66	1294,32
481,86	1294,32
482,06	1261,55
482,27	1239,02
482,47	1304,56
482,67	1288,17
482,87	1320,94
483,07	1310,70
483,28	1275,88
483,48	1288,17
483,68	1224,69
483,88	1204,21
484,08	1263,60
484,29	1339,37
484,49	1241,07
484,69	1296,36
484,89	1261,55
485,09	1275,88
485,29	1271,79
485,50	1265,64
485,70	1263,60
485,90	1296,36
486,10	1271,79
486,30	1232,88
486,50	1241,07
486,71	1239,02
486,91	1273,84
487,11	1316,84
487,31	1267,69
487,51	1261,55
487,71	1310,70
487,91	1327,08
488,12	1257,45
488,32	1279,98
488,52	1216,49
488,72	1226,73
488,92	1175,53
489,12	1265,64
489,32	1263,60
489,53	1245,16
489,73	1249,26
489,93	1312,75
490,13	1288,17
490,33	1292,27
490,53	1290,22
490,73	1232,88
490,94	1253,36
491,14	1347,56
491,34	1300,46
491,54	1193,97
491,74	1245,16
491,94	1259,50
492,14	1261,55
492,34	1228,78
492,54	1294,32
492,75	1253,36
492,95	1331,18
493,15	1329,13
493,35	1292,27
493,55	1327,08
493,75	1284,08
493,95	1224,69
494,15	1288,17
494,35	1232,88
494,56	1298,41
494,76	1314,80
494,96	1286,12
495,16	1232,88
495,36	1318,89
495,56	1269,74
495,76	1263,60
495,96	1253,36
496,16	1282,03
496,36	1271,79
496,56	1243,12
496,77	1271,79
496,97	1253,36
497,17	1263,60
497,37	1282,03
497,57	1353,71
497,77	1279,98
497,97	1263,60
498,17	1284,08
498,37	1257,45
498,57	1216,49
498,77	1243,12
498,97	1320,94
499,17	1232,88
499,38	1206,25
499,58	1363,95
499,78	1339,37
499,98	1261,55
500,18	1339,37
500,38	1255,40
500,58	1306,60
500,78	1267,69
500,98	1257,45
501,18	1277,93
501,38	1267,69
501,58	1234,93
501,78	1263,60
501,98	1302,51
502,18	1337,32
502,38	1288,17
502,58	1275,88
502,78	1279,98
502,98	1230,83
503,18	1292,27
503,38	1288,17
503,59	1316,84
503,79	1239,02
503,99	1247,21
504,19	1284,08
504,39	1196,01
504,59	1292,27
504,79	1329,13
504,99	1284,08
505,19	1247,21
505,39	1327,08
505,59	1243,12
505,79	1259,50
505,99	1265,64
506,19	1290,22
506,39	1224,69
506,59	1282,03
506,79	1292,27
506,99	1249,26
507,19	1185,77
507,39	1210,35
507,59	1267,69
507,79	1247,21
507,99	1267,69
508,19	1271,79
508,39	1224,69
508,59	1304,56
508,79	1294,32
508,99	1273,84
509,19	1243,12
509,39	1304,56
509,59	1230,83
509,79	1322,99
509,99	1224,69
510,19	1296,36
510,39	1228,78
510,59	1249,26
510,79	1294,32
510,99	1320,94
511,19	1261,55
511,39	1310,70
511,59	1261,55
511,79	1239,02
511,99	1253,36
512,19	1230,83
512,38	1329,13
512,58	1206,25
512,78	1339,37
512,98	1255,40
513,18	1318,89
513,38	1304,56
513,58	1224,69
513,78	1325,04
513,98	1275,88
514,18	1249,26
514,38	1275,88
514,58	1267,69
514,78	1290,22
514,98	1232,88
515,18	1279,98
515,38	1288,17
515,58	1251,31
515,78	1200,11
515,98	1208,30
516,18	1275,88
516,38	1339,37
516,57	1214,45
516,77	1275,88
516,97	1325,04
517,17	1271,79
517,37	1265,64
517,57	1196,01
517,77	1277,93
517,97	1222,64
518,17	1292,27
518,37	1247,21
518,57	1294,32
518,77	1228,78
518,97	1261,55
519,16	1265,64
519,36	1255,40
519,56	1257,45
519,76	1187,82
519,96	1247,21
520,16	1300,46
520,36	1210,35
520,56	1284,08
520,76	1296,36
520,96	1222,64
521,16	1349,61
521,35	1304,56
521,55	1300,46
521,75	1279,98
521,95	1273,84
522,15	1228,78
522,35	1234,93
522,55	1241,07
522,75	1263,60
522,95	1267,69
523,14	1249,26
523,34	1245,16
523,54	1247,21
523,74	1327,08
523,94	1308,65
524,14	1253,36
524,34	1236,97
524,54	1306,60
524,73	1318,89
524,93	1241,07
525,13	1230,83
525,33	1275,88
525,53	1304,56
525,73	1208,30
525,93	1261,55
526,13	1290,22
526,32	1202,16
526,52	1275,88
526,72	1259,50
526,92	1271,79
527,12	1226,73
527,32	1277,93
527,52	1249,26
527,71	1265,64
527,91	1316,84
528,11	1257,45
528,31	1363,95
528,51	1206,25
528,71	1322,99
528,90	1294,32
529,10	1232,88
529,30	1308,65
529,50	1271,79
529,70	1320,94
529,90	1318,89
530,09	1230,83
530,29	1247,21
530,49	1304,56
530,69	1257,45
530,89	1263,60
531,09	1210,35
531,28	1316,84
531,48	1263,60
531,68	1241,07
531,88	1325,04
532,08	1275,88
532,28	1314,80
532,47	1294,32
532,67	1329,13
532,87	1322,99
533,07	1294,32
533,27	1265,64
533,46	1339,37
533,66	1288,17
533,86	1290,22
534,06	1234,93
534,26	1298,41
534,45	1245,16
534,65	1236,97
534,85	1327,08
535,05	1236,97
535,25	1286,12
535,44	1302,51
535,64	1316,84
535,84	1267,69
536,04	1304,56
536,24	1282,03
536,43	1308,65
536,63	1286,12
536,83	1279,98
537,03	1284,08
537,22	1210,35
537,42	1255,40
537,62	1208,30
537,82	1226,73
538,02	1245,16
538,21	1232,88
538,41	1261,55
538,61	1331,18
538,81	1339,37
539,00	1294,32
539,20	1273,84
539,40	1259,50
539,60	1300,46
539,79	1275,88
539,99	1302,51
540,19	1239,02
540,39	1241,07
540,58	1253,36
540,78	1310,70
540,98	1290,22
541,18	1296,36
541,37	1271,79
541,57	1257,45
541,77	1298,41
541,97	1220,59
542,16	1279,98
542,36	1312,75
542,56	1263,60
542,76	1243,12
542,95	1312,75
543,15	1327,08
543,35	1363,95
543,54	1232,88
543,74	1343,47
543,94	1243,12
544,14	1232,88
544,33	1267,69
544,53	1282,03
544,73	1253,36
544,93	1255,40
545,12	1206,25
545,32	1294,32
545,52	1257,45
545,71	1284,08
545,91	1284,08
546,11	1259,50
546,30	1288,17
546,50	1198,06
546,70	1218,54
546,90	1230,83
547,09	1247,21
547,29	1298,41
547,49	1290,22
547,68	1241,07
547,88	1230,83
548,08	1243,12
548,27	1269,74
548,47	1265,64
548,67	1310,70
548,87	1273,84
549,06	1226,73
549,26	1290,22
549,46	1318,89
549,65	1327,08
549,85	1243,12
550,05	1282,03
550,24	1314,80
550,44	1216,49
550,64	1288,17
550,83	1232,88
551,03	1349,61
551,23	1284,08
551,42	1308,65
551,62	1282,03
551,82	1300,46
552,01	1251,31
552,21	1222,64
552,41	1349,61
552,60	1269,74
552,80	1325,04
553,00	1224,69
553,19	1288,17
553,39	1265,64
553,59	1241,07
553,78	1247,21
553,98	1333,23
554,17	1290,22
554,37	1308,65
554,57	1193,97
554,76	1279,98
554,96	1230,83
555,16	1216,49
555,35	1279,98
555,55	1298,41
555,75	1271,79
555,94	1257,45
556,14	1251,31
556,33	1304,56
556,53	1296,36
556,73	1267,69
556,92	1298,41
557,12	1251,31
557,32	1286,12
557,51	1271,79
557,71	1261,55
557,90	1271,79
558,10	1290,22
558,30	1290,22
558,49	1288,17
558,69	1234,93
558,88	1275,88
559,08	1304,56
559,28	1224,69
559,47	1314,80
559,67	1259,50
559,86	1253,36
560,06	1226,73
560,26	1253,36
560,45	1259,50
560,65	1228,78
560,84	1286,12
561,04	1224,69
561,24	1286,12
561,43	1282,03
561,63	1247,21
561,82	1327,08
562,02	1259,50
562,22	1306,60
562,41	1257,45
562,61	1224,69
562,80	1286,12
563,00	1290,22
563,19	1232,88
563,39	1308,65
563,59	1292,27
563,78	1282,03
563,98	1208,30
564,17	1298,41
564,37	1210,35
564,56	1304,56
564,76	1261,55
564,96	1337,32
565,15	1236,97
565,35	1245,16
565,54	1189,87
565,74	1259,50
565,93	1284,08
566,13	1265,64
566,32	1253,36
566,52	1298,41
566,71	1210,35
566,91	1284,08
567,11	1224,69
567,30	1218,54
567,50	1204,21
567,69	1310,70
567,89	1320,94
568,08	1306,60
568,28	1265,64
568,47	1253,36
568,67	1177,58
568,86	1230,83
569,06	1247,21
569,25	1232,88
569,45	1337,32
569,64	1337,32
569,84	1251,31
570,04	1310,70
570,23	1269,74
570,43	1257,45
570,62	1267,69
570,82	1247,21
571,01	1196,01
571,21	1210,35
571,40	1259,50
571,60	1271,79
571,79	1247,21
571,99	1284,08
572,18	1249,26
572,38	1255,40
572,57	1259,50
572,77	1277,93
572,96	1288,17
573,16	1290,22
573,35	1300,46
573,55	1314,80
573,74	1226,73
573,94	1275,88
574,13	1226,73
574,33	1331,18
574,52	1312,75
574,71	1226,73
574,91	1247,21
575,10	1296,36
575,30	1210,35
575,49	1271,79
575,69	1259,50
575,88	1265,64
576,08	1236,97
576,27	1255,40
576,47	1226,73
576,66	1286,12
576,86	1267,69
577,05	1300,46
577,25	1265,64
577,44	1214,45
577,64	1187,82
577,83	1333,23
578,02	1327,08
578,22	1196,01
578,41	1253,36
578,61	1292,27
578,80	1232,88
579,00	1247,21
579,19	1255,40
579,39	1296,36
579,58	1273,84
579,77	1249,26
579,97	1245,16
580,16	1300,46
580,36	1261,55
580,55	1247,21
580,75	1236,97
580,94	1279,98
581,13	1304,56
581,33	1183,73
581,52	1206,25
581,72	1265,64
581,91	1251,31
582,11	1288,17
582,30	1322,99
582,49	1243,12
582,69	1294,32
582,88	1286,12
583,08	1257,45
583,27	1304,56
583,47	1251,31
583,66	1267,69
583,85	1220,59
584,05	1249,26
584,24	1265,64
584,44	1279,98
584,63	1277,93
584,82	1353,71
585,02	1271,79
585,21	1304,56
585,41	1212,40
585,60	1257,45
585,79	1228,78
585,99	1296,36
586,18	1241,07
586,37	1214,45
586,57	1282,03
586,76	1267,69
586,96	1210,35
587,15	1200,11
587,34	1230,83
587,54	1271,79
587,73	1218,54
587,93	1302,51
588,12	1255,40
588,31	1318,89
588,51	1259,50
588,70	1271,79
588,89	1296,36
589,09	1331,18
589,28	1316,84
589,47	1322,99
589,67	1286,12
589,86	1318,89
590,06	1234,93
590,25	1282,03
590,44	1251,31
590,64	1255,40
590,83	1261,55
591,02	1165,29
591,22	1243,12
591,41	1249,26
591,60	1288,17
591,80	1206,25
591,99	1220,59
592,18	1302,51
592,38	1286,12
592,57	1253,36
592,76	1226,73
592,96	1302,51
593,15	1298,41
593,34	1322,99
593,54	1273,84
593,73	1263,60
593,92	1257,45
594,12	1286,12
594,31	1230,83
594,50	1169,39
594,70	1327,08
594,89	1335,28
595,08	1269,74
595,28	1312,75
595,47	1259,50
595,66	1294,32
595,86	1269,74
596,05	1241,07
596,24	1224,69
596,43	1224,69
596,63	1261,55
596,82	1189,87
597,01	1273,84
597,21	1236,97
597,40	1279,98
597,59	1269,74
597,79	1245,16
597,98	1216,49
598,17	1288,17
598,36	1275,88
598,56	1243,12
598,75	1345,52
598,94	1261,55
599,14	1243,12
599,33	1236,97
599,52	1302,51
599,71	1261,55
599,91	1298,41
600,10	1273,84
600,29	1318,89
600,48	1206,25
600,68	1251,31
600,87	1390,57
601,06	1290,22
601,26	1282,03
601,45	1267,69
601,64	1314,80
601,83	1261,55
602,03	1222,64
602,22	1230,83
602,41	1253,36
602,60	1300,46
602,80	1243,12
602,99	1216,49
603,18	1255,40
603,37	1298,41
603,57	1216,49
603,76	1269,74
603,95	1253,36
604,14	1263,60
604,34	1232,88
604,53	1320,94
604,72	1224,69
604,91	1294,32
605,10	1310,70
605,30	1349,61
605,49	1273,84
605,68	1265,64
605,87	1273,84
606,07	1224,69
606,26	1294,32
606,45	1243,12
606,64	1327,08
606,84	1273,84
607,03	1214,45
607,22	1226,73
607,41	1232,88
607,60	1275,88
607,80	1222,64
607,99	1310,70
608,18	1269,74
608,37	1261,55
608,56	1241,07
608,76	1230,83
608,95	1279,98
609,14	1312,75
609,33	1251,31
609,52	1243,12
609,72	1341,42
609,91	1345,52
610,10	1296,36
610,29	1226,73
610,48	1282,03
610,68	1253,36
610,87	1241,07
611,06	1273,84
611,25	1232,88
611,44	1261,55
611,63	1273,84
611,83	1265,64
612,02	1243,12
612,21	1296,36
612,40	1239,02
612,59	1273,84
612,79	1290,22
612,98	1239,02
613,17	1284,08
613,36	1310,70
613,55	1257,45
613,74	1292,27
613,93	1263,60
614,13	1282,03
614,32	1329,13
614,51	1277,93
614,70	1279,98
614,89	1279,98
615,08	1290,22
615,28	1284,08
615,47	1318,89
615,66	1236,97
615,85	1296,36
616,04	1370,09
616,23	1208,30
616,42	1259,50
616,62	1318,89
616,81	1247,21
617,00	1378,28
617,19	1390,57
617,38	1253,36
617,57	1255,40
617,76	1193,97
617,95	1296,36
618,15	1318,89
618,34	1224,69
618,53	1204,21
618,72	1277,93
618,91	1294,32
619,10	1304,56
619,29	1206,25
619,48	1249,26
619,68	1308,65
619,87	1255,40
620,06	1329,13
620,25	1337,32
620,44	1296,36
620,63	1269,74
620,82	1249,26
621,01	1284,08
621,20	1282,03
621,39	1286,12
621,59	1279,98
621,78	1271,79
621,97	1271,79
622,16	1308,65
622,35	1290,22
622,54	1261,55
622,73	1312,75
622,92	1265,64
623,11	1234,93
623,30	1292,27
623,49	1273,84
623,68	1277,93
623,88	1265,64
624,07	1296,36
624,26	1234,93
624,45	1210,35
624,64	1294,32
624,83	1279,98
625,02	1277,93
625,21	1339,37
625,40	1271,79
625,59	1279,98
625,78	1316,84
625,97	1275,88
626,16	1198,06
626,35	1306,60
626,54	1366,00
626,74	1239,02
626,93	1306,60
627,12	1337,32
627,31	1269,74
627,50	1288,17
627,69	1288,17
627,88	1271,79
628,07	1230,83
628,26	1302,51
628,45	1286,12
628,64	1284,08
628,83	1271,79
629,02	1204,21
629,21	1339,37
629,40	1353,71
629,59	1245,16
629,78	1273,84
629,97	1300,46
630,16	1275,88
630,35	1245,16
630,54	1361,90
630,73	1259,50
630,92	1325,04
631,11	1329,13
631,30	1341,42
631,49	1374,19
631,68	1527,78
631,87	2224,09
632,06	3721,16
632,25	2736,09
632,44	2818,00
632,63	2467,80
632,82	2562,01
633,01	3555,27
633,20	2832,34
633,39	4347,84
633,58	4581,31
633,77	4075,46
633,96	4536,25
634,15	7577,48
634,34	11386,71
634,53	14176,04
634,72	26582,63
634,91	45839,68
635,10	58645,63
635,29	57232,53
635,48	48119,07
635,67	35829,21
635,86	24880,77
636,05	16494,34
636,24	10698,59
636,43	6326,18
636,62	3772,36
636,81	2394,08
637,00	1722,34
637,19	1511,40
637,38	1542,12
637,57	1421,29
637,76	1316,84
637,95	1415,15
638,14	1335,28
638,33	1452,01
638,52	1275,88
638,71	1325,04
638,89	1359,85
639,08	1294,32
639,27	1288,17
639,46	1327,08
639,65	1337,32
639,84	1286,12
640,03	1343,47
640,22	1286,12
640,41	1331,18
640,60	1263,60
640,79	1261,55
640,98	1249,26
641,17	1249,26
641,36	1271,79
641,55	1273,84
641,74	1310,70
641,92	1310,70
642,11	1304,56
642,30	1222,64
642,49	1306,60
642,68	1345,52
642,87	1245,16
643,06	1267,69
643,25	1284,08
643,44	1361,90
643,63	1251,31
643,82	1320,94
644,00	1275,88
644,19	1232,88
644,38	1282,03
644,57	1236,97
644,76	1185,77
644,95	1286,12
645,14	1273,84
645,33	1245,16
645,52	1288,17
645,71	1320,94
645,89	1253,36
646,08	1273,84
646,27	1308,65
646,46	1191,92
646,65	1300,46
646,84	1298,41
647,03	1241,07
647,22	1314,80
647,40	1296,36
647,59	1249,26
647,78	1296,36
647,97	1327,08
648,16	1245,16
648,35	1269,74
648,54	1337,32
648,73	1263,60
648,91	1216,49
649,10	1322,99
649,29	1200,11
649,48	1279,98
649,67	1239,02
649,86	1273,84
650,05	1284,08
650,23	1298,41
650,42	1239,02
650,61	1220,59
650,80	1269,74
650,99	1241,07
651,18	1296,36
651,36	1370,09
651,55	1327,08
651,74	1292,27
651,93	1286,12
652,12	1251,31
652,31	1259,50
652,49	1216,49
652,68	1308,65
652,87	1208,30
653,06	1232,88
653,25	1304,56
653,44	1269,74
653,62	1271,79
653,81	1202,16
654,00	1232,88
654,19	1314,80
654,38	1286,12
654,56	1222,64
654,75	1310,70
654,94	1316,84
655,13	1314,80
655,32	1249,26
655,51	1259,50
655,69	1300,46
655,88	1296,36
656,07	1282,03
656,26	1325,04
656,45	1251,31
656,63	1241,07
656,82	1257,45
657,01	1282,03
657,20	1224,69
657,38	1243,12
657,57	1279,98
657,76	1300,46
657,95	1267,69
658,14	1255,40
658,32	1279,98
658,51	1273,84
658,70	1239,02
658,89	1322,99
659,08	1368,04
659,26	1232,88
659,45	1249,26
659,64	1224,69
659,83	1216,49
660,01	1337,32
660,20	1333,23
660,39	1216,49
660,58	1216,49
660,76	1351,66
660,95	1294,32
661,14	1273,84
661,33	1261,55
661,51	1263,60
661,70	1273,84
661,89	1144,81
662,08	1253,36
662,26	1275,88
662,45	1279,98
662,64	1251,31
662,83	1185,77
663,01	1284,08
663,20	1247,21
663,39	1335,28
663,58	1335,28
663,76	1249,26
663,95	1216,49
664,14	1279,98
664,32	1359,85
664,51	1263,60
664,70	1282,03
664,89	1245,16
665,07	1277,93
665,26	1331,18
665,45	1204,21
665,64	1306,60
665,82	1243,12
666,01	1325,04
666,20	1208,30
666,38	1218,54
666,57	1339,37
666,76	1261,55
666,95	1177,58
667,13	1222,64
667,32	1322,99
667,51	1220,59
667,69	1247,21
667,88	1304,56
668,07	1349,61
668,25	1255,40
668,44	1265,64
668,63	1339,37
668,81	1253,36
669,00	1189,87
669,19	1298,41
669,38	1325,04
669,56	1198,06
669,75	1267,69
669,94	1312,75
670,12	1263,60
670,31	1230,83
670,50	1236,97
670,68	1333,23
670,87	1236,97
671,06	1300,46
671,24	1286,12
671,43	1335,28
671,62	1337,32
671,80	1259,50
671,99	1253,36
672,18	1212,40
672,36	1245,16
672,55	1292,27
672,74	1339,37
672,92	1310,70
673,11	1282,03
673,29	1243,12
673,48	1261,55
673,67	1259,50
673,85	1230,83
674,04	1279,98
674,23	1282,03
674,41	1327,08
674,60	1255,40
674,79	1335,28
674,97	1204,21
675,16	1279,98
675,34	1329,13
675,53	1290,22
675,72	1259,50
675,90	1267,69
676,09	1304,56
676,28	1257,45
676,46	1292,27
676,65	1288,17
676,83	1284,08
677,02	1165,29
677,21	1269,74
677,39	1245,16
677,58	1243,12
677,77	1271,79
677,95	1294,32
678,14	1218,54
678,32	1296,36
678,51	1265,64
678,70	1189,87
678,88	1275,88
679,07	1220,59
679,25	1265,64
679,44	1255,40
679,63	1310,70
679,81	1296,36
680,00	1306,60
680,18	1271,79
680,37	1257,45
680,55	1294,32
680,74	1279,98
680,93	1284,08
681,11	1277,93
681,30	1302,51
681,48	1271,79
681,67	1284,08
681,85	1222,64
682,04	1273,84
682,23	1284,08
682,41	1247,21
682,60	1222,64
682,78	1220,59
682,97	1273,84
683,15	1257,45
683,34	1249,26
683,53	1314,80
683,71	1288,17
683,90	1331,18
684,08	1239,02
684,27	1314,80
684,45	1310,70
684,64	1255,40
684,82	1236,97
685,01	1255,40
685,19	1255,40
685,38	1243,12
685,57	1304,56
685,75	1239,02
685,94	1255,40
686,12	1306,60
686,31	1261,55
686,49	1273,84
686,68	1306,60
686,86	1277,93
687,05	1286,12
687,23	1304,56
687,42	1251,31
687,60	1239,02
687,79	1220,59
687,97	1290,22
688,16	1300,46
688,34	1269,74
688,53	1261,55
688,71	1286,12
688,90	1294,32
689,08	1298,41
689,27	1243,12
689,45	1318,89
689,64	1273,84
689,82	1265,64
690,01	1236,97
690,19	1249,26
690,38	1271,79
690,56	1298,41
690,75	1265,64
690,93	1288,17
691,12	1302,51
691,30	1294,32
691,49	1310,70
691,67	1226,73
691,86	1243,12
692,04	1232,88
692,23	1273,84
692,41	1267,69
692,60	1304,56
692,78	1243,12
692,97	1308,65
693,15	1331,18
693,34	1282,03
693,52	1298,41
693,71	1275,88
693,89	1230,83
694,08	1263,60
694,26	1329,13
694,44	1267,69
694,63	1218,54
694,81	1226,73
695,00	1220,59
695,18	1306,60
695,37	1298,41
695,55	1314,80
695,74	1320,94
695,92	1241,07
696,10	1298,41
696,29	1243,12
696,47	1265,64
696,66	1337,32
696,84	1218,54
697,03	1249,26
697,21	1294,32
697,40	1243,12
697,58	1263,60
697,76	1279,98
697,95	1241,07
698,13	1282,03
698,32	1359,85
698,50	1253,36
698,68	1214,45
698,87	1193,97
699,05	1228,78
699,24	1306,60
699,42	1279,98
699,61	1265,64
699,79	1304,56
699,97	1284,08
700,16	1308,65
700,34	1255,40
700,53	1273,84
700,71	1261,55
700,89	1286,12
701,08	1206,25
701,26	1275,88
701,45	1210,35
701,63	1308,65
701,81	1234,93
702,00	1265,64
702,18	1310,70
702,37	1228,78
702,55	1265,64
702,73	1279,98
702,92	1273,84
703,10	1200,11
703,28	1216,49
703,47	1286,12
703,65	1226,73
703,84	1241,07
704,02	1277,93
704,20	1241,07
704,39	1355,76
704,57	1255,40
704,75	1241,07
704,94	1251,31
705,12	1249,26
705,30	1265,64
705,49	1253,36
705,67	1259,50
705,86	1230,83
706,04	1302,51
706,22	1296,36
706,41	1325,04
706,59	1249,26
706,77	1306,60
706,96	1269,74
707,14	1273,84
707,32	1236,97
707,51	1263,60
707,69	1282,03
707,87	1234,93
708,06	1234,93
708,24	1320,94
708,42	1230,83
708,61	1333,23
708,79	1329,13
708,97	1302,51
709,16	1249,26
709,34	1320,94
709,52	1306,60
709,71	1261,55
709,89	1239,02
710,07	1284,08
710,26	1208,30
710,44	1314,80
710,62	1247,21
710,80	1298,41
710,99	1304,56
711,17	1269,74
711,35	1286,12
711,54	1241,07
711,72	1269,74
711,90	1300,46
712,09	1228,78
712,27	1241,07
712,45	1290,22
712,63	1300,46
712,82	1273,84
713,00	1263,60
713,18	1241,07
713,37	1296,36
713,55	1294,32
713,73	1236,97
713,91	1245,16
714,10	1249,26
714,28	1259,50
714,46	1257,45
714,65	1290,22
714,83	1304,56
715,01	1298,41
715,19	1273,84
715,38	1234,93
715,56	1253,36
715,74	1251,31
715,92	1279,98
716,11	1331,18
716,29	1255,40
716,47	1265,64
716,65	1296,36
716,84	1243,12
717,02	1282,03
717,20	1220,59
717,38	1249,26
717,57	1265,64
717,75	1310,70
717,93	1275,88
718,11	1337,32
718,30	1263,60
718,48	1241,07
718,66	1294,32
718,84	1265,64
719,03	1239,02
719,21	1298,41
719,39	1279,98
719,57	1298,41
719,75	1282,03
719,94	1259,50
720,12	1239,02
720,30	1329,13
720,48	1241,07
720,67	1234,93
720,85	1275,88
721,03	1239,02
721,21	1286,12
721,39	1298,41
721,58	1286,12
721,76	1243,12
721,94	1267,69
722,12	1386,47
722,30	1292,27
722,49	1239,02
722,67	1255,40
722,85	1247,21
723,03	1259,50
723,21	1296,36
723,40	1290,22
723,58	1261,55
723,76	1318,89
723,94	1298,41
724,12	1271,79
724,30	1206,25
724,49	1234,93
724,67	1267,69
724,85	1251,31
725,03	1320,94
725,21	1222,64
725,40	1265,64
725,58	1226,73
725,76	1255,40
725,94	1282,03
726,12	1300,46
726,30	1259,50
726,49	1302,51
726,67	1173,49
726,85	1265,64
727,03	1263,60
727,21	1257,45
727,39	1271,79
727,57	1282,03
727,76	1257,45
727,94	1257,45
728,12	1277,93
728,30	1288,17
728,48	1282,03
728,66	1257,45
728,84	1277,93
729,03	1267,69
729,21	1271,79
729,39	1202,16
729,57	1329,13
729,75	1275,88
729,93	1275,88
730,11	1269,74
730,30	1282,03
730,48	1273,84
730,66	1310,70
730,84	1339,37
731,02	1267,69
731,20	1298,41
731,38	1277,93
731,56	1306,60
731,74	1245,16
731,93	1253,36
732,11	1249,26
732,29	1263,60
732,47	1202,16
732,65	1230,83
732,83	1271,79
733,01	1239,02
733,19	1245,16
733,37	1212,40
733,56	1282,03
733,74	1267,69
733,92	1302,51
734,10	1298,41
734,28	1318,89
734,46	1282,03
734,64	1282,03
734,82	1247,21
735,00	1230,83
735,18	1275,88
735,36	1284,08
735,54	1259,50
735,73	1265,64
735,91	1239,02
736,09	1322,99
736,27	1271,79
736,45	1288,17
736,63	1222,64
736,81	1331,18
736,99	1292,27
737,17	1208,30
737,35	1308,65
737,53	1286,12
737,71	1269,74
737,89	1331,18
738,07	1265,64
738,25	1312,75
738,43	1294,32
738,61	1284,08
738,80	1257,45
738,98	1302,51
739,16	1243,12
739,34	1273,84
739,52	1298,41
739,70	1257,45
739,88	1273,84
740,06	1241,07
740,24	1294,32
740,42	1269,74
740,60	1284,08
740,78	1236,97
740,96	1292,27
741,14	1355,76
741,32	1255,40
741,50	1286,12
741,68	1271,79
741,86	1304,56
742,04	1265,64
742,22	1259,50
742,40	1175,53
742,58	1316,84
742,76	1290,22
742,94	1261,55
743,12	1253,36
743,30	1212,40
743,48	1259,50
743,66	1269,74
743,84	1220,59
744,02	1261,55
744,20	1275,88
744,38	1243,12
744,56	1333,23
744,74	1337,32
744,92	1325,04
745,10	1224,69
745,28	1282,03
745,46	1277,93
745,64	1288,17
745,82	1220,59
746,00	1259,50
746,18	1224,69
746,36	1265,64
746,54	1265,64
746,72	1279,98
746,90	1257,45
747,08	1298,41
747,26	1271,79
747,44	1325,04
747,62	1275,88
747,80	1269,74
747,98	1343,47
748,15	1318,89
748,33	1288,17
748,51	1232,88
748,69	1216,49
748,87	1282,03
749,05	1165,29
749,23	1208,30
749,41	1370,09
749,59	1267,69
749,77	1253,36
749,95	1279,98
750,13	1275,88
750,31	1273,84
750,49	1292,27
750,67	1333,23
750,85	1314,80
751,03	1255,40
751,20	1191,92
751,38	1304,56
751,56	1306,60
751,74	1294,32
751,92	1290,22
752,10	1257,45
752,28	1230,83
752,46	1253,36
752,64	1261,55
752,82	1241,07
753,00	1228,78
753,18	1282,03
753,35	1202,16
753,53	1230,83
753,71	1327,08
753,89	1279,98
754,07	1222,64
754,25	1257,45
754,43	1226,73
754,61	1312,75
754,79	1273,84
754,97	1275,88
755,14	1241,07
755,32	1265,64
755,50	1230,83
755,68	1290,22
755,86	1298,41
756,04	1282,03
756,22	1202,16
756,40	1312,75
756,57	1320,94
756,75	1226,73
756,93	1261,55
757,11	1269,74
757,29	1292,27
757,47	1269,74
757,65	1232,88
757,82	1302,51
758,00	1253,36
758,18	1282,03
758,36	1253,36
758,54	1271,79
758,72	1222,64
758,90	1335,28
759,07	1234,93
759,25	1288,17
759,43	1226,73
759,61	1329,13
759,79	1337,32
759,97	1271,79
760,15	1310,70
760,32	1277,93
760,50	1236,97
760,68	1239,02
760,86	1277,93
761,04	1275,88
761,22	1224,69
761,39	1271,79
761,57	1318,89
761,75	1255,40
761,93	1200,11
762,11	1310,70
762,28	1310,70
762,46	1261,55
762,64	1216,49
762,82	1337,32
763,00	1290,22
763,18	1304,56
763,35	1306,60
763,53	1359,85
763,71	1327,08
763,89	1310,70
764,07	1286,12
764,24	1306,60
764,42	1310,70
764,60	1351,66
764,78	1249,26
764,96	1282,03
765,13	1241,07
765,31	1314,80
765,49	1304,56
765,67	1251,31
765,84	1282,03
766,02	1273,84
766,20	1320,94
766,38	1292,27
766,56	1196,01
766,73	1257,45
766,91	1288,17
767,09	1271,79
767,27	1247,21
767,44	1206,25
767,62	1243,12
767,80	1275,88
767,98	1228,78
768,15	1263,60
768,33	1314,80
768,51	1257,45
768,69	1318,89
768,87	1282,03
769,04	1261,55
769,22	1271,79
769,40	1257,45
769,58	1329,13
769,75	1243,12
769,93	1193,97
770,11	1265,64
770,28	1226,73
770,46	1314,80
770,64	1214,45
770,82	1189,87
770,99	1202,16
771,17	1292,27
771,35	1316,84
771,53	1210,35
771,70	1267,69
771,88	1253,36
772,06	1343,47
772,23	1249,26
772,41	1218,54
772,59	1284,08
772,77	1259,50
772,94	1208,30
773,12	1302,51
773,30	1322,99
773,47	1241,07
773,65	1277,93
773,83	1214,45
774,01	1269,74
774,18	1249,26
774,36	1187,82
774,54	1288,17
774,71	1318,89
774,89	1312,75
775,07	1263,60
775,24	1302,51
775,42	1224,69
775,60	1320,94
775,78	1241,07
775,95	1228,78
776,13	1275,88
776,31	1310,70
776,48	1288,17
776,66	1366,00
776,84	1288,17
777,01	1210,35
777,19	1218,54
777,37	1247,21
777,54	1282,03
777,72	1345,52
777,90	1191,92
778,07	1255,40
778,25	1347,56
778,43	1277,93
778,60	1290,22
778,78	1320,94
778,96	1261,55
779,13	1333,23
779,31	1245,16
779,49	1265,64
779,66	1273,84
779,84	1279,98
780,01	1255,40
780,19	1267,69
780,37	1288,17
780,54	1333,23
780,72	1302,51
780,90	1308,65
781,07	1275,88
781,25	1333,23
781,43	1228,78
781,60	1255,40
781,78	1243,12
781,95	1271,79
782,13	1284,08
782,31	1275,88
782,48	1232,88
782,66	1290,22
782,83	1239,02
783,01	1251,31
783,19	1198,06
783,36	1234,93
783,54	1267,69
783,72	1230,83
783,89	1179,63
784,07	1335,28
784,24	1314,80
784,42	1255,40
784,60	1269,74
784,77	1255,40
784,95	1247,21
785,12	1249,26
785,30	1271,79
785,47	1259,50
785,65	1216,49
785,83	1275,88
786,00	1327,08
786,18	1306,60
786,35	1275,88
786,53	1341,42
786,71	1214,45
786,88	1314,80
787,06	1198,06
787,23	1329,13
787,41	1234,93
787,58	1288,17
787,76	1249,26
787,94	1257,45
788,11	1261,55
788,29	1290,22
788,46	1202,16
788,64	1302,51
788,81	1306,60
788,99	1228,78
789,16	1302,51
789,34	1255,40
789,52	1222,64
789,69	1279,98
789,87	1286,12
790,04	1224,69
790,22	1249,26
790,39	1296,36
790,57	1191,92
790,74	1312,75
790,92	1222,64
791,09	1230,83
791,27	1271,79
791,44	1304,56
791,62	1239,02
791,79	1304,56
791,97	1273,84
792,15	1333,23
792,32	1255,40
792,50	1218,54
792,67	1265,64
792,85	1243,12
793,02	1269,74
793,20	1341,42
793,37	1257,45
793,55	1325,04
793,72	1273,84
793,90	1222,64
794,07	1314,80
794,25	1257,45
794,42	1267,69
794,60	1292,27
794,77	1198,06
794,95	1263,60
795,12	1290,22
795,30	1296,36
795,47	1204,21
795,65	1310,70
795,82	1308,65
796,00	1331,18
796,17	1314,80
796,34	1271,79
796,52	1341,42
796,69	1310,70
796,87	1282,03
797,04	1243,12
797,22	1308,65
797,39	1275,88
797,57	1290,22
797,74	1234,93
797,92	1263,60
798,09	1282,03
798,27	1290,22
798,44	1224,69
798,62	1191,92
798,79	1325,04
798,96	1259,50
799,14	1271,79
799,31	1251,31
799,49	1269,74
799,66	1318,89
799,84	1263,60
800,01	1265,64
800,19	1329,13
800,36	1200,11
800,53	1331,18
800,71	1275,88
800,88	1251,31
801,06	1296,36
801,23	1269,74
801,41	1232,88
801,58	1181,68
801,75	1286,12
801,93	1286,12
802,10	1243,12
802,28	1247,21
802,45	1183,73
802,63	1294,32
802,80	1325,04
802,97	1296,36
803,15	1267,69
803,32	1277,93
803,50	1322,99
803,67	1251,31
803,84	1279,98
804,02	1263,60
804,19	1259,50
804,37	1198,06
804,54	1302,51
804,71	1279,98
804,89	1204,21
805,06	1230,83
805,24	1288,17
805,41	1230,83
805,58	1298,41
805,76	1363,95
805,93	1226,73
806,10	1284,08
806,28	1314,80
806,45	1241,07
806,63	1196,01
806,80	1327,08
806,97	1327,08
807,15	1298,41
807,32	1261,55
807,49	1290,22
807,67	1251,31
807,84	1306,60
808,01	1263,60
808,19	1232,88
808,36	1310,70
808,54	1322,99
808,71	1239,02
808,88	1267,69
809,06	1202,16
809,23	1247,21
809,40	1279,98
809,58	1253,36
809,75	1314,80
809,92	1273,84
810,10	1277,93
810,27	1300,46
810,44	1226,73
810,62	1232,88
810,79	1296,36
810,96	1357,80
811,14	1304,56
811,31	1290,22
811,48	1322,99
811,66	1351,66
811,83	1216,49
812,00	1253,36
812,18	1275,88
812,35	1271,79
812,52	1261,55
812,69	1271,79
812,87	1259,50
813,04	1185,77
813,21	1245,16
813,39	1290,22
813,56	1277,93
813,73	1241,07
813,91	1288,17
814,08	1236,97
814,25	1255,40
814,42	1236,97
814,60	1191,92
814,77	1257,45
814,94	1228,78
815,12	1271,79
815,29	1341,42
815,46	1298,41
815,63	1234,93
815,81	1284,08
815,98	1224,69
816,15	1257,45
816,33	1259,50
816,50	1214,45
816,67	1320,94
816,84	1271,79
817,02	1265,64
817,19	1312,75
817,36	1232,88
817,53	1277,93
817,71	1282,03
817,88	1345,52
818,05	1253,36
818,22	1308,65
818,40	1302,51
818,57	1316,84
818,74	1277,93
818,91	1304,56
819,09	1286,12
819,26	1312,75
819,43	1304,56
819,60	1273,84
819,78	1279,98
819,95	1325,04
820,12	1228,78
820,29	1263,60
820,47	1290,22
820,64	1261,55
820,81	1322,99
820,98	1245,16
821,15	1239,02
821,33	1193,97
821,50	1228,78
821,67	1312,75
821,84	1230,83
822,02	1333,23
822,19	1331,18
822,36	1374,19
822,53	1241,07
822,70	1220,59
822,88	1273,84
823,05	1314,80
823,22	1255,40
823,39	1241,07
823,56	1333,23
823,74	1343,47
823,91	1236,97
824,08	1286,12
824,25	1236,97
824,42	1267,69
824,60	1232,88
824,77	1308,65
824,94	1294,32
825,11	1208,30
825,28	1310,70
825,45	1318,89
825,63	1255,40
825,80	1277,93
825,97	1247,21
826,14	1245,16
826,31	1275,88
826,48	1325,04
826,66	1247,21
826,83	1236,97
827,00	1333,23
827,17	1269,74
827,34	1290,22
827,51	1292,27
827,69	1224,69
827,86	1322,99
828,03	1253,36
828,20	1261,55
828,37	1282,03
828,54	1316,84
828,71	1245,16
828,89	1241,07
829,06	1310,70
829,23	1290,22
829,40	1275,88
829,57	1175,53
829,74	1208,30
829,91	1218,54
830,09	1265,64
830,26	1267,69
830,43	1290,22
830,60	1282,03
830,77	1261,55
830,94	1271,79
831,11	1286,12
831,28	1257,45
831,46	1277,93
831,63	1273,84
831,80	1277,93
831,97	1230,83
832,14	1239,02
832,31	1286,12
832,48	1255,40
832,65	1265,64
832,82	1269,74
832,99	1220,59
833,17	1257,45
833,34	1304,56
833,51	1294,32
833,68	1286,12
833,85	1318,89
834,02	1236,97
834,19	1204,21
834,36	1273,84
834,53	1232,88
834,70	1267,69
834,87	1296,36
835,04	1273,84
835,22	1228,78
835,39	1327,08
835,56	1232,88
835,73	1290,22
835,90	1241,07
836,07	1251,31
836,24	1302,51
836,41	1239,02
836,58	1320,94
836,75	1169,39
836,92	1271,79
837,09	1320,94
837,26	1245,16
837,43	1257,45
837,60	1265,64
837,77	1200,11
837,94	1222,64
838,12	1273,84
838,29	1298,41
838,46	1282,03
838,63	1288,17
838,80	1288,17
838,97	1267,69
839,14	1322,99
839,31	1243,12
839,48	1279,98
839,65	1232,88
839,82	1247,21
839,99	1259,50
840,16	1173,49
840,33	1257,45
840,50	1318,89
840,67	1277,93
840,84	1265,64
841,01	1292,27
841,18	1279,98
841,35	1269,74
841,52	1261,55
841,69	1294,32
841,86	1232,88
842,03	1275,88
842,20	1282,03
842,37	1302,51
842,54	1322,99
842,71	1269,74
842,88	1341,42
843,05	1241,07
843,22	1249,26
843,39	1337,32
843,56	1284,08
843,73	1273,84
843,90	1304,56
844,07	1296,36
844,24	1251,31
844,41	1300,46
844,58	1318,89
844,75	1232,88
844,92	1265,64
845,09	1232,88
845,26	1216,49
845,43	1292,27
845,60	1230,83
845,77	1265,64
845,94	1183,73
846,10	1341,42
846,27	1222,64
846,44	1275,88
846,61	1284,08
846,78	1335,28
846,95	1269,74
847,12	1257,45
847,29	1310,70
847,46	1257,45
847,63	1331,18
847,80	1271,79
847,97	1243,12
848,14	1282,03
848,31	1308,65
848,48	1273,84
848,65	1308,65
848,82	1249,26
848,98	1320,94
849,15	1247,21
849,32	1204,21
849,49	1224,69
849,66	1279,98
849,83	1251,31
850,00	1314,80
850,17	1228,78
850,34	1247,21
850,51	1310,70
850,68	1290,22
850,85	1292,27
851,01	1290,22
851,18	1277,93
851,35	1234,93
851,52	1232,88
851,69	1271,79
851,86	1216,49
852,03	1265,64
852,20	1308,65
852,37	1265,64
852,53	1173,49
852,70	1261,55
852,87	1284,08
853,04	1259,50
853,21	1247,21
853,38	1292,27
853,55	1267,69
853,72	1265,64
853,89	1253,36
854,05	1255,40
854,22	1269,74
854,39	1230,83
854,56	1226,73
854,73	1265,64
854,90	1269,74
855,07	1298,41
855,23	1251,31
855,40	1298,41
855,57	1232,88
855,74	1257,45
855,91	1210,35
856,08	1224,69
856,25	1263,60
856,41	1249,26
856,58	1288,17
856,75	1327,08
856,92	1302,51
857,09	1249,26
857,26	1271,79
857,42	1279,98
857,59	1230,83
857,76	1279,98
857,93	1286,12
858,10	1288,17
858,27	1282,03
858,43	1290,22
858,60	1255,40
858,77	1265,64
858,94	1253,36
859,11	1327,08
859,27	1245,16
859,44	1284,08
859,61	1214,45
859,78	1265,64
859,95	1232,88
860,12	1339,37
860,28	1304,56
860,45	1218,54
860,62	1290,22
860,79	1275,88
860,95	1210,35
861,12	1345,52
861,29	1241,07
861,46	1200,11
861,63	1222,64
861,79	1279,98
861,96	1294,32
862,13	1243,12
862,30	1302,51
862,47	1243,12
862,63	1259,50
862,80	1185,77
862,97	1275,88
863,14	1312,75
863,30	1318,89
863,47	1269,74
863,64	1277,93
863,81	1220,59
863,97	1316,84
864,14	1318,89
864,31	1239,02
864,48	1222,64
864,65	1331,18
864,81	1245,16
864,98	1241,07
865,15	1234,93
865,32	1292,27
865,48	1279,98
865,65	1316,84
865,82	1335,28
865,98	1284,08
866,15	1265,64
866,32	1218,54
866,49	1232,88
866,65	1222,64
866,82	1241,07
866,99	1282,03
867,16	1320,94
867,32	1284,08
867,49	1320,94
867,66	1222,64
867,83	1222,64
867,99	1300,46
868,16	1218,54
868,33	1259,50
868,49	1255,40
868,66	1234,93
868,83	1234,93
868,99	1263,60
869,16	1273,84
869,33	1263,60
869,50	1249,26
869,66	1322,99
869,83	1267,69
870,00	1279,98
870,16	1279,98
870,33	1259,50
870,50	1253,36
870,66	1218,54
870,83	1255,40
871,00	1196,01
871,17	1263,60
871,33	1265,64
871,50	1255,40
871,67	1296,36
871,83	1294,32
872,00	1325,04
872,17	1363,95
872,33	1322,99
872,50	1296,36
872,67	1247,21
872,83	1247,21
873,00	1271,79
873,17	1316,84
873,33	1267,69
873,50	1370,09
873,67	1337,32
873,83	1290,22
874,00	1318,89
874,16	1310,70
874,33	1142,77
874,50	1265,64
874,66	1294,32
874,83	1247,21
875,00	1312,75
875,16	1261,55
875,33	1265,64
875,50	1304,56
875,66	1335,28
875,83	1253,36
875,99	1335,28
876,16	1396,71
876,33	1239,02
876,49	1230,83
876,66	1300,46
876,83	1327,08
876,99	1267,69
877,16	1226,73
877,32	1284,08
877,49	1259,50
877,66	1257,45
877,82	1320,94
877,99	1290,22
878,15	1273,84
878,32	1239,02
878,49	1386,47
878,65	1359,85
878,82	1292,27
878,98	1265,64
879,15	1216,49
879,32	1314,80
879,48	1284,08
879,65	1236,97
879,81	1269,74
879,98	1241,07
880,15	1282,03
880,31	1234,93
880,48	1279,98
880,64	1286,12
880,81	1253,36
880,97	1296,36
881,14	1271,79
881,31	1325,04
881,47	1239,02
881,64	1255,40
881,80	1368,04
881,97	1261,55
882,13	1255,40
882,30	1322,99
882,47	1265,64
882,63	1327,08
882,80	1277,93
882,96	1296,36
883,13	1310,70
883,29	1282,03
883,46	1316,84
883,62	1282,03
883,79	1259,50
883,95	1247,21
884,12	1234,93
884,29	1249,26
884,45	1239,02
884,62	1228,78
884,78	1228,78
884,95	1218,54
885,11	1288,17
885,28	1284,08
885,44	1269,74
885,61	1267,69
885,77	1333,23
885,94	1220,59
886,10	1308,65
886,27	1282,03
886,43	1347,56
886,60	1239,02
886,76	1208,30
886,93	1269,74
887,09	1290,22
887,26	1320,94
887,42	1249,26
887,59	1265,64
887,75	1232,88
887,92	1288,17
888,08	1183,73
888,25	1277,93
888,41	1290,22
888,58	1327,08
888,74	1273,84
888,91	1216,49
>>>>>End Processed Spectral Data<<<<<
