SpectraSuite Data File
++++++++++++++++++++++++++++++++++++
Date: Sun Apr 03 14:47:34 CEST 2016
User: root
Dark Spectrum Present: No
Reference Spectrum Present: No
Number of Sampled Component Spectra: 1
Spectrometers: USB4C02835
Integration Time (usec): 10000 (USB4C02835)
Spectra Averaged: 1 (USB4C02835)
Boxcar Smoothing: 0 (USB4C02835)
Correct for Electrical Dark: No (USB4C02835)
Strobe/Lamp Enabled: No (USB4C02835)
Correct for Detector Non-linearity: No (USB4C02835)
Correct for Stray Light: No (USB4C02835)
Number of Pixels in Processed Spectrum: 3648
>>>>>Begin Processed Spectral Data<<<<<
177,47	1218,54
177,69	1218,54
177,91	1218,54
178,13	1204,21
178,36	1181,68
178,58	1210,35
178,80	1296,36
179,02	1282,03
179,24	1288,17
179,46	1277,93
179,68	1216,49
179,90	1279,98
180,13	1249,26
180,35	1236,97
180,57	1259,50
180,79	1314,80
181,01	1288,17
181,23	1257,45
181,45	1216,49
181,67	1269,74
181,90	1318,89
182,12	1200,11
182,34	1241,07
182,56	1282,03
182,78	1234,93
183,00	1255,40
183,22	1204,21
183,44	1208,30
183,66	1306,60
183,89	1331,18
184,11	1296,36
184,33	1290,22
184,55	1261,55
184,77	1222,64
184,99	1314,80
185,21	1239,02
185,43	1296,36
185,65	1271,79
185,87	1325,04
186,10	1220,59
186,32	1275,88
186,54	1253,36
186,76	1282,03
186,98	1294,32
187,20	1306,60
187,42	1275,88
187,64	1265,64
187,86	1267,69
188,08	1310,70
188,30	1298,41
188,52	1284,08
188,75	1304,56
188,97	1226,73
189,19	1284,08
189,41	1232,88
189,63	1257,45
189,85	1279,98
190,07	1275,88
190,29	1216,49
190,51	1286,12
190,73	1316,84
190,95	1298,41
191,17	1228,78
191,39	1288,17
191,61	1261,55
191,84	1316,84
192,06	1247,21
192,28	1282,03
192,50	1257,45
192,72	1265,64
192,94	1282,03
193,16	1279,98
193,38	1273,84
193,60	1249,26
193,82	1263,60
194,04	1355,76
194,26	1359,85
194,48	1318,89
194,70	1290,22
194,92	1259,50
195,14	1259,50
195,36	1216,49
195,58	1282,03
195,80	1271,79
196,02	1331,18
196,24	1327,08
196,46	1271,79
196,69	1273,84
196,91	1259,50
197,13	1241,07
197,35	1275,88
197,57	1284,08
197,79	1286,12
198,01	1275,88
198,23	1277,93
198,45	1249,26
198,67	1239,02
198,89	1290,22
199,11	1239,02
199,33	1208,30
199,55	1245,16
199,77	1298,41
199,99	1298,41
200,21	1273,84
200,43	1277,93
200,65	1208,30
200,87	1290,22
201,09	1302,51
201,31	1259,50
201,53	1282,03
201,75	1288,17
201,97	1202,16
202,19	1277,93
202,41	1253,36
202,63	1273,84
202,85	1245,16
203,07	1232,88
203,29	1318,89
203,51	1273,84
203,73	1232,88
203,95	1288,17
204,17	1308,65
204,39	1292,27
204,61	1273,84
204,83	1312,75
205,05	1257,45
205,27	1251,31
205,49	1222,64
205,71	1279,98
205,93	1212,40
206,15	1277,93
206,37	1294,32
206,59	1191,92
206,81	1277,93
207,03	1271,79
207,25	1228,78
207,47	1245,16
207,69	1288,17
207,91	1300,46
208,13	1304,56
208,34	1310,70
208,56	1290,22
208,78	1243,12
209,00	1249,26
209,22	1288,17
209,44	1263,60
209,66	1173,49
209,88	1304,56
210,10	1257,45
210,32	1208,30
210,54	1271,79
210,76	1275,88
210,98	1294,32
211,20	1347,56
211,42	1253,36
211,64	1277,93
211,86	1269,74
212,08	1277,93
212,30	1273,84
212,52	1249,26
212,74	1294,32
212,96	1300,46
213,17	1243,12
213,39	1247,21
213,61	1314,80
213,83	1308,65
214,05	1294,32
214,27	1310,70
214,49	1245,16
214,71	1216,49
214,93	1269,74
215,15	1269,74
215,37	1288,17
215,59	1294,32
215,81	1275,88
216,03	1284,08
216,24	1290,22
216,46	1325,04
216,68	1210,35
216,90	1251,31
217,12	1247,21
217,34	1282,03
217,56	1263,60
217,78	1304,56
218,00	1230,83
218,22	1216,49
218,44	1316,84
218,66	1255,40
218,87	1320,94
219,09	1236,97
219,31	1331,18
219,53	1214,45
219,75	1165,29
219,97	1218,54
220,19	1228,78
220,41	1282,03
220,63	1368,04
220,85	1308,65
221,06	1294,32
221,28	1349,61
221,50	1259,50
221,72	1253,36
221,94	1236,97
222,16	1259,50
222,38	1216,49
222,60	1269,74
222,82	1304,56
223,03	1261,55
223,25	1191,92
223,47	1279,98
223,69	1267,69
223,91	1271,79
224,13	1253,36
224,35	1206,25
224,57	1224,69
224,78	1290,22
225,00	1314,80
225,22	1298,41
225,44	1298,41
225,66	1222,64
225,88	1314,80
226,10	1372,14
226,32	1243,12
226,53	1249,26
226,75	1218,54
226,97	1298,41
227,19	1251,31
227,41	1310,70
227,63	1292,27
227,85	1265,64
228,06	1279,98
228,28	1290,22
228,50	1271,79
228,72	1363,95
228,94	1277,93
229,16	1265,64
229,37	1247,21
229,59	1261,55
229,81	1230,83
230,03	1298,41
230,25	1230,83
230,47	1290,22
230,69	1327,08
230,90	1288,17
231,12	1220,59
231,34	1267,69
231,56	1275,88
231,78	1263,60
232,00	1304,56
232,21	1247,21
232,43	1325,04
232,65	1310,70
232,87	1298,41
233,09	1253,36
233,30	1261,55
233,52	1318,89
233,74	1279,98
233,96	1245,16
234,18	1298,41
234,40	1261,55
234,61	1255,40
234,83	1277,93
235,05	1273,84
235,27	1275,88
235,49	1196,01
235,70	1279,98
235,92	1247,21
236,14	1243,12
236,36	1294,32
236,58	1222,64
236,79	1320,94
237,01	1208,30
237,23	1282,03
237,45	1259,50
237,67	1282,03
237,88	1347,56
238,10	1298,41
238,32	1351,66
238,54	1294,32
238,76	1247,21
238,97	1173,49
239,19	1212,40
239,41	1245,16
239,63	1265,64
239,85	1273,84
240,06	1259,50
240,28	1236,97
240,50	1189,87
240,72	1279,98
240,93	1304,56
241,15	1298,41
241,37	1247,21
241,59	1234,93
241,81	1245,16
242,02	1318,89
242,24	1288,17
242,46	1251,31
242,68	1273,84
242,89	1282,03
243,11	1187,82
243,33	1329,13
243,55	1222,64
243,76	1271,79
243,98	1300,46
244,20	1284,08
244,42	1230,83
244,64	1167,34
244,85	1298,41
245,07	1241,07
245,29	1259,50
245,51	1286,12
245,72	1263,60
245,94	1226,73
246,16	1304,56
246,38	1241,07
246,59	1339,37
246,81	1296,36
247,03	1245,16
247,24	1247,21
247,46	1259,50
247,68	1327,08
247,90	1282,03
248,11	1290,22
248,33	1222,64
248,55	1290,22
248,77	1327,08
248,98	1296,36
249,20	1286,12
249,42	1257,45
249,64	1298,41
249,85	1249,26
250,07	1208,30
250,29	1271,79
250,50	1249,26
250,72	1265,64
250,94	1257,45
251,16	1320,94
251,37	1226,73
251,59	1243,12
251,81	1228,78
252,02	1232,88
252,24	1222,64
252,46	1331,18
252,68	1298,41
252,89	1249,26
253,11	1214,45
253,33	1306,60
253,54	1282,03
253,76	1241,07
253,98	1273,84
254,20	1247,21
254,41	1253,36
254,63	1312,75
254,85	1288,17
255,06	1314,80
255,28	1320,94
255,50	1337,32
255,71	1288,17
255,93	1325,04
256,15	1220,59
256,36	1298,41
256,58	1331,18
256,80	1267,69
257,02	1327,08
257,23	1226,73
257,45	1249,26
257,67	1208,30
257,88	1245,16
258,10	1257,45
258,32	1228,78
258,53	1249,26
258,75	1271,79
258,97	1273,84
259,18	1224,69
259,40	1296,36
259,62	1191,92
259,83	1355,76
260,05	1226,73
260,27	1345,52
260,48	1236,97
260,70	1243,12
260,92	1247,21
261,13	1253,36
261,35	1300,46
261,57	1253,36
261,78	1292,27
262,00	1243,12
262,22	1302,51
262,43	1327,08
262,65	1318,89
262,86	1208,30
263,08	1259,50
263,30	1294,32
263,51	1314,80
263,73	1245,16
263,95	1314,80
264,16	1279,98
264,38	1302,51
264,60	1241,07
264,81	1320,94
265,03	1284,08
265,25	1376,24
265,46	1204,21
265,68	1341,42
265,89	1279,98
266,11	1189,87
266,33	1304,56
266,54	1216,49
266,76	1304,56
266,98	1247,21
267,19	1288,17
267,41	1320,94
267,62	1339,37
267,84	1292,27
268,06	1286,12
268,27	1148,91
268,49	1243,12
268,70	1345,52
268,92	1279,98
269,14	1282,03
269,35	1284,08
269,57	1355,76
269,79	1226,73
270,00	1249,26
270,22	1148,91
270,43	1253,36
270,65	1247,21
270,87	1249,26
271,08	1249,26
271,30	1370,09
271,51	1243,12
271,73	1320,94
271,95	1249,26
272,16	1310,70
272,38	1191,92
272,59	1241,07
272,81	1247,21
273,02	1279,98
273,24	1300,46
273,46	1234,93
273,67	1241,07
273,89	1269,74
274,10	1257,45
274,32	1361,90
274,54	1265,64
274,75	1245,16
274,97	1298,41
275,18	1249,26
275,40	1273,84
275,61	1376,24
275,83	1214,45
276,05	1251,31
276,26	1247,21
276,48	1314,80
276,69	1331,18
276,91	1245,16
277,12	1292,27
277,34	1267,69
277,55	1288,17
277,77	1218,54
277,99	1226,73
278,20	1275,88
278,42	1249,26
278,63	1271,79
278,85	1226,73
279,06	1210,35
279,28	1273,84
279,49	1236,97
279,71	1267,69
279,93	1243,12
280,14	1257,45
280,36	1216,49
280,57	1355,76
280,79	1304,56
281,00	1208,30
281,22	1294,32
281,43	1212,40
281,65	1284,08
281,86	1257,45
282,08	1271,79
282,29	1265,64
282,51	1243,12
282,73	1331,18
282,94	1359,85
283,16	1234,93
283,37	1347,56
283,59	1271,79
283,80	1316,84
284,02	1345,52
284,23	1337,32
284,45	1236,97
284,66	1294,32
284,88	1353,71
285,09	1294,32
285,31	1257,45
285,52	1230,83
285,74	1204,21
285,95	1296,36
286,17	1247,21
286,38	1265,64
286,60	1228,78
286,81	1249,26
287,03	1226,73
287,24	1267,69
287,46	1359,85
287,67	1300,46
287,89	1320,94
288,10	1273,84
288,32	1337,32
288,53	1279,98
288,75	1327,08
288,96	1261,55
289,18	1241,07
289,39	1308,65
289,61	1286,12
289,82	1259,50
290,04	1288,17
290,25	1343,47
290,47	1277,93
290,68	1318,89
290,90	1224,69
291,11	1251,31
291,33	1263,60
291,54	1314,80
291,76	1308,65
291,97	1245,16
292,18	1271,79
292,40	1306,60
292,61	1239,02
292,83	1226,73
293,04	1255,40
293,26	1271,79
293,47	1273,84
293,69	1234,93
293,90	1247,21
294,12	1298,41
294,33	1273,84
294,55	1294,32
294,76	1267,69
294,97	1318,89
295,19	1218,54
295,40	1230,83
295,62	1277,93
295,83	1261,55
296,05	1224,69
296,26	1245,16
296,48	1292,27
296,69	1226,73
296,90	1271,79
297,12	1249,26
297,33	1310,70
297,55	1232,88
297,76	1269,74
297,98	1265,64
298,19	1333,23
298,41	1273,84
298,62	1257,45
298,83	1286,12
299,05	1220,59
299,26	1224,69
299,48	1296,36
299,69	1271,79
299,90	1230,83
300,12	1204,21
300,33	1279,98
300,55	1271,79
300,76	1292,27
300,98	1234,93
301,19	1290,22
301,40	1271,79
301,62	1230,83
301,83	1327,08
302,05	1298,41
302,26	1247,21
302,47	1296,36
302,69	1220,59
302,90	1271,79
303,12	1236,97
303,33	1267,69
303,54	1282,03
303,76	1230,83
303,97	1259,50
304,19	1292,27
304,40	1265,64
304,61	1243,12
304,83	1257,45
305,04	1312,75
305,26	1310,70
305,47	1251,31
305,68	1279,98
305,90	1275,88
306,11	1284,08
306,33	1220,59
306,54	1304,56
306,75	1282,03
306,97	1212,40
307,18	1294,32
307,39	1165,29
307,61	1234,93
307,82	1286,12
308,04	1294,32
308,25	1263,60
308,46	1245,16
308,68	1312,75
308,89	1265,64
309,10	1249,26
309,32	1304,56
309,53	1265,64
309,74	1290,22
309,96	1294,32
310,17	1300,46
310,39	1308,65
310,60	1239,02
310,81	1331,18
311,03	1333,23
311,24	1286,12
311,45	1298,41
311,67	1318,89
311,88	1247,21
312,09	1304,56
312,31	1224,69
312,52	1255,40
312,73	1316,84
312,95	1255,40
313,16	1206,25
313,37	1294,32
313,59	1296,36
313,80	1208,30
314,01	1249,26
314,23	1314,80
314,44	1279,98
314,65	1228,78
314,87	1265,64
315,08	1277,93
315,29	1265,64
315,51	1284,08
315,72	1224,69
315,93	1265,64
316,15	1304,56
316,36	1224,69
316,57	1306,60
316,79	1251,31
317,00	1236,97
317,21	1325,04
317,43	1329,13
317,64	1263,60
317,85	1245,16
318,07	1290,22
318,28	1263,60
318,49	1261,55
318,70	1282,03
318,92	1232,88
319,13	1234,93
319,34	1212,40
319,56	1353,71
319,77	1290,22
319,98	1318,89
320,20	1253,36
320,41	1216,49
320,62	1234,93
320,83	1275,88
321,05	1302,51
321,26	1345,52
321,47	1239,02
321,69	1288,17
321,90	1277,93
322,11	1269,74
322,32	1249,26
322,54	1314,80
322,75	1230,83
322,96	1327,08
323,18	1234,93
323,39	1208,30
323,60	1300,46
323,81	1259,50
324,03	1290,22
324,24	1277,93
324,45	1255,40
324,66	1298,41
324,88	1232,88
325,09	1239,02
325,30	1308,65
325,52	1241,07
325,73	1335,28
325,94	1357,80
326,15	1198,06
326,37	1245,16
326,58	1245,16
326,79	1220,59
327,00	1214,45
327,22	1312,75
327,43	1255,40
327,64	1292,27
327,85	1290,22
328,07	1292,27
328,28	1261,55
328,49	1275,88
328,70	1210,35
328,92	1191,92
329,13	1265,64
329,34	1245,16
329,55	1251,31
329,76	1279,98
329,98	1273,84
330,19	1273,84
330,40	1175,53
330,61	1196,01
330,83	1288,17
331,04	1284,08
331,25	1327,08
331,46	1228,78
331,68	1230,83
331,89	1335,28
332,10	1261,55
332,31	1259,50
332,52	1314,80
332,74	1296,36
332,95	1288,17
333,16	1259,50
333,37	1312,75
333,58	1298,41
333,80	1327,08
334,01	1247,21
334,22	1292,27
334,43	1265,64
334,64	1269,74
334,86	1290,22
335,07	1249,26
335,28	1337,32
335,49	1273,84
335,70	1230,83
335,92	1200,11
336,13	1279,98
336,34	1222,64
336,55	1304,56
336,76	1216,49
336,98	1234,93
337,19	1249,26
337,40	1277,93
337,61	1220,59
337,82	1239,02
338,04	1320,94
338,25	1275,88
338,46	1226,73
338,67	1222,64
338,88	1300,46
339,09	1239,02
339,31	1257,45
339,52	1214,45
339,73	1294,32
339,94	1253,36
340,15	1333,23
340,36	1257,45
340,58	1277,93
340,79	1234,93
341,00	1282,03
341,21	1298,41
341,42	1216,49
341,63	1277,93
341,85	1191,92
342,06	1294,32
342,27	1306,60
342,48	1198,06
342,69	1282,03
342,90	1277,93
343,12	1257,45
343,33	1251,31
343,54	1265,64
343,75	1310,70
343,96	1255,40
344,17	1210,35
344,38	1271,79
344,60	1279,98
344,81	1191,92
345,02	1273,84
345,23	1253,36
345,44	1241,07
345,65	1312,75
345,86	1304,56
346,07	1286,12
346,29	1253,36
346,50	1210,35
346,71	1234,93
346,92	1292,27
347,13	1277,93
347,34	1247,21
347,55	1232,88
347,76	1261,55
347,98	1230,83
348,19	1292,27
348,40	1273,84
348,61	1224,69
348,82	1298,41
349,03	1234,93
349,24	1226,73
349,45	1265,64
349,66	1308,65
349,88	1257,45
350,09	1302,51
350,30	1241,07
350,51	1255,40
350,72	1257,45
350,93	1279,98
351,14	1290,22
351,35	1282,03
351,56	1226,73
351,77	1294,32
351,99	1302,51
352,20	1341,42
352,41	1284,08
352,62	1279,98
352,83	1249,26
353,04	1279,98
353,25	1286,12
353,46	1294,32
353,67	1378,28
353,88	1277,93
354,09	1318,89
354,30	1292,27
354,52	1322,99
354,73	1257,45
354,94	1234,93
355,15	1384,43
355,36	1224,69
355,57	1255,40
355,78	1294,32
355,99	1224,69
356,20	1304,56
356,41	1322,99
356,62	1226,73
356,83	1171,44
357,04	1255,40
357,25	1239,02
357,46	1275,88
357,68	1292,27
357,89	1167,34
358,10	1290,22
358,31	1310,70
358,52	1271,79
358,73	1312,75
358,94	1210,35
359,15	1247,21
359,36	1279,98
359,57	1269,74
359,78	1230,83
359,99	1366,00
360,20	1298,41
360,41	1251,31
360,62	1288,17
360,83	1216,49
361,04	1241,07
361,25	1273,84
361,46	1300,46
361,67	1288,17
361,88	1300,46
362,09	1273,84
362,30	1384,43
362,51	1239,02
362,72	1222,64
362,93	1298,41
363,14	1306,60
363,35	1230,83
363,56	1288,17
363,78	1249,26
363,99	1202,16
364,20	1300,46
364,41	1282,03
364,62	1296,36
364,83	1241,07
365,04	1206,25
365,25	1292,27
365,46	1298,41
365,67	1257,45
365,88	1298,41
366,09	1314,80
366,30	1187,82
366,51	1236,97
366,72	1251,31
366,93	1257,45
367,14	1236,97
367,35	1267,69
367,56	1218,54
367,77	1282,03
367,98	1239,02
368,18	1241,07
368,39	1277,93
368,60	1273,84
368,81	1288,17
369,02	1226,73
369,23	1300,46
369,44	1179,63
369,65	1282,03
369,86	1284,08
370,07	1218,54
370,28	1288,17
370,49	1320,94
370,70	1224,69
370,91	1265,64
371,12	1337,32
371,33	1279,98
371,54	1273,84
371,75	1234,93
371,96	1247,21
372,17	1171,44
372,38	1261,55
372,59	1318,89
372,80	1271,79
373,01	1261,55
373,22	1253,36
373,43	1232,88
373,64	1337,32
373,85	1241,07
374,06	1257,45
374,26	1282,03
374,47	1241,07
374,68	1275,88
374,89	1300,46
375,10	1257,45
375,31	1236,97
375,52	1275,88
375,73	1263,60
375,94	1175,53
376,15	1292,27
376,36	1204,21
376,57	1288,17
376,78	1273,84
376,99	1333,23
377,20	1259,50
377,40	1228,78
377,61	1241,07
377,82	1308,65
378,03	1259,50
378,24	1257,45
378,45	1212,40
378,66	1267,69
378,87	1234,93
379,08	1314,80
379,29	1300,46
379,50	1292,27
379,71	1243,12
379,91	1261,55
380,12	1312,75
380,33	1318,89
380,54	1263,60
380,75	1267,69
380,96	1243,12
381,17	1282,03
381,38	1255,40
381,59	1257,45
381,80	1239,02
382,00	1286,12
382,21	1296,36
382,42	1290,22
382,63	1333,23
382,84	1294,32
383,05	1267,69
383,26	1294,32
383,47	1226,73
383,68	1279,98
383,88	1290,22
384,09	1259,50
384,30	1294,32
384,51	1261,55
384,72	1222,64
384,93	1234,93
385,14	1275,88
385,35	1275,88
385,55	1253,36
385,76	1257,45
385,97	1214,45
386,18	1232,88
386,39	1337,32
386,60	1374,19
386,81	1288,17
387,02	1265,64
387,22	1232,88
387,43	1320,94
387,64	1277,93
387,85	1329,13
388,06	1292,27
388,27	1335,28
388,48	1284,08
388,68	1247,21
388,89	1265,64
389,10	1345,52
389,31	1218,54
389,52	1226,73
389,73	1249,26
389,93	1284,08
390,14	1298,41
390,35	1251,31
390,56	1282,03
390,77	1306,60
390,98	1245,16
391,18	1234,93
391,39	1259,50
391,60	1265,64
391,81	1265,64
392,02	1327,08
392,23	1230,83
392,43	1167,34
392,64	1304,56
392,85	1263,60
393,06	1294,32
393,27	1290,22
393,47	1234,93
393,68	1267,69
393,89	1247,21
394,10	1284,08
394,31	1318,89
394,52	1261,55
394,72	1277,93
394,93	1300,46
395,14	1312,75
395,35	1316,84
395,56	1320,94
395,76	1300,46
395,97	1255,40
396,18	1286,12
396,39	1253,36
396,60	1304,56
396,80	1333,23
397,01	1257,45
397,22	1234,93
397,43	1206,25
397,64	1245,16
397,84	1290,22
398,05	1304,56
398,26	1241,07
398,47	1312,75
398,67	1275,88
398,88	1232,88
399,09	1191,92
399,30	1269,74
399,51	1271,79
399,71	1279,98
399,92	1275,88
400,13	1196,01
400,34	1271,79
400,54	1302,51
400,75	1177,58
400,96	1298,41
401,17	1239,02
401,37	1288,17
401,58	1204,21
401,79	1316,84
402,00	1316,84
402,21	1331,18
402,41	1263,60
402,62	1298,41
402,83	1288,17
403,04	1200,11
403,24	1271,79
403,45	1218,54
403,66	1261,55
403,87	1279,98
404,07	1230,83
404,28	1271,79
404,49	1372,14
404,70	1212,40
404,90	1282,03
405,11	1214,45
405,32	1236,97
405,52	1288,17
405,73	1296,36
405,94	1290,22
406,15	1322,99
406,35	1263,60
406,56	1286,12
406,77	1257,45
406,98	1271,79
407,18	1230,83
407,39	1300,46
407,60	1318,89
407,80	1273,84
408,01	1273,84
408,22	1290,22
408,43	1228,78
408,63	1308,65
408,84	1322,99
409,05	1232,88
409,25	1189,87
409,46	1259,50
409,67	1220,59
409,88	1216,49
410,08	1284,08
410,29	1230,83
410,50	1230,83
410,70	1255,40
410,91	1239,02
411,12	1261,55
411,32	1269,74
411,53	1286,12
411,74	1327,08
411,95	1302,51
412,15	1222,64
412,36	1208,30
412,57	1267,69
412,77	1265,64
412,98	1230,83
413,19	1259,50
413,39	1282,03
413,60	1222,64
413,81	1257,45
414,01	1247,21
414,22	1275,88
414,43	1279,98
414,63	1230,83
414,84	1265,64
415,05	1261,55
415,25	1243,12
415,46	1290,22
415,67	1251,31
415,87	1279,98
416,08	1294,32
416,29	1277,93
416,49	1279,98
416,70	1302,51
416,91	1253,36
417,11	1245,16
417,32	1292,27
417,53	1191,92
417,73	1271,79
417,94	1253,36
418,15	1312,75
418,35	1302,51
418,56	1284,08
418,77	1284,08
418,97	1302,51
419,18	1226,73
419,38	1341,42
419,59	1331,18
419,80	1284,08
420,00	1236,97
420,21	1261,55
420,42	1204,21
420,62	1284,08
420,83	1318,89
421,04	1304,56
421,24	1277,93
421,45	1298,41
421,65	1304,56
421,86	1273,84
422,07	1298,41
422,27	1263,60
422,48	1228,78
422,69	1318,89
422,89	1329,13
423,10	1294,32
423,30	1257,45
423,51	1314,80
423,72	1204,21
423,92	1325,04
424,13	1296,36
424,33	1320,94
424,54	1294,32
424,75	1347,56
424,95	1245,16
425,16	1273,84
425,36	1210,35
425,57	1265,64
425,78	1292,27
425,98	1329,13
426,19	1265,64
426,39	1308,65
426,60	1239,02
426,81	1296,36
427,01	1302,51
427,22	1224,69
427,42	1275,88
427,63	1294,32
427,83	1337,32
428,04	1255,40
428,25	1245,16
428,45	1292,27
428,66	1329,13
428,86	1251,31
429,07	1267,69
429,28	1259,50
429,48	1236,97
429,69	1212,40
429,89	1284,08
430,10	1298,41
430,30	1271,79
430,51	1282,03
430,71	1243,12
430,92	1228,78
431,13	1271,79
431,33	1304,56
431,54	1255,40
431,74	1300,46
431,95	1314,80
432,15	1247,21
432,36	1236,97
432,56	1273,84
432,77	1292,27
432,98	1232,88
433,18	1269,74
433,39	1282,03
433,59	1333,23
433,80	1288,17
434,00	1308,65
434,21	1349,61
434,41	1306,60
434,62	1265,64
434,82	1273,84
435,03	1218,54
435,23	1259,50
435,44	1282,03
435,64	1290,22
435,85	1261,55
436,06	1253,36
436,26	1251,31
436,47	1259,50
436,67	1261,55
436,88	1273,84
437,08	1318,89
437,29	1286,12
437,49	1214,45
437,70	1234,93
437,90	1339,37
438,11	1286,12
438,31	1212,40
438,52	1224,69
438,72	1302,51
438,93	1234,93
439,13	1210,35
439,34	1247,21
439,54	1359,85
439,75	1249,26
439,95	1288,17
440,16	1202,16
440,36	1273,84
440,57	1251,31
440,77	1269,74
440,98	1239,02
441,18	1265,64
441,39	1257,45
441,59	1236,97
441,80	1232,88
442,00	1292,27
442,21	1288,17
442,41	1228,78
442,62	1282,03
442,82	1288,17
443,02	1243,12
443,23	1216,49
443,43	1198,06
443,64	1310,70
443,84	1232,88
444,05	1304,56
444,25	1222,64
444,46	1378,28
444,66	1333,23
444,87	1314,80
445,07	1329,13
445,28	1288,17
445,48	1271,79
445,69	1230,83
445,89	1392,62
446,09	1282,03
446,30	1302,51
446,50	1269,74
446,71	1249,26
446,91	1263,60
447,12	1243,12
447,32	1259,50
447,53	1249,26
447,73	1247,21
447,93	1322,99
448,14	1296,36
448,34	1329,13
448,55	1222,64
448,75	1226,73
448,96	1308,65
449,16	1331,18
449,36	1265,64
449,57	1279,98
449,77	1226,73
449,98	1320,94
450,18	1302,51
450,39	1257,45
450,59	1261,55
450,79	1257,45
451,00	1351,66
451,20	1279,98
451,41	1257,45
451,61	1286,12
451,81	1255,40
452,02	1282,03
452,22	1226,73
452,43	1265,64
452,63	1273,84
452,84	1245,16
453,04	1261,55
453,24	1259,50
453,45	1189,87
453,65	1226,73
453,86	1265,64
454,06	1241,07
454,26	1296,36
454,47	1259,50
454,67	1284,08
454,87	1230,83
455,08	1255,40
455,28	1198,06
455,49	1271,79
455,69	1261,55
455,89	1273,84
456,10	1232,88
456,30	1261,55
456,51	1249,26
456,71	1312,75
456,91	1331,18
457,12	1298,41
457,32	1220,59
457,52	1290,22
457,73	1286,12
457,93	1257,45
458,14	1282,03
458,34	1241,07
458,54	1368,04
458,75	1204,21
458,95	1218,54
459,15	1259,50
459,36	1257,45
459,56	1241,07
459,76	1245,16
459,97	1236,97
460,17	1273,84
460,37	1265,64
460,58	1290,22
460,78	1234,93
460,99	1247,21
461,19	1339,37
461,39	1243,12
461,60	1318,89
461,80	1261,55
462,00	1257,45
462,21	1290,22
462,41	1241,07
462,61	1257,45
462,82	1232,88
463,02	1294,32
463,22	1286,12
463,43	1273,84
463,63	1261,55
463,83	1257,45
464,04	1296,36
464,24	1290,22
464,44	1329,13
464,64	1275,88
464,85	1273,84
465,05	1343,47
465,25	1210,35
465,46	1302,51
465,66	1259,50
465,86	1286,12
466,07	1286,12
466,27	1255,40
466,47	1294,32
466,68	1224,69
466,88	1335,28
467,08	1241,07
467,29	1298,41
467,49	1218,54
467,69	1288,17
467,89	1251,31
468,10	1286,12
468,30	1329,13
468,50	1271,79
468,71	1368,04
468,91	1271,79
469,11	1300,46
469,31	1306,60
469,52	1310,70
469,72	1322,99
469,92	1284,08
470,13	1269,74
470,33	1277,93
470,53	1251,31
470,73	1261,55
470,94	1228,78
471,14	1296,36
471,34	1263,60
471,54	1177,58
471,75	1279,98
471,95	1366,00
472,15	1302,51
472,36	1259,50
472,56	1232,88
472,76	1279,98
472,96	1267,69
473,17	1286,12
473,37	1259,50
473,57	1312,75
473,77	1265,64
473,98	1206,25
474,18	1277,93
474,38	1292,27
474,58	1304,56
474,79	1257,45
474,99	1294,32
475,19	1339,37
475,39	1314,80
475,60	1277,93
475,80	1243,12
476,00	1243,12
476,20	1290,22
476,41	1277,93
476,61	1224,69
476,81	1331,18
477,01	1247,21
477,21	1286,12
477,42	1277,93
477,62	1247,21
477,82	1279,98
478,02	1257,45
478,23	1206,25
478,43	1265,64
478,63	1232,88
478,83	1255,40
479,03	1200,11
479,24	1200,11
479,44	1271,79
479,64	1298,41
479,84	1286,12
480,04	1249,26
480,25	1300,46
480,45	1275,88
480,65	1247,21
480,85	1249,26
481,06	1312,75
481,26	1218,54
481,46	1269,74
481,66	1282,03
481,86	1253,36
482,06	1304,56
482,27	1253,36
482,47	1220,59
482,67	1298,41
482,87	1320,94
483,07	1277,93
483,28	1214,45
483,48	1292,27
483,68	1304,56
483,88	1214,45
484,08	1290,22
484,29	1239,02
484,49	1271,79
484,69	1253,36
484,89	1302,51
485,09	1300,46
485,29	1196,01
485,50	1247,21
485,70	1302,51
485,90	1302,51
486,10	1261,55
486,30	1275,88
486,50	1251,31
486,71	1279,98
486,91	1325,04
487,11	1243,12
487,31	1294,32
487,51	1232,88
487,71	1288,17
487,91	1257,45
488,12	1253,36
488,32	1320,94
488,52	1241,07
488,72	1310,70
488,92	1230,83
489,12	1279,98
489,32	1269,74
489,53	1290,22
489,73	1249,26
489,93	1267,69
490,13	1306,60
490,33	1296,36
490,53	1236,97
490,73	1353,71
490,94	1314,80
491,14	1234,93
491,34	1265,64
491,54	1310,70
491,74	1245,16
491,94	1247,21
492,14	1308,65
492,34	1226,73
492,54	1251,31
492,75	1300,46
492,95	1259,50
493,15	1288,17
493,35	1165,29
493,55	1187,82
493,75	1312,75
493,95	1269,74
494,15	1257,45
494,35	1279,98
494,56	1234,93
494,76	1214,45
494,96	1230,83
495,16	1282,03
495,36	1189,87
495,56	1261,55
495,76	1273,84
495,96	1322,99
496,16	1232,88
496,36	1257,45
496,56	1294,32
496,77	1325,04
496,97	1331,18
497,17	1331,18
497,37	1290,22
497,57	1284,08
497,77	1245,16
497,97	1269,74
498,17	1253,36
498,37	1277,93
498,57	1208,30
498,77	1300,46
498,97	1261,55
499,17	1292,27
499,38	1230,83
499,58	1253,36
499,78	1284,08
499,98	1259,50
500,18	1226,73
500,38	1288,17
500,58	1288,17
500,78	1224,69
500,98	1318,89
501,18	1296,36
501,38	1355,76
501,58	1253,36
501,78	1261,55
501,98	1327,08
502,18	1224,69
502,38	1265,64
502,58	1298,41
502,78	1300,46
502,98	1294,32
503,18	1263,60
503,38	1275,88
503,59	1282,03
503,79	1294,32
503,99	1265,64
504,19	1269,74
504,39	1290,22
504,59	1306,60
504,79	1253,36
504,99	1320,94
505,19	1349,61
505,39	1243,12
505,59	1312,75
505,79	1290,22
505,99	1292,27
506,19	1277,93
506,39	1265,64
506,59	1259,50
506,79	1271,79
506,99	1310,70
507,19	1298,41
507,39	1241,07
507,59	1269,74
507,79	1277,93
507,99	1320,94
508,19	1269,74
508,39	1271,79
508,59	1269,74
508,79	1286,12
508,99	1251,31
509,19	1257,45
509,39	1259,50
509,59	1218,54
509,79	1288,17
509,99	1304,56
510,19	1286,12
510,39	1200,11
510,59	1275,88
510,79	1273,84
510,99	1214,45
511,19	1236,97
511,39	1271,79
511,59	1298,41
511,79	1288,17
511,99	1259,50
512,19	1183,73
512,38	1236,97
512,58	1298,41
512,78	1241,07
512,98	1259,50
513,18	1312,75
513,38	1312,75
513,58	1288,17
513,78	1279,98
513,98	1269,74
514,18	1322,99
514,38	1239,02
514,58	1239,02
514,78	1265,64
514,98	1337,32
515,18	1320,94
515,38	1261,55
515,58	1273,84
515,78	1241,07
515,98	1193,97
516,18	1292,27
516,38	1325,04
516,57	1284,08
516,77	1277,93
516,97	1279,98
517,17	1314,80
517,37	1216,49
517,57	1298,41
517,77	1271,79
517,97	1257,45
518,17	1193,97
518,37	1282,03
518,57	1298,41
518,77	1286,12
518,97	1236,97
519,16	1308,65
519,36	1333,23
519,56	1312,75
519,76	1271,79
519,96	1298,41
520,16	1267,69
520,36	1304,56
520,56	1228,78
520,76	1284,08
520,96	1277,93
521,16	1284,08
521,35	1370,09
521,55	1259,50
521,75	1241,07
521,95	1206,25
522,15	1269,74
522,35	1269,74
522,55	1236,97
522,75	1271,79
522,95	1341,42
523,14	1337,32
523,34	1247,21
523,54	1298,41
523,74	1294,32
523,94	1200,11
524,14	1243,12
524,34	1245,16
524,54	1257,45
524,73	1284,08
524,93	1263,60
525,13	1200,11
525,33	1210,35
525,53	1245,16
525,73	1234,93
525,93	1288,17
526,13	1335,28
526,32	1279,98
526,52	1251,31
526,72	1284,08
526,92	1284,08
527,12	1304,56
527,32	1279,98
527,52	1304,56
527,71	1265,64
527,91	1300,46
528,11	1263,60
528,31	1292,27
528,51	1200,11
528,71	1241,07
528,90	1257,45
529,10	1273,84
529,30	1275,88
529,50	1255,40
529,70	1277,93
529,90	1345,52
530,09	1331,18
530,29	1257,45
530,49	1230,83
530,69	1253,36
530,89	1312,75
531,09	1312,75
531,28	1243,12
531,48	1167,34
531,68	1200,11
531,88	1286,12
532,08	1286,12
532,28	1216,49
532,47	1284,08
532,67	1273,84
532,87	1329,13
533,07	1320,94
533,27	1290,22
533,46	1286,12
533,66	1239,02
533,86	1341,42
534,06	1253,36
534,26	1232,88
534,45	1232,88
534,65	1247,21
534,85	1243,12
535,05	1306,60
535,25	1292,27
535,44	1241,07
535,64	1236,97
535,84	1249,26
536,04	1288,17
536,24	1265,64
536,43	1241,07
536,63	1245,16
536,83	1294,32
537,03	1294,32
537,22	1271,79
537,42	1277,93
537,62	1269,74
537,82	1204,21
538,02	1259,50
538,21	1214,45
538,41	1325,04
538,61	1343,47
538,81	1279,98
539,00	1294,32
539,20	1200,11
539,40	1212,40
539,60	1296,36
539,79	1259,50
539,99	1282,03
540,19	1261,55
540,39	1261,55
540,58	1193,97
540,78	1282,03
540,98	1232,88
541,18	1290,22
541,37	1306,60
541,57	1204,21
541,77	1265,64
541,97	1267,69
542,16	1318,89
542,36	1316,84
542,56	1241,07
542,76	1318,89
542,95	1273,84
543,15	1257,45
543,35	1249,26
543,54	1263,60
543,74	1271,79
543,94	1239,02
544,14	1271,79
544,33	1241,07
544,53	1265,64
544,73	1214,45
544,93	1226,73
545,12	1288,17
545,32	1310,70
545,52	1345,52
545,71	1327,08
545,91	1257,45
546,11	1183,73
546,30	1290,22
546,50	1275,88
546,70	1236,97
546,90	1333,23
547,09	1247,21
547,29	1224,69
547,49	1263,60
547,68	1290,22
547,88	1265,64
548,08	1234,93
548,27	1331,18
548,47	1247,21
548,67	1275,88
548,87	1337,32
549,06	1290,22
549,26	1255,40
549,46	1286,12
549,65	1255,40
549,85	1300,46
550,05	1230,83
550,24	1351,66
550,44	1333,23
550,64	1277,93
550,83	1230,83
551,03	1308,65
551,23	1298,41
551,42	1267,69
551,62	1294,32
551,82	1212,40
552,01	1267,69
552,21	1279,98
552,41	1236,97
552,60	1310,70
552,80	1263,60
553,00	1220,59
553,19	1347,56
553,39	1271,79
553,59	1288,17
553,78	1226,73
553,98	1273,84
554,17	1261,55
554,37	1226,73
554,57	1269,74
554,76	1292,27
554,96	1265,64
555,16	1298,41
555,35	1253,36
555,55	1259,50
555,75	1261,55
555,94	1273,84
556,14	1286,12
556,33	1282,03
556,53	1251,31
556,73	1249,26
556,92	1230,83
557,12	1271,79
557,32	1249,26
557,51	1214,45
557,71	1220,59
557,90	1312,75
558,10	1308,65
558,30	1269,74
558,49	1282,03
558,69	1206,25
558,88	1275,88
559,08	1300,46
559,28	1224,69
559,47	1239,02
559,67	1259,50
559,86	1277,93
560,06	1275,88
560,26	1243,12
560,45	1220,59
560,65	1337,32
560,84	1265,64
561,04	1277,93
561,24	1308,65
561,43	1232,88
561,63	1275,88
561,82	1277,93
562,02	1249,26
562,22	1255,40
562,41	1294,32
562,61	1298,41
562,80	1241,07
563,00	1288,17
563,19	1267,69
563,39	1298,41
563,59	1288,17
563,78	1245,16
563,98	1243,12
564,17	1331,18
564,37	1302,51
564,56	1241,07
564,76	1214,45
564,96	1300,46
565,15	1243,12
565,35	1239,02
565,54	1296,36
565,74	1271,79
565,93	1316,84
566,13	1257,45
566,32	1284,08
566,52	1308,65
566,71	1279,98
566,91	1273,84
567,11	1282,03
567,30	1312,75
567,50	1243,12
567,69	1257,45
567,89	1241,07
568,08	1218,54
568,28	1243,12
568,47	1353,71
568,67	1236,97
568,86	1288,17
569,06	1269,74
569,25	1245,16
569,45	1218,54
569,64	1296,36
569,84	1224,69
570,04	1232,88
570,23	1245,16
570,43	1271,79
570,62	1234,93
570,82	1255,40
571,01	1275,88
571,21	1298,41
571,40	1349,61
571,60	1347,56
571,79	1239,02
571,99	1279,98
572,18	1243,12
572,38	1261,55
572,57	1255,40
572,77	1312,75
572,96	1230,83
573,16	1255,40
573,35	1253,36
573,55	1286,12
573,74	1316,84
573,94	1230,83
574,13	1277,93
574,33	1314,80
574,52	1310,70
574,71	1222,64
574,91	1245,16
575,10	1314,80
575,30	1329,13
575,49	1234,93
575,69	1337,32
575,88	1286,12
576,08	1239,02
576,27	1226,73
576,47	1279,98
576,66	1265,64
576,86	1275,88
577,05	1337,32
577,25	1232,88
577,44	1288,17
577,64	1206,25
577,83	1298,41
578,02	1312,75
578,22	1308,65
578,41	1306,60
578,61	1222,64
578,80	1349,61
579,00	1255,40
579,19	1259,50
579,39	1249,26
579,58	1228,78
579,77	1247,21
579,97	1253,36
580,16	1277,93
580,36	1263,60
580,55	1224,69
580,75	1236,97
580,94	1302,51
581,13	1243,12
581,33	1337,32
581,52	1241,07
581,72	1265,64
581,91	1230,83
582,11	1296,36
582,30	1257,45
582,49	1218,54
582,69	1251,31
582,88	1296,36
583,08	1284,08
583,27	1183,73
583,47	1286,12
583,66	1304,56
583,85	1284,08
584,05	1155,05
584,24	1284,08
584,44	1277,93
584,63	1296,36
584,82	1249,26
585,02	1187,82
585,21	1306,60
585,41	1187,82
585,60	1361,90
585,79	1222,64
585,99	1347,56
586,18	1191,92
586,37	1288,17
586,57	1243,12
586,76	1247,21
586,96	1234,93
587,15	1253,36
587,34	1331,18
587,54	1247,21
587,73	1255,40
587,93	1298,41
588,12	1218,54
588,31	1222,64
588,51	1259,50
588,70	1327,08
588,89	1265,64
589,09	1175,53
589,28	1288,17
589,47	1239,02
589,67	1302,51
589,86	1376,24
590,06	1275,88
590,25	1318,89
590,44	1226,73
590,64	1306,60
590,83	1261,55
591,02	1288,17
591,22	1239,02
591,41	1241,07
591,60	1290,22
591,80	1257,45
591,99	1345,52
592,18	1263,60
592,38	1265,64
592,57	1265,64
592,76	1286,12
592,96	1249,26
593,15	1259,50
593,34	1241,07
593,54	1232,88
593,73	1257,45
593,92	1290,22
594,12	1282,03
594,31	1333,23
594,50	1304,56
594,70	1255,40
594,89	1310,70
595,08	1310,70
595,28	1333,23
595,47	1236,97
595,66	1241,07
595,86	1187,82
596,05	1245,16
596,24	1236,97
596,43	1286,12
596,63	1341,42
596,82	1267,69
597,01	1239,02
597,21	1259,50
597,40	1249,26
597,59	1302,51
597,79	1271,79
597,98	1241,07
598,17	1257,45
598,36	1271,79
598,56	1257,45
598,75	1292,27
598,94	1257,45
599,14	1241,07
599,33	1259,50
599,52	1290,22
599,71	1314,80
599,91	1255,40
600,10	1259,50
600,29	1288,17
600,48	1294,32
600,68	1302,51
600,87	1230,83
601,06	1335,28
601,26	1318,89
601,45	1327,08
601,64	1226,73
601,83	1255,40
602,03	1269,74
602,22	1282,03
602,41	1310,70
602,60	1286,12
602,80	1249,26
602,99	1286,12
603,18	1265,64
603,37	1273,84
603,57	1308,65
603,76	1339,37
603,95	1236,97
604,14	1290,22
604,34	1255,40
604,53	1302,51
604,72	1236,97
604,91	1310,70
605,10	1239,02
605,30	1279,98
605,49	1257,45
605,68	1277,93
605,87	1255,40
606,07	1300,46
606,26	1308,65
606,45	1214,45
606,64	1316,84
606,84	1282,03
607,03	1216,49
607,22	1370,09
607,41	1230,83
607,60	1316,84
607,80	1298,41
607,99	1214,45
608,18	1255,40
608,37	1290,22
608,56	1306,60
608,76	1308,65
608,95	1290,22
609,14	1247,21
609,33	1273,84
609,52	1265,64
609,72	1253,36
609,91	1298,41
610,10	1259,50
610,29	1275,88
610,48	1196,01
610,68	1259,50
610,87	1236,97
611,06	1314,80
611,25	1257,45
611,44	1271,79
611,63	1251,31
611,83	1263,60
612,02	1273,84
612,21	1263,60
612,40	1261,55
612,59	1279,98
612,79	1245,16
612,98	1312,75
613,17	1247,21
613,36	1320,94
613,55	1226,73
613,74	1269,74
613,93	1294,32
614,13	1329,13
614,32	1279,98
614,51	1322,99
614,70	1265,64
614,89	1253,36
615,08	1251,31
615,28	1302,51
615,47	1234,93
615,66	1261,55
615,85	1296,36
616,04	1277,93
616,23	1300,46
616,42	1320,94
616,62	1255,40
616,81	1312,75
617,00	1261,55
617,19	1257,45
617,38	1300,46
617,57	1210,35
617,76	1327,08
617,95	1230,83
618,15	1353,71
618,34	1273,84
618,53	1294,32
618,72	1271,79
618,91	1253,36
619,10	1269,74
619,29	1329,13
619,48	1368,04
619,68	1236,97
619,87	1216,49
620,06	1247,21
620,25	1249,26
620,44	1327,08
620,63	1292,27
620,82	1257,45
621,01	1288,17
621,20	1232,88
621,39	1290,22
621,59	1366,00
621,78	1316,84
621,97	1298,41
622,16	1269,74
622,35	1306,60
622,54	1298,41
622,73	1318,89
622,92	1304,56
623,11	1286,12
623,30	1204,21
623,49	1314,80
623,68	1243,12
623,88	1230,83
624,07	1265,64
624,26	1318,89
624,45	1241,07
624,64	1290,22
624,83	1286,12
625,02	1249,26
625,21	1251,31
625,40	1279,98
625,59	1245,16
625,78	1253,36
625,97	1292,27
626,16	1302,51
626,35	1247,21
626,54	1257,45
626,74	1314,80
626,93	1333,23
627,12	1290,22
627,31	1316,84
627,50	1386,47
627,69	1316,84
627,88	1327,08
628,07	1222,64
628,26	1304,56
628,45	1337,32
628,64	1269,74
628,83	1265,64
629,02	1220,59
629,21	1282,03
629,40	1310,70
629,59	1312,75
629,78	1202,16
629,97	1359,85
630,16	1261,55
630,35	1286,12
630,54	1306,60
630,73	1320,94
630,92	1259,50
631,11	1382,38
631,30	1392,62
631,49	1462,25
631,68	1515,50
631,87	1880,04
632,06	2443,23
632,25	2160,61
632,44	2410,46
632,63	2445,27
632,82	2707,41
633,01	3655,62
633,20	3786,69
633,39	6655,90
633,58	13514,55
633,77	20625,09
633,96	22853,28
634,15	19226,33
634,34	11777,87
634,53	5840,81
634,72	2916,31
634,91	2174,94
635,10	2103,26
635,29	1894,37
635,48	1787,88
635,67	1589,22
635,86	1499,11
636,05	1327,08
636,24	1404,91
636,43	1294,32
636,62	1349,61
636,81	1355,76
637,00	1390,57
637,19	1400,81
637,38	1300,46
637,57	1304,56
637,76	1284,08
637,95	1255,40
638,14	1288,17
638,33	1226,73
638,52	1300,46
638,71	1308,65
638,89	1351,66
639,08	1239,02
639,27	1318,89
639,46	1288,17
639,65	1222,64
639,84	1196,01
640,03	1298,41
640,22	1239,02
640,41	1312,75
640,60	1300,46
640,79	1288,17
640,98	1302,51
641,17	1265,64
641,36	1310,70
641,55	1273,84
641,74	1282,03
641,92	1239,02
642,11	1236,97
642,30	1232,88
642,49	1300,46
642,68	1306,60
642,87	1169,39
643,06	1312,75
643,25	1259,50
643,44	1239,02
643,63	1271,79
643,82	1263,60
644,00	1296,36
644,19	1306,60
644,38	1288,17
644,57	1279,98
644,76	1243,12
644,95	1275,88
645,14	1232,88
645,33	1232,88
645,52	1271,79
645,71	1296,36
645,89	1275,88
646,08	1234,93
646,27	1282,03
646,46	1290,22
646,65	1179,63
646,84	1257,45
647,03	1249,26
647,22	1366,00
647,40	1255,40
647,59	1294,32
647,78	1271,79
647,97	1355,76
648,16	1284,08
648,35	1306,60
648,54	1230,83
648,73	1263,60
648,91	1359,85
649,10	1261,55
649,29	1253,36
649,48	1298,41
649,67	1333,23
649,86	1228,78
650,05	1159,15
650,23	1277,93
650,42	1314,80
650,61	1230,83
650,80	1222,64
650,99	1337,32
651,18	1273,84
651,36	1277,93
651,55	1314,80
651,74	1255,40
651,93	1253,36
652,12	1267,69
652,31	1269,74
652,49	1349,61
652,68	1224,69
652,87	1243,12
653,06	1271,79
653,25	1208,30
653,44	1228,78
653,62	1210,35
653,81	1218,54
654,00	1300,46
654,19	1304,56
654,38	1316,84
654,56	1245,16
654,75	1265,64
654,94	1255,40
655,13	1292,27
655,32	1286,12
655,51	1265,64
655,69	1298,41
655,88	1308,65
656,07	1245,16
656,26	1259,50
656,45	1327,08
656,63	1322,99
656,82	1251,31
657,01	1302,51
657,20	1265,64
657,38	1279,98
657,57	1267,69
657,76	1279,98
657,95	1236,97
658,14	1314,80
658,32	1269,74
658,51	1255,40
658,70	1308,65
658,89	1273,84
659,08	1206,25
659,26	1318,89
659,45	1212,40
659,64	1290,22
659,83	1218,54
660,01	1263,60
660,20	1314,80
660,39	1320,94
660,58	1241,07
660,76	1288,17
660,95	1286,12
661,14	1308,65
661,33	1296,36
661,51	1314,80
661,70	1243,12
661,89	1327,08
662,08	1257,45
662,26	1286,12
662,45	1329,13
662,64	1300,46
662,83	1271,79
663,01	1300,46
663,20	1290,22
663,39	1279,98
663,58	1308,65
663,76	1269,74
663,95	1308,65
664,14	1214,45
664,32	1230,83
664,51	1290,22
664,70	1200,11
664,89	1298,41
665,07	1255,40
665,26	1226,73
665,45	1267,69
665,64	1271,79
665,82	1304,56
666,01	1245,16
666,20	1208,30
666,38	1310,70
666,57	1290,22
666,76	1372,14
666,95	1232,88
667,13	1269,74
667,32	1277,93
667,51	1273,84
667,69	1298,41
667,88	1261,55
668,07	1265,64
668,25	1273,84
668,44	1271,79
668,63	1329,13
668,81	1257,45
669,00	1279,98
669,19	1208,30
669,38	1322,99
669,56	1288,17
669,75	1204,21
669,94	1249,26
670,12	1216,49
670,31	1284,08
670,50	1259,50
670,68	1241,07
670,87	1302,51
671,06	1257,45
671,24	1253,36
671,43	1214,45
671,62	1263,60
671,80	1241,07
671,99	1292,27
672,18	1267,69
672,36	1300,46
672,55	1290,22
672,74	1247,21
672,92	1230,83
673,11	1296,36
673,29	1212,40
673,48	1306,60
673,67	1277,93
673,85	1245,16
674,04	1222,64
674,23	1206,25
674,41	1329,13
674,60	1247,21
674,79	1322,99
674,97	1267,69
675,16	1255,40
675,34	1263,60
675,53	1222,64
675,72	1296,36
675,90	1261,55
676,09	1273,84
676,28	1370,09
676,46	1247,21
676,65	1218,54
676,83	1214,45
677,02	1359,85
677,21	1271,79
677,39	1286,12
677,58	1347,56
677,77	1243,12
677,95	1249,26
678,14	1279,98
678,32	1230,83
678,51	1241,07
678,70	1337,32
678,88	1228,78
679,07	1308,65
679,25	1290,22
679,44	1198,06
679,63	1308,65
679,81	1263,60
680,00	1239,02
680,18	1337,32
680,37	1275,88
680,55	1314,80
680,74	1318,89
680,93	1249,26
681,11	1228,78
681,30	1232,88
681,48	1224,69
681,67	1243,12
681,85	1249,26
682,04	1241,07
682,23	1292,27
682,41	1257,45
682,60	1245,16
682,78	1277,93
682,97	1245,16
683,15	1265,64
683,34	1314,80
683,53	1251,31
683,71	1263,60
683,90	1290,22
684,08	1277,93
684,27	1353,71
684,45	1239,02
684,64	1327,08
684,82	1271,79
685,01	1314,80
685,19	1298,41
685,38	1234,93
685,57	1263,60
685,75	1374,19
685,94	1331,18
686,12	1255,40
686,31	1322,99
686,49	1232,88
686,68	1292,27
686,86	1269,74
687,05	1302,51
687,23	1255,40
687,42	1288,17
687,60	1292,27
687,79	1263,60
687,97	1310,70
688,16	1216,49
688,34	1253,36
688,53	1312,75
688,71	1290,22
688,90	1306,60
689,08	1265,64
689,27	1206,25
689,45	1337,32
689,64	1304,56
689,82	1259,50
690,01	1228,78
690,19	1288,17
690,38	1241,07
690,56	1337,32
690,75	1279,98
690,93	1232,88
691,12	1249,26
691,30	1234,93
691,49	1320,94
691,67	1335,28
691,86	1232,88
692,04	1261,55
692,23	1273,84
692,41	1273,84
692,60	1271,79
692,78	1300,46
692,97	1255,40
693,15	1316,84
693,34	1265,64
693,52	1273,84
693,71	1200,11
693,89	1314,80
694,08	1294,32
694,26	1273,84
694,44	1253,36
694,63	1333,23
694,81	1363,95
695,00	1300,46
695,18	1292,27
695,37	1306,60
695,55	1251,31
695,74	1245,16
695,92	1245,16
696,10	1206,25
696,29	1290,22
696,47	1269,74
696,66	1314,80
696,84	1273,84
697,03	1263,60
697,21	1273,84
697,40	1320,94
697,58	1304,56
697,76	1202,16
697,95	1288,17
698,13	1214,45
698,32	1228,78
698,50	1277,93
698,68	1312,75
698,87	1243,12
699,05	1259,50
699,24	1255,40
699,42	1253,36
699,61	1208,30
699,79	1279,98
699,97	1224,69
700,16	1308,65
700,34	1273,84
700,53	1306,60
700,71	1279,98
700,89	1255,40
701,08	1214,45
701,26	1267,69
701,45	1288,17
701,63	1214,45
701,81	1306,60
702,00	1210,35
702,18	1230,83
702,37	1261,55
702,55	1253,36
702,73	1306,60
702,92	1314,80
703,10	1261,55
703,28	1277,93
703,47	1208,30
703,65	1261,55
703,84	1322,99
704,02	1286,12
704,20	1322,99
704,39	1300,46
704,57	1224,69
704,75	1265,64
704,94	1284,08
705,12	1279,98
705,30	1304,56
705,49	1202,16
705,67	1273,84
705,86	1275,88
706,04	1331,18
706,22	1265,64
706,41	1333,23
706,59	1302,51
706,77	1239,02
706,96	1234,93
707,14	1306,60
707,32	1202,16
707,51	1269,74
707,69	1312,75
707,87	1191,92
708,06	1236,97
708,24	1232,88
708,42	1292,27
708,61	1236,97
708,79	1327,08
708,97	1331,18
709,16	1232,88
709,34	1241,07
709,52	1163,25
709,71	1282,03
709,89	1267,69
710,07	1220,59
710,26	1253,36
710,44	1239,02
710,62	1279,98
710,80	1247,21
710,99	1306,60
711,17	1261,55
711,35	1333,23
711,54	1263,60
711,72	1290,22
711,90	1286,12
712,09	1282,03
712,27	1249,26
712,45	1296,36
712,63	1228,78
712,82	1263,60
713,00	1318,89
713,18	1196,01
713,37	1292,27
713,55	1337,32
713,73	1239,02
713,91	1261,55
714,10	1259,50
714,28	1279,98
714,46	1226,73
714,65	1239,02
714,83	1306,60
715,01	1284,08
715,19	1247,21
715,38	1275,88
715,56	1267,69
715,74	1249,26
715,92	1202,16
716,11	1349,61
716,29	1200,11
716,47	1265,64
716,65	1298,41
716,84	1269,74
717,02	1361,90
717,20	1302,51
717,38	1224,69
717,57	1241,07
717,75	1292,27
717,93	1261,55
718,11	1267,69
718,30	1269,74
718,48	1361,90
718,66	1251,31
718,84	1239,02
719,03	1288,17
719,21	1302,51
719,39	1222,64
719,57	1210,35
719,75	1243,12
719,94	1286,12
720,12	1279,98
720,30	1167,34
720,48	1279,98
720,67	1208,30
720,85	1255,40
721,03	1265,64
721,21	1224,69
721,39	1241,07
721,58	1212,40
721,76	1273,84
721,94	1228,78
722,12	1245,16
722,30	1302,51
722,49	1247,21
722,67	1241,07
722,85	1249,26
723,03	1347,56
723,21	1171,44
723,40	1208,30
723,58	1216,49
723,76	1263,60
723,94	1345,52
724,12	1304,56
724,30	1322,99
724,49	1243,12
724,67	1253,36
724,85	1335,28
725,03	1273,84
725,21	1251,31
725,40	1296,36
725,58	1155,05
725,76	1257,45
725,94	1271,79
726,12	1247,21
726,30	1282,03
726,49	1288,17
726,67	1220,59
726,85	1347,56
727,03	1286,12
727,21	1265,64
727,39	1245,16
727,57	1255,40
727,76	1275,88
727,94	1286,12
728,12	1279,98
728,30	1325,04
728,48	1228,78
728,66	1267,69
728,84	1304,56
729,03	1257,45
729,21	1189,87
729,39	1267,69
729,57	1239,02
729,75	1208,30
729,93	1286,12
730,11	1275,88
730,30	1288,17
730,48	1218,54
730,66	1296,36
730,84	1249,26
731,02	1224,69
731,20	1228,78
731,38	1222,64
731,56	1294,32
731,74	1314,80
731,93	1267,69
732,11	1288,17
732,29	1204,21
732,47	1216,49
732,65	1226,73
732,83	1251,31
733,01	1339,37
733,19	1257,45
733,37	1210,35
733,56	1290,22
733,74	1232,88
733,92	1314,80
734,10	1257,45
734,28	1187,82
734,46	1304,56
734,64	1261,55
734,82	1257,45
735,00	1241,07
735,18	1286,12
735,36	1290,22
735,54	1226,73
735,73	1288,17
735,91	1259,50
736,09	1249,26
736,27	1282,03
736,45	1241,07
736,63	1249,26
736,81	1310,70
736,99	1251,31
737,17	1302,51
737,35	1263,60
737,53	1239,02
737,71	1296,36
737,89	1345,52
738,07	1279,98
738,25	1292,27
738,43	1263,60
738,61	1286,12
738,80	1243,12
738,98	1282,03
739,16	1259,50
739,34	1271,79
739,52	1300,46
739,70	1347,56
739,88	1318,89
740,06	1279,98
740,24	1306,60
740,42	1320,94
740,60	1241,07
740,78	1269,74
740,96	1198,06
741,14	1290,22
741,32	1335,28
741,50	1306,60
741,68	1308,65
741,86	1284,08
742,04	1292,27
742,22	1259,50
742,40	1212,40
742,58	1191,92
742,76	1232,88
742,94	1230,83
743,12	1255,40
743,30	1372,14
743,48	1279,98
743,66	1253,36
743,84	1253,36
744,02	1314,80
744,20	1292,27
744,38	1298,41
744,56	1251,31
744,74	1282,03
744,92	1304,56
745,10	1265,64
745,28	1300,46
745,46	1259,50
745,64	1282,03
745,82	1312,75
746,00	1263,60
746,18	1335,28
746,36	1273,84
746,54	1312,75
746,72	1290,22
746,90	1279,98
747,08	1277,93
747,26	1271,79
747,44	1216,49
747,62	1259,50
747,80	1269,74
747,98	1265,64
748,15	1279,98
748,33	1271,79
748,51	1253,36
748,69	1269,74
748,87	1273,84
749,05	1318,89
749,23	1202,16
749,41	1284,08
749,59	1288,17
749,77	1263,60
749,95	1265,64
750,13	1271,79
750,31	1249,26
750,49	1327,08
750,67	1196,01
750,85	1331,18
751,03	1327,08
751,20	1279,98
751,38	1175,53
751,56	1255,40
751,74	1269,74
751,92	1308,65
752,10	1267,69
752,28	1261,55
752,46	1204,21
752,64	1173,49
752,82	1261,55
753,00	1255,40
753,18	1267,69
753,35	1245,16
753,53	1265,64
753,71	1298,41
753,89	1284,08
754,07	1224,69
754,25	1279,98
754,43	1243,12
754,61	1310,70
754,79	1298,41
754,97	1304,56
755,14	1247,21
755,32	1251,31
755,50	1234,93
755,68	1241,07
755,86	1298,41
756,04	1284,08
756,22	1247,21
756,40	1308,65
756,57	1232,88
756,75	1279,98
756,93	1273,84
757,11	1296,36
757,29	1269,74
757,47	1310,70
757,65	1288,17
757,82	1216,49
758,00	1269,74
758,18	1236,97
758,36	1243,12
758,54	1257,45
758,72	1198,06
758,90	1261,55
759,07	1290,22
759,25	1251,31
759,43	1302,51
759,61	1253,36
759,79	1308,65
759,97	1247,21
760,15	1275,88
760,32	1312,75
760,50	1290,22
760,68	1265,64
760,86	1218,54
761,04	1232,88
761,22	1312,75
761,39	1349,61
761,57	1275,88
761,75	1191,92
761,93	1259,50
762,11	1296,36
762,28	1232,88
762,46	1204,21
762,64	1259,50
762,82	1273,84
763,00	1320,94
763,18	1288,17
763,35	1325,04
763,53	1232,88
763,71	1218,54
763,89	1232,88
764,07	1228,78
764,24	1331,18
764,42	1232,88
764,60	1282,03
764,78	1368,04
764,96	1265,64
765,13	1288,17
765,31	1279,98
765,49	1236,97
765,67	1271,79
765,84	1296,36
766,02	1312,75
766,20	1296,36
766,38	1269,74
766,56	1304,56
766,73	1251,31
766,91	1275,88
767,09	1257,45
767,27	1322,99
767,44	1255,40
767,62	1220,59
767,80	1247,21
767,98	1284,08
768,15	1279,98
768,33	1310,70
768,51	1263,60
768,69	1241,07
768,87	1249,26
769,04	1226,73
769,22	1230,83
769,40	1183,73
769,58	1279,98
769,75	1277,93
769,93	1263,60
770,11	1208,30
770,28	1343,47
770,46	1220,59
770,64	1329,13
770,82	1296,36
770,99	1253,36
771,17	1329,13
771,35	1329,13
771,53	1269,74
771,70	1290,22
771,88	1226,73
772,06	1263,60
772,23	1198,06
772,41	1343,47
772,59	1247,21
772,77	1245,16
772,94	1232,88
773,12	1230,83
773,30	1331,18
773,47	1294,32
773,65	1226,73
773,83	1210,35
774,01	1314,80
774,18	1253,36
774,36	1322,99
774,54	1247,21
774,71	1284,08
774,89	1267,69
775,07	1288,17
775,24	1245,16
775,42	1257,45
775,60	1347,56
775,78	1216,49
775,95	1255,40
776,13	1322,99
776,31	1198,06
776,48	1218,54
776,66	1226,73
776,84	1267,69
777,01	1300,46
777,19	1263,60
777,37	1343,47
777,54	1216,49
777,72	1265,64
777,90	1286,12
778,07	1325,04
778,25	1345,52
778,43	1288,17
778,60	1257,45
778,78	1306,60
778,96	1263,60
779,13	1245,16
779,31	1241,07
779,49	1261,55
779,66	1279,98
779,84	1282,03
780,01	1241,07
780,19	1277,93
780,37	1271,79
780,54	1243,12
780,72	1210,35
780,90	1329,13
781,07	1351,66
781,25	1239,02
781,43	1196,01
781,60	1236,97
781,78	1308,65
781,95	1263,60
782,13	1290,22
782,31	1159,15
782,48	1294,32
782,66	1275,88
782,83	1265,64
783,01	1347,56
783,19	1314,80
783,36	1282,03
783,54	1220,59
783,72	1296,36
783,89	1261,55
784,07	1243,12
784,24	1224,69
784,42	1316,84
784,60	1284,08
784,77	1288,17
784,95	1228,78
785,12	1232,88
785,30	1306,60
785,47	1241,07
785,65	1232,88
785,83	1349,61
786,00	1216,49
786,18	1290,22
786,35	1296,36
786,53	1253,36
786,71	1292,27
786,88	1204,21
787,06	1290,22
787,23	1206,25
787,41	1251,31
787,58	1226,73
787,76	1312,75
787,94	1165,29
788,11	1214,45
788,29	1296,36
788,46	1343,47
788,64	1257,45
788,81	1226,73
788,99	1298,41
789,16	1263,60
789,34	1304,56
789,52	1251,31
789,69	1351,66
789,87	1298,41
790,04	1241,07
790,22	1271,79
790,39	1286,12
790,57	1292,27
790,74	1228,78
790,92	1279,98
791,09	1200,11
791,27	1269,74
791,44	1329,13
791,62	1249,26
791,79	1298,41
791,97	1239,02
792,15	1300,46
792,32	1335,28
792,50	1341,42
792,67	1325,04
792,85	1232,88
793,02	1255,40
793,20	1234,93
793,37	1275,88
793,55	1320,94
793,72	1290,22
793,90	1277,93
794,07	1255,40
794,25	1292,27
794,42	1282,03
794,60	1259,50
794,77	1243,12
794,95	1183,73
795,12	1261,55
795,30	1230,83
795,47	1277,93
795,65	1277,93
795,82	1263,60
796,00	1271,79
796,17	1259,50
796,34	1234,93
796,52	1359,85
796,69	1273,84
796,87	1249,26
797,04	1224,69
797,22	1327,08
797,39	1308,65
797,57	1251,31
797,74	1236,97
797,92	1210,35
798,09	1304,56
798,27	1253,36
798,44	1265,64
798,62	1353,71
798,79	1298,41
798,96	1263,60
799,14	1259,50
799,31	1310,70
799,49	1265,64
799,66	1181,68
799,84	1339,37
800,01	1224,69
800,19	1196,01
800,36	1202,16
800,53	1329,13
800,71	1204,21
800,88	1318,89
801,06	1302,51
801,23	1236,97
801,41	1251,31
801,58	1230,83
801,75	1286,12
801,93	1353,71
802,10	1290,22
802,28	1193,97
802,45	1249,26
802,63	1292,27
802,80	1206,25
802,97	1249,26
803,15	1234,93
803,32	1318,89
803,50	1257,45
803,67	1308,65
803,84	1290,22
804,02	1320,94
804,19	1282,03
804,37	1220,59
804,54	1265,64
804,71	1298,41
804,89	1275,88
805,06	1282,03
805,24	1355,76
805,41	1259,50
805,58	1294,32
805,76	1273,84
805,93	1224,69
806,10	1314,80
806,28	1253,36
806,45	1232,88
806,63	1261,55
806,80	1357,80
806,97	1267,69
807,15	1277,93
807,32	1230,83
807,49	1216,49
807,67	1255,40
807,84	1253,36
808,01	1288,17
808,19	1304,56
808,36	1259,50
808,54	1220,59
808,71	1265,64
808,88	1273,84
809,06	1294,32
809,23	1265,64
809,40	1275,88
809,58	1288,17
809,75	1245,16
809,92	1243,12
810,10	1232,88
810,27	1222,64
810,44	1300,46
810,62	1226,73
810,79	1265,64
810,96	1191,92
811,14	1329,13
811,31	1273,84
811,48	1363,95
811,66	1269,74
811,83	1189,87
812,00	1220,59
812,18	1279,98
812,35	1296,36
812,52	1273,84
812,69	1249,26
812,87	1320,94
813,04	1253,36
813,21	1228,78
813,39	1232,88
813,56	1210,35
813,73	1275,88
813,91	1343,47
814,08	1198,06
814,25	1286,12
814,42	1275,88
814,60	1290,22
814,77	1222,64
814,94	1255,40
815,12	1304,56
815,29	1275,88
815,46	1351,66
815,63	1282,03
815,81	1255,40
815,98	1294,32
816,15	1282,03
816,33	1277,93
816,50	1335,28
816,67	1279,98
816,84	1288,17
817,02	1261,55
817,19	1335,28
817,36	1271,79
817,53	1214,45
817,71	1212,40
817,88	1271,79
818,05	1353,71
818,22	1284,08
818,40	1300,46
818,57	1261,55
818,74	1288,17
818,91	1325,04
819,09	1247,21
819,26	1302,51
819,43	1247,21
819,60	1279,98
819,78	1253,36
819,95	1277,93
820,12	1282,03
820,29	1353,71
820,47	1329,13
820,64	1335,28
820,81	1249,26
820,98	1243,12
821,15	1253,36
821,33	1214,45
821,50	1282,03
821,67	1347,56
821,84	1257,45
822,02	1290,22
822,19	1255,40
822,36	1298,41
822,53	1333,23
822,70	1212,40
822,88	1294,32
823,05	1300,46
823,22	1200,11
823,39	1220,59
823,56	1204,21
823,74	1320,94
823,91	1239,02
824,08	1243,12
824,25	1263,60
824,42	1284,08
824,60	1304,56
824,77	1271,79
824,94	1251,31
825,11	1320,94
825,28	1255,40
825,45	1279,98
825,63	1257,45
825,80	1253,36
825,97	1282,03
826,14	1265,64
826,31	1234,93
826,48	1294,32
826,66	1191,92
826,83	1331,18
827,00	1245,16
827,17	1275,88
827,34	1325,04
827,51	1304,56
827,69	1273,84
827,86	1253,36
828,03	1241,07
828,20	1273,84
828,37	1349,61
828,54	1288,17
828,71	1234,93
828,89	1277,93
829,06	1230,83
829,23	1247,21
829,40	1290,22
829,57	1279,98
829,74	1277,93
829,91	1193,97
830,09	1247,21
830,26	1279,98
830,43	1224,69
830,60	1277,93
830,77	1296,36
830,94	1271,79
831,11	1253,36
831,28	1279,98
831,46	1308,65
831,63	1255,40
831,80	1220,59
831,97	1390,57
832,14	1273,84
832,31	1265,64
832,48	1239,02
832,65	1220,59
832,82	1257,45
832,99	1271,79
833,17	1226,73
833,34	1255,40
833,51	1300,46
833,68	1220,59
833,85	1308,65
834,02	1222,64
834,19	1236,97
834,36	1226,73
834,53	1302,51
834,70	1251,31
834,87	1296,36
835,04	1331,18
835,22	1228,78
835,39	1222,64
835,56	1251,31
835,73	1302,51
835,90	1228,78
836,07	1249,26
836,24	1312,75
836,41	1308,65
836,58	1290,22
836,75	1271,79
836,92	1296,36
837,09	1224,69
837,26	1206,25
837,43	1269,74
837,60	1200,11
837,77	1337,32
837,94	1275,88
838,12	1310,70
838,29	1208,30
838,46	1300,46
838,63	1318,89
838,80	1310,70
838,97	1288,17
839,14	1218,54
839,31	1351,66
839,48	1306,60
839,65	1218,54
839,82	1288,17
839,99	1302,51
840,16	1218,54
840,33	1261,55
840,50	1210,35
840,67	1275,88
840,84	1263,60
841,01	1308,65
841,18	1251,31
841,35	1210,35
841,52	1208,30
841,69	1308,65
841,86	1304,56
842,03	1355,76
842,20	1282,03
842,37	1228,78
842,54	1263,60
842,71	1284,08
842,88	1265,64
843,05	1239,02
843,22	1298,41
843,39	1241,07
843,56	1290,22
843,73	1322,99
843,90	1259,50
844,07	1359,85
844,24	1269,74
844,41	1279,98
844,58	1308,65
844,75	1236,97
844,92	1263,60
845,09	1253,36
845,26	1304,56
845,43	1241,07
845,60	1357,80
845,77	1335,28
845,94	1212,40
846,10	1269,74
846,27	1206,25
846,44	1230,83
846,61	1261,55
846,78	1236,97
846,95	1318,89
847,12	1263,60
847,29	1224,69
847,46	1314,80
847,63	1247,21
847,80	1284,08
847,97	1255,40
848,14	1253,36
848,31	1224,69
848,48	1337,32
848,65	1275,88
848,82	1208,30
848,98	1249,26
849,15	1290,22
849,32	1257,45
849,49	1212,40
849,66	1210,35
849,83	1273,84
850,00	1255,40
850,17	1302,51
850,34	1271,79
850,51	1249,26
850,68	1300,46
850,85	1234,93
851,01	1263,60
851,18	1335,28
851,35	1189,87
851,52	1204,21
851,69	1253,36
851,86	1275,88
852,03	1261,55
852,20	1363,95
852,37	1306,60
852,53	1247,21
852,70	1261,55
852,87	1241,07
853,04	1310,70
853,21	1292,27
853,38	1208,30
853,55	1294,32
853,72	1294,32
853,89	1232,88
854,05	1279,98
854,22	1226,73
854,39	1271,79
854,56	1247,21
854,73	1243,12
854,90	1277,93
855,07	1265,64
855,23	1382,38
855,40	1312,75
855,57	1275,88
855,74	1271,79
855,91	1320,94
856,08	1259,50
856,25	1263,60
856,41	1339,37
856,58	1294,32
856,75	1290,22
856,92	1259,50
857,09	1298,41
857,26	1294,32
857,42	1253,36
857,59	1290,22
857,76	1259,50
857,93	1259,50
858,10	1232,88
858,27	1337,32
858,43	1282,03
858,60	1290,22
858,77	1255,40
858,94	1267,69
859,11	1216,49
859,27	1208,30
859,44	1234,93
859,61	1239,02
859,78	1249,26
859,95	1308,65
860,12	1257,45
860,28	1329,13
860,45	1261,55
860,62	1226,73
860,79	1249,26
860,95	1312,75
861,12	1298,41
861,29	1253,36
861,46	1282,03
861,63	1271,79
861,79	1200,11
861,96	1304,56
862,13	1226,73
862,30	1220,59
862,47	1261,55
862,63	1249,26
862,80	1273,84
862,97	1247,21
863,14	1253,36
863,30	1325,04
863,47	1259,50
863,64	1298,41
863,81	1331,18
863,97	1255,40
864,14	1308,65
864,31	1294,32
864,48	1220,59
864,65	1218,54
864,81	1273,84
864,98	1189,87
865,15	1216,49
865,32	1300,46
865,48	1257,45
865,65	1335,28
865,82	1290,22
865,98	1257,45
866,15	1284,08
866,32	1343,47
866,49	1236,97
866,65	1302,51
866,82	1241,07
866,99	1236,97
867,16	1355,76
867,32	1306,60
867,49	1290,22
867,66	1279,98
867,83	1322,99
867,99	1245,16
868,16	1259,50
868,33	1275,88
868,49	1253,36
868,66	1202,16
868,83	1251,31
868,99	1206,25
869,16	1247,21
869,33	1300,46
869,50	1206,25
869,66	1212,40
869,83	1232,88
870,00	1273,84
870,16	1314,80
870,33	1222,64
870,50	1261,55
870,66	1257,45
870,83	1273,84
871,00	1292,27
871,17	1251,31
871,33	1263,60
871,50	1200,11
871,67	1204,21
871,83	1239,02
872,00	1312,75
872,17	1265,64
872,33	1298,41
872,50	1302,51
872,67	1220,59
872,83	1232,88
873,00	1300,46
873,17	1292,27
873,33	1316,84
873,50	1302,51
873,67	1191,92
873,83	1318,89
874,00	1273,84
874,16	1298,41
874,33	1146,86
874,50	1206,25
874,66	1247,21
874,83	1230,83
875,00	1241,07
875,16	1234,93
875,33	1273,84
875,50	1234,93
875,66	1339,37
875,83	1304,56
875,99	1312,75
876,16	1228,78
876,33	1265,64
876,49	1282,03
876,66	1257,45
876,83	1232,88
876,99	1284,08
877,16	1279,98
877,32	1193,97
877,49	1296,36
877,66	1261,55
877,82	1220,59
877,99	1251,31
878,15	1214,45
878,32	1331,18
878,49	1245,16
878,65	1239,02
878,82	1261,55
878,98	1275,88
879,15	1282,03
879,32	1298,41
879,48	1226,73
879,65	1320,94
879,81	1337,32
879,98	1261,55
880,15	1198,06
880,31	1279,98
880,48	1318,89
880,64	1277,93
880,81	1273,84
880,97	1228,78
881,14	1253,36
881,31	1267,69
881,47	1316,84
881,64	1275,88
881,80	1292,27
881,97	1200,11
882,13	1314,80
882,30	1269,74
882,47	1294,32
882,63	1239,02
882,80	1202,16
882,96	1249,26
883,13	1193,97
883,29	1320,94
883,46	1245,16
883,62	1261,55
883,79	1296,36
883,95	1224,69
884,12	1222,64
884,29	1230,83
884,45	1267,69
884,62	1286,12
884,78	1230,83
884,95	1261,55
885,11	1247,21
885,28	1245,16
885,44	1302,51
885,61	1294,32
885,77	1318,89
885,94	1261,55
886,10	1198,06
886,27	1277,93
886,43	1232,88
886,60	1191,92
886,76	1284,08
886,93	1173,49
887,09	1269,74
887,26	1277,93
887,42	1312,75
887,59	1232,88
887,75	1239,02
887,92	1341,42
888,08	1239,02
888,25	1339,37
888,41	1259,50
888,58	1318,89
888,74	1247,21
888,91	1314,80
>>>>>End Processed Spectral Data<<<<<
