SpectraSuite Data File
++++++++++++++++++++++++++++++++++++
Date: Sun Apr 03 17:33:34 CEST 2016
User: root
Dark Spectrum Present: No
Reference Spectrum Present: No
Number of Sampled Component Spectra: 1
Spectrometers: USB4C02835
Integration Time (usec): 10000 (USB4C02835)
Spectra Averaged: 1 (USB4C02835)
Boxcar Smoothing: 0 (USB4C02835)
Correct for Electrical Dark: No (USB4C02835)
Strobe/Lamp Enabled: No (USB4C02835)
Correct for Detector Non-linearity: No (USB4C02835)
Correct for Stray Light: No (USB4C02835)
Number of Pixels in Processed Spectrum: 3648
>>>>>Begin Processed Spectral Data<<<<<
177,47	1251,31
177,69	1251,31
177,91	1251,31
178,13	1243,12
178,36	1265,64
178,58	1234,93
178,80	1247,21
179,02	1259,50
179,24	1265,64
179,46	1265,64
179,68	1322,99
179,90	1333,23
180,13	1288,17
180,35	1282,03
180,57	1226,73
180,79	1314,80
181,01	1282,03
181,23	1282,03
181,45	1259,50
181,67	1275,88
181,90	1290,22
182,12	1310,70
182,34	1239,02
182,56	1208,30
182,78	1239,02
183,00	1241,07
183,22	1314,80
183,44	1249,26
183,66	1290,22
183,89	1388,52
184,11	1265,64
184,33	1214,45
184,55	1251,31
184,77	1269,74
184,99	1296,36
185,21	1341,42
185,43	1243,12
185,65	1243,12
185,87	1320,94
186,10	1261,55
186,32	1327,08
186,54	1257,45
186,76	1292,27
186,98	1316,84
187,20	1271,79
187,42	1239,02
187,64	1253,36
187,86	1243,12
188,08	1296,36
188,30	1269,74
188,52	1261,55
188,75	1241,07
188,97	1247,21
189,19	1261,55
189,41	1243,12
189,63	1318,89
189,85	1368,04
190,07	1265,64
190,29	1265,64
190,51	1208,30
190,73	1204,21
190,95	1345,52
191,17	1265,64
191,39	1247,21
191,61	1234,93
191,84	1259,50
192,06	1325,04
192,28	1257,45
192,50	1265,64
192,72	1288,17
192,94	1251,31
193,16	1216,49
193,38	1247,21
193,60	1198,06
193,82	1269,74
194,04	1312,75
194,26	1232,88
194,48	1263,60
194,70	1282,03
194,92	1292,27
195,14	1253,36
195,36	1300,46
195,58	1269,74
195,80	1234,93
196,02	1222,64
196,24	1292,27
196,46	1204,21
196,69	1247,21
196,91	1320,94
197,13	1255,40
197,35	1253,36
197,57	1263,60
197,79	1304,56
198,01	1286,12
198,23	1294,32
198,45	1265,64
198,67	1265,64
198,89	1243,12
199,11	1177,58
199,33	1243,12
199,55	1279,98
199,77	1265,64
199,99	1325,04
200,21	1212,40
200,43	1298,41
200,65	1265,64
200,87	1304,56
201,09	1302,51
201,31	1257,45
201,53	1265,64
201,75	1331,18
201,97	1263,60
202,19	1286,12
202,41	1118,19
202,63	1282,03
202,85	1261,55
203,07	1263,60
203,29	1312,75
203,51	1230,83
203,73	1271,79
203,95	1286,12
204,17	1236,97
204,39	1331,18
204,61	1241,07
204,83	1384,43
205,05	1249,26
205,27	1269,74
205,49	1275,88
205,71	1288,17
205,93	1200,11
206,15	1304,56
206,37	1298,41
206,59	1239,02
206,81	1288,17
207,03	1267,69
207,25	1247,21
207,47	1234,93
207,69	1329,13
207,91	1310,70
208,13	1279,98
208,34	1263,60
208,56	1269,74
208,78	1267,69
209,00	1185,77
209,22	1210,35
209,44	1271,79
209,66	1279,98
209,88	1273,84
210,10	1273,84
210,32	1269,74
210,54	1247,21
210,76	1232,88
210,98	1247,21
211,20	1251,31
211,42	1347,56
211,64	1275,88
211,86	1247,21
212,08	1243,12
212,30	1329,13
212,52	1296,36
212,74	1279,98
212,96	1286,12
213,17	1263,60
213,39	1343,47
213,61	1265,64
213,83	1245,16
214,05	1298,41
214,27	1245,16
214,49	1316,84
214,71	1200,11
214,93	1284,08
215,15	1224,69
215,37	1253,36
215,59	1255,40
215,81	1320,94
216,03	1247,21
216,24	1224,69
216,46	1263,60
216,68	1302,51
216,90	1306,60
217,12	1265,64
217,34	1279,98
217,56	1288,17
217,78	1214,45
218,00	1312,75
218,22	1316,84
218,44	1271,79
218,66	1161,20
218,87	1210,35
219,09	1304,56
219,31	1267,69
219,53	1236,97
219,75	1271,79
219,97	1263,60
220,19	1239,02
220,41	1206,25
220,63	1265,64
220,85	1370,09
221,06	1239,02
221,28	1267,69
221,50	1218,54
221,72	1282,03
221,94	1290,22
222,16	1259,50
222,38	1298,41
222,60	1271,79
222,82	1239,02
223,03	1234,93
223,25	1261,55
223,47	1177,58
223,69	1290,22
223,91	1286,12
224,13	1239,02
224,35	1267,69
224,57	1271,79
224,78	1265,64
225,00	1327,08
225,22	1234,93
225,44	1290,22
225,66	1230,83
225,88	1292,27
226,10	1286,12
226,32	1320,94
226,53	1306,60
226,75	1335,28
226,97	1316,84
227,19	1236,97
227,41	1234,93
227,63	1296,36
227,85	1230,83
228,06	1361,90
228,28	1271,79
228,50	1232,88
228,72	1236,97
228,94	1265,64
229,16	1275,88
229,37	1255,40
229,59	1286,12
229,81	1366,00
230,03	1247,21
230,25	1376,24
230,47	1243,12
230,69	1171,44
230,90	1196,01
231,12	1232,88
231,34	1265,64
231,56	1316,84
231,78	1331,18
232,00	1273,84
232,21	1243,12
232,43	1220,59
232,65	1308,65
232,87	1239,02
233,09	1282,03
233,30	1247,21
233,52	1269,74
233,74	1304,56
233,96	1255,40
234,18	1236,97
234,40	1253,36
234,61	1302,51
234,83	1275,88
235,05	1279,98
235,27	1228,78
235,49	1318,89
235,70	1150,96
235,92	1327,08
236,14	1259,50
236,36	1216,49
236,58	1226,73
236,79	1277,93
237,01	1277,93
237,23	1271,79
237,45	1345,52
237,67	1275,88
237,88	1230,83
238,10	1296,36
238,32	1265,64
238,54	1255,40
238,76	1251,31
238,97	1290,22
239,19	1220,59
239,41	1277,93
239,63	1296,36
239,85	1290,22
240,06	1322,99
240,28	1216,49
240,50	1318,89
240,72	1236,97
240,93	1177,58
241,15	1273,84
241,37	1275,88
241,59	1241,07
241,81	1257,45
242,02	1308,65
242,24	1243,12
242,46	1224,69
242,68	1282,03
242,89	1298,41
243,11	1284,08
243,33	1204,21
243,55	1245,16
243,76	1286,12
243,98	1230,83
244,20	1275,88
244,42	1277,93
244,64	1263,60
244,85	1290,22
245,07	1255,40
245,29	1296,36
245,51	1286,12
245,72	1239,02
245,94	1273,84
246,16	1269,74
246,38	1318,89
246,59	1312,75
246,81	1206,25
247,03	1279,98
247,24	1279,98
247,46	1282,03
247,68	1320,94
247,90	1216,49
248,11	1189,87
248,33	1241,07
248,55	1294,32
248,77	1286,12
248,98	1294,32
249,20	1220,59
249,42	1296,36
249,64	1298,41
249,85	1288,17
250,07	1198,06
250,29	1312,75
250,50	1298,41
250,72	1265,64
250,94	1302,51
251,16	1300,46
251,37	1251,31
251,59	1320,94
251,81	1228,78
252,02	1267,69
252,24	1273,84
252,46	1298,41
252,68	1277,93
252,89	1296,36
253,11	1241,07
253,33	1327,08
253,54	1341,42
253,76	1249,26
253,98	1255,40
254,20	1204,21
254,41	1282,03
254,63	1232,88
254,85	1241,07
255,06	1185,77
255,28	1198,06
255,50	1282,03
255,71	1286,12
255,93	1273,84
256,15	1288,17
256,36	1241,07
256,58	1255,40
256,80	1294,32
257,02	1345,52
257,23	1331,18
257,45	1245,16
257,67	1243,12
257,88	1208,30
258,10	1292,27
258,32	1222,64
258,53	1228,78
258,75	1249,26
258,97	1284,08
259,18	1251,31
259,40	1263,60
259,62	1351,66
259,83	1226,73
260,05	1251,31
260,27	1290,22
260,48	1355,76
260,70	1255,40
260,92	1331,18
261,13	1222,64
261,35	1298,41
261,57	1239,02
261,78	1269,74
262,00	1243,12
262,22	1298,41
262,43	1325,04
262,65	1236,97
262,86	1294,32
263,08	1294,32
263,30	1308,65
263,51	1306,60
263,73	1241,07
263,95	1286,12
264,16	1290,22
264,38	1320,94
264,60	1327,08
264,81	1282,03
265,03	1304,56
265,25	1200,11
265,46	1298,41
265,68	1277,93
265,89	1234,93
266,11	1228,78
266,33	1308,65
266,54	1290,22
266,76	1267,69
266,98	1282,03
267,19	1198,06
267,41	1271,79
267,62	1284,08
267,84	1247,21
268,06	1327,08
268,27	1255,40
268,49	1325,04
268,70	1302,51
268,92	1251,31
269,14	1275,88
269,35	1370,09
269,57	1228,78
269,79	1245,16
270,00	1259,50
270,22	1329,13
270,43	1177,58
270,65	1294,32
270,87	1247,21
271,08	1310,70
271,30	1316,84
271,51	1279,98
271,73	1322,99
271,95	1245,16
272,16	1275,88
272,38	1284,08
272,59	1257,45
272,81	1222,64
273,02	1275,88
273,24	1302,51
273,46	1286,12
273,67	1298,41
273,89	1257,45
274,10	1282,03
274,32	1255,40
274,54	1290,22
274,75	1275,88
274,97	1318,89
275,18	1253,36
275,40	1204,21
275,61	1222,64
275,83	1228,78
276,05	1232,88
276,26	1263,60
276,48	1288,17
276,69	1294,32
276,91	1255,40
277,12	1298,41
277,34	1253,36
277,55	1273,84
277,77	1257,45
277,99	1282,03
278,20	1273,84
278,42	1302,51
278,63	1277,93
278,85	1284,08
279,06	1245,16
279,28	1265,64
279,49	1279,98
279,71	1204,21
279,93	1245,16
280,14	1204,21
280,36	1267,69
280,57	1239,02
280,79	1343,47
281,00	1232,88
281,22	1236,97
281,43	1339,37
281,65	1183,73
281,86	1312,75
282,08	1234,93
282,29	1337,32
282,51	1255,40
282,73	1306,60
282,94	1275,88
283,16	1312,75
283,37	1263,60
283,59	1247,21
283,80	1261,55
284,02	1214,45
284,23	1320,94
284,45	1193,97
284,66	1228,78
284,88	1257,45
285,09	1277,93
285,31	1312,75
285,52	1251,31
285,74	1265,64
285,95	1267,69
286,17	1343,47
286,38	1269,74
286,60	1251,31
286,81	1290,22
287,03	1286,12
287,24	1247,21
287,46	1288,17
287,67	1282,03
287,89	1284,08
288,10	1306,60
288,32	1230,83
288,53	1331,18
288,75	1253,36
288,96	1286,12
289,18	1279,98
289,39	1241,07
289,61	1290,22
289,82	1294,32
290,04	1255,40
290,25	1294,32
290,47	1279,98
290,68	1298,41
290,90	1308,65
291,11	1337,32
291,33	1257,45
291,54	1222,64
291,76	1288,17
291,97	1232,88
292,18	1286,12
292,40	1232,88
292,61	1263,60
292,83	1245,16
293,04	1357,80
293,26	1196,01
293,47	1245,16
293,69	1318,89
293,90	1253,36
294,12	1271,79
294,33	1284,08
294,55	1236,97
294,76	1277,93
294,97	1286,12
295,19	1339,37
295,40	1261,55
295,62	1292,27
295,83	1245,16
296,05	1243,12
296,26	1216,49
296,48	1241,07
296,69	1306,60
296,90	1265,64
297,12	1312,75
297,33	1267,69
297,55	1255,40
297,76	1243,12
297,98	1230,83
298,19	1292,27
298,41	1296,36
298,62	1241,07
298,83	1249,26
299,05	1218,54
299,26	1273,84
299,48	1279,98
299,69	1265,64
299,90	1214,45
300,12	1241,07
300,33	1230,83
300,55	1253,36
300,76	1290,22
300,98	1310,70
301,19	1267,69
301,40	1236,97
301,62	1314,80
301,83	1308,65
302,05	1236,97
302,26	1261,55
302,47	1241,07
302,69	1249,26
302,90	1296,36
303,12	1239,02
303,33	1320,94
303,54	1173,49
303,76	1271,79
303,97	1306,60
304,19	1214,45
304,40	1208,30
304,61	1298,41
304,83	1275,88
305,04	1253,36
305,26	1253,36
305,47	1208,30
305,68	1286,12
305,90	1214,45
306,11	1245,16
306,33	1232,88
306,54	1284,08
306,75	1245,16
306,97	1265,64
307,18	1304,56
307,39	1292,27
307,61	1230,83
307,82	1279,98
308,04	1214,45
308,25	1167,34
308,46	1232,88
308,68	1290,22
308,89	1222,64
309,10	1251,31
309,32	1318,89
309,53	1187,82
309,74	1263,60
309,96	1267,69
310,17	1331,18
310,39	1282,03
310,60	1245,16
310,81	1255,40
311,03	1296,36
311,24	1214,45
311,45	1259,50
311,67	1243,12
311,88	1273,84
312,09	1247,21
312,31	1224,69
312,52	1249,26
312,73	1300,46
312,95	1341,42
313,16	1290,22
313,37	1300,46
313,59	1351,66
313,80	1259,50
314,01	1269,74
314,23	1269,74
314,44	1241,07
314,65	1220,59
314,87	1206,25
315,08	1302,51
315,29	1320,94
315,51	1296,36
315,72	1325,04
315,93	1259,50
316,15	1255,40
316,36	1296,36
316,57	1308,65
316,79	1214,45
317,00	1298,41
317,21	1232,88
317,43	1267,69
317,64	1290,22
317,85	1269,74
318,07	1263,60
318,28	1253,36
318,49	1279,98
318,70	1204,21
318,92	1271,79
319,13	1263,60
319,34	1312,75
319,56	1282,03
319,77	1249,26
319,98	1259,50
320,20	1255,40
320,41	1290,22
320,62	1296,36
320,83	1228,78
321,05	1271,79
321,26	1261,55
321,47	1234,93
321,69	1298,41
321,90	1247,21
322,11	1241,07
322,32	1267,69
322,54	1300,46
322,75	1208,30
322,96	1202,16
323,18	1255,40
323,39	1310,70
323,60	1267,69
323,81	1296,36
324,03	1318,89
324,24	1282,03
324,45	1347,56
324,66	1300,46
324,88	1224,69
325,09	1320,94
325,30	1308,65
325,52	1320,94
325,73	1351,66
325,94	1292,27
326,15	1247,21
326,37	1279,98
326,58	1322,99
326,79	1251,31
327,00	1325,04
327,22	1275,88
327,43	1263,60
327,64	1282,03
327,85	1267,69
328,07	1198,06
328,28	1259,50
328,49	1318,89
328,70	1267,69
328,92	1265,64
329,13	1267,69
329,34	1267,69
329,55	1286,12
329,76	1255,40
329,98	1288,17
330,19	1294,32
330,40	1200,11
330,61	1251,31
330,83	1232,88
331,04	1327,08
331,25	1255,40
331,46	1208,30
331,68	1255,40
331,89	1300,46
332,10	1292,27
332,31	1288,17
332,52	1230,83
332,74	1271,79
332,95	1247,21
333,16	1300,46
333,37	1296,36
333,58	1249,26
333,80	1239,02
334,01	1331,18
334,22	1241,07
334,43	1216,49
334,64	1204,21
334,86	1257,45
335,07	1253,36
335,28	1267,69
335,49	1296,36
335,70	1253,36
335,92	1232,88
336,13	1277,93
336,34	1331,18
336,55	1239,02
336,76	1284,08
336,98	1286,12
337,19	1275,88
337,40	1253,36
337,61	1269,74
337,82	1253,36
338,04	1271,79
338,25	1249,26
338,46	1267,69
338,67	1284,08
338,88	1187,82
339,09	1216,49
339,31	1253,36
339,52	1327,08
339,73	1275,88
339,94	1208,30
340,15	1269,74
340,36	1290,22
340,58	1288,17
340,79	1212,40
341,00	1327,08
341,21	1308,65
341,42	1241,07
341,63	1249,26
341,85	1247,21
342,06	1257,45
342,27	1296,36
342,48	1257,45
342,69	1255,40
342,90	1273,84
343,12	1329,13
343,33	1257,45
343,54	1329,13
343,75	1259,50
343,96	1277,93
344,17	1306,60
344,38	1255,40
344,60	1308,65
344,81	1363,95
345,02	1267,69
345,23	1220,59
345,44	1200,11
345,65	1292,27
345,86	1224,69
346,07	1275,88
346,29	1267,69
346,50	1228,78
346,71	1247,21
346,92	1318,89
347,13	1259,50
347,34	1333,23
347,55	1361,90
347,76	1275,88
347,98	1300,46
348,19	1249,26
348,40	1220,59
348,61	1220,59
348,82	1226,73
349,03	1298,41
349,24	1288,17
349,45	1261,55
349,66	1220,59
349,88	1230,83
350,09	1347,56
350,30	1288,17
350,51	1314,80
350,72	1261,55
350,93	1263,60
351,14	1261,55
351,35	1269,74
351,56	1230,83
351,77	1306,60
351,99	1275,88
352,20	1265,64
352,41	1226,73
352,62	1304,56
352,83	1249,26
353,04	1259,50
353,25	1286,12
353,46	1314,80
353,67	1263,60
353,88	1316,84
354,09	1288,17
354,30	1292,27
354,52	1222,64
354,73	1292,27
354,94	1177,58
355,15	1339,37
355,36	1241,07
355,57	1200,11
355,78	1353,71
355,99	1290,22
356,20	1290,22
356,41	1261,55
356,62	1224,69
356,83	1298,41
357,04	1243,12
357,25	1230,83
357,46	1236,97
357,68	1247,21
357,89	1304,56
358,10	1230,83
358,31	1249,26
358,52	1273,84
358,73	1230,83
358,94	1263,60
359,15	1302,51
359,36	1265,64
359,57	1204,21
359,78	1269,74
359,99	1298,41
360,20	1279,98
360,41	1290,22
360,62	1275,88
360,83	1257,45
361,04	1331,18
361,25	1290,22
361,46	1288,17
361,67	1294,32
361,88	1296,36
362,09	1370,09
362,30	1253,36
362,51	1345,52
362,72	1257,45
362,93	1335,28
363,14	1265,64
363,35	1263,60
363,56	1236,97
363,78	1329,13
363,99	1253,36
364,20	1337,32
364,41	1243,12
364,62	1183,73
364,83	1277,93
365,04	1261,55
365,25	1310,70
365,46	1292,27
365,67	1292,27
365,88	1214,45
366,09	1232,88
366,30	1234,93
366,51	1314,80
366,72	1173,49
366,93	1261,55
367,14	1200,11
367,35	1232,88
367,56	1271,79
367,77	1255,40
367,98	1220,59
368,18	1282,03
368,39	1222,64
368,60	1200,11
368,81	1257,45
369,02	1286,12
369,23	1269,74
369,44	1230,83
369,65	1269,74
369,86	1331,18
370,07	1279,98
370,28	1277,93
370,49	1220,59
370,70	1366,00
370,91	1273,84
371,12	1265,64
371,33	1372,14
371,54	1236,97
371,75	1322,99
371,96	1302,51
372,17	1273,84
372,38	1265,64
372,59	1271,79
372,80	1267,69
373,01	1236,97
373,22	1222,64
373,43	1222,64
373,64	1273,84
373,85	1239,02
374,06	1210,35
374,26	1241,07
374,47	1284,08
374,68	1208,30
374,89	1306,60
375,10	1347,56
375,31	1247,21
375,52	1271,79
375,73	1253,36
375,94	1249,26
376,15	1271,79
376,36	1222,64
376,57	1310,70
376,78	1314,80
376,99	1243,12
377,20	1275,88
377,40	1263,60
377,61	1265,64
377,82	1253,36
378,03	1286,12
378,24	1296,36
378,45	1220,59
378,66	1212,40
378,87	1310,70
379,08	1329,13
379,29	1325,04
379,50	1306,60
379,71	1263,60
379,91	1265,64
380,12	1284,08
380,33	1284,08
380,54	1286,12
380,75	1255,40
380,96	1267,69
381,17	1177,58
381,38	1218,54
381,59	1275,88
381,80	1292,27
382,00	1245,16
382,21	1316,84
382,42	1269,74
382,63	1251,31
382,84	1220,59
383,05	1216,49
383,26	1263,60
383,47	1249,26
383,68	1220,59
383,88	1271,79
384,09	1296,36
384,30	1275,88
384,51	1296,36
384,72	1224,69
384,93	1255,40
385,14	1208,30
385,35	1236,97
385,55	1255,40
385,76	1243,12
385,97	1304,56
386,18	1273,84
386,39	1275,88
386,60	1269,74
386,81	1277,93
387,02	1275,88
387,22	1251,31
387,43	1347,56
387,64	1263,60
387,85	1318,89
388,06	1275,88
388,27	1251,31
388,48	1320,94
388,68	1304,56
388,89	1271,79
389,10	1230,83
389,31	1308,65
389,52	1255,40
389,73	1294,32
389,93	1263,60
390,14	1265,64
390,35	1312,75
390,56	1271,79
390,77	1245,16
390,98	1247,21
391,18	1265,64
391,39	1288,17
391,60	1228,78
391,81	1304,56
392,02	1306,60
392,23	1259,50
392,43	1245,16
392,64	1224,69
392,85	1329,13
393,06	1312,75
393,27	1296,36
393,47	1284,08
393,68	1308,65
393,89	1267,69
394,10	1257,45
394,31	1212,40
394,52	1329,13
394,72	1236,97
394,93	1257,45
395,14	1247,21
395,35	1294,32
395,56	1327,08
395,76	1312,75
395,97	1210,35
396,18	1232,88
396,39	1239,02
396,60	1249,26
396,80	1331,18
397,01	1282,03
397,22	1239,02
397,43	1279,98
397,64	1284,08
397,84	1286,12
398,05	1312,75
398,26	1298,41
398,47	1228,78
398,67	1329,13
398,88	1255,40
399,09	1322,99
399,30	1241,07
399,51	1255,40
399,71	1279,98
399,92	1224,69
400,13	1312,75
400,34	1179,63
400,54	1349,61
400,75	1273,84
400,96	1335,28
401,17	1310,70
401,37	1224,69
401,58	1290,22
401,79	1206,25
402,00	1284,08
402,21	1304,56
402,41	1265,64
402,62	1259,50
402,83	1210,35
403,04	1253,36
403,24	1243,12
403,45	1329,13
403,66	1312,75
403,87	1204,21
404,07	1290,22
404,28	1306,60
404,49	1255,40
404,70	1368,04
404,90	1318,89
405,11	1265,64
405,32	1322,99
405,52	1261,55
405,73	1198,06
405,94	1269,74
406,15	1249,26
406,35	1263,60
406,56	1300,46
406,77	1241,07
406,98	1308,65
407,18	1329,13
407,39	1277,93
407,60	1374,19
407,80	1366,00
408,01	1224,69
408,22	1273,84
408,43	1271,79
408,63	1245,16
408,84	1253,36
409,05	1306,60
409,25	1286,12
409,46	1263,60
409,67	1296,36
409,88	1273,84
410,08	1234,93
410,29	1302,51
410,50	1286,12
410,70	1351,66
410,91	1232,88
411,12	1228,78
411,32	1265,64
411,53	1275,88
411,74	1247,21
411,95	1271,79
412,15	1273,84
412,36	1284,08
412,57	1277,93
412,77	1243,12
412,98	1253,36
413,19	1200,11
413,39	1245,16
413,60	1251,31
413,81	1220,59
414,01	1302,51
414,22	1273,84
414,43	1288,17
414,63	1263,60
414,84	1277,93
415,05	1206,25
415,25	1269,74
415,46	1257,45
415,67	1314,80
415,87	1310,70
416,08	1292,27
416,29	1243,12
416,49	1271,79
416,70	1316,84
416,91	1308,65
417,11	1306,60
417,32	1232,88
417,53	1304,56
417,73	1230,83
417,94	1275,88
418,15	1327,08
418,35	1208,30
418,56	1271,79
418,77	1200,11
418,97	1275,88
419,18	1259,50
419,38	1298,41
419,59	1204,21
419,80	1279,98
420,00	1277,93
420,21	1196,01
420,42	1241,07
420,62	1378,28
420,83	1329,13
421,04	1263,60
421,24	1271,79
421,45	1277,93
421,65	1257,45
421,86	1208,30
422,07	1292,27
422,27	1327,08
422,48	1273,84
422,69	1234,93
422,89	1245,16
423,10	1230,83
423,30	1267,69
423,51	1284,08
423,72	1298,41
423,92	1329,13
424,13	1241,07
424,33	1279,98
424,54	1243,12
424,75	1241,07
424,95	1284,08
425,16	1257,45
425,36	1218,54
425,57	1261,55
425,78	1288,17
425,98	1292,27
426,19	1255,40
426,39	1263,60
426,60	1236,97
426,81	1234,93
427,01	1275,88
427,22	1306,60
427,42	1228,78
427,63	1298,41
427,83	1306,60
428,04	1183,73
428,25	1269,74
428,45	1273,84
428,66	1327,08
428,86	1257,45
429,07	1288,17
429,28	1206,25
429,48	1318,89
429,69	1284,08
429,89	1288,17
430,10	1208,30
430,30	1226,73
430,51	1329,13
430,71	1343,47
430,92	1230,83
431,13	1232,88
431,33	1353,71
431,54	1275,88
431,74	1243,12
431,95	1271,79
432,15	1232,88
432,36	1236,97
432,56	1234,93
432,77	1249,26
432,98	1271,79
433,18	1243,12
433,39	1255,40
433,59	1224,69
433,80	1263,60
434,00	1275,88
434,21	1228,78
434,41	1300,46
434,62	1263,60
434,82	1218,54
435,03	1320,94
435,23	1273,84
435,44	1341,42
435,64	1222,64
435,85	1306,60
436,06	1267,69
436,26	1204,21
436,47	1265,64
436,67	1265,64
436,88	1263,60
437,08	1234,93
437,29	1200,11
437,49	1288,17
437,70	1232,88
437,90	1282,03
438,11	1302,51
438,31	1290,22
438,52	1236,97
438,72	1269,74
438,93	1284,08
439,13	1271,79
439,34	1230,83
439,54	1189,87
439,75	1263,60
439,95	1222,64
440,16	1257,45
440,36	1259,50
440,57	1150,96
440,77	1300,46
440,98	1298,41
441,18	1263,60
441,39	1288,17
441,59	1296,36
441,80	1294,32
442,00	1279,98
442,21	1292,27
442,41	1294,32
442,62	1322,99
442,82	1175,53
443,02	1224,69
443,23	1236,97
443,43	1208,30
443,64	1294,32
443,84	1263,60
444,05	1306,60
444,25	1249,26
444,46	1279,98
444,66	1292,27
444,87	1187,82
445,07	1257,45
445,28	1247,21
445,48	1306,60
445,69	1265,64
445,89	1239,02
446,09	1277,93
446,30	1292,27
446,50	1271,79
446,71	1216,49
446,91	1318,89
447,12	1249,26
447,32	1380,33
447,53	1251,31
447,73	1206,25
447,93	1318,89
448,14	1257,45
448,34	1255,40
448,55	1249,26
448,75	1284,08
448,96	1314,80
449,16	1327,08
449,36	1220,59
449,57	1257,45
449,77	1343,47
449,98	1302,51
450,18	1241,07
450,39	1343,47
450,59	1312,75
450,79	1220,59
451,00	1320,94
451,20	1310,70
451,41	1175,53
451,61	1273,84
451,81	1236,97
452,02	1322,99
452,22	1198,06
452,43	1318,89
452,63	1298,41
452,84	1298,41
453,04	1263,60
453,24	1320,94
453,45	1163,25
453,65	1292,27
453,86	1265,64
454,06	1263,60
454,26	1325,04
454,47	1284,08
454,67	1333,23
454,87	1255,40
455,08	1275,88
455,28	1267,69
455,49	1267,69
455,69	1179,63
455,89	1294,32
456,10	1189,87
456,30	1284,08
456,51	1286,12
456,71	1273,84
456,91	1261,55
457,12	1286,12
457,32	1288,17
457,52	1286,12
457,73	1245,16
457,93	1298,41
458,14	1306,60
458,34	1214,45
458,54	1279,98
458,75	1249,26
458,95	1314,80
459,15	1267,69
459,36	1251,31
459,56	1300,46
459,76	1261,55
459,97	1286,12
460,17	1261,55
460,37	1337,32
460,58	1286,12
460,78	1232,88
460,99	1294,32
461,19	1241,07
461,39	1294,32
461,60	1286,12
461,80	1247,21
462,00	1306,60
462,21	1234,93
462,41	1259,50
462,61	1277,93
462,82	1292,27
463,02	1216,49
463,22	1249,26
463,43	1331,18
463,63	1306,60
463,83	1232,88
464,04	1329,13
464,24	1267,69
464,44	1222,64
464,64	1200,11
464,85	1290,22
465,05	1255,40
465,25	1296,36
465,46	1241,07
465,66	1284,08
465,86	1212,40
466,07	1306,60
466,27	1292,27
466,47	1241,07
466,68	1294,32
466,88	1251,31
467,08	1257,45
467,29	1247,21
467,49	1236,97
467,69	1259,50
467,89	1294,32
468,10	1277,93
468,30	1263,60
468,50	1294,32
468,71	1257,45
468,91	1304,56
469,11	1239,02
469,31	1325,04
469,52	1236,97
469,72	1286,12
469,92	1267,69
470,13	1279,98
470,33	1249,26
470,53	1279,98
470,73	1282,03
470,94	1255,40
471,14	1282,03
471,34	1261,55
471,54	1296,36
471,75	1241,07
471,95	1275,88
472,15	1290,22
472,36	1267,69
472,56	1341,42
472,76	1259,50
472,96	1288,17
473,17	1247,21
473,37	1253,36
473,57	1288,17
473,77	1247,21
473,98	1347,56
474,18	1257,45
474,38	1277,93
474,58	1255,40
474,79	1329,13
474,99	1318,89
475,19	1275,88
475,39	1230,83
475,60	1261,55
475,80	1255,40
476,00	1245,16
476,20	1228,78
476,41	1304,56
476,61	1220,59
476,81	1230,83
477,01	1198,06
477,21	1232,88
477,42	1259,50
477,62	1247,21
477,82	1290,22
478,02	1300,46
478,23	1259,50
478,43	1292,27
478,63	1296,36
478,83	1261,55
479,03	1204,21
479,24	1292,27
479,44	1247,21
479,64	1273,84
479,84	1259,50
480,04	1216,49
480,25	1304,56
480,45	1257,45
480,65	1286,12
480,85	1220,59
481,06	1286,12
481,26	1290,22
481,46	1286,12
481,66	1277,93
481,86	1241,07
482,06	1302,51
482,27	1298,41
482,47	1243,12
482,67	1265,64
482,87	1265,64
483,07	1290,22
483,28	1312,75
483,48	1273,84
483,68	1298,41
483,88	1220,59
484,08	1265,64
484,29	1292,27
484,49	1269,74
484,69	1267,69
484,89	1187,82
485,09	1310,70
485,29	1333,23
485,50	1265,64
485,70	1253,36
485,90	1204,21
486,10	1234,93
486,30	1363,95
486,50	1308,65
486,71	1265,64
486,91	1282,03
487,11	1347,56
487,31	1265,64
487,51	1288,17
487,71	1265,64
487,91	1275,88
488,12	1267,69
488,32	1265,64
488,52	1282,03
488,72	1226,73
488,92	1288,17
489,12	1279,98
489,32	1191,92
489,53	1357,80
489,73	1308,65
489,93	1292,27
490,13	1208,30
490,33	1308,65
490,53	1228,78
490,73	1265,64
490,94	1232,88
491,14	1314,80
491,34	1241,07
491,54	1200,11
491,74	1220,59
491,94	1269,74
492,14	1288,17
492,34	1282,03
492,54	1284,08
492,75	1245,16
492,95	1175,53
493,15	1204,21
493,35	1327,08
493,55	1337,32
493,75	1286,12
493,95	1275,88
494,15	1259,50
494,35	1304,56
494,56	1249,26
494,76	1228,78
494,96	1284,08
495,16	1292,27
495,36	1232,88
495,56	1337,32
495,76	1302,51
495,96	1308,65
496,16	1304,56
496,36	1318,89
496,56	1294,32
496,77	1290,22
496,97	1245,16
497,17	1284,08
497,37	1263,60
497,57	1257,45
497,77	1275,88
497,97	1296,36
498,17	1273,84
498,37	1271,79
498,57	1400,81
498,77	1275,88
498,97	1265,64
499,17	1282,03
499,38	1245,16
499,58	1339,37
499,78	1265,64
499,98	1271,79
500,18	1273,84
500,38	1304,56
500,58	1265,64
500,78	1234,93
500,98	1275,88
501,18	1265,64
501,38	1196,01
501,58	1263,60
501,78	1171,44
501,98	1175,53
502,18	1232,88
502,38	1232,88
502,58	1300,46
502,78	1320,94
502,98	1249,26
503,18	1255,40
503,38	1284,08
503,59	1294,32
503,79	1290,22
503,99	1275,88
504,19	1247,21
504,39	1251,31
504,59	1288,17
504,79	1216,49
504,99	1318,89
505,19	1265,64
505,39	1312,75
505,59	1243,12
505,79	1290,22
505,99	1222,64
506,19	1261,55
506,39	1212,40
506,59	1294,32
506,79	1282,03
506,99	1284,08
507,19	1302,51
507,39	1300,46
507,59	1220,59
507,79	1241,07
507,99	1271,79
508,19	1224,69
508,39	1314,80
508,59	1245,16
508,79	1355,76
508,99	1249,26
509,19	1257,45
509,39	1265,64
509,59	1191,92
509,79	1214,45
509,99	1337,32
510,19	1228,78
510,39	1200,11
510,59	1226,73
510,79	1257,45
510,99	1220,59
511,19	1228,78
511,39	1290,22
511,59	1279,98
511,79	1267,69
511,99	1335,28
512,19	1267,69
512,38	1255,40
512,58	1267,69
512,78	1292,27
512,98	1220,59
513,18	1230,83
513,38	1261,55
513,58	1243,12
513,78	1259,50
513,98	1300,46
514,18	1224,69
514,38	1243,12
514,58	1230,83
514,78	1279,98
514,98	1259,50
515,18	1288,17
515,38	1245,16
515,58	1302,51
515,78	1269,74
515,98	1265,64
516,18	1267,69
516,38	1226,73
516,57	1265,64
516,77	1306,60
516,97	1318,89
517,17	1259,50
517,37	1294,32
517,57	1269,74
517,77	1265,64
517,97	1363,95
518,17	1275,88
518,37	1253,36
518,57	1310,70
518,77	1187,82
518,97	1267,69
519,16	1288,17
519,36	1232,88
519,56	1275,88
519,76	1253,36
519,96	1181,68
520,16	1312,75
520,36	1216,49
520,56	1230,83
520,76	1236,97
520,96	1275,88
521,16	1210,35
521,35	1282,03
521,55	1290,22
521,75	1286,12
521,95	1236,97
522,15	1224,69
522,35	1279,98
522,55	1329,13
522,75	1282,03
522,95	1189,87
523,14	1183,73
523,34	1269,74
523,54	1200,11
523,74	1241,07
523,94	1224,69
524,14	1286,12
524,34	1263,60
524,54	1179,63
524,73	1298,41
524,93	1275,88
525,13	1312,75
525,33	1230,83
525,53	1259,50
525,73	1292,27
525,93	1306,60
526,13	1255,40
526,32	1339,37
526,52	1189,87
526,72	1255,40
526,92	1298,41
527,12	1310,70
527,32	1234,93
527,52	1232,88
527,71	1251,31
527,91	1206,25
528,11	1241,07
528,31	1239,02
528,51	1234,93
528,71	1302,51
528,90	1316,84
529,10	1208,30
529,30	1359,85
529,50	1243,12
529,70	1247,21
529,90	1284,08
530,09	1267,69
530,29	1308,65
530,49	1183,73
530,69	1267,69
530,89	1226,73
531,09	1290,22
531,28	1286,12
531,48	1232,88
531,68	1290,22
531,88	1202,16
532,08	1322,99
532,28	1290,22
532,47	1222,64
532,67	1288,17
532,87	1339,37
533,07	1294,32
533,27	1277,93
533,46	1298,41
533,66	1255,40
533,86	1363,95
534,06	1349,61
534,26	1337,32
534,45	1353,71
534,65	1325,04
534,85	1290,22
535,05	1228,78
535,25	1255,40
535,44	1230,83
535,64	1304,56
535,84	1177,58
536,04	1202,16
536,24	1214,45
536,43	1259,50
536,63	1279,98
536,83	1294,32
537,03	1218,54
537,22	1261,55
537,42	1226,73
537,62	1298,41
537,82	1265,64
538,02	1230,83
538,21	1286,12
538,41	1345,52
538,61	1271,79
538,81	1296,36
539,00	1206,25
539,20	1245,16
539,40	1159,15
539,60	1263,60
539,79	1212,40
539,99	1296,36
540,19	1275,88
540,39	1310,70
540,58	1343,47
540,78	1224,69
540,98	1282,03
541,18	1314,80
541,37	1273,84
541,57	1234,93
541,77	1302,51
541,97	1257,45
542,16	1198,06
542,36	1282,03
542,56	1222,64
542,76	1329,13
542,95	1277,93
543,15	1277,93
543,35	1251,31
543,54	1241,07
543,74	1247,21
543,94	1261,55
544,14	1286,12
544,33	1228,78
544,53	1296,36
544,73	1234,93
544,93	1286,12
545,12	1331,18
545,32	1196,01
545,52	1216,49
545,71	1249,26
545,91	1304,56
546,11	1312,75
546,30	1234,93
546,50	1220,59
546,70	1261,55
546,90	1279,98
547,09	1257,45
547,29	1279,98
547,49	1355,76
547,68	1255,40
547,88	1269,74
548,08	1292,27
548,27	1282,03
548,47	1308,65
548,67	1228,78
548,87	1282,03
549,06	1310,70
549,26	1277,93
549,46	1284,08
549,65	1269,74
549,85	1282,03
550,05	1284,08
550,24	1339,37
550,44	1232,88
550,64	1339,37
550,83	1271,79
551,03	1284,08
551,23	1296,36
551,42	1279,98
551,62	1265,64
551,82	1300,46
552,01	1253,36
552,21	1345,52
552,41	1306,60
552,60	1165,29
552,80	1298,41
553,00	1247,21
553,19	1263,60
553,39	1224,69
553,59	1232,88
553,78	1232,88
553,98	1290,22
554,17	1273,84
554,37	1282,03
554,57	1288,17
554,76	1312,75
554,96	1335,28
555,16	1245,16
555,35	1187,82
555,55	1259,50
555,75	1236,97
555,94	1275,88
556,14	1286,12
556,33	1263,60
556,53	1273,84
556,73	1286,12
556,92	1259,50
557,12	1318,89
557,32	1284,08
557,51	1355,76
557,71	1261,55
557,90	1263,60
558,10	1214,45
558,30	1224,69
558,49	1222,64
558,69	1257,45
558,88	1279,98
559,08	1306,60
559,28	1177,58
559,47	1304,56
559,67	1331,18
559,86	1279,98
560,06	1327,08
560,26	1288,17
560,45	1220,59
560,65	1259,50
560,84	1251,31
561,04	1245,16
561,24	1210,35
561,43	1286,12
561,63	1241,07
561,82	1230,83
562,02	1220,59
562,22	1363,95
562,41	1132,53
562,61	1298,41
562,80	1337,32
563,00	1249,26
563,19	1335,28
563,39	1306,60
563,59	1263,60
563,78	1230,83
563,98	1230,83
564,17	1265,64
564,37	1277,93
564,56	1220,59
564,76	1275,88
564,96	1196,01
565,15	1300,46
565,35	1294,32
565,54	1226,73
565,74	1300,46
565,93	1220,59
566,13	1271,79
566,32	1263,60
566,52	1208,30
566,71	1222,64
566,91	1245,16
567,11	1261,55
567,30	1300,46
567,50	1212,40
567,69	1286,12
567,89	1273,84
568,08	1245,16
568,28	1282,03
568,47	1302,51
568,67	1271,79
568,86	1183,73
569,06	1224,69
569,25	1255,40
569,45	1325,04
569,64	1329,13
569,84	1275,88
570,04	1339,37
570,23	1312,75
570,43	1298,41
570,62	1294,32
570,82	1241,07
571,01	1206,25
571,21	1284,08
571,40	1177,58
571,60	1308,65
571,79	1232,88
571,99	1200,11
572,18	1298,41
572,38	1265,64
572,57	1224,69
572,77	1257,45
572,96	1243,12
573,16	1275,88
573,35	1241,07
573,55	1249,26
573,74	1245,16
573,94	1298,41
574,13	1273,84
574,33	1359,85
574,52	1200,11
574,71	1306,60
574,91	1234,93
575,10	1271,79
575,30	1308,65
575,49	1329,13
575,69	1257,45
575,88	1329,13
576,08	1277,93
576,27	1255,40
576,47	1265,64
576,66	1286,12
576,86	1177,58
577,05	1265,64
577,25	1263,60
577,44	1333,23
577,64	1279,98
577,83	1150,96
578,02	1318,89
578,22	1200,11
578,41	1218,54
578,61	1251,31
578,80	1204,21
579,00	1300,46
579,19	1257,45
579,39	1312,75
579,58	1273,84
579,77	1247,21
579,97	1230,83
580,16	1325,04
580,36	1224,69
580,55	1267,69
580,75	1198,06
580,94	1218,54
581,13	1279,98
581,33	1282,03
581,52	1214,45
581,72	1265,64
581,91	1273,84
582,11	1247,21
582,30	1329,13
582,49	1308,65
582,69	1306,60
582,88	1288,17
583,08	1279,98
583,27	1214,45
583,47	1226,73
583,66	1253,36
583,85	1259,50
584,05	1159,15
584,24	1265,64
584,44	1259,50
584,63	1218,54
584,82	1327,08
585,02	1310,70
585,21	1245,16
585,41	1267,69
585,60	1224,69
585,79	1261,55
585,99	1327,08
586,18	1282,03
586,37	1222,64
586,57	1263,60
586,76	1282,03
586,96	1253,36
587,15	1310,70
587,34	1306,60
587,54	1216,49
587,73	1241,07
587,93	1300,46
588,12	1255,40
588,31	1333,23
588,51	1298,41
588,70	1341,42
588,89	1267,69
589,09	1290,22
589,28	1265,64
589,47	1273,84
589,67	1243,12
589,86	1296,36
590,06	1347,56
590,25	1239,02
590,44	1271,79
590,64	1259,50
590,83	1298,41
591,02	1224,69
591,22	1265,64
591,41	1173,49
591,60	1261,55
591,80	1271,79
591,99	1331,18
592,18	1259,50
592,38	1298,41
592,57	1298,41
592,76	1230,83
592,96	1298,41
593,15	1249,26
593,34	1230,83
593,54	1271,79
593,73	1327,08
593,92	1208,30
594,12	1308,65
594,31	1208,30
594,50	1308,65
594,70	1267,69
594,89	1288,17
595,08	1243,12
595,28	1273,84
595,47	1284,08
595,66	1333,23
595,86	1282,03
596,05	1298,41
596,24	1251,31
596,43	1251,31
596,63	1331,18
596,82	1273,84
597,01	1337,32
597,21	1306,60
597,40	1251,31
597,59	1214,45
597,79	1290,22
597,98	1351,66
598,17	1286,12
598,36	1243,12
598,56	1300,46
598,75	1267,69
598,94	1228,78
599,14	1337,32
599,33	1249,26
599,52	1257,45
599,71	1304,56
599,91	1277,93
600,10	1267,69
600,29	1261,55
600,48	1366,00
600,68	1304,56
600,87	1275,88
601,06	1275,88
601,26	1286,12
601,45	1265,64
601,64	1314,80
601,83	1284,08
602,03	1220,59
602,22	1304,56
602,41	1232,88
602,60	1347,56
602,80	1275,88
602,99	1286,12
603,18	1230,83
603,37	1196,01
603,57	1292,27
603,76	1355,76
603,95	1251,31
604,14	1279,98
604,34	1198,06
604,53	1331,18
604,72	1198,06
604,91	1200,11
605,10	1255,40
605,30	1279,98
605,49	1302,51
605,68	1300,46
605,87	1259,50
606,07	1273,84
606,26	1267,69
606,45	1247,21
606,64	1275,88
606,84	1265,64
607,03	1308,65
607,22	1198,06
607,41	1269,74
607,60	1335,28
607,80	1214,45
607,99	1232,88
608,18	1220,59
608,37	1306,60
608,56	1292,27
608,76	1296,36
608,95	1269,74
609,14	1306,60
609,33	1282,03
609,52	1349,61
609,72	1269,74
609,91	1282,03
610,10	1245,16
610,29	1216,49
610,48	1220,59
610,68	1277,93
610,87	1312,75
611,06	1306,60
611,25	1259,50
611,44	1253,36
611,63	1271,79
611,83	1341,42
612,02	1288,17
612,21	1239,02
612,40	1345,52
612,59	1331,18
612,79	1329,13
612,98	1327,08
613,17	1275,88
613,36	1308,65
613,55	1327,08
613,74	1286,12
613,93	1277,93
614,13	1284,08
614,32	1253,36
614,51	1288,17
614,70	1267,69
614,89	1216,49
615,08	1304,56
615,28	1343,47
615,47	1193,97
615,66	1230,83
615,85	1263,60
616,04	1292,27
616,23	1275,88
616,42	1245,16
616,62	1230,83
616,81	1269,74
617,00	1290,22
617,19	1263,60
617,38	1257,45
617,57	1263,60
617,76	1273,84
617,95	1298,41
618,15	1249,26
618,34	1269,74
618,53	1263,60
618,72	1247,21
618,91	1257,45
619,10	1349,61
619,29	1304,56
619,48	1247,21
619,68	1314,80
619,87	1279,98
620,06	1251,31
620,25	1312,75
620,44	1267,69
620,63	1277,93
620,82	1265,64
621,01	1306,60
621,20	1277,93
621,39	1333,23
621,59	1267,69
621,78	1243,12
621,97	1329,13
622,16	1253,36
622,35	1265,64
622,54	1306,60
622,73	1251,31
622,92	1247,21
623,11	1325,04
623,30	1292,27
623,49	1261,55
623,68	1341,42
623,88	1310,70
624,07	1300,46
624,26	1300,46
624,45	1273,84
624,64	1296,36
624,83	1269,74
625,02	1241,07
625,21	1294,32
625,40	1232,88
625,59	1300,46
625,78	1318,89
625,97	1271,79
626,16	1370,09
626,35	1279,98
626,54	1318,89
626,74	1300,46
626,93	1232,88
627,12	1275,88
627,31	1304,56
627,50	1302,51
627,69	1392,62
627,88	1265,64
628,07	1269,74
628,26	1298,41
628,45	1263,60
628,64	1298,41
628,83	1359,85
629,02	1282,03
629,21	1239,02
629,40	1277,93
629,59	1239,02
629,78	1314,80
629,97	1366,00
630,16	1243,12
630,35	1318,89
630,54	1245,16
630,73	1251,31
630,92	1275,88
631,11	1351,66
631,30	1306,60
631,49	1302,51
631,68	1427,43
631,87	4992,95
632,06	18271,98
632,25	35012,07
632,44	46359,87
632,63	57123,99
632,82	38307,26
633,01	12169,03
633,20	5304,24
633,39	4943,80
633,58	4018,11
633,77	2641,88
633,96	2074,59
634,15	1996,77
634,34	1996,77
634,53	1818,60
634,72	1816,55
634,91	1681,38
635,10	1658,85
635,29	1667,05
635,48	1619,94
635,67	1603,56
635,86	1503,21
636,05	1538,02
636,24	1445,87
636,43	1441,77
636,62	1363,95
636,81	1298,41
637,00	1318,89
637,19	1312,75
637,38	1394,67
637,57	1329,13
637,76	1308,65
637,95	1292,27
638,14	1226,73
638,33	1343,47
638,52	1341,42
638,71	1339,37
638,89	1343,47
639,08	1325,04
639,27	1261,55
639,46	1361,90
639,65	1239,02
639,84	1259,50
640,03	1271,79
640,22	1386,47
640,41	1253,36
640,60	1312,75
640,79	1279,98
640,98	1263,60
641,17	1329,13
641,36	1320,94
641,55	1306,60
641,74	1261,55
641,92	1273,84
642,11	1212,40
642,30	1314,80
642,49	1304,56
642,68	1234,93
642,87	1249,26
643,06	1277,93
643,25	1290,22
643,44	1269,74
643,63	1290,22
643,82	1300,46
644,00	1251,31
644,19	1277,93
644,38	1236,97
644,57	1351,66
644,76	1300,46
644,95	1271,79
645,14	1249,26
645,33	1265,64
645,52	1329,13
645,71	1298,41
645,89	1290,22
646,08	1282,03
646,27	1204,21
646,46	1261,55
646,65	1249,26
646,84	1273,84
647,03	1290,22
647,22	1306,60
647,40	1286,12
647,59	1226,73
647,78	1273,84
647,97	1279,98
648,16	1245,16
648,35	1300,46
648,54	1220,59
648,73	1277,93
648,91	1300,46
649,10	1314,80
649,29	1310,70
649,48	1302,51
649,67	1263,60
649,86	1314,80
650,05	1273,84
650,23	1288,17
650,42	1259,50
650,61	1310,70
650,80	1241,07
650,99	1306,60
651,18	1247,21
651,36	1247,21
651,55	1253,36
651,74	1300,46
651,93	1286,12
652,12	1339,37
652,31	1241,07
652,49	1314,80
652,68	1210,35
652,87	1247,21
653,06	1245,16
653,25	1282,03
653,44	1257,45
653,62	1304,56
653,81	1279,98
654,00	1239,02
654,19	1318,89
654,38	1241,07
654,56	1224,69
654,75	1300,46
654,94	1279,98
655,13	1339,37
655,32	1265,64
655,51	1320,94
655,69	1247,21
655,88	1220,59
656,07	1282,03
656,26	1228,78
656,45	1269,74
656,63	1279,98
656,82	1288,17
657,01	1284,08
657,20	1296,36
657,38	1296,36
657,57	1239,02
657,76	1261,55
657,95	1241,07
658,14	1304,56
658,32	1249,26
658,51	1228,78
658,70	1230,83
658,89	1239,02
659,08	1263,60
659,26	1312,75
659,45	1273,84
659,64	1296,36
659,83	1222,64
660,01	1290,22
660,20	1316,84
660,39	1339,37
660,58	1282,03
660,76	1257,45
660,95	1257,45
661,14	1318,89
661,33	1290,22
661,51	1214,45
661,70	1347,56
661,89	1335,28
662,08	1255,40
662,26	1304,56
662,45	1345,52
662,64	1275,88
662,83	1249,26
663,01	1273,84
663,20	1308,65
663,39	1316,84
663,58	1335,28
663,76	1206,25
663,95	1257,45
664,14	1224,69
664,32	1257,45
664,51	1187,82
664,70	1239,02
664,89	1265,64
665,07	1243,12
665,26	1241,07
665,45	1175,53
665,64	1226,73
665,82	1230,83
666,01	1327,08
666,20	1279,98
666,38	1310,70
666,57	1275,88
666,76	1282,03
666,95	1306,60
667,13	1322,99
667,32	1304,56
667,51	1243,12
667,69	1249,26
667,88	1282,03
668,07	1267,69
668,25	1339,37
668,44	1296,36
668,63	1239,02
668,81	1271,79
669,00	1253,36
669,19	1263,60
669,38	1222,64
669,56	1247,21
669,75	1279,98
669,94	1314,80
670,12	1230,83
670,31	1294,32
670,50	1267,69
670,68	1320,94
670,87	1220,59
671,06	1329,13
671,24	1322,99
671,43	1277,93
671,62	1224,69
671,80	1277,93
671,99	1251,31
672,18	1253,36
672,36	1304,56
672,55	1288,17
672,74	1273,84
672,92	1294,32
673,11	1273,84
673,29	1253,36
673,48	1263,60
673,67	1277,93
673,85	1290,22
674,04	1275,88
674,23	1271,79
674,41	1253,36
674,60	1224,69
674,79	1255,40
674,97	1263,60
675,16	1345,52
675,34	1320,94
675,53	1261,55
675,72	1304,56
675,90	1253,36
676,09	1228,78
676,28	1218,54
676,46	1236,97
676,65	1212,40
676,83	1298,41
677,02	1269,74
677,21	1255,40
677,39	1308,65
677,58	1200,11
677,77	1290,22
677,95	1312,75
678,14	1300,46
678,32	1282,03
678,51	1257,45
678,70	1298,41
678,88	1290,22
679,07	1259,50
679,25	1265,64
679,44	1298,41
679,63	1234,93
679,81	1239,02
680,00	1267,69
680,18	1263,60
680,37	1247,21
680,55	1249,26
680,74	1255,40
680,93	1183,73
681,11	1327,08
681,30	1230,83
681,48	1230,83
681,67	1249,26
681,85	1275,88
682,04	1239,02
682,23	1263,60
682,41	1189,87
682,60	1230,83
682,78	1308,65
682,97	1220,59
683,15	1251,31
683,34	1265,64
683,53	1263,60
683,71	1261,55
683,90	1302,51
684,08	1169,39
684,27	1277,93
684,45	1263,60
684,64	1275,88
684,82	1335,28
685,01	1298,41
685,19	1253,36
685,38	1292,27
685,57	1294,32
685,75	1310,70
685,94	1220,59
686,12	1257,45
686,31	1271,79
686,49	1279,98
686,68	1329,13
686,86	1343,47
687,05	1249,26
687,23	1345,52
687,42	1202,16
687,60	1302,51
687,79	1282,03
687,97	1325,04
688,16	1247,21
688,34	1286,12
688,53	1251,31
688,71	1265,64
688,90	1175,53
689,08	1294,32
689,27	1322,99
689,45	1228,78
689,64	1273,84
689,82	1271,79
690,01	1288,17
690,19	1230,83
690,38	1261,55
690,56	1251,31
690,75	1249,26
690,93	1196,01
691,12	1185,77
691,30	1245,16
691,49	1341,42
691,67	1314,80
691,86	1269,74
692,04	1265,64
692,23	1263,60
692,41	1226,73
692,60	1312,75
692,78	1265,64
692,97	1288,17
693,15	1253,36
693,34	1263,60
693,52	1347,56
693,71	1247,21
693,89	1253,36
694,08	1245,16
694,26	1255,40
694,44	1267,69
694,63	1298,41
694,81	1263,60
695,00	1322,99
695,18	1189,87
695,37	1294,32
695,55	1302,51
695,74	1267,69
695,92	1306,60
696,10	1282,03
696,29	1318,89
696,47	1257,45
696,66	1267,69
696,84	1322,99
697,03	1271,79
697,21	1331,18
697,40	1343,47
697,58	1271,79
697,76	1157,10
697,95	1216,49
698,13	1245,16
698,32	1298,41
698,50	1359,85
698,68	1296,36
698,87	1220,59
699,05	1271,79
699,24	1277,93
699,42	1325,04
699,61	1249,26
699,79	1277,93
699,97	1290,22
700,16	1224,69
700,34	1241,07
700,53	1232,88
700,71	1245,16
700,89	1224,69
701,08	1271,79
701,26	1284,08
701,45	1310,70
701,63	1288,17
701,81	1228,78
702,00	1189,87
702,18	1206,25
702,37	1288,17
702,55	1267,69
702,73	1200,11
702,92	1265,64
703,10	1239,02
703,28	1257,45
703,47	1189,87
703,65	1259,50
703,84	1220,59
704,02	1304,56
704,20	1329,13
704,39	1228,78
704,57	1314,80
704,75	1310,70
704,94	1253,36
705,12	1173,49
705,30	1243,12
705,49	1320,94
705,67	1314,80
705,86	1241,07
706,04	1316,84
706,22	1261,55
706,41	1288,17
706,59	1257,45
706,77	1296,36
706,96	1202,16
707,14	1327,08
707,32	1196,01
707,51	1265,64
707,69	1265,64
707,87	1302,51
708,06	1318,89
708,24	1236,97
708,42	1269,74
708,61	1279,98
708,79	1204,21
708,97	1259,50
709,16	1259,50
709,34	1300,46
709,52	1322,99
709,71	1224,69
709,89	1220,59
710,07	1236,97
710,26	1232,88
710,44	1273,84
710,62	1316,84
710,80	1271,79
710,99	1310,70
711,17	1273,84
711,35	1351,66
711,54	1257,45
711,72	1294,32
711,90	1290,22
712,09	1310,70
712,27	1300,46
712,45	1218,54
712,63	1261,55
712,82	1249,26
713,00	1249,26
713,18	1230,83
713,37	1232,88
713,55	1335,28
713,73	1226,73
713,91	1275,88
714,10	1257,45
714,28	1175,53
714,46	1218,54
714,65	1245,16
714,83	1306,60
715,01	1316,84
715,19	1277,93
715,38	1296,36
715,56	1261,55
715,74	1269,74
715,92	1251,31
716,11	1226,73
716,29	1251,31
716,47	1302,51
716,65	1279,98
716,84	1214,45
717,02	1255,40
717,20	1279,98
717,38	1245,16
717,57	1304,56
717,75	1224,69
717,93	1265,64
718,11	1224,69
718,30	1255,40
718,48	1363,95
718,66	1228,78
718,84	1277,93
719,03	1286,12
719,21	1298,41
719,39	1230,83
719,57	1273,84
719,75	1296,36
719,94	1288,17
720,12	1310,70
720,30	1333,23
720,48	1265,64
720,67	1277,93
720,85	1284,08
721,03	1232,88
721,21	1279,98
721,39	1259,50
721,58	1298,41
721,76	1314,80
721,94	1243,12
722,12	1306,60
722,30	1282,03
722,49	1279,98
722,67	1286,12
722,85	1277,93
723,03	1284,08
723,21	1255,40
723,40	1247,21
723,58	1286,12
723,76	1255,40
723,94	1296,36
724,12	1304,56
724,30	1273,84
724,49	1165,29
724,67	1308,65
724,85	1380,33
725,03	1202,16
725,21	1353,71
725,40	1337,32
725,58	1325,04
725,76	1232,88
725,94	1247,21
726,12	1298,41
726,30	1269,74
726,49	1298,41
726,67	1189,87
726,85	1251,31
727,03	1271,79
727,21	1257,45
727,39	1224,69
727,57	1232,88
727,76	1218,54
727,94	1236,97
728,12	1193,97
728,30	1292,27
728,48	1249,26
728,66	1282,03
728,84	1286,12
729,03	1220,59
729,21	1343,47
729,39	1236,97
729,57	1236,97
729,75	1366,00
729,93	1161,20
730,11	1239,02
730,30	1290,22
730,48	1239,02
730,66	1224,69
730,84	1204,21
731,02	1241,07
731,20	1298,41
731,38	1269,74
731,56	1202,16
731,74	1263,60
731,93	1241,07
732,11	1241,07
732,29	1267,69
732,47	1306,60
732,65	1277,93
732,83	1273,84
733,01	1253,36
733,19	1341,42
733,37	1271,79
733,56	1224,69
733,74	1325,04
733,92	1304,56
734,10	1234,93
734,28	1273,84
734,46	1187,82
734,64	1286,12
734,82	1271,79
735,00	1218,54
735,18	1230,83
735,36	1320,94
735,54	1259,50
735,73	1257,45
735,91	1261,55
736,09	1253,36
736,27	1275,88
736,45	1259,50
736,63	1263,60
736,81	1259,50
736,99	1261,55
737,17	1312,75
737,35	1249,26
737,53	1292,27
737,71	1245,16
737,89	1275,88
738,07	1288,17
738,25	1220,59
738,43	1261,55
738,61	1253,36
738,80	1265,64
738,98	1267,69
739,16	1327,08
739,34	1263,60
739,52	1314,80
739,70	1292,27
739,88	1224,69
740,06	1245,16
740,24	1286,12
740,42	1247,21
740,60	1314,80
740,78	1253,36
740,96	1290,22
741,14	1292,27
741,32	1261,55
741,50	1298,41
741,68	1259,50
741,86	1247,21
742,04	1232,88
742,22	1286,12
742,40	1347,56
742,58	1210,35
742,76	1318,89
742,94	1288,17
743,12	1284,08
743,30	1236,97
743,48	1351,66
743,66	1214,45
743,84	1294,32
744,02	1279,98
744,20	1325,04
744,38	1273,84
744,56	1206,25
744,74	1271,79
744,92	1232,88
745,10	1265,64
745,28	1351,66
745,46	1218,54
745,64	1226,73
745,82	1300,46
746,00	1275,88
746,18	1282,03
746,36	1282,03
746,54	1226,73
746,72	1322,99
746,90	1261,55
747,08	1294,32
747,26	1337,32
747,44	1302,51
747,62	1286,12
747,80	1290,22
747,98	1275,88
748,15	1298,41
748,33	1214,45
748,51	1232,88
748,69	1259,50
748,87	1216,49
749,05	1200,11
749,23	1236,97
749,41	1212,40
749,59	1271,79
749,77	1216,49
749,95	1230,83
750,13	1257,45
750,31	1300,46
750,49	1243,12
750,67	1187,82
750,85	1228,78
751,03	1292,27
751,20	1286,12
751,38	1310,70
751,56	1239,02
751,74	1310,70
751,92	1298,41
752,10	1312,75
752,28	1314,80
752,46	1202,16
752,64	1257,45
752,82	1304,56
753,00	1236,97
753,18	1247,21
753,35	1302,51
753,53	1257,45
753,71	1222,64
753,89	1232,88
754,07	1343,47
754,25	1331,18
754,43	1255,40
754,61	1304,56
754,79	1245,16
754,97	1329,13
755,14	1265,64
755,32	1322,99
755,50	1284,08
755,68	1259,50
755,86	1255,40
756,04	1290,22
756,22	1271,79
756,40	1255,40
756,57	1265,64
756,75	1302,51
756,93	1298,41
757,11	1267,69
757,29	1243,12
757,47	1316,84
757,65	1247,21
757,82	1320,94
758,00	1286,12
758,18	1282,03
758,36	1243,12
758,54	1251,31
758,72	1263,60
758,90	1351,66
759,07	1267,69
759,25	1294,32
759,43	1222,64
759,61	1208,30
759,79	1265,64
759,97	1335,28
760,15	1239,02
760,32	1273,84
760,50	1296,36
760,68	1247,21
760,86	1212,40
761,04	1282,03
761,22	1290,22
761,39	1286,12
761,57	1234,93
761,75	1294,32
761,93	1286,12
762,11	1277,93
762,28	1267,69
762,46	1259,50
762,64	1210,35
762,82	1277,93
763,00	1212,40
763,18	1302,51
763,35	1228,78
763,53	1259,50
763,71	1228,78
763,89	1263,60
764,07	1265,64
764,24	1269,74
764,42	1236,97
764,60	1271,79
764,78	1267,69
764,96	1251,31
765,13	1316,84
765,31	1218,54
765,49	1265,64
765,67	1288,17
765,84	1249,26
766,02	1241,07
766,20	1279,98
766,38	1226,73
766,56	1275,88
766,73	1253,36
766,91	1269,74
767,09	1320,94
767,27	1206,25
767,44	1239,02
767,62	1296,36
767,80	1294,32
767,98	1216,49
768,15	1300,46
768,33	1282,03
768,51	1214,45
768,69	1212,40
768,87	1175,53
769,04	1196,01
769,22	1318,89
769,40	1355,76
769,58	1353,71
769,75	1310,70
769,93	1249,26
770,11	1230,83
770,28	1275,88
770,46	1243,12
770,64	1290,22
770,82	1263,60
770,99	1239,02
771,17	1265,64
771,35	1255,40
771,53	1343,47
771,70	1267,69
771,88	1284,08
772,06	1263,60
772,23	1304,56
772,41	1343,47
772,59	1282,03
772,77	1183,73
772,94	1265,64
773,12	1296,36
773,30	1277,93
773,47	1269,74
773,65	1282,03
773,83	1228,78
774,01	1200,11
774,18	1271,79
774,36	1173,49
774,54	1370,09
774,71	1257,45
774,89	1294,32
775,07	1234,93
775,24	1257,45
775,42	1239,02
775,60	1341,42
775,78	1333,23
775,95	1265,64
776,13	1245,16
776,31	1269,74
776,48	1202,16
776,66	1288,17
776,84	1337,32
777,01	1273,84
777,19	1241,07
777,37	1251,31
777,54	1267,69
777,72	1290,22
777,90	1226,73
778,07	1236,97
778,25	1239,02
778,43	1167,34
778,60	1366,00
778,78	1259,50
778,96	1284,08
779,13	1257,45
779,31	1275,88
779,49	1312,75
779,66	1216,49
779,84	1288,17
780,01	1368,04
780,19	1204,21
780,37	1331,18
780,54	1308,65
780,72	1226,73
780,90	1228,78
781,07	1253,36
781,25	1337,32
781,43	1282,03
781,60	1271,79
781,78	1236,97
781,95	1275,88
782,13	1380,33
782,31	1322,99
782,48	1302,51
782,66	1257,45
782,83	1314,80
783,01	1300,46
783,19	1232,88
783,36	1247,21
783,54	1271,79
783,72	1255,40
783,89	1263,60
784,07	1263,60
784,24	1236,97
784,42	1263,60
784,60	1247,21
784,77	1279,98
784,95	1294,32
785,12	1284,08
785,30	1267,69
785,47	1232,88
785,65	1320,94
785,83	1191,92
786,00	1200,11
786,18	1279,98
786,35	1273,84
786,53	1286,12
786,71	1308,65
786,88	1255,40
787,06	1308,65
787,23	1249,26
787,41	1208,30
787,58	1298,41
787,76	1306,60
787,94	1282,03
788,11	1245,16
788,29	1220,59
788,46	1267,69
788,64	1294,32
788,81	1308,65
788,99	1253,36
789,16	1269,74
789,34	1257,45
789,52	1255,40
789,69	1265,64
789,87	1243,12
790,04	1212,40
790,22	1218,54
790,39	1300,46
790,57	1304,56
790,74	1273,84
790,92	1257,45
791,09	1196,01
791,27	1306,60
791,44	1267,69
791,62	1294,32
791,79	1239,02
791,97	1265,64
792,15	1216,49
792,32	1322,99
792,50	1282,03
792,67	1339,37
792,85	1198,06
793,02	1220,59
793,20	1187,82
793,37	1261,55
793,55	1298,41
793,72	1220,59
793,90	1320,94
794,07	1296,36
794,25	1245,16
794,42	1306,60
794,60	1241,07
794,77	1269,74
794,95	1304,56
795,12	1308,65
795,30	1312,75
795,47	1275,88
795,65	1308,65
795,82	1239,02
796,00	1198,06
796,17	1243,12
796,34	1290,22
796,52	1359,85
796,69	1247,21
796,87	1236,97
797,04	1275,88
797,22	1320,94
797,39	1310,70
797,57	1290,22
797,74	1349,61
797,92	1245,16
798,09	1226,73
798,27	1290,22
798,44	1290,22
798,62	1259,50
798,79	1279,98
798,96	1298,41
799,14	1271,79
799,31	1306,60
799,49	1249,26
799,66	1224,69
799,84	1304,56
800,01	1241,07
800,19	1292,27
800,36	1175,53
800,53	1318,89
800,71	1282,03
800,88	1286,12
801,06	1243,12
801,23	1249,26
801,41	1269,74
801,58	1290,22
801,75	1282,03
801,93	1265,64
802,10	1347,56
802,28	1267,69
802,45	1275,88
802,63	1286,12
802,80	1273,84
802,97	1259,50
803,15	1331,18
803,32	1271,79
803,50	1241,07
803,67	1134,57
803,84	1243,12
804,02	1224,69
804,19	1208,30
804,37	1253,36
804,54	1224,69
804,71	1204,21
804,89	1255,40
805,06	1275,88
805,24	1275,88
805,41	1267,69
805,58	1286,12
805,76	1310,70
805,93	1286,12
806,10	1329,13
806,28	1173,49
806,45	1298,41
806,63	1261,55
806,80	1304,56
806,97	1277,93
807,15	1220,59
807,32	1247,21
807,49	1269,74
807,67	1224,69
807,84	1304,56
808,01	1232,88
808,19	1306,60
808,36	1245,16
808,54	1294,32
808,71	1232,88
808,88	1341,42
809,06	1218,54
809,23	1259,50
809,40	1200,11
809,58	1322,99
809,75	1253,36
809,92	1239,02
810,10	1191,92
810,27	1292,27
810,44	1351,66
810,62	1271,79
810,79	1359,85
810,96	1298,41
811,14	1265,64
811,31	1253,36
811,48	1257,45
811,66	1288,17
811,83	1239,02
812,00	1247,21
812,18	1202,16
812,35	1267,69
812,52	1245,16
812,69	1241,07
812,87	1327,08
813,04	1347,56
813,21	1208,30
813,39	1255,40
813,56	1349,61
813,73	1329,13
813,91	1273,84
814,08	1263,60
814,25	1271,79
814,42	1255,40
814,60	1310,70
814,77	1273,84
814,94	1224,69
815,12	1257,45
815,29	1267,69
815,46	1304,56
815,63	1286,12
815,81	1284,08
815,98	1261,55
816,15	1339,37
816,33	1288,17
816,50	1275,88
816,67	1302,51
816,84	1259,50
817,02	1277,93
817,19	1257,45
817,36	1181,68
817,53	1351,66
817,71	1253,36
817,88	1312,75
818,05	1298,41
818,22	1312,75
818,40	1363,95
818,57	1306,60
818,74	1257,45
818,91	1296,36
819,09	1302,51
819,26	1284,08
819,43	1255,40
819,60	1206,25
819,78	1294,32
819,95	1253,36
820,12	1298,41
820,29	1247,21
820,47	1228,78
820,64	1286,12
820,81	1277,93
820,98	1241,07
821,15	1288,17
821,33	1253,36
821,50	1271,79
821,67	1290,22
821,84	1224,69
822,02	1288,17
822,19	1224,69
822,36	1318,89
822,53	1279,98
822,70	1288,17
822,88	1337,32
823,05	1255,40
823,22	1257,45
823,39	1271,79
823,56	1243,12
823,74	1359,85
823,91	1335,28
824,08	1247,21
824,25	1314,80
824,42	1282,03
824,60	1304,56
824,77	1220,59
824,94	1271,79
825,11	1294,32
825,28	1269,74
825,45	1271,79
825,63	1241,07
825,80	1318,89
825,97	1355,76
826,14	1273,84
826,31	1282,03
826,48	1304,56
826,66	1226,73
826,83	1263,60
827,00	1322,99
827,17	1288,17
827,34	1263,60
827,51	1325,04
827,69	1255,40
827,86	1241,07
828,03	1232,88
828,20	1273,84
828,37	1372,14
828,54	1296,36
828,71	1224,69
828,89	1322,99
829,06	1224,69
829,23	1343,47
829,40	1304,56
829,57	1249,26
829,74	1267,69
829,91	1241,07
830,09	1302,51
830,26	1214,45
830,43	1236,97
830,60	1298,41
830,77	1249,26
830,94	1343,47
831,11	1275,88
831,28	1279,98
831,46	1216,49
831,63	1265,64
831,80	1263,60
831,97	1200,11
832,14	1257,45
832,31	1245,16
832,48	1259,50
832,65	1251,31
832,82	1226,73
832,99	1329,13
833,17	1277,93
833,34	1298,41
833,51	1232,88
833,68	1226,73
833,85	1249,26
834,02	1304,56
834,19	1216,49
834,36	1353,71
834,53	1327,08
834,70	1239,02
834,87	1259,50
835,04	1232,88
835,22	1271,79
835,39	1243,12
835,56	1306,60
835,73	1284,08
835,90	1257,45
836,07	1171,44
836,24	1318,89
836,41	1304,56
836,58	1269,74
836,75	1255,40
836,92	1292,27
837,09	1320,94
837,26	1255,40
837,43	1322,99
837,60	1337,32
837,77	1257,45
837,94	1290,22
838,12	1343,47
838,29	1335,28
838,46	1331,18
838,63	1218,54
838,80	1394,67
838,97	1232,88
839,14	1218,54
839,31	1269,74
839,48	1267,69
839,65	1290,22
839,82	1312,75
839,99	1275,88
840,16	1361,90
840,33	1267,69
840,50	1302,51
840,67	1284,08
840,84	1247,21
841,01	1269,74
841,18	1253,36
841,35	1198,06
841,52	1361,90
841,69	1275,88
841,86	1253,36
842,03	1232,88
842,20	1269,74
842,37	1263,60
842,54	1230,83
842,71	1265,64
842,88	1277,93
843,05	1363,95
843,22	1263,60
843,39	1251,31
843,56	1218,54
843,73	1247,21
843,90	1282,03
844,07	1239,02
844,24	1292,27
844,41	1286,12
844,58	1306,60
844,75	1239,02
844,92	1239,02
845,09	1277,93
845,26	1298,41
845,43	1249,26
845,60	1218,54
845,77	1279,98
845,94	1284,08
846,10	1230,83
846,27	1288,17
846,44	1282,03
846,61	1271,79
846,78	1247,21
846,95	1273,84
847,12	1249,26
847,29	1198,06
847,46	1308,65
847,63	1357,80
847,80	1265,64
847,97	1239,02
848,14	1249,26
848,31	1271,79
848,48	1202,16
848,65	1286,12
848,82	1261,55
848,98	1269,74
849,15	1261,55
849,32	1279,98
849,49	1284,08
849,66	1339,37
849,83	1300,46
850,00	1320,94
850,17	1236,97
850,34	1220,59
850,51	1267,69
850,68	1308,65
850,85	1327,08
851,01	1279,98
851,18	1308,65
851,35	1224,69
851,52	1335,28
851,69	1318,89
851,86	1318,89
852,03	1306,60
852,20	1263,60
852,37	1247,21
852,53	1269,74
852,70	1253,36
852,87	1247,21
853,04	1222,64
853,21	1310,70
853,38	1261,55
853,55	1314,80
853,72	1298,41
853,89	1298,41
854,05	1320,94
854,22	1308,65
854,39	1337,32
854,56	1322,99
854,73	1232,88
854,90	1263,60
855,07	1267,69
855,23	1239,02
855,40	1253,36
855,57	1265,64
855,74	1300,46
855,91	1275,88
856,08	1282,03
856,25	1279,98
856,41	1284,08
856,58	1236,97
856,75	1302,51
856,92	1277,93
857,09	1226,73
857,26	1265,64
857,42	1351,66
857,59	1249,26
857,76	1275,88
857,93	1245,16
858,10	1294,32
858,27	1236,97
858,43	1253,36
858,60	1224,69
858,77	1314,80
858,94	1251,31
859,11	1294,32
859,27	1253,36
859,44	1239,02
859,61	1255,40
859,78	1224,69
859,95	1325,04
860,12	1304,56
860,28	1333,23
860,45	1329,13
860,62	1200,11
860,79	1288,17
860,95	1245,16
861,12	1304,56
861,29	1296,36
861,46	1290,22
861,63	1247,21
861,79	1312,75
861,96	1277,93
862,13	1320,94
862,30	1302,51
862,47	1259,50
862,63	1298,41
862,80	1275,88
862,97	1187,82
863,14	1267,69
863,30	1279,98
863,47	1282,03
863,64	1304,56
863,81	1259,50
863,97	1308,65
864,14	1208,30
864,31	1329,13
864,48	1167,34
864,65	1273,84
864,81	1304,56
864,98	1335,28
865,15	1251,31
865,32	1269,74
865,48	1318,89
865,65	1273,84
865,82	1267,69
865,98	1302,51
866,15	1329,13
866,32	1257,45
866,49	1329,13
866,65	1243,12
866,82	1243,12
866,99	1271,79
867,16	1255,40
867,32	1230,83
867,49	1265,64
867,66	1216,49
867,83	1304,56
867,99	1245,16
868,16	1300,46
868,33	1214,45
868,49	1329,13
868,66	1200,11
868,83	1304,56
868,99	1302,51
869,16	1265,64
869,33	1277,93
869,50	1277,93
869,66	1302,51
869,83	1255,40
870,00	1265,64
870,16	1230,83
870,33	1232,88
870,50	1277,93
870,66	1294,32
870,83	1263,60
871,00	1288,17
871,17	1249,26
871,33	1273,84
871,50	1249,26
871,67	1239,02
871,83	1255,40
872,00	1357,80
872,17	1294,32
872,33	1241,07
872,50	1306,60
872,67	1271,79
872,83	1288,17
873,00	1196,01
873,17	1298,41
873,33	1294,32
873,50	1296,36
873,67	1286,12
873,83	1292,27
874,00	1279,98
874,16	1347,56
874,33	1277,93
874,50	1243,12
874,66	1314,80
874,83	1320,94
875,00	1279,98
875,16	1357,80
875,33	1185,77
875,50	1265,64
875,66	1249,26
875,83	1243,12
875,99	1304,56
876,16	1298,41
876,33	1230,83
876,49	1294,32
876,66	1251,31
876,83	1165,29
876,99	1296,36
877,16	1218,54
877,32	1376,24
877,49	1290,22
877,66	1253,36
877,82	1218,54
877,99	1251,31
878,15	1230,83
878,32	1232,88
878,49	1263,60
878,65	1243,12
878,82	1269,74
878,98	1243,12
879,15	1335,28
879,32	1259,50
879,48	1196,01
879,65	1302,51
879,81	1247,21
879,98	1267,69
880,15	1267,69
880,31	1341,42
880,48	1226,73
880,64	1214,45
880,81	1294,32
880,97	1222,64
881,14	1279,98
881,31	1259,50
881,47	1277,93
881,64	1253,36
881,80	1296,36
881,97	1249,26
882,13	1234,93
882,30	1288,17
882,47	1361,90
882,63	1255,40
882,80	1322,99
882,96	1267,69
883,13	1320,94
883,29	1290,22
883,46	1245,16
883,62	1239,02
883,79	1257,45
883,95	1282,03
884,12	1241,07
884,29	1296,36
884,45	1269,74
884,62	1286,12
884,78	1296,36
884,95	1296,36
885,11	1304,56
885,28	1320,94
885,44	1257,45
885,61	1257,45
885,77	1247,21
885,94	1202,16
886,10	1249,26
886,27	1296,36
886,43	1296,36
886,60	1271,79
886,76	1263,60
886,93	1140,72
887,09	1282,03
887,26	1312,75
887,42	1282,03
887,59	1310,70
887,75	1339,37
887,92	1286,12
888,08	1279,98
888,25	1267,69
888,41	1249,26
888,58	1273,84
888,74	1282,03
888,91	1269,74
>>>>>End Processed Spectral Data<<<<<
