SpectraSuite Data File
++++++++++++++++++++++++++++++++++++
Date: Sun Apr 03 14:12:34 CEST 2016
User: root
Dark Spectrum Present: No
Reference Spectrum Present: No
Number of Sampled Component Spectra: 1
Spectrometers: USB4C02835
Integration Time (usec): 10000 (USB4C02835)
Spectra Averaged: 1 (USB4C02835)
Boxcar Smoothing: 0 (USB4C02835)
Correct for Electrical Dark: No (USB4C02835)
Strobe/Lamp Enabled: No (USB4C02835)
Correct for Detector Non-linearity: No (USB4C02835)
Correct for Stray Light: No (USB4C02835)
Number of Pixels in Processed Spectrum: 3648
>>>>>Begin Processed Spectral Data<<<<<
177,47	1335,28
177,69	1335,28
177,91	1335,28
178,13	1230,83
178,36	1308,65
178,58	1296,36
178,80	1259,50
179,02	1284,08
179,24	1255,40
179,46	1261,55
179,68	1220,59
179,90	1312,75
180,13	1247,21
180,35	1316,84
180,57	1263,60
180,79	1257,45
181,01	1314,80
181,23	1222,64
181,45	1282,03
181,67	1183,73
181,90	1230,83
182,12	1259,50
182,34	1353,71
182,56	1327,08
182,78	1198,06
183,00	1288,17
183,22	1339,37
183,44	1273,84
183,66	1300,46
183,89	1249,26
184,11	1314,80
184,33	1265,64
184,55	1273,84
184,77	1265,64
184,99	1232,88
185,21	1337,32
185,43	1236,97
185,65	1271,79
185,87	1273,84
186,10	1202,16
186,32	1232,88
186,54	1212,40
186,76	1277,93
186,98	1232,88
187,20	1259,50
187,42	1271,79
187,64	1271,79
187,86	1212,40
188,08	1296,36
188,30	1265,64
188,52	1230,83
188,75	1335,28
188,97	1314,80
189,19	1384,43
189,41	1312,75
189,63	1267,69
189,85	1191,92
190,07	1261,55
190,29	1253,36
190,51	1273,84
190,73	1265,64
190,95	1271,79
191,17	1302,51
191,39	1286,12
191,61	1302,51
191,84	1208,30
192,06	1271,79
192,28	1222,64
192,50	1230,83
192,72	1298,41
192,94	1298,41
193,16	1333,23
193,38	1255,40
193,60	1298,41
193,82	1279,98
194,04	1259,50
194,26	1335,28
194,48	1236,97
194,70	1183,73
194,92	1314,80
195,14	1298,41
195,36	1253,36
195,58	1247,21
195,80	1273,84
196,02	1300,46
196,24	1245,16
196,46	1230,83
196,69	1249,26
196,91	1261,55
197,13	1206,25
197,35	1243,12
197,57	1316,84
197,79	1263,60
198,01	1253,36
198,23	1265,64
198,45	1245,16
198,67	1236,97
198,89	1171,44
199,11	1220,59
199,33	1198,06
199,55	1294,32
199,77	1228,78
199,99	1292,27
200,21	1196,01
200,43	1290,22
200,65	1384,43
200,87	1249,26
201,09	1236,97
201,31	1265,64
201,53	1259,50
201,75	1312,75
201,97	1202,16
202,19	1351,66
202,41	1257,45
202,63	1263,60
202,85	1241,07
203,07	1327,08
203,29	1171,44
203,51	1222,64
203,73	1333,23
203,95	1214,45
204,17	1290,22
204,39	1310,70
204,61	1198,06
204,83	1269,74
205,05	1253,36
205,27	1236,97
205,49	1275,88
205,71	1261,55
205,93	1263,60
206,15	1259,50
206,37	1294,32
206,59	1253,36
206,81	1255,40
207,03	1275,88
207,25	1300,46
207,47	1261,55
207,69	1249,26
207,91	1245,16
208,13	1228,78
208,34	1241,07
208,56	1290,22
208,78	1294,32
209,00	1239,02
209,22	1236,97
209,44	1304,56
209,66	1255,40
209,88	1277,93
210,10	1363,95
210,32	1292,27
210,54	1257,45
210,76	1304,56
210,98	1267,69
211,20	1261,55
211,42	1253,36
211,64	1232,88
211,86	1290,22
212,08	1267,69
212,30	1331,18
212,52	1347,56
212,74	1251,31
212,96	1304,56
213,17	1239,02
213,39	1224,69
213,61	1306,60
213,83	1273,84
214,05	1259,50
214,27	1322,99
214,49	1275,88
214,71	1257,45
214,93	1249,26
215,15	1191,92
215,37	1306,60
215,59	1302,51
215,81	1271,79
216,03	1337,32
216,24	1292,27
216,46	1331,18
216,68	1236,97
216,90	1300,46
217,12	1343,47
217,34	1198,06
217,56	1261,55
217,78	1261,55
218,00	1222,64
218,22	1226,73
218,44	1251,31
218,66	1327,08
218,87	1261,55
219,09	1292,27
219,31	1232,88
219,53	1294,32
219,75	1189,87
219,97	1206,25
220,19	1312,75
220,41	1255,40
220,63	1275,88
220,85	1282,03
221,06	1282,03
221,28	1269,74
221,50	1284,08
221,72	1277,93
221,94	1263,60
222,16	1327,08
222,38	1271,79
222,60	1333,23
222,82	1226,73
223,03	1196,01
223,25	1277,93
223,47	1249,26
223,69	1296,36
223,91	1292,27
224,13	1277,93
224,35	1292,27
224,57	1279,98
224,78	1218,54
225,00	1322,99
225,22	1300,46
225,44	1296,36
225,66	1269,74
225,88	1259,50
226,10	1318,89
226,32	1255,40
226,53	1261,55
226,75	1302,51
226,97	1286,12
227,19	1236,97
227,41	1306,60
227,63	1279,98
227,85	1282,03
228,06	1247,21
228,28	1310,70
228,50	1251,31
228,72	1232,88
228,94	1212,40
229,16	1253,36
229,37	1335,28
229,59	1273,84
229,81	1226,73
230,03	1255,40
230,25	1257,45
230,47	1294,32
230,69	1224,69
230,90	1228,78
231,12	1308,65
231,34	1273,84
231,56	1267,69
231,78	1331,18
232,00	1206,25
232,21	1271,79
232,43	1265,64
232,65	1355,76
232,87	1320,94
233,09	1409,00
233,30	1288,17
233,52	1298,41
233,74	1298,41
233,96	1208,30
234,18	1239,02
234,40	1259,50
234,61	1294,32
234,83	1296,36
235,05	1271,79
235,27	1228,78
235,49	1314,80
235,70	1243,12
235,92	1286,12
236,14	1273,84
236,36	1310,70
236,58	1234,93
236,79	1277,93
237,01	1228,78
237,23	1290,22
237,45	1216,49
237,67	1302,51
237,88	1253,36
238,10	1263,60
238,32	1288,17
238,54	1273,84
238,76	1236,97
238,97	1286,12
239,19	1277,93
239,41	1290,22
239,63	1206,25
239,85	1232,88
240,06	1251,31
240,28	1325,04
240,50	1337,32
240,72	1255,40
240,93	1232,88
241,15	1290,22
241,37	1239,02
241,59	1271,79
241,81	1247,21
242,02	1335,28
242,24	1294,32
242,46	1226,73
242,68	1267,69
242,89	1273,84
243,11	1259,50
243,33	1263,60
243,55	1257,45
243,76	1212,40
243,98	1308,65
244,20	1279,98
244,42	1316,84
244,64	1300,46
244,85	1322,99
245,07	1267,69
245,29	1259,50
245,51	1304,56
245,72	1275,88
245,94	1249,26
246,16	1255,40
246,38	1296,36
246,59	1284,08
246,81	1304,56
247,03	1224,69
247,24	1279,98
247,46	1259,50
247,68	1265,64
247,90	1232,88
248,11	1220,59
248,33	1306,60
248,55	1273,84
248,77	1294,32
248,98	1273,84
249,20	1327,08
249,42	1257,45
249,64	1290,22
249,85	1363,95
250,07	1245,16
250,29	1275,88
250,50	1191,92
250,72	1292,27
250,94	1241,07
251,16	1257,45
251,37	1288,17
251,59	1204,21
251,81	1273,84
252,02	1271,79
252,24	1277,93
252,46	1333,23
252,68	1304,56
252,89	1282,03
253,11	1286,12
253,33	1355,76
253,54	1261,55
253,76	1329,13
253,98	1249,26
254,20	1257,45
254,41	1275,88
254,63	1263,60
254,85	1296,36
255,06	1279,98
255,28	1261,55
255,50	1232,88
255,71	1222,64
255,93	1224,69
256,15	1322,99
256,36	1288,17
256,58	1296,36
256,80	1288,17
257,02	1296,36
257,23	1320,94
257,45	1226,73
257,67	1363,95
257,88	1347,56
258,10	1273,84
258,32	1251,31
258,53	1308,65
258,75	1269,74
258,97	1349,61
259,18	1288,17
259,40	1277,93
259,62	1320,94
259,83	1333,23
260,05	1306,60
260,27	1329,13
260,48	1302,51
260,70	1263,60
260,92	1277,93
261,13	1230,83
261,35	1257,45
261,57	1251,31
261,78	1275,88
262,00	1304,56
262,22	1286,12
262,43	1257,45
262,65	1185,77
262,86	1257,45
263,08	1189,87
263,30	1296,36
263,51	1236,97
263,73	1236,97
263,95	1245,16
264,16	1275,88
264,38	1273,84
264,60	1298,41
264,81	1271,79
265,03	1263,60
265,25	1312,75
265,46	1288,17
265,68	1277,93
265,89	1228,78
266,11	1230,83
266,33	1214,45
266,54	1251,31
266,76	1261,55
266,98	1290,22
267,19	1269,74
267,41	1284,08
267,62	1247,21
267,84	1206,25
268,06	1267,69
268,27	1267,69
268,49	1253,36
268,70	1275,88
268,92	1245,16
269,14	1259,50
269,35	1239,02
269,57	1245,16
269,79	1286,12
270,00	1284,08
270,22	1292,27
270,43	1294,32
270,65	1279,98
270,87	1259,50
271,08	1212,40
271,30	1234,93
271,51	1230,83
271,73	1247,21
271,95	1296,36
272,16	1255,40
272,38	1265,64
272,59	1329,13
272,81	1275,88
273,02	1253,36
273,24	1279,98
273,46	1241,07
273,67	1306,60
273,89	1243,12
274,10	1345,52
274,32	1253,36
274,54	1302,51
274,75	1320,94
274,97	1273,84
275,18	1290,22
275,40	1308,65
275,61	1359,85
275,83	1212,40
276,05	1320,94
276,26	1275,88
276,48	1279,98
276,69	1331,18
276,91	1273,84
277,12	1273,84
277,34	1286,12
277,55	1337,32
277,77	1279,98
277,99	1259,50
278,20	1343,47
278,42	1335,28
278,63	1202,16
278,85	1232,88
279,06	1333,23
279,28	1232,88
279,49	1214,45
279,71	1302,51
279,93	1279,98
280,14	1210,35
280,36	1306,60
280,57	1224,69
280,79	1245,16
281,00	1259,50
281,22	1224,69
281,43	1300,46
281,65	1308,65
281,86	1273,84
282,08	1210,35
282,29	1251,31
282,51	1236,97
282,73	1224,69
282,94	1277,93
283,16	1224,69
283,37	1286,12
283,59	1302,51
283,80	1259,50
284,02	1259,50
284,23	1218,54
284,45	1279,98
284,66	1204,21
284,88	1265,64
285,09	1218,54
285,31	1284,08
285,52	1228,78
285,74	1253,36
285,95	1247,21
286,17	1236,97
286,38	1277,93
286,60	1351,66
286,81	1259,50
287,03	1320,94
287,24	1224,69
287,46	1292,27
287,67	1261,55
287,89	1208,30
288,10	1271,79
288,32	1288,17
288,53	1282,03
288,75	1294,32
288,96	1265,64
289,18	1322,99
289,39	1239,02
289,61	1282,03
289,82	1314,80
290,04	1230,83
290,25	1263,60
290,47	1298,41
290,68	1253,36
290,90	1212,40
291,11	1282,03
291,33	1292,27
291,54	1327,08
291,76	1230,83
291,97	1251,31
292,18	1245,16
292,40	1269,74
292,61	1271,79
292,83	1261,55
293,04	1314,80
293,26	1290,22
293,47	1288,17
293,69	1265,64
293,90	1259,50
294,12	1312,75
294,33	1306,60
294,55	1308,65
294,76	1216,49
294,97	1257,45
295,19	1314,80
295,40	1318,89
295,62	1327,08
295,83	1282,03
296,05	1241,07
296,26	1382,38
296,48	1277,93
296,69	1241,07
296,90	1308,65
297,12	1273,84
297,33	1163,25
297,55	1300,46
297,76	1243,12
297,98	1218,54
298,19	1247,21
298,41	1239,02
298,62	1282,03
298,83	1204,21
299,05	1200,11
299,26	1206,25
299,48	1214,45
299,69	1279,98
299,90	1249,26
300,12	1267,69
300,33	1265,64
300,55	1304,56
300,76	1247,21
300,98	1265,64
301,19	1314,80
301,40	1290,22
301,62	1214,45
301,83	1236,97
302,05	1257,45
302,26	1353,71
302,47	1320,94
302,69	1277,93
302,90	1300,46
303,12	1361,90
303,33	1273,84
303,54	1277,93
303,76	1216,49
303,97	1329,13
304,19	1292,27
304,40	1345,52
304,61	1216,49
304,83	1304,56
305,04	1247,21
305,26	1292,27
305,47	1277,93
305,68	1236,97
305,90	1288,17
306,11	1316,84
306,33	1294,32
306,54	1247,21
306,75	1273,84
306,97	1163,25
307,18	1312,75
307,39	1269,74
307,61	1241,07
307,82	1265,64
308,04	1257,45
308,25	1306,60
308,46	1318,89
308,68	1222,64
308,89	1292,27
309,10	1284,08
309,32	1288,17
309,53	1224,69
309,74	1234,93
309,96	1300,46
310,17	1306,60
310,39	1245,16
310,60	1302,51
310,81	1398,76
311,03	1175,53
311,24	1345,52
311,45	1359,85
311,67	1290,22
311,88	1308,65
312,09	1232,88
312,31	1296,36
312,52	1271,79
312,73	1271,79
312,95	1261,55
313,16	1284,08
313,37	1222,64
313,59	1298,41
313,80	1288,17
314,01	1314,80
314,23	1216,49
314,44	1267,69
314,65	1273,84
314,87	1310,70
315,08	1222,64
315,29	1282,03
315,51	1294,32
315,72	1322,99
315,93	1282,03
316,15	1257,45
316,36	1298,41
316,57	1263,60
316,79	1257,45
317,00	1255,40
317,21	1292,27
317,43	1282,03
317,64	1224,69
317,85	1335,28
318,07	1265,64
318,28	1173,49
318,49	1247,21
318,70	1308,65
318,92	1288,17
319,13	1257,45
319,34	1279,98
319,56	1310,70
319,77	1232,88
319,98	1304,56
320,20	1247,21
320,41	1312,75
320,62	1214,45
320,83	1245,16
321,05	1245,16
321,26	1265,64
321,47	1267,69
321,69	1284,08
321,90	1279,98
322,11	1327,08
322,32	1220,59
322,54	1267,69
322,75	1277,93
322,96	1228,78
323,18	1243,12
323,39	1261,55
323,60	1282,03
323,81	1259,50
324,03	1269,74
324,24	1304,56
324,45	1282,03
324,66	1300,46
324,88	1255,40
325,09	1329,13
325,30	1230,83
325,52	1288,17
325,73	1277,93
325,94	1224,69
326,15	1343,47
326,37	1333,23
326,58	1261,55
326,79	1257,45
327,00	1236,97
327,22	1282,03
327,43	1341,42
327,64	1314,80
327,85	1259,50
328,07	1255,40
328,28	1269,74
328,49	1292,27
328,70	1292,27
328,92	1308,65
329,13	1269,74
329,34	1255,40
329,55	1298,41
329,76	1257,45
329,98	1308,65
330,19	1335,28
330,40	1339,37
330,61	1359,85
330,83	1253,36
331,04	1226,73
331,25	1243,12
331,46	1292,27
331,68	1239,02
331,89	1345,52
332,10	1300,46
332,31	1263,60
332,52	1216,49
332,74	1263,60
332,95	1304,56
333,16	1339,37
333,37	1220,59
333,58	1284,08
333,80	1241,07
334,01	1337,32
334,22	1247,21
334,43	1253,36
334,64	1239,02
334,86	1298,41
335,07	1271,79
335,28	1271,79
335,49	1296,36
335,70	1275,88
335,92	1277,93
336,13	1216,49
336,34	1316,84
336,55	1245,16
336,76	1310,70
336,98	1314,80
337,19	1263,60
337,40	1298,41
337,61	1310,70
337,82	1314,80
338,04	1273,84
338,25	1216,49
338,46	1241,07
338,67	1177,58
338,88	1277,93
339,09	1249,26
339,31	1279,98
339,52	1236,97
339,73	1269,74
339,94	1320,94
340,15	1239,02
340,36	1241,07
340,58	1292,27
340,79	1265,64
341,00	1273,84
341,21	1259,50
341,42	1243,12
341,63	1265,64
341,85	1279,98
342,06	1239,02
342,27	1269,74
342,48	1259,50
342,69	1275,88
342,90	1279,98
343,12	1247,21
343,33	1300,46
343,54	1314,80
343,75	1230,83
343,96	1257,45
344,17	1282,03
344,38	1239,02
344,60	1320,94
344,81	1200,11
345,02	1331,18
345,23	1325,04
345,44	1304,56
345,65	1218,54
345,86	1245,16
346,07	1269,74
346,29	1279,98
346,50	1218,54
346,71	1349,61
346,92	1404,91
347,13	1275,88
347,34	1318,89
347,55	1241,07
347,76	1200,11
347,98	1273,84
348,19	1218,54
348,40	1318,89
348,61	1277,93
348,82	1296,36
349,03	1318,89
349,24	1290,22
349,45	1279,98
349,66	1265,64
349,88	1271,79
350,09	1220,59
350,30	1310,70
350,51	1251,31
350,72	1275,88
350,93	1302,51
351,14	1284,08
351,35	1288,17
351,56	1277,93
351,77	1220,59
351,99	1185,77
352,20	1263,60
352,41	1251,31
352,62	1249,26
352,83	1208,30
353,04	1349,61
353,25	1241,07
353,46	1232,88
353,67	1253,36
353,88	1247,21
354,09	1261,55
354,30	1249,26
354,52	1269,74
354,73	1247,21
354,94	1284,08
355,15	1263,60
355,36	1259,50
355,57	1298,41
355,78	1259,50
355,99	1239,02
356,20	1292,27
356,41	1277,93
356,62	1345,52
356,83	1253,36
357,04	1230,83
357,25	1298,41
357,46	1234,93
357,68	1279,98
357,89	1282,03
358,10	1290,22
358,31	1255,40
358,52	1282,03
358,73	1228,78
358,94	1271,79
359,15	1327,08
359,36	1257,45
359,57	1300,46
359,78	1214,45
359,99	1337,32
360,20	1296,36
360,41	1314,80
360,62	1247,21
360,83	1292,27
361,04	1236,97
361,25	1236,97
361,46	1322,99
361,67	1302,51
361,88	1232,88
362,09	1290,22
362,30	1265,64
362,51	1282,03
362,72	1263,60
362,93	1265,64
363,14	1335,28
363,35	1269,74
363,56	1366,00
363,78	1275,88
363,99	1318,89
364,20	1312,75
364,41	1304,56
364,62	1286,12
364,83	1322,99
365,04	1247,21
365,25	1318,89
365,46	1320,94
365,67	1249,26
365,88	1224,69
366,09	1316,84
366,30	1292,27
366,51	1292,27
366,72	1292,27
366,93	1236,97
367,14	1202,16
367,35	1284,08
367,56	1271,79
367,77	1275,88
367,98	1239,02
368,18	1189,87
368,39	1271,79
368,60	1304,56
368,81	1214,45
369,02	1253,36
369,23	1343,47
369,44	1224,69
369,65	1214,45
369,86	1245,16
370,07	1247,21
370,28	1288,17
370,49	1296,36
370,70	1265,64
370,91	1232,88
371,12	1288,17
371,33	1339,37
371,54	1290,22
371,75	1337,32
371,96	1265,64
372,17	1228,78
372,38	1339,37
372,59	1247,21
372,80	1257,45
373,01	1304,56
373,22	1255,40
373,43	1243,12
373,64	1267,69
373,85	1341,42
374,06	1273,84
374,26	1257,45
374,47	1312,75
374,68	1247,21
374,89	1288,17
375,10	1249,26
375,31	1245,16
375,52	1234,93
375,73	1259,50
375,94	1294,32
376,15	1253,36
376,36	1234,93
376,57	1234,93
376,78	1282,03
376,99	1275,88
377,20	1310,70
377,40	1247,21
377,61	1265,64
377,82	1275,88
378,03	1335,28
378,24	1331,18
378,45	1261,55
378,66	1304,56
378,87	1191,92
379,08	1329,13
379,29	1239,02
379,50	1282,03
379,71	1277,93
379,91	1265,64
380,12	1320,94
380,33	1288,17
380,54	1275,88
380,75	1316,84
380,96	1243,12
381,17	1245,16
381,38	1243,12
381,59	1202,16
381,80	1275,88
382,00	1275,88
382,21	1241,07
382,42	1306,60
382,63	1290,22
382,84	1269,74
383,05	1247,21
383,26	1304,56
383,47	1241,07
383,68	1249,26
383,88	1267,69
384,09	1255,40
384,30	1279,98
384,51	1343,47
384,72	1179,63
384,93	1279,98
385,14	1310,70
385,35	1253,36
385,55	1259,50
385,76	1277,93
385,97	1226,73
386,18	1282,03
386,39	1370,09
386,60	1306,60
386,81	1290,22
387,02	1191,92
387,22	1243,12
387,43	1298,41
387,64	1292,27
387,85	1306,60
388,06	1226,73
388,27	1241,07
388,48	1277,93
388,68	1286,12
388,89	1191,92
389,10	1298,41
389,31	1288,17
389,52	1253,36
389,73	1232,88
389,93	1269,74
390,14	1331,18
390,35	1253,36
390,56	1208,30
390,77	1282,03
390,98	1241,07
391,18	1257,45
391,39	1320,94
391,60	1302,51
391,81	1251,31
392,02	1212,40
392,23	1222,64
392,43	1337,32
392,64	1241,07
392,85	1265,64
393,06	1228,78
393,27	1314,80
393,47	1245,16
393,68	1318,89
393,89	1327,08
394,10	1255,40
394,31	1212,40
394,52	1304,56
394,72	1232,88
394,93	1282,03
395,14	1345,52
395,35	1331,18
395,56	1247,21
395,76	1277,93
395,97	1306,60
396,18	1251,31
396,39	1275,88
396,60	1300,46
396,80	1232,88
397,01	1214,45
397,22	1282,03
397,43	1310,70
397,64	1265,64
397,84	1306,60
398,05	1337,32
398,26	1253,36
398,47	1329,13
398,67	1322,99
398,88	1314,80
399,09	1259,50
399,30	1273,84
399,51	1230,83
399,71	1253,36
399,92	1304,56
400,13	1232,88
400,34	1263,60
400,54	1253,36
400,75	1382,38
400,96	1255,40
401,17	1304,56
401,37	1257,45
401,58	1372,14
401,79	1236,97
402,00	1275,88
402,21	1216,49
402,41	1259,50
402,62	1284,08
402,83	1198,06
403,04	1333,23
403,24	1277,93
403,45	1228,78
403,66	1249,26
403,87	1284,08
404,07	1320,94
404,28	1284,08
404,49	1241,07
404,70	1314,80
404,90	1267,69
405,11	1355,76
405,32	1249,26
405,52	1257,45
405,73	1255,40
405,94	1232,88
406,15	1284,08
406,35	1298,41
406,56	1296,36
406,77	1298,41
406,98	1284,08
407,18	1296,36
407,39	1286,12
407,60	1236,97
407,80	1275,88
408,01	1257,45
408,22	1341,42
408,43	1253,36
408,63	1275,88
408,84	1290,22
409,05	1320,94
409,25	1290,22
409,46	1251,31
409,67	1308,65
409,88	1230,83
410,08	1302,51
410,29	1269,74
410,50	1267,69
410,70	1222,64
410,91	1275,88
411,12	1284,08
411,32	1273,84
411,53	1339,37
411,74	1232,88
411,95	1208,30
412,15	1236,97
412,36	1265,64
412,57	1239,02
412,77	1284,08
412,98	1257,45
413,19	1292,27
413,39	1298,41
413,60	1255,40
413,81	1288,17
414,01	1290,22
414,22	1300,46
414,43	1318,89
414,63	1243,12
414,84	1282,03
415,05	1265,64
415,25	1218,54
415,46	1290,22
415,67	1329,13
415,87	1267,69
416,08	1265,64
416,29	1327,08
416,49	1267,69
416,70	1271,79
416,91	1288,17
417,11	1206,25
417,32	1294,32
417,53	1304,56
417,73	1243,12
417,94	1226,73
418,15	1292,27
418,35	1232,88
418,56	1267,69
418,77	1296,36
418,97	1294,32
419,18	1292,27
419,38	1208,30
419,59	1314,80
419,80	1306,60
420,00	1224,69
420,21	1316,84
420,42	1198,06
420,62	1273,84
420,83	1214,45
421,04	1298,41
421,24	1245,16
421,45	1200,11
421,65	1220,59
421,86	1214,45
422,07	1243,12
422,27	1259,50
422,48	1265,64
422,69	1288,17
422,89	1241,07
423,10	1249,26
423,30	1273,84
423,51	1241,07
423,72	1288,17
423,92	1239,02
424,13	1282,03
424,33	1314,80
424,54	1196,01
424,75	1316,84
424,95	1261,55
425,16	1273,84
425,36	1273,84
425,57	1310,70
425,78	1325,04
425,98	1271,79
426,19	1302,51
426,39	1263,60
426,60	1284,08
426,81	1292,27
427,01	1322,99
427,22	1292,27
427,42	1298,41
427,63	1316,84
427,83	1290,22
428,04	1343,47
428,25	1259,50
428,45	1325,04
428,66	1327,08
428,86	1224,69
429,07	1232,88
429,28	1228,78
429,48	1286,12
429,69	1322,99
429,89	1302,51
430,10	1253,36
430,30	1316,84
430,51	1282,03
430,71	1273,84
430,92	1284,08
431,13	1241,07
431,33	1232,88
431,54	1257,45
431,74	1232,88
431,95	1318,89
432,15	1310,70
432,36	1253,36
432,56	1343,47
432,77	1269,74
432,98	1290,22
433,18	1380,33
433,39	1255,40
433,59	1259,50
433,80	1300,46
434,00	1304,56
434,21	1277,93
434,41	1214,45
434,62	1286,12
434,82	1308,65
435,03	1253,36
435,23	1333,23
435,44	1304,56
435,64	1298,41
435,85	1263,60
436,06	1271,79
436,26	1361,90
436,47	1286,12
436,67	1306,60
436,88	1292,27
437,08	1279,98
437,29	1302,51
437,49	1341,42
437,70	1275,88
437,90	1153,01
438,11	1286,12
438,31	1294,32
438,52	1263,60
438,72	1236,97
438,93	1251,31
439,13	1265,64
439,34	1232,88
439,54	1296,36
439,75	1261,55
439,95	1282,03
440,16	1247,21
440,36	1273,84
440,57	1288,17
440,77	1232,88
440,98	1212,40
441,18	1265,64
441,39	1257,45
441,59	1273,84
441,80	1322,99
442,00	1263,60
442,21	1316,84
442,41	1220,59
442,62	1228,78
442,82	1325,04
443,02	1310,70
443,23	1230,83
443,43	1267,69
443,64	1320,94
443,84	1210,35
444,05	1298,41
444,25	1261,55
444,46	1183,73
444,66	1333,23
444,87	1236,97
445,07	1271,79
445,28	1294,32
445,48	1263,60
445,69	1316,84
445,89	1253,36
446,09	1263,60
446,30	1265,64
446,50	1243,12
446,71	1243,12
446,91	1224,69
447,12	1236,97
447,32	1267,69
447,53	1271,79
447,73	1316,84
447,93	1355,76
448,14	1279,98
448,34	1202,16
448,55	1255,40
448,75	1302,51
448,96	1206,25
449,16	1290,22
449,36	1261,55
449,57	1257,45
449,77	1314,80
449,98	1316,84
450,18	1249,26
450,39	1265,64
450,59	1304,56
450,79	1294,32
451,00	1277,93
451,20	1251,31
451,41	1363,95
451,61	1208,30
451,81	1269,74
452,02	1294,32
452,22	1306,60
452,43	1216,49
452,63	1236,97
452,84	1292,27
453,04	1288,17
453,24	1298,41
453,45	1261,55
453,65	1279,98
453,86	1255,40
454,06	1271,79
454,26	1349,61
454,47	1273,84
454,67	1318,89
454,87	1263,60
455,08	1265,64
455,28	1241,07
455,49	1327,08
455,69	1331,18
455,89	1273,84
456,10	1247,21
456,30	1288,17
456,51	1251,31
456,71	1249,26
456,91	1351,66
457,12	1263,60
457,32	1271,79
457,52	1236,97
457,73	1239,02
457,93	1269,74
458,14	1335,28
458,34	1185,77
458,54	1312,75
458,75	1249,26
458,95	1255,40
459,15	1322,99
459,36	1282,03
459,56	1241,07
459,76	1269,74
459,97	1230,83
460,17	1267,69
460,37	1239,02
460,58	1275,88
460,78	1288,17
460,99	1232,88
461,19	1228,78
461,39	1290,22
461,60	1304,56
461,80	1255,40
462,00	1275,88
462,21	1245,16
462,41	1206,25
462,61	1232,88
462,82	1239,02
463,02	1214,45
463,22	1314,80
463,43	1239,02
463,63	1220,59
463,83	1259,50
464,04	1331,18
464,24	1316,84
464,44	1316,84
464,64	1279,98
464,85	1310,70
465,05	1243,12
465,25	1331,18
465,46	1236,97
465,66	1282,03
465,86	1314,80
466,07	1253,36
466,27	1282,03
466,47	1263,60
466,68	1239,02
466,88	1347,56
467,08	1271,79
467,29	1284,08
467,49	1228,78
467,69	1279,98
467,89	1282,03
468,10	1316,84
468,30	1228,78
468,50	1298,41
468,71	1277,93
468,91	1279,98
469,11	1245,16
469,31	1255,40
469,52	1267,69
469,72	1255,40
469,92	1239,02
470,13	1241,07
470,33	1279,98
470,53	1245,16
470,73	1359,85
470,94	1239,02
471,14	1288,17
471,34	1316,84
471,54	1224,69
471,75	1288,17
471,95	1150,96
472,15	1300,46
472,36	1300,46
472,56	1259,50
472,76	1265,64
472,96	1261,55
473,17	1253,36
473,37	1245,16
473,57	1255,40
473,77	1275,88
473,98	1245,16
474,18	1279,98
474,38	1232,88
474,58	1282,03
474,79	1214,45
474,99	1304,56
475,19	1331,18
475,39	1300,46
475,60	1259,50
475,80	1175,53
476,00	1339,37
476,20	1255,40
476,41	1290,22
476,61	1308,65
476,81	1312,75
477,01	1198,06
477,21	1322,99
477,42	1306,60
477,62	1292,27
477,82	1277,93
478,02	1249,26
478,23	1241,07
478,43	1331,18
478,63	1269,74
478,83	1304,56
479,03	1245,16
479,24	1249,26
479,44	1286,12
479,64	1333,23
479,84	1386,47
480,04	1261,55
480,25	1222,64
480,45	1306,60
480,65	1273,84
480,85	1294,32
481,06	1259,50
481,26	1316,84
481,46	1241,07
481,66	1261,55
481,86	1286,12
482,06	1261,55
482,27	1257,45
482,47	1241,07
482,67	1259,50
482,87	1288,17
483,07	1304,56
483,28	1279,98
483,48	1333,23
483,68	1183,73
483,88	1304,56
484,08	1245,16
484,29	1257,45
484,49	1279,98
484,69	1277,93
484,89	1206,25
485,09	1245,16
485,29	1214,45
485,50	1239,02
485,70	1249,26
485,90	1302,51
486,10	1234,93
486,30	1265,64
486,50	1320,94
486,71	1185,77
486,91	1249,26
487,11	1255,40
487,31	1261,55
487,51	1322,99
487,71	1318,89
487,91	1265,64
488,12	1275,88
488,32	1239,02
488,52	1208,30
488,72	1349,61
488,92	1247,21
489,12	1265,64
489,32	1241,07
489,53	1241,07
489,73	1282,03
489,93	1251,31
490,13	1277,93
490,33	1167,34
490,53	1259,50
490,73	1198,06
490,94	1296,36
491,14	1255,40
491,34	1263,60
491,54	1282,03
491,74	1322,99
491,94	1277,93
492,14	1232,88
492,34	1196,01
492,54	1234,93
492,75	1265,64
492,95	1273,84
493,15	1247,21
493,35	1277,93
493,55	1345,52
493,75	1351,66
493,95	1273,84
494,15	1333,23
494,35	1271,79
494,56	1343,47
494,76	1222,64
494,96	1210,35
495,16	1290,22
495,36	1284,08
495,56	1259,50
495,76	1314,80
495,96	1232,88
496,16	1255,40
496,36	1257,45
496,56	1228,78
496,77	1255,40
496,97	1236,97
497,17	1224,69
497,37	1279,98
497,57	1232,88
497,77	1226,73
497,97	1236,97
498,17	1314,80
498,37	1216,49
498,57	1181,68
498,77	1245,16
498,97	1220,59
499,17	1259,50
499,38	1249,26
499,58	1271,79
499,78	1304,56
499,98	1320,94
500,18	1308,65
500,38	1290,22
500,58	1288,17
500,78	1230,83
500,98	1249,26
501,18	1265,64
501,38	1290,22
501,58	1290,22
501,78	1314,80
501,98	1288,17
502,18	1253,36
502,38	1236,97
502,58	1200,11
502,78	1290,22
502,98	1300,46
503,18	1273,84
503,38	1282,03
503,59	1284,08
503,79	1388,52
503,99	1320,94
504,19	1304,56
504,39	1267,69
504,59	1294,32
504,79	1296,36
504,99	1241,07
505,19	1265,64
505,39	1255,40
505,59	1249,26
505,79	1296,36
505,99	1247,21
506,19	1333,23
506,39	1241,07
506,59	1286,12
506,79	1263,60
506,99	1357,80
507,19	1294,32
507,39	1210,35
507,59	1318,89
507,79	1302,51
507,99	1288,17
508,19	1263,60
508,39	1265,64
508,59	1279,98
508,79	1322,99
508,99	1224,69
509,19	1263,60
509,39	1282,03
509,59	1249,26
509,79	1247,21
509,99	1259,50
510,19	1322,99
510,39	1279,98
510,59	1269,74
510,79	1282,03
510,99	1349,61
511,19	1273,84
511,39	1271,79
511,59	1234,93
511,79	1312,75
511,99	1345,52
512,19	1230,83
512,38	1308,65
512,58	1243,12
512,78	1257,45
512,98	1286,12
513,18	1257,45
513,38	1261,55
513,58	1247,21
513,78	1271,79
513,98	1251,31
514,18	1193,97
514,38	1282,03
514,58	1339,37
514,78	1261,55
514,98	1275,88
515,18	1308,65
515,38	1210,35
515,58	1230,83
515,78	1306,60
515,98	1298,41
516,18	1228,78
516,38	1200,11
516,57	1193,97
516,77	1265,64
516,97	1271,79
517,17	1288,17
517,37	1241,07
517,57	1269,74
517,77	1232,88
517,97	1269,74
518,17	1157,10
518,37	1253,36
518,57	1284,08
518,77	1279,98
518,97	1320,94
519,16	1294,32
519,36	1306,60
519,56	1159,15
519,76	1267,69
519,96	1265,64
520,16	1269,74
520,36	1282,03
520,56	1273,84
520,76	1275,88
520,96	1265,64
521,16	1308,65
521,35	1230,83
521,55	1286,12
521,75	1345,52
521,95	1273,84
522,15	1310,70
522,35	1271,79
522,55	1292,27
522,75	1349,61
522,95	1320,94
523,14	1230,83
523,34	1241,07
523,54	1241,07
523,74	1271,79
523,94	1312,75
524,14	1218,54
524,34	1282,03
524,54	1300,46
524,73	1282,03
524,93	1284,08
525,13	1259,50
525,33	1286,12
525,53	1279,98
525,73	1275,88
525,93	1249,26
526,13	1298,41
526,32	1300,46
526,52	1290,22
526,72	1259,50
526,92	1247,21
527,12	1288,17
527,32	1263,60
527,52	1320,94
527,71	1257,45
527,91	1261,55
528,11	1261,55
528,31	1265,64
528,51	1228,78
528,71	1263,60
528,90	1314,80
529,10	1310,70
529,30	1349,61
529,50	1327,08
529,70	1153,01
529,90	1236,97
530,09	1286,12
530,29	1232,88
530,49	1265,64
530,69	1322,99
530,89	1279,98
531,09	1290,22
531,28	1282,03
531,48	1282,03
531,68	1228,78
531,88	1257,45
532,08	1277,93
532,28	1300,46
532,47	1304,56
532,67	1320,94
532,87	1343,47
533,07	1335,28
533,27	1304,56
533,46	1308,65
533,66	1302,51
533,86	1275,88
534,06	1363,95
534,26	1232,88
534,45	1181,68
534,65	1290,22
534,85	1261,55
535,05	1218,54
535,25	1196,01
535,44	1312,75
535,64	1288,17
535,84	1271,79
536,04	1327,08
536,24	1296,36
536,43	1296,36
536,63	1331,18
536,83	1255,40
537,03	1345,52
537,22	1286,12
537,42	1267,69
537,62	1243,12
537,82	1189,87
538,02	1361,90
538,21	1329,13
538,41	1214,45
538,61	1273,84
538,81	1331,18
539,00	1290,22
539,20	1251,31
539,40	1269,74
539,60	1282,03
539,79	1228,78
539,99	1267,69
540,19	1247,21
540,39	1273,84
540,58	1298,41
540,78	1243,12
540,98	1255,40
541,18	1251,31
541,37	1304,56
541,57	1290,22
541,77	1249,26
541,97	1312,75
542,16	1296,36
542,36	1288,17
542,56	1275,88
542,76	1286,12
542,95	1249,26
543,15	1269,74
543,35	1320,94
543,54	1361,90
543,74	1378,28
543,94	1320,94
544,14	1345,52
544,33	1277,93
544,53	1253,36
544,73	1333,23
544,93	1263,60
545,12	1247,21
545,32	1236,97
545,52	1275,88
545,71	1251,31
545,91	1349,61
546,11	1220,59
546,30	1259,50
546,50	1198,06
546,70	1251,31
546,90	1253,36
547,09	1370,09
547,29	1298,41
547,49	1265,64
547,68	1243,12
547,88	1257,45
548,08	1318,89
548,27	1366,00
548,47	1241,07
548,67	1308,65
548,87	1263,60
549,06	1187,82
549,26	1267,69
549,46	1277,93
549,65	1284,08
549,85	1241,07
550,05	1267,69
550,24	1212,40
550,44	1249,26
550,64	1224,69
550,83	1224,69
551,03	1294,32
551,23	1251,31
551,42	1322,99
551,62	1257,45
551,82	1296,36
552,01	1208,30
552,21	1247,21
552,41	1220,59
552,60	1224,69
552,80	1251,31
553,00	1333,23
553,19	1208,30
553,39	1257,45
553,59	1298,41
553,78	1314,80
553,98	1275,88
554,17	1228,78
554,37	1261,55
554,57	1286,12
554,76	1239,02
554,96	1320,94
555,16	1216,49
555,35	1286,12
555,55	1255,40
555,75	1302,51
555,94	1304,56
556,14	1277,93
556,33	1333,23
556,53	1177,58
556,73	1316,84
556,92	1249,26
557,12	1288,17
557,32	1300,46
557,51	1282,03
557,71	1253,36
557,90	1249,26
558,10	1179,63
558,30	1288,17
558,49	1243,12
558,69	1191,92
558,88	1261,55
559,08	1239,02
559,28	1261,55
559,47	1298,41
559,67	1292,27
559,86	1290,22
560,06	1216,49
560,26	1265,64
560,45	1191,92
560,65	1331,18
560,84	1206,25
561,04	1314,80
561,24	1351,66
561,43	1249,26
561,63	1245,16
561,82	1261,55
562,02	1308,65
562,22	1247,21
562,41	1396,71
562,61	1234,93
562,80	1388,52
563,00	1294,32
563,19	1277,93
563,39	1267,69
563,59	1265,64
563,78	1193,97
563,98	1263,60
564,17	1282,03
564,37	1331,18
564,56	1298,41
564,76	1306,60
564,96	1269,74
565,15	1298,41
565,35	1286,12
565,54	1253,36
565,74	1253,36
565,93	1302,51
566,13	1331,18
566,32	1259,50
566,52	1290,22
566,71	1245,16
566,91	1302,51
567,11	1308,65
567,30	1310,70
567,50	1212,40
567,69	1277,93
567,89	1167,34
568,08	1279,98
568,28	1239,02
568,47	1228,78
568,67	1288,17
568,86	1314,80
569,06	1277,93
569,25	1214,45
569,45	1220,59
569,64	1273,84
569,84	1296,36
570,04	1255,40
570,23	1261,55
570,43	1306,60
570,62	1228,78
570,82	1267,69
571,01	1241,07
571,21	1255,40
571,40	1265,64
571,60	1218,54
571,79	1230,83
571,99	1241,07
572,18	1271,79
572,38	1263,60
572,57	1361,90
572,77	1273,84
572,96	1247,21
573,16	1255,40
573,35	1247,21
573,55	1232,88
573,74	1191,92
573,94	1286,12
574,13	1249,26
574,33	1257,45
574,52	1302,51
574,71	1232,88
574,91	1335,28
575,10	1253,36
575,30	1290,22
575,49	1341,42
575,69	1257,45
575,88	1322,99
576,08	1249,26
576,27	1304,56
576,47	1359,85
576,66	1234,93
576,86	1236,97
577,05	1247,21
577,25	1318,89
577,44	1370,09
577,64	1275,88
577,83	1253,36
578,02	1263,60
578,22	1269,74
578,41	1300,46
578,61	1279,98
578,80	1292,27
579,00	1259,50
579,19	1335,28
579,39	1249,26
579,58	1189,87
579,77	1214,45
579,97	1279,98
580,16	1331,18
580,36	1259,50
580,55	1304,56
580,75	1296,36
580,94	1239,02
581,13	1271,79
581,33	1322,99
581,52	1282,03
581,72	1236,97
581,91	1261,55
582,11	1251,31
582,30	1257,45
582,49	1241,07
582,69	1279,98
582,88	1216,49
583,08	1267,69
583,27	1316,84
583,47	1282,03
583,66	1208,30
583,85	1269,74
584,05	1271,79
584,24	1234,93
584,44	1314,80
584,63	1226,73
584,82	1269,74
585,02	1255,40
585,21	1279,98
585,41	1261,55
585,60	1269,74
585,79	1267,69
585,99	1304,56
586,18	1304,56
586,37	1239,02
586,57	1230,83
586,76	1288,17
586,96	1216,49
587,15	1298,41
587,34	1277,93
587,54	1204,21
587,73	1302,51
587,93	1245,16
588,12	1302,51
588,31	1290,22
588,51	1271,79
588,70	1271,79
588,89	1316,84
589,09	1191,92
589,28	1325,04
589,47	1253,36
589,67	1298,41
589,86	1290,22
590,06	1302,51
590,25	1335,28
590,44	1327,08
590,64	1214,45
590,83	1243,12
591,02	1279,98
591,22	1200,11
591,41	1271,79
591,60	1267,69
591,80	1288,17
591,99	1257,45
592,18	1257,45
592,38	1298,41
592,57	1220,59
592,76	1232,88
592,96	1255,40
593,15	1275,88
593,34	1304,56
593,54	1300,46
593,73	1335,28
593,92	1282,03
594,12	1277,93
594,31	1239,02
594,50	1290,22
594,70	1232,88
594,89	1279,98
595,08	1273,84
595,28	1261,55
595,47	1273,84
595,66	1277,93
595,86	1198,06
596,05	1288,17
596,24	1271,79
596,43	1298,41
596,63	1306,60
596,82	1320,94
597,01	1294,32
597,21	1261,55
597,40	1290,22
597,59	1222,64
597,79	1279,98
597,98	1353,71
598,17	1232,88
598,36	1236,97
598,56	1236,97
598,75	1286,12
598,94	1228,78
599,14	1210,35
599,33	1261,55
599,52	1294,32
599,71	1296,36
599,91	1224,69
600,10	1341,42
600,29	1282,03
600,48	1269,74
600,68	1277,93
600,87	1273,84
601,06	1357,80
601,26	1198,06
601,45	1255,40
601,64	1187,82
601,83	1302,51
602,03	1343,47
602,22	1249,26
602,41	1241,07
602,60	1263,60
602,80	1236,97
602,99	1265,64
603,18	1269,74
603,37	1214,45
603,57	1267,69
603,76	1306,60
603,95	1224,69
604,14	1312,75
604,34	1284,08
604,53	1308,65
604,72	1284,08
604,91	1286,12
605,10	1306,60
605,30	1239,02
605,49	1296,36
605,68	1282,03
605,87	1282,03
606,07	1339,37
606,26	1251,31
606,45	1292,27
606,64	1226,73
606,84	1286,12
607,03	1275,88
607,22	1243,12
607,41	1228,78
607,60	1232,88
607,80	1388,52
607,99	1263,60
608,18	1261,55
608,37	1210,35
608,56	1193,97
608,76	1253,36
608,95	1290,22
609,14	1337,32
609,33	1271,79
609,52	1290,22
609,72	1269,74
609,91	1247,21
610,10	1251,31
610,29	1325,04
610,48	1308,65
610,68	1282,03
610,87	1189,87
611,06	1247,21
611,25	1271,79
611,44	1236,97
611,63	1314,80
611,83	1253,36
612,02	1185,77
612,21	1247,21
612,40	1277,93
612,59	1288,17
612,79	1318,89
612,98	1271,79
613,17	1306,60
613,36	1279,98
613,55	1341,42
613,74	1271,79
613,93	1304,56
614,13	1259,50
614,32	1308,65
614,51	1236,97
614,70	1298,41
614,89	1267,69
615,08	1308,65
615,28	1282,03
615,47	1263,60
615,66	1292,27
615,85	1327,08
616,04	1284,08
616,23	1288,17
616,42	1249,26
616,62	1261,55
616,81	1245,16
617,00	1259,50
617,19	1320,94
617,38	1351,66
617,57	1306,60
617,76	1288,17
617,95	1279,98
618,15	1261,55
618,34	1318,89
618,53	1296,36
618,72	1296,36
618,91	1210,35
619,10	1316,84
619,29	1243,12
619,48	1234,93
619,68	1318,89
619,87	1316,84
620,06	1259,50
620,25	1310,70
620,44	1222,64
620,63	1288,17
620,82	1259,50
621,01	1290,22
621,20	1294,32
621,39	1318,89
621,59	1277,93
621,78	1232,88
621,97	1232,88
622,16	1335,28
622,35	1286,12
622,54	1251,31
622,73	1277,93
622,92	1304,56
623,11	1318,89
623,30	1277,93
623,49	1359,85
623,68	1257,45
623,88	1257,45
624,07	1292,27
624,26	1241,07
624,45	1286,12
624,64	1198,06
624,83	1302,51
625,02	1304,56
625,21	1230,83
625,40	1269,74
625,59	1320,94
625,78	1318,89
625,97	1228,78
626,16	1220,59
626,35	1345,52
626,54	1265,64
626,74	1318,89
626,93	1241,07
627,12	1271,79
627,31	1327,08
627,50	1271,79
627,69	1261,55
627,88	1249,26
628,07	1275,88
628,26	1271,79
628,45	1347,56
628,64	1296,36
628,83	1279,98
629,02	1243,12
629,21	1273,84
629,40	1255,40
629,59	1247,21
629,78	1259,50
629,97	1241,07
630,16	1349,61
630,35	1306,60
630,54	1257,45
630,73	1351,66
630,92	1288,17
631,11	1290,22
631,30	1337,32
631,49	1413,10
631,68	1730,53
631,87	3278,80
632,06	9486,19
632,25	17514,23
632,44	22288,04
632,63	24635,02
632,82	14333,73
633,01	4929,46
633,20	3112,91
633,39	2838,48
633,58	2375,64
633,77	1785,83
633,96	1724,39
634,15	1726,44
634,34	1718,25
634,53	1624,04
634,72	1562,60
634,91	1523,69
635,10	1527,78
635,29	1470,44
635,48	1517,54
635,67	1417,19
635,86	1476,59
636,05	1333,23
636,24	1388,52
636,43	1374,19
636,62	1386,47
636,81	1374,19
637,00	1411,05
637,19	1304,56
637,38	1429,48
637,57	1320,94
637,76	1351,66
637,95	1378,28
638,14	1374,19
638,33	1327,08
638,52	1325,04
638,71	1273,84
638,89	1308,65
639,08	1230,83
639,27	1310,70
639,46	1347,56
639,65	1263,60
639,84	1245,16
640,03	1282,03
640,22	1396,71
640,41	1329,13
640,60	1308,65
640,79	1226,73
640,98	1236,97
641,17	1286,12
641,36	1320,94
641,55	1296,36
641,74	1255,40
641,92	1263,60
642,11	1374,19
642,30	1275,88
642,49	1300,46
642,68	1234,93
642,87	1286,12
643,06	1341,42
643,25	1259,50
643,44	1298,41
643,63	1286,12
643,82	1331,18
644,00	1200,11
644,19	1329,13
644,38	1279,98
644,57	1282,03
644,76	1345,52
644,95	1259,50
645,14	1304,56
645,33	1304,56
645,52	1273,84
645,71	1314,80
645,89	1286,12
646,08	1300,46
646,27	1273,84
646,46	1239,02
646,65	1267,69
646,84	1236,97
647,03	1333,23
647,22	1368,04
647,40	1310,70
647,59	1304,56
647,78	1320,94
647,97	1279,98
648,16	1290,22
648,35	1275,88
648,54	1230,83
648,73	1335,28
648,91	1165,29
649,10	1314,80
649,29	1275,88
649,48	1366,00
649,67	1251,31
649,86	1224,69
650,05	1247,21
650,23	1314,80
650,42	1220,59
650,61	1247,21
650,80	1263,60
650,99	1249,26
651,18	1292,27
651,36	1269,74
651,55	1282,03
651,74	1257,45
651,93	1216,49
652,12	1292,27
652,31	1239,02
652,49	1232,88
652,68	1267,69
652,87	1322,99
653,06	1232,88
653,25	1247,21
653,44	1245,16
653,62	1294,32
653,81	1290,22
654,00	1310,70
654,19	1306,60
654,38	1312,75
654,56	1271,79
654,75	1267,69
654,94	1333,23
655,13	1263,60
655,32	1259,50
655,51	1247,21
655,69	1253,36
655,88	1300,46
656,07	1314,80
656,26	1361,90
656,45	1265,64
656,63	1290,22
656,82	1300,46
657,01	1314,80
657,20	1279,98
657,38	1312,75
657,57	1271,79
657,76	1286,12
657,95	1320,94
658,14	1370,09
658,32	1263,60
658,51	1255,40
658,70	1286,12
658,89	1288,17
659,08	1263,60
659,26	1255,40
659,45	1286,12
659,64	1265,64
659,83	1273,84
660,01	1298,41
660,20	1232,88
660,39	1304,56
660,58	1263,60
660,76	1243,12
660,95	1347,56
661,14	1286,12
661,33	1245,16
661,51	1273,84
661,70	1243,12
661,89	1181,68
662,08	1198,06
662,26	1286,12
662,45	1241,07
662,64	1196,01
662,83	1318,89
663,01	1337,32
663,20	1298,41
663,39	1347,56
663,58	1257,45
663,76	1277,93
663,95	1243,12
664,14	1243,12
664,32	1239,02
664,51	1320,94
664,70	1253,36
664,89	1261,55
665,07	1249,26
665,26	1226,73
665,45	1275,88
665,64	1241,07
665,82	1308,65
666,01	1220,59
666,20	1167,34
666,38	1314,80
666,57	1183,73
666,76	1314,80
666,95	1265,64
667,13	1288,17
667,32	1236,97
667,51	1257,45
667,69	1241,07
667,88	1277,93
668,07	1249,26
668,25	1177,58
668,44	1263,60
668,63	1329,13
668,81	1224,69
669,00	1312,75
669,19	1206,25
669,38	1251,31
669,56	1271,79
669,75	1267,69
669,94	1282,03
670,12	1318,89
670,31	1251,31
670,50	1206,25
670,68	1175,53
670,87	1300,46
671,06	1265,64
671,24	1282,03
671,43	1230,83
671,62	1265,64
671,80	1294,32
671,99	1253,36
672,18	1269,74
672,36	1210,35
672,55	1232,88
672,74	1259,50
672,92	1271,79
673,11	1316,84
673,29	1189,87
673,48	1247,21
673,67	1263,60
673,85	1363,95
674,04	1234,93
674,23	1257,45
674,41	1249,26
674,60	1228,78
674,79	1226,73
674,97	1290,22
675,16	1234,93
675,34	1263,60
675,53	1232,88
675,72	1273,84
675,90	1335,28
676,09	1265,64
676,28	1241,07
676,46	1331,18
676,65	1259,50
676,83	1327,08
677,02	1325,04
677,21	1269,74
677,39	1200,11
677,58	1222,64
677,77	1273,84
677,95	1298,41
678,14	1325,04
678,32	1284,08
678,51	1275,88
678,70	1277,93
678,88	1224,69
679,07	1247,21
679,25	1253,36
679,44	1284,08
679,63	1292,27
679,81	1259,50
680,00	1216,49
680,18	1230,83
680,37	1302,51
680,55	1259,50
680,74	1312,75
680,93	1306,60
681,11	1247,21
681,30	1288,17
681,48	1265,64
681,67	1273,84
681,85	1267,69
682,04	1279,98
682,23	1339,37
682,41	1298,41
682,60	1306,60
682,78	1302,51
682,97	1290,22
683,15	1343,47
683,34	1220,59
683,53	1282,03
683,71	1282,03
683,90	1322,99
684,08	1206,25
684,27	1310,70
684,45	1275,88
684,64	1222,64
684,82	1363,95
685,01	1224,69
685,19	1224,69
685,38	1337,32
685,57	1333,23
685,75	1261,55
685,94	1228,78
686,12	1239,02
686,31	1273,84
686,49	1271,79
686,68	1300,46
686,86	1212,40
687,05	1275,88
687,23	1314,80
687,42	1257,45
687,60	1241,07
687,79	1265,64
687,97	1228,78
688,16	1253,36
688,34	1339,37
688,53	1265,64
688,71	1275,88
688,90	1271,79
689,08	1320,94
689,27	1275,88
689,45	1263,60
689,64	1337,32
689,82	1282,03
690,01	1243,12
690,19	1251,31
690,38	1308,65
690,56	1294,32
690,75	1265,64
690,93	1249,26
691,12	1236,97
691,30	1261,55
691,49	1310,70
691,67	1277,93
691,86	1304,56
692,04	1263,60
692,23	1224,69
692,41	1265,64
692,60	1298,41
692,78	1241,07
692,97	1228,78
693,15	1183,73
693,34	1347,56
693,52	1310,70
693,71	1325,04
693,89	1288,17
694,08	1298,41
694,26	1239,02
694,44	1228,78
694,63	1327,08
694,81	1212,40
695,00	1269,74
695,18	1245,16
695,37	1294,32
695,55	1193,97
695,74	1279,98
695,92	1304,56
696,10	1232,88
696,29	1284,08
696,47	1273,84
696,66	1318,89
696,84	1284,08
697,03	1239,02
697,21	1320,94
697,40	1345,52
697,58	1318,89
697,76	1206,25
697,95	1329,13
698,13	1335,28
698,32	1298,41
698,50	1284,08
698,68	1316,84
698,87	1265,64
699,05	1245,16
699,24	1263,60
699,42	1318,89
699,61	1296,36
699,79	1282,03
699,97	1265,64
700,16	1239,02
700,34	1279,98
700,53	1257,45
700,71	1370,09
700,89	1245,16
701,08	1239,02
701,26	1234,93
701,45	1255,40
701,63	1335,28
701,81	1236,97
702,00	1275,88
702,18	1267,69
702,37	1339,37
702,55	1273,84
702,73	1247,21
702,92	1228,78
703,10	1261,55
703,28	1247,21
703,47	1282,03
703,65	1232,88
703,84	1279,98
704,02	1239,02
704,20	1312,75
704,39	1286,12
704,57	1257,45
704,75	1239,02
704,94	1259,50
705,12	1241,07
705,30	1314,80
705,49	1368,04
705,67	1298,41
705,86	1333,23
706,04	1282,03
706,22	1267,69
706,41	1343,47
706,59	1214,45
706,77	1263,60
706,96	1286,12
707,14	1290,22
707,32	1298,41
707,51	1310,70
707,69	1245,16
707,87	1275,88
708,06	1275,88
708,24	1288,17
708,42	1325,04
708,61	1259,50
708,79	1312,75
708,97	1271,79
709,16	1263,60
709,34	1198,06
709,52	1282,03
709,71	1259,50
709,89	1288,17
710,07	1249,26
710,26	1265,64
710,44	1263,60
710,62	1263,60
710,80	1232,88
710,99	1316,84
711,17	1277,93
711,35	1318,89
711,54	1359,85
711,72	1255,40
711,90	1306,60
712,09	1232,88
712,27	1300,46
712,45	1316,84
712,63	1228,78
712,82	1245,16
713,00	1304,56
713,18	1275,88
713,37	1212,40
713,55	1275,88
713,73	1273,84
713,91	1273,84
714,10	1208,30
714,28	1245,16
714,46	1253,36
714,65	1382,38
714,83	1298,41
715,01	1230,83
715,19	1171,44
715,38	1191,92
715,56	1361,90
715,74	1292,27
715,92	1284,08
716,11	1259,50
716,29	1218,54
716,47	1300,46
716,65	1261,55
716,84	1277,93
717,02	1263,60
717,20	1261,55
717,38	1191,92
717,57	1226,73
717,75	1341,42
717,93	1249,26
718,11	1230,83
718,30	1232,88
718,48	1234,93
718,66	1282,03
718,84	1224,69
719,03	1239,02
719,21	1234,93
719,39	1249,26
719,57	1273,84
719,75	1296,36
719,94	1224,69
720,12	1228,78
720,30	1247,21
720,48	1267,69
720,67	1333,23
720,85	1245,16
721,03	1243,12
721,21	1251,31
721,39	1275,88
721,58	1232,88
721,76	1200,11
721,94	1226,73
722,12	1220,59
722,30	1298,41
722,49	1261,55
722,67	1261,55
722,85	1327,08
723,03	1327,08
723,21	1249,26
723,40	1271,79
723,58	1210,35
723,76	1286,12
723,94	1282,03
724,12	1255,40
724,30	1288,17
724,49	1212,40
724,67	1308,65
724,85	1306,60
725,03	1329,13
725,21	1290,22
725,40	1341,42
725,58	1216,49
725,76	1294,32
725,94	1314,80
726,12	1232,88
726,30	1273,84
726,49	1267,69
726,67	1286,12
726,85	1241,07
727,03	1286,12
727,21	1271,79
727,39	1353,71
727,57	1304,56
727,76	1230,83
727,94	1255,40
728,12	1271,79
728,30	1282,03
728,48	1261,55
728,66	1249,26
728,84	1286,12
729,03	1263,60
729,21	1296,36
729,39	1279,98
729,57	1269,74
729,75	1366,00
729,93	1277,93
730,11	1310,70
730,30	1308,65
730,48	1249,26
730,66	1245,16
730,84	1241,07
731,02	1269,74
731,20	1277,93
731,38	1239,02
731,56	1239,02
731,74	1269,74
731,93	1304,56
732,11	1261,55
732,29	1304,56
732,47	1230,83
732,65	1290,22
732,83	1255,40
733,01	1279,98
733,19	1277,93
733,37	1265,64
733,56	1224,69
733,74	1275,88
733,92	1273,84
734,10	1290,22
734,28	1296,36
734,46	1292,27
734,64	1241,07
734,82	1241,07
735,00	1282,03
735,18	1290,22
735,36	1282,03
735,54	1277,93
735,73	1337,32
735,91	1294,32
736,09	1185,77
736,27	1308,65
736,45	1322,99
736,63	1290,22
736,81	1316,84
736,99	1261,55
737,17	1253,36
737,35	1282,03
737,53	1337,32
737,71	1292,27
737,89	1325,04
738,07	1259,50
738,25	1263,60
738,43	1251,31
738,61	1257,45
738,80	1298,41
738,98	1277,93
739,16	1257,45
739,34	1275,88
739,52	1316,84
739,70	1228,78
739,88	1257,45
740,06	1253,36
740,24	1282,03
740,42	1210,35
740,60	1261,55
740,78	1198,06
740,96	1216,49
741,14	1288,17
741,32	1275,88
741,50	1257,45
741,68	1249,26
741,86	1259,50
742,04	1306,60
742,22	1208,30
742,40	1314,80
742,58	1239,02
742,76	1251,31
742,94	1312,75
743,12	1312,75
743,30	1322,99
743,48	1273,84
743,66	1265,64
743,84	1304,56
744,02	1298,41
744,20	1333,23
744,38	1271,79
744,56	1296,36
744,74	1222,64
744,92	1359,85
745,10	1312,75
745,28	1269,74
745,46	1234,93
745,64	1273,84
745,82	1312,75
746,00	1255,40
746,18	1236,97
746,36	1296,36
746,54	1302,51
746,72	1273,84
746,90	1236,97
747,08	1187,82
747,26	1200,11
747,44	1282,03
747,62	1228,78
747,80	1267,69
747,98	1267,69
748,15	1312,75
748,33	1257,45
748,51	1347,56
748,69	1222,64
748,87	1265,64
749,05	1290,22
749,23	1208,30
749,41	1306,60
749,59	1308,65
749,77	1257,45
749,95	1271,79
750,13	1232,88
750,31	1261,55
750,49	1243,12
750,67	1249,26
750,85	1282,03
751,03	1312,75
751,20	1284,08
751,38	1241,07
751,56	1251,31
751,74	1318,89
751,92	1265,64
752,10	1279,98
752,28	1251,31
752,46	1257,45
752,64	1257,45
752,82	1216,49
753,00	1284,08
753,18	1290,22
753,35	1269,74
753,53	1257,45
753,71	1306,60
753,89	1228,78
754,07	1271,79
754,25	1269,74
754,43	1273,84
754,61	1232,88
754,79	1265,64
754,97	1288,17
755,14	1318,89
755,32	1232,88
755,50	1212,40
755,68	1257,45
755,86	1249,26
756,04	1288,17
756,22	1370,09
756,40	1304,56
756,57	1288,17
756,75	1322,99
756,93	1277,93
757,11	1288,17
757,29	1298,41
757,47	1263,60
757,65	1341,42
757,82	1275,88
758,00	1261,55
758,18	1261,55
758,36	1298,41
758,54	1302,51
758,72	1290,22
758,90	1257,45
759,07	1245,16
759,25	1239,02
759,43	1269,74
759,61	1339,37
759,79	1335,28
759,97	1271,79
760,15	1234,93
760,32	1191,92
760,50	1255,40
760,68	1320,94
760,86	1269,74
761,04	1316,84
761,22	1222,64
761,39	1298,41
761,57	1249,26
761,75	1232,88
761,93	1243,12
762,11	1220,59
762,28	1366,00
762,46	1265,64
762,64	1288,17
762,82	1181,68
763,00	1239,02
763,18	1306,60
763,35	1277,93
763,53	1200,11
763,71	1243,12
763,89	1279,98
764,07	1298,41
764,24	1232,88
764,42	1325,04
764,60	1316,84
764,78	1226,73
764,96	1267,69
765,13	1224,69
765,31	1239,02
765,49	1232,88
765,67	1259,50
765,84	1236,97
766,02	1298,41
766,20	1271,79
766,38	1241,07
766,56	1316,84
766,73	1259,50
766,91	1288,17
767,09	1181,68
767,27	1261,55
767,44	1277,93
767,62	1220,59
767,80	1331,18
767,98	1236,97
768,15	1261,55
768,33	1224,69
768,51	1290,22
768,69	1261,55
768,87	1288,17
769,04	1255,40
769,22	1355,76
769,40	1228,78
769,58	1206,25
769,75	1261,55
769,93	1290,22
770,11	1288,17
770,28	1296,36
770,46	1232,88
770,64	1257,45
770,82	1273,84
770,99	1239,02
771,17	1267,69
771,35	1222,64
771,53	1279,98
771,70	1218,54
771,88	1243,12
772,06	1284,08
772,23	1294,32
772,41	1271,79
772,59	1243,12
772,77	1300,46
772,94	1224,69
773,12	1247,21
773,30	1189,87
773,47	1320,94
773,65	1257,45
773,83	1286,12
774,01	1279,98
774,18	1290,22
774,36	1263,60
774,54	1271,79
774,71	1239,02
774,89	1273,84
775,07	1314,80
775,24	1298,41
775,42	1232,88
775,60	1294,32
775,78	1310,70
775,95	1269,74
776,13	1265,64
776,31	1294,32
776,48	1261,55
776,66	1259,50
776,84	1318,89
777,01	1279,98
777,19	1253,36
777,37	1249,26
777,54	1273,84
777,72	1304,56
777,90	1306,60
778,07	1265,64
778,25	1263,60
778,43	1318,89
778,60	1282,03
778,78	1345,52
778,96	1253,36
779,13	1251,31
779,31	1308,65
779,49	1267,69
779,66	1198,06
779,84	1284,08
780,01	1255,40
780,19	1282,03
780,37	1234,93
780,54	1308,65
780,72	1253,36
780,90	1253,36
781,07	1327,08
781,25	1265,64
781,43	1269,74
781,60	1308,65
781,78	1300,46
781,95	1257,45
782,13	1224,69
782,31	1198,06
782,48	1298,41
782,66	1171,44
782,83	1249,26
783,01	1279,98
783,19	1267,69
783,36	1286,12
783,54	1290,22
783,72	1267,69
783,89	1265,64
784,07	1216,49
784,24	1265,64
784,42	1314,80
784,60	1279,98
784,77	1316,84
784,95	1269,74
785,12	1163,25
785,30	1298,41
785,47	1279,98
785,65	1187,82
785,83	1255,40
786,00	1245,16
786,18	1318,89
786,35	1355,76
786,53	1296,36
786,71	1341,42
786,88	1247,21
787,06	1341,42
787,23	1271,79
787,41	1165,29
787,58	1249,26
787,76	1228,78
787,94	1214,45
788,11	1251,31
788,29	1304,56
788,46	1241,07
788,64	1261,55
788,81	1210,35
788,99	1308,65
789,16	1263,60
789,34	1212,40
789,52	1286,12
789,69	1269,74
789,87	1298,41
790,04	1232,88
790,22	1241,07
790,39	1304,56
790,57	1222,64
790,74	1316,84
790,92	1294,32
791,09	1273,84
791,27	1253,36
791,44	1277,93
791,62	1282,03
791,79	1273,84
791,97	1261,55
792,15	1288,17
792,32	1279,98
792,50	1261,55
792,67	1236,97
792,85	1193,97
793,02	1339,37
793,20	1208,30
793,37	1249,26
793,55	1265,64
793,72	1206,25
793,90	1329,13
794,07	1275,88
794,25	1290,22
794,42	1193,97
794,60	1257,45
794,77	1279,98
794,95	1343,47
795,12	1294,32
795,30	1290,22
795,47	1275,88
795,65	1284,08
795,82	1267,69
796,00	1284,08
796,17	1267,69
796,34	1259,50
796,52	1269,74
796,69	1273,84
796,87	1286,12
797,04	1249,26
797,22	1361,90
797,39	1320,94
797,57	1282,03
797,74	1310,70
797,92	1228,78
798,09	1249,26
798,27	1236,97
798,44	1294,32
798,62	1294,32
798,79	1263,60
798,96	1243,12
799,14	1312,75
799,31	1236,97
799,49	1277,93
799,66	1245,16
799,84	1282,03
800,01	1224,69
800,19	1273,84
800,36	1249,26
800,53	1279,98
800,71	1294,32
800,88	1263,60
801,06	1261,55
801,23	1243,12
801,41	1298,41
801,58	1277,93
801,75	1279,98
801,93	1253,36
802,10	1277,93
802,28	1267,69
802,45	1251,31
802,63	1294,32
802,80	1292,27
802,97	1241,07
803,15	1290,22
803,32	1257,45
803,50	1277,93
803,67	1175,53
803,84	1286,12
804,02	1347,56
804,19	1259,50
804,37	1261,55
804,54	1255,40
804,71	1269,74
804,89	1298,41
805,06	1282,03
805,24	1245,16
805,41	1241,07
805,58	1288,17
805,76	1345,52
805,93	1257,45
806,10	1236,97
806,28	1298,41
806,45	1320,94
806,63	1314,80
806,80	1279,98
806,97	1247,21
807,15	1282,03
807,32	1312,75
807,49	1292,27
807,67	1298,41
807,84	1308,65
808,01	1247,21
808,19	1292,27
808,36	1286,12
808,54	1296,36
808,71	1292,27
808,88	1282,03
809,06	1308,65
809,23	1288,17
809,40	1271,79
809,58	1232,88
809,75	1257,45
809,92	1288,17
810,10	1308,65
810,27	1271,79
810,44	1247,21
810,62	1314,80
810,79	1279,98
810,96	1277,93
811,14	1261,55
811,31	1271,79
811,48	1236,97
811,66	1288,17
811,83	1212,40
812,00	1361,90
812,18	1214,45
812,35	1253,36
812,52	1232,88
812,69	1355,76
812,87	1310,70
813,04	1275,88
813,21	1191,92
813,39	1277,93
813,56	1177,58
813,73	1271,79
813,91	1267,69
814,08	1279,98
814,25	1247,21
814,42	1353,71
814,60	1230,83
814,77	1232,88
814,94	1329,13
815,12	1290,22
815,29	1177,58
815,46	1255,40
815,63	1222,64
815,81	1271,79
815,98	1245,16
816,15	1333,23
816,33	1339,37
816,50	1232,88
816,67	1331,18
816,84	1337,32
817,02	1286,12
817,19	1234,93
817,36	1243,12
817,53	1308,65
817,71	1286,12
817,88	1239,02
818,05	1179,63
818,22	1282,03
818,40	1251,31
818,57	1218,54
818,74	1228,78
818,91	1298,41
819,09	1316,84
819,26	1196,01
819,43	1241,07
819,60	1361,90
819,78	1320,94
819,95	1249,26
820,12	1255,40
820,29	1294,32
820,47	1245,16
820,64	1331,18
820,81	1271,79
820,98	1312,75
821,15	1316,84
821,33	1265,64
821,50	1234,93
821,67	1294,32
821,84	1259,50
822,02	1255,40
822,19	1226,73
822,36	1292,27
822,53	1329,13
822,70	1269,74
822,88	1208,30
823,05	1222,64
823,22	1304,56
823,39	1306,60
823,56	1232,88
823,74	1249,26
823,91	1267,69
824,08	1232,88
824,25	1239,02
824,42	1249,26
824,60	1257,45
824,77	1325,04
824,94	1257,45
825,11	1249,26
825,28	1267,69
825,45	1236,97
825,63	1277,93
825,80	1296,36
825,97	1220,59
826,14	1273,84
826,31	1257,45
826,48	1214,45
826,66	1224,69
826,83	1273,84
827,00	1284,08
827,17	1279,98
827,34	1259,50
827,51	1300,46
827,69	1257,45
827,86	1232,88
828,03	1290,22
828,20	1249,26
828,37	1232,88
828,54	1269,74
828,71	1271,79
828,89	1355,76
829,06	1306,60
829,23	1343,47
829,40	1265,64
829,57	1255,40
829,74	1298,41
829,91	1282,03
830,09	1243,12
830,26	1341,42
830,43	1279,98
830,60	1333,23
830,77	1247,21
830,94	1296,36
831,11	1333,23
831,28	1265,64
831,46	1292,27
831,63	1320,94
831,80	1306,60
831,97	1310,70
832,14	1294,32
832,31	1359,85
832,48	1212,40
832,65	1247,21
832,82	1253,36
832,99	1232,88
833,17	1234,93
833,34	1265,64
833,51	1314,80
833,68	1304,56
833,85	1259,50
834,02	1273,84
834,19	1333,23
834,36	1327,08
834,53	1273,84
834,70	1230,83
834,87	1253,36
835,04	1253,36
835,22	1265,64
835,39	1347,56
835,56	1210,35
835,73	1255,40
835,90	1230,83
836,07	1302,51
836,24	1230,83
836,41	1216,49
836,58	1220,59
836,75	1198,06
836,92	1261,55
837,09	1302,51
837,26	1273,84
837,43	1273,84
837,60	1232,88
837,77	1298,41
837,94	1261,55
838,12	1325,04
838,29	1335,28
838,46	1277,93
838,63	1183,73
838,80	1277,93
838,97	1318,89
839,14	1277,93
839,31	1284,08
839,48	1269,74
839,65	1232,88
839,82	1318,89
839,99	1314,80
840,16	1220,59
840,33	1288,17
840,50	1331,18
840,67	1284,08
840,84	1239,02
841,01	1265,64
841,18	1363,95
841,35	1275,88
841,52	1294,32
841,69	1325,04
841,86	1265,64
842,03	1265,64
842,20	1230,83
842,37	1333,23
842,54	1226,73
842,71	1269,74
842,88	1214,45
843,05	1314,80
843,22	1259,50
843,39	1312,75
843,56	1314,80
843,73	1261,55
843,90	1300,46
844,07	1284,08
844,24	1294,32
844,41	1261,55
844,58	1306,60
844,75	1206,25
844,92	1290,22
845,09	1341,42
845,26	1230,83
845,43	1271,79
845,60	1236,97
845,77	1249,26
845,94	1253,36
846,10	1230,83
846,27	1290,22
846,44	1243,12
846,61	1261,55
846,78	1269,74
846,95	1236,97
847,12	1230,83
847,29	1378,28
847,46	1214,45
847,63	1308,65
847,80	1255,40
847,97	1339,37
848,14	1261,55
848,31	1249,26
848,48	1265,64
848,65	1310,70
848,82	1277,93
848,98	1275,88
849,15	1275,88
849,32	1284,08
849,49	1275,88
849,66	1267,69
849,83	1304,56
850,00	1267,69
850,17	1302,51
850,34	1224,69
850,51	1267,69
850,68	1370,09
850,85	1277,93
851,01	1308,65
851,18	1257,45
851,35	1345,52
851,52	1302,51
851,69	1314,80
851,86	1269,74
852,03	1314,80
852,20	1218,54
852,37	1251,31
852,53	1259,50
852,70	1316,84
852,87	1288,17
853,04	1292,27
853,21	1286,12
853,38	1368,04
853,55	1275,88
853,72	1271,79
853,89	1245,16
854,05	1279,98
854,22	1257,45
854,39	1226,73
854,56	1224,69
854,73	1218,54
854,90	1241,07
855,07	1314,80
855,23	1286,12
855,40	1241,07
855,57	1243,12
855,74	1294,32
855,91	1335,28
856,08	1200,11
856,25	1243,12
856,41	1173,49
856,58	1253,36
856,75	1290,22
856,92	1265,64
857,09	1247,21
857,26	1353,71
857,42	1220,59
857,59	1191,92
857,76	1257,45
857,93	1259,50
858,10	1245,16
858,27	1302,51
858,43	1290,22
858,60	1277,93
858,77	1230,83
858,94	1255,40
859,11	1255,40
859,27	1316,84
859,44	1253,36
859,61	1279,98
859,78	1181,68
859,95	1247,21
860,12	1196,01
860,28	1191,92
860,45	1243,12
860,62	1267,69
860,79	1318,89
860,95	1228,78
861,12	1279,98
861,29	1277,93
861,46	1255,40
861,63	1335,28
861,79	1277,93
861,96	1269,74
862,13	1208,30
862,30	1232,88
862,47	1187,82
862,63	1296,36
862,80	1216,49
862,97	1210,35
863,14	1228,78
863,30	1269,74
863,47	1236,97
863,64	1275,88
863,81	1236,97
863,97	1284,08
864,14	1230,83
864,31	1251,31
864,48	1284,08
864,65	1265,64
864,81	1363,95
864,98	1255,40
865,15	1267,69
865,32	1218,54
865,48	1327,08
865,65	1241,07
865,82	1245,16
865,98	1265,64
866,15	1363,95
866,32	1208,30
866,49	1290,22
866,65	1245,16
866,82	1273,84
866,99	1271,79
867,16	1279,98
867,32	1288,17
867,49	1370,09
867,66	1267,69
867,83	1257,45
867,99	1273,84
868,16	1275,88
868,33	1294,32
868,49	1290,22
868,66	1286,12
868,83	1318,89
868,99	1226,73
869,16	1247,21
869,33	1290,22
869,50	1271,79
869,66	1294,32
869,83	1294,32
870,00	1277,93
870,16	1368,04
870,33	1251,31
870,50	1198,06
870,66	1245,16
870,83	1302,51
871,00	1290,22
871,17	1292,27
871,33	1228,78
871,50	1345,52
871,67	1204,21
871,83	1167,34
872,00	1255,40
872,17	1273,84
872,33	1282,03
872,50	1220,59
872,67	1349,61
872,83	1214,45
873,00	1169,39
873,17	1304,56
873,33	1282,03
873,50	1386,47
873,67	1232,88
873,83	1226,73
874,00	1263,60
874,16	1239,02
874,33	1224,69
874,50	1269,74
874,66	1288,17
874,83	1275,88
875,00	1282,03
875,16	1269,74
875,33	1331,18
875,50	1261,55
875,66	1249,26
875,83	1239,02
875,99	1286,12
876,16	1306,60
876,33	1343,47
876,49	1288,17
876,66	1363,95
876,83	1288,17
876,99	1322,99
877,16	1312,75
877,32	1249,26
877,49	1226,73
877,66	1304,56
877,82	1265,64
877,99	1247,21
878,15	1279,98
878,32	1290,22
878,49	1255,40
878,65	1241,07
878,82	1335,28
878,98	1214,45
879,15	1355,76
879,32	1306,60
879,48	1327,08
879,65	1304,56
879,81	1234,93
879,98	1261,55
880,15	1306,60
880,31	1255,40
880,48	1226,73
880,64	1251,31
880,81	1329,13
880,97	1247,21
881,14	1208,30
881,31	1259,50
881,47	1320,94
881,64	1320,94
881,80	1261,55
881,97	1300,46
882,13	1277,93
882,30	1257,45
882,47	1286,12
882,63	1253,36
882,80	1308,65
882,96	1298,41
883,13	1282,03
883,29	1300,46
883,46	1288,17
883,62	1290,22
883,79	1261,55
883,95	1257,45
884,12	1241,07
884,29	1228,78
884,45	1245,16
884,62	1247,21
884,78	1292,27
884,95	1316,84
885,11	1359,85
885,28	1271,79
885,44	1226,73
885,61	1255,40
885,77	1286,12
885,94	1263,60
886,10	1277,93
886,27	1253,36
886,43	1257,45
886,60	1146,86
886,76	1200,11
886,93	1284,08
887,09	1288,17
887,26	1236,97
887,42	1232,88
887,59	1286,12
887,75	1249,26
887,92	1284,08
888,08	1316,84
888,25	1236,97
888,41	1239,02
888,58	1253,36
888,74	1316,84
888,91	1241,07
>>>>>End Processed Spectral Data<<<<<
