SpectraSuite Data File
++++++++++++++++++++++++++++++++++++
Date: Sun Apr 03 17:44:04 CEST 2016
User: root
Dark Spectrum Present: No
Reference Spectrum Present: No
Number of Sampled Component Spectra: 1
Spectrometers: USB4C02835
Integration Time (usec): 10000 (USB4C02835)
Spectra Averaged: 1 (USB4C02835)
Boxcar Smoothing: 0 (USB4C02835)
Correct for Electrical Dark: No (USB4C02835)
Strobe/Lamp Enabled: No (USB4C02835)
Correct for Detector Non-linearity: No (USB4C02835)
Correct for Stray Light: No (USB4C02835)
Number of Pixels in Processed Spectrum: 3648
>>>>>Begin Processed Spectral Data<<<<<
177,47	1257,45
177,69	1257,45
177,91	1257,45
178,13	1251,31
178,36	1265,64
178,58	1273,84
178,80	1320,94
179,02	1269,74
179,24	1216,49
179,46	1286,12
179,68	1261,55
179,90	1310,70
180,13	1320,94
180,35	1290,22
180,57	1284,08
180,79	1257,45
181,01	1273,84
181,23	1255,40
181,45	1294,32
181,67	1271,79
181,90	1318,89
182,12	1267,69
182,34	1320,94
182,56	1257,45
182,78	1288,17
183,00	1216,49
183,22	1263,60
183,44	1241,07
183,66	1304,56
183,89	1261,55
184,11	1310,70
184,33	1216,49
184,55	1347,56
184,77	1327,08
184,99	1236,97
185,21	1222,64
185,43	1267,69
185,65	1294,32
185,87	1279,98
186,10	1265,64
186,32	1296,36
186,54	1265,64
186,76	1335,28
186,98	1284,08
187,20	1257,45
187,42	1243,12
187,64	1245,16
187,86	1245,16
188,08	1249,26
188,30	1245,16
188,52	1290,22
188,75	1243,12
188,97	1284,08
189,19	1277,93
189,41	1284,08
189,63	1245,16
189,85	1304,56
190,07	1241,07
190,29	1196,01
190,51	1275,88
190,73	1232,88
190,95	1282,03
191,17	1292,27
191,39	1239,02
191,61	1222,64
191,84	1239,02
192,06	1265,64
192,28	1298,41
192,50	1282,03
192,72	1267,69
192,94	1279,98
193,16	1265,64
193,38	1253,36
193,60	1218,54
193,82	1302,51
194,04	1159,15
194,26	1273,84
194,48	1163,25
194,70	1230,83
194,92	1279,98
195,14	1273,84
195,36	1269,74
195,58	1234,93
195,80	1202,16
196,02	1259,50
196,24	1224,69
196,46	1249,26
196,69	1290,22
196,91	1292,27
197,13	1265,64
197,35	1273,84
197,57	1322,99
197,79	1232,88
198,01	1224,69
198,23	1306,60
198,45	1273,84
198,67	1304,56
198,89	1187,82
199,11	1308,65
199,33	1218,54
199,55	1282,03
199,77	1245,16
199,99	1232,88
200,21	1239,02
200,43	1284,08
200,65	1198,06
200,87	1196,01
201,09	1322,99
201,31	1253,36
201,53	1294,32
201,75	1300,46
201,97	1249,26
202,19	1259,50
202,41	1232,88
202,63	1282,03
202,85	1263,60
203,07	1300,46
203,29	1284,08
203,51	1271,79
203,73	1269,74
203,95	1314,80
204,17	1316,84
204,39	1259,50
204,61	1275,88
204,83	1196,01
205,05	1222,64
205,27	1282,03
205,49	1263,60
205,71	1253,36
205,93	1273,84
206,15	1216,49
206,37	1273,84
206,59	1261,55
206,81	1228,78
207,03	1282,03
207,25	1265,64
207,47	1390,57
207,69	1302,51
207,91	1271,79
208,13	1249,26
208,34	1216,49
208,56	1222,64
208,78	1249,26
209,00	1273,84
209,22	1230,83
209,44	1251,31
209,66	1286,12
209,88	1298,41
210,10	1294,32
210,32	1310,70
210,54	1263,60
210,76	1312,75
210,98	1271,79
211,20	1245,16
211,42	1247,21
211,64	1286,12
211,86	1257,45
212,08	1394,67
212,30	1310,70
212,52	1255,40
212,74	1263,60
212,96	1187,82
213,17	1247,21
213,39	1247,21
213,61	1279,98
213,83	1249,26
214,05	1206,25
214,27	1265,64
214,49	1308,65
214,71	1271,79
214,93	1316,84
215,15	1333,23
215,37	1241,07
215,59	1247,21
215,81	1304,56
216,03	1325,04
216,24	1257,45
216,46	1243,12
216,68	1329,13
216,90	1271,79
217,12	1331,18
217,34	1316,84
217,56	1288,17
217,78	1261,55
218,00	1249,26
218,22	1320,94
218,44	1279,98
218,66	1286,12
218,87	1247,21
219,09	1226,73
219,31	1294,32
219,53	1245,16
219,75	1265,64
219,97	1273,84
220,19	1294,32
220,41	1359,85
220,63	1210,35
220,85	1261,55
221,06	1296,36
221,28	1292,27
221,50	1224,69
221,72	1279,98
221,94	1220,59
222,16	1279,98
222,38	1275,88
222,60	1234,93
222,82	1349,61
223,03	1259,50
223,25	1214,45
223,47	1327,08
223,69	1298,41
223,91	1306,60
224,13	1247,21
224,35	1282,03
224,57	1241,07
224,78	1216,49
225,00	1259,50
225,22	1232,88
225,44	1249,26
225,66	1265,64
225,88	1261,55
226,10	1232,88
226,32	1269,74
226,53	1239,02
226,75	1304,56
226,97	1298,41
227,19	1284,08
227,41	1351,66
227,63	1322,99
227,85	1259,50
228,06	1286,12
228,28	1282,03
228,50	1306,60
228,72	1275,88
228,94	1251,31
229,16	1316,84
229,37	1247,21
229,59	1269,74
229,81	1200,11
230,03	1259,50
230,25	1286,12
230,47	1269,74
230,69	1306,60
230,90	1298,41
231,12	1306,60
231,34	1249,26
231,56	1320,94
231,78	1181,68
232,00	1253,36
232,21	1259,50
232,43	1179,63
232,65	1314,80
232,87	1200,11
233,09	1298,41
233,30	1226,73
233,52	1300,46
233,74	1247,21
233,96	1277,93
234,18	1259,50
234,40	1302,51
234,61	1251,31
234,83	1265,64
235,05	1200,11
235,27	1345,52
235,49	1290,22
235,70	1300,46
235,92	1249,26
236,14	1288,17
236,36	1288,17
236,58	1251,31
236,79	1269,74
237,01	1304,56
237,23	1284,08
237,45	1257,45
237,67	1232,88
237,88	1314,80
238,10	1316,84
238,32	1253,36
238,54	1255,40
238,76	1296,36
238,97	1275,88
239,19	1286,12
239,41	1232,88
239,63	1273,84
239,85	1304,56
240,06	1298,41
240,28	1304,56
240,50	1247,21
240,72	1243,12
240,93	1253,36
241,15	1189,87
241,37	1312,75
241,59	1224,69
241,81	1191,92
242,02	1269,74
242,24	1257,45
242,46	1275,88
242,68	1253,36
242,89	1189,87
243,11	1327,08
243,33	1275,88
243,55	1269,74
243,76	1282,03
243,98	1298,41
244,20	1251,31
244,42	1234,93
244,64	1286,12
244,85	1302,51
245,07	1322,99
245,29	1269,74
245,51	1282,03
245,72	1175,53
245,94	1267,69
246,16	1298,41
246,38	1288,17
246,59	1241,07
246,81	1224,69
247,03	1269,74
247,24	1359,85
247,46	1271,79
247,68	1230,83
247,90	1239,02
248,11	1300,46
248,33	1304,56
248,55	1255,40
248,77	1277,93
248,98	1249,26
249,20	1253,36
249,42	1269,74
249,64	1296,36
249,85	1312,75
250,07	1253,36
250,29	1226,73
250,50	1273,84
250,72	1253,36
250,94	1241,07
251,16	1257,45
251,37	1232,88
251,59	1239,02
251,81	1232,88
252,02	1255,40
252,24	1284,08
252,46	1292,27
252,68	1216,49
252,89	1341,42
253,11	1273,84
253,33	1222,64
253,54	1267,69
253,76	1339,37
253,98	1232,88
254,20	1249,26
254,41	1282,03
254,63	1239,02
254,85	1282,03
255,06	1347,56
255,28	1175,53
255,50	1294,32
255,71	1204,21
255,93	1257,45
256,15	1265,64
256,36	1263,60
256,58	1245,16
256,80	1222,64
257,02	1269,74
257,23	1253,36
257,45	1271,79
257,67	1294,32
257,88	1196,01
258,10	1214,45
258,32	1296,36
258,53	1316,84
258,75	1302,51
258,97	1308,65
259,18	1243,12
259,40	1255,40
259,62	1277,93
259,83	1220,59
260,05	1335,28
260,27	1294,32
260,48	1261,55
260,70	1249,26
260,92	1294,32
261,13	1314,80
261,35	1247,21
261,57	1263,60
261,78	1279,98
262,00	1294,32
262,22	1263,60
262,43	1228,78
262,65	1257,45
262,86	1331,18
263,08	1222,64
263,30	1236,97
263,51	1271,79
263,73	1263,60
263,95	1222,64
264,16	1267,69
264,38	1232,88
264,60	1265,64
264,81	1288,17
265,03	1275,88
265,25	1247,21
265,46	1259,50
265,68	1333,23
265,89	1255,40
266,11	1282,03
266,33	1296,36
266,54	1251,31
266,76	1236,97
266,98	1300,46
267,19	1234,93
267,41	1257,45
267,62	1257,45
267,84	1267,69
268,06	1298,41
268,27	1288,17
268,49	1247,21
268,70	1259,50
268,92	1232,88
269,14	1306,60
269,35	1255,40
269,57	1251,31
269,79	1263,60
270,00	1253,36
270,22	1277,93
270,43	1261,55
270,65	1320,94
270,87	1304,56
271,08	1241,07
271,30	1261,55
271,51	1368,04
271,73	1339,37
271,95	1241,07
272,16	1261,55
272,38	1236,97
272,59	1304,56
272,81	1259,50
273,02	1251,31
273,24	1249,26
273,46	1177,58
273,67	1284,08
273,89	1275,88
274,10	1349,61
274,32	1239,02
274,54	1302,51
274,75	1333,23
274,97	1308,65
275,18	1363,95
275,40	1271,79
275,61	1277,93
275,83	1279,98
276,05	1163,25
276,26	1288,17
276,48	1212,40
276,69	1275,88
276,91	1212,40
277,12	1294,32
277,34	1247,21
277,55	1271,79
277,77	1294,32
277,99	1208,30
278,20	1294,32
278,42	1298,41
278,63	1261,55
278,85	1206,25
279,06	1255,40
279,28	1243,12
279,49	1296,36
279,71	1294,32
279,93	1302,51
280,14	1212,40
280,36	1363,95
280,57	1339,37
280,79	1234,93
281,00	1230,83
281,22	1378,28
281,43	1302,51
281,65	1241,07
281,86	1253,36
282,08	1253,36
282,29	1236,97
282,51	1255,40
282,73	1216,49
282,94	1247,21
283,16	1294,32
283,37	1306,60
283,59	1239,02
283,80	1314,80
284,02	1329,13
284,23	1218,54
284,45	1253,36
284,66	1257,45
284,88	1255,40
285,09	1259,50
285,31	1189,87
285,52	1290,22
285,74	1220,59
285,95	1249,26
286,17	1234,93
286,38	1277,93
286,60	1265,64
286,81	1245,16
287,03	1243,12
287,24	1345,52
287,46	1255,40
287,67	1279,98
287,89	1232,88
288,10	1337,32
288,32	1245,16
288,53	1261,55
288,75	1294,32
288,96	1288,17
289,18	1249,26
289,39	1288,17
289,61	1259,50
289,82	1322,99
290,04	1255,40
290,25	1247,21
290,47	1282,03
290,68	1253,36
290,90	1232,88
291,11	1247,21
291,33	1241,07
291,54	1251,31
291,76	1331,18
291,97	1279,98
292,18	1329,13
292,40	1263,60
292,61	1249,26
292,83	1288,17
293,04	1277,93
293,26	1259,50
293,47	1318,89
293,69	1247,21
293,90	1234,93
294,12	1331,18
294,33	1251,31
294,55	1214,45
294,76	1286,12
294,97	1273,84
295,19	1298,41
295,40	1214,45
295,62	1214,45
295,83	1239,02
296,05	1251,31
296,26	1279,98
296,48	1320,94
296,69	1249,26
296,90	1253,36
297,12	1296,36
297,33	1241,07
297,55	1255,40
297,76	1286,12
297,98	1275,88
298,19	1204,21
298,41	1269,74
298,62	1312,75
298,83	1286,12
299,05	1259,50
299,26	1183,73
299,48	1241,07
299,69	1318,89
299,90	1261,55
300,12	1308,65
300,33	1236,97
300,55	1302,51
300,76	1269,74
300,98	1267,69
301,19	1265,64
301,40	1239,02
301,62	1247,21
301,83	1257,45
302,05	1191,92
302,26	1208,30
302,47	1200,11
302,69	1265,64
302,90	1171,44
303,12	1300,46
303,33	1304,56
303,54	1339,37
303,76	1224,69
303,97	1279,98
304,19	1322,99
304,40	1220,59
304,61	1316,84
304,83	1273,84
305,04	1304,56
305,26	1269,74
305,47	1271,79
305,68	1267,69
305,90	1359,85
306,11	1255,40
306,33	1298,41
306,54	1298,41
306,75	1251,31
306,97	1316,84
307,18	1261,55
307,39	1288,17
307,61	1306,60
307,82	1228,78
308,04	1269,74
308,25	1316,84
308,46	1294,32
308,68	1282,03
308,89	1234,93
309,10	1214,45
309,32	1200,11
309,53	1249,26
309,74	1296,36
309,96	1249,26
310,17	1255,40
310,39	1265,64
310,60	1314,80
310,81	1224,69
311,03	1273,84
311,24	1308,65
311,45	1298,41
311,67	1290,22
311,88	1255,40
312,09	1218,54
312,31	1259,50
312,52	1290,22
312,73	1249,26
312,95	1216,49
313,16	1275,88
313,37	1294,32
313,59	1255,40
313,80	1302,51
314,01	1298,41
314,23	1304,56
314,44	1355,76
314,65	1232,88
314,87	1284,08
315,08	1310,70
315,29	1193,97
315,51	1318,89
315,72	1245,16
315,93	1267,69
316,15	1228,78
316,36	1241,07
316,57	1282,03
316,79	1218,54
317,00	1302,51
317,21	1247,21
317,43	1263,60
317,64	1318,89
317,85	1290,22
318,07	1251,31
318,28	1413,10
318,49	1279,98
318,70	1318,89
318,92	1212,40
319,13	1267,69
319,34	1265,64
319,56	1302,51
319,77	1261,55
319,98	1247,21
320,20	1277,93
320,41	1208,30
320,62	1208,30
320,83	1320,94
321,05	1329,13
321,26	1302,51
321,47	1341,42
321,69	1267,69
321,90	1294,32
322,11	1294,32
322,32	1200,11
322,54	1269,74
322,75	1282,03
322,96	1220,59
323,18	1230,83
323,39	1208,30
323,60	1290,22
323,81	1273,84
324,03	1251,31
324,24	1222,64
324,45	1339,37
324,66	1247,21
324,88	1245,16
325,09	1261,55
325,30	1247,21
325,52	1288,17
325,73	1298,41
325,94	1275,88
326,15	1247,21
326,37	1267,69
326,58	1261,55
326,79	1259,50
327,00	1306,60
327,22	1294,32
327,43	1251,31
327,64	1251,31
327,85	1228,78
328,07	1265,64
328,28	1363,95
328,49	1226,73
328,70	1312,75
328,92	1232,88
329,13	1165,29
329,34	1288,17
329,55	1368,04
329,76	1241,07
329,98	1304,56
330,19	1331,18
330,40	1265,64
330,61	1296,36
330,83	1304,56
331,04	1286,12
331,25	1288,17
331,46	1232,88
331,68	1347,56
331,89	1290,22
332,10	1300,46
332,31	1228,78
332,52	1277,93
332,74	1316,84
332,95	1263,60
333,16	1279,98
333,37	1347,56
333,58	1308,65
333,80	1294,32
334,01	1232,88
334,22	1216,49
334,43	1306,60
334,64	1267,69
334,86	1333,23
335,07	1251,31
335,28	1277,93
335,49	1282,03
335,70	1257,45
335,92	1271,79
336,13	1353,71
336,34	1206,25
336,55	1222,64
336,76	1325,04
336,98	1259,50
337,19	1269,74
337,40	1279,98
337,61	1267,69
337,82	1337,32
338,04	1230,83
338,25	1228,78
338,46	1331,18
338,67	1208,30
338,88	1243,12
339,09	1322,99
339,31	1275,88
339,52	1282,03
339,73	1310,70
339,94	1335,28
340,15	1279,98
340,36	1284,08
340,58	1218,54
340,79	1263,60
341,00	1282,03
341,21	1304,56
341,42	1277,93
341,63	1308,65
341,85	1263,60
342,06	1189,87
342,27	1245,16
342,48	1261,55
342,69	1331,18
342,90	1288,17
343,12	1322,99
343,33	1247,21
343,54	1386,47
343,75	1241,07
343,96	1169,39
344,17	1331,18
344,38	1333,23
344,60	1249,26
344,81	1241,07
345,02	1230,83
345,23	1243,12
345,44	1239,02
345,65	1265,64
345,86	1259,50
346,07	1234,93
346,29	1320,94
346,50	1165,29
346,71	1322,99
346,92	1322,99
347,13	1251,31
347,34	1300,46
347,55	1249,26
347,76	1269,74
347,98	1335,28
348,19	1267,69
348,40	1312,75
348,61	1294,32
348,82	1343,47
349,03	1290,22
349,24	1314,80
349,45	1282,03
349,66	1288,17
349,88	1275,88
350,09	1255,40
350,30	1294,32
350,51	1284,08
350,72	1265,64
350,93	1214,45
351,14	1269,74
351,35	1271,79
351,56	1288,17
351,77	1247,21
351,99	1316,84
352,20	1290,22
352,41	1288,17
352,62	1329,13
352,83	1230,83
353,04	1193,97
353,25	1331,18
353,46	1257,45
353,67	1232,88
353,88	1269,74
354,09	1236,97
354,30	1279,98
354,52	1275,88
354,73	1259,50
354,94	1273,84
355,15	1308,65
355,36	1292,27
355,57	1290,22
355,78	1239,02
355,99	1298,41
356,20	1267,69
356,41	1294,32
356,62	1255,40
356,83	1224,69
357,04	1212,40
357,25	1224,69
357,46	1290,22
357,68	1230,83
357,89	1200,11
358,10	1222,64
358,31	1224,69
358,52	1333,23
358,73	1202,16
358,94	1288,17
359,15	1351,66
359,36	1253,36
359,57	1251,31
359,78	1241,07
359,99	1337,32
360,20	1327,08
360,41	1322,99
360,62	1277,93
360,83	1302,51
361,04	1312,75
361,25	1228,78
361,46	1222,64
361,67	1277,93
361,88	1271,79
362,09	1314,80
362,30	1284,08
362,51	1261,55
362,72	1298,41
362,93	1257,45
363,14	1302,51
363,35	1249,26
363,56	1216,49
363,78	1245,16
363,99	1241,07
364,20	1273,84
364,41	1337,32
364,62	1263,60
364,83	1376,24
365,04	1273,84
365,25	1273,84
365,46	1239,02
365,67	1298,41
365,88	1275,88
366,09	1273,84
366,30	1239,02
366,51	1251,31
366,72	1302,51
366,93	1310,70
367,14	1241,07
367,35	1273,84
367,56	1284,08
367,77	1286,12
367,98	1294,32
368,18	1333,23
368,39	1243,12
368,60	1310,70
368,81	1236,97
369,02	1284,08
369,23	1173,49
369,44	1210,35
369,65	1257,45
369,86	1282,03
370,07	1198,06
370,28	1308,65
370,49	1253,36
370,70	1286,12
370,91	1282,03
371,12	1251,31
371,33	1277,93
371,54	1316,84
371,75	1282,03
371,96	1218,54
372,17	1318,89
372,38	1210,35
372,59	1241,07
372,80	1257,45
373,01	1298,41
373,22	1282,03
373,43	1333,23
373,64	1255,40
373,85	1236,97
374,06	1259,50
374,26	1353,71
374,47	1300,46
374,68	1306,60
374,89	1271,79
375,10	1312,75
375,31	1298,41
375,52	1245,16
375,73	1282,03
375,94	1284,08
376,15	1241,07
376,36	1298,41
376,57	1198,06
376,78	1259,50
376,99	1353,71
377,20	1271,79
377,40	1265,64
377,61	1218,54
377,82	1277,93
378,03	1179,63
378,24	1230,83
378,45	1292,27
378,66	1267,69
378,87	1224,69
379,08	1239,02
379,29	1282,03
379,50	1292,27
379,71	1292,27
379,91	1306,60
380,12	1247,21
380,33	1257,45
380,54	1247,21
380,75	1263,60
380,96	1286,12
381,17	1257,45
381,38	1265,64
381,59	1191,92
381,80	1292,27
382,00	1327,08
382,21	1333,23
382,42	1331,18
382,63	1294,32
382,84	1282,03
383,05	1316,84
383,26	1286,12
383,47	1316,84
383,68	1331,18
383,88	1241,07
384,09	1255,40
384,30	1361,90
384,51	1232,88
384,72	1267,69
384,93	1239,02
385,14	1261,55
385,35	1314,80
385,55	1239,02
385,76	1284,08
385,97	1310,70
386,18	1247,21
386,39	1261,55
386,60	1222,64
386,81	1271,79
387,02	1316,84
387,22	1255,40
387,43	1298,41
387,64	1224,69
387,85	1261,55
388,06	1204,21
388,27	1304,56
388,48	1267,69
388,68	1286,12
388,89	1343,47
389,10	1202,16
389,31	1220,59
389,52	1214,45
389,73	1257,45
389,93	1247,21
390,14	1306,60
390,35	1296,36
390,56	1304,56
390,77	1208,30
390,98	1230,83
391,18	1333,23
391,39	1234,93
391,60	1292,27
391,81	1245,16
392,02	1255,40
392,23	1267,69
392,43	1320,94
392,64	1263,60
392,85	1251,31
393,06	1220,59
393,27	1253,36
393,47	1236,97
393,68	1322,99
393,89	1310,70
394,10	1335,28
394,31	1204,21
394,52	1306,60
394,72	1263,60
394,93	1284,08
395,14	1261,55
395,35	1251,31
395,56	1304,56
395,76	1298,41
395,97	1257,45
396,18	1265,64
396,39	1277,93
396,60	1331,18
396,80	1210,35
397,01	1279,98
397,22	1368,04
397,43	1298,41
397,64	1273,84
397,84	1269,74
398,05	1308,65
398,26	1232,88
398,47	1247,21
398,67	1292,27
398,88	1275,88
399,09	1269,74
399,30	1255,40
399,51	1243,12
399,71	1253,36
399,92	1261,55
400,13	1259,50
400,34	1294,32
400,54	1290,22
400,75	1282,03
400,96	1259,50
401,17	1337,32
401,37	1253,36
401,58	1247,21
401,79	1290,22
402,00	1228,78
402,21	1308,65
402,41	1292,27
402,62	1230,83
402,83	1249,26
403,04	1290,22
403,24	1306,60
403,45	1296,36
403,66	1179,63
403,87	1210,35
404,07	1294,32
404,28	1282,03
404,49	1273,84
404,70	1337,32
404,90	1267,69
405,11	1232,88
405,32	1273,84
405,52	1265,64
405,73	1282,03
405,94	1292,27
406,15	1251,31
406,35	1255,40
406,56	1249,26
406,77	1226,73
406,98	1279,98
407,18	1236,97
407,39	1327,08
407,60	1290,22
407,80	1306,60
408,01	1288,17
408,22	1259,50
408,43	1329,13
408,63	1265,64
408,84	1247,21
409,05	1353,71
409,25	1263,60
409,46	1232,88
409,67	1259,50
409,88	1249,26
410,08	1273,84
410,29	1241,07
410,50	1224,69
410,70	1251,31
410,91	1282,03
411,12	1216,49
411,32	1212,40
411,53	1228,78
411,74	1294,32
411,95	1259,50
412,15	1286,12
412,36	1232,88
412,57	1257,45
412,77	1263,60
412,98	1304,56
413,19	1265,64
413,39	1312,75
413,60	1224,69
413,81	1329,13
414,01	1177,58
414,22	1296,36
414,43	1304,56
414,63	1259,50
414,84	1273,84
415,05	1288,17
415,25	1269,74
415,46	1300,46
415,67	1142,77
415,87	1292,27
416,08	1273,84
416,29	1310,70
416,49	1304,56
416,70	1320,94
416,91	1363,95
417,11	1241,07
417,32	1329,13
417,53	1304,56
417,73	1232,88
417,94	1282,03
418,15	1296,36
418,35	1171,44
418,56	1286,12
418,77	1206,25
418,97	1259,50
419,18	1351,66
419,38	1271,79
419,59	1341,42
419,80	1255,40
420,00	1210,35
420,21	1318,89
420,42	1275,88
420,62	1290,22
420,83	1261,55
421,04	1292,27
421,24	1327,08
421,45	1284,08
421,65	1302,51
421,86	1251,31
422,07	1247,21
422,27	1302,51
422,48	1271,79
422,69	1271,79
422,89	1292,27
423,10	1306,60
423,30	1271,79
423,51	1310,70
423,72	1294,32
423,92	1259,50
424,13	1247,21
424,33	1236,97
424,54	1294,32
424,75	1298,41
424,95	1290,22
425,16	1308,65
425,36	1247,21
425,57	1304,56
425,78	1286,12
425,98	1267,69
426,19	1298,41
426,39	1284,08
426,60	1263,60
426,81	1265,64
427,01	1290,22
427,22	1230,83
427,42	1275,88
427,63	1234,93
427,83	1267,69
428,04	1273,84
428,25	1284,08
428,45	1212,40
428,66	1218,54
428,86	1290,22
429,07	1202,16
429,28	1318,89
429,48	1222,64
429,69	1304,56
429,89	1255,40
430,10	1243,12
430,30	1345,52
430,51	1230,83
430,71	1228,78
430,92	1273,84
431,13	1335,28
431,33	1343,47
431,54	1245,16
431,74	1269,74
431,95	1327,08
432,15	1288,17
432,36	1257,45
432,56	1314,80
432,77	1286,12
432,98	1314,80
433,18	1312,75
433,39	1275,88
433,59	1282,03
433,80	1275,88
434,00	1296,36
434,21	1339,37
434,41	1222,64
434,62	1253,36
434,82	1279,98
435,03	1257,45
435,23	1245,16
435,44	1253,36
435,64	1218,54
435,85	1241,07
436,06	1234,93
436,26	1267,69
436,47	1273,84
436,67	1294,32
436,88	1298,41
437,08	1224,69
437,29	1308,65
437,49	1298,41
437,70	1282,03
437,90	1294,32
438,11	1220,59
438,31	1279,98
438,52	1210,35
438,72	1302,51
438,93	1255,40
439,13	1294,32
439,34	1279,98
439,54	1257,45
439,75	1298,41
439,95	1245,16
440,16	1249,26
440,36	1275,88
440,57	1290,22
440,77	1312,75
440,98	1267,69
441,18	1298,41
441,39	1316,84
441,59	1210,35
441,80	1255,40
442,00	1279,98
442,21	1200,11
442,41	1216,49
442,62	1292,27
442,82	1318,89
443,02	1275,88
443,23	1327,08
443,43	1261,55
443,64	1306,60
443,84	1298,41
444,05	1228,78
444,25	1216,49
444,46	1302,51
444,66	1257,45
444,87	1310,70
445,07	1269,74
445,28	1247,21
445,48	1241,07
445,69	1255,40
445,89	1271,79
446,09	1308,65
446,30	1296,36
446,50	1273,84
446,71	1284,08
446,91	1306,60
447,12	1163,25
447,32	1263,60
447,53	1329,13
447,73	1333,23
447,93	1241,07
448,14	1351,66
448,34	1333,23
448,55	1271,79
448,75	1198,06
448,96	1245,16
449,16	1259,50
449,36	1282,03
449,57	1263,60
449,77	1251,31
449,98	1204,21
450,18	1226,73
450,39	1249,26
450,59	1320,94
450,79	1263,60
451,00	1222,64
451,20	1318,89
451,41	1265,64
451,61	1288,17
451,81	1245,16
452,02	1288,17
452,22	1243,12
452,43	1320,94
452,63	1249,26
452,84	1349,61
453,04	1318,89
453,24	1245,16
453,45	1230,83
453,65	1206,25
453,86	1261,55
454,06	1306,60
454,26	1318,89
454,47	1173,49
454,67	1339,37
454,87	1265,64
455,08	1259,50
455,28	1284,08
455,49	1187,82
455,69	1267,69
455,89	1277,93
456,10	1282,03
456,30	1228,78
456,51	1255,40
456,71	1302,51
456,91	1267,69
457,12	1226,73
457,32	1185,77
457,52	1243,12
457,73	1329,13
457,93	1288,17
458,14	1269,74
458,34	1314,80
458,54	1284,08
458,75	1239,02
458,95	1249,26
459,15	1296,36
459,36	1232,88
459,56	1306,60
459,76	1261,55
459,97	1310,70
460,17	1245,16
460,37	1292,27
460,58	1273,84
460,78	1187,82
460,99	1265,64
461,19	1236,97
461,39	1218,54
461,60	1236,97
461,80	1275,88
462,00	1247,21
462,21	1304,56
462,41	1306,60
462,61	1206,25
462,82	1366,00
463,02	1212,40
463,22	1234,93
463,43	1224,69
463,63	1294,32
463,83	1202,16
464,04	1314,80
464,24	1249,26
464,44	1173,49
464,64	1275,88
464,85	1302,51
465,05	1284,08
465,25	1300,46
465,46	1286,12
465,66	1292,27
465,86	1271,79
466,07	1275,88
466,27	1224,69
466,47	1265,64
466,68	1322,99
466,88	1245,16
467,08	1282,03
467,29	1298,41
467,49	1230,83
467,69	1314,80
467,89	1314,80
468,10	1257,45
468,30	1273,84
468,50	1279,98
468,71	1331,18
468,91	1271,79
469,11	1320,94
469,31	1269,74
469,52	1316,84
469,72	1263,60
469,92	1294,32
470,13	1261,55
470,33	1306,60
470,53	1271,79
470,73	1251,31
470,94	1214,45
471,14	1277,93
471,34	1390,57
471,54	1239,02
471,75	1296,36
471,95	1304,56
472,15	1251,31
472,36	1224,69
472,56	1314,80
472,76	1263,60
472,96	1279,98
473,17	1241,07
473,37	1300,46
473,57	1269,74
473,77	1253,36
473,98	1286,12
474,18	1175,53
474,38	1222,64
474,58	1327,08
474,79	1316,84
474,99	1308,65
475,19	1202,16
475,39	1210,35
475,60	1208,30
475,80	1269,74
476,00	1255,40
476,20	1273,84
476,41	1282,03
476,61	1329,13
476,81	1257,45
477,01	1273,84
477,21	1269,74
477,42	1292,27
477,62	1294,32
477,82	1251,31
478,02	1265,64
478,23	1327,08
478,43	1271,79
478,63	1196,01
478,83	1273,84
479,03	1210,35
479,24	1275,88
479,44	1290,22
479,64	1331,18
479,84	1286,12
480,04	1273,84
480,25	1216,49
480,45	1339,37
480,65	1263,60
480,85	1206,25
481,06	1325,04
481,26	1218,54
481,46	1279,98
481,66	1265,64
481,86	1312,75
482,06	1335,28
482,27	1290,22
482,47	1347,56
482,67	1343,47
482,87	1222,64
483,07	1335,28
483,28	1310,70
483,48	1331,18
483,68	1243,12
483,88	1271,79
484,08	1216,49
484,29	1277,93
484,49	1265,64
484,69	1185,77
484,89	1304,56
485,09	1261,55
485,29	1275,88
485,50	1263,60
485,70	1282,03
485,90	1333,23
486,10	1279,98
486,30	1265,64
486,50	1284,08
486,71	1228,78
486,91	1267,69
487,11	1273,84
487,31	1386,47
487,51	1325,04
487,71	1269,74
487,91	1249,26
488,12	1236,97
488,32	1312,75
488,52	1253,36
488,72	1275,88
488,92	1247,21
489,12	1322,99
489,32	1210,35
489,53	1288,17
489,73	1202,16
489,93	1310,70
490,13	1273,84
490,33	1253,36
490,53	1288,17
490,73	1247,21
490,94	1249,26
491,14	1279,98
491,34	1200,11
491,54	1263,60
491,74	1286,12
491,94	1376,24
492,14	1241,07
492,34	1290,22
492,54	1267,69
492,75	1288,17
492,95	1265,64
493,15	1279,98
493,35	1273,84
493,55	1277,93
493,75	1255,40
493,95	1208,30
494,15	1239,02
494,35	1275,88
494,56	1275,88
494,76	1245,16
494,96	1241,07
495,16	1214,45
495,36	1300,46
495,56	1306,60
495,76	1329,13
495,96	1292,27
496,16	1226,73
496,36	1353,71
496,56	1302,51
496,77	1234,93
496,97	1259,50
497,17	1257,45
497,37	1271,79
497,57	1349,61
497,77	1279,98
497,97	1257,45
498,17	1288,17
498,37	1292,27
498,57	1169,39
498,77	1306,60
498,97	1255,40
499,17	1286,12
499,38	1265,64
499,58	1193,97
499,78	1257,45
499,98	1259,50
500,18	1251,31
500,38	1228,78
500,58	1290,22
500,78	1251,31
500,98	1282,03
501,18	1273,84
501,38	1230,83
501,58	1259,50
501,78	1241,07
501,98	1243,12
502,18	1169,39
502,38	1239,02
502,58	1304,56
502,78	1290,22
502,98	1247,21
503,18	1329,13
503,38	1269,74
503,59	1306,60
503,79	1288,17
503,99	1292,27
504,19	1241,07
504,39	1265,64
504,59	1236,97
504,79	1271,79
504,99	1251,31
505,19	1312,75
505,39	1294,32
505,59	1228,78
505,79	1230,83
505,99	1239,02
506,19	1298,41
506,39	1232,88
506,59	1269,74
506,79	1347,56
506,99	1167,34
507,19	1239,02
507,39	1335,28
507,59	1216,49
507,79	1327,08
507,99	1220,59
508,19	1247,21
508,39	1296,36
508,59	1294,32
508,79	1314,80
508,99	1257,45
509,19	1296,36
509,39	1282,03
509,59	1222,64
509,79	1191,92
509,99	1308,65
510,19	1245,16
510,39	1222,64
510,59	1265,64
510,79	1249,26
510,99	1310,70
511,19	1255,40
511,39	1378,28
511,59	1249,26
511,79	1277,93
511,99	1265,64
512,19	1245,16
512,38	1286,12
512,58	1247,21
512,78	1302,51
512,98	1253,36
513,18	1312,75
513,38	1269,74
513,58	1269,74
513,78	1236,97
513,98	1288,17
514,18	1247,21
514,38	1255,40
514,58	1339,37
514,78	1245,16
514,98	1232,88
515,18	1269,74
515,38	1277,93
515,58	1265,64
515,78	1224,69
515,98	1298,41
516,18	1269,74
516,38	1271,79
516,57	1296,36
516,77	1200,11
516,97	1267,69
517,17	1241,07
517,37	1261,55
517,57	1277,93
517,77	1228,78
517,97	1314,80
518,17	1241,07
518,37	1312,75
518,57	1200,11
518,77	1239,02
518,97	1179,63
519,16	1263,60
519,36	1277,93
519,56	1265,64
519,76	1236,97
519,96	1306,60
520,16	1265,64
520,36	1265,64
520,56	1347,56
520,76	1206,25
520,96	1294,32
521,16	1257,45
521,35	1216,49
521,55	1337,32
521,75	1267,69
521,95	1357,80
522,15	1298,41
522,35	1335,28
522,55	1220,59
522,75	1251,31
522,95	1294,32
523,14	1286,12
523,34	1257,45
523,54	1232,88
523,74	1200,11
523,94	1241,07
524,14	1236,97
524,34	1292,27
524,54	1263,60
524,73	1257,45
524,93	1343,47
525,13	1263,60
525,33	1269,74
525,53	1198,06
525,73	1277,93
525,93	1257,45
526,13	1318,89
526,32	1232,88
526,52	1218,54
526,72	1249,26
526,92	1251,31
527,12	1253,36
527,32	1218,54
527,52	1316,84
527,71	1171,44
527,91	1253,36
528,11	1241,07
528,31	1284,08
528,51	1284,08
528,71	1284,08
528,90	1228,78
529,10	1267,69
529,30	1241,07
529,50	1322,99
529,70	1292,27
529,90	1222,64
530,09	1318,89
530,29	1288,17
530,49	1286,12
530,69	1363,95
530,89	1327,08
531,09	1347,56
531,28	1275,88
531,48	1269,74
531,68	1243,12
531,88	1286,12
532,08	1275,88
532,28	1257,45
532,47	1191,92
532,67	1337,32
532,87	1247,21
533,07	1302,51
533,27	1259,50
533,46	1296,36
533,66	1267,69
533,86	1298,41
534,06	1241,07
534,26	1329,13
534,45	1275,88
534,65	1263,60
534,85	1286,12
535,05	1290,22
535,25	1312,75
535,44	1193,97
535,64	1200,11
535,84	1273,84
536,04	1234,93
536,24	1306,60
536,43	1257,45
536,63	1316,84
536,83	1253,36
537,03	1257,45
537,22	1269,74
537,42	1236,97
537,62	1255,40
537,82	1286,12
538,02	1251,31
538,21	1241,07
538,41	1296,36
538,61	1253,36
538,81	1282,03
539,00	1228,78
539,20	1296,36
539,40	1230,83
539,60	1292,27
539,79	1265,64
539,99	1239,02
540,19	1273,84
540,39	1255,40
540,58	1224,69
540,78	1245,16
540,98	1198,06
541,18	1257,45
541,37	1265,64
541,57	1265,64
541,77	1265,64
541,97	1290,22
542,16	1239,02
542,36	1253,36
542,56	1306,60
542,76	1298,41
542,95	1294,32
543,15	1222,64
543,35	1273,84
543,54	1316,84
543,74	1249,26
543,94	1286,12
544,14	1204,21
544,33	1308,65
544,53	1277,93
544,73	1189,87
544,93	1271,79
545,12	1218,54
545,32	1216,49
545,52	1255,40
545,71	1216,49
545,91	1249,26
546,11	1255,40
546,30	1228,78
546,50	1265,64
546,70	1269,74
546,90	1253,36
547,09	1288,17
547,29	1314,80
547,49	1286,12
547,68	1257,45
547,88	1292,27
548,08	1232,88
548,27	1249,26
548,47	1304,56
548,67	1206,25
548,87	1267,69
549,06	1316,84
549,26	1169,39
549,46	1236,97
549,65	1265,64
549,85	1206,25
550,05	1329,13
550,24	1259,50
550,44	1290,22
550,64	1169,39
550,83	1277,93
551,03	1261,55
551,23	1253,36
551,42	1279,98
551,62	1216,49
551,82	1214,45
552,01	1320,94
552,21	1286,12
552,41	1232,88
552,60	1282,03
552,80	1286,12
553,00	1267,69
553,19	1243,12
553,39	1220,59
553,59	1265,64
553,78	1300,46
553,98	1327,08
554,17	1189,87
554,37	1279,98
554,57	1249,26
554,76	1279,98
554,96	1286,12
555,16	1310,70
555,35	1234,93
555,55	1210,35
555,75	1304,56
555,94	1273,84
556,14	1239,02
556,33	1261,55
556,53	1282,03
556,73	1271,79
556,92	1282,03
557,12	1290,22
557,32	1249,26
557,51	1341,42
557,71	1271,79
557,90	1314,80
558,10	1263,60
558,30	1263,60
558,49	1296,36
558,69	1259,50
558,88	1294,32
559,08	1257,45
559,28	1179,63
559,47	1279,98
559,67	1261,55
559,86	1236,97
560,06	1220,59
560,26	1296,36
560,45	1253,36
560,65	1277,93
560,84	1265,64
561,04	1228,78
561,24	1257,45
561,43	1316,84
561,63	1304,56
561,82	1218,54
562,02	1243,12
562,22	1191,92
562,41	1265,64
562,61	1306,60
562,80	1210,35
563,00	1251,31
563,19	1279,98
563,39	1292,27
563,59	1249,26
563,78	1245,16
563,98	1265,64
564,17	1255,40
564,37	1136,62
564,56	1243,12
564,76	1251,31
564,96	1249,26
565,15	1220,59
565,35	1271,79
565,54	1275,88
565,74	1269,74
565,93	1243,12
566,13	1267,69
566,32	1275,88
566,52	1257,45
566,71	1226,73
566,91	1284,08
567,11	1284,08
567,30	1230,83
567,50	1327,08
567,69	1253,36
567,89	1298,41
568,08	1304,56
568,28	1294,32
568,47	1322,99
568,67	1292,27
568,86	1208,30
569,06	1282,03
569,25	1300,46
569,45	1232,88
569,64	1196,01
569,84	1318,89
570,04	1218,54
570,23	1308,65
570,43	1277,93
570,62	1232,88
570,82	1296,36
571,01	1292,27
571,21	1234,93
571,40	1261,55
571,60	1216,49
571,79	1259,50
571,99	1263,60
572,18	1245,16
572,38	1292,27
572,57	1279,98
572,77	1308,65
572,96	1241,07
573,16	1226,73
573,35	1214,45
573,55	1234,93
573,74	1204,21
573,94	1222,64
574,13	1273,84
574,33	1241,07
574,52	1275,88
574,71	1241,07
574,91	1279,98
575,10	1284,08
575,30	1275,88
575,49	1245,16
575,69	1275,88
575,88	1259,50
576,08	1279,98
576,27	1282,03
576,47	1200,11
576,66	1320,94
576,86	1345,52
577,05	1191,92
577,25	1275,88
577,44	1292,27
577,64	1277,93
577,83	1282,03
578,02	1204,21
578,22	1265,64
578,41	1347,56
578,61	1251,31
578,80	1179,63
579,00	1308,65
579,19	1218,54
579,39	1292,27
579,58	1286,12
579,77	1337,32
579,97	1251,31
580,16	1288,17
580,36	1388,52
580,55	1300,46
580,75	1222,64
580,94	1290,22
581,13	1296,36
581,33	1214,45
581,52	1261,55
581,72	1306,60
581,91	1320,94
582,11	1284,08
582,30	1312,75
582,49	1318,89
582,69	1314,80
582,88	1224,69
583,08	1267,69
583,27	1331,18
583,47	1282,03
583,66	1282,03
583,85	1288,17
584,05	1335,28
584,24	1308,65
584,44	1335,28
584,63	1265,64
584,82	1279,98
585,02	1261,55
585,21	1341,42
585,41	1269,74
585,60	1292,27
585,79	1318,89
585,99	1288,17
586,18	1275,88
586,37	1198,06
586,57	1322,99
586,76	1302,51
586,96	1196,01
587,15	1304,56
587,34	1253,36
587,54	1255,40
587,73	1318,89
587,93	1259,50
588,12	1277,93
588,31	1173,49
588,51	1271,79
588,70	1243,12
588,89	1239,02
589,09	1214,45
589,28	1292,27
589,47	1337,32
589,67	1304,56
589,86	1296,36
590,06	1204,21
590,25	1290,22
590,44	1261,55
590,64	1232,88
590,83	1247,21
591,02	1290,22
591,22	1275,88
591,41	1312,75
591,60	1251,31
591,80	1329,13
591,99	1241,07
592,18	1232,88
592,38	1277,93
592,57	1277,93
592,76	1245,16
592,96	1302,51
593,15	1214,45
593,34	1316,84
593,54	1277,93
593,73	1267,69
593,92	1234,93
594,12	1320,94
594,31	1241,07
594,50	1314,80
594,70	1251,31
594,89	1253,36
595,08	1308,65
595,28	1292,27
595,47	1277,93
595,66	1273,84
595,86	1261,55
596,05	1277,93
596,24	1191,92
596,43	1322,99
596,63	1245,16
596,82	1239,02
597,01	1292,27
597,21	1232,88
597,40	1322,99
597,59	1243,12
597,79	1331,18
597,98	1273,84
598,17	1310,70
598,36	1386,47
598,56	1267,69
598,75	1312,75
598,94	1253,36
599,14	1245,16
599,33	1210,35
599,52	1298,41
599,71	1337,32
599,91	1226,73
600,10	1200,11
600,29	1296,36
600,48	1239,02
600,68	1265,64
600,87	1325,04
601,06	1267,69
601,26	1279,98
601,45	1322,99
601,64	1214,45
601,83	1286,12
602,03	1300,46
602,22	1220,59
602,41	1257,45
602,60	1255,40
602,80	1253,36
602,99	1363,95
603,18	1298,41
603,37	1245,16
603,57	1206,25
603,76	1263,60
603,95	1282,03
604,14	1316,84
604,34	1300,46
604,53	1351,66
604,72	1189,87
604,91	1214,45
605,10	1314,80
605,30	1234,93
605,49	1312,75
605,68	1298,41
605,87	1218,54
606,07	1292,27
606,26	1300,46
606,45	1353,71
606,64	1187,82
606,84	1251,31
607,03	1284,08
607,22	1282,03
607,41	1292,27
607,60	1193,97
607,80	1247,21
607,99	1269,74
608,18	1302,51
608,37	1220,59
608,56	1275,88
608,76	1273,84
608,95	1241,07
609,14	1279,98
609,33	1341,42
609,52	1261,55
609,72	1232,88
609,91	1232,88
610,10	1245,16
610,29	1243,12
610,48	1247,21
610,68	1251,31
610,87	1279,98
611,06	1345,52
611,25	1271,79
611,44	1273,84
611,63	1279,98
611,83	1355,76
612,02	1247,21
612,21	1255,40
612,40	1214,45
612,59	1232,88
612,79	1251,31
612,98	1269,74
613,17	1267,69
613,36	1222,64
613,55	1298,41
613,74	1255,40
613,93	1241,07
614,13	1353,71
614,32	1265,64
614,51	1275,88
614,70	1243,12
614,89	1191,92
615,08	1210,35
615,28	1314,80
615,47	1304,56
615,66	1298,41
615,85	1273,84
616,04	1259,50
616,23	1243,12
616,42	1255,40
616,62	1257,45
616,81	1296,36
617,00	1212,40
617,19	1279,98
617,38	1257,45
617,57	1228,78
617,76	1277,93
617,95	1306,60
618,15	1290,22
618,34	1327,08
618,53	1263,60
618,72	1343,47
618,91	1193,97
619,10	1226,73
619,29	1302,51
619,48	1267,69
619,68	1257,45
619,87	1345,52
620,06	1300,46
620,25	1236,97
620,44	1261,55
620,63	1263,60
620,82	1298,41
621,01	1273,84
621,20	1200,11
621,39	1273,84
621,59	1310,70
621,78	1279,98
621,97	1294,32
622,16	1275,88
622,35	1204,21
622,54	1273,84
622,73	1230,83
622,92	1257,45
623,11	1265,64
623,30	1269,74
623,49	1259,50
623,68	1296,36
623,88	1241,07
624,07	1265,64
624,26	1304,56
624,45	1339,37
624,64	1216,49
624,83	1363,95
625,02	1265,64
625,21	1318,89
625,40	1357,80
625,59	1302,51
625,78	1294,32
625,97	1241,07
626,16	1335,28
626,35	1304,56
626,54	1239,02
626,74	1282,03
626,93	1208,30
627,12	1286,12
627,31	1312,75
627,50	1374,19
627,69	1292,27
627,88	1304,56
628,07	1257,45
628,26	1167,34
628,45	1288,17
628,64	1269,74
628,83	1255,40
629,02	1337,32
629,21	1329,13
629,40	1368,04
629,59	1269,74
629,78	1366,00
629,97	1298,41
630,16	1382,38
630,35	1292,27
630,54	1298,41
630,73	1384,43
630,92	1304,56
631,11	1359,85
631,30	1351,66
631,49	1374,19
631,68	1863,65
631,87	10002,28
632,06	37969,34
632,25	65535,00
632,44	65535,00
632,63	65535,00
632,82	65535,00
633,01	65535,00
633,20	47586,60
633,39	18849,50
633,58	3829,70
633,77	4097,99
633,96	3690,44
634,15	3010,51
634,34	2191,33
634,53	1949,67
634,72	2074,59
634,91	1767,40
635,10	1728,49
635,29	1746,92
635,48	1681,38
635,67	1681,38
635,86	1490,92
636,05	1503,21
636,24	1447,91
636,43	1329,13
636,62	1456,11
636,81	1376,24
637,00	1417,19
637,19	1464,30
637,38	1398,76
637,57	1476,59
637,76	1357,80
637,95	1380,33
638,14	1314,80
638,33	1282,03
638,52	1339,37
638,71	1267,69
638,89	1372,14
639,08	1343,47
639,27	1337,32
639,46	1314,80
639,65	1288,17
639,84	1255,40
640,03	1255,40
640,22	1282,03
640,41	1284,08
640,60	1296,36
640,79	1318,89
640,98	1273,84
641,17	1257,45
641,36	1294,32
641,55	1304,56
641,74	1275,88
641,92	1308,65
642,11	1226,73
642,30	1271,79
642,49	1224,69
642,68	1267,69
642,87	1183,73
643,06	1271,79
643,25	1277,93
643,44	1269,74
643,63	1318,89
643,82	1267,69
644,00	1271,79
644,19	1335,28
644,38	1251,31
644,57	1368,04
644,76	1234,93
644,95	1335,28
645,14	1292,27
645,33	1296,36
645,52	1282,03
645,71	1204,21
645,89	1306,60
646,08	1261,55
646,27	1351,66
646,46	1370,09
646,65	1273,84
646,84	1282,03
647,03	1249,26
647,22	1247,21
647,40	1232,88
647,59	1263,60
647,78	1286,12
647,97	1253,36
648,16	1243,12
648,35	1232,88
648,54	1316,84
648,73	1310,70
648,91	1271,79
649,10	1296,36
649,29	1337,32
649,48	1298,41
649,67	1298,41
649,86	1300,46
650,05	1140,72
650,23	1212,40
650,42	1277,93
650,61	1288,17
650,80	1243,12
650,99	1292,27
651,18	1234,93
651,36	1241,07
651,55	1255,40
651,74	1263,60
651,93	1247,21
652,12	1269,74
652,31	1232,88
652,49	1230,83
652,68	1239,02
652,87	1232,88
653,06	1282,03
653,25	1273,84
653,44	1214,45
653,62	1255,40
653,81	1265,64
654,00	1265,64
654,19	1275,88
654,38	1312,75
654,56	1255,40
654,75	1282,03
654,94	1316,84
655,13	1269,74
655,32	1302,51
655,51	1261,55
655,69	1226,73
655,88	1198,06
656,07	1298,41
656,26	1282,03
656,45	1271,79
656,63	1228,78
656,82	1325,04
657,01	1329,13
657,20	1269,74
657,38	1320,94
657,57	1239,02
657,76	1171,44
657,95	1247,21
658,14	1232,88
658,32	1314,80
658,51	1288,17
658,70	1236,97
658,89	1296,36
659,08	1239,02
659,26	1230,83
659,45	1290,22
659,64	1259,50
659,83	1185,77
660,01	1343,47
660,20	1255,40
660,39	1241,07
660,58	1249,26
660,76	1247,21
660,95	1259,50
661,14	1273,84
661,33	1234,93
661,51	1304,56
661,70	1290,22
661,89	1302,51
662,08	1210,35
662,26	1345,52
662,45	1169,39
662,64	1271,79
662,83	1339,37
663,01	1228,78
663,20	1232,88
663,39	1273,84
663,58	1310,70
663,76	1232,88
663,95	1208,30
664,14	1306,60
664,32	1253,36
664,51	1243,12
664,70	1251,31
664,89	1353,71
665,07	1241,07
665,26	1241,07
665,45	1241,07
665,64	1208,30
665,82	1275,88
666,01	1271,79
666,20	1259,50
666,38	1308,65
666,57	1239,02
666,76	1282,03
666,95	1247,21
667,13	1339,37
667,32	1335,28
667,51	1210,35
667,69	1239,02
667,88	1251,31
668,07	1288,17
668,25	1320,94
668,44	1269,74
668,63	1261,55
668,81	1271,79
669,00	1263,60
669,19	1253,36
669,38	1316,84
669,56	1243,12
669,75	1267,69
669,94	1271,79
670,12	1169,39
670,31	1214,45
670,50	1269,74
670,68	1216,49
670,87	1366,00
671,06	1271,79
671,24	1298,41
671,43	1245,16
671,62	1296,36
671,80	1290,22
671,99	1243,12
672,18	1230,83
672,36	1294,32
672,55	1241,07
672,74	1251,31
672,92	1220,59
673,11	1257,45
673,29	1255,40
673,48	1335,28
673,67	1351,66
673,85	1271,79
674,04	1257,45
674,23	1257,45
674,41	1320,94
674,60	1263,60
674,79	1273,84
674,97	1208,30
675,16	1296,36
675,34	1300,46
675,53	1218,54
675,72	1284,08
675,90	1220,59
676,09	1253,36
676,28	1234,93
676,46	1308,65
676,65	1251,31
676,83	1282,03
677,02	1251,31
677,21	1241,07
677,39	1216,49
677,58	1253,36
677,77	1208,30
677,95	1353,71
678,14	1310,70
678,32	1284,08
678,51	1284,08
678,70	1241,07
678,88	1263,60
679,07	1282,03
679,25	1275,88
679,44	1269,74
679,63	1277,93
679,81	1277,93
680,00	1275,88
680,18	1302,51
680,37	1234,93
680,55	1290,22
680,74	1243,12
680,93	1277,93
681,11	1306,60
681,30	1314,80
681,48	1271,79
681,67	1239,02
681,85	1273,84
682,04	1277,93
682,23	1300,46
682,41	1290,22
682,60	1236,97
682,78	1159,15
682,97	1277,93
683,15	1294,32
683,34	1286,12
683,53	1290,22
683,71	1318,89
683,90	1247,21
684,08	1243,12
684,27	1273,84
684,45	1255,40
684,64	1251,31
684,82	1247,21
685,01	1347,56
685,19	1282,03
685,38	1279,98
685,57	1308,65
685,75	1304,56
685,94	1308,65
686,12	1318,89
686,31	1267,69
686,49	1302,51
686,68	1191,92
686,86	1304,56
687,05	1306,60
687,23	1288,17
687,42	1322,99
687,60	1290,22
687,79	1257,45
687,97	1331,18
688,16	1359,85
688,34	1228,78
688,53	1247,21
688,71	1316,84
688,90	1247,21
689,08	1310,70
689,27	1273,84
689,45	1175,53
689,64	1292,27
689,82	1253,36
690,01	1351,66
690,19	1247,21
690,38	1255,40
690,56	1288,17
690,75	1222,64
690,93	1239,02
691,12	1243,12
691,30	1300,46
691,49	1286,12
691,67	1296,36
691,86	1212,40
692,04	1273,84
692,23	1294,32
692,41	1279,98
692,60	1228,78
692,78	1257,45
692,97	1267,69
693,15	1253,36
693,34	1239,02
693,52	1279,98
693,71	1325,04
693,89	1239,02
694,08	1247,21
694,26	1245,16
694,44	1269,74
694,63	1204,21
694,81	1353,71
695,00	1253,36
695,18	1277,93
695,37	1277,93
695,55	1294,32
695,74	1261,55
695,92	1325,04
696,10	1290,22
696,29	1282,03
696,47	1273,84
696,66	1224,69
696,84	1339,37
697,03	1273,84
697,21	1396,71
697,40	1355,76
697,58	1232,88
697,76	1228,78
697,95	1212,40
698,13	1292,27
698,32	1230,83
698,50	1187,82
698,68	1271,79
698,87	1279,98
699,05	1310,70
699,24	1255,40
699,42	1322,99
699,61	1230,83
699,79	1282,03
699,97	1312,75
700,16	1247,21
700,34	1259,50
700,53	1296,36
700,71	1269,74
700,89	1320,94
701,08	1279,98
701,26	1241,07
701,45	1335,28
701,63	1337,32
701,81	1273,84
702,00	1279,98
702,18	1236,97
702,37	1208,30
702,55	1331,18
702,73	1236,97
702,92	1257,45
703,10	1282,03
703,28	1255,40
703,47	1312,75
703,65	1220,59
703,84	1255,40
704,02	1239,02
704,20	1265,64
704,39	1196,01
704,57	1273,84
704,75	1322,99
704,94	1327,08
705,12	1247,21
705,30	1251,31
705,49	1316,84
705,67	1286,12
705,86	1245,16
706,04	1226,73
706,22	1296,36
706,41	1236,97
706,59	1220,59
706,77	1185,77
706,96	1179,63
707,14	1273,84
707,32	1253,36
707,51	1275,88
707,69	1269,74
707,87	1296,36
708,06	1251,31
708,24	1318,89
708,42	1210,35
708,61	1230,83
708,79	1239,02
708,97	1333,23
709,16	1183,73
709,34	1249,26
709,52	1214,45
709,71	1230,83
709,89	1259,50
710,07	1267,69
710,26	1216,49
710,44	1329,13
710,62	1296,36
710,80	1255,40
710,99	1302,51
711,17	1273,84
711,35	1310,70
711,54	1290,22
711,72	1255,40
711,90	1269,74
712,09	1193,97
712,27	1312,75
712,45	1296,36
712,63	1257,45
712,82	1239,02
713,00	1245,16
713,18	1273,84
713,37	1249,26
713,55	1300,46
713,73	1286,12
713,91	1298,41
714,10	1312,75
714,28	1249,26
714,46	1265,64
714,65	1251,31
714,83	1282,03
715,01	1232,88
715,19	1234,93
715,38	1298,41
715,56	1243,12
715,74	1308,65
715,92	1239,02
716,11	1329,13
716,29	1308,65
716,47	1259,50
716,65	1306,60
716,84	1302,51
717,02	1378,28
717,20	1275,88
717,38	1208,30
717,57	1308,65
717,75	1241,07
717,93	1277,93
718,11	1228,78
718,30	1204,21
718,48	1361,90
718,66	1257,45
718,84	1294,32
719,03	1273,84
719,21	1286,12
719,39	1359,85
719,57	1306,60
719,75	1279,98
719,94	1312,75
720,12	1282,03
720,30	1304,56
720,48	1286,12
720,67	1275,88
720,85	1251,31
721,03	1308,65
721,21	1239,02
721,39	1282,03
721,58	1220,59
721,76	1304,56
721,94	1257,45
722,12	1271,79
722,30	1247,21
722,49	1359,85
722,67	1288,17
722,85	1265,64
723,03	1222,64
723,21	1308,65
723,40	1255,40
723,58	1183,73
723,76	1159,15
723,94	1271,79
724,12	1263,60
724,30	1218,54
724,49	1275,88
724,67	1273,84
724,85	1269,74
725,03	1263,60
725,21	1298,41
725,40	1349,61
725,58	1286,12
725,76	1279,98
725,94	1265,64
726,12	1212,40
726,30	1267,69
726,49	1331,18
726,67	1220,59
726,85	1212,40
727,03	1179,63
727,21	1294,32
727,39	1322,99
727,57	1230,83
727,76	1263,60
727,94	1257,45
728,12	1312,75
728,30	1243,12
728,48	1232,88
728,66	1193,97
728,84	1261,55
729,03	1226,73
729,21	1236,97
729,39	1247,21
729,57	1290,22
729,75	1249,26
729,93	1263,60
730,11	1220,59
730,30	1279,98
730,48	1239,02
730,66	1249,26
730,84	1312,75
731,02	1249,26
731,20	1224,69
731,38	1292,27
731,56	1288,17
731,74	1222,64
731,93	1290,22
732,11	1318,89
732,29	1320,94
732,47	1224,69
732,65	1341,42
732,83	1294,32
733,01	1271,79
733,19	1257,45
733,37	1306,60
733,56	1273,84
733,74	1286,12
733,92	1255,40
734,10	1273,84
734,28	1329,13
734,46	1241,07
734,64	1286,12
734,82	1183,73
735,00	1247,21
735,18	1226,73
735,36	1185,77
735,54	1249,26
735,73	1277,93
735,91	1335,28
736,09	1220,59
736,27	1286,12
736,45	1273,84
736,63	1208,30
736,81	1243,12
736,99	1298,41
737,17	1257,45
737,35	1243,12
737,53	1247,21
737,71	1292,27
737,89	1247,21
738,07	1234,93
738,25	1214,45
738,43	1239,02
738,61	1249,26
738,80	1218,54
738,98	1286,12
739,16	1241,07
739,34	1318,89
739,52	1347,56
739,70	1288,17
739,88	1329,13
740,06	1290,22
740,24	1284,08
740,42	1236,97
740,60	1193,97
740,78	1171,44
740,96	1314,80
741,14	1271,79
741,32	1236,97
741,50	1251,31
741,68	1290,22
741,86	1255,40
742,04	1245,16
742,22	1251,31
742,40	1230,83
742,58	1322,99
742,76	1249,26
742,94	1236,97
743,12	1286,12
743,30	1206,25
743,48	1282,03
743,66	1273,84
743,84	1265,64
744,02	1232,88
744,20	1277,93
744,38	1277,93
744,56	1255,40
744,74	1271,79
744,92	1322,99
745,10	1288,17
745,28	1214,45
745,46	1331,18
745,64	1331,18
745,82	1271,79
746,00	1265,64
746,18	1234,93
746,36	1210,35
746,54	1249,26
746,72	1228,78
746,90	1257,45
747,08	1251,31
747,26	1306,60
747,44	1320,94
747,62	1247,21
747,80	1284,08
747,98	1282,03
748,15	1259,50
748,33	1312,75
748,51	1290,22
748,69	1279,98
748,87	1282,03
749,05	1335,28
749,23	1312,75
749,41	1349,61
749,59	1351,66
749,77	1228,78
749,95	1259,50
750,13	1269,74
750,31	1226,73
750,49	1251,31
750,67	1259,50
750,85	1279,98
751,03	1290,22
751,20	1169,39
751,38	1286,12
751,56	1269,74
751,74	1312,75
751,92	1267,69
752,10	1277,93
752,28	1249,26
752,46	1290,22
752,64	1288,17
752,82	1265,64
753,00	1263,60
753,18	1292,27
753,35	1257,45
753,53	1236,97
753,71	1230,83
753,89	1273,84
754,07	1302,51
754,25	1320,94
754,43	1234,93
754,61	1255,40
754,79	1286,12
754,97	1296,36
755,14	1228,78
755,32	1300,46
755,50	1263,60
755,68	1193,97
755,86	1241,07
756,04	1302,51
756,22	1322,99
756,40	1286,12
756,57	1277,93
756,75	1302,51
756,93	1191,92
757,11	1345,52
757,29	1261,55
757,47	1296,36
757,65	1234,93
757,82	1257,45
758,00	1232,88
758,18	1255,40
758,36	1265,64
758,54	1306,60
758,72	1245,16
758,90	1310,70
759,07	1275,88
759,25	1173,49
759,43	1296,36
759,61	1284,08
759,79	1286,12
759,97	1312,75
760,15	1179,63
760,32	1228,78
760,50	1243,12
760,68	1333,23
760,86	1271,79
761,04	1181,68
761,22	1245,16
761,39	1273,84
761,57	1226,73
761,75	1298,41
761,93	1284,08
762,11	1265,64
762,28	1288,17
762,46	1163,25
762,64	1273,84
762,82	1257,45
763,00	1189,87
763,18	1310,70
763,35	1234,93
763,53	1329,13
763,71	1327,08
763,89	1241,07
764,07	1269,74
764,24	1308,65
764,42	1277,93
764,60	1304,56
764,78	1265,64
764,96	1282,03
765,13	1220,59
765,31	1316,84
765,49	1236,97
765,67	1230,83
765,84	1290,22
766,02	1218,54
766,20	1236,97
766,38	1292,27
766,56	1267,69
766,73	1327,08
766,91	1279,98
767,09	1202,16
767,27	1210,35
767,44	1150,96
767,62	1298,41
767,80	1218,54
767,98	1220,59
768,15	1236,97
768,33	1294,32
768,51	1253,36
768,69	1220,59
768,87	1304,56
769,04	1255,40
769,22	1273,84
769,40	1261,55
769,58	1325,04
769,75	1282,03
769,93	1191,92
770,11	1269,74
770,28	1241,07
770,46	1261,55
770,64	1239,02
770,82	1288,17
770,99	1347,56
771,17	1241,07
771,35	1241,07
771,53	1277,93
771,70	1261,55
771,88	1275,88
772,06	1349,61
772,23	1202,16
772,41	1265,64
772,59	1210,35
772,77	1351,66
772,94	1249,26
773,12	1271,79
773,30	1245,16
773,47	1273,84
773,65	1284,08
773,83	1286,12
774,01	1265,64
774,18	1265,64
774,36	1196,01
774,54	1251,31
774,71	1298,41
774,89	1304,56
775,07	1290,22
775,24	1185,77
775,42	1185,77
775,60	1253,36
775,78	1259,50
775,95	1189,87
776,13	1269,74
776,31	1310,70
776,48	1193,97
776,66	1265,64
776,84	1251,31
777,01	1310,70
777,19	1320,94
777,37	1206,25
777,54	1341,42
777,72	1259,50
777,90	1202,16
778,07	1247,21
778,25	1239,02
778,43	1288,17
778,60	1253,36
778,78	1261,55
778,96	1292,27
779,13	1196,01
779,31	1236,97
779,49	1282,03
779,66	1277,93
779,84	1183,73
780,01	1228,78
780,19	1206,25
780,37	1255,40
780,54	1277,93
780,72	1316,84
780,90	1329,13
781,07	1243,12
781,25	1245,16
781,43	1320,94
781,60	1257,45
781,78	1273,84
781,95	1308,65
782,13	1230,83
782,31	1290,22
782,48	1222,64
782,66	1273,84
782,83	1335,28
783,01	1263,60
783,19	1204,21
783,36	1232,88
783,54	1177,58
783,72	1255,40
783,89	1269,74
784,07	1263,60
784,24	1300,46
784,42	1241,07
784,60	1292,27
784,77	1279,98
784,95	1257,45
785,12	1359,85
785,30	1234,93
785,47	1310,70
785,65	1245,16
785,83	1273,84
786,00	1255,40
786,18	1314,80
786,35	1243,12
786,53	1296,36
786,71	1275,88
786,88	1314,80
787,06	1173,49
787,23	1255,40
787,41	1193,97
787,58	1269,74
787,76	1200,11
787,94	1236,97
788,11	1275,88
788,29	1265,64
788,46	1208,30
788,64	1196,01
788,81	1312,75
788,99	1273,84
789,16	1257,45
789,34	1245,16
789,52	1320,94
789,69	1292,27
789,87	1304,56
790,04	1290,22
790,22	1189,87
790,39	1279,98
790,57	1148,91
790,74	1271,79
790,92	1275,88
791,09	1288,17
791,27	1277,93
791,44	1322,99
791,62	1279,98
791,79	1265,64
791,97	1239,02
792,15	1355,76
792,32	1298,41
792,50	1277,93
792,67	1239,02
792,85	1300,46
793,02	1267,69
793,20	1265,64
793,37	1232,88
793,55	1347,56
793,72	1290,22
793,90	1327,08
794,07	1273,84
794,25	1355,76
794,42	1228,78
794,60	1275,88
794,77	1257,45
794,95	1345,52
795,12	1265,64
795,30	1243,12
795,47	1218,54
795,65	1298,41
795,82	1275,88
796,00	1239,02
796,17	1273,84
796,34	1279,98
796,52	1251,31
796,69	1241,07
796,87	1255,40
797,04	1249,26
797,22	1312,75
797,39	1302,51
797,57	1394,67
797,74	1325,04
797,92	1241,07
798,09	1218,54
798,27	1271,79
798,44	1259,50
798,62	1271,79
798,79	1247,21
798,96	1296,36
799,14	1216,49
799,31	1269,74
799,49	1241,07
799,66	1271,79
799,84	1251,31
800,01	1204,21
800,19	1267,69
800,36	1255,40
800,53	1232,88
800,71	1226,73
800,88	1290,22
801,06	1236,97
801,23	1257,45
801,41	1216,49
801,58	1384,43
801,75	1327,08
801,93	1308,65
802,10	1271,79
802,28	1257,45
802,45	1302,51
802,63	1245,16
802,80	1314,80
802,97	1249,26
803,15	1249,26
803,32	1210,35
803,50	1210,35
803,67	1310,70
803,84	1241,07
804,02	1327,08
804,19	1265,64
804,37	1275,88
804,54	1224,69
804,71	1279,98
804,89	1288,17
805,06	1325,04
805,24	1363,95
805,41	1249,26
805,58	1290,22
805,76	1218,54
805,93	1279,98
806,10	1210,35
806,28	1286,12
806,45	1216,49
806,63	1202,16
806,80	1298,41
806,97	1234,93
807,15	1320,94
807,32	1300,46
807,49	1304,56
807,67	1269,74
807,84	1275,88
808,01	1286,12
808,19	1279,98
808,36	1304,56
808,54	1314,80
808,71	1271,79
808,88	1263,60
809,06	1198,06
809,23	1308,65
809,40	1243,12
809,58	1265,64
809,75	1220,59
809,92	1284,08
810,10	1282,03
810,27	1234,93
810,44	1302,51
810,62	1257,45
810,79	1234,93
810,96	1247,21
811,14	1310,70
811,31	1245,16
811,48	1310,70
811,66	1322,99
811,83	1284,08
812,00	1279,98
812,18	1269,74
812,35	1296,36
812,52	1253,36
812,69	1351,66
812,87	1286,12
813,04	1284,08
813,21	1275,88
813,39	1273,84
813,56	1310,70
813,73	1277,93
813,91	1359,85
814,08	1271,79
814,25	1265,64
814,42	1290,22
814,60	1263,60
814,77	1241,07
814,94	1263,60
815,12	1191,92
815,29	1327,08
815,46	1169,39
815,63	1243,12
815,81	1314,80
815,98	1243,12
816,15	1263,60
816,33	1243,12
816,50	1292,27
816,67	1263,60
816,84	1255,40
817,02	1288,17
817,19	1296,36
817,36	1290,22
817,53	1222,64
817,71	1226,73
817,88	1265,64
818,05	1277,93
818,22	1214,45
818,40	1290,22
818,57	1202,16
818,74	1165,29
818,91	1300,46
819,09	1241,07
819,26	1216,49
819,43	1296,36
819,60	1329,13
819,78	1216,49
819,95	1253,36
820,12	1269,74
820,29	1296,36
820,47	1228,78
820,64	1247,21
820,81	1282,03
820,98	1259,50
821,15	1228,78
821,33	1284,08
821,50	1208,30
821,67	1251,31
821,84	1259,50
822,02	1308,65
822,19	1286,12
822,36	1294,32
822,53	1269,74
822,70	1204,21
822,88	1263,60
823,05	1296,36
823,22	1302,51
823,39	1302,51
823,56	1206,25
823,74	1298,41
823,91	1228,78
824,08	1304,56
824,25	1253,36
824,42	1255,40
824,60	1275,88
824,77	1263,60
824,94	1236,97
825,11	1251,31
825,28	1257,45
825,45	1339,37
825,63	1257,45
825,80	1232,88
825,97	1222,64
826,14	1282,03
826,31	1300,46
826,48	1257,45
826,66	1277,93
826,83	1216,49
827,00	1208,30
827,17	1273,84
827,34	1345,52
827,51	1257,45
827,69	1329,13
827,86	1322,99
828,03	1226,73
828,20	1318,89
828,37	1212,40
828,54	1282,03
828,71	1228,78
828,89	1263,60
829,06	1228,78
829,23	1259,50
829,40	1286,12
829,57	1335,28
829,74	1220,59
829,91	1284,08
830,09	1275,88
830,26	1232,88
830,43	1282,03
830,60	1255,40
830,77	1288,17
830,94	1308,65
831,11	1275,88
831,28	1198,06
831,46	1273,84
831,63	1314,80
831,80	1269,74
831,97	1239,02
832,14	1308,65
832,31	1234,93
832,48	1286,12
832,65	1230,83
832,82	1232,88
832,99	1345,52
833,17	1298,41
833,34	1298,41
833,51	1314,80
833,68	1296,36
833,85	1247,21
834,02	1296,36
834,19	1269,74
834,36	1249,26
834,53	1290,22
834,70	1216,49
834,87	1288,17
835,04	1230,83
835,22	1261,55
835,39	1251,31
835,56	1259,50
835,73	1351,66
835,90	1191,92
836,07	1304,56
836,24	1236,97
836,41	1271,79
836,58	1208,30
836,75	1290,22
836,92	1265,64
837,09	1320,94
837,26	1296,36
837,43	1253,36
837,60	1251,31
837,77	1296,36
837,94	1277,93
838,12	1331,18
838,29	1325,04
838,46	1224,69
838,63	1308,65
838,80	1296,36
838,97	1294,32
839,14	1255,40
839,31	1236,97
839,48	1335,28
839,65	1298,41
839,82	1214,45
839,99	1290,22
840,16	1363,95
840,33	1304,56
840,50	1232,88
840,67	1302,51
840,84	1208,30
841,01	1282,03
841,18	1253,36
841,35	1269,74
841,52	1290,22
841,69	1259,50
841,86	1294,32
842,03	1232,88
842,20	1347,56
842,37	1228,78
842,54	1296,36
842,71	1247,21
842,88	1251,31
843,05	1232,88
843,22	1316,84
843,39	1267,69
843,56	1228,78
843,73	1339,37
843,90	1224,69
844,07	1331,18
844,24	1273,84
844,41	1302,51
844,58	1284,08
844,75	1206,25
844,92	1236,97
845,09	1347,56
845,26	1216,49
845,43	1257,45
845,60	1241,07
845,77	1304,56
845,94	1366,00
846,10	1212,40
846,27	1302,51
846,44	1241,07
846,61	1333,23
846,78	1298,41
846,95	1339,37
847,12	1261,55
847,29	1286,12
847,46	1306,60
847,63	1177,58
847,80	1226,73
847,97	1226,73
848,14	1282,03
848,31	1271,79
848,48	1247,21
848,65	1304,56
848,82	1288,17
848,98	1294,32
849,15	1331,18
849,32	1243,12
849,49	1290,22
849,66	1292,27
849,83	1224,69
850,00	1189,87
850,17	1282,03
850,34	1271,79
850,51	1259,50
850,68	1327,08
850,85	1226,73
851,01	1282,03
851,18	1241,07
851,35	1263,60
851,52	1263,60
851,69	1306,60
851,86	1245,16
852,03	1335,28
852,20	1300,46
852,37	1263,60
852,53	1259,50
852,70	1306,60
852,87	1277,93
853,04	1314,80
853,21	1292,27
853,38	1271,79
853,55	1275,88
853,72	1255,40
853,89	1277,93
854,05	1230,83
854,22	1277,93
854,39	1265,64
854,56	1241,07
854,73	1257,45
854,90	1226,73
855,07	1257,45
855,23	1173,49
855,40	1320,94
855,57	1210,35
855,74	1306,60
855,91	1329,13
856,08	1214,45
856,25	1296,36
856,41	1271,79
856,58	1310,70
856,75	1239,02
856,92	1316,84
857,09	1279,98
857,26	1263,60
857,42	1275,88
857,59	1261,55
857,76	1245,16
857,93	1282,03
858,10	1288,17
858,27	1271,79
858,43	1275,88
858,60	1288,17
858,77	1267,69
858,94	1275,88
859,11	1228,78
859,27	1171,44
859,44	1282,03
859,61	1263,60
859,78	1300,46
859,95	1290,22
860,12	1247,21
860,28	1331,18
860,45	1239,02
860,62	1236,97
860,79	1320,94
860,95	1239,02
861,12	1239,02
861,29	1308,65
861,46	1216,49
861,63	1286,12
861,79	1292,27
861,96	1214,45
862,13	1271,79
862,30	1193,97
862,47	1300,46
862,63	1193,97
862,80	1265,64
862,97	1245,16
863,14	1257,45
863,30	1290,22
863,47	1329,13
863,64	1277,93
863,81	1306,60
863,97	1230,83
864,14	1251,31
864,31	1300,46
864,48	1312,75
864,65	1253,36
864,81	1316,84
864,98	1308,65
865,15	1296,36
865,32	1208,30
865,48	1265,64
865,65	1249,26
865,82	1202,16
865,98	1257,45
866,15	1269,74
866,32	1284,08
866,49	1232,88
866,65	1306,60
866,82	1282,03
866,99	1327,08
867,16	1302,51
867,32	1312,75
867,49	1263,60
867,66	1277,93
867,83	1236,97
867,99	1230,83
868,16	1263,60
868,33	1310,70
868,49	1218,54
868,66	1282,03
868,83	1249,26
868,99	1259,50
869,16	1249,26
869,33	1376,24
869,50	1353,71
869,66	1273,84
869,83	1265,64
870,00	1265,64
870,16	1279,98
870,33	1277,93
870,50	1347,56
870,66	1308,65
870,83	1286,12
871,00	1279,98
871,17	1320,94
871,33	1251,31
871,50	1269,74
871,67	1249,26
871,83	1327,08
872,00	1222,64
872,17	1269,74
872,33	1275,88
872,50	1267,69
872,67	1296,36
872,83	1245,16
873,00	1263,60
873,17	1267,69
873,33	1239,02
873,50	1191,92
873,67	1185,77
873,83	1290,22
874,00	1343,47
874,16	1320,94
874,33	1267,69
874,50	1306,60
874,66	1245,16
874,83	1308,65
875,00	1312,75
875,16	1189,87
875,33	1296,36
875,50	1265,64
875,66	1259,50
875,83	1241,07
875,99	1282,03
876,16	1335,28
876,33	1300,46
876,49	1232,88
876,66	1339,37
876,83	1232,88
876,99	1236,97
877,16	1191,92
877,32	1300,46
877,49	1263,60
877,66	1198,06
877,82	1296,36
877,99	1236,97
878,15	1282,03
878,32	1273,84
878,49	1216,49
878,65	1275,88
878,82	1337,32
878,98	1263,60
879,15	1275,88
879,32	1329,13
879,48	1218,54
879,65	1284,08
879,81	1329,13
879,98	1345,52
880,15	1271,79
880,31	1263,60
880,48	1314,80
880,64	1298,41
880,81	1296,36
880,97	1300,46
881,14	1249,26
881,31	1282,03
881,47	1314,80
881,64	1222,64
881,80	1277,93
881,97	1273,84
882,13	1230,83
882,30	1216,49
882,47	1259,50
882,63	1228,78
882,80	1265,64
882,96	1282,03
883,13	1277,93
883,29	1312,75
883,46	1273,84
883,62	1286,12
883,79	1257,45
883,95	1284,08
884,12	1329,13
884,29	1243,12
884,45	1204,21
884,62	1316,84
884,78	1198,06
884,95	1234,93
885,11	1212,40
885,28	1263,60
885,44	1263,60
885,61	1279,98
885,77	1320,94
885,94	1257,45
886,10	1308,65
886,27	1245,16
886,43	1329,13
886,60	1349,61
886,76	1247,21
886,93	1302,51
887,09	1325,04
887,26	1261,55
887,42	1290,22
887,59	1228,78
887,75	1241,07
887,92	1273,84
888,08	1302,51
888,25	1247,21
888,41	1267,69
888,58	1267,69
888,74	1271,79
888,91	1275,88
>>>>>End Processed Spectral Data<<<<<
