SpectraSuite Data File
++++++++++++++++++++++++++++++++++++
Date: Sun Apr 03 19:36:04 CEST 2016
User: root
Dark Spectrum Present: No
Reference Spectrum Present: No
Number of Sampled Component Spectra: 1
Spectrometers: USB4C02835
Integration Time (usec): 10000 (USB4C02835)
Spectra Averaged: 1 (USB4C02835)
Boxcar Smoothing: 0 (USB4C02835)
Correct for Electrical Dark: No (USB4C02835)
Strobe/Lamp Enabled: No (USB4C02835)
Correct for Detector Non-linearity: No (USB4C02835)
Correct for Stray Light: No (USB4C02835)
Number of Pixels in Processed Spectrum: 3648
>>>>>Begin Processed Spectral Data<<<<<
177,47	1265,64
177,69	1265,64
177,91	1265,64
178,13	1232,88
178,36	1208,30
178,58	1218,54
178,80	1333,23
179,02	1286,12
179,24	1310,70
179,46	1216,49
179,68	1247,21
179,90	1279,98
180,13	1243,12
180,35	1277,93
180,57	1249,26
180,79	1263,60
181,01	1232,88
181,23	1224,69
181,45	1255,40
181,67	1210,35
181,90	1230,83
182,12	1220,59
182,34	1230,83
182,56	1263,60
182,78	1249,26
183,00	1261,55
183,22	1316,84
183,44	1222,64
183,66	1292,27
183,89	1298,41
184,11	1241,07
184,33	1271,79
184,55	1290,22
184,77	1226,73
184,99	1284,08
185,21	1224,69
185,43	1314,80
185,65	1171,44
185,87	1314,80
186,10	1204,21
186,32	1339,37
186,54	1220,59
186,76	1273,84
186,98	1263,60
187,20	1265,64
187,42	1341,42
187,64	1277,93
187,86	1308,65
188,08	1212,40
188,30	1277,93
188,52	1257,45
188,75	1296,36
188,97	1298,41
189,19	1212,40
189,41	1316,84
189,63	1284,08
189,85	1277,93
190,07	1294,32
190,29	1271,79
190,51	1210,35
190,73	1259,50
190,95	1220,59
191,17	1191,92
191,39	1167,34
191,61	1290,22
191,84	1230,83
192,06	1243,12
192,28	1265,64
192,50	1284,08
192,72	1331,18
192,94	1347,56
193,16	1298,41
193,38	1169,39
193,60	1306,60
193,82	1157,10
194,04	1185,77
194,26	1296,36
194,48	1298,41
194,70	1257,45
194,92	1259,50
195,14	1298,41
195,36	1263,60
195,58	1292,27
195,80	1312,75
196,02	1239,02
196,24	1314,80
196,46	1241,07
196,69	1212,40
196,91	1282,03
197,13	1216,49
197,35	1282,03
197,57	1267,69
197,79	1275,88
198,01	1257,45
198,23	1232,88
198,45	1329,13
198,67	1228,78
198,89	1200,11
199,11	1257,45
199,33	1269,74
199,55	1282,03
199,77	1261,55
199,99	1239,02
200,21	1241,07
200,43	1259,50
200,65	1296,36
200,87	1273,84
201,09	1241,07
201,31	1243,12
201,53	1236,97
201,75	1298,41
201,97	1265,64
202,19	1271,79
202,41	1277,93
202,63	1271,79
202,85	1234,93
203,07	1228,78
203,29	1222,64
203,51	1263,60
203,73	1322,99
203,95	1290,22
204,17	1249,26
204,39	1286,12
204,61	1257,45
204,83	1339,37
205,05	1279,98
205,27	1239,02
205,49	1249,26
205,71	1290,22
205,93	1232,88
206,15	1196,01
206,37	1234,93
206,59	1298,41
206,81	1277,93
207,03	1310,70
207,25	1345,52
207,47	1267,69
207,69	1253,36
207,91	1247,21
208,13	1308,65
208,34	1236,97
208,56	1257,45
208,78	1247,21
209,00	1187,82
209,22	1306,60
209,44	1179,63
209,66	1294,32
209,88	1241,07
210,10	1296,36
210,32	1265,64
210,54	1216,49
210,76	1349,61
210,98	1265,64
211,20	1273,84
211,42	1241,07
211,64	1306,60
211,86	1288,17
212,08	1267,69
212,30	1249,26
212,52	1275,88
212,74	1314,80
212,96	1304,56
213,17	1247,21
213,39	1232,88
213,61	1284,08
213,83	1265,64
214,05	1208,30
214,27	1241,07
214,49	1271,79
214,71	1279,98
214,93	1284,08
215,15	1241,07
215,37	1226,73
215,59	1234,93
215,81	1265,64
216,03	1290,22
216,24	1236,97
216,46	1298,41
216,68	1261,55
216,90	1243,12
217,12	1296,36
217,34	1292,27
217,56	1247,21
217,78	1239,02
218,00	1216,49
218,22	1232,88
218,44	1304,56
218,66	1269,74
218,87	1308,65
219,09	1241,07
219,31	1312,75
219,53	1355,76
219,75	1210,35
219,97	1261,55
220,19	1239,02
220,41	1222,64
220,63	1267,69
220,85	1290,22
221,06	1269,74
221,28	1308,65
221,50	1275,88
221,72	1224,69
221,94	1206,25
222,16	1241,07
222,38	1288,17
222,60	1269,74
222,82	1257,45
223,03	1294,32
223,25	1286,12
223,47	1189,87
223,69	1310,70
223,91	1275,88
224,13	1329,13
224,35	1171,44
224,57	1224,69
224,78	1271,79
225,00	1290,22
225,22	1218,54
225,44	1265,64
225,66	1335,28
225,88	1224,69
226,10	1298,41
226,32	1271,79
226,53	1241,07
226,75	1241,07
226,97	1322,99
227,19	1302,51
227,41	1224,69
227,63	1212,40
227,85	1322,99
228,06	1261,55
228,28	1298,41
228,50	1249,26
228,72	1275,88
228,94	1292,27
229,16	1247,21
229,37	1228,78
229,59	1282,03
229,81	1345,52
230,03	1239,02
230,25	1255,40
230,47	1296,36
230,69	1327,08
230,90	1230,83
231,12	1273,84
231,34	1247,21
231,56	1198,06
231,78	1216,49
232,00	1314,80
232,21	1261,55
232,43	1224,69
232,65	1296,36
232,87	1230,83
233,09	1273,84
233,30	1263,60
233,52	1294,32
233,74	1294,32
233,96	1271,79
234,18	1212,40
234,40	1310,70
234,61	1241,07
234,83	1214,45
235,05	1292,27
235,27	1214,45
235,49	1210,35
235,70	1351,66
235,92	1314,80
236,14	1193,97
236,36	1310,70
236,58	1390,57
236,79	1263,60
237,01	1308,65
237,23	1286,12
237,45	1271,79
237,67	1243,12
237,88	1273,84
238,10	1298,41
238,32	1257,45
238,54	1284,08
238,76	1288,17
238,97	1277,93
239,19	1298,41
239,41	1277,93
239,63	1249,26
239,85	1253,36
240,06	1273,84
240,28	1222,64
240,50	1249,26
240,72	1282,03
240,93	1265,64
241,15	1247,21
241,37	1243,12
241,59	1345,52
241,81	1279,98
242,02	1282,03
242,24	1259,50
242,46	1292,27
242,68	1236,97
242,89	1249,26
243,11	1249,26
243,33	1322,99
243,55	1273,84
243,76	1251,31
243,98	1208,30
244,20	1282,03
244,42	1314,80
244,64	1220,59
244,85	1259,50
245,07	1253,36
245,29	1286,12
245,51	1245,16
245,72	1263,60
245,94	1339,37
246,16	1234,93
246,38	1312,75
246,59	1206,25
246,81	1306,60
247,03	1286,12
247,24	1288,17
247,46	1255,40
247,68	1263,60
247,90	1251,31
248,11	1249,26
248,33	1257,45
248,55	1271,79
248,77	1202,16
248,98	1290,22
249,20	1247,21
249,42	1292,27
249,64	1236,97
249,85	1236,97
250,07	1241,07
250,29	1257,45
250,50	1208,30
250,72	1200,11
250,94	1368,04
251,16	1249,26
251,37	1292,27
251,59	1220,59
251,81	1282,03
252,02	1300,46
252,24	1161,20
252,46	1275,88
252,68	1263,60
252,89	1261,55
253,11	1271,79
253,33	1318,89
253,54	1275,88
253,76	1247,21
253,98	1325,04
254,20	1351,66
254,41	1277,93
254,63	1234,93
254,85	1226,73
255,06	1224,69
255,28	1228,78
255,50	1282,03
255,71	1282,03
255,93	1253,36
256,15	1189,87
256,36	1304,56
256,58	1226,73
256,80	1220,59
257,02	1212,40
257,23	1236,97
257,45	1265,64
257,67	1298,41
257,88	1163,25
258,10	1331,18
258,32	1290,22
258,53	1251,31
258,75	1230,83
258,97	1198,06
259,18	1269,74
259,40	1230,83
259,62	1191,92
259,83	1290,22
260,05	1279,98
260,27	1298,41
260,48	1265,64
260,70	1273,84
260,92	1263,60
261,13	1259,50
261,35	1269,74
261,57	1253,36
261,78	1239,02
262,00	1193,97
262,22	1279,98
262,43	1239,02
262,65	1239,02
262,86	1306,60
263,08	1327,08
263,30	1271,79
263,51	1267,69
263,73	1316,84
263,95	1261,55
264,16	1275,88
264,38	1187,82
264,60	1247,21
264,81	1263,60
265,03	1329,13
265,25	1251,31
265,46	1290,22
265,68	1294,32
265,89	1249,26
266,11	1329,13
266,33	1318,89
266,54	1308,65
266,76	1325,04
266,98	1253,36
267,19	1273,84
267,41	1273,84
267,62	1271,79
267,84	1265,64
268,06	1294,32
268,27	1241,07
268,49	1290,22
268,70	1277,93
268,92	1294,32
269,14	1249,26
269,35	1320,94
269,57	1306,60
269,79	1259,50
270,00	1290,22
270,22	1255,40
270,43	1333,23
270,65	1241,07
270,87	1202,16
271,08	1234,93
271,30	1196,01
271,51	1265,64
271,73	1249,26
271,95	1290,22
272,16	1271,79
272,38	1247,21
272,59	1247,21
272,81	1220,59
273,02	1316,84
273,24	1245,16
273,46	1273,84
273,67	1357,80
273,89	1261,55
274,10	1232,88
274,32	1243,12
274,54	1224,69
274,75	1265,64
274,97	1296,36
275,18	1347,56
275,40	1304,56
275,61	1302,51
275,83	1193,97
276,05	1230,83
276,26	1196,01
276,48	1341,42
276,69	1265,64
276,91	1296,36
277,12	1271,79
277,34	1234,93
277,55	1302,51
277,77	1267,69
277,99	1253,36
278,20	1284,08
278,42	1286,12
278,63	1312,75
278,85	1308,65
279,06	1239,02
279,28	1216,49
279,49	1263,60
279,71	1312,75
279,93	1366,00
280,14	1308,65
280,36	1208,30
280,57	1296,36
280,79	1329,13
281,00	1314,80
281,22	1239,02
281,43	1234,93
281,65	1214,45
281,86	1245,16
282,08	1249,26
282,29	1286,12
282,51	1253,36
282,73	1200,11
282,94	1273,84
283,16	1255,40
283,37	1269,74
283,59	1322,99
283,80	1232,88
284,02	1214,45
284,23	1216,49
284,45	1241,07
284,66	1193,97
284,88	1249,26
285,09	1279,98
285,31	1239,02
285,52	1228,78
285,74	1249,26
285,95	1204,21
286,17	1306,60
286,38	1279,98
286,60	1224,69
286,81	1265,64
287,03	1206,25
287,24	1230,83
287,46	1273,84
287,67	1247,21
287,89	1236,97
288,10	1245,16
288,32	1286,12
288,53	1312,75
288,75	1247,21
288,96	1216,49
289,18	1290,22
289,39	1288,17
289,61	1257,45
289,82	1222,64
290,04	1263,60
290,25	1239,02
290,47	1302,51
290,68	1298,41
290,90	1296,36
291,11	1259,50
291,33	1294,32
291,54	1247,21
291,76	1288,17
291,97	1257,45
292,18	1304,56
292,40	1296,36
292,61	1279,98
292,83	1236,97
293,04	1259,50
293,26	1288,17
293,47	1234,93
293,69	1232,88
293,90	1206,25
294,12	1243,12
294,33	1234,93
294,55	1232,88
294,76	1265,64
294,97	1288,17
295,19	1271,79
295,40	1230,83
295,62	1271,79
295,83	1277,93
296,05	1314,80
296,26	1253,36
296,48	1286,12
296,69	1316,84
296,90	1255,40
297,12	1273,84
297,33	1241,07
297,55	1236,97
297,76	1288,17
297,98	1271,79
298,19	1284,08
298,41	1343,47
298,62	1224,69
298,83	1341,42
299,05	1325,04
299,26	1263,60
299,48	1308,65
299,69	1269,74
299,90	1302,51
300,12	1318,89
300,33	1304,56
300,55	1239,02
300,76	1343,47
300,98	1327,08
301,19	1286,12
301,40	1300,46
301,62	1263,60
301,83	1282,03
302,05	1222,64
302,26	1241,07
302,47	1226,73
302,69	1263,60
302,90	1271,79
303,12	1341,42
303,33	1290,22
303,54	1273,84
303,76	1269,74
303,97	1253,36
304,19	1298,41
304,40	1300,46
304,61	1224,69
304,83	1294,32
305,04	1236,97
305,26	1363,95
305,47	1267,69
305,68	1339,37
305,90	1241,07
306,11	1380,33
306,33	1232,88
306,54	1214,45
306,75	1290,22
306,97	1241,07
307,18	1304,56
307,39	1239,02
307,61	1284,08
307,82	1269,74
308,04	1286,12
308,25	1306,60
308,46	1261,55
308,68	1318,89
308,89	1302,51
309,10	1263,60
309,32	1236,97
309,53	1261,55
309,74	1320,94
309,96	1269,74
310,17	1263,60
310,39	1255,40
310,60	1308,65
310,81	1251,31
311,03	1300,46
311,24	1302,51
311,45	1282,03
311,67	1210,35
311,88	1232,88
312,09	1257,45
312,31	1284,08
312,52	1265,64
312,73	1345,52
312,95	1304,56
313,16	1296,36
313,37	1255,40
313,59	1189,87
313,80	1261,55
314,01	1267,69
314,23	1200,11
314,44	1259,50
314,65	1234,93
314,87	1230,83
315,08	1220,59
315,29	1228,78
315,51	1290,22
315,72	1290,22
315,93	1259,50
316,15	1263,60
316,36	1232,88
316,57	1234,93
316,79	1249,26
317,00	1275,88
317,21	1288,17
317,43	1214,45
317,64	1236,97
317,85	1249,26
318,07	1257,45
318,28	1255,40
318,49	1202,16
318,70	1261,55
318,92	1253,36
319,13	1228,78
319,34	1226,73
319,56	1187,82
319,77	1288,17
319,98	1282,03
320,20	1253,36
320,41	1259,50
320,62	1212,40
320,83	1226,73
321,05	1290,22
321,26	1241,07
321,47	1214,45
321,69	1265,64
321,90	1265,64
322,11	1267,69
322,32	1218,54
322,54	1247,21
322,75	1251,31
322,96	1247,21
323,18	1234,93
323,39	1245,16
323,60	1263,60
323,81	1304,56
324,03	1173,49
324,24	1253,36
324,45	1210,35
324,66	1257,45
324,88	1245,16
325,09	1247,21
325,30	1320,94
325,52	1216,49
325,73	1228,78
325,94	1255,40
326,15	1306,60
326,37	1300,46
326,58	1314,80
326,79	1200,11
327,00	1236,97
327,22	1245,16
327,43	1206,25
327,64	1343,47
327,85	1232,88
328,07	1314,80
328,28	1236,97
328,49	1247,21
328,70	1232,88
328,92	1304,56
329,13	1265,64
329,34	1183,73
329,55	1308,65
329,76	1228,78
329,98	1259,50
330,19	1292,27
330,40	1222,64
330,61	1286,12
330,83	1275,88
331,04	1191,92
331,25	1261,55
331,46	1249,26
331,68	1282,03
331,89	1251,31
332,10	1234,93
332,31	1277,93
332,52	1279,98
332,74	1361,90
332,95	1232,88
333,16	1316,84
333,37	1236,97
333,58	1288,17
333,80	1349,61
334,01	1327,08
334,22	1222,64
334,43	1259,50
334,64	1255,40
334,86	1196,01
335,07	1234,93
335,28	1316,84
335,49	1249,26
335,70	1284,08
335,92	1269,74
336,13	1269,74
336,34	1339,37
336,55	1249,26
336,76	1261,55
336,98	1263,60
337,19	1316,84
337,40	1312,75
337,61	1228,78
337,82	1216,49
338,04	1257,45
338,25	1263,60
338,46	1253,36
338,67	1269,74
338,88	1349,61
339,09	1263,60
339,31	1234,93
339,52	1259,50
339,73	1294,32
339,94	1269,74
340,15	1308,65
340,36	1314,80
340,58	1214,45
340,79	1232,88
341,00	1249,26
341,21	1249,26
341,42	1269,74
341,63	1206,25
341,85	1322,99
342,06	1249,26
342,27	1325,04
342,48	1275,88
342,69	1224,69
342,90	1331,18
343,12	1236,97
343,33	1247,21
343,54	1214,45
343,75	1171,44
343,96	1382,38
344,17	1304,56
344,38	1222,64
344,60	1206,25
344,81	1191,92
345,02	1265,64
345,23	1224,69
345,44	1327,08
345,65	1251,31
345,86	1290,22
346,07	1337,32
346,29	1247,21
346,50	1271,79
346,71	1265,64
346,92	1302,51
347,13	1314,80
347,34	1339,37
347,55	1259,50
347,76	1300,46
347,98	1187,82
348,19	1243,12
348,40	1306,60
348,61	1302,51
348,82	1322,99
349,03	1261,55
349,24	1263,60
349,45	1275,88
349,66	1279,98
349,88	1275,88
350,09	1163,25
350,30	1189,87
350,51	1331,18
350,72	1298,41
350,93	1218,54
351,14	1298,41
351,35	1206,25
351,56	1226,73
351,77	1343,47
351,99	1269,74
352,20	1282,03
352,41	1325,04
352,62	1269,74
352,83	1284,08
353,04	1314,80
353,25	1257,45
353,46	1255,40
353,67	1288,17
353,88	1216,49
354,09	1249,26
354,30	1261,55
354,52	1265,64
354,73	1228,78
354,94	1243,12
355,15	1267,69
355,36	1302,51
355,57	1247,21
355,78	1243,12
355,99	1191,92
356,20	1249,26
356,41	1265,64
356,62	1269,74
356,83	1253,36
357,04	1279,98
357,25	1251,31
357,46	1269,74
357,68	1255,40
357,89	1275,88
358,10	1372,14
358,31	1282,03
358,52	1241,07
358,73	1249,26
358,94	1224,69
359,15	1294,32
359,36	1284,08
359,57	1253,36
359,78	1232,88
359,99	1228,78
360,20	1220,59
360,41	1269,74
360,62	1239,02
360,83	1210,35
361,04	1263,60
361,25	1333,23
361,46	1265,64
361,67	1202,16
361,88	1273,84
362,09	1257,45
362,30	1282,03
362,51	1224,69
362,72	1290,22
362,93	1282,03
363,14	1282,03
363,35	1286,12
363,56	1263,60
363,78	1218,54
363,99	1271,79
364,20	1249,26
364,41	1331,18
364,62	1204,21
364,83	1333,23
365,04	1261,55
365,25	1247,21
365,46	1171,44
365,67	1259,50
365,88	1296,36
366,09	1206,25
366,30	1286,12
366,51	1380,33
366,72	1286,12
366,93	1255,40
367,14	1296,36
367,35	1224,69
367,56	1265,64
367,77	1247,21
367,98	1236,97
368,18	1304,56
368,39	1261,55
368,60	1279,98
368,81	1282,03
369,02	1316,84
369,23	1269,74
369,44	1284,08
369,65	1310,70
369,86	1294,32
370,07	1273,84
370,28	1239,02
370,49	1277,93
370,70	1302,51
370,91	1290,22
371,12	1314,80
371,33	1277,93
371,54	1286,12
371,75	1234,93
371,96	1255,40
372,17	1206,25
372,38	1228,78
372,59	1243,12
372,80	1300,46
373,01	1282,03
373,22	1247,21
373,43	1210,35
373,64	1261,55
373,85	1232,88
374,06	1249,26
374,26	1216,49
374,47	1259,50
374,68	1284,08
374,89	1288,17
375,10	1230,83
375,31	1298,41
375,52	1277,93
375,73	1267,69
375,94	1169,39
376,15	1306,60
376,36	1320,94
376,57	1206,25
376,78	1189,87
376,99	1275,88
377,20	1290,22
377,40	1255,40
377,61	1234,93
377,82	1230,83
378,03	1173,49
378,24	1202,16
378,45	1259,50
378,66	1212,40
378,87	1304,56
379,08	1298,41
379,29	1216,49
379,50	1279,98
379,71	1222,64
379,91	1214,45
380,12	1286,12
380,33	1216,49
380,54	1261,55
380,75	1265,64
380,96	1257,45
381,17	1298,41
381,38	1251,31
381,59	1284,08
381,80	1265,64
382,00	1290,22
382,21	1179,63
382,42	1298,41
382,63	1202,16
382,84	1232,88
383,05	1279,98
383,26	1314,80
383,47	1230,83
383,68	1241,07
383,88	1302,51
384,09	1245,16
384,30	1269,74
384,51	1290,22
384,72	1226,73
384,93	1294,32
385,14	1222,64
385,35	1333,23
385,55	1257,45
385,76	1234,93
385,97	1290,22
386,18	1302,51
386,39	1267,69
386,60	1212,40
386,81	1255,40
387,02	1243,12
387,22	1247,21
387,43	1277,93
387,64	1302,51
387,85	1224,69
388,06	1290,22
388,27	1269,74
388,48	1251,31
388,68	1275,88
388,89	1251,31
389,10	1308,65
389,31	1210,35
389,52	1337,32
389,73	1290,22
389,93	1210,35
390,14	1296,36
390,35	1255,40
390,56	1255,40
390,77	1232,88
390,98	1320,94
391,18	1347,56
391,39	1308,65
391,60	1263,60
391,81	1282,03
392,02	1306,60
392,23	1232,88
392,43	1298,41
392,64	1271,79
392,85	1255,40
393,06	1298,41
393,27	1241,07
393,47	1269,74
393,68	1212,40
393,89	1216,49
394,10	1243,12
394,31	1214,45
394,52	1208,30
394,72	1265,64
394,93	1236,97
395,14	1304,56
395,35	1222,64
395,56	1294,32
395,76	1312,75
395,97	1296,36
396,18	1320,94
396,39	1275,88
396,60	1249,26
396,80	1290,22
397,01	1282,03
397,22	1232,88
397,43	1318,89
397,64	1327,08
397,84	1310,70
398,05	1198,06
398,26	1179,63
398,47	1277,93
398,67	1347,56
398,88	1247,21
399,09	1277,93
399,30	1296,36
399,51	1273,84
399,71	1218,54
399,92	1290,22
400,13	1343,47
400,34	1239,02
400,54	1288,17
400,75	1243,12
400,96	1228,78
401,17	1255,40
401,37	1269,74
401,58	1320,94
401,79	1288,17
402,00	1329,13
402,21	1310,70
402,41	1253,36
402,62	1257,45
402,83	1286,12
403,04	1304,56
403,24	1329,13
403,45	1259,50
403,66	1269,74
403,87	1265,64
404,07	1314,80
404,28	1302,51
404,49	1279,98
404,70	1193,97
404,90	1273,84
405,11	1279,98
405,32	1314,80
405,52	1343,47
405,73	1222,64
405,94	1245,16
406,15	1206,25
406,35	1302,51
406,56	1296,36
406,77	1290,22
406,98	1214,45
407,18	1267,69
407,39	1261,55
407,60	1320,94
407,80	1230,83
408,01	1290,22
408,22	1308,65
408,43	1241,07
408,63	1384,43
408,84	1241,07
409,05	1265,64
409,25	1247,21
409,46	1239,02
409,67	1193,97
409,88	1325,04
410,08	1325,04
410,29	1265,64
410,50	1241,07
410,70	1263,60
410,91	1251,31
411,12	1353,71
411,32	1222,64
411,53	1247,21
411,74	1290,22
411,95	1263,60
412,15	1275,88
412,36	1243,12
412,57	1253,36
412,77	1249,26
412,98	1241,07
413,19	1322,99
413,39	1255,40
413,60	1279,98
413,81	1279,98
414,01	1282,03
414,22	1279,98
414,43	1325,04
414,63	1363,95
414,84	1241,07
415,05	1228,78
415,25	1222,64
415,46	1261,55
415,67	1208,30
415,87	1224,69
416,08	1251,31
416,29	1302,51
416,49	1284,08
416,70	1335,28
416,91	1210,35
417,11	1279,98
417,32	1302,51
417,53	1271,79
417,73	1257,45
417,94	1220,59
418,15	1288,17
418,35	1208,30
418,56	1275,88
418,77	1243,12
418,97	1265,64
419,18	1206,25
419,38	1302,51
419,59	1331,18
419,80	1322,99
420,00	1306,60
420,21	1257,45
420,42	1271,79
420,62	1255,40
420,83	1243,12
421,04	1245,16
421,24	1308,65
421,45	1228,78
421,65	1329,13
421,86	1232,88
422,07	1284,08
422,27	1271,79
422,48	1161,20
422,69	1241,07
422,89	1308,65
423,10	1282,03
423,30	1230,83
423,51	1263,60
423,72	1243,12
423,92	1263,60
424,13	1279,98
424,33	1247,21
424,54	1271,79
424,75	1298,41
424,95	1349,61
425,16	1216,49
425,36	1288,17
425,57	1296,36
425,78	1273,84
425,98	1298,41
426,19	1255,40
426,39	1325,04
426,60	1339,37
426,81	1333,23
427,01	1241,07
427,22	1232,88
427,42	1265,64
427,63	1234,93
427,83	1275,88
428,04	1267,69
428,25	1230,83
428,45	1228,78
428,66	1212,40
428,86	1294,32
429,07	1288,17
429,28	1277,93
429,48	1261,55
429,69	1275,88
429,89	1230,83
430,10	1327,08
430,30	1210,35
430,51	1259,50
430,71	1253,36
430,92	1255,40
431,13	1343,47
431,33	1247,21
431,54	1245,16
431,74	1267,69
431,95	1269,74
432,15	1329,13
432,36	1298,41
432,56	1302,51
432,77	1257,45
432,98	1318,89
433,18	1218,54
433,39	1304,56
433,59	1282,03
433,80	1273,84
434,00	1224,69
434,21	1271,79
434,41	1265,64
434,62	1257,45
434,82	1300,46
435,03	1228,78
435,23	1206,25
435,44	1169,39
435,64	1230,83
435,85	1241,07
436,06	1214,45
436,26	1271,79
436,47	1298,41
436,67	1255,40
436,88	1228,78
437,08	1208,30
437,29	1316,84
437,49	1210,35
437,70	1294,32
437,90	1320,94
438,11	1314,80
438,31	1255,40
438,52	1310,70
438,72	1265,64
438,93	1200,11
439,13	1300,46
439,34	1361,90
439,54	1161,20
439,75	1316,84
439,95	1273,84
440,16	1251,31
440,36	1279,98
440,57	1269,74
440,77	1239,02
440,98	1279,98
441,18	1239,02
441,39	1273,84
441,59	1212,40
441,80	1271,79
442,00	1296,36
442,21	1294,32
442,41	1173,49
442,62	1312,75
442,82	1228,78
443,02	1271,79
443,23	1284,08
443,43	1222,64
443,64	1265,64
443,84	1282,03
444,05	1275,88
444,25	1275,88
444,46	1273,84
444,66	1253,36
444,87	1255,40
445,07	1310,70
445,28	1255,40
445,48	1234,93
445,69	1292,27
445,89	1277,93
446,09	1218,54
446,30	1273,84
446,50	1163,25
446,71	1349,61
446,91	1292,27
447,12	1290,22
447,32	1249,26
447,53	1279,98
447,73	1310,70
447,93	1282,03
448,14	1216,49
448,34	1318,89
448,55	1230,83
448,75	1341,42
448,96	1224,69
449,16	1282,03
449,36	1279,98
449,57	1249,26
449,77	1275,88
449,98	1304,56
450,18	1294,32
450,39	1300,46
450,59	1282,03
450,79	1267,69
451,00	1257,45
451,20	1220,59
451,41	1368,04
451,61	1269,74
451,81	1296,36
452,02	1255,40
452,22	1282,03
452,43	1243,12
452,63	1372,14
452,84	1257,45
453,04	1265,64
453,24	1304,56
453,45	1273,84
453,65	1239,02
453,86	1273,84
454,06	1279,98
454,26	1267,69
454,47	1251,31
454,67	1257,45
454,87	1243,12
455,08	1269,74
455,28	1304,56
455,49	1265,64
455,69	1212,40
455,89	1277,93
456,10	1298,41
456,30	1279,98
456,51	1232,88
456,71	1302,51
456,91	1173,49
457,12	1277,93
457,32	1185,77
457,52	1290,22
457,73	1257,45
457,93	1300,46
458,14	1243,12
458,34	1263,60
458,54	1200,11
458,75	1193,97
458,95	1247,21
459,15	1302,51
459,36	1224,69
459,56	1277,93
459,76	1277,93
459,97	1216,49
460,17	1275,88
460,37	1290,22
460,58	1298,41
460,78	1302,51
460,99	1261,55
461,19	1251,31
461,39	1261,55
461,60	1296,36
461,80	1290,22
462,00	1306,60
462,21	1312,75
462,41	1259,50
462,61	1243,12
462,82	1314,80
463,02	1257,45
463,22	1304,56
463,43	1290,22
463,63	1241,07
463,83	1273,84
464,04	1245,16
464,24	1247,21
464,44	1249,26
464,64	1267,69
464,85	1220,59
465,05	1294,32
465,25	1255,40
465,46	1241,07
465,66	1298,41
465,86	1247,21
466,07	1312,75
466,27	1304,56
466,47	1232,88
466,68	1134,57
466,88	1208,30
467,08	1322,99
467,29	1263,60
467,49	1206,25
467,69	1271,79
467,89	1284,08
468,10	1337,32
468,30	1263,60
468,50	1290,22
468,71	1198,06
468,91	1189,87
469,11	1275,88
469,31	1271,79
469,52	1259,50
469,72	1345,52
469,92	1259,50
470,13	1273,84
470,33	1210,35
470,53	1306,60
470,73	1286,12
470,94	1247,21
471,14	1261,55
471,34	1247,21
471,54	1296,36
471,75	1282,03
471,95	1302,51
472,15	1337,32
472,36	1286,12
472,56	1288,17
472,76	1249,26
472,96	1279,98
473,17	1290,22
473,37	1249,26
473,57	1308,65
473,77	1279,98
473,98	1296,36
474,18	1230,83
474,38	1325,04
474,58	1134,57
474,79	1196,01
474,99	1269,74
475,19	1204,21
475,39	1300,46
475,60	1198,06
475,80	1296,36
476,00	1261,55
476,20	1279,98
476,41	1284,08
476,61	1249,26
476,81	1290,22
477,01	1263,60
477,21	1142,77
477,42	1247,21
477,62	1257,45
477,82	1368,04
478,02	1259,50
478,23	1318,89
478,43	1159,15
478,63	1230,83
478,83	1255,40
479,03	1298,41
479,24	1314,80
479,44	1298,41
479,64	1294,32
479,84	1196,01
480,04	1253,36
480,25	1265,64
480,45	1257,45
480,65	1257,45
480,85	1236,97
481,06	1292,27
481,26	1300,46
481,46	1224,69
481,66	1282,03
481,86	1306,60
482,06	1257,45
482,27	1314,80
482,47	1218,54
482,67	1243,12
482,87	1277,93
483,07	1239,02
483,28	1255,40
483,48	1329,13
483,68	1257,45
483,88	1239,02
484,08	1269,74
484,29	1189,87
484,49	1236,97
484,69	1300,46
484,89	1239,02
485,09	1255,40
485,29	1282,03
485,50	1255,40
485,70	1255,40
485,90	1279,98
486,10	1306,60
486,30	1318,89
486,50	1351,66
486,71	1343,47
486,91	1282,03
487,11	1282,03
487,31	1228,78
487,51	1243,12
487,71	1247,21
487,91	1273,84
488,12	1241,07
488,32	1206,25
488,52	1253,36
488,72	1296,36
488,92	1294,32
489,12	1222,64
489,32	1216,49
489,53	1337,32
489,73	1241,07
489,93	1241,07
490,13	1286,12
490,33	1179,63
490,53	1304,56
490,73	1279,98
490,94	1267,69
491,14	1249,26
491,34	1302,51
491,54	1210,35
491,74	1288,17
491,94	1279,98
492,14	1247,21
492,34	1247,21
492,54	1331,18
492,75	1263,60
492,95	1265,64
493,15	1175,53
493,35	1224,69
493,55	1247,21
493,75	1314,80
493,95	1284,08
494,15	1220,59
494,35	1292,27
494,56	1300,46
494,76	1208,30
494,96	1284,08
495,16	1312,75
495,36	1249,26
495,56	1294,32
495,76	1327,08
495,96	1224,69
496,16	1239,02
496,36	1302,51
496,56	1265,64
496,77	1310,70
496,97	1277,93
497,17	1298,41
497,37	1226,73
497,57	1239,02
497,77	1257,45
497,97	1282,03
498,17	1312,75
498,37	1312,75
498,57	1230,83
498,77	1292,27
498,97	1247,21
499,17	1257,45
499,38	1273,84
499,58	1288,17
499,78	1292,27
499,98	1339,37
500,18	1224,69
500,38	1243,12
500,58	1273,84
500,78	1282,03
500,98	1282,03
501,18	1273,84
501,38	1267,69
501,58	1275,88
501,78	1224,69
501,98	1257,45
502,18	1271,79
502,38	1277,93
502,58	1269,74
502,78	1241,07
502,98	1273,84
503,18	1263,60
503,38	1286,12
503,59	1224,69
503,79	1294,32
503,99	1220,59
504,19	1273,84
504,39	1286,12
504,59	1275,88
504,79	1277,93
504,99	1253,36
505,19	1257,45
505,39	1290,22
505,59	1284,08
505,79	1185,77
505,99	1267,69
506,19	1230,83
506,39	1226,73
506,59	1300,46
506,79	1251,31
506,99	1271,79
507,19	1314,80
507,39	1210,35
507,59	1261,55
507,79	1216,49
507,99	1312,75
508,19	1243,12
508,39	1234,93
508,59	1316,84
508,79	1290,22
508,99	1337,32
509,19	1255,40
509,39	1232,88
509,59	1208,30
509,79	1271,79
509,99	1314,80
510,19	1275,88
510,39	1245,16
510,59	1263,60
510,79	1267,69
510,99	1255,40
511,19	1200,11
511,39	1335,28
511,59	1245,16
511,79	1288,17
511,99	1247,21
512,19	1265,64
512,38	1273,84
512,58	1314,80
512,78	1216,49
512,98	1267,69
513,18	1290,22
513,38	1243,12
513,58	1208,30
513,78	1286,12
513,98	1257,45
514,18	1331,18
514,38	1247,21
514,58	1263,60
514,78	1269,74
514,98	1239,02
515,18	1210,35
515,38	1191,92
515,58	1263,60
515,78	1210,35
515,98	1273,84
516,18	1308,65
516,38	1220,59
516,57	1298,41
516,77	1333,23
516,97	1271,79
517,17	1243,12
517,37	1226,73
517,57	1253,36
517,77	1275,88
517,97	1142,77
518,17	1239,02
518,37	1288,17
518,57	1298,41
518,77	1290,22
518,97	1159,15
519,16	1204,21
519,36	1284,08
519,56	1247,21
519,76	1286,12
519,96	1286,12
520,16	1261,55
520,36	1275,88
520,56	1208,30
520,76	1296,36
520,96	1286,12
521,16	1224,69
521,35	1282,03
521,55	1292,27
521,75	1284,08
521,95	1261,55
522,15	1247,21
522,35	1224,69
522,55	1257,45
522,75	1259,50
522,95	1282,03
523,14	1302,51
523,34	1282,03
523,54	1284,08
523,74	1273,84
523,94	1247,21
524,14	1290,22
524,34	1294,32
524,54	1273,84
524,73	1269,74
524,93	1298,41
525,13	1261,55
525,33	1220,59
525,53	1220,59
525,73	1282,03
525,93	1279,98
526,13	1249,26
526,32	1226,73
526,52	1230,83
526,72	1290,22
526,92	1294,32
527,12	1282,03
527,32	1267,69
527,52	1275,88
527,71	1234,93
527,91	1243,12
528,11	1202,16
528,31	1267,69
528,51	1284,08
528,71	1245,16
528,90	1296,36
529,10	1206,25
529,30	1187,82
529,50	1267,69
529,70	1257,45
529,90	1239,02
530,09	1282,03
530,29	1302,51
530,49	1265,64
530,69	1322,99
530,89	1247,21
531,09	1232,88
531,28	1273,84
531,48	1275,88
531,68	1245,16
531,88	1226,73
532,08	1251,31
532,28	1327,08
532,47	1263,60
532,67	1298,41
532,87	1300,46
533,07	1302,51
533,27	1290,22
533,46	1255,40
533,66	1286,12
533,86	1322,99
534,06	1179,63
534,26	1236,97
534,45	1282,03
534,65	1265,64
534,85	1335,28
535,05	1261,55
535,25	1245,16
535,44	1306,60
535,64	1228,78
535,84	1318,89
536,04	1298,41
536,24	1245,16
536,43	1249,26
536,63	1257,45
536,83	1282,03
537,03	1243,12
537,22	1265,64
537,42	1325,04
537,62	1220,59
537,82	1294,32
538,02	1257,45
538,21	1204,21
538,41	1312,75
538,61	1325,04
538,81	1212,40
539,00	1312,75
539,20	1191,92
539,40	1306,60
539,60	1236,97
539,79	1224,69
539,99	1314,80
540,19	1327,08
540,39	1243,12
540,58	1288,17
540,78	1253,36
540,98	1284,08
541,18	1290,22
541,37	1284,08
541,57	1257,45
541,77	1232,88
541,97	1191,92
542,16	1214,45
542,36	1300,46
542,56	1269,74
542,76	1329,13
542,95	1261,55
543,15	1261,55
543,35	1302,51
543,54	1224,69
543,74	1255,40
543,94	1286,12
544,14	1302,51
544,33	1355,76
544,53	1263,60
544,73	1314,80
544,93	1193,97
545,12	1290,22
545,32	1306,60
545,52	1216,49
545,71	1232,88
545,91	1251,31
546,11	1177,58
546,30	1306,60
546,50	1284,08
546,70	1157,10
546,90	1243,12
547,09	1286,12
547,29	1220,59
547,49	1298,41
547,68	1304,56
547,88	1263,60
548,08	1241,07
548,27	1308,65
548,47	1316,84
548,67	1212,40
548,87	1255,40
549,06	1247,21
549,26	1224,69
549,46	1241,07
549,65	1247,21
549,85	1290,22
550,05	1339,37
550,24	1292,27
550,44	1247,21
550,64	1247,21
550,83	1261,55
551,03	1251,31
551,23	1249,26
551,42	1298,41
551,62	1275,88
551,82	1247,21
552,01	1271,79
552,21	1314,80
552,41	1292,27
552,60	1214,45
552,80	1271,79
553,00	1304,56
553,19	1298,41
553,39	1265,64
553,59	1282,03
553,78	1275,88
553,98	1257,45
554,17	1255,40
554,37	1282,03
554,57	1312,75
554,76	1251,31
554,96	1247,21
555,16	1249,26
555,35	1320,94
555,55	1327,08
555,75	1298,41
555,94	1255,40
556,14	1222,64
556,33	1239,02
556,53	1271,79
556,73	1208,30
556,92	1347,56
557,12	1288,17
557,32	1232,88
557,51	1292,27
557,71	1196,01
557,90	1288,17
558,10	1243,12
558,30	1255,40
558,49	1196,01
558,69	1312,75
558,88	1308,65
559,08	1251,31
559,28	1290,22
559,47	1271,79
559,67	1302,51
559,86	1282,03
560,06	1249,26
560,26	1273,84
560,45	1296,36
560,65	1279,98
560,84	1279,98
561,04	1249,26
561,24	1206,25
561,43	1304,56
561,63	1282,03
561,82	1284,08
562,02	1243,12
562,22	1251,31
562,41	1255,40
562,61	1181,68
562,80	1279,98
563,00	1296,36
563,19	1239,02
563,39	1253,36
563,59	1290,22
563,78	1279,98
563,98	1277,93
564,17	1220,59
564,37	1329,13
564,56	1224,69
564,76	1271,79
564,96	1202,16
565,15	1189,87
565,35	1269,74
565,54	1279,98
565,74	1279,98
565,93	1251,31
566,13	1245,16
566,32	1230,83
566,52	1308,65
566,71	1261,55
566,91	1239,02
567,11	1230,83
567,30	1241,07
567,50	1253,36
567,69	1257,45
567,89	1308,65
568,08	1239,02
568,28	1257,45
568,47	1271,79
568,67	1228,78
568,86	1232,88
569,06	1290,22
569,25	1236,97
569,45	1279,98
569,64	1255,40
569,84	1284,08
570,04	1212,40
570,23	1204,21
570,43	1239,02
570,62	1253,36
570,82	1269,74
571,01	1220,59
571,21	1320,94
571,40	1277,93
571,60	1261,55
571,79	1325,04
571,99	1214,45
572,18	1304,56
572,38	1216,49
572,57	1224,69
572,77	1363,95
572,96	1249,26
573,16	1263,60
573,35	1202,16
573,55	1304,56
573,74	1230,83
573,94	1243,12
574,13	1314,80
574,33	1294,32
574,52	1290,22
574,71	1259,50
574,91	1230,83
575,10	1273,84
575,30	1198,06
575,49	1189,87
575,69	1263,60
575,88	1273,84
576,08	1261,55
576,27	1322,99
576,47	1208,30
576,66	1265,64
576,86	1265,64
577,05	1191,92
577,25	1234,93
577,44	1271,79
577,64	1279,98
577,83	1249,26
578,02	1298,41
578,22	1314,80
578,41	1257,45
578,61	1261,55
578,80	1327,08
579,00	1255,40
579,19	1269,74
579,39	1216,49
579,58	1261,55
579,77	1302,51
579,97	1236,97
580,16	1230,83
580,36	1300,46
580,55	1269,74
580,75	1202,16
580,94	1210,35
581,13	1300,46
581,33	1249,26
581,52	1314,80
581,72	1288,17
581,91	1222,64
582,11	1222,64
582,30	1245,16
582,49	1310,70
582,69	1302,51
582,88	1290,22
583,08	1226,73
583,27	1288,17
583,47	1279,98
583,66	1134,57
583,85	1228,78
584,05	1282,03
584,24	1236,97
584,44	1208,30
584,63	1275,88
584,82	1245,16
585,02	1218,54
585,21	1288,17
585,41	1251,31
585,60	1284,08
585,79	1273,84
585,99	1255,40
586,18	1318,89
586,37	1263,60
586,57	1243,12
586,76	1259,50
586,96	1253,36
587,15	1304,56
587,34	1322,99
587,54	1249,26
587,73	1228,78
587,93	1310,70
588,12	1351,66
588,31	1275,88
588,51	1261,55
588,70	1273,84
588,89	1257,45
589,09	1255,40
589,28	1257,45
589,47	1292,27
589,67	1222,64
589,86	1316,84
590,06	1284,08
590,25	1216,49
590,44	1185,77
590,64	1325,04
590,83	1302,51
591,02	1304,56
591,22	1284,08
591,41	1296,36
591,60	1243,12
591,80	1314,80
591,99	1269,74
592,18	1302,51
592,38	1282,03
592,57	1212,40
592,76	1214,45
592,96	1249,26
593,15	1331,18
593,34	1273,84
593,54	1218,54
593,73	1273,84
593,92	1239,02
594,12	1249,26
594,31	1282,03
594,50	1298,41
594,70	1343,47
594,89	1275,88
595,08	1253,36
595,28	1261,55
595,47	1314,80
595,66	1273,84
595,86	1275,88
596,05	1296,36
596,24	1302,51
596,43	1304,56
596,63	1304,56
596,82	1286,12
597,01	1316,84
597,21	1279,98
597,40	1220,59
597,59	1243,12
597,79	1320,94
597,98	1261,55
598,17	1220,59
598,36	1318,89
598,56	1286,12
598,75	1286,12
598,94	1296,36
599,14	1263,60
599,33	1218,54
599,52	1259,50
599,71	1306,60
599,91	1288,17
600,10	1312,75
600,29	1241,07
600,48	1298,41
600,68	1316,84
600,87	1234,93
601,06	1314,80
601,26	1255,40
601,45	1376,24
601,64	1263,60
601,83	1228,78
602,03	1304,56
602,22	1273,84
602,41	1257,45
602,60	1253,36
602,80	1304,56
602,99	1206,25
603,18	1267,69
603,37	1226,73
603,57	1189,87
603,76	1290,22
603,95	1269,74
604,14	1216,49
604,34	1341,42
604,53	1290,22
604,72	1191,92
604,91	1224,69
605,10	1331,18
605,30	1193,97
605,49	1245,16
605,68	1320,94
605,87	1267,69
606,07	1243,12
606,26	1335,28
606,45	1308,65
606,64	1329,13
606,84	1241,07
607,03	1329,13
607,22	1263,60
607,41	1257,45
607,60	1212,40
607,80	1284,08
607,99	1298,41
608,18	1263,60
608,37	1206,25
608,56	1263,60
608,76	1298,41
608,95	1271,79
609,14	1251,31
609,33	1249,26
609,52	1259,50
609,72	1216,49
609,91	1198,06
610,10	1288,17
610,29	1255,40
610,48	1265,64
610,68	1294,32
610,87	1206,25
611,06	1218,54
611,25	1236,97
611,44	1257,45
611,63	1279,98
611,83	1312,75
612,02	1239,02
612,21	1232,88
612,40	1224,69
612,59	1279,98
612,79	1206,25
612,98	1294,32
613,17	1249,26
613,36	1300,46
613,55	1294,32
613,74	1198,06
613,93	1214,45
614,13	1153,01
614,32	1247,21
614,51	1355,76
614,70	1298,41
614,89	1263,60
615,08	1284,08
615,28	1349,61
615,47	1302,51
615,66	1325,04
615,85	1241,07
616,04	1253,36
616,23	1284,08
616,42	1288,17
616,62	1257,45
616,81	1249,26
617,00	1216,49
617,19	1271,79
617,38	1232,88
617,57	1271,79
617,76	1210,35
617,95	1259,50
618,15	1236,97
618,34	1259,50
618,53	1251,31
618,72	1253,36
618,91	1296,36
619,10	1251,31
619,29	1257,45
619,48	1277,93
619,68	1275,88
619,87	1275,88
620,06	1269,74
620,25	1236,97
620,44	1275,88
620,63	1308,65
620,82	1251,31
621,01	1267,69
621,20	1230,83
621,39	1269,74
621,59	1230,83
621,78	1275,88
621,97	1232,88
622,16	1263,60
622,35	1318,89
622,54	1310,70
622,73	1310,70
622,92	1226,73
623,11	1232,88
623,30	1239,02
623,49	1234,93
623,68	1304,56
623,88	1253,36
624,07	1196,01
624,26	1265,64
624,45	1282,03
624,64	1230,83
624,83	1255,40
625,02	1335,28
625,21	1329,13
625,40	1277,93
625,59	1253,36
625,78	1286,12
625,97	1312,75
626,16	1329,13
626,35	1341,42
626,54	1282,03
626,74	1306,60
626,93	1304,56
627,12	1200,11
627,31	1273,84
627,50	1282,03
627,69	1263,60
627,88	1241,07
628,07	1277,93
628,26	1249,26
628,45	1230,83
628,64	1296,36
628,83	1298,41
629,02	1314,80
629,21	1314,80
629,40	1306,60
629,59	1253,36
629,78	1239,02
629,97	1286,12
630,16	1331,18
630,35	1257,45
630,54	1343,47
630,73	1325,04
630,92	1218,54
631,11	1302,51
631,30	1359,85
631,49	1288,17
631,68	1357,80
631,87	1519,59
632,06	1906,66
632,25	1554,41
632,44	1662,95
632,63	1996,77
632,82	2176,99
633,01	5418,93
633,20	4995,00
633,39	3850,18
633,58	2099,17
633,77	3000,27
633,96	5967,78
634,15	6905,75
634,34	5566,38
634,53	4022,21
634,72	2652,12
634,91	1914,85
635,10	1714,15
635,29	1603,56
635,48	1470,44
635,67	1531,88
635,86	1445,87
636,05	1402,86
636,24	1368,04
636,43	1331,18
636,62	1259,50
636,81	1320,94
637,00	1351,66
637,19	1359,85
637,38	1347,56
637,57	1265,64
637,76	1318,89
637,95	1341,42
638,14	1269,74
638,33	1300,46
638,52	1273,84
638,71	1322,99
638,89	1298,41
639,08	1255,40
639,27	1296,36
639,46	1261,55
639,65	1263,60
639,84	1290,22
640,03	1224,69
640,22	1275,88
640,41	1269,74
640,60	1302,51
640,79	1265,64
640,98	1267,69
641,17	1282,03
641,36	1191,92
641,55	1243,12
641,74	1284,08
641,92	1239,02
642,11	1234,93
642,30	1294,32
642,49	1245,16
642,68	1271,79
642,87	1234,93
643,06	1290,22
643,25	1290,22
643,44	1236,97
643,63	1226,73
643,82	1335,28
644,00	1331,18
644,19	1298,41
644,38	1271,79
644,57	1259,50
644,76	1294,32
644,95	1286,12
645,14	1247,21
645,33	1255,40
645,52	1310,70
645,71	1255,40
645,89	1271,79
646,08	1302,51
646,27	1304,56
646,46	1318,89
646,65	1261,55
646,84	1298,41
647,03	1333,23
647,22	1200,11
647,40	1312,75
647,59	1245,16
647,78	1259,50
647,97	1202,16
648,16	1265,64
648,35	1232,88
648,54	1279,98
648,73	1294,32
648,91	1208,30
649,10	1296,36
649,29	1284,08
649,48	1269,74
649,67	1298,41
649,86	1265,64
650,05	1259,50
650,23	1200,11
650,42	1290,22
650,61	1216,49
650,80	1298,41
650,99	1253,36
651,18	1185,77
651,36	1193,97
651,55	1316,84
651,74	1259,50
651,93	1273,84
652,12	1306,60
652,31	1208,30
652,49	1316,84
652,68	1320,94
652,87	1294,32
653,06	1294,32
653,25	1265,64
653,44	1277,93
653,62	1232,88
653,81	1253,36
654,00	1265,64
654,19	1304,56
654,38	1245,16
654,56	1259,50
654,75	1353,71
654,94	1226,73
655,13	1243,12
655,32	1218,54
655,51	1214,45
655,69	1265,64
655,88	1245,16
656,07	1255,40
656,26	1259,50
656,45	1271,79
656,63	1271,79
656,82	1249,26
657,01	1263,60
657,20	1249,26
657,38	1294,32
657,57	1282,03
657,76	1216,49
657,95	1259,50
658,14	1279,98
658,32	1253,36
658,51	1200,11
658,70	1386,47
658,89	1277,93
659,08	1210,35
659,26	1257,45
659,45	1284,08
659,64	1202,16
659,83	1236,97
660,01	1253,36
660,20	1259,50
660,39	1255,40
660,58	1265,64
660,76	1253,36
660,95	1308,65
661,14	1208,30
661,33	1279,98
661,51	1214,45
661,70	1279,98
661,89	1259,50
662,08	1210,35
662,26	1308,65
662,45	1224,69
662,64	1230,83
662,83	1245,16
663,01	1220,59
663,20	1239,02
663,39	1259,50
663,58	1253,36
663,76	1228,78
663,95	1271,79
664,14	1249,26
664,32	1273,84
664,51	1259,50
664,70	1247,21
664,89	1234,93
665,07	1255,40
665,26	1294,32
665,45	1277,93
665,64	1218,54
665,82	1294,32
666,01	1263,60
666,20	1218,54
666,38	1333,23
666,57	1245,16
666,76	1292,27
666,95	1157,10
667,13	1198,06
667,32	1185,77
667,51	1210,35
667,69	1282,03
667,88	1243,12
668,07	1290,22
668,25	1230,83
668,44	1232,88
668,63	1273,84
668,81	1331,18
669,00	1279,98
669,19	1318,89
669,38	1259,50
669,56	1378,28
669,75	1288,17
669,94	1290,22
670,12	1224,69
670,31	1230,83
670,50	1253,36
670,68	1243,12
670,87	1308,65
671,06	1232,88
671,24	1239,02
671,43	1312,75
671,62	1269,74
671,80	1327,08
671,99	1257,45
672,18	1304,56
672,36	1183,73
672,55	1302,51
672,74	1304,56
672,92	1290,22
673,11	1286,12
673,29	1271,79
673,48	1226,73
673,67	1255,40
673,85	1296,36
674,04	1271,79
674,23	1331,18
674,41	1257,45
674,60	1331,18
674,79	1230,83
674,97	1204,21
675,16	1236,97
675,34	1277,93
675,53	1202,16
675,72	1261,55
675,90	1234,93
676,09	1288,17
676,28	1249,26
676,46	1308,65
676,65	1224,69
676,83	1355,76
677,02	1294,32
677,21	1222,64
677,39	1273,84
677,58	1286,12
677,77	1191,92
677,95	1314,80
678,14	1249,26
678,32	1241,07
678,51	1208,30
678,70	1284,08
678,88	1210,35
679,07	1292,27
679,25	1239,02
679,44	1249,26
679,63	1241,07
679,81	1243,12
680,00	1320,94
680,18	1255,40
680,37	1265,64
680,55	1273,84
680,74	1218,54
680,93	1290,22
681,11	1247,21
681,30	1329,13
681,48	1273,84
681,67	1310,70
681,85	1277,93
682,04	1296,36
682,23	1259,50
682,41	1234,93
682,60	1222,64
682,78	1249,26
682,97	1228,78
683,15	1265,64
683,34	1286,12
683,53	1206,25
683,71	1265,64
683,90	1257,45
684,08	1251,31
684,27	1216,49
684,45	1290,22
684,64	1230,83
684,82	1191,92
685,01	1282,03
685,19	1216,49
685,38	1241,07
685,57	1239,02
685,75	1245,16
685,94	1316,84
686,12	1310,70
686,31	1236,97
686,49	1228,78
686,68	1249,26
686,86	1282,03
687,05	1193,97
687,23	1269,74
687,42	1286,12
687,60	1198,06
687,79	1218,54
687,97	1245,16
688,16	1253,36
688,34	1271,79
688,53	1220,59
688,71	1251,31
688,90	1230,83
689,08	1302,51
689,27	1271,79
689,45	1335,28
689,64	1200,11
689,82	1267,69
690,01	1234,93
690,19	1263,60
690,38	1261,55
690,56	1284,08
690,75	1265,64
690,93	1318,89
691,12	1239,02
691,30	1247,21
691,49	1226,73
691,67	1308,65
691,86	1331,18
692,04	1218,54
692,23	1183,73
692,41	1294,32
692,60	1294,32
692,78	1277,93
692,97	1304,56
693,15	1230,83
693,34	1306,60
693,52	1265,64
693,71	1271,79
693,89	1228,78
694,08	1286,12
694,26	1284,08
694,44	1206,25
694,63	1296,36
694,81	1269,74
695,00	1337,32
695,18	1259,50
695,37	1267,69
695,55	1333,23
695,74	1267,69
695,92	1249,26
696,10	1245,16
696,29	1279,98
696,47	1226,73
696,66	1230,83
696,84	1288,17
697,03	1249,26
697,21	1257,45
697,40	1325,04
697,58	1269,74
697,76	1216,49
697,95	1273,84
698,13	1226,73
698,32	1259,50
698,50	1273,84
698,68	1308,65
698,87	1277,93
699,05	1325,04
699,24	1218,54
699,42	1255,40
699,61	1245,16
699,79	1255,40
699,97	1187,82
700,16	1216,49
700,34	1294,32
700,53	1271,79
700,71	1271,79
700,89	1261,55
701,08	1277,93
701,26	1234,93
701,45	1327,08
701,63	1257,45
701,81	1226,73
702,00	1257,45
702,18	1267,69
702,37	1339,37
702,55	1259,50
702,73	1232,88
702,92	1232,88
703,10	1314,80
703,28	1286,12
703,47	1232,88
703,65	1243,12
703,84	1261,55
704,02	1261,55
704,20	1277,93
704,39	1288,17
704,57	1271,79
704,75	1210,35
704,94	1241,07
705,12	1341,42
705,30	1294,32
705,49	1236,97
705,67	1226,73
705,86	1253,36
706,04	1230,83
706,22	1198,06
706,41	1339,37
706,59	1247,21
706,77	1298,41
706,96	1249,26
707,14	1245,16
707,32	1251,31
707,51	1245,16
707,69	1277,93
707,87	1247,21
708,06	1241,07
708,24	1316,84
708,42	1320,94
708,61	1288,17
708,79	1290,22
708,97	1202,16
709,16	1236,97
709,34	1294,32
709,52	1265,64
709,71	1228,78
709,89	1288,17
710,07	1337,32
710,26	1275,88
710,44	1247,21
710,62	1318,89
710,80	1298,41
710,99	1234,93
711,17	1261,55
711,35	1306,60
711,54	1247,21
711,72	1308,65
711,90	1306,60
712,09	1290,22
712,27	1208,30
712,45	1255,40
712,63	1196,01
712,82	1253,36
713,00	1261,55
713,18	1208,30
713,37	1288,17
713,55	1288,17
713,73	1306,60
713,91	1259,50
714,10	1359,85
714,28	1218,54
714,46	1189,87
714,65	1263,60
714,83	1265,64
715,01	1347,56
715,19	1271,79
715,38	1298,41
715,56	1261,55
715,74	1249,26
715,92	1255,40
716,11	1257,45
716,29	1300,46
716,47	1277,93
716,65	1304,56
716,84	1167,34
717,02	1222,64
717,20	1257,45
717,38	1267,69
717,57	1185,77
717,75	1267,69
717,93	1284,08
718,11	1298,41
718,30	1243,12
718,48	1255,40
718,66	1290,22
718,84	1245,16
719,03	1273,84
719,21	1181,68
719,39	1320,94
719,57	1228,78
719,75	1316,84
719,94	1222,64
720,12	1300,46
720,30	1273,84
720,48	1228,78
720,67	1273,84
720,85	1275,88
721,03	1218,54
721,21	1236,97
721,39	1232,88
721,58	1366,00
721,76	1277,93
721,94	1275,88
722,12	1325,04
722,30	1333,23
722,49	1265,64
722,67	1232,88
722,85	1271,79
723,03	1271,79
723,21	1245,16
723,40	1214,45
723,58	1232,88
723,76	1300,46
723,94	1279,98
724,12	1386,47
724,30	1345,52
724,49	1179,63
724,67	1290,22
724,85	1286,12
725,03	1282,03
725,21	1304,56
725,40	1282,03
725,58	1204,21
725,76	1302,51
725,94	1292,27
726,12	1290,22
726,30	1224,69
726,49	1228,78
726,67	1232,88
726,85	1296,36
727,03	1177,58
727,21	1298,41
727,39	1236,97
727,57	1267,69
727,76	1263,60
727,94	1302,51
728,12	1241,07
728,30	1273,84
728,48	1255,40
728,66	1318,89
728,84	1261,55
729,03	1329,13
729,21	1198,06
729,39	1220,59
729,57	1259,50
729,75	1212,40
729,93	1286,12
730,11	1249,26
730,30	1243,12
730,48	1279,98
730,66	1200,11
730,84	1257,45
731,02	1288,17
731,20	1273,84
731,38	1263,60
731,56	1212,40
731,74	1239,02
731,93	1273,84
732,11	1325,04
732,29	1282,03
732,47	1261,55
732,65	1251,31
732,83	1222,64
733,01	1271,79
733,19	1286,12
733,37	1239,02
733,56	1251,31
733,74	1296,36
733,92	1255,40
734,10	1263,60
734,28	1327,08
734,46	1257,45
734,64	1226,73
734,82	1300,46
735,00	1202,16
735,18	1226,73
735,36	1351,66
735,54	1290,22
735,73	1271,79
735,91	1292,27
736,09	1253,36
736,27	1312,75
736,45	1241,07
736,63	1202,16
736,81	1279,98
736,99	1241,07
737,17	1257,45
737,35	1208,30
737,53	1275,88
737,71	1224,69
737,89	1179,63
738,07	1277,93
738,25	1259,50
738,43	1345,52
738,61	1167,34
738,80	1304,56
738,98	1257,45
739,16	1277,93
739,34	1232,88
739,52	1320,94
739,70	1214,45
739,88	1333,23
740,06	1329,13
740,24	1241,07
740,42	1269,74
740,60	1185,77
740,78	1341,42
740,96	1249,26
741,14	1279,98
741,32	1253,36
741,50	1206,25
741,68	1316,84
741,86	1275,88
742,04	1306,60
742,22	1310,70
742,40	1210,35
742,58	1204,21
742,76	1245,16
742,94	1282,03
743,12	1314,80
743,30	1245,16
743,48	1312,75
743,66	1273,84
743,84	1322,99
744,02	1196,01
744,20	1284,08
744,38	1243,12
744,56	1253,36
744,74	1226,73
744,92	1361,90
745,10	1265,64
745,28	1261,55
745,46	1304,56
745,64	1302,51
745,82	1294,32
746,00	1322,99
746,18	1294,32
746,36	1249,26
746,54	1239,02
746,72	1183,73
746,90	1247,21
747,08	1263,60
747,26	1249,26
747,44	1282,03
747,62	1234,93
747,80	1302,51
747,98	1230,83
748,15	1255,40
748,33	1230,83
748,51	1329,13
748,69	1226,73
748,87	1314,80
749,05	1310,70
749,23	1251,31
749,41	1249,26
749,59	1232,88
749,77	1275,88
749,95	1308,65
750,13	1322,99
750,31	1208,30
750,49	1273,84
750,67	1269,74
750,85	1275,88
751,03	1314,80
751,20	1306,60
751,38	1265,64
751,56	1257,45
751,74	1277,93
751,92	1234,93
752,10	1271,79
752,28	1191,92
752,46	1265,64
752,64	1257,45
752,82	1230,83
753,00	1370,09
753,18	1320,94
753,35	1210,35
753,53	1187,82
753,71	1261,55
753,89	1290,22
754,07	1210,35
754,25	1208,30
754,43	1277,93
754,61	1279,98
754,79	1202,16
754,97	1304,56
755,14	1306,60
755,32	1239,02
755,50	1288,17
755,68	1298,41
755,86	1310,70
756,04	1241,07
756,22	1284,08
756,40	1232,88
756,57	1259,50
756,75	1288,17
756,93	1273,84
757,11	1312,75
757,29	1277,93
757,47	1214,45
757,65	1241,07
757,82	1206,25
758,00	1331,18
758,18	1189,87
758,36	1243,12
758,54	1224,69
758,72	1216,49
758,90	1288,17
759,07	1288,17
759,25	1261,55
759,43	1202,16
759,61	1263,60
759,79	1267,69
759,97	1279,98
760,15	1294,32
760,32	1232,88
760,50	1245,16
760,68	1298,41
760,86	1208,30
761,04	1288,17
761,22	1243,12
761,39	1314,80
761,57	1275,88
761,75	1298,41
761,93	1341,42
762,11	1275,88
762,28	1325,04
762,46	1257,45
762,64	1284,08
762,82	1224,69
763,00	1312,75
763,18	1298,41
763,35	1255,40
763,53	1253,36
763,71	1310,70
763,89	1296,36
764,07	1310,70
764,24	1251,31
764,42	1308,65
764,60	1259,50
764,78	1239,02
764,96	1263,60
765,13	1290,22
765,31	1261,55
765,49	1234,93
765,67	1306,60
765,84	1294,32
766,02	1306,60
766,20	1251,31
766,38	1288,17
766,56	1294,32
766,73	1230,83
766,91	1234,93
767,09	1239,02
767,27	1247,21
767,44	1327,08
767,62	1269,74
767,80	1277,93
767,98	1255,40
768,15	1353,71
768,33	1257,45
768,51	1310,70
768,69	1263,60
768,87	1243,12
769,04	1257,45
769,22	1255,40
769,40	1259,50
769,58	1249,26
769,75	1259,50
769,93	1288,17
770,11	1259,50
770,28	1261,55
770,46	1216,49
770,64	1290,22
770,82	1292,27
770,99	1279,98
771,17	1216,49
771,35	1208,30
771,53	1239,02
771,70	1232,88
771,88	1210,35
772,06	1277,93
772,23	1220,59
772,41	1236,97
772,59	1275,88
772,77	1347,56
772,94	1249,26
773,12	1230,83
773,30	1296,36
773,47	1247,21
773,65	1273,84
773,83	1273,84
774,01	1232,88
774,18	1259,50
774,36	1214,45
774,54	1304,56
774,71	1284,08
774,89	1255,40
775,07	1222,64
775,24	1318,89
775,42	1263,60
775,60	1294,32
775,78	1234,93
775,95	1212,40
776,13	1245,16
776,31	1269,74
776,48	1208,30
776,66	1302,51
776,84	1286,12
777,01	1286,12
777,19	1282,03
777,37	1187,82
777,54	1267,69
777,72	1212,40
777,90	1265,64
778,07	1304,56
778,25	1247,21
778,43	1284,08
778,60	1284,08
778,78	1232,88
778,96	1269,74
779,13	1243,12
779,31	1214,45
779,49	1325,04
779,66	1296,36
779,84	1249,26
780,01	1224,69
780,19	1271,79
780,37	1220,59
780,54	1243,12
780,72	1226,73
780,90	1236,97
781,07	1320,94
781,25	1265,64
781,43	1284,08
781,60	1196,01
781,78	1269,74
781,95	1193,97
782,13	1249,26
782,31	1277,93
782,48	1234,93
782,66	1206,25
782,83	1282,03
783,01	1239,02
783,19	1208,30
783,36	1249,26
783,54	1239,02
783,72	1175,53
783,89	1298,41
784,07	1269,74
784,24	1177,58
784,42	1316,84
784,60	1259,50
784,77	1304,56
784,95	1284,08
785,12	1302,51
785,30	1277,93
785,47	1230,83
785,65	1271,79
785,83	1318,89
786,00	1294,32
786,18	1255,40
786,35	1251,31
786,53	1204,21
786,71	1333,23
786,88	1232,88
787,06	1239,02
787,23	1265,64
787,41	1357,80
787,58	1298,41
787,76	1245,16
787,94	1304,56
788,11	1294,32
788,29	1308,65
788,46	1279,98
788,64	1257,45
788,81	1230,83
788,99	1275,88
789,16	1298,41
789,34	1239,02
789,52	1294,32
789,69	1243,12
789,87	1306,60
790,04	1232,88
790,22	1265,64
790,39	1288,17
790,57	1216,49
790,74	1312,75
790,92	1261,55
791,09	1298,41
791,27	1159,15
791,44	1239,02
791,62	1249,26
791,79	1288,17
791,97	1249,26
792,15	1267,69
792,32	1306,60
792,50	1284,08
792,67	1269,74
792,85	1333,23
793,02	1189,87
793,20	1294,32
793,37	1232,88
793,55	1288,17
793,72	1236,97
793,90	1382,38
794,07	1255,40
794,25	1320,94
794,42	1232,88
794,60	1296,36
794,77	1351,66
794,95	1232,88
795,12	1329,13
795,30	1255,40
795,47	1277,93
795,65	1296,36
795,82	1239,02
796,00	1257,45
796,17	1372,14
796,34	1232,88
796,52	1224,69
796,69	1275,88
796,87	1202,16
797,04	1214,45
797,22	1265,64
797,39	1296,36
797,57	1247,21
797,74	1271,79
797,92	1232,88
798,09	1181,68
798,27	1257,45
798,44	1241,07
798,62	1282,03
798,79	1290,22
798,96	1277,93
799,14	1277,93
799,31	1308,65
799,49	1230,83
799,66	1284,08
799,84	1288,17
800,01	1265,64
800,19	1247,21
800,36	1157,10
800,53	1341,42
800,71	1331,18
800,88	1212,40
801,06	1251,31
801,23	1302,51
801,41	1216,49
801,58	1290,22
801,75	1275,88
801,93	1329,13
802,10	1294,32
802,28	1345,52
802,45	1273,84
802,63	1241,07
802,80	1261,55
802,97	1226,73
803,15	1292,27
803,32	1306,60
803,50	1300,46
803,67	1310,70
803,84	1322,99
804,02	1263,60
804,19	1265,64
804,37	1196,01
804,54	1251,31
804,71	1257,45
804,89	1273,84
805,06	1253,36
805,24	1228,78
805,41	1247,21
805,58	1288,17
805,76	1288,17
805,93	1226,73
806,10	1322,99
806,28	1308,65
806,45	1236,97
806,63	1284,08
806,80	1298,41
806,97	1300,46
807,15	1204,21
807,32	1292,27
807,49	1265,64
807,67	1224,69
807,84	1200,11
808,01	1277,93
808,19	1308,65
808,36	1259,50
808,54	1273,84
808,71	1212,40
808,88	1273,84
809,06	1206,25
809,23	1261,55
809,40	1257,45
809,58	1353,71
809,75	1226,73
809,92	1263,60
810,10	1230,83
810,27	1230,83
810,44	1275,88
810,62	1277,93
810,79	1325,04
810,96	1304,56
811,14	1282,03
811,31	1271,79
811,48	1333,23
811,66	1284,08
811,83	1288,17
812,00	1277,93
812,18	1335,28
812,35	1239,02
812,52	1220,59
812,69	1243,12
812,87	1322,99
813,04	1232,88
813,21	1333,23
813,39	1331,18
813,56	1204,21
813,73	1249,26
813,91	1210,35
814,08	1247,21
814,25	1249,26
814,42	1273,84
814,60	1263,60
814,77	1294,32
814,94	1290,22
815,12	1279,98
815,29	1265,64
815,46	1304,56
815,63	1204,21
815,81	1253,36
815,98	1232,88
816,15	1306,60
816,33	1239,02
816,50	1226,73
816,67	1273,84
816,84	1279,98
817,02	1259,50
817,19	1224,69
817,36	1331,18
817,53	1234,93
817,71	1273,84
817,88	1239,02
818,05	1292,27
818,22	1277,93
818,40	1236,97
818,57	1263,60
818,74	1230,83
818,91	1273,84
819,09	1304,56
819,26	1271,79
819,43	1208,30
819,60	1206,25
819,78	1288,17
819,95	1294,32
820,12	1200,11
820,29	1251,31
820,47	1263,60
820,64	1208,30
820,81	1304,56
820,98	1261,55
821,15	1290,22
821,33	1333,23
821,50	1308,65
821,67	1275,88
821,84	1286,12
822,02	1257,45
822,19	1320,94
822,36	1265,64
822,53	1284,08
822,70	1271,79
822,88	1243,12
823,05	1279,98
823,22	1267,69
823,39	1290,22
823,56	1208,30
823,74	1273,84
823,91	1288,17
824,08	1220,59
824,25	1232,88
824,42	1239,02
824,60	1226,73
824,77	1234,93
824,94	1282,03
825,11	1279,98
825,28	1257,45
825,45	1249,26
825,63	1349,61
825,80	1282,03
825,97	1282,03
826,14	1230,83
826,31	1312,75
826,48	1275,88
826,66	1290,22
826,83	1224,69
827,00	1173,49
827,17	1298,41
827,34	1279,98
827,51	1290,22
827,69	1290,22
827,86	1308,65
828,03	1247,21
828,20	1265,64
828,37	1298,41
828,54	1320,94
828,71	1320,94
828,89	1269,74
829,06	1290,22
829,23	1327,08
829,40	1253,36
829,57	1259,50
829,74	1173,49
829,91	1288,17
830,09	1230,83
830,26	1265,64
830,43	1210,35
830,60	1220,59
830,77	1241,07
830,94	1249,26
831,11	1226,73
831,28	1290,22
831,46	1241,07
831,63	1277,93
831,80	1271,79
831,97	1222,64
832,14	1267,69
832,31	1290,22
832,48	1243,12
832,65	1353,71
832,82	1253,36
832,99	1271,79
833,17	1269,74
833,34	1275,88
833,51	1290,22
833,68	1224,69
833,85	1247,21
834,02	1296,36
834,19	1247,21
834,36	1282,03
834,53	1318,89
834,70	1273,84
834,87	1153,01
835,04	1243,12
835,22	1257,45
835,39	1241,07
835,56	1273,84
835,73	1247,21
835,90	1294,32
836,07	1286,12
836,24	1263,60
836,41	1282,03
836,58	1294,32
836,75	1318,89
836,92	1257,45
837,09	1292,27
837,26	1380,33
837,43	1275,88
837,60	1243,12
837,77	1212,40
837,94	1257,45
838,12	1247,21
838,29	1277,93
838,46	1261,55
838,63	1265,64
838,80	1200,11
838,97	1310,70
839,14	1224,69
839,31	1265,64
839,48	1257,45
839,65	1245,16
839,82	1310,70
839,99	1316,84
840,16	1247,21
840,33	1343,47
840,50	1247,21
840,67	1206,25
840,84	1214,45
841,01	1286,12
841,18	1214,45
841,35	1230,83
841,52	1300,46
841,69	1327,08
841,86	1308,65
842,03	1263,60
842,20	1263,60
842,37	1310,70
842,54	1279,98
842,71	1271,79
842,88	1279,98
843,05	1259,50
843,22	1279,98
843,39	1265,64
843,56	1232,88
843,73	1259,50
843,90	1230,83
844,07	1259,50
844,24	1255,40
844,41	1212,40
844,58	1347,56
844,75	1298,41
844,92	1273,84
845,09	1259,50
845,26	1220,59
845,43	1185,77
845,60	1220,59
845,77	1292,27
845,94	1282,03
846,10	1243,12
846,27	1232,88
846,44	1210,35
846,61	1271,79
846,78	1255,40
846,95	1310,70
847,12	1279,98
847,29	1261,55
847,46	1200,11
847,63	1253,36
847,80	1259,50
847,97	1263,60
848,14	1277,93
848,31	1245,16
848,48	1259,50
848,65	1222,64
848,82	1222,64
848,98	1329,13
849,15	1282,03
849,32	1302,51
849,49	1284,08
849,66	1273,84
849,83	1232,88
850,00	1327,08
850,17	1259,50
850,34	1243,12
850,51	1210,35
850,68	1366,00
850,85	1259,50
851,01	1257,45
851,18	1288,17
851,35	1210,35
851,52	1298,41
851,69	1212,40
851,86	1310,70
852,03	1239,02
852,20	1322,99
852,37	1220,59
852,53	1363,95
852,70	1214,45
852,87	1234,93
853,04	1247,21
853,21	1349,61
853,38	1314,80
853,55	1253,36
853,72	1210,35
853,89	1329,13
854,05	1316,84
854,22	1277,93
854,39	1314,80
854,56	1312,75
854,73	1255,40
854,90	1298,41
855,07	1193,97
855,23	1241,07
855,40	1212,40
855,57	1275,88
855,74	1288,17
855,91	1275,88
856,08	1193,97
856,25	1339,37
856,41	1290,22
856,58	1171,44
856,75	1296,36
856,92	1298,41
857,09	1193,97
857,26	1275,88
857,42	1210,35
857,59	1249,26
857,76	1226,73
857,93	1257,45
858,10	1359,85
858,27	1300,46
858,43	1314,80
858,60	1206,25
858,77	1267,69
858,94	1230,83
859,11	1357,80
859,27	1284,08
859,44	1251,31
859,61	1318,89
859,78	1282,03
859,95	1286,12
860,12	1296,36
860,28	1269,74
860,45	1273,84
860,62	1224,69
860,79	1261,55
860,95	1257,45
861,12	1269,74
861,29	1267,69
861,46	1290,22
861,63	1312,75
861,79	1302,51
861,96	1247,21
862,13	1222,64
862,30	1249,26
862,47	1284,08
862,63	1245,16
862,80	1263,60
862,97	1294,32
863,14	1286,12
863,30	1228,78
863,47	1243,12
863,64	1273,84
863,81	1335,28
863,97	1261,55
864,14	1304,56
864,31	1312,75
864,48	1216,49
864,65	1322,99
864,81	1290,22
864,98	1247,21
865,15	1290,22
865,32	1232,88
865,48	1196,01
865,65	1300,46
865,82	1279,98
865,98	1275,88
866,15	1306,60
866,32	1282,03
866,49	1286,12
866,65	1341,42
866,82	1241,07
866,99	1230,83
867,16	1265,64
867,32	1234,93
867,49	1296,36
867,66	1245,16
867,83	1298,41
867,99	1265,64
868,16	1282,03
868,33	1226,73
868,49	1239,02
868,66	1263,60
868,83	1236,97
868,99	1269,74
869,16	1263,60
869,33	1279,98
869,50	1249,26
869,66	1243,12
869,83	1296,36
870,00	1322,99
870,16	1271,79
870,33	1224,69
870,50	1222,64
870,66	1224,69
870,83	1265,64
871,00	1245,16
871,17	1224,69
871,33	1263,60
871,50	1310,70
871,67	1296,36
871,83	1196,01
872,00	1257,45
872,17	1335,28
872,33	1261,55
872,50	1269,74
872,67	1288,17
872,83	1208,30
873,00	1249,26
873,17	1282,03
873,33	1204,21
873,50	1277,93
873,67	1298,41
873,83	1312,75
874,00	1335,28
874,16	1226,73
874,33	1282,03
874,50	1212,40
874,66	1253,36
874,83	1275,88
875,00	1212,40
875,16	1318,89
875,33	1284,08
875,50	1241,07
875,66	1251,31
875,83	1308,65
875,99	1265,64
876,16	1306,60
876,33	1267,69
876,49	1275,88
876,66	1239,02
876,83	1300,46
876,99	1263,60
877,16	1232,88
877,32	1277,93
877,49	1236,97
877,66	1249,26
877,82	1263,60
877,99	1189,87
878,15	1279,98
878,32	1277,93
878,49	1259,50
878,65	1236,97
878,82	1259,50
878,98	1302,51
879,15	1294,32
879,32	1320,94
879,48	1306,60
879,65	1216,49
879,81	1325,04
879,98	1288,17
880,15	1253,36
880,31	1304,56
880,48	1322,99
880,64	1288,17
880,81	1265,64
880,97	1224,69
881,14	1236,97
881,31	1261,55
881,47	1210,35
881,64	1249,26
881,80	1275,88
881,97	1259,50
882,13	1304,56
882,30	1247,21
882,47	1279,98
882,63	1290,22
882,80	1271,79
882,96	1282,03
883,13	1290,22
883,29	1232,88
883,46	1253,36
883,62	1232,88
883,79	1275,88
883,95	1284,08
884,12	1259,50
884,29	1265,64
884,45	1243,12
884,62	1224,69
884,78	1200,11
884,95	1218,54
885,11	1236,97
885,28	1269,74
885,44	1302,51
885,61	1304,56
885,77	1251,31
885,94	1265,64
886,10	1224,69
886,27	1259,50
886,43	1216,49
886,60	1259,50
886,76	1269,74
886,93	1202,16
887,09	1222,64
887,26	1249,26
887,42	1269,74
887,59	1275,88
887,75	1259,50
887,92	1318,89
888,08	1279,98
888,25	1294,32
888,41	1263,60
888,58	1247,21
888,74	1263,60
888,91	1230,83
>>>>>End Processed Spectral Data<<<<<
