SpectraSuite Data File
++++++++++++++++++++++++++++++++++++
Date: Sun Apr 03 15:12:34 CEST 2016
User: root
Dark Spectrum Present: No
Reference Spectrum Present: No
Number of Sampled Component Spectra: 1
Spectrometers: USB4C02835
Integration Time (usec): 10000 (USB4C02835)
Spectra Averaged: 1 (USB4C02835)
Boxcar Smoothing: 0 (USB4C02835)
Correct for Electrical Dark: No (USB4C02835)
Strobe/Lamp Enabled: No (USB4C02835)
Correct for Detector Non-linearity: No (USB4C02835)
Correct for Stray Light: No (USB4C02835)
Number of Pixels in Processed Spectrum: 3648
>>>>>Begin Processed Spectral Data<<<<<
177,47	1198,06
177,69	1198,06
177,91	1198,06
178,13	1288,17
178,36	1296,36
178,58	1294,32
178,80	1273,84
179,02	1304,56
179,24	1273,84
179,46	1345,52
179,68	1267,69
179,90	1322,99
180,13	1288,17
180,35	1247,21
180,57	1243,12
180,79	1267,69
181,01	1269,74
181,23	1269,74
181,45	1300,46
181,67	1292,27
181,90	1261,55
182,12	1247,21
182,34	1290,22
182,56	1267,69
182,78	1290,22
183,00	1300,46
183,22	1245,16
183,44	1187,82
183,66	1282,03
183,89	1267,69
184,11	1279,98
184,33	1249,26
184,55	1318,89
184,77	1212,40
184,99	1300,46
185,21	1263,60
185,43	1306,60
185,65	1286,12
185,87	1282,03
186,10	1214,45
186,32	1302,51
186,54	1292,27
186,76	1234,93
186,98	1271,79
187,20	1263,60
187,42	1243,12
187,64	1243,12
187,86	1312,75
188,08	1339,37
188,30	1282,03
188,52	1230,83
188,75	1257,45
188,97	1337,32
189,19	1275,88
189,41	1290,22
189,63	1245,16
189,85	1366,00
190,07	1261,55
190,29	1302,51
190,51	1292,27
190,73	1255,40
190,95	1218,54
191,17	1279,98
191,39	1212,40
191,61	1277,93
191,84	1308,65
192,06	1314,80
192,28	1327,08
192,50	1284,08
192,72	1271,79
192,94	1380,33
193,16	1288,17
193,38	1228,78
193,60	1247,21
193,82	1271,79
194,04	1236,97
194,26	1284,08
194,48	1247,21
194,70	1273,84
194,92	1288,17
195,14	1263,60
195,36	1267,69
195,58	1359,85
195,80	1298,41
196,02	1263,60
196,24	1310,70
196,46	1220,59
196,69	1214,45
196,91	1279,98
197,13	1239,02
197,35	1265,64
197,57	1216,49
197,79	1239,02
198,01	1243,12
198,23	1347,56
198,45	1318,89
198,67	1333,23
198,89	1249,26
199,11	1230,83
199,33	1253,36
199,55	1312,75
199,77	1331,18
199,99	1261,55
200,21	1318,89
200,43	1322,99
200,65	1333,23
200,87	1263,60
201,09	1327,08
201,31	1269,74
201,53	1247,21
201,75	1261,55
201,97	1259,50
202,19	1265,64
202,41	1318,89
202,63	1355,76
202,85	1290,22
203,07	1265,64
203,29	1267,69
203,51	1224,69
203,73	1265,64
203,95	1363,95
204,17	1279,98
204,39	1366,00
204,61	1206,25
204,83	1249,26
205,05	1300,46
205,27	1279,98
205,49	1249,26
205,71	1247,21
205,93	1277,93
206,15	1347,56
206,37	1333,23
206,59	1279,98
206,81	1255,40
207,03	1243,12
207,25	1263,60
207,47	1232,88
207,69	1245,16
207,91	1345,52
208,13	1318,89
208,34	1200,11
208,56	1308,65
208,78	1294,32
209,00	1261,55
209,22	1320,94
209,44	1255,40
209,66	1275,88
209,88	1167,34
210,10	1284,08
210,32	1333,23
210,54	1325,04
210,76	1282,03
210,98	1241,07
211,20	1198,06
211,42	1296,36
211,64	1265,64
211,86	1236,97
212,08	1302,51
212,30	1239,02
212,52	1296,36
212,74	1271,79
212,96	1331,18
213,17	1296,36
213,39	1255,40
213,61	1255,40
213,83	1251,31
214,05	1306,60
214,27	1298,41
214,49	1277,93
214,71	1271,79
214,93	1267,69
215,15	1318,89
215,37	1331,18
215,59	1335,28
215,81	1255,40
216,03	1257,45
216,24	1325,04
216,46	1282,03
216,68	1265,64
216,90	1294,32
217,12	1228,78
217,34	1251,31
217,56	1234,93
217,78	1218,54
218,00	1243,12
218,22	1263,60
218,44	1206,25
218,66	1226,73
218,87	1263,60
219,09	1322,99
219,31	1236,97
219,53	1320,94
219,75	1202,16
219,97	1271,79
220,19	1261,55
220,41	1208,30
220,63	1314,80
220,85	1277,93
221,06	1304,56
221,28	1220,59
221,50	1337,32
221,72	1284,08
221,94	1267,69
222,16	1322,99
222,38	1306,60
222,60	1251,31
222,82	1282,03
223,03	1243,12
223,25	1322,99
223,47	1271,79
223,69	1263,60
223,91	1304,56
224,13	1380,33
224,35	1218,54
224,57	1279,98
224,78	1284,08
225,00	1265,64
225,22	1273,84
225,44	1269,74
225,66	1302,51
225,88	1265,64
226,10	1335,28
226,32	1333,23
226,53	1179,63
226,75	1341,42
226,97	1253,36
227,19	1304,56
227,41	1316,84
227,63	1325,04
227,85	1265,64
228,06	1239,02
228,28	1282,03
228,50	1210,35
228,72	1271,79
228,94	1343,47
229,16	1234,93
229,37	1222,64
229,59	1310,70
229,81	1232,88
230,03	1298,41
230,25	1286,12
230,47	1224,69
230,69	1275,88
230,90	1269,74
231,12	1296,36
231,34	1306,60
231,56	1304,56
231,78	1251,31
232,00	1288,17
232,21	1245,16
232,43	1290,22
232,65	1282,03
232,87	1273,84
233,09	1226,73
233,30	1306,60
233,52	1234,93
233,74	1228,78
233,96	1220,59
234,18	1288,17
234,40	1243,12
234,61	1320,94
234,83	1228,78
235,05	1245,16
235,27	1265,64
235,49	1314,80
235,70	1263,60
235,92	1288,17
236,14	1265,64
236,36	1273,84
236,58	1329,13
236,79	1296,36
237,01	1251,31
237,23	1249,26
237,45	1314,80
237,67	1310,70
237,88	1261,55
238,10	1271,79
238,32	1294,32
238,54	1333,23
238,76	1308,65
238,97	1263,60
239,19	1282,03
239,41	1339,37
239,63	1273,84
239,85	1345,52
240,06	1267,69
240,28	1218,54
240,50	1308,65
240,72	1347,56
240,93	1314,80
241,15	1351,66
241,37	1269,74
241,59	1267,69
241,81	1318,89
242,02	1339,37
242,24	1206,25
242,46	1279,98
242,68	1277,93
242,89	1320,94
243,11	1271,79
243,33	1228,78
243,55	1251,31
243,76	1320,94
243,98	1228,78
244,20	1292,27
244,42	1253,36
244,64	1300,46
244,85	1243,12
245,07	1271,79
245,29	1335,28
245,51	1282,03
245,72	1271,79
245,94	1298,41
246,16	1282,03
246,38	1245,16
246,59	1247,21
246,81	1302,51
247,03	1296,36
247,24	1239,02
247,46	1226,73
247,68	1241,07
247,90	1279,98
248,11	1230,83
248,33	1277,93
248,55	1296,36
248,77	1247,21
248,98	1288,17
249,20	1306,60
249,42	1286,12
249,64	1228,78
249,85	1339,37
250,07	1263,60
250,29	1241,07
250,50	1247,21
250,72	1288,17
250,94	1327,08
251,16	1312,75
251,37	1288,17
251,59	1294,32
251,81	1232,88
252,02	1232,88
252,24	1245,16
252,46	1267,69
252,68	1253,36
252,89	1261,55
253,11	1210,35
253,33	1243,12
253,54	1261,55
253,76	1230,83
253,98	1310,70
254,20	1275,88
254,41	1357,80
254,63	1320,94
254,85	1296,36
255,06	1271,79
255,28	1277,93
255,50	1339,37
255,71	1288,17
255,93	1298,41
256,15	1267,69
256,36	1236,97
256,58	1263,60
256,80	1282,03
257,02	1300,46
257,23	1261,55
257,45	1288,17
257,67	1279,98
257,88	1265,64
258,10	1259,50
258,32	1232,88
258,53	1394,67
258,75	1220,59
258,97	1271,79
259,18	1253,36
259,40	1265,64
259,62	1251,31
259,83	1261,55
260,05	1245,16
260,27	1265,64
260,48	1284,08
260,70	1292,27
260,92	1290,22
261,13	1259,50
261,35	1288,17
261,57	1214,45
261,78	1261,55
262,00	1308,65
262,22	1255,40
262,43	1310,70
262,65	1214,45
262,86	1290,22
263,08	1282,03
263,30	1325,04
263,51	1257,45
263,73	1275,88
263,95	1277,93
264,16	1316,84
264,38	1232,88
264,60	1310,70
264,81	1345,52
265,03	1265,64
265,25	1277,93
265,46	1308,65
265,68	1216,49
265,89	1279,98
266,11	1351,66
266,33	1271,79
266,54	1273,84
266,76	1302,51
266,98	1290,22
267,19	1267,69
267,41	1308,65
267,62	1241,07
267,84	1282,03
268,06	1253,36
268,27	1269,74
268,49	1310,70
268,70	1212,40
268,92	1304,56
269,14	1271,79
269,35	1273,84
269,57	1363,95
269,79	1269,74
270,00	1175,53
270,22	1325,04
270,43	1183,73
270,65	1286,12
270,87	1304,56
271,08	1277,93
271,30	1271,79
271,51	1304,56
271,73	1273,84
271,95	1212,40
272,16	1296,36
272,38	1245,16
272,59	1249,26
272,81	1294,32
273,02	1245,16
273,24	1265,64
273,46	1259,50
273,67	1284,08
273,89	1265,64
274,10	1255,40
274,32	1257,45
274,54	1267,69
274,75	1372,14
274,97	1236,97
275,18	1345,52
275,40	1331,18
275,61	1245,16
275,83	1284,08
276,05	1210,35
276,26	1298,41
276,48	1236,97
276,69	1189,87
276,91	1300,46
277,12	1247,21
277,34	1282,03
277,55	1310,70
277,77	1296,36
277,99	1216,49
278,20	1222,64
278,42	1337,32
278,63	1271,79
278,85	1294,32
279,06	1290,22
279,28	1288,17
279,49	1257,45
279,71	1263,60
279,93	1296,36
280,14	1232,88
280,36	1282,03
280,57	1284,08
280,79	1345,52
281,00	1271,79
281,22	1263,60
281,43	1306,60
281,65	1216,49
281,86	1273,84
282,08	1196,01
282,29	1286,12
282,51	1226,73
282,73	1308,65
282,94	1185,77
283,16	1343,47
283,37	1300,46
283,59	1279,98
283,80	1243,12
284,02	1298,41
284,23	1267,69
284,45	1286,12
284,66	1269,74
284,88	1232,88
285,09	1234,93
285,31	1310,70
285,52	1273,84
285,74	1298,41
285,95	1232,88
286,17	1286,12
286,38	1226,73
286,60	1355,76
286,81	1241,07
287,03	1300,46
287,24	1265,64
287,46	1286,12
287,67	1269,74
287,89	1339,37
288,10	1275,88
288,32	1210,35
288,53	1292,27
288,75	1243,12
288,96	1255,40
289,18	1351,66
289,39	1251,31
289,61	1308,65
289,82	1249,26
290,04	1343,47
290,25	1239,02
290,47	1257,45
290,68	1220,59
290,90	1277,93
291,11	1228,78
291,33	1314,80
291,54	1282,03
291,76	1245,16
291,97	1251,31
292,18	1181,68
292,40	1320,94
292,61	1169,39
292,83	1255,40
293,04	1249,26
293,26	1290,22
293,47	1228,78
293,69	1241,07
293,90	1284,08
294,12	1306,60
294,33	1298,41
294,55	1279,98
294,76	1228,78
294,97	1265,64
295,19	1239,02
295,40	1267,69
295,62	1265,64
295,83	1316,84
296,05	1241,07
296,26	1282,03
296,48	1247,21
296,69	1298,41
296,90	1351,66
297,12	1298,41
297,33	1292,27
297,55	1214,45
297,76	1275,88
297,98	1220,59
298,19	1265,64
298,41	1290,22
298,62	1312,75
298,83	1212,40
299,05	1316,84
299,26	1234,93
299,48	1292,27
299,69	1318,89
299,90	1312,75
300,12	1259,50
300,33	1339,37
300,55	1251,31
300,76	1200,11
300,98	1292,27
301,19	1257,45
301,40	1232,88
301,62	1241,07
301,83	1265,64
302,05	1273,84
302,26	1243,12
302,47	1265,64
302,69	1243,12
302,90	1300,46
303,12	1275,88
303,33	1304,56
303,54	1251,31
303,76	1255,40
303,97	1353,71
304,19	1247,21
304,40	1234,93
304,61	1273,84
304,83	1202,16
305,04	1279,98
305,26	1318,89
305,47	1247,21
305,68	1310,70
305,90	1279,98
306,11	1271,79
306,33	1294,32
306,54	1277,93
306,75	1339,37
306,97	1263,60
307,18	1316,84
307,39	1316,84
307,61	1202,16
307,82	1228,78
308,04	1275,88
308,25	1271,79
308,46	1318,89
308,68	1251,31
308,89	1230,83
309,10	1234,93
309,32	1277,93
309,53	1249,26
309,74	1263,60
309,96	1255,40
310,17	1345,52
310,39	1265,64
310,60	1277,93
310,81	1322,99
311,03	1269,74
311,24	1251,31
311,45	1322,99
311,67	1273,84
311,88	1198,06
312,09	1275,88
312,31	1224,69
312,52	1337,32
312,73	1271,79
312,95	1273,84
313,16	1294,32
313,37	1265,64
313,59	1236,97
313,80	1249,26
314,01	1306,60
314,23	1255,40
314,44	1261,55
314,65	1198,06
314,87	1314,80
315,08	1288,17
315,29	1226,73
315,51	1261,55
315,72	1288,17
315,93	1302,51
316,15	1255,40
316,36	1200,11
316,57	1304,56
316,79	1226,73
317,00	1275,88
317,21	1294,32
317,43	1343,47
317,64	1288,17
317,85	1306,60
318,07	1261,55
318,28	1257,45
318,49	1286,12
318,70	1275,88
318,92	1232,88
319,13	1318,89
319,34	1275,88
319,56	1189,87
319,77	1302,51
319,98	1314,80
320,20	1239,02
320,41	1310,70
320,62	1251,31
320,83	1271,79
321,05	1267,69
321,26	1296,36
321,47	1257,45
321,69	1236,97
321,90	1253,36
322,11	1269,74
322,32	1304,56
322,54	1265,64
322,75	1304,56
322,96	1259,50
323,18	1269,74
323,39	1247,21
323,60	1312,75
323,81	1331,18
324,03	1294,32
324,24	1271,79
324,45	1232,88
324,66	1288,17
324,88	1239,02
325,09	1245,16
325,30	1310,70
325,52	1343,47
325,73	1236,97
325,94	1265,64
326,15	1243,12
326,37	1245,16
326,58	1257,45
326,79	1337,32
327,00	1214,45
327,22	1271,79
327,43	1335,28
327,64	1200,11
327,85	1263,60
328,07	1230,83
328,28	1271,79
328,49	1271,79
328,70	1228,78
328,92	1249,26
329,13	1269,74
329,34	1269,74
329,55	1314,80
329,76	1253,36
329,98	1329,13
330,19	1314,80
330,40	1296,36
330,61	1304,56
330,83	1282,03
331,04	1277,93
331,25	1265,64
331,46	1210,35
331,68	1236,97
331,89	1241,07
332,10	1206,25
332,31	1247,21
332,52	1218,54
332,74	1269,74
332,95	1263,60
333,16	1294,32
333,37	1335,28
333,58	1279,98
333,80	1355,76
334,01	1263,60
334,22	1316,84
334,43	1241,07
334,64	1310,70
334,86	1312,75
335,07	1220,59
335,28	1267,69
335,49	1245,16
335,70	1214,45
335,92	1298,41
336,13	1296,36
336,34	1275,88
336,55	1286,12
336,76	1208,30
336,98	1230,83
337,19	1243,12
337,40	1298,41
337,61	1282,03
337,82	1277,93
338,04	1286,12
338,25	1271,79
338,46	1228,78
338,67	1251,31
338,88	1222,64
339,09	1308,65
339,31	1243,12
339,52	1247,21
339,73	1216,49
339,94	1206,25
340,15	1251,31
340,36	1282,03
340,58	1222,64
340,79	1296,36
341,00	1230,83
341,21	1247,21
341,42	1298,41
341,63	1196,01
341,85	1322,99
342,06	1320,94
342,27	1302,51
342,48	1286,12
342,69	1224,69
342,90	1277,93
343,12	1214,45
343,33	1255,40
343,54	1290,22
343,75	1253,36
343,96	1200,11
344,17	1273,84
344,38	1288,17
344,60	1257,45
344,81	1245,16
345,02	1206,25
345,23	1298,41
345,44	1325,04
345,65	1265,64
345,86	1232,88
346,07	1284,08
346,29	1286,12
346,50	1241,07
346,71	1310,70
346,92	1298,41
347,13	1249,26
347,34	1284,08
347,55	1265,64
347,76	1247,21
347,98	1222,64
348,19	1269,74
348,40	1245,16
348,61	1265,64
348,82	1298,41
349,03	1275,88
349,24	1265,64
349,45	1245,16
349,66	1202,16
349,88	1257,45
350,09	1263,60
350,30	1292,27
350,51	1290,22
350,72	1277,93
350,93	1314,80
351,14	1277,93
351,35	1304,56
351,56	1279,98
351,77	1251,31
351,99	1263,60
352,20	1361,90
352,41	1267,69
352,62	1202,16
352,83	1239,02
353,04	1255,40
353,25	1337,32
353,46	1294,32
353,67	1294,32
353,88	1282,03
354,09	1255,40
354,30	1241,07
354,52	1298,41
354,73	1304,56
354,94	1298,41
355,15	1282,03
355,36	1331,18
355,57	1253,36
355,78	1294,32
355,99	1271,79
356,20	1286,12
356,41	1261,55
356,62	1269,74
356,83	1286,12
357,04	1263,60
357,25	1273,84
357,46	1232,88
357,68	1320,94
357,89	1290,22
358,10	1255,40
358,31	1290,22
358,52	1265,64
358,73	1208,30
358,94	1302,51
359,15	1273,84
359,36	1298,41
359,57	1296,36
359,78	1257,45
359,99	1284,08
360,20	1249,26
360,41	1220,59
360,62	1265,64
360,83	1183,73
361,04	1261,55
361,25	1245,16
361,46	1331,18
361,67	1294,32
361,88	1257,45
362,09	1255,40
362,30	1275,88
362,51	1314,80
362,72	1286,12
362,93	1228,78
363,14	1329,13
363,35	1286,12
363,56	1255,40
363,78	1265,64
363,99	1263,60
364,20	1189,87
364,41	1239,02
364,62	1259,50
364,83	1236,97
365,04	1279,98
365,25	1284,08
365,46	1275,88
365,67	1296,36
365,88	1267,69
366,09	1298,41
366,30	1236,97
366,51	1275,88
366,72	1351,66
366,93	1261,55
367,14	1239,02
367,35	1300,46
367,56	1296,36
367,77	1294,32
367,98	1255,40
368,18	1249,26
368,39	1308,65
368,60	1292,27
368,81	1251,31
369,02	1286,12
369,23	1230,83
369,44	1261,55
369,65	1267,69
369,86	1245,16
370,07	1179,63
370,28	1234,93
370,49	1335,28
370,70	1218,54
370,91	1228,78
371,12	1183,73
371,33	1220,59
371,54	1265,64
371,75	1294,32
371,96	1322,99
372,17	1337,32
372,38	1335,28
372,59	1306,60
372,80	1296,36
373,01	1245,16
373,22	1351,66
373,43	1193,97
373,64	1290,22
373,85	1239,02
374,06	1232,88
374,26	1271,79
374,47	1249,26
374,68	1294,32
374,89	1325,04
375,10	1243,12
375,31	1282,03
375,52	1380,33
375,73	1312,75
375,94	1239,02
376,15	1269,74
376,36	1226,73
376,57	1257,45
376,78	1245,16
376,99	1294,32
377,20	1269,74
377,40	1267,69
377,61	1191,92
377,82	1232,88
378,03	1298,41
378,24	1314,80
378,45	1273,84
378,66	1284,08
378,87	1327,08
379,08	1245,16
379,29	1335,28
379,50	1263,60
379,71	1298,41
379,91	1230,83
380,12	1298,41
380,33	1234,93
380,54	1284,08
380,75	1300,46
380,96	1298,41
381,17	1302,51
381,38	1210,35
381,59	1275,88
381,80	1253,36
382,00	1273,84
382,21	1214,45
382,42	1271,79
382,63	1345,52
382,84	1347,56
383,05	1214,45
383,26	1271,79
383,47	1277,93
383,68	1247,21
383,88	1306,60
384,09	1296,36
384,30	1249,26
384,51	1265,64
384,72	1304,56
384,93	1282,03
385,14	1286,12
385,35	1269,74
385,55	1187,82
385,76	1284,08
385,97	1314,80
386,18	1302,51
386,39	1243,12
386,60	1228,78
386,81	1208,30
387,02	1288,17
387,22	1243,12
387,43	1232,88
387,64	1320,94
387,85	1333,23
388,06	1279,98
388,27	1292,27
388,48	1286,12
388,68	1253,36
388,89	1290,22
389,10	1290,22
389,31	1263,60
389,52	1316,84
389,73	1322,99
389,93	1208,30
390,14	1279,98
390,35	1300,46
390,56	1304,56
390,77	1298,41
390,98	1241,07
391,18	1232,88
391,39	1302,51
391,60	1306,60
391,81	1312,75
392,02	1335,28
392,23	1265,64
392,43	1341,42
392,64	1241,07
392,85	1316,84
393,06	1234,93
393,27	1292,27
393,47	1247,21
393,68	1228,78
393,89	1277,93
394,10	1185,77
394,31	1269,74
394,52	1318,89
394,72	1310,70
394,93	1286,12
395,14	1273,84
395,35	1189,87
395,56	1271,79
395,76	1255,40
395,97	1359,85
396,18	1339,37
396,39	1236,97
396,60	1263,60
396,80	1243,12
397,01	1228,78
397,22	1232,88
397,43	1220,59
397,64	1271,79
397,84	1253,36
398,05	1263,60
398,26	1275,88
398,47	1259,50
398,67	1243,12
398,88	1249,26
399,09	1314,80
399,30	1220,59
399,51	1282,03
399,71	1318,89
399,92	1263,60
400,13	1288,17
400,34	1290,22
400,54	1267,69
400,75	1243,12
400,96	1249,26
401,17	1241,07
401,37	1325,04
401,58	1206,25
401,79	1292,27
402,00	1247,21
402,21	1320,94
402,41	1304,56
402,62	1220,59
402,83	1259,50
403,04	1294,32
403,24	1300,46
403,45	1271,79
403,66	1241,07
403,87	1275,88
404,07	1232,88
404,28	1322,99
404,49	1230,83
404,70	1286,12
404,90	1282,03
405,11	1300,46
405,32	1226,73
405,52	1212,40
405,73	1314,80
405,94	1247,21
406,15	1331,18
406,35	1214,45
406,56	1322,99
406,77	1296,36
406,98	1216,49
407,18	1273,84
407,39	1290,22
407,60	1230,83
407,80	1247,21
408,01	1265,64
408,22	1220,59
408,43	1261,55
408,63	1245,16
408,84	1232,88
409,05	1304,56
409,25	1322,99
409,46	1286,12
409,67	1159,15
409,88	1265,64
410,08	1337,32
410,29	1341,42
410,50	1353,71
410,70	1310,70
410,91	1245,16
411,12	1339,37
411,32	1167,34
411,53	1312,75
411,74	1286,12
411,95	1302,51
412,15	1277,93
412,36	1302,51
412,57	1234,93
412,77	1208,30
412,98	1347,56
413,19	1277,93
413,39	1230,83
413,60	1284,08
413,81	1210,35
414,01	1298,41
414,22	1193,97
414,43	1271,79
414,63	1271,79
414,84	1263,60
415,05	1187,82
415,25	1261,55
415,46	1193,97
415,67	1277,93
415,87	1245,16
416,08	1314,80
416,29	1263,60
416,49	1308,65
416,70	1292,27
416,91	1232,88
417,11	1269,74
417,32	1259,50
417,53	1230,83
417,73	1277,93
417,94	1222,64
418,15	1294,32
418,35	1267,69
418,56	1288,17
418,77	1306,60
418,97	1269,74
419,18	1284,08
419,38	1290,22
419,59	1232,88
419,80	1230,83
420,00	1263,60
420,21	1265,64
420,42	1265,64
420,62	1257,45
420,83	1322,99
421,04	1310,70
421,24	1271,79
421,45	1277,93
421,65	1331,18
421,86	1214,45
422,07	1216,49
422,27	1249,26
422,48	1230,83
422,69	1314,80
422,89	1265,64
423,10	1265,64
423,30	1290,22
423,51	1273,84
423,72	1255,40
423,92	1302,51
424,13	1224,69
424,33	1312,75
424,54	1277,93
424,75	1245,16
424,95	1298,41
425,16	1220,59
425,36	1273,84
425,57	1257,45
425,78	1224,69
425,98	1271,79
426,19	1245,16
426,39	1259,50
426,60	1269,74
426,81	1247,21
427,01	1267,69
427,22	1310,70
427,42	1298,41
427,63	1263,60
427,83	1224,69
428,04	1253,36
428,25	1271,79
428,45	1263,60
428,66	1298,41
428,86	1257,45
429,07	1298,41
429,28	1208,30
429,48	1220,59
429,69	1269,74
429,89	1191,92
430,10	1257,45
430,30	1310,70
430,51	1320,94
430,71	1275,88
430,92	1206,25
431,13	1228,78
431,33	1314,80
431,54	1257,45
431,74	1292,27
431,95	1269,74
432,15	1294,32
432,36	1208,30
432,56	1236,97
432,77	1314,80
432,98	1275,88
433,18	1314,80
433,39	1226,73
433,59	1318,89
433,80	1269,74
434,00	1353,71
434,21	1282,03
434,41	1290,22
434,62	1263,60
434,82	1228,78
435,03	1263,60
435,23	1349,61
435,44	1273,84
435,64	1304,56
435,85	1216,49
436,06	1216,49
436,26	1294,32
436,47	1263,60
436,67	1236,97
436,88	1169,39
437,08	1288,17
437,29	1202,16
437,49	1327,08
437,70	1349,61
437,90	1269,74
438,11	1245,16
438,31	1300,46
438,52	1263,60
438,72	1267,69
438,93	1329,13
439,13	1294,32
439,34	1247,21
439,54	1306,60
439,75	1312,75
439,95	1228,78
440,16	1247,21
440,36	1230,83
440,57	1245,16
440,77	1212,40
440,98	1261,55
441,18	1286,12
441,39	1306,60
441,59	1247,21
441,80	1316,84
442,00	1247,21
442,21	1249,26
442,41	1232,88
442,62	1220,59
442,82	1261,55
443,02	1259,50
443,23	1214,45
443,43	1282,03
443,64	1271,79
443,84	1247,21
444,05	1279,98
444,25	1269,74
444,46	1271,79
444,66	1359,85
444,87	1212,40
445,07	1212,40
445,28	1347,56
445,48	1261,55
445,69	1302,51
445,89	1279,98
446,09	1255,40
446,30	1304,56
446,50	1310,70
446,71	1273,84
446,91	1306,60
447,12	1269,74
447,32	1304,56
447,53	1267,69
447,73	1263,60
447,93	1263,60
448,14	1302,51
448,34	1316,84
448,55	1341,42
448,75	1228,78
448,96	1279,98
449,16	1218,54
449,36	1247,21
449,57	1267,69
449,77	1316,84
449,98	1196,01
450,18	1230,83
450,39	1234,93
450,59	1286,12
450,79	1312,75
451,00	1230,83
451,20	1306,60
451,41	1271,79
451,61	1331,18
451,81	1275,88
452,02	1267,69
452,22	1304,56
452,43	1292,27
452,63	1173,49
452,84	1249,26
453,04	1329,13
453,24	1327,08
453,45	1212,40
453,65	1304,56
453,86	1265,64
454,06	1267,69
454,26	1257,45
454,47	1222,64
454,67	1232,88
454,87	1316,84
455,08	1271,79
455,28	1251,31
455,49	1282,03
455,69	1259,50
455,89	1312,75
456,10	1308,65
456,30	1269,74
456,51	1241,07
456,71	1214,45
456,91	1249,26
457,12	1234,93
457,32	1308,65
457,52	1333,23
457,73	1322,99
457,93	1288,17
458,14	1284,08
458,34	1228,78
458,54	1228,78
458,75	1284,08
458,95	1245,16
459,15	1241,07
459,36	1310,70
459,56	1290,22
459,76	1284,08
459,97	1267,69
460,17	1206,25
460,37	1261,55
460,58	1284,08
460,78	1259,50
460,99	1267,69
461,19	1331,18
461,39	1275,88
461,60	1228,78
461,80	1273,84
462,00	1265,64
462,21	1214,45
462,41	1228,78
462,61	1253,36
462,82	1234,93
463,02	1247,21
463,22	1273,84
463,43	1290,22
463,63	1368,04
463,83	1310,70
464,04	1296,36
464,24	1279,98
464,44	1273,84
464,64	1253,36
464,85	1288,17
465,05	1329,13
465,25	1222,64
465,46	1341,42
465,66	1212,40
465,86	1279,98
466,07	1288,17
466,27	1329,13
466,47	1294,32
466,68	1335,28
466,88	1277,93
467,08	1339,37
467,29	1249,26
467,49	1304,56
467,69	1316,84
467,89	1269,74
468,10	1312,75
468,30	1306,60
468,50	1282,03
468,71	1267,69
468,91	1284,08
469,11	1255,40
469,31	1310,70
469,52	1314,80
469,72	1314,80
469,92	1271,79
470,13	1284,08
470,33	1263,60
470,53	1284,08
470,73	1353,71
470,94	1263,60
471,14	1298,41
471,34	1253,36
471,54	1255,40
471,75	1290,22
471,95	1206,25
472,15	1308,65
472,36	1249,26
472,56	1298,41
472,76	1191,92
472,96	1341,42
473,17	1290,22
473,37	1226,73
473,57	1245,16
473,77	1298,41
473,98	1275,88
474,18	1228,78
474,38	1298,41
474,58	1271,79
474,79	1290,22
474,99	1329,13
475,19	1275,88
475,39	1265,64
475,60	1269,74
475,80	1359,85
476,00	1265,64
476,20	1253,36
476,41	1189,87
476,61	1288,17
476,81	1267,69
477,01	1320,94
477,21	1275,88
477,42	1384,43
477,62	1306,60
477,82	1296,36
478,02	1263,60
478,23	1290,22
478,43	1249,26
478,63	1288,17
478,83	1263,60
479,03	1241,07
479,24	1308,65
479,44	1296,36
479,64	1286,12
479,84	1224,69
480,04	1271,79
480,25	1261,55
480,45	1247,21
480,65	1306,60
480,85	1257,45
481,06	1347,56
481,26	1306,60
481,46	1345,52
481,66	1288,17
481,86	1277,93
482,06	1275,88
482,27	1255,40
482,47	1284,08
482,67	1265,64
482,87	1251,31
483,07	1322,99
483,28	1263,60
483,48	1298,41
483,68	1249,26
483,88	1308,65
484,08	1239,02
484,29	1234,93
484,49	1294,32
484,69	1222,64
484,89	1279,98
485,09	1198,06
485,29	1284,08
485,50	1273,84
485,70	1279,98
485,90	1314,80
486,10	1292,27
486,30	1275,88
486,50	1312,75
486,71	1298,41
486,91	1286,12
487,11	1282,03
487,31	1253,36
487,51	1314,80
487,71	1265,64
487,91	1226,73
488,12	1292,27
488,32	1286,12
488,52	1286,12
488,72	1239,02
488,92	1304,56
489,12	1234,93
489,32	1261,55
489,53	1312,75
489,73	1220,59
489,93	1257,45
490,13	1218,54
490,33	1312,75
490,53	1226,73
490,73	1318,89
490,94	1259,50
491,14	1247,21
491,34	1236,97
491,54	1236,97
491,74	1275,88
491,94	1282,03
492,14	1290,22
492,34	1353,71
492,54	1271,79
492,75	1271,79
492,95	1179,63
493,15	1230,83
493,35	1212,40
493,55	1249,26
493,75	1339,37
493,95	1302,51
494,15	1232,88
494,35	1232,88
494,56	1220,59
494,76	1290,22
494,96	1251,31
495,16	1320,94
495,36	1413,10
495,56	1210,35
495,76	1226,73
495,96	1269,74
496,16	1241,07
496,36	1331,18
496,56	1308,65
496,77	1316,84
496,97	1220,59
497,17	1300,46
497,37	1236,97
497,57	1288,17
497,77	1208,30
497,97	1277,93
498,17	1257,45
498,37	1314,80
498,57	1284,08
498,77	1263,60
498,97	1234,93
499,17	1279,98
499,38	1279,98
499,58	1226,73
499,78	1267,69
499,98	1286,12
500,18	1259,50
500,38	1214,45
500,58	1271,79
500,78	1286,12
500,98	1279,98
501,18	1265,64
501,38	1273,84
501,58	1261,55
501,78	1271,79
501,98	1273,84
502,18	1296,36
502,38	1273,84
502,58	1255,40
502,78	1191,92
502,98	1273,84
503,18	1279,98
503,38	1175,53
503,59	1286,12
503,79	1366,00
503,99	1275,88
504,19	1337,32
504,39	1327,08
504,59	1300,46
504,79	1275,88
504,99	1234,93
505,19	1290,22
505,39	1257,45
505,59	1230,83
505,79	1204,21
505,99	1179,63
506,19	1277,93
506,39	1304,56
506,59	1271,79
506,79	1282,03
506,99	1226,73
507,19	1261,55
507,39	1198,06
507,59	1298,41
507,79	1249,26
507,99	1208,30
508,19	1277,93
508,39	1265,64
508,59	1292,27
508,79	1370,09
508,99	1267,69
509,19	1247,21
509,39	1263,60
509,59	1284,08
509,79	1304,56
509,99	1294,32
510,19	1343,47
510,39	1259,50
510,59	1322,99
510,79	1269,74
510,99	1251,31
511,19	1296,36
511,39	1196,01
511,59	1216,49
511,79	1298,41
511,99	1282,03
512,19	1306,60
512,38	1353,71
512,58	1288,17
512,78	1282,03
512,98	1241,07
513,18	1304,56
513,38	1316,84
513,58	1384,43
513,78	1331,18
513,98	1206,25
514,18	1284,08
514,38	1325,04
514,58	1243,12
514,78	1196,01
514,98	1249,26
515,18	1284,08
515,38	1257,45
515,58	1255,40
515,78	1208,30
515,98	1382,38
516,18	1259,50
516,38	1247,21
516,57	1230,83
516,77	1239,02
516,97	1271,79
517,17	1282,03
517,37	1239,02
517,57	1306,60
517,77	1230,83
517,97	1271,79
518,17	1288,17
518,37	1263,60
518,57	1263,60
518,77	1288,17
518,97	1247,21
519,16	1275,88
519,36	1236,97
519,56	1316,84
519,76	1300,46
519,96	1230,83
520,16	1236,97
520,36	1298,41
520,56	1241,07
520,76	1312,75
520,96	1212,40
521,16	1314,80
521,35	1355,76
521,55	1224,69
521,75	1290,22
521,95	1253,36
522,15	1304,56
522,35	1320,94
522,55	1263,60
522,75	1304,56
522,95	1226,73
523,14	1253,36
523,34	1284,08
523,54	1290,22
523,74	1290,22
523,94	1290,22
524,14	1355,76
524,34	1312,75
524,54	1292,27
524,73	1257,45
524,93	1247,21
525,13	1298,41
525,33	1234,93
525,53	1243,12
525,73	1261,55
525,93	1335,28
526,13	1277,93
526,32	1325,04
526,52	1247,21
526,72	1298,41
526,92	1290,22
527,12	1286,12
527,32	1261,55
527,52	1218,54
527,71	1269,74
527,91	1300,46
528,11	1239,02
528,31	1157,10
528,51	1257,45
528,71	1243,12
528,90	1273,84
529,10	1310,70
529,30	1341,42
529,50	1296,36
529,70	1331,18
529,90	1292,27
530,09	1251,31
530,29	1247,21
530,49	1234,93
530,69	1282,03
530,89	1216,49
531,09	1288,17
531,28	1275,88
531,48	1284,08
531,68	1226,73
531,88	1333,23
532,08	1288,17
532,28	1202,16
532,47	1292,27
532,67	1273,84
532,87	1269,74
533,07	1234,93
533,27	1275,88
533,46	1277,93
533,66	1257,45
533,86	1269,74
534,06	1253,36
534,26	1259,50
534,45	1269,74
534,65	1308,65
534,85	1331,18
535,05	1236,97
535,25	1216,49
535,44	1282,03
535,64	1253,36
535,84	1251,31
536,04	1249,26
536,24	1302,51
536,43	1337,32
536,63	1220,59
536,83	1290,22
537,03	1228,78
537,22	1292,27
537,42	1210,35
537,62	1296,36
537,82	1263,60
538,02	1277,93
538,21	1273,84
538,41	1236,97
538,61	1282,03
538,81	1259,50
539,00	1339,37
539,20	1271,79
539,40	1275,88
539,60	1273,84
539,79	1247,21
539,99	1255,40
540,19	1261,55
540,39	1204,21
540,58	1206,25
540,78	1298,41
540,98	1259,50
541,18	1347,56
541,37	1224,69
541,57	1306,60
541,77	1249,26
541,97	1277,93
542,16	1261,55
542,36	1284,08
542,56	1251,31
542,76	1302,51
542,95	1245,16
543,15	1372,14
543,35	1269,74
543,54	1228,78
543,74	1216,49
543,94	1273,84
544,14	1312,75
544,33	1300,46
544,53	1222,64
544,73	1189,87
544,93	1247,21
545,12	1171,44
545,32	1286,12
545,52	1249,26
545,71	1230,83
545,91	1198,06
546,11	1273,84
546,30	1232,88
546,50	1267,69
546,70	1277,93
546,90	1259,50
547,09	1284,08
547,29	1259,50
547,49	1261,55
547,68	1247,21
547,88	1292,27
548,08	1206,25
548,27	1296,36
548,47	1269,74
548,67	1329,13
548,87	1259,50
549,06	1314,80
549,26	1296,36
549,46	1241,07
549,65	1226,73
549,85	1318,89
550,05	1306,60
550,24	1247,21
550,44	1294,32
550,64	1290,22
550,83	1308,65
551,03	1322,99
551,23	1286,12
551,42	1277,93
551,62	1239,02
551,82	1273,84
552,01	1269,74
552,21	1288,17
552,41	1255,40
552,60	1279,98
552,80	1265,64
553,00	1298,41
553,19	1314,80
553,39	1253,36
553,59	1286,12
553,78	1261,55
553,98	1265,64
554,17	1273,84
554,37	1304,56
554,57	1255,40
554,76	1269,74
554,96	1261,55
555,16	1314,80
555,35	1220,59
555,55	1259,50
555,75	1243,12
555,94	1220,59
556,14	1241,07
556,33	1275,88
556,53	1224,69
556,73	1255,40
556,92	1302,51
557,12	1302,51
557,32	1253,36
557,51	1265,64
557,71	1269,74
557,90	1212,40
558,10	1298,41
558,30	1249,26
558,49	1308,65
558,69	1282,03
558,88	1325,04
559,08	1214,45
559,28	1249,26
559,47	1247,21
559,67	1277,93
559,86	1234,93
560,06	1290,22
560,26	1304,56
560,45	1322,99
560,65	1296,36
560,84	1333,23
561,04	1259,50
561,24	1261,55
561,43	1277,93
561,63	1275,88
561,82	1288,17
562,02	1245,16
562,22	1232,88
562,41	1198,06
562,61	1241,07
562,80	1251,31
563,00	1226,73
563,19	1271,79
563,39	1343,47
563,59	1341,42
563,78	1322,99
563,98	1286,12
564,17	1292,27
564,37	1255,40
564,56	1232,88
564,76	1277,93
564,96	1339,37
565,15	1261,55
565,35	1279,98
565,54	1271,79
565,74	1322,99
565,93	1312,75
566,13	1290,22
566,32	1200,11
566,52	1314,80
566,71	1265,64
566,91	1302,51
567,11	1320,94
567,30	1245,16
567,50	1322,99
567,69	1273,84
567,89	1296,36
568,08	1316,84
568,28	1333,23
568,47	1241,07
568,67	1277,93
568,86	1357,80
569,06	1314,80
569,25	1306,60
569,45	1253,36
569,64	1296,36
569,84	1269,74
570,04	1271,79
570,23	1255,40
570,43	1218,54
570,62	1275,88
570,82	1267,69
571,01	1345,52
571,21	1232,88
571,40	1292,27
571,60	1247,21
571,79	1269,74
571,99	1208,30
572,18	1271,79
572,38	1282,03
572,57	1232,88
572,77	1298,41
572,96	1216,49
573,16	1245,16
573,35	1204,21
573,55	1325,04
573,74	1263,60
573,94	1251,31
574,13	1337,32
574,33	1310,70
574,52	1271,79
574,71	1316,84
574,91	1185,77
575,10	1212,40
575,30	1288,17
575,49	1249,26
575,69	1241,07
575,88	1193,97
576,08	1249,26
576,27	1257,45
576,47	1206,25
576,66	1345,52
576,86	1275,88
577,05	1284,08
577,25	1308,65
577,44	1259,50
577,64	1329,13
577,83	1271,79
578,02	1189,87
578,22	1269,74
578,41	1257,45
578,61	1284,08
578,80	1314,80
579,00	1253,36
579,19	1230,83
579,39	1298,41
579,58	1300,46
579,77	1241,07
579,97	1292,27
580,16	1267,69
580,36	1255,40
580,55	1191,92
580,75	1232,88
580,94	1259,50
581,13	1243,12
581,33	1218,54
581,52	1290,22
581,72	1273,84
581,91	1288,17
582,11	1251,31
582,30	1267,69
582,49	1312,75
582,69	1269,74
582,88	1247,21
583,08	1325,04
583,27	1294,32
583,47	1284,08
583,66	1263,60
583,85	1298,41
584,05	1277,93
584,24	1259,50
584,44	1220,59
584,63	1259,50
584,82	1230,83
585,02	1312,75
585,21	1206,25
585,41	1210,35
585,60	1241,07
585,79	1208,30
585,99	1228,78
586,18	1251,31
586,37	1265,64
586,57	1239,02
586,76	1343,47
586,96	1198,06
587,15	1247,21
587,34	1300,46
587,54	1306,60
587,73	1282,03
587,93	1241,07
588,12	1241,07
588,31	1226,73
588,51	1308,65
588,70	1236,97
588,89	1335,28
589,09	1267,69
589,28	1288,17
589,47	1312,75
589,67	1224,69
589,86	1290,22
590,06	1200,11
590,25	1247,21
590,44	1269,74
590,64	1322,99
590,83	1241,07
591,02	1241,07
591,22	1204,21
591,41	1243,12
591,60	1304,56
591,80	1245,16
591,99	1331,18
592,18	1269,74
592,38	1222,64
592,57	1216,49
592,76	1333,23
592,96	1298,41
593,15	1236,97
593,34	1216,49
593,54	1322,99
593,73	1271,79
593,92	1306,60
594,12	1239,02
594,31	1271,79
594,50	1275,88
594,70	1224,69
594,89	1230,83
595,08	1288,17
595,28	1325,04
595,47	1263,60
595,66	1290,22
595,86	1245,16
596,05	1325,04
596,24	1347,56
596,43	1325,04
596,63	1255,40
596,82	1232,88
597,01	1247,21
597,21	1298,41
597,40	1243,12
597,59	1288,17
597,79	1222,64
597,98	1267,69
598,17	1261,55
598,36	1236,97
598,56	1331,18
598,75	1232,88
598,94	1325,04
599,14	1251,31
599,33	1277,93
599,52	1210,35
599,71	1277,93
599,91	1329,13
600,10	1286,12
600,29	1353,71
600,48	1249,26
600,68	1335,28
600,87	1236,97
601,06	1337,32
601,26	1271,79
601,45	1222,64
601,64	1312,75
601,83	1282,03
602,03	1249,26
602,22	1345,52
602,41	1300,46
602,60	1220,59
602,80	1284,08
602,99	1333,23
603,18	1236,97
603,37	1271,79
603,57	1304,56
603,76	1341,42
603,95	1261,55
604,14	1288,17
604,34	1267,69
604,53	1263,60
604,72	1296,36
604,91	1341,42
605,10	1271,79
605,30	1351,66
605,49	1230,83
605,68	1265,64
605,87	1312,75
606,07	1267,69
606,26	1212,40
606,45	1294,32
606,64	1255,40
606,84	1320,94
607,03	1241,07
607,22	1222,64
607,41	1236,97
607,60	1273,84
607,80	1318,89
607,99	1322,99
608,18	1232,88
608,37	1259,50
608,56	1263,60
608,76	1259,50
608,95	1282,03
609,14	1189,87
609,33	1267,69
609,52	1224,69
609,72	1230,83
609,91	1226,73
610,10	1277,93
610,29	1292,27
610,48	1282,03
610,68	1257,45
610,87	1271,79
611,06	1263,60
611,25	1243,12
611,44	1284,08
611,63	1284,08
611,83	1343,47
612,02	1265,64
612,21	1271,79
612,40	1173,49
612,59	1300,46
612,79	1251,31
612,98	1290,22
613,17	1273,84
613,36	1239,02
613,55	1277,93
613,74	1302,51
613,93	1292,27
614,13	1241,07
614,32	1241,07
614,51	1265,64
614,70	1259,50
614,89	1312,75
615,08	1282,03
615,28	1298,41
615,47	1284,08
615,66	1308,65
615,85	1247,21
616,04	1296,36
616,23	1267,69
616,42	1265,64
616,62	1339,37
616,81	1298,41
617,00	1243,12
617,19	1314,80
617,38	1267,69
617,57	1214,45
617,76	1208,30
617,95	1345,52
618,15	1298,41
618,34	1288,17
618,53	1216,49
618,72	1282,03
618,91	1239,02
619,10	1288,17
619,29	1241,07
619,48	1236,97
619,68	1239,02
619,87	1282,03
620,06	1259,50
620,25	1288,17
620,44	1214,45
620,63	1249,26
620,82	1312,75
621,01	1335,28
621,20	1228,78
621,39	1261,55
621,59	1273,84
621,78	1288,17
621,97	1284,08
622,16	1275,88
622,35	1261,55
622,54	1298,41
622,73	1294,32
622,92	1277,93
623,11	1286,12
623,30	1331,18
623,49	1228,78
623,68	1306,60
623,88	1329,13
624,07	1261,55
624,26	1245,16
624,45	1345,52
624,64	1279,98
624,83	1308,65
625,02	1275,88
625,21	1253,36
625,40	1335,28
625,59	1294,32
625,78	1206,25
625,97	1343,47
626,16	1288,17
626,35	1310,70
626,54	1269,74
626,74	1267,69
626,93	1261,55
627,12	1345,52
627,31	1259,50
627,50	1327,08
627,69	1273,84
627,88	1267,69
628,07	1257,45
628,26	1222,64
628,45	1349,61
628,64	1314,80
628,83	1314,80
629,02	1347,56
629,21	1318,89
629,40	1329,13
629,59	1357,80
629,78	1300,46
629,97	1275,88
630,16	1329,13
630,35	1214,45
630,54	1384,43
630,73	1331,18
630,92	1222,64
631,11	1267,69
631,30	1271,79
631,49	1333,23
631,68	1312,75
631,87	1429,48
632,06	1396,71
632,25	1372,14
632,44	1433,58
632,63	1423,34
632,82	1380,33
633,01	1406,95
633,20	1406,95
633,39	1488,87
633,58	1460,20
633,77	1380,33
633,96	1501,16
634,15	1550,31
634,34	1843,17
634,53	2205,66
634,72	1660,90
634,91	1478,63
635,10	1552,36
635,29	1964,00
635,48	2371,55
635,67	2383,84
635,86	2107,36
636,05	1875,94
636,24	1683,43
636,43	1509,35
636,62	1476,59
636,81	1376,24
637,00	1411,05
637,19	1437,67
637,38	1345,52
637,57	1343,47
637,76	1404,91
637,95	1310,70
638,14	1392,62
638,33	1337,32
638,52	1267,69
638,71	1292,27
638,89	1261,55
639,08	1294,32
639,27	1288,17
639,46	1267,69
639,65	1282,03
639,84	1214,45
640,03	1331,18
640,22	1304,56
640,41	1296,36
640,60	1245,16
640,79	1292,27
640,98	1247,21
641,17	1218,54
641,36	1310,70
641,55	1304,56
641,74	1261,55
641,92	1286,12
642,11	1257,45
642,30	1214,45
642,49	1296,36
642,68	1337,32
642,87	1265,64
643,06	1308,65
643,25	1312,75
643,44	1312,75
643,63	1316,84
643,82	1327,08
644,00	1290,22
644,19	1316,84
644,38	1257,45
644,57	1230,83
644,76	1234,93
644,95	1320,94
645,14	1234,93
645,33	1300,46
645,52	1236,97
645,71	1243,12
645,89	1191,92
646,08	1296,36
646,27	1304,56
646,46	1255,40
646,65	1269,74
646,84	1275,88
647,03	1251,31
647,22	1290,22
647,40	1290,22
647,59	1253,36
647,78	1290,22
647,97	1294,32
648,16	1267,69
648,35	1279,98
648,54	1236,97
648,73	1271,79
648,91	1263,60
649,10	1249,26
649,29	1288,17
649,48	1279,98
649,67	1265,64
649,86	1243,12
650,05	1306,60
650,23	1265,64
650,42	1349,61
650,61	1247,21
650,80	1239,02
650,99	1220,59
651,18	1331,18
651,36	1271,79
651,55	1206,25
651,74	1271,79
651,93	1249,26
652,12	1331,18
652,31	1310,70
652,49	1351,66
652,68	1265,64
652,87	1294,32
653,06	1265,64
653,25	1239,02
653,44	1265,64
653,62	1306,60
653,81	1331,18
654,00	1290,22
654,19	1359,85
654,38	1279,98
654,56	1275,88
654,75	1288,17
654,94	1222,64
655,13	1277,93
655,32	1294,32
655,51	1255,40
655,69	1243,12
655,88	1310,70
656,07	1241,07
656,26	1339,37
656,45	1306,60
656,63	1294,32
656,82	1284,08
657,01	1267,69
657,20	1296,36
657,38	1232,88
657,57	1212,40
657,76	1230,83
657,95	1271,79
658,14	1208,30
658,32	1314,80
658,51	1288,17
658,70	1241,07
658,89	1294,32
659,08	1247,21
659,26	1294,32
659,45	1259,50
659,64	1286,12
659,83	1251,31
660,01	1226,73
660,20	1308,65
660,39	1318,89
660,58	1253,36
660,76	1228,78
660,95	1234,93
661,14	1290,22
661,33	1198,06
661,51	1337,32
661,70	1320,94
661,89	1294,32
662,08	1224,69
662,26	1214,45
662,45	1230,83
662,64	1304,56
662,83	1322,99
663,01	1224,69
663,20	1236,97
663,39	1257,45
663,58	1327,08
663,76	1261,55
663,95	1290,22
664,14	1249,26
664,32	1224,69
664,51	1325,04
664,70	1208,30
664,89	1273,84
665,07	1290,22
665,26	1275,88
665,45	1327,08
665,64	1232,88
665,82	1271,79
666,01	1292,27
666,20	1284,08
666,38	1228,78
666,57	1204,21
666,76	1333,23
666,95	1234,93
667,13	1226,73
667,32	1277,93
667,51	1277,93
667,69	1271,79
667,88	1253,36
668,07	1243,12
668,25	1298,41
668,44	1191,92
668,63	1261,55
668,81	1243,12
669,00	1249,26
669,19	1265,64
669,38	1269,74
669,56	1314,80
669,75	1263,60
669,94	1214,45
670,12	1273,84
670,31	1279,98
670,50	1230,83
670,68	1331,18
670,87	1210,35
671,06	1241,07
671,24	1214,45
671,43	1282,03
671,62	1259,50
671,80	1198,06
671,99	1275,88
672,18	1255,40
672,36	1288,17
672,55	1245,16
672,74	1232,88
672,92	1288,17
673,11	1253,36
673,29	1298,41
673,48	1273,84
673,67	1228,78
673,85	1241,07
674,04	1265,64
674,23	1257,45
674,41	1273,84
674,60	1271,79
674,79	1290,22
674,97	1343,47
675,16	1294,32
675,34	1286,12
675,53	1271,79
675,72	1304,56
675,90	1290,22
676,09	1294,32
676,28	1290,22
676,46	1259,50
676,65	1277,93
676,83	1271,79
677,02	1331,18
677,21	1249,26
677,39	1267,69
677,58	1249,26
677,77	1288,17
677,95	1202,16
678,14	1308,65
678,32	1296,36
678,51	1257,45
678,70	1302,51
678,88	1247,21
679,07	1208,30
679,25	1259,50
679,44	1261,55
679,63	1292,27
679,81	1347,56
680,00	1282,03
680,18	1282,03
680,37	1294,32
680,55	1222,64
680,74	1310,70
680,93	1335,28
681,11	1253,36
681,30	1249,26
681,48	1269,74
681,67	1325,04
681,85	1298,41
682,04	1345,52
682,23	1312,75
682,41	1257,45
682,60	1314,80
682,78	1232,88
682,97	1265,64
683,15	1198,06
683,34	1304,56
683,53	1355,76
683,71	1267,69
683,90	1316,84
684,08	1288,17
684,27	1241,07
684,45	1275,88
684,64	1226,73
684,82	1234,93
685,01	1382,38
685,19	1314,80
685,38	1273,84
685,57	1200,11
685,75	1288,17
685,94	1298,41
686,12	1265,64
686,31	1257,45
686,49	1325,04
686,68	1277,93
686,86	1314,80
687,05	1300,46
687,23	1302,51
687,42	1249,26
687,60	1329,13
687,79	1271,79
687,97	1277,93
688,16	1267,69
688,34	1273,84
688,53	1304,56
688,71	1224,69
688,90	1333,23
689,08	1253,36
689,27	1265,64
689,45	1279,98
689,64	1257,45
689,82	1286,12
690,01	1157,10
690,19	1257,45
690,38	1247,21
690,56	1279,98
690,75	1218,54
690,93	1290,22
691,12	1202,16
691,30	1290,22
691,49	1265,64
691,67	1296,36
691,86	1232,88
692,04	1325,04
692,23	1222,64
692,41	1286,12
692,60	1320,94
692,78	1308,65
692,97	1257,45
693,15	1263,60
693,34	1265,64
693,52	1271,79
693,71	1200,11
693,89	1267,69
694,08	1279,98
694,26	1275,88
694,44	1269,74
694,63	1298,41
694,81	1296,36
695,00	1204,21
695,18	1232,88
695,37	1234,93
695,55	1263,60
695,74	1282,03
695,92	1265,64
696,10	1298,41
696,29	1294,32
696,47	1267,69
696,66	1228,78
696,84	1214,45
697,03	1193,97
697,21	1296,36
697,40	1314,80
697,58	1298,41
697,76	1269,74
697,95	1212,40
698,13	1300,46
698,32	1228,78
698,50	1249,26
698,68	1265,64
698,87	1282,03
699,05	1257,45
699,24	1337,32
699,42	1204,21
699,61	1306,60
699,79	1294,32
699,97	1265,64
700,16	1331,18
700,34	1257,45
700,53	1361,90
700,71	1249,26
700,89	1288,17
701,08	1300,46
701,26	1249,26
701,45	1261,55
701,63	1286,12
701,81	1327,08
702,00	1290,22
702,18	1220,59
702,37	1222,64
702,55	1269,74
702,73	1327,08
702,92	1261,55
703,10	1275,88
703,28	1230,83
703,47	1273,84
703,65	1333,23
703,84	1312,75
704,02	1239,02
704,20	1259,50
704,39	1253,36
704,57	1214,45
704,75	1335,28
704,94	1263,60
705,12	1263,60
705,30	1265,64
705,49	1308,65
705,67	1320,94
705,86	1234,93
706,04	1327,08
706,22	1230,83
706,41	1318,89
706,59	1273,84
706,77	1247,21
706,96	1236,97
707,14	1257,45
707,32	1331,18
707,51	1304,56
707,69	1216,49
707,87	1292,27
708,06	1239,02
708,24	1312,75
708,42	1269,74
708,61	1261,55
708,79	1329,13
708,97	1282,03
709,16	1306,60
709,34	1271,79
709,52	1302,51
709,71	1241,07
709,89	1259,50
710,07	1277,93
710,26	1187,82
710,44	1277,93
710,62	1282,03
710,80	1263,60
710,99	1386,47
711,17	1304,56
711,35	1241,07
711,54	1296,36
711,72	1288,17
711,90	1308,65
712,09	1226,73
712,27	1288,17
712,45	1300,46
712,63	1257,45
712,82	1296,36
713,00	1292,27
713,18	1306,60
713,37	1263,60
713,55	1316,84
713,73	1269,74
713,91	1241,07
714,10	1314,80
714,28	1306,60
714,46	1282,03
714,65	1320,94
714,83	1249,26
715,01	1308,65
715,19	1269,74
715,38	1216,49
715,56	1236,97
715,74	1292,27
715,92	1333,23
716,11	1249,26
716,29	1259,50
716,47	1247,21
716,65	1261,55
716,84	1259,50
717,02	1284,08
717,20	1243,12
717,38	1290,22
717,57	1214,45
717,75	1312,75
717,93	1277,93
718,11	1290,22
718,30	1273,84
718,48	1288,17
718,66	1302,51
718,84	1263,60
719,03	1275,88
719,21	1349,61
719,39	1286,12
719,57	1271,79
719,75	1259,50
719,94	1300,46
720,12	1286,12
720,30	1282,03
720,48	1277,93
720,67	1279,98
720,85	1253,36
721,03	1267,69
721,21	1222,64
721,39	1222,64
721,58	1304,56
721,76	1253,36
721,94	1208,30
722,12	1357,80
722,30	1251,31
722,49	1241,07
722,67	1275,88
722,85	1310,70
723,03	1310,70
723,21	1279,98
723,40	1206,25
723,58	1288,17
723,76	1253,36
723,94	1251,31
724,12	1253,36
724,30	1249,26
724,49	1206,25
724,67	1316,84
724,85	1292,27
725,03	1279,98
725,21	1239,02
725,40	1241,07
725,58	1253,36
725,76	1261,55
725,94	1292,27
726,12	1275,88
726,30	1243,12
726,49	1304,56
726,67	1230,83
726,85	1290,22
727,03	1253,36
727,21	1232,88
727,39	1196,01
727,57	1284,08
727,76	1300,46
727,94	1310,70
728,12	1214,45
728,30	1273,84
728,48	1253,36
728,66	1267,69
728,84	1200,11
729,03	1249,26
729,21	1200,11
729,39	1230,83
729,57	1208,30
729,75	1241,07
729,93	1316,84
730,11	1286,12
730,30	1255,40
730,48	1347,56
730,66	1243,12
730,84	1300,46
731,02	1298,41
731,20	1275,88
731,38	1226,73
731,56	1259,50
731,74	1216,49
731,93	1302,51
732,11	1253,36
732,29	1255,40
732,47	1292,27
732,65	1286,12
732,83	1253,36
733,01	1275,88
733,19	1329,13
733,37	1218,54
733,56	1226,73
733,74	1206,25
733,92	1306,60
734,10	1302,51
734,28	1273,84
734,46	1243,12
734,64	1232,88
734,82	1259,50
735,00	1290,22
735,18	1247,21
735,36	1284,08
735,54	1298,41
735,73	1273,84
735,91	1304,56
736,09	1257,45
736,27	1382,38
736,45	1241,07
736,63	1333,23
736,81	1153,01
736,99	1257,45
737,17	1284,08
737,35	1230,83
737,53	1300,46
737,71	1306,60
737,89	1228,78
738,07	1263,60
738,25	1263,60
738,43	1294,32
738,61	1290,22
738,80	1282,03
738,98	1247,21
739,16	1314,80
739,34	1288,17
739,52	1269,74
739,70	1214,45
739,88	1296,36
740,06	1267,69
740,24	1220,59
740,42	1288,17
740,60	1259,50
740,78	1253,36
740,96	1265,64
741,14	1251,31
741,32	1202,16
741,50	1277,93
741,68	1263,60
741,86	1265,64
742,04	1239,02
742,22	1230,83
742,40	1247,21
742,58	1265,64
742,76	1257,45
742,94	1257,45
743,12	1277,93
743,30	1310,70
743,48	1257,45
743,66	1288,17
743,84	1218,54
744,02	1265,64
744,20	1230,83
744,38	1282,03
744,56	1253,36
744,74	1230,83
744,92	1232,88
745,10	1275,88
745,28	1312,75
745,46	1327,08
745,64	1253,36
745,82	1294,32
746,00	1230,83
746,18	1214,45
746,36	1318,89
746,54	1310,70
746,72	1290,22
746,90	1290,22
747,08	1251,31
747,26	1226,73
747,44	1261,55
747,62	1294,32
747,80	1298,41
747,98	1271,79
748,15	1251,31
748,33	1298,41
748,51	1279,98
748,69	1249,26
748,87	1298,41
749,05	1241,07
749,23	1345,52
749,41	1247,21
749,59	1337,32
749,77	1224,69
749,95	1271,79
750,13	1261,55
750,31	1228,78
750,49	1302,51
750,67	1306,60
750,85	1263,60
751,03	1255,40
751,20	1236,97
751,38	1189,87
751,56	1302,51
751,74	1245,16
751,92	1245,16
752,10	1241,07
752,28	1228,78
752,46	1269,74
752,64	1318,89
752,82	1196,01
753,00	1320,94
753,18	1243,12
753,35	1218,54
753,53	1267,69
753,71	1251,31
753,89	1265,64
754,07	1273,84
754,25	1253,36
754,43	1294,32
754,61	1273,84
754,79	1269,74
754,97	1302,51
755,14	1226,73
755,32	1236,97
755,50	1249,26
755,68	1269,74
755,86	1316,84
756,04	1304,56
756,22	1257,45
756,40	1241,07
756,57	1216,49
756,75	1286,12
756,93	1308,65
757,11	1253,36
757,29	1314,80
757,47	1273,84
757,65	1279,98
757,82	1282,03
758,00	1230,83
758,18	1331,18
758,36	1271,79
758,54	1284,08
758,72	1265,64
758,90	1253,36
759,07	1316,84
759,25	1331,18
759,43	1314,80
759,61	1259,50
759,79	1314,80
759,97	1318,89
760,15	1265,64
760,32	1255,40
760,50	1245,16
760,68	1263,60
760,86	1376,24
761,04	1265,64
761,22	1206,25
761,39	1236,97
761,57	1216,49
761,75	1271,79
761,93	1257,45
762,11	1306,60
762,28	1271,79
762,46	1312,75
762,64	1234,93
762,82	1253,36
763,00	1304,56
763,18	1286,12
763,35	1331,18
763,53	1232,88
763,71	1243,12
763,89	1314,80
764,07	1294,32
764,24	1261,55
764,42	1277,93
764,60	1329,13
764,78	1275,88
764,96	1241,07
765,13	1316,84
765,31	1286,12
765,49	1269,74
765,67	1290,22
765,84	1253,36
766,02	1241,07
766,20	1239,02
766,38	1232,88
766,56	1286,12
766,73	1265,64
766,91	1208,30
767,09	1314,80
767,27	1275,88
767,44	1239,02
767,62	1263,60
767,80	1212,40
767,98	1236,97
768,15	1253,36
768,33	1259,50
768,51	1232,88
768,69	1279,98
768,87	1273,84
769,04	1294,32
769,22	1300,46
769,40	1378,28
769,58	1310,70
769,75	1316,84
769,93	1294,32
770,11	1239,02
770,28	1316,84
770,46	1310,70
770,64	1208,30
770,82	1304,56
770,99	1216,49
771,17	1333,23
771,35	1257,45
771,53	1269,74
771,70	1259,50
771,88	1251,31
772,06	1230,83
772,23	1271,79
772,41	1335,28
772,59	1228,78
772,77	1273,84
772,94	1245,16
773,12	1255,40
773,30	1234,93
773,47	1290,22
773,65	1392,62
773,83	1261,55
774,01	1224,69
774,18	1236,97
774,36	1302,51
774,54	1230,83
774,71	1265,64
774,89	1243,12
775,07	1277,93
775,24	1282,03
775,42	1245,16
775,60	1312,75
775,78	1253,36
775,95	1228,78
776,13	1249,26
776,31	1267,69
776,48	1273,84
776,66	1296,36
776,84	1239,02
777,01	1322,99
777,19	1257,45
777,37	1290,22
777,54	1261,55
777,72	1247,21
777,90	1331,18
778,07	1279,98
778,25	1241,07
778,43	1288,17
778,60	1253,36
778,78	1271,79
778,96	1216,49
779,13	1306,60
779,31	1271,79
779,49	1259,50
779,66	1259,50
779,84	1259,50
780,01	1249,26
780,19	1243,12
780,37	1296,36
780,54	1314,80
780,72	1259,50
780,90	1282,03
781,07	1288,17
781,25	1239,02
781,43	1279,98
781,60	1277,93
781,78	1257,45
781,95	1269,74
782,13	1230,83
782,31	1275,88
782,48	1329,13
782,66	1255,40
782,83	1284,08
783,01	1343,47
783,19	1298,41
783,36	1251,31
783,54	1288,17
783,72	1296,36
783,89	1277,93
784,07	1298,41
784,24	1222,64
784,42	1245,16
784,60	1193,97
784,77	1288,17
784,95	1296,36
785,12	1220,59
785,30	1198,06
785,47	1302,51
785,65	1257,45
785,83	1279,98
786,00	1292,27
786,18	1236,97
786,35	1279,98
786,53	1288,17
786,71	1294,32
786,88	1269,74
787,06	1284,08
787,23	1310,70
787,41	1273,84
787,58	1277,93
787,76	1232,88
787,94	1302,51
788,11	1308,65
788,29	1288,17
788,46	1202,16
788,64	1290,22
788,81	1206,25
788,99	1257,45
789,16	1325,04
789,34	1277,93
789,52	1322,99
789,69	1290,22
789,87	1322,99
790,04	1290,22
790,22	1325,04
790,39	1304,56
790,57	1277,93
790,74	1300,46
790,92	1282,03
791,09	1277,93
791,27	1275,88
791,44	1277,93
791,62	1314,80
791,79	1306,60
791,97	1251,31
792,15	1216,49
792,32	1273,84
792,50	1251,31
792,67	1247,21
792,85	1327,08
793,02	1296,36
793,20	1232,88
793,37	1243,12
793,55	1296,36
793,72	1228,78
793,90	1349,61
794,07	1275,88
794,25	1232,88
794,42	1290,22
794,60	1208,30
794,77	1261,55
794,95	1316,84
795,12	1265,64
795,30	1255,40
795,47	1310,70
795,65	1306,60
795,82	1286,12
796,00	1214,45
796,17	1275,88
796,34	1255,40
796,52	1236,97
796,69	1296,36
796,87	1255,40
797,04	1255,40
797,22	1204,21
797,39	1302,51
797,57	1234,93
797,74	1282,03
797,92	1220,59
798,09	1228,78
798,27	1263,60
798,44	1265,64
798,62	1298,41
798,79	1331,18
798,96	1218,54
799,14	1286,12
799,31	1273,84
799,49	1282,03
799,66	1228,78
799,84	1245,16
800,01	1302,51
800,19	1296,36
800,36	1316,84
800,53	1259,50
800,71	1224,69
800,88	1255,40
801,06	1277,93
801,23	1265,64
801,41	1271,79
801,58	1247,21
801,75	1243,12
801,93	1230,83
802,10	1220,59
802,28	1273,84
802,45	1218,54
802,63	1302,51
802,80	1275,88
802,97	1331,18
803,15	1271,79
803,32	1232,88
803,50	1282,03
803,67	1241,07
803,84	1277,93
804,02	1267,69
804,19	1245,16
804,37	1277,93
804,54	1304,56
804,71	1302,51
804,89	1230,83
805,06	1249,26
805,24	1298,41
805,41	1286,12
805,58	1247,21
805,76	1261,55
805,93	1249,26
806,10	1312,75
806,28	1253,36
806,45	1279,98
806,63	1228,78
806,80	1316,84
806,97	1298,41
807,15	1282,03
807,32	1322,99
807,49	1341,42
807,67	1288,17
807,84	1292,27
808,01	1312,75
808,19	1296,36
808,36	1245,16
808,54	1298,41
808,71	1306,60
808,88	1255,40
809,06	1304,56
809,23	1312,75
809,40	1290,22
809,58	1306,60
809,75	1273,84
809,92	1292,27
810,10	1265,64
810,27	1257,45
810,44	1341,42
810,62	1312,75
810,79	1327,08
810,96	1216,49
811,14	1284,08
811,31	1228,78
811,48	1251,31
811,66	1255,40
811,83	1232,88
812,00	1191,92
812,18	1363,95
812,35	1263,60
812,52	1296,36
812,69	1288,17
812,87	1290,22
813,04	1341,42
813,21	1306,60
813,39	1275,88
813,56	1335,28
813,73	1269,74
813,91	1271,79
814,08	1210,35
814,25	1257,45
814,42	1230,83
814,60	1271,79
814,77	1314,80
814,94	1308,65
815,12	1222,64
815,29	1273,84
815,46	1269,74
815,63	1241,07
815,81	1267,69
815,98	1282,03
816,15	1261,55
816,33	1218,54
816,50	1290,22
816,67	1232,88
816,84	1224,69
817,02	1228,78
817,19	1282,03
817,36	1263,60
817,53	1243,12
817,71	1243,12
817,88	1302,51
818,05	1290,22
818,22	1343,47
818,40	1296,36
818,57	1241,07
818,74	1179,63
818,91	1322,99
819,09	1284,08
819,26	1232,88
819,43	1265,64
819,60	1306,60
819,78	1191,92
819,95	1339,37
820,12	1245,16
820,29	1187,82
820,47	1263,60
820,64	1331,18
820,81	1247,21
820,98	1292,27
821,15	1251,31
821,33	1290,22
821,50	1296,36
821,67	1292,27
821,84	1302,51
822,02	1224,69
822,19	1302,51
822,36	1259,50
822,53	1284,08
822,70	1355,76
822,88	1261,55
823,05	1277,93
823,22	1245,16
823,39	1318,89
823,56	1228,78
823,74	1265,64
823,91	1232,88
824,08	1298,41
824,25	1300,46
824,42	1275,88
824,60	1224,69
824,77	1329,13
824,94	1204,21
825,11	1230,83
825,28	1286,12
825,45	1277,93
825,63	1331,18
825,80	1282,03
825,97	1290,22
826,14	1263,60
826,31	1298,41
826,48	1290,22
826,66	1363,95
826,83	1257,45
827,00	1329,13
827,17	1253,36
827,34	1275,88
827,51	1325,04
827,69	1234,93
827,86	1263,60
828,03	1290,22
828,20	1273,84
828,37	1253,36
828,54	1273,84
828,71	1185,77
828,89	1239,02
829,06	1308,65
829,23	1267,69
829,40	1212,40
829,57	1333,23
829,74	1236,97
829,91	1273,84
830,09	1271,79
830,26	1232,88
830,43	1267,69
830,60	1284,08
830,77	1271,79
830,94	1290,22
831,11	1308,65
831,28	1269,74
831,46	1273,84
831,63	1286,12
831,80	1269,74
831,97	1245,16
832,14	1220,59
832,31	1239,02
832,48	1339,37
832,65	1331,18
832,82	1322,99
832,99	1288,17
833,17	1232,88
833,34	1308,65
833,51	1255,40
833,68	1273,84
833,85	1277,93
834,02	1267,69
834,19	1175,53
834,36	1292,27
834,53	1226,73
834,70	1267,69
834,87	1275,88
835,04	1304,56
835,22	1234,93
835,39	1327,08
835,56	1259,50
835,73	1269,74
835,90	1216,49
836,07	1310,70
836,24	1337,32
836,41	1298,41
836,58	1304,56
836,75	1232,88
836,92	1259,50
837,09	1290,22
837,26	1335,28
837,43	1277,93
837,60	1277,93
837,77	1282,03
837,94	1304,56
838,12	1282,03
838,29	1312,75
838,46	1275,88
838,63	1271,79
838,80	1290,22
838,97	1320,94
839,14	1306,60
839,31	1265,64
839,48	1255,40
839,65	1261,55
839,82	1255,40
839,99	1304,56
840,16	1331,18
840,33	1314,80
840,50	1251,31
840,67	1253,36
840,84	1249,26
841,01	1298,41
841,18	1335,28
841,35	1216,49
841,52	1249,26
841,69	1243,12
841,86	1279,98
842,03	1292,27
842,20	1284,08
842,37	1296,36
842,54	1236,97
842,71	1355,76
842,88	1290,22
843,05	1224,69
843,22	1316,84
843,39	1290,22
843,56	1222,64
843,73	1298,41
843,90	1292,27
844,07	1255,40
844,24	1226,73
844,41	1263,60
844,58	1165,29
844,75	1290,22
844,92	1193,97
845,09	1257,45
845,26	1224,69
845,43	1310,70
845,60	1222,64
845,77	1249,26
845,94	1294,32
846,10	1204,21
846,27	1259,50
846,44	1296,36
846,61	1308,65
846,78	1224,69
846,95	1267,69
847,12	1314,80
847,29	1279,98
847,46	1306,60
847,63	1257,45
847,80	1269,74
847,97	1277,93
848,14	1298,41
848,31	1239,02
848,48	1345,52
848,65	1298,41
848,82	1220,59
848,98	1298,41
849,15	1241,07
849,32	1337,32
849,49	1284,08
849,66	1275,88
849,83	1296,36
850,00	1265,64
850,17	1255,40
850,34	1296,36
850,51	1284,08
850,68	1282,03
850,85	1222,64
851,01	1275,88
851,18	1282,03
851,35	1318,89
851,52	1361,90
851,69	1247,21
851,86	1314,80
852,03	1257,45
852,20	1273,84
852,37	1296,36
852,53	1196,01
852,70	1314,80
852,87	1236,97
853,04	1288,17
853,21	1343,47
853,38	1216,49
853,55	1294,32
853,72	1279,98
853,89	1253,36
854,05	1294,32
854,22	1236,97
854,39	1198,06
854,56	1249,26
854,73	1243,12
854,90	1261,55
855,07	1234,93
855,23	1220,59
855,40	1294,32
855,57	1247,21
855,74	1284,08
855,91	1374,19
856,08	1257,45
856,25	1298,41
856,41	1294,32
856,58	1271,79
856,75	1273,84
856,92	1245,16
857,09	1308,65
857,26	1204,21
857,42	1314,80
857,59	1314,80
857,76	1224,69
857,93	1222,64
858,10	1257,45
858,27	1228,78
858,43	1236,97
858,60	1224,69
858,77	1263,60
858,94	1232,88
859,11	1273,84
859,27	1277,93
859,44	1333,23
859,61	1325,04
859,78	1298,41
859,95	1279,98
860,12	1290,22
860,28	1312,75
860,45	1320,94
860,62	1181,68
860,79	1204,21
860,95	1288,17
861,12	1273,84
861,29	1279,98
861,46	1318,89
861,63	1296,36
861,79	1329,13
861,96	1230,83
862,13	1286,12
862,30	1177,58
862,47	1296,36
862,63	1261,55
862,80	1243,12
862,97	1298,41
863,14	1290,22
863,30	1275,88
863,47	1247,21
863,64	1243,12
863,81	1269,74
863,97	1296,36
864,14	1228,78
864,31	1259,50
864,48	1255,40
864,65	1236,97
864,81	1265,64
864,98	1298,41
865,15	1284,08
865,32	1261,55
865,48	1269,74
865,65	1259,50
865,82	1253,36
865,98	1316,84
866,15	1263,60
866,32	1282,03
866,49	1214,45
866,65	1263,60
866,82	1308,65
866,99	1234,93
867,16	1288,17
867,32	1366,00
867,49	1327,08
867,66	1243,12
867,83	1193,97
867,99	1249,26
868,16	1224,69
868,33	1220,59
868,49	1292,27
868,66	1261,55
868,83	1310,70
868,99	1263,60
869,16	1265,64
869,33	1282,03
869,50	1271,79
869,66	1212,40
869,83	1224,69
870,00	1222,64
870,16	1269,74
870,33	1226,73
870,50	1296,36
870,66	1257,45
870,83	1288,17
871,00	1374,19
871,17	1249,26
871,33	1290,22
871,50	1300,46
871,67	1196,01
871,83	1273,84
872,00	1355,76
872,17	1304,56
872,33	1284,08
872,50	1259,50
872,67	1271,79
872,83	1277,93
873,00	1245,16
873,17	1273,84
873,33	1320,94
873,50	1257,45
873,67	1288,17
873,83	1214,45
874,00	1243,12
874,16	1253,36
874,33	1249,26
874,50	1279,98
874,66	1243,12
874,83	1259,50
875,00	1275,88
875,16	1253,36
875,33	1308,65
875,50	1245,16
875,66	1265,64
875,83	1277,93
875,99	1224,69
876,16	1269,74
876,33	1316,84
876,49	1267,69
876,66	1290,22
876,83	1208,30
876,99	1327,08
877,16	1243,12
877,32	1284,08
877,49	1308,65
877,66	1220,59
877,82	1232,88
877,99	1308,65
878,15	1302,51
878,32	1259,50
878,49	1296,36
878,65	1232,88
878,82	1335,28
878,98	1322,99
879,15	1251,31
879,32	1271,79
879,48	1279,98
879,65	1279,98
879,81	1241,07
879,98	1304,56
880,15	1314,80
880,31	1259,50
880,48	1310,70
880,64	1245,16
880,81	1259,50
880,97	1286,12
881,14	1333,23
881,31	1339,37
881,47	1265,64
881,64	1257,45
881,80	1241,07
881,97	1212,40
882,13	1204,21
882,30	1245,16
882,47	1345,52
882,63	1259,50
882,80	1286,12
882,96	1267,69
883,13	1355,76
883,29	1279,98
883,46	1257,45
883,62	1392,62
883,79	1241,07
883,95	1224,69
884,12	1239,02
884,29	1222,64
884,45	1327,08
884,62	1277,93
884,78	1265,64
884,95	1275,88
885,11	1263,60
885,28	1277,93
885,44	1230,83
885,61	1255,40
885,77	1257,45
885,94	1257,45
886,10	1245,16
886,27	1306,60
886,43	1249,26
886,60	1284,08
886,76	1286,12
886,93	1265,64
887,09	1267,69
887,26	1329,13
887,42	1189,87
887,59	1306,60
887,75	1308,65
887,92	1189,87
888,08	1275,88
888,25	1257,45
888,41	1282,03
888,58	1224,69
888,74	1206,25
888,91	1290,22
>>>>>End Processed Spectral Data<<<<<
