SpectraSuite Data File
++++++++++++++++++++++++++++++++++++
Date: Sun Apr 03 19:45:34 CEST 2016
User: root
Dark Spectrum Present: No
Reference Spectrum Present: No
Number of Sampled Component Spectra: 1
Spectrometers: USB4C02835
Integration Time (usec): 10000 (USB4C02835)
Spectra Averaged: 1 (USB4C02835)
Boxcar Smoothing: 0 (USB4C02835)
Correct for Electrical Dark: No (USB4C02835)
Strobe/Lamp Enabled: No (USB4C02835)
Correct for Detector Non-linearity: No (USB4C02835)
Correct for Stray Light: No (USB4C02835)
Number of Pixels in Processed Spectrum: 3648
>>>>>Begin Processed Spectral Data<<<<<
177,47	1245,16
177,69	1245,16
177,91	1245,16
178,13	1269,74
178,36	1267,69
178,58	1322,99
178,80	1241,07
179,02	1269,74
179,24	1273,84
179,46	1253,36
179,68	1241,07
179,90	1302,51
180,13	1306,60
180,35	1302,51
180,57	1234,93
180,79	1318,89
181,01	1275,88
181,23	1288,17
181,45	1273,84
181,67	1247,21
181,90	1257,45
182,12	1236,97
182,34	1226,73
182,56	1290,22
182,78	1335,28
183,00	1306,60
183,22	1298,41
183,44	1265,64
183,66	1304,56
183,89	1236,97
184,11	1245,16
184,33	1249,26
184,55	1212,40
184,77	1296,36
184,99	1243,12
185,21	1226,73
185,43	1294,32
185,65	1251,31
185,87	1224,69
186,10	1273,84
186,32	1290,22
186,54	1261,55
186,76	1259,50
186,98	1316,84
187,20	1269,74
187,42	1263,60
187,64	1279,98
187,86	1208,30
188,08	1269,74
188,30	1245,16
188,52	1232,88
188,75	1257,45
188,97	1269,74
189,19	1249,26
189,41	1337,32
189,63	1243,12
189,85	1226,73
190,07	1298,41
190,29	1255,40
190,51	1218,54
190,73	1275,88
190,95	1177,58
191,17	1257,45
191,39	1251,31
191,61	1214,45
191,84	1241,07
192,06	1296,36
192,28	1286,12
192,50	1296,36
192,72	1150,96
192,94	1218,54
193,16	1302,51
193,38	1224,69
193,60	1298,41
193,82	1236,97
194,04	1277,93
194,26	1269,74
194,48	1236,97
194,70	1265,64
194,92	1318,89
195,14	1243,12
195,36	1282,03
195,58	1255,40
195,80	1300,46
196,02	1288,17
196,24	1312,75
196,46	1318,89
196,69	1290,22
196,91	1279,98
197,13	1279,98
197,35	1202,16
197,57	1257,45
197,79	1255,40
198,01	1241,07
198,23	1255,40
198,45	1255,40
198,67	1234,93
198,89	1245,16
199,11	1306,60
199,33	1249,26
199,55	1273,84
199,77	1327,08
199,99	1296,36
200,21	1255,40
200,43	1277,93
200,65	1363,95
200,87	1294,32
201,09	1275,88
201,31	1306,60
201,53	1306,60
201,75	1273,84
201,97	1251,31
202,19	1253,36
202,41	1179,63
202,63	1206,25
202,85	1222,64
203,07	1288,17
203,29	1255,40
203,51	1271,79
203,73	1230,83
203,95	1282,03
204,17	1263,60
204,39	1288,17
204,61	1292,27
204,83	1279,98
205,05	1286,12
205,27	1312,75
205,49	1249,26
205,71	1284,08
205,93	1214,45
206,15	1275,88
206,37	1271,79
206,59	1296,36
206,81	1275,88
207,03	1296,36
207,25	1224,69
207,47	1290,22
207,69	1202,16
207,91	1267,69
208,13	1288,17
208,34	1345,52
208,56	1251,31
208,78	1288,17
209,00	1234,93
209,22	1339,37
209,44	1312,75
209,66	1296,36
209,88	1239,02
210,10	1243,12
210,32	1261,55
210,54	1228,78
210,76	1236,97
210,98	1259,50
211,20	1236,97
211,42	1265,64
211,64	1251,31
211,86	1249,26
212,08	1249,26
212,30	1198,06
212,52	1234,93
212,74	1247,21
212,96	1257,45
213,17	1300,46
213,39	1265,64
213,61	1191,92
213,83	1259,50
214,05	1241,07
214,27	1376,24
214,49	1314,80
214,71	1247,21
214,93	1331,18
215,15	1236,97
215,37	1296,36
215,59	1214,45
215,81	1273,84
216,03	1329,13
216,24	1234,93
216,46	1245,16
216,68	1288,17
216,90	1234,93
217,12	1185,77
217,34	1308,65
217,56	1277,93
217,78	1349,61
218,00	1257,45
218,22	1310,70
218,44	1214,45
218,66	1243,12
218,87	1230,83
219,09	1265,64
219,31	1296,36
219,53	1333,23
219,75	1294,32
219,97	1288,17
220,19	1284,08
220,41	1286,12
220,63	1255,40
220,85	1331,18
221,06	1249,26
221,28	1290,22
221,50	1275,88
221,72	1269,74
221,94	1263,60
222,16	1259,50
222,38	1239,02
222,60	1322,99
222,82	1275,88
223,03	1312,75
223,25	1216,49
223,47	1263,60
223,69	1230,83
223,91	1284,08
224,13	1228,78
224,35	1206,25
224,57	1265,64
224,78	1263,60
225,00	1284,08
225,22	1329,13
225,44	1198,06
225,66	1206,25
225,88	1216,49
226,10	1273,84
226,32	1271,79
226,53	1275,88
226,75	1273,84
226,97	1261,55
227,19	1279,98
227,41	1327,08
227,63	1228,78
227,85	1234,93
228,06	1294,32
228,28	1312,75
228,50	1249,26
228,72	1226,73
228,94	1249,26
229,16	1267,69
229,37	1251,31
229,59	1216,49
229,81	1265,64
230,03	1245,16
230,25	1198,06
230,47	1288,17
230,69	1224,69
230,90	1224,69
231,12	1208,30
231,34	1175,53
231,56	1265,64
231,78	1200,11
232,00	1245,16
232,21	1306,60
232,43	1277,93
232,65	1253,36
232,87	1288,17
233,09	1249,26
233,30	1282,03
233,52	1339,37
233,74	1282,03
233,96	1245,16
234,18	1234,93
234,40	1310,70
234,61	1382,38
234,83	1337,32
235,05	1251,31
235,27	1300,46
235,49	1230,83
235,70	1292,27
235,92	1224,69
236,14	1265,64
236,36	1265,64
236,58	1234,93
236,79	1206,25
237,01	1333,23
237,23	1173,49
237,45	1230,83
237,67	1245,16
237,88	1253,36
238,10	1214,45
238,32	1255,40
238,54	1273,84
238,76	1257,45
238,97	1232,88
239,19	1312,75
239,41	1257,45
239,63	1261,55
239,85	1273,84
240,06	1269,74
240,28	1220,59
240,50	1196,01
240,72	1298,41
240,93	1282,03
241,15	1226,73
241,37	1255,40
241,59	1191,92
241,81	1251,31
242,02	1273,84
242,24	1224,69
242,46	1304,56
242,68	1247,21
242,89	1314,80
243,11	1245,16
243,33	1247,21
243,55	1273,84
243,76	1322,99
243,98	1251,31
244,20	1255,40
244,42	1196,01
244,64	1384,43
244,85	1220,59
245,07	1267,69
245,29	1284,08
245,51	1269,74
245,72	1265,64
245,94	1277,93
246,16	1196,01
246,38	1304,56
246,59	1224,69
246,81	1282,03
247,03	1228,78
247,24	1196,01
247,46	1216,49
247,68	1314,80
247,90	1251,31
248,11	1322,99
248,33	1230,83
248,55	1212,40
248,77	1241,07
248,98	1247,21
249,20	1290,22
249,42	1263,60
249,64	1265,64
249,85	1202,16
250,07	1290,22
250,29	1304,56
250,50	1239,02
250,72	1304,56
250,94	1265,64
251,16	1277,93
251,37	1347,56
251,59	1298,41
251,81	1218,54
252,02	1318,89
252,24	1302,51
252,46	1232,88
252,68	1263,60
252,89	1310,70
253,11	1298,41
253,33	1265,64
253,54	1220,59
253,76	1296,36
253,98	1306,60
254,20	1300,46
254,41	1265,64
254,63	1226,73
254,85	1257,45
255,06	1251,31
255,28	1206,25
255,50	1216,49
255,71	1204,21
255,93	1189,87
256,15	1243,12
256,36	1286,12
256,58	1243,12
256,80	1288,17
257,02	1314,80
257,23	1175,53
257,45	1304,56
257,67	1236,97
257,88	1245,16
258,10	1312,75
258,32	1257,45
258,53	1234,93
258,75	1232,88
258,97	1275,88
259,18	1284,08
259,40	1249,26
259,62	1249,26
259,83	1222,64
260,05	1236,97
260,27	1331,18
260,48	1271,79
260,70	1257,45
260,92	1271,79
261,13	1247,21
261,35	1218,54
261,57	1257,45
261,78	1300,46
262,00	1239,02
262,22	1241,07
262,43	1241,07
262,65	1292,27
262,86	1304,56
263,08	1296,36
263,30	1306,60
263,51	1294,32
263,73	1322,99
263,95	1304,56
264,16	1322,99
264,38	1239,02
264,60	1306,60
264,81	1236,97
265,03	1329,13
265,25	1300,46
265,46	1263,60
265,68	1214,45
265,89	1284,08
266,11	1284,08
266,33	1290,22
266,54	1286,12
266,76	1273,84
266,98	1269,74
267,19	1236,97
267,41	1267,69
267,62	1261,55
267,84	1216,49
268,06	1204,21
268,27	1271,79
268,49	1331,18
268,70	1210,35
268,92	1279,98
269,14	1247,21
269,35	1290,22
269,57	1275,88
269,79	1208,30
270,00	1230,83
270,22	1306,60
270,43	1279,98
270,65	1275,88
270,87	1222,64
271,08	1282,03
271,30	1261,55
271,51	1327,08
271,73	1302,51
271,95	1347,56
272,16	1271,79
272,38	1279,98
272,59	1208,30
272,81	1269,74
273,02	1273,84
273,24	1331,18
273,46	1316,84
273,67	1249,26
273,89	1228,78
274,10	1327,08
274,32	1230,83
274,54	1216,49
274,75	1230,83
274,97	1284,08
275,18	1267,69
275,40	1214,45
275,61	1314,80
275,83	1230,83
276,05	1247,21
276,26	1230,83
276,48	1161,20
276,69	1222,64
276,91	1234,93
277,12	1282,03
277,34	1249,26
277,55	1308,65
277,77	1243,12
277,99	1271,79
278,20	1245,16
278,42	1249,26
278,63	1314,80
278,85	1292,27
279,06	1296,36
279,28	1185,77
279,49	1269,74
279,71	1257,45
279,93	1210,35
280,14	1273,84
280,36	1331,18
280,57	1271,79
280,79	1282,03
281,00	1290,22
281,22	1322,99
281,43	1241,07
281,65	1232,88
281,86	1265,64
282,08	1292,27
282,29	1255,40
282,51	1247,21
282,73	1265,64
282,94	1290,22
283,16	1275,88
283,37	1204,21
283,59	1257,45
283,80	1279,98
284,02	1245,16
284,23	1220,59
284,45	1271,79
284,66	1288,17
284,88	1275,88
285,09	1228,78
285,31	1306,60
285,52	1271,79
285,74	1333,23
285,95	1253,36
286,17	1232,88
286,38	1226,73
286,60	1257,45
286,81	1222,64
287,03	1232,88
287,24	1298,41
287,46	1228,78
287,67	1228,78
287,89	1241,07
288,10	1255,40
288,32	1193,97
288,53	1263,60
288,75	1236,97
288,96	1232,88
289,18	1271,79
289,39	1261,55
289,61	1339,37
289,82	1204,21
290,04	1241,07
290,25	1224,69
290,47	1269,74
290,68	1300,46
290,90	1236,97
291,11	1306,60
291,33	1273,84
291,54	1259,50
291,76	1312,75
291,97	1284,08
292,18	1191,92
292,40	1284,08
292,61	1204,21
292,83	1294,32
293,04	1267,69
293,26	1173,49
293,47	1282,03
293,69	1191,92
293,90	1286,12
294,12	1226,73
294,33	1279,98
294,55	1222,64
294,76	1271,79
294,97	1218,54
295,19	1220,59
295,40	1261,55
295,62	1208,30
295,83	1296,36
296,05	1210,35
296,26	1343,47
296,48	1257,45
296,69	1337,32
296,90	1267,69
297,12	1259,50
297,33	1208,30
297,55	1284,08
297,76	1333,23
297,98	1220,59
298,19	1325,04
298,41	1286,12
298,62	1257,45
298,83	1228,78
299,05	1243,12
299,26	1290,22
299,48	1310,70
299,69	1253,36
299,90	1179,63
300,12	1261,55
300,33	1284,08
300,55	1261,55
300,76	1220,59
300,98	1308,65
301,19	1351,66
301,40	1279,98
301,62	1288,17
301,83	1257,45
302,05	1263,60
302,26	1271,79
302,47	1331,18
302,69	1298,41
302,90	1239,02
303,12	1327,08
303,33	1296,36
303,54	1288,17
303,76	1253,36
303,97	1275,88
304,19	1339,37
304,40	1236,97
304,61	1306,60
304,83	1314,80
305,04	1298,41
305,26	1308,65
305,47	1232,88
305,68	1271,79
305,90	1279,98
306,11	1273,84
306,33	1290,22
306,54	1253,36
306,75	1232,88
306,97	1304,56
307,18	1204,21
307,39	1269,74
307,61	1304,56
307,82	1255,40
308,04	1245,16
308,25	1196,01
308,46	1189,87
308,68	1232,88
308,89	1253,36
309,10	1296,36
309,32	1269,74
309,53	1298,41
309,74	1271,79
309,96	1267,69
310,17	1304,56
310,39	1286,12
310,60	1302,51
310,81	1265,64
311,03	1337,32
311,24	1302,51
311,45	1245,16
311,67	1259,50
311,88	1234,93
312,09	1347,56
312,31	1251,31
312,52	1294,32
312,73	1206,25
312,95	1302,51
313,16	1226,73
313,37	1257,45
313,59	1300,46
313,80	1282,03
314,01	1177,58
314,23	1261,55
314,44	1290,22
314,65	1308,65
314,87	1273,84
315,08	1277,93
315,29	1247,21
315,51	1277,93
315,72	1288,17
315,93	1294,32
316,15	1357,80
316,36	1292,27
316,57	1142,77
316,79	1320,94
317,00	1306,60
317,21	1271,79
317,43	1302,51
317,64	1224,69
317,85	1173,49
318,07	1294,32
318,28	1327,08
318,49	1318,89
318,70	1306,60
318,92	1290,22
319,13	1214,45
319,34	1306,60
319,56	1234,93
319,77	1265,64
319,98	1349,61
320,20	1298,41
320,41	1288,17
320,62	1288,17
320,83	1241,07
321,05	1292,27
321,26	1265,64
321,47	1206,25
321,69	1236,97
321,90	1269,74
322,11	1259,50
322,32	1243,12
322,54	1243,12
322,75	1261,55
322,96	1267,69
323,18	1277,93
323,39	1232,88
323,60	1208,30
323,81	1292,27
324,03	1249,26
324,24	1279,98
324,45	1298,41
324,66	1294,32
324,88	1214,45
325,09	1282,03
325,30	1306,60
325,52	1314,80
325,73	1284,08
325,94	1312,75
326,15	1232,88
326,37	1257,45
326,58	1234,93
326,79	1228,78
327,00	1294,32
327,22	1232,88
327,43	1284,08
327,64	1257,45
327,85	1263,60
328,07	1273,84
328,28	1312,75
328,49	1214,45
328,70	1218,54
328,92	1320,94
329,13	1224,69
329,34	1261,55
329,55	1224,69
329,76	1243,12
329,98	1232,88
330,19	1200,11
330,40	1320,94
330,61	1339,37
330,83	1228,78
331,04	1304,56
331,25	1325,04
331,46	1226,73
331,68	1243,12
331,89	1327,08
332,10	1241,07
332,31	1210,35
332,52	1161,20
332,74	1320,94
332,95	1298,41
333,16	1239,02
333,37	1245,16
333,58	1193,97
333,80	1320,94
334,01	1198,06
334,22	1265,64
334,43	1191,92
334,64	1267,69
334,86	1290,22
335,07	1292,27
335,28	1269,74
335,49	1273,84
335,70	1247,21
335,92	1234,93
336,13	1253,36
336,34	1196,01
336,55	1273,84
336,76	1234,93
336,98	1263,60
337,19	1271,79
337,40	1269,74
337,61	1243,12
337,82	1253,36
338,04	1300,46
338,25	1204,21
338,46	1239,02
338,67	1284,08
338,88	1210,35
339,09	1214,45
339,31	1296,36
339,52	1288,17
339,73	1259,50
339,94	1318,89
340,15	1333,23
340,36	1232,88
340,58	1257,45
340,79	1271,79
341,00	1239,02
341,21	1255,40
341,42	1204,21
341,63	1232,88
341,85	1296,36
342,06	1327,08
342,27	1224,69
342,48	1279,98
342,69	1273,84
342,90	1232,88
343,12	1304,56
343,33	1288,17
343,54	1271,79
343,75	1331,18
343,96	1236,97
344,17	1275,88
344,38	1259,50
344,60	1245,16
344,81	1220,59
345,02	1167,34
345,23	1296,36
345,44	1204,21
345,65	1279,98
345,86	1331,18
346,07	1220,59
346,29	1279,98
346,50	1241,07
346,71	1247,21
346,92	1282,03
347,13	1257,45
347,34	1214,45
347,55	1279,98
347,76	1249,26
347,98	1279,98
348,19	1191,92
348,40	1296,36
348,61	1218,54
348,82	1265,64
349,03	1239,02
349,24	1253,36
349,45	1261,55
349,66	1196,01
349,88	1257,45
350,09	1320,94
350,30	1253,36
350,51	1298,41
350,72	1224,69
350,93	1253,36
351,14	1265,64
351,35	1265,64
351,56	1191,92
351,77	1316,84
351,99	1306,60
352,20	1257,45
352,41	1200,11
352,62	1275,88
352,83	1230,83
353,04	1241,07
353,25	1282,03
353,46	1208,30
353,67	1308,65
353,88	1253,36
354,09	1234,93
354,30	1245,16
354,52	1331,18
354,73	1183,73
354,94	1300,46
355,15	1335,28
355,36	1236,97
355,57	1341,42
355,78	1302,51
355,99	1298,41
356,20	1239,02
356,41	1273,84
356,62	1196,01
356,83	1263,60
357,04	1279,98
357,25	1286,12
357,46	1265,64
357,68	1198,06
357,89	1232,88
358,10	1249,26
358,31	1322,99
358,52	1288,17
358,73	1257,45
358,94	1226,73
359,15	1241,07
359,36	1175,53
359,57	1267,69
359,78	1255,40
359,99	1228,78
360,20	1290,22
360,41	1220,59
360,62	1210,35
360,83	1222,64
361,04	1251,31
361,25	1273,84
361,46	1294,32
361,67	1265,64
361,88	1265,64
362,09	1275,88
362,30	1304,56
362,51	1253,36
362,72	1277,93
362,93	1314,80
363,14	1259,50
363,35	1255,40
363,56	1314,80
363,78	1261,55
363,99	1282,03
364,20	1296,36
364,41	1232,88
364,62	1366,00
364,83	1275,88
365,04	1185,77
365,25	1239,02
365,46	1259,50
365,67	1314,80
365,88	1267,69
366,09	1339,37
366,30	1318,89
366,51	1267,69
366,72	1300,46
366,93	1331,18
367,14	1251,31
367,35	1275,88
367,56	1271,79
367,77	1234,93
367,98	1306,60
368,18	1277,93
368,39	1236,97
368,60	1282,03
368,81	1224,69
369,02	1284,08
369,23	1331,18
369,44	1273,84
369,65	1214,45
369,86	1271,79
370,07	1269,74
370,28	1253,36
370,49	1230,83
370,70	1296,36
370,91	1212,40
371,12	1236,97
371,33	1292,27
371,54	1296,36
371,75	1220,59
371,96	1232,88
372,17	1253,36
372,38	1261,55
372,59	1304,56
372,80	1286,12
373,01	1279,98
373,22	1277,93
373,43	1269,74
373,64	1292,27
373,85	1308,65
374,06	1275,88
374,26	1288,17
374,47	1290,22
374,68	1220,59
374,89	1232,88
375,10	1263,60
375,31	1226,73
375,52	1279,98
375,73	1247,21
375,94	1216,49
376,15	1230,83
376,36	1279,98
376,57	1218,54
376,78	1206,25
376,99	1247,21
377,20	1271,79
377,40	1222,64
377,61	1220,59
377,82	1271,79
378,03	1263,60
378,24	1243,12
378,45	1294,32
378,66	1245,16
378,87	1249,26
379,08	1279,98
379,29	1267,69
379,50	1275,88
379,71	1302,51
379,91	1275,88
380,12	1288,17
380,33	1298,41
380,54	1284,08
380,75	1337,32
380,96	1257,45
381,17	1232,88
381,38	1267,69
381,59	1310,70
381,80	1277,93
382,00	1277,93
382,21	1204,21
382,42	1214,45
382,63	1269,74
382,84	1257,45
383,05	1279,98
383,26	1316,84
383,47	1234,93
383,68	1300,46
383,88	1253,36
384,09	1259,50
384,30	1216,49
384,51	1288,17
384,72	1232,88
384,93	1269,74
385,14	1277,93
385,35	1245,16
385,55	1261,55
385,76	1251,31
385,97	1253,36
386,18	1282,03
386,39	1257,45
386,60	1236,97
386,81	1239,02
387,02	1230,83
387,22	1245,16
387,43	1300,46
387,64	1279,98
387,85	1255,40
388,06	1241,07
388,27	1286,12
388,48	1286,12
388,68	1267,69
388,89	1245,16
389,10	1232,88
389,31	1232,88
389,52	1308,65
389,73	1302,51
389,93	1191,92
390,14	1341,42
390,35	1306,60
390,56	1257,45
390,77	1261,55
390,98	1236,97
391,18	1193,97
391,39	1322,99
391,60	1222,64
391,81	1198,06
392,02	1298,41
392,23	1220,59
392,43	1284,08
392,64	1302,51
392,85	1212,40
393,06	1228,78
393,27	1249,26
393,47	1224,69
393,68	1249,26
393,89	1310,70
394,10	1308,65
394,31	1337,32
394,52	1241,07
394,72	1273,84
394,93	1230,83
395,14	1245,16
395,35	1253,36
395,56	1284,08
395,76	1255,40
395,97	1228,78
396,18	1271,79
396,39	1265,64
396,60	1232,88
396,80	1284,08
397,01	1241,07
397,22	1271,79
397,43	1150,96
397,64	1241,07
397,84	1236,97
398,05	1304,56
398,26	1292,27
398,47	1269,74
398,67	1273,84
398,88	1310,70
399,09	1284,08
399,30	1286,12
399,51	1247,21
399,71	1284,08
399,92	1239,02
400,13	1165,29
400,34	1284,08
400,54	1269,74
400,75	1349,61
400,96	1263,60
401,17	1413,10
401,37	1261,55
401,58	1353,71
401,79	1239,02
402,00	1286,12
402,21	1236,97
402,41	1282,03
402,62	1300,46
402,83	1267,69
403,04	1282,03
403,24	1243,12
403,45	1269,74
403,66	1292,27
403,87	1316,84
404,07	1341,42
404,28	1196,01
404,49	1249,26
404,70	1257,45
404,90	1257,45
405,11	1322,99
405,32	1251,31
405,52	1269,74
405,73	1320,94
405,94	1306,60
406,15	1263,60
406,35	1275,88
406,56	1222,64
406,77	1202,16
406,98	1249,26
407,18	1232,88
407,39	1322,99
407,60	1255,40
407,80	1273,84
408,01	1284,08
408,22	1247,21
408,43	1267,69
408,63	1236,97
408,84	1241,07
409,05	1271,79
409,25	1269,74
409,46	1259,50
409,67	1259,50
409,88	1335,28
410,08	1241,07
410,29	1226,73
410,50	1273,84
410,70	1261,55
410,91	1322,99
411,12	1241,07
411,32	1294,32
411,53	1320,94
411,74	1306,60
411,95	1261,55
412,15	1279,98
412,36	1296,36
412,57	1232,88
412,77	1343,47
412,98	1216,49
413,19	1183,73
413,39	1247,21
413,60	1249,26
413,81	1327,08
414,01	1257,45
414,22	1337,32
414,43	1216,49
414,63	1277,93
414,84	1206,25
415,05	1228,78
415,25	1204,21
415,46	1191,92
415,67	1267,69
415,87	1341,42
416,08	1245,16
416,29	1306,60
416,49	1249,26
416,70	1175,53
416,91	1282,03
417,11	1267,69
417,32	1351,66
417,53	1214,45
417,73	1208,30
417,94	1212,40
418,15	1224,69
418,35	1271,79
418,56	1271,79
418,77	1388,52
418,97	1212,40
419,18	1249,26
419,38	1241,07
419,59	1294,32
419,80	1314,80
420,00	1249,26
420,21	1279,98
420,42	1241,07
420,62	1267,69
420,83	1273,84
421,04	1202,16
421,24	1282,03
421,45	1224,69
421,65	1191,92
421,86	1230,83
422,07	1263,60
422,27	1355,76
422,48	1282,03
422,69	1255,40
422,89	1269,74
423,10	1239,02
423,30	1284,08
423,51	1329,13
423,72	1263,60
423,92	1265,64
424,13	1204,21
424,33	1243,12
424,54	1333,23
424,75	1304,56
424,95	1290,22
425,16	1271,79
425,36	1230,83
425,57	1241,07
425,78	1288,17
425,98	1343,47
426,19	1325,04
426,39	1308,65
426,60	1304,56
426,81	1298,41
427,01	1245,16
427,22	1263,60
427,42	1292,27
427,63	1253,36
427,83	1267,69
428,04	1241,07
428,25	1261,55
428,45	1288,17
428,66	1275,88
428,86	1228,78
429,07	1261,55
429,28	1249,26
429,48	1310,70
429,69	1304,56
429,89	1249,26
430,10	1269,74
430,30	1239,02
430,51	1300,46
430,71	1216,49
430,92	1290,22
431,13	1277,93
431,33	1245,16
431,54	1343,47
431,74	1290,22
431,95	1288,17
432,15	1261,55
432,36	1259,50
432,56	1306,60
432,77	1234,93
432,98	1263,60
433,18	1234,93
433,39	1257,45
433,59	1267,69
433,80	1282,03
434,00	1310,70
434,21	1316,84
434,41	1290,22
434,62	1288,17
434,82	1234,93
435,03	1236,97
435,23	1304,56
435,44	1312,75
435,64	1212,40
435,85	1234,93
436,06	1253,36
436,26	1294,32
436,47	1179,63
436,67	1314,80
436,88	1259,50
437,08	1345,52
437,29	1263,60
437,49	1284,08
437,70	1214,45
437,90	1300,46
438,11	1196,01
438,31	1290,22
438,52	1292,27
438,72	1241,07
438,93	1243,12
439,13	1279,98
439,34	1273,84
439,54	1296,36
439,75	1314,80
439,95	1210,35
440,16	1212,40
440,36	1351,66
440,57	1222,64
440,77	1279,98
440,98	1320,94
441,18	1273,84
441,39	1247,21
441,59	1220,59
441,80	1179,63
442,00	1224,69
442,21	1245,16
442,41	1261,55
442,62	1282,03
442,82	1304,56
443,02	1296,36
443,23	1208,30
443,43	1259,50
443,64	1236,97
443,84	1255,40
444,05	1181,68
444,25	1279,98
444,46	1247,21
444,66	1286,12
444,87	1370,09
445,07	1296,36
445,28	1222,64
445,48	1314,80
445,69	1277,93
445,89	1294,32
446,09	1316,84
446,30	1331,18
446,50	1241,07
446,71	1339,37
446,91	1220,59
447,12	1269,74
447,32	1269,74
447,53	1271,79
447,73	1257,45
447,93	1296,36
448,14	1236,97
448,34	1267,69
448,55	1294,32
448,75	1273,84
448,96	1247,21
449,16	1179,63
449,36	1275,88
449,57	1193,97
449,77	1343,47
449,98	1255,40
450,18	1263,60
450,39	1376,24
450,59	1306,60
450,79	1241,07
451,00	1290,22
451,20	1288,17
451,41	1234,93
451,61	1286,12
451,81	1259,50
452,02	1269,74
452,22	1220,59
452,43	1298,41
452,63	1257,45
452,84	1175,53
453,04	1329,13
453,24	1282,03
453,45	1298,41
453,65	1302,51
453,86	1337,32
454,06	1245,16
454,26	1306,60
454,47	1239,02
454,67	1292,27
454,87	1265,64
455,08	1212,40
455,28	1169,39
455,49	1288,17
455,69	1339,37
455,89	1257,45
456,10	1249,26
456,30	1249,26
456,51	1204,21
456,71	1294,32
456,91	1251,31
457,12	1271,79
457,32	1290,22
457,52	1288,17
457,73	1267,69
457,93	1320,94
458,14	1296,36
458,34	1304,56
458,54	1228,78
458,75	1261,55
458,95	1189,87
459,15	1304,56
459,36	1302,51
459,56	1224,69
459,76	1261,55
459,97	1241,07
460,17	1288,17
460,37	1251,31
460,58	1265,64
460,78	1331,18
460,99	1228,78
461,19	1327,08
461,39	1290,22
461,60	1265,64
461,80	1245,16
462,00	1263,60
462,21	1302,51
462,41	1187,82
462,61	1253,36
462,82	1316,84
463,02	1325,04
463,22	1236,97
463,43	1282,03
463,63	1247,21
463,83	1241,07
464,04	1294,32
464,24	1247,21
464,44	1210,35
464,64	1241,07
464,85	1259,50
465,05	1239,02
465,25	1269,74
465,46	1220,59
465,66	1241,07
465,86	1290,22
466,07	1265,64
466,27	1253,36
466,47	1241,07
466,68	1226,73
466,88	1296,36
467,08	1210,35
467,29	1263,60
467,49	1251,31
467,69	1193,97
467,89	1265,64
468,10	1236,97
468,30	1333,23
468,50	1310,70
468,71	1243,12
468,91	1255,40
469,11	1269,74
469,31	1320,94
469,52	1257,45
469,72	1275,88
469,92	1245,16
470,13	1236,97
470,33	1300,46
470,53	1325,04
470,73	1302,51
470,94	1320,94
471,14	1322,99
471,34	1251,31
471,54	1239,02
471,75	1296,36
471,95	1228,78
472,15	1300,46
472,36	1245,16
472,56	1241,07
472,76	1279,98
472,96	1193,97
473,17	1196,01
473,37	1294,32
473,57	1271,79
473,77	1210,35
473,98	1277,93
474,18	1312,75
474,38	1273,84
474,58	1286,12
474,79	1337,32
474,99	1267,69
475,19	1286,12
475,39	1228,78
475,60	1292,27
475,80	1277,93
476,00	1296,36
476,20	1259,50
476,41	1253,36
476,61	1273,84
476,81	1257,45
477,01	1202,16
477,21	1308,65
477,42	1249,26
477,62	1282,03
477,82	1310,70
478,02	1228,78
478,23	1359,85
478,43	1245,16
478,63	1353,71
478,83	1322,99
479,03	1296,36
479,24	1218,54
479,44	1257,45
479,64	1267,69
479,84	1327,08
480,04	1204,21
480,25	1243,12
480,45	1286,12
480,65	1277,93
480,85	1329,13
481,06	1220,59
481,26	1241,07
481,46	1312,75
481,66	1265,64
481,86	1267,69
482,06	1290,22
482,27	1202,16
482,47	1261,55
482,67	1228,78
482,87	1224,69
483,07	1236,97
483,28	1275,88
483,48	1210,35
483,68	1279,98
483,88	1241,07
484,08	1249,26
484,29	1251,31
484,49	1306,60
484,69	1275,88
484,89	1282,03
485,09	1196,01
485,29	1263,60
485,50	1292,27
485,70	1204,21
485,90	1265,64
486,10	1193,97
486,30	1279,98
486,50	1239,02
486,71	1277,93
486,91	1257,45
487,11	1370,09
487,31	1216,49
487,51	1325,04
487,71	1226,73
487,91	1310,70
488,12	1304,56
488,32	1318,89
488,52	1273,84
488,72	1275,88
488,92	1247,21
489,12	1224,69
489,32	1220,59
489,53	1216,49
489,73	1232,88
489,93	1257,45
490,13	1241,07
490,33	1339,37
490,53	1239,02
490,73	1318,89
490,94	1216,49
491,14	1282,03
491,34	1273,84
491,54	1230,83
491,74	1243,12
491,94	1200,11
492,14	1320,94
492,34	1267,69
492,54	1232,88
492,75	1236,97
492,95	1243,12
493,15	1322,99
493,35	1247,21
493,55	1355,76
493,75	1216,49
493,95	1259,50
494,15	1177,58
494,35	1261,55
494,56	1245,16
494,76	1198,06
494,96	1263,60
495,16	1279,98
495,36	1224,69
495,56	1300,46
495,76	1234,93
495,96	1257,45
496,16	1290,22
496,36	1200,11
496,56	1257,45
496,77	1300,46
496,97	1202,16
497,17	1255,40
497,37	1216,49
497,57	1288,17
497,77	1286,12
497,97	1212,40
498,17	1212,40
498,37	1314,80
498,57	1228,78
498,77	1230,83
498,97	1241,07
499,17	1292,27
499,38	1314,80
499,58	1288,17
499,78	1263,60
499,98	1290,22
500,18	1273,84
500,38	1241,07
500,58	1239,02
500,78	1269,74
500,98	1243,12
501,18	1282,03
501,38	1259,50
501,58	1322,99
501,78	1300,46
501,98	1290,22
502,18	1271,79
502,38	1261,55
502,58	1265,64
502,78	1337,32
502,98	1275,88
503,18	1312,75
503,38	1339,37
503,59	1282,03
503,79	1210,35
503,99	1275,88
504,19	1306,60
504,39	1277,93
504,59	1214,45
504,79	1296,36
504,99	1343,47
505,19	1277,93
505,39	1245,16
505,59	1271,79
505,79	1290,22
505,99	1288,17
506,19	1241,07
506,39	1298,41
506,59	1343,47
506,79	1265,64
506,99	1282,03
507,19	1261,55
507,39	1290,22
507,59	1249,26
507,79	1314,80
507,99	1206,25
508,19	1286,12
508,39	1318,89
508,59	1214,45
508,79	1251,31
508,99	1345,52
509,19	1255,40
509,39	1259,50
509,59	1255,40
509,79	1290,22
509,99	1320,94
510,19	1284,08
510,39	1372,14
510,59	1269,74
510,79	1241,07
510,99	1255,40
511,19	1296,36
511,39	1251,31
511,59	1220,59
511,79	1249,26
511,99	1296,36
512,19	1261,55
512,38	1347,56
512,58	1271,79
512,78	1269,74
512,98	1249,26
513,18	1320,94
513,38	1245,16
513,58	1187,82
513,78	1282,03
513,98	1296,36
514,18	1290,22
514,38	1337,32
514,58	1269,74
514,78	1290,22
514,98	1294,32
515,18	1239,02
515,38	1230,83
515,58	1251,31
515,78	1290,22
515,98	1222,64
516,18	1322,99
516,38	1273,84
516,57	1257,45
516,77	1310,70
516,97	1232,88
517,17	1249,26
517,37	1251,31
517,57	1282,03
517,77	1241,07
517,97	1243,12
518,17	1239,02
518,37	1308,65
518,57	1232,88
518,77	1234,93
518,97	1294,32
519,16	1298,41
519,36	1337,32
519,56	1200,11
519,76	1273,84
519,96	1318,89
520,16	1247,21
520,36	1312,75
520,56	1325,04
520,76	1308,65
520,96	1257,45
521,16	1271,79
521,35	1257,45
521,55	1298,41
521,75	1279,98
521,95	1331,18
522,15	1263,60
522,35	1288,17
522,55	1298,41
522,75	1300,46
522,95	1310,70
523,14	1316,84
523,34	1277,93
523,54	1224,69
523,74	1300,46
523,94	1265,64
524,14	1185,77
524,34	1239,02
524,54	1284,08
524,73	1269,74
524,93	1222,64
525,13	1314,80
525,33	1234,93
525,53	1273,84
525,73	1294,32
525,93	1339,37
526,13	1284,08
526,32	1312,75
526,52	1230,83
526,72	1325,04
526,92	1161,20
527,12	1279,98
527,32	1265,64
527,52	1310,70
527,71	1273,84
527,91	1296,36
528,11	1298,41
528,31	1292,27
528,51	1347,56
528,71	1269,74
528,90	1216,49
529,10	1263,60
529,30	1312,75
529,50	1196,01
529,70	1226,73
529,90	1245,16
530,09	1314,80
530,29	1234,93
530,49	1241,07
530,69	1296,36
530,89	1275,88
531,09	1255,40
531,28	1228,78
531,48	1206,25
531,68	1230,83
531,88	1279,98
532,08	1179,63
532,28	1296,36
532,47	1236,97
532,67	1249,26
532,87	1239,02
533,07	1216,49
533,27	1243,12
533,46	1255,40
533,66	1372,14
533,86	1241,07
534,06	1220,59
534,26	1251,31
534,45	1236,97
534,65	1284,08
534,85	1249,26
535,05	1230,83
535,25	1206,25
535,44	1243,12
535,64	1374,19
535,84	1273,84
536,04	1275,88
536,24	1265,64
536,43	1320,94
536,63	1284,08
536,83	1169,39
537,03	1271,79
537,22	1212,40
537,42	1331,18
537,62	1290,22
537,82	1318,89
538,02	1302,51
538,21	1249,26
538,41	1263,60
538,61	1304,56
538,81	1265,64
539,00	1267,69
539,20	1224,69
539,40	1286,12
539,60	1265,64
539,79	1298,41
539,99	1318,89
540,19	1314,80
540,39	1279,98
540,58	1292,27
540,78	1204,21
540,98	1247,21
541,18	1282,03
541,37	1316,84
541,57	1282,03
541,77	1241,07
541,97	1222,64
542,16	1298,41
542,36	1267,69
542,56	1329,13
542,76	1239,02
542,95	1325,04
543,15	1308,65
543,35	1222,64
543,54	1222,64
543,74	1265,64
543,94	1267,69
544,14	1236,97
544,33	1296,36
544,53	1218,54
544,73	1273,84
544,93	1181,68
545,12	1318,89
545,32	1204,21
545,52	1267,69
545,71	1261,55
545,91	1298,41
546,11	1300,46
546,30	1257,45
546,50	1257,45
546,70	1290,22
546,90	1322,99
547,09	1267,69
547,29	1300,46
547,49	1308,65
547,68	1228,78
547,88	1216,49
548,08	1212,40
548,27	1308,65
548,47	1230,83
548,67	1298,41
548,87	1302,51
549,06	1310,70
549,26	1249,26
549,46	1261,55
549,65	1292,27
549,85	1206,25
550,05	1210,35
550,24	1257,45
550,44	1204,21
550,64	1200,11
550,83	1241,07
551,03	1251,31
551,23	1249,26
551,42	1193,97
551,62	1298,41
551,82	1286,12
552,01	1269,74
552,21	1306,60
552,41	1245,16
552,60	1275,88
552,80	1241,07
553,00	1279,98
553,19	1296,36
553,39	1224,69
553,59	1247,21
553,78	1241,07
553,98	1206,25
554,17	1294,32
554,37	1210,35
554,57	1204,21
554,76	1202,16
554,96	1286,12
555,16	1241,07
555,35	1212,40
555,55	1236,97
555,75	1255,40
555,94	1327,08
556,14	1298,41
556,33	1275,88
556,53	1212,40
556,73	1220,59
556,92	1302,51
557,12	1298,41
557,32	1345,52
557,51	1259,50
557,71	1200,11
557,90	1273,84
558,10	1310,70
558,30	1232,88
558,49	1253,36
558,69	1292,27
558,88	1286,12
559,08	1290,22
559,28	1212,40
559,47	1286,12
559,67	1279,98
559,86	1322,99
560,06	1206,25
560,26	1273,84
560,45	1273,84
560,65	1347,56
560,84	1224,69
561,04	1308,65
561,24	1275,88
561,43	1187,82
561,63	1261,55
561,82	1257,45
562,02	1320,94
562,22	1241,07
562,41	1347,56
562,61	1337,32
562,80	1267,69
563,00	1298,41
563,19	1300,46
563,39	1228,78
563,59	1286,12
563,78	1271,79
563,98	1193,97
564,17	1335,28
564,37	1284,08
564,56	1329,13
564,76	1294,32
564,96	1247,21
565,15	1255,40
565,35	1277,93
565,54	1263,60
565,74	1279,98
565,93	1228,78
566,13	1296,36
566,32	1263,60
566,52	1290,22
566,71	1200,11
566,91	1310,70
567,11	1206,25
567,30	1279,98
567,50	1306,60
567,69	1329,13
567,89	1269,74
568,08	1273,84
568,28	1284,08
568,47	1247,21
568,67	1269,74
568,86	1232,88
569,06	1230,83
569,25	1251,31
569,45	1275,88
569,64	1318,89
569,84	1218,54
570,04	1255,40
570,23	1302,51
570,43	1306,60
570,62	1228,78
570,82	1290,22
571,01	1255,40
571,21	1187,82
571,40	1275,88
571,60	1298,41
571,79	1296,36
571,99	1271,79
572,18	1224,69
572,38	1277,93
572,57	1204,21
572,77	1267,69
572,96	1343,47
573,16	1286,12
573,35	1304,56
573,55	1265,64
573,74	1269,74
573,94	1189,87
574,13	1220,59
574,33	1245,16
574,52	1226,73
574,71	1239,02
574,91	1314,80
575,10	1226,73
575,30	1302,51
575,49	1249,26
575,69	1290,22
575,88	1239,02
576,08	1243,12
576,27	1275,88
576,47	1208,30
576,66	1261,55
576,86	1247,21
577,05	1312,75
577,25	1234,93
577,44	1247,21
577,64	1298,41
577,83	1279,98
578,02	1263,60
578,22	1292,27
578,41	1279,98
578,61	1302,51
578,80	1220,59
579,00	1267,69
579,19	1257,45
579,39	1239,02
579,58	1337,32
579,77	1171,44
579,97	1298,41
580,16	1128,43
580,36	1277,93
580,55	1253,36
580,75	1306,60
580,94	1247,21
581,13	1277,93
581,33	1304,56
581,52	1243,12
581,72	1255,40
581,91	1241,07
582,11	1294,32
582,30	1222,64
582,49	1253,36
582,69	1236,97
582,88	1243,12
583,08	1251,31
583,27	1247,21
583,47	1304,56
583,66	1216,49
583,85	1298,41
584,05	1239,02
584,24	1314,80
584,44	1216,49
584,63	1320,94
584,82	1325,04
585,02	1259,50
585,21	1294,32
585,41	1247,21
585,60	1230,83
585,79	1273,84
585,99	1290,22
586,18	1249,26
586,37	1298,41
586,57	1224,69
586,76	1249,26
586,96	1210,35
587,15	1214,45
587,34	1300,46
587,54	1288,17
587,73	1271,79
587,93	1261,55
588,12	1359,85
588,31	1210,35
588,51	1214,45
588,70	1359,85
588,89	1333,23
589,09	1284,08
589,28	1314,80
589,47	1243,12
589,67	1308,65
589,86	1288,17
590,06	1265,64
590,25	1290,22
590,44	1310,70
590,64	1191,92
590,83	1267,69
591,02	1322,99
591,22	1259,50
591,41	1243,12
591,60	1279,98
591,80	1322,99
591,99	1249,26
592,18	1230,83
592,38	1349,61
592,57	1257,45
592,76	1288,17
592,96	1320,94
593,15	1212,40
593,34	1273,84
593,54	1288,17
593,73	1214,45
593,92	1196,01
594,12	1241,07
594,31	1288,17
594,50	1267,69
594,70	1247,21
594,89	1204,21
595,08	1212,40
595,28	1241,07
595,47	1245,16
595,66	1222,64
595,86	1294,32
596,05	1314,80
596,24	1253,36
596,43	1253,36
596,63	1290,22
596,82	1255,40
597,01	1257,45
597,21	1265,64
597,40	1230,83
597,59	1296,36
597,79	1212,40
597,98	1259,50
598,17	1255,40
598,36	1286,12
598,56	1273,84
598,75	1251,31
598,94	1271,79
599,14	1361,90
599,33	1202,16
599,52	1284,08
599,71	1224,69
599,91	1341,42
600,10	1241,07
600,29	1286,12
600,48	1284,08
600,68	1239,02
600,87	1220,59
601,06	1257,45
601,26	1245,16
601,45	1277,93
601,64	1306,60
601,83	1247,21
602,03	1230,83
602,22	1236,97
602,41	1288,17
602,60	1316,84
602,80	1296,36
602,99	1273,84
603,18	1351,66
603,37	1300,46
603,57	1243,12
603,76	1214,45
603,95	1245,16
604,14	1216,49
604,34	1189,87
604,53	1357,80
604,72	1265,64
604,91	1273,84
605,10	1167,34
605,30	1296,36
605,49	1286,12
605,68	1320,94
605,87	1316,84
606,07	1249,26
606,26	1247,21
606,45	1265,64
606,64	1243,12
606,84	1261,55
607,03	1247,21
607,22	1271,79
607,41	1292,27
607,60	1204,21
607,80	1339,37
607,99	1232,88
608,18	1269,74
608,37	1249,26
608,56	1261,55
608,76	1300,46
608,95	1279,98
609,14	1245,16
609,33	1173,49
609,52	1245,16
609,72	1267,69
609,91	1208,30
610,10	1241,07
610,29	1243,12
610,48	1228,78
610,68	1302,51
610,87	1269,74
611,06	1290,22
611,25	1265,64
611,44	1251,31
611,63	1290,22
611,83	1249,26
612,02	1230,83
612,21	1234,93
612,40	1322,99
612,59	1325,04
612,79	1222,64
612,98	1314,80
613,17	1341,42
613,36	1255,40
613,55	1200,11
613,74	1271,79
613,93	1298,41
614,13	1304,56
614,32	1275,88
614,51	1171,44
614,70	1245,16
614,89	1292,27
615,08	1224,69
615,28	1329,13
615,47	1316,84
615,66	1345,52
615,85	1234,93
616,04	1204,21
616,23	1282,03
616,42	1288,17
616,62	1312,75
616,81	1239,02
617,00	1253,36
617,19	1257,45
617,38	1245,16
617,57	1269,74
617,76	1327,08
617,95	1265,64
618,15	1286,12
618,34	1300,46
618,53	1345,52
618,72	1351,66
618,91	1306,60
619,10	1263,60
619,29	1376,24
619,48	1273,84
619,68	1216,49
619,87	1347,56
620,06	1302,51
620,25	1329,13
620,44	1279,98
620,63	1273,84
620,82	1273,84
621,01	1327,08
621,20	1216,49
621,39	1216,49
621,59	1239,02
621,78	1222,64
621,97	1286,12
622,16	1273,84
622,35	1286,12
622,54	1349,61
622,73	1257,45
622,92	1222,64
623,11	1239,02
623,30	1290,22
623,49	1263,60
623,68	1243,12
623,88	1279,98
624,07	1267,69
624,26	1247,21
624,45	1298,41
624,64	1298,41
624,83	1253,36
625,02	1245,16
625,21	1329,13
625,40	1206,25
625,59	1306,60
625,78	1329,13
625,97	1314,80
626,16	1302,51
626,35	1298,41
626,54	1296,36
626,74	1304,56
626,93	1216,49
627,12	1224,69
627,31	1261,55
627,50	1298,41
627,69	1288,17
627,88	1329,13
628,07	1265,64
628,26	1216,49
628,45	1247,21
628,64	1320,94
628,83	1265,64
629,02	1216,49
629,21	1279,98
629,40	1263,60
629,59	1349,61
629,78	1294,32
629,97	1308,65
630,16	1273,84
630,35	1259,50
630,54	1247,21
630,73	1241,07
630,92	1327,08
631,11	1327,08
631,30	1349,61
631,49	1296,36
631,68	1316,84
631,87	1486,83
632,06	1746,92
632,25	1566,70
632,44	1654,76
632,63	1796,07
632,82	1941,47
633,01	2027,49
633,20	2101,22
633,39	2172,89
633,58	1943,52
633,77	1888,23
633,96	2002,91
634,15	2230,24
634,34	2306,01
634,53	2123,74
634,72	2080,74
634,91	1787,88
635,10	1669,09
635,29	1634,28
635,48	1527,78
635,67	1505,26
635,86	1415,15
636,05	1429,48
636,24	1353,71
636,43	1341,42
636,62	1310,70
636,81	1310,70
637,00	1298,41
637,19	1331,18
637,38	1318,89
637,57	1353,71
637,76	1325,04
637,95	1341,42
638,14	1333,23
638,33	1312,75
638,52	1294,32
638,71	1277,93
638,89	1277,93
639,08	1251,31
639,27	1308,65
639,46	1259,50
639,65	1263,60
639,84	1292,27
640,03	1282,03
640,22	1220,59
640,41	1218,54
640,60	1284,08
640,79	1325,04
640,98	1204,21
641,17	1239,02
641,36	1214,45
641,55	1282,03
641,74	1265,64
641,92	1302,51
642,11	1273,84
642,30	1296,36
642,49	1249,26
642,68	1232,88
642,87	1191,92
643,06	1257,45
643,25	1286,12
643,44	1271,79
643,63	1257,45
643,82	1273,84
644,00	1298,41
644,19	1302,51
644,38	1257,45
644,57	1296,36
644,76	1277,93
644,95	1249,26
645,14	1292,27
645,33	1265,64
645,52	1247,21
645,71	1241,07
645,89	1359,85
646,08	1249,26
646,27	1228,78
646,46	1302,51
646,65	1286,12
646,84	1298,41
647,03	1196,01
647,22	1284,08
647,40	1271,79
647,59	1269,74
647,78	1282,03
647,97	1193,97
648,16	1245,16
648,35	1214,45
648,54	1296,36
648,73	1284,08
648,91	1261,55
649,10	1333,23
649,29	1243,12
649,48	1284,08
649,67	1288,17
649,86	1286,12
650,05	1210,35
650,23	1327,08
650,42	1243,12
650,61	1306,60
650,80	1210,35
650,99	1257,45
651,18	1294,32
651,36	1286,12
651,55	1310,70
651,74	1300,46
651,93	1322,99
652,12	1320,94
652,31	1234,93
652,49	1279,98
652,68	1218,54
652,87	1277,93
653,06	1273,84
653,25	1222,64
653,44	1259,50
653,62	1257,45
653,81	1304,56
654,00	1261,55
654,19	1300,46
654,38	1261,55
654,56	1261,55
654,75	1253,36
654,94	1239,02
655,13	1247,21
655,32	1241,07
655,51	1286,12
655,69	1245,16
655,88	1288,17
656,07	1296,36
656,26	1249,26
656,45	1228,78
656,63	1320,94
656,82	1245,16
657,01	1300,46
657,20	1196,01
657,38	1372,14
657,57	1202,16
657,76	1181,68
657,95	1294,32
658,14	1304,56
658,32	1308,65
658,51	1286,12
658,70	1265,64
658,89	1253,36
659,08	1216,49
659,26	1277,93
659,45	1212,40
659,64	1292,27
659,83	1271,79
660,01	1249,26
660,20	1300,46
660,39	1304,56
660,58	1327,08
660,76	1284,08
660,95	1302,51
661,14	1271,79
661,33	1218,54
661,51	1239,02
661,70	1212,40
661,89	1249,26
662,08	1228,78
662,26	1239,02
662,45	1220,59
662,64	1247,21
662,83	1224,69
663,01	1273,84
663,20	1286,12
663,39	1247,21
663,58	1263,60
663,76	1314,80
663,95	1265,64
664,14	1288,17
664,32	1236,97
664,51	1265,64
664,70	1269,74
664,89	1269,74
665,07	1185,77
665,26	1208,30
665,45	1284,08
665,64	1290,22
665,82	1216,49
666,01	1220,59
666,20	1275,88
666,38	1234,93
666,57	1206,25
666,76	1222,64
666,95	1257,45
667,13	1251,31
667,32	1345,52
667,51	1339,37
667,69	1263,60
667,88	1189,87
668,07	1296,36
668,25	1282,03
668,44	1314,80
668,63	1288,17
668,81	1310,70
669,00	1284,08
669,19	1269,74
669,38	1282,03
669,56	1214,45
669,75	1314,80
669,94	1310,70
670,12	1249,26
670,31	1265,64
670,50	1300,46
670,68	1273,84
670,87	1298,41
671,06	1241,07
671,24	1325,04
671,43	1220,59
671,62	1255,40
671,80	1269,74
671,99	1245,16
672,18	1275,88
672,36	1257,45
672,55	1251,31
672,74	1294,32
672,92	1267,69
673,11	1230,83
673,29	1294,32
673,48	1290,22
673,67	1241,07
673,85	1273,84
674,04	1257,45
674,23	1228,78
674,41	1331,18
674,60	1232,88
674,79	1290,22
674,97	1265,64
675,16	1261,55
675,34	1275,88
675,53	1234,93
675,72	1251,31
675,90	1181,68
676,09	1327,08
676,28	1322,99
676,46	1220,59
676,65	1247,21
676,83	1251,31
677,02	1300,46
677,21	1269,74
677,39	1288,17
677,58	1263,60
677,77	1202,16
677,95	1335,28
678,14	1325,04
678,32	1228,78
678,51	1243,12
678,70	1257,45
678,88	1185,77
679,07	1290,22
679,25	1253,36
679,44	1247,21
679,63	1341,42
679,81	1284,08
680,00	1189,87
680,18	1298,41
680,37	1253,36
680,55	1222,64
680,74	1220,59
680,93	1271,79
681,11	1312,75
681,30	1271,79
681,48	1273,84
681,67	1212,40
681,85	1357,80
682,04	1333,23
682,23	1318,89
682,41	1288,17
682,60	1257,45
682,78	1322,99
682,97	1255,40
683,15	1212,40
683,34	1202,16
683,53	1247,21
683,71	1284,08
683,90	1355,76
684,08	1300,46
684,27	1228,78
684,45	1306,60
684,64	1316,84
684,82	1247,21
685,01	1234,93
685,19	1171,44
685,38	1249,26
685,57	1337,32
685,75	1253,36
685,94	1282,03
686,12	1253,36
686,31	1228,78
686,49	1245,16
686,68	1261,55
686,86	1296,36
687,05	1314,80
687,23	1288,17
687,42	1208,30
687,60	1298,41
687,79	1230,83
687,97	1310,70
688,16	1288,17
688,34	1277,93
688,53	1279,98
688,71	1337,32
688,90	1191,92
689,08	1331,18
689,27	1302,51
689,45	1300,46
689,64	1271,79
689,82	1292,27
690,01	1249,26
690,19	1263,60
690,38	1284,08
690,56	1277,93
690,75	1210,35
690,93	1241,07
691,12	1327,08
691,30	1269,74
691,49	1263,60
691,67	1257,45
691,86	1263,60
692,04	1298,41
692,23	1196,01
692,41	1322,99
692,60	1302,51
692,78	1308,65
692,97	1234,93
693,15	1255,40
693,34	1245,16
693,52	1271,79
693,71	1232,88
693,89	1337,32
694,08	1253,36
694,26	1286,12
694,44	1275,88
694,63	1251,31
694,81	1251,31
695,00	1302,51
695,18	1261,55
695,37	1222,64
695,55	1230,83
695,74	1263,60
695,92	1306,60
696,10	1363,95
696,29	1308,65
696,47	1322,99
696,66	1208,30
696,84	1245,16
697,03	1247,21
697,21	1257,45
697,40	1404,91
697,58	1316,84
697,76	1255,40
697,95	1232,88
698,13	1181,68
698,32	1224,69
698,50	1251,31
698,68	1294,32
698,87	1214,45
699,05	1374,19
699,24	1261,55
699,42	1288,17
699,61	1216,49
699,79	1243,12
699,97	1318,89
700,16	1314,80
700,34	1212,40
700,53	1294,32
700,71	1249,26
700,89	1298,41
701,08	1290,22
701,26	1216,49
701,45	1327,08
701,63	1261,55
701,81	1279,98
702,00	1202,16
702,18	1322,99
702,37	1228,78
702,55	1275,88
702,73	1273,84
702,92	1247,21
703,10	1224,69
703,28	1279,98
703,47	1234,93
703,65	1306,60
703,84	1271,79
704,02	1230,83
704,20	1327,08
704,39	1316,84
704,57	1247,21
704,75	1302,51
704,94	1259,50
705,12	1239,02
705,30	1222,64
705,49	1259,50
705,67	1243,12
705,86	1249,26
706,04	1220,59
706,22	1245,16
706,41	1337,32
706,59	1282,03
706,77	1216,49
706,96	1292,27
707,14	1312,75
707,32	1226,73
707,51	1261,55
707,69	1249,26
707,87	1298,41
708,06	1253,36
708,24	1228,78
708,42	1214,45
708,61	1228,78
708,79	1222,64
708,97	1296,36
709,16	1279,98
709,34	1181,68
709,52	1257,45
709,71	1288,17
709,89	1302,51
710,07	1241,07
710,26	1239,02
710,44	1259,50
710,62	1263,60
710,80	1269,74
710,99	1267,69
711,17	1279,98
711,35	1257,45
711,54	1316,84
711,72	1165,29
711,90	1265,64
712,09	1245,16
712,27	1206,25
712,45	1247,21
712,63	1216,49
712,82	1241,07
713,00	1163,25
713,18	1271,79
713,37	1251,31
713,55	1294,32
713,73	1251,31
713,91	1290,22
714,10	1320,94
714,28	1224,69
714,46	1259,50
714,65	1290,22
714,83	1243,12
715,01	1226,73
715,19	1279,98
715,38	1245,16
715,56	1273,84
715,74	1265,64
715,92	1288,17
716,11	1308,65
716,29	1212,40
716,47	1300,46
716,65	1294,32
716,84	1290,22
717,02	1286,12
717,20	1267,69
717,38	1189,87
717,57	1169,39
717,75	1181,68
717,93	1257,45
718,11	1279,98
718,30	1267,69
718,48	1277,93
718,66	1310,70
718,84	1232,88
719,03	1304,56
719,21	1253,36
719,39	1265,64
719,57	1279,98
719,75	1286,12
719,94	1288,17
720,12	1241,07
720,30	1312,75
720,48	1294,32
720,67	1275,88
720,85	1269,74
721,03	1341,42
721,21	1271,79
721,39	1394,67
721,58	1275,88
721,76	1269,74
721,94	1320,94
722,12	1298,41
722,30	1230,83
722,49	1255,40
722,67	1322,99
722,85	1271,79
723,03	1263,60
723,21	1259,50
723,40	1294,32
723,58	1261,55
723,76	1232,88
723,94	1251,31
724,12	1277,93
724,30	1302,51
724,49	1302,51
724,67	1236,97
724,85	1245,16
725,03	1273,84
725,21	1286,12
725,40	1312,75
725,58	1243,12
725,76	1232,88
725,94	1294,32
726,12	1343,47
726,30	1228,78
726,49	1273,84
726,67	1245,16
726,85	1282,03
727,03	1222,64
727,21	1243,12
727,39	1251,31
727,57	1263,60
727,76	1251,31
727,94	1314,80
728,12	1179,63
728,30	1286,12
728,48	1220,59
728,66	1200,11
728,84	1279,98
729,03	1277,93
729,21	1271,79
729,39	1290,22
729,57	1314,80
729,75	1275,88
729,93	1243,12
730,11	1255,40
730,30	1288,17
730,48	1232,88
730,66	1347,56
730,84	1282,03
731,02	1275,88
731,20	1286,12
731,38	1239,02
731,56	1261,55
731,74	1204,21
731,93	1267,69
732,11	1255,40
732,29	1261,55
732,47	1218,54
732,65	1310,70
732,83	1271,79
733,01	1271,79
733,19	1318,89
733,37	1218,54
733,56	1312,75
733,74	1257,45
733,92	1253,36
734,10	1259,50
734,28	1261,55
734,46	1249,26
734,64	1251,31
734,82	1279,98
735,00	1159,15
735,18	1277,93
735,36	1155,05
735,54	1236,97
735,73	1290,22
735,91	1241,07
736,09	1320,94
736,27	1325,04
736,45	1378,28
736,63	1249,26
736,81	1230,83
736,99	1198,06
737,17	1220,59
737,35	1241,07
737,53	1261,55
737,71	1253,36
737,89	1279,98
738,07	1243,12
738,25	1247,21
738,43	1230,83
738,61	1265,64
738,80	1243,12
738,98	1257,45
739,16	1273,84
739,34	1257,45
739,52	1216,49
739,70	1245,16
739,88	1294,32
740,06	1251,31
740,24	1230,83
740,42	1306,60
740,60	1298,41
740,78	1216,49
740,96	1294,32
741,14	1198,06
741,32	1312,75
741,50	1290,22
741,68	1292,27
741,86	1300,46
742,04	1304,56
742,22	1327,08
742,40	1261,55
742,58	1265,64
742,76	1181,68
742,94	1302,51
743,12	1263,60
743,30	1310,70
743,48	1257,45
743,66	1255,40
743,84	1282,03
744,02	1257,45
744,20	1306,60
744,38	1273,84
744,56	1259,50
744,74	1224,69
744,92	1255,40
745,10	1279,98
745,28	1353,71
745,46	1296,36
745,64	1232,88
745,82	1241,07
746,00	1263,60
746,18	1277,93
746,36	1300,46
746,54	1253,36
746,72	1193,97
746,90	1312,75
747,08	1343,47
747,26	1220,59
747,44	1249,26
747,62	1200,11
747,80	1206,25
747,98	1255,40
748,15	1257,45
748,33	1259,50
748,51	1226,73
748,69	1206,25
748,87	1245,16
749,05	1245,16
749,23	1255,40
749,41	1286,12
749,59	1241,07
749,77	1277,93
749,95	1204,21
750,13	1316,84
750,31	1265,64
750,49	1259,50
750,67	1269,74
750,85	1181,68
751,03	1290,22
751,20	1251,31
751,38	1359,85
751,56	1241,07
751,74	1247,21
751,92	1275,88
752,10	1277,93
752,28	1300,46
752,46	1220,59
752,64	1255,40
752,82	1257,45
753,00	1282,03
753,18	1212,40
753,35	1288,17
753,53	1218,54
753,71	1271,79
753,89	1288,17
754,07	1294,32
754,25	1255,40
754,43	1230,83
754,61	1245,16
754,79	1288,17
754,97	1282,03
755,14	1261,55
755,32	1277,93
755,50	1253,36
755,68	1341,42
755,86	1294,32
756,04	1279,98
756,22	1267,69
756,40	1273,84
756,57	1261,55
756,75	1255,40
756,93	1290,22
757,11	1269,74
757,29	1277,93
757,47	1245,16
757,65	1259,50
757,82	1288,17
758,00	1249,26
758,18	1230,83
758,36	1267,69
758,54	1267,69
758,72	1173,49
758,90	1277,93
759,07	1236,97
759,25	1286,12
759,43	1294,32
759,61	1335,28
759,79	1273,84
759,97	1241,07
760,15	1257,45
760,32	1263,60
760,50	1339,37
760,68	1232,88
760,86	1273,84
761,04	1243,12
761,22	1265,64
761,39	1306,60
761,57	1228,78
761,75	1271,79
761,93	1275,88
762,11	1253,36
762,28	1351,66
762,46	1214,45
762,64	1191,92
762,82	1312,75
763,00	1255,40
763,18	1239,02
763,35	1279,98
763,53	1294,32
763,71	1232,88
763,89	1327,08
764,07	1257,45
764,24	1255,40
764,42	1224,69
764,60	1261,55
764,78	1288,17
764,96	1241,07
765,13	1241,07
765,31	1322,99
765,49	1286,12
765,67	1273,84
765,84	1279,98
766,02	1253,36
766,20	1284,08
766,38	1290,22
766,56	1261,55
766,73	1230,83
766,91	1251,31
767,09	1253,36
767,27	1247,21
767,44	1230,83
767,62	1189,87
767,80	1269,74
767,98	1269,74
768,15	1300,46
768,33	1234,93
768,51	1296,36
768,69	1245,16
768,87	1279,98
769,04	1245,16
769,22	1310,70
769,40	1292,27
769,58	1245,16
769,75	1290,22
769,93	1304,56
770,11	1259,50
770,28	1288,17
770,46	1220,59
770,64	1345,52
770,82	1267,69
770,99	1314,80
771,17	1236,97
771,35	1228,78
771,53	1261,55
771,70	1314,80
771,88	1234,93
772,06	1271,79
772,23	1255,40
772,41	1273,84
772,59	1236,97
772,77	1245,16
772,94	1206,25
773,12	1265,64
773,30	1308,65
773,47	1267,69
773,65	1298,41
773,83	1226,73
774,01	1239,02
774,18	1257,45
774,36	1245,16
774,54	1269,74
774,71	1310,70
774,89	1273,84
775,07	1296,36
775,24	1318,89
775,42	1271,79
775,60	1355,76
775,78	1277,93
775,95	1273,84
776,13	1269,74
776,31	1263,60
776,48	1271,79
776,66	1353,71
776,84	1222,64
777,01	1249,26
777,19	1251,31
777,37	1236,97
777,54	1249,26
777,72	1224,69
777,90	1222,64
778,07	1300,46
778,25	1325,04
778,43	1224,69
778,60	1284,08
778,78	1310,70
778,96	1222,64
779,13	1214,45
779,31	1316,84
779,49	1224,69
779,66	1267,69
779,84	1249,26
780,01	1230,83
780,19	1253,36
780,37	1249,26
780,54	1196,01
780,72	1239,02
780,90	1269,74
781,07	1230,83
781,25	1267,69
781,43	1279,98
781,60	1226,73
781,78	1263,60
781,95	1226,73
782,13	1245,16
782,31	1308,65
782,48	1245,16
782,66	1271,79
782,83	1257,45
783,01	1300,46
783,19	1312,75
783,36	1243,12
783,54	1198,06
783,72	1282,03
783,89	1312,75
784,07	1261,55
784,24	1228,78
784,42	1243,12
784,60	1230,83
784,77	1318,89
784,95	1251,31
785,12	1273,84
785,30	1316,84
785,47	1337,32
785,65	1282,03
785,83	1224,69
786,00	1267,69
786,18	1226,73
786,35	1228,78
786,53	1232,88
786,71	1279,98
786,88	1224,69
787,06	1282,03
787,23	1288,17
787,41	1353,71
787,58	1224,69
787,76	1239,02
787,94	1257,45
788,11	1245,16
788,29	1241,07
788,46	1255,40
788,64	1216,49
788,81	1341,42
788,99	1273,84
789,16	1251,31
789,34	1265,64
789,52	1241,07
789,69	1206,25
789,87	1261,55
790,04	1214,45
790,22	1247,21
790,39	1245,16
790,57	1249,26
790,74	1316,84
790,92	1251,31
791,09	1216,49
791,27	1212,40
791,44	1286,12
791,62	1230,83
791,79	1202,16
791,97	1228,78
792,15	1284,08
792,32	1239,02
792,50	1253,36
792,67	1228,78
792,85	1302,51
793,02	1232,88
793,20	1306,60
793,37	1226,73
793,55	1279,98
793,72	1218,54
793,90	1263,60
794,07	1265,64
794,25	1228,78
794,42	1208,30
794,60	1259,50
794,77	1279,98
794,95	1308,65
795,12	1232,88
795,30	1261,55
795,47	1288,17
795,65	1251,31
795,82	1310,70
796,00	1275,88
796,17	1259,50
796,34	1216,49
796,52	1273,84
796,69	1255,40
796,87	1193,97
797,04	1316,84
797,22	1224,69
797,39	1286,12
797,57	1314,80
797,74	1265,64
797,92	1327,08
798,09	1318,89
798,27	1257,45
798,44	1214,45
798,62	1267,69
798,79	1261,55
798,96	1234,93
799,14	1314,80
799,31	1296,36
799,49	1181,68
799,66	1302,51
799,84	1257,45
800,01	1228,78
800,19	1286,12
800,36	1234,93
800,53	1210,35
800,71	1282,03
800,88	1337,32
801,06	1232,88
801,23	1304,56
801,41	1230,83
801,58	1314,80
801,75	1261,55
801,93	1286,12
802,10	1241,07
802,28	1226,73
802,45	1255,40
802,63	1245,16
802,80	1255,40
802,97	1191,92
803,15	1249,26
803,32	1308,65
803,50	1247,21
803,67	1234,93
803,84	1224,69
804,02	1271,79
804,19	1271,79
804,37	1312,75
804,54	1282,03
804,71	1288,17
804,89	1296,36
805,06	1306,60
805,24	1259,50
805,41	1212,40
805,58	1304,56
805,76	1308,65
805,93	1251,31
806,10	1243,12
806,28	1263,60
806,45	1226,73
806,63	1236,97
806,80	1288,17
806,97	1277,93
807,15	1259,50
807,32	1271,79
807,49	1355,76
807,67	1247,21
807,84	1265,64
808,01	1277,93
808,19	1226,73
808,36	1216,49
808,54	1294,32
808,71	1249,26
808,88	1298,41
809,06	1279,98
809,23	1263,60
809,40	1245,16
809,58	1263,60
809,75	1288,17
809,92	1355,76
810,10	1236,97
810,27	1230,83
810,44	1314,80
810,62	1345,52
810,79	1279,98
810,96	1222,64
811,14	1261,55
811,31	1226,73
811,48	1267,69
811,66	1251,31
811,83	1249,26
812,00	1269,74
812,18	1243,12
812,35	1218,54
812,52	1267,69
812,69	1249,26
812,87	1226,73
813,04	1234,93
813,21	1241,07
813,39	1214,45
813,56	1312,75
813,73	1255,40
813,91	1218,54
814,08	1232,88
814,25	1257,45
814,42	1298,41
814,60	1173,49
814,77	1243,12
814,94	1259,50
815,12	1267,69
815,29	1302,51
815,46	1294,32
815,63	1251,31
815,81	1247,21
815,98	1253,36
816,15	1288,17
816,33	1265,64
816,50	1183,73
816,67	1253,36
816,84	1282,03
817,02	1247,21
817,19	1265,64
817,36	1312,75
817,53	1259,50
817,71	1306,60
817,88	1292,27
818,05	1245,16
818,22	1249,26
818,40	1218,54
818,57	1232,88
818,74	1290,22
818,91	1316,84
819,09	1247,21
819,26	1214,45
819,43	1294,32
819,60	1282,03
819,78	1294,32
819,95	1292,27
820,12	1251,31
820,29	1308,65
820,47	1298,41
820,64	1279,98
820,81	1249,26
820,98	1179,63
821,15	1234,93
821,33	1232,88
821,50	1222,64
821,67	1294,32
821,84	1279,98
822,02	1339,37
822,19	1208,30
822,36	1257,45
822,53	1239,02
822,70	1277,93
822,88	1253,36
823,05	1320,94
823,22	1228,78
823,39	1269,74
823,56	1320,94
823,74	1255,40
823,91	1265,64
824,08	1202,16
824,25	1202,16
824,42	1279,98
824,60	1230,83
824,77	1284,08
824,94	1279,98
825,11	1290,22
825,28	1275,88
825,45	1269,74
825,63	1263,60
825,80	1263,60
825,97	1310,70
826,14	1226,73
826,31	1320,94
826,48	1363,95
826,66	1249,26
826,83	1224,69
827,00	1253,36
827,17	1308,65
827,34	1284,08
827,51	1310,70
827,69	1322,99
827,86	1232,88
828,03	1302,51
828,20	1339,37
828,37	1263,60
828,54	1296,36
828,71	1208,30
828,89	1228,78
829,06	1259,50
829,23	1322,99
829,40	1263,60
829,57	1210,35
829,74	1185,77
829,91	1251,31
830,09	1216,49
830,26	1261,55
830,43	1296,36
830,60	1267,69
830,77	1286,12
830,94	1312,75
831,11	1286,12
831,28	1290,22
831,46	1267,69
831,63	1210,35
831,80	1261,55
831,97	1187,82
832,14	1239,02
832,31	1304,56
832,48	1288,17
832,65	1282,03
832,82	1150,96
832,99	1263,60
833,17	1265,64
833,34	1277,93
833,51	1196,01
833,68	1241,07
833,85	1325,04
834,02	1228,78
834,19	1304,56
834,36	1200,11
834,53	1253,36
834,70	1269,74
834,87	1249,26
835,04	1169,39
835,22	1269,74
835,39	1337,32
835,56	1257,45
835,73	1249,26
835,90	1239,02
836,07	1282,03
836,24	1249,26
836,41	1335,28
836,58	1243,12
836,75	1269,74
836,92	1261,55
837,09	1271,79
837,26	1247,21
837,43	1269,74
837,60	1243,12
837,77	1279,98
837,94	1290,22
838,12	1251,31
838,29	1316,84
838,46	1282,03
838,63	1269,74
838,80	1304,56
838,97	1200,11
839,14	1261,55
839,31	1263,60
839,48	1286,12
839,65	1273,84
839,82	1282,03
839,99	1187,82
840,16	1249,26
840,33	1273,84
840,50	1308,65
840,67	1249,26
840,84	1300,46
841,01	1284,08
841,18	1247,21
841,35	1208,30
841,52	1298,41
841,69	1267,69
841,86	1255,40
842,03	1269,74
842,20	1206,25
842,37	1314,80
842,54	1200,11
842,71	1298,41
842,88	1247,21
843,05	1261,55
843,22	1245,16
843,39	1277,93
843,56	1183,73
843,73	1247,21
843,90	1279,98
844,07	1267,69
844,24	1261,55
844,41	1275,88
844,58	1320,94
844,75	1206,25
844,92	1263,60
845,09	1236,97
845,26	1298,41
845,43	1232,88
845,60	1263,60
845,77	1286,12
845,94	1267,69
846,10	1298,41
846,27	1236,97
846,44	1243,12
846,61	1294,32
846,78	1298,41
846,95	1322,99
847,12	1310,70
847,29	1224,69
847,46	1222,64
847,63	1282,03
847,80	1239,02
847,97	1206,25
848,14	1275,88
848,31	1308,65
848,48	1249,26
848,65	1239,02
848,82	1202,16
848,98	1306,60
849,15	1269,74
849,32	1269,74
849,49	1224,69
849,66	1249,26
849,83	1298,41
850,00	1261,55
850,17	1322,99
850,34	1269,74
850,51	1185,77
850,68	1249,26
850,85	1191,92
851,01	1345,52
851,18	1312,75
851,35	1273,84
851,52	1275,88
851,69	1310,70
851,86	1232,88
852,03	1241,07
852,20	1302,51
852,37	1177,58
852,53	1296,36
852,70	1249,26
852,87	1277,93
853,04	1304,56
853,21	1273,84
853,38	1329,13
853,55	1265,64
853,72	1279,98
853,89	1200,11
854,05	1294,32
854,22	1249,26
854,39	1255,40
854,56	1359,85
854,73	1288,17
854,90	1257,45
855,07	1288,17
855,23	1277,93
855,40	1335,28
855,57	1245,16
855,74	1261,55
855,91	1308,65
856,08	1255,40
856,25	1284,08
856,41	1394,67
856,58	1253,36
856,75	1234,93
856,92	1288,17
857,09	1228,78
857,26	1249,26
857,42	1245,16
857,59	1253,36
857,76	1347,56
857,93	1222,64
858,10	1216,49
858,27	1249,26
858,43	1230,83
858,60	1316,84
858,77	1247,21
858,94	1247,21
859,11	1245,16
859,27	1251,31
859,44	1239,02
859,61	1261,55
859,78	1251,31
859,95	1310,70
860,12	1239,02
860,28	1218,54
860,45	1273,84
860,62	1263,60
860,79	1193,97
860,95	1234,93
861,12	1222,64
861,29	1341,42
861,46	1243,12
861,63	1255,40
861,79	1353,71
861,96	1216,49
862,13	1249,26
862,30	1249,26
862,47	1306,60
862,63	1265,64
862,80	1234,93
862,97	1230,83
863,14	1198,06
863,30	1243,12
863,47	1253,36
863,64	1269,74
863,81	1232,88
863,97	1214,45
864,14	1241,07
864,31	1286,12
864,48	1290,22
864,65	1286,12
864,81	1275,88
864,98	1294,32
865,15	1239,02
865,32	1167,34
865,48	1331,18
865,65	1216,49
865,82	1208,30
865,98	1296,36
866,15	1218,54
866,32	1302,51
866,49	1327,08
866,65	1269,74
866,82	1296,36
866,99	1290,22
867,16	1236,97
867,32	1177,58
867,49	1249,26
867,66	1226,73
867,83	1236,97
867,99	1200,11
868,16	1187,82
868,33	1243,12
868,49	1269,74
868,66	1279,98
868,83	1290,22
868,99	1239,02
869,16	1271,79
869,33	1269,74
869,50	1298,41
869,66	1290,22
869,83	1298,41
870,00	1239,02
870,16	1230,83
870,33	1255,40
870,50	1202,16
870,66	1189,87
870,83	1144,81
871,00	1265,64
871,17	1255,40
871,33	1236,97
871,50	1288,17
871,67	1222,64
871,83	1263,60
872,00	1349,61
872,17	1265,64
872,33	1224,69
872,50	1220,59
872,67	1261,55
872,83	1271,79
873,00	1269,74
873,17	1208,30
873,33	1286,12
873,50	1282,03
873,67	1322,99
873,83	1255,40
874,00	1239,02
874,16	1271,79
874,33	1269,74
874,50	1257,45
874,66	1267,69
874,83	1279,98
875,00	1374,19
875,16	1322,99
875,33	1247,21
875,50	1357,80
875,66	1273,84
875,83	1302,51
875,99	1316,84
876,16	1210,35
876,33	1286,12
876,49	1259,50
876,66	1294,32
876,83	1275,88
876,99	1267,69
877,16	1318,89
877,32	1296,36
877,49	1296,36
877,66	1267,69
877,82	1232,88
877,99	1249,26
878,15	1294,32
878,32	1255,40
878,49	1273,84
878,65	1247,21
878,82	1261,55
878,98	1269,74
879,15	1187,82
879,32	1282,03
879,48	1267,69
879,65	1273,84
879,81	1241,07
879,98	1243,12
880,15	1224,69
880,31	1208,30
880,48	1265,64
880,64	1239,02
880,81	1296,36
880,97	1273,84
881,14	1200,11
881,31	1269,74
881,47	1288,17
881,64	1173,49
881,80	1279,98
881,97	1222,64
882,13	1255,40
882,30	1275,88
882,47	1265,64
882,63	1263,60
882,80	1286,12
882,96	1234,93
883,13	1282,03
883,29	1273,84
883,46	1322,99
883,62	1300,46
883,79	1302,51
883,95	1294,32
884,12	1216,49
884,29	1267,69
884,45	1277,93
884,62	1277,93
884,78	1292,27
884,95	1282,03
885,11	1236,97
885,28	1198,06
885,44	1273,84
885,61	1337,32
885,77	1267,69
885,94	1232,88
886,10	1335,28
886,27	1249,26
886,43	1325,04
886,60	1290,22
886,76	1345,52
886,93	1222,64
887,09	1261,55
887,26	1312,75
887,42	1265,64
887,59	1222,64
887,75	1257,45
887,92	1275,88
888,08	1249,26
888,25	1241,07
888,41	1257,45
888,58	1253,36
888,74	1234,93
888,91	1292,27
>>>>>End Processed Spectral Data<<<<<
