SpectraSuite Data File
++++++++++++++++++++++++++++++++++++
Date: Sun Apr 03 17:16:04 CEST 2016
User: root
Dark Spectrum Present: No
Reference Spectrum Present: No
Number of Sampled Component Spectra: 1
Spectrometers: USB4C02835
Integration Time (usec): 10000 (USB4C02835)
Spectra Averaged: 1 (USB4C02835)
Boxcar Smoothing: 0 (USB4C02835)
Correct for Electrical Dark: No (USB4C02835)
Strobe/Lamp Enabled: No (USB4C02835)
Correct for Detector Non-linearity: No (USB4C02835)
Correct for Stray Light: No (USB4C02835)
Number of Pixels in Processed Spectrum: 3648
>>>>>Begin Processed Spectral Data<<<<<
177,47	1294,32
177,69	1294,32
177,91	1294,32
178,13	1218,54
178,36	1247,21
178,58	1228,78
178,80	1224,69
179,02	1261,55
179,24	1187,82
179,46	1241,07
179,68	1198,06
179,90	1236,97
180,13	1290,22
180,35	1288,17
180,57	1275,88
180,79	1327,08
181,01	1226,73
181,23	1288,17
181,45	1181,68
181,67	1239,02
181,90	1298,41
182,12	1279,98
182,34	1337,32
182,56	1271,79
182,78	1302,51
183,00	1255,40
183,22	1314,80
183,44	1251,31
183,66	1363,95
183,89	1282,03
184,11	1257,45
184,33	1261,55
184,55	1282,03
184,77	1282,03
184,99	1218,54
185,21	1259,50
185,43	1234,93
185,65	1288,17
185,87	1257,45
186,10	1277,93
186,32	1273,84
186,54	1243,12
186,76	1263,60
186,98	1249,26
187,20	1263,60
187,42	1290,22
187,64	1314,80
187,86	1320,94
188,08	1286,12
188,30	1318,89
188,52	1322,99
188,75	1259,50
188,97	1306,60
189,19	1241,07
189,41	1282,03
189,63	1249,26
189,85	1271,79
190,07	1232,88
190,29	1247,21
190,51	1271,79
190,73	1269,74
190,95	1234,93
191,17	1273,84
191,39	1212,40
191,61	1271,79
191,84	1279,98
192,06	1216,49
192,28	1308,65
192,50	1331,18
192,72	1232,88
192,94	1271,79
193,16	1347,56
193,38	1251,31
193,60	1247,21
193,82	1310,70
194,04	1279,98
194,26	1349,61
194,48	1329,13
194,70	1212,40
194,92	1226,73
195,14	1257,45
195,36	1200,11
195,58	1335,28
195,80	1279,98
196,02	1257,45
196,24	1228,78
196,46	1249,26
196,69	1249,26
196,91	1306,60
197,13	1286,12
197,35	1325,04
197,57	1284,08
197,79	1251,31
198,01	1331,18
198,23	1257,45
198,45	1245,16
198,67	1333,23
198,89	1224,69
199,11	1273,84
199,33	1286,12
199,55	1275,88
199,77	1251,31
199,99	1220,59
200,21	1263,60
200,43	1286,12
200,65	1380,33
200,87	1277,93
201,09	1341,42
201,31	1253,36
201,53	1224,69
201,75	1327,08
201,97	1333,23
202,19	1261,55
202,41	1279,98
202,63	1257,45
202,85	1204,21
203,07	1208,30
203,29	1253,36
203,51	1339,37
203,73	1292,27
203,95	1273,84
204,17	1263,60
204,39	1316,84
204,61	1298,41
204,83	1275,88
205,05	1265,64
205,27	1261,55
205,49	1202,16
205,71	1304,56
205,93	1232,88
206,15	1341,42
206,37	1306,60
206,59	1284,08
206,81	1247,21
207,03	1255,40
207,25	1267,69
207,47	1243,12
207,69	1222,64
207,91	1353,71
208,13	1255,40
208,34	1294,32
208,56	1239,02
208,78	1249,26
209,00	1329,13
209,22	1267,69
209,44	1290,22
209,66	1314,80
209,88	1245,16
210,10	1318,89
210,32	1257,45
210,54	1251,31
210,76	1253,36
210,98	1247,21
211,20	1282,03
211,42	1220,59
211,64	1220,59
211,86	1279,98
212,08	1288,17
212,30	1316,84
212,52	1267,69
212,74	1249,26
212,96	1196,01
213,17	1286,12
213,39	1259,50
213,61	1259,50
213,83	1312,75
214,05	1304,56
214,27	1261,55
214,49	1263,60
214,71	1300,46
214,93	1247,21
215,15	1247,21
215,37	1255,40
215,59	1226,73
215,81	1232,88
216,03	1241,07
216,24	1275,88
216,46	1222,64
216,68	1320,94
216,90	1288,17
217,12	1265,64
217,34	1239,02
217,56	1380,33
217,78	1339,37
218,00	1298,41
218,22	1290,22
218,44	1310,70
218,66	1316,84
218,87	1249,26
219,09	1294,32
219,31	1286,12
219,53	1257,45
219,75	1241,07
219,97	1212,40
220,19	1288,17
220,41	1257,45
220,63	1327,08
220,85	1304,56
221,06	1290,22
221,28	1247,21
221,50	1331,18
221,72	1327,08
221,94	1198,06
222,16	1216,49
222,38	1288,17
222,60	1226,73
222,82	1275,88
223,03	1298,41
223,25	1271,79
223,47	1290,22
223,69	1359,85
223,91	1236,97
224,13	1284,08
224,35	1243,12
224,57	1220,59
224,78	1296,36
225,00	1259,50
225,22	1304,56
225,44	1271,79
225,66	1245,16
225,88	1226,73
226,10	1251,31
226,32	1243,12
226,53	1300,46
226,75	1249,26
226,97	1269,74
227,19	1347,56
227,41	1245,16
227,63	1255,40
227,85	1269,74
228,06	1232,88
228,28	1165,29
228,50	1302,51
228,72	1298,41
228,94	1282,03
229,16	1275,88
229,37	1239,02
229,59	1333,23
229,81	1318,89
230,03	1232,88
230,25	1261,55
230,47	1236,97
230,69	1269,74
230,90	1253,36
231,12	1286,12
231,34	1288,17
231,56	1247,21
231,78	1269,74
232,00	1265,64
232,21	1263,60
232,43	1255,40
232,65	1374,19
232,87	1200,11
233,09	1247,21
233,30	1294,32
233,52	1271,79
233,74	1322,99
233,96	1243,12
234,18	1290,22
234,40	1284,08
234,61	1257,45
234,83	1284,08
235,05	1212,40
235,27	1294,32
235,49	1271,79
235,70	1269,74
235,92	1189,87
236,14	1241,07
236,36	1257,45
236,58	1196,01
236,79	1292,27
237,01	1298,41
237,23	1327,08
237,45	1214,45
237,67	1263,60
237,88	1333,23
238,10	1230,83
238,32	1345,52
238,54	1320,94
238,76	1306,60
238,97	1257,45
239,19	1210,35
239,41	1286,12
239,63	1253,36
239,85	1273,84
240,06	1216,49
240,28	1366,00
240,50	1271,79
240,72	1249,26
240,93	1333,23
241,15	1218,54
241,37	1245,16
241,59	1282,03
241,81	1247,21
242,02	1232,88
242,24	1230,83
242,46	1263,60
242,68	1265,64
242,89	1220,59
243,11	1239,02
243,33	1265,64
243,55	1257,45
243,76	1273,84
243,98	1222,64
244,20	1314,80
244,42	1259,50
244,64	1239,02
244,85	1320,94
245,07	1206,25
245,29	1269,74
245,51	1337,32
245,72	1257,45
245,94	1259,50
246,16	1284,08
246,38	1288,17
246,59	1261,55
246,81	1271,79
247,03	1267,69
247,24	1243,12
247,46	1345,52
247,68	1269,74
247,90	1253,36
248,11	1288,17
248,33	1267,69
248,55	1298,41
248,77	1245,16
248,98	1255,40
249,20	1243,12
249,42	1349,61
249,64	1322,99
249,85	1230,83
250,07	1249,26
250,29	1298,41
250,50	1273,84
250,72	1185,77
250,94	1241,07
251,16	1216,49
251,37	1245,16
251,59	1257,45
251,81	1257,45
252,02	1241,07
252,24	1222,64
252,46	1306,60
252,68	1273,84
252,89	1288,17
253,11	1304,56
253,33	1343,47
253,54	1224,69
253,76	1314,80
253,98	1239,02
254,20	1304,56
254,41	1279,98
254,63	1292,27
254,85	1265,64
255,06	1241,07
255,28	1232,88
255,50	1249,26
255,71	1271,79
255,93	1318,89
256,15	1308,65
256,36	1304,56
256,58	1269,74
256,80	1347,56
257,02	1249,26
257,23	1247,21
257,45	1179,63
257,67	1355,76
257,88	1251,31
258,10	1208,30
258,32	1288,17
258,53	1279,98
258,75	1236,97
258,97	1304,56
259,18	1241,07
259,40	1206,25
259,62	1345,52
259,83	1265,64
260,05	1298,41
260,27	1339,37
260,48	1232,88
260,70	1245,16
260,92	1329,13
261,13	1198,06
261,35	1265,64
261,57	1314,80
261,78	1302,51
262,00	1277,93
262,22	1216,49
262,43	1304,56
262,65	1251,31
262,86	1304,56
263,08	1259,50
263,30	1265,64
263,51	1298,41
263,73	1173,49
263,95	1218,54
264,16	1247,21
264,38	1257,45
264,60	1193,97
264,81	1273,84
265,03	1196,01
265,25	1345,52
265,46	1241,07
265,68	1228,78
265,89	1232,88
266,11	1249,26
266,33	1292,27
266,54	1290,22
266,76	1292,27
266,98	1279,98
267,19	1214,45
267,41	1300,46
267,62	1286,12
267,84	1298,41
268,06	1312,75
268,27	1245,16
268,49	1296,36
268,70	1286,12
268,92	1230,83
269,14	1322,99
269,35	1277,93
269,57	1267,69
269,79	1333,23
270,00	1247,21
270,22	1312,75
270,43	1275,88
270,65	1269,74
270,87	1261,55
271,08	1189,87
271,30	1284,08
271,51	1245,16
271,73	1247,21
271,95	1306,60
272,16	1198,06
272,38	1294,32
272,59	1290,22
272,81	1269,74
273,02	1247,21
273,24	1380,33
273,46	1249,26
273,67	1288,17
273,89	1214,45
274,10	1273,84
274,32	1300,46
274,54	1300,46
274,75	1183,73
274,97	1259,50
275,18	1292,27
275,40	1257,45
275,61	1191,92
275,83	1253,36
276,05	1241,07
276,26	1282,03
276,48	1212,40
276,69	1261,55
276,91	1290,22
277,12	1322,99
277,34	1220,59
277,55	1273,84
277,77	1318,89
277,99	1273,84
278,20	1193,97
278,42	1241,07
278,63	1245,16
278,85	1286,12
279,06	1286,12
279,28	1343,47
279,49	1251,31
279,71	1236,97
279,93	1245,16
280,14	1249,26
280,36	1249,26
280,57	1325,04
280,79	1277,93
281,00	1277,93
281,22	1261,55
281,43	1306,60
281,65	1275,88
281,86	1265,64
282,08	1251,31
282,29	1300,46
282,51	1269,74
282,73	1279,98
282,94	1279,98
283,16	1216,49
283,37	1230,83
283,59	1236,97
283,80	1282,03
284,02	1279,98
284,23	1218,54
284,45	1290,22
284,66	1302,51
284,88	1279,98
285,09	1282,03
285,31	1296,36
285,52	1284,08
285,74	1249,26
285,95	1273,84
286,17	1286,12
286,38	1239,02
286,60	1318,89
286,81	1273,84
287,03	1269,74
287,24	1322,99
287,46	1339,37
287,67	1279,98
287,89	1263,60
288,10	1314,80
288,32	1228,78
288,53	1216,49
288,75	1310,70
288,96	1265,64
289,18	1312,75
289,39	1308,65
289,61	1306,60
289,82	1284,08
290,04	1255,40
290,25	1245,16
290,47	1257,45
290,68	1271,79
290,90	1261,55
291,11	1308,65
291,33	1327,08
291,54	1292,27
291,76	1247,21
291,97	1286,12
292,18	1304,56
292,40	1288,17
292,61	1253,36
292,83	1308,65
293,04	1255,40
293,26	1255,40
293,47	1302,51
293,69	1247,21
293,90	1298,41
294,12	1288,17
294,33	1208,30
294,55	1259,50
294,76	1232,88
294,97	1265,64
295,19	1284,08
295,40	1224,69
295,62	1279,98
295,83	1265,64
296,05	1220,59
296,26	1255,40
296,48	1263,60
296,69	1245,16
296,90	1312,75
297,12	1230,83
297,33	1230,83
297,55	1290,22
297,76	1282,03
297,98	1292,27
298,19	1282,03
298,41	1312,75
298,62	1327,08
298,83	1316,84
299,05	1245,16
299,26	1273,84
299,48	1241,07
299,69	1331,18
299,90	1331,18
300,12	1279,98
300,33	1337,32
300,55	1263,60
300,76	1312,75
300,98	1269,74
301,19	1314,80
301,40	1273,84
301,62	1327,08
301,83	1245,16
302,05	1288,17
302,26	1263,60
302,47	1253,36
302,69	1275,88
302,90	1212,40
303,12	1302,51
303,33	1228,78
303,54	1306,60
303,76	1253,36
303,97	1275,88
304,19	1337,32
304,40	1232,88
304,61	1271,79
304,83	1222,64
305,04	1335,28
305,26	1322,99
305,47	1312,75
305,68	1253,36
305,90	1218,54
306,11	1292,27
306,33	1310,70
306,54	1271,79
306,75	1296,36
306,97	1331,18
307,18	1251,31
307,39	1259,50
307,61	1316,84
307,82	1226,73
308,04	1284,08
308,25	1255,40
308,46	1316,84
308,68	1343,47
308,89	1275,88
309,10	1236,97
309,32	1320,94
309,53	1257,45
309,74	1284,08
309,96	1251,31
310,17	1306,60
310,39	1279,98
310,60	1230,83
310,81	1304,56
311,03	1239,02
311,24	1224,69
311,45	1271,79
311,67	1300,46
311,88	1265,64
312,09	1286,12
312,31	1232,88
312,52	1183,73
312,73	1288,17
312,95	1296,36
313,16	1185,77
313,37	1265,64
313,59	1279,98
313,80	1263,60
314,01	1253,36
314,23	1294,32
314,44	1249,26
314,65	1253,36
314,87	1296,36
315,08	1259,50
315,29	1273,84
315,51	1286,12
315,72	1282,03
315,93	1232,88
316,15	1267,69
316,36	1300,46
316,57	1269,74
316,79	1273,84
317,00	1257,45
317,21	1265,64
317,43	1288,17
317,64	1279,98
317,85	1320,94
318,07	1279,98
318,28	1288,17
318,49	1294,32
318,70	1302,51
318,92	1226,73
319,13	1288,17
319,34	1275,88
319,56	1312,75
319,77	1234,93
319,98	1271,79
320,20	1228,78
320,41	1292,27
320,62	1257,45
320,83	1232,88
321,05	1308,65
321,26	1226,73
321,47	1204,21
321,69	1286,12
321,90	1339,37
322,11	1282,03
322,32	1267,69
322,54	1316,84
322,75	1216,49
322,96	1255,40
323,18	1279,98
323,39	1345,52
323,60	1216,49
323,81	1241,07
324,03	1275,88
324,24	1325,04
324,45	1318,89
324,66	1355,76
324,88	1298,41
325,09	1290,22
325,30	1257,45
325,52	1290,22
325,73	1230,83
325,94	1329,13
326,15	1224,69
326,37	1279,98
326,58	1282,03
326,79	1296,36
327,00	1306,60
327,22	1312,75
327,43	1257,45
327,64	1296,36
327,85	1349,61
328,07	1259,50
328,28	1296,36
328,49	1263,60
328,70	1216,49
328,92	1255,40
329,13	1245,16
329,34	1218,54
329,55	1337,32
329,76	1251,31
329,98	1259,50
330,19	1290,22
330,40	1316,84
330,61	1257,45
330,83	1245,16
331,04	1271,79
331,25	1267,69
331,46	1282,03
331,68	1343,47
331,89	1298,41
332,10	1339,37
332,31	1193,97
332,52	1304,56
332,74	1298,41
332,95	1253,36
333,16	1308,65
333,37	1232,88
333,58	1308,65
333,80	1243,12
334,01	1292,27
334,22	1302,51
334,43	1239,02
334,64	1202,16
334,86	1292,27
335,07	1230,83
335,28	1275,88
335,49	1210,35
335,70	1290,22
335,92	1269,74
336,13	1218,54
336,34	1288,17
336,55	1284,08
336,76	1222,64
336,98	1202,16
337,19	1351,66
337,40	1302,51
337,61	1290,22
337,82	1277,93
338,04	1363,95
338,25	1288,17
338,46	1228,78
338,67	1255,40
338,88	1269,74
339,09	1208,30
339,31	1325,04
339,52	1290,22
339,73	1263,60
339,94	1292,27
340,15	1251,31
340,36	1247,21
340,58	1304,56
340,79	1263,60
341,00	1286,12
341,21	1216,49
341,42	1343,47
341,63	1212,40
341,85	1290,22
342,06	1300,46
342,27	1251,31
342,48	1306,60
342,69	1316,84
342,90	1255,40
343,12	1327,08
343,33	1292,27
343,54	1167,34
343,75	1302,51
343,96	1318,89
344,17	1249,26
344,38	1198,06
344,60	1261,55
344,81	1245,16
345,02	1208,30
345,23	1273,84
345,44	1337,32
345,65	1253,36
345,86	1322,99
346,07	1224,69
346,29	1234,93
346,50	1257,45
346,71	1255,40
346,92	1247,21
347,13	1257,45
347,34	1273,84
347,55	1234,93
347,76	1255,40
347,98	1271,79
348,19	1247,21
348,40	1271,79
348,61	1220,59
348,82	1275,88
349,03	1257,45
349,24	1265,64
349,45	1290,22
349,66	1329,13
349,88	1261,55
350,09	1245,16
350,30	1284,08
350,51	1218,54
350,72	1273,84
350,93	1325,04
351,14	1314,80
351,35	1359,85
351,56	1249,26
351,77	1259,50
351,99	1327,08
352,20	1243,12
352,41	1282,03
352,62	1226,73
352,83	1245,16
353,04	1300,46
353,25	1261,55
353,46	1298,41
353,67	1257,45
353,88	1298,41
354,09	1277,93
354,30	1290,22
354,52	1282,03
354,73	1286,12
354,94	1245,16
355,15	1247,21
355,36	1275,88
355,57	1302,51
355,78	1216,49
355,99	1347,56
356,20	1257,45
356,41	1312,75
356,62	1245,16
356,83	1273,84
357,04	1275,88
357,25	1282,03
357,46	1255,40
357,68	1273,84
357,89	1239,02
358,10	1255,40
358,31	1247,21
358,52	1325,04
358,73	1335,28
358,94	1267,69
359,15	1224,69
359,36	1273,84
359,57	1298,41
359,78	1290,22
359,99	1243,12
360,20	1275,88
360,41	1228,78
360,62	1308,65
360,83	1275,88
361,04	1193,97
361,25	1265,64
361,46	1232,88
361,67	1222,64
361,88	1341,42
362,09	1253,36
362,30	1271,79
362,51	1212,40
362,72	1302,51
362,93	1222,64
363,14	1257,45
363,35	1263,60
363,56	1329,13
363,78	1298,41
363,99	1294,32
364,20	1179,63
364,41	1310,70
364,62	1345,52
364,83	1230,83
365,04	1200,11
365,25	1329,13
365,46	1245,16
365,67	1286,12
365,88	1314,80
366,09	1296,36
366,30	1335,28
366,51	1261,55
366,72	1304,56
366,93	1259,50
367,14	1236,97
367,35	1232,88
367,56	1284,08
367,77	1273,84
367,98	1243,12
368,18	1347,56
368,39	1282,03
368,60	1329,13
368,81	1257,45
369,02	1279,98
369,23	1259,50
369,44	1277,93
369,65	1243,12
369,86	1284,08
370,07	1341,42
370,28	1265,64
370,49	1284,08
370,70	1232,88
370,91	1261,55
371,12	1275,88
371,33	1331,18
371,54	1298,41
371,75	1300,46
371,96	1284,08
372,17	1218,54
372,38	1255,40
372,59	1253,36
372,80	1253,36
373,01	1243,12
373,22	1292,27
373,43	1243,12
373,64	1308,65
373,85	1284,08
374,06	1322,99
374,26	1263,60
374,47	1257,45
374,68	1239,02
374,89	1220,59
375,10	1296,36
375,31	1318,89
375,52	1296,36
375,73	1245,16
375,94	1173,49
376,15	1304,56
376,36	1298,41
376,57	1331,18
376,78	1300,46
376,99	1243,12
377,20	1271,79
377,40	1337,32
377,61	1214,45
377,82	1288,17
378,03	1253,36
378,24	1224,69
378,45	1241,07
378,66	1263,60
378,87	1249,26
379,08	1263,60
379,29	1243,12
379,50	1204,21
379,71	1204,21
379,91	1306,60
380,12	1263,60
380,33	1251,31
380,54	1277,93
380,75	1282,03
380,96	1261,55
381,17	1314,80
381,38	1273,84
381,59	1171,44
381,80	1296,36
382,00	1308,65
382,21	1243,12
382,42	1329,13
382,63	1294,32
382,84	1269,74
383,05	1298,41
383,26	1249,26
383,47	1290,22
383,68	1200,11
383,88	1288,17
384,09	1306,60
384,30	1341,42
384,51	1366,00
384,72	1245,16
384,93	1273,84
385,14	1245,16
385,35	1320,94
385,55	1296,36
385,76	1306,60
385,97	1210,35
386,18	1234,93
386,39	1306,60
386,60	1239,02
386,81	1282,03
387,02	1261,55
387,22	1257,45
387,43	1193,97
387,64	1204,21
387,85	1292,27
388,06	1275,88
388,27	1261,55
388,48	1284,08
388,68	1335,28
388,89	1243,12
389,10	1269,74
389,31	1284,08
389,52	1249,26
389,73	1286,12
389,93	1314,80
390,14	1302,51
390,35	1329,13
390,56	1298,41
390,77	1320,94
390,98	1269,74
391,18	1282,03
391,39	1284,08
391,60	1198,06
391,81	1206,25
392,02	1232,88
392,23	1306,60
392,43	1261,55
392,64	1230,83
392,85	1279,98
393,06	1320,94
393,27	1312,75
393,47	1251,31
393,68	1247,21
393,89	1325,04
394,10	1261,55
394,31	1243,12
394,52	1296,36
394,72	1296,36
394,93	1320,94
395,14	1275,88
395,35	1306,60
395,56	1273,84
395,76	1271,79
395,97	1208,30
396,18	1273,84
396,39	1265,64
396,60	1267,69
396,80	1239,02
397,01	1234,93
397,22	1222,64
397,43	1202,16
397,64	1284,08
397,84	1241,07
398,05	1243,12
398,26	1279,98
398,47	1208,30
398,67	1236,97
398,88	1253,36
399,09	1333,23
399,30	1247,21
399,51	1249,26
399,71	1247,21
399,92	1261,55
400,13	1249,26
400,34	1271,79
400,54	1267,69
400,75	1265,64
400,96	1224,69
401,17	1302,51
401,37	1331,18
401,58	1314,80
401,79	1300,46
402,00	1277,93
402,21	1275,88
402,41	1247,21
402,62	1222,64
402,83	1314,80
403,04	1230,83
403,24	1214,45
403,45	1206,25
403,66	1259,50
403,87	1200,11
404,07	1335,28
404,28	1216,49
404,49	1230,83
404,70	1314,80
404,90	1224,69
405,11	1286,12
405,32	1314,80
405,52	1232,88
405,73	1273,84
405,94	1222,64
406,15	1236,97
406,35	1245,16
406,56	1306,60
406,77	1210,35
406,98	1302,51
407,18	1275,88
407,39	1331,18
407,60	1259,50
407,80	1269,74
408,01	1296,36
408,22	1355,76
408,43	1241,07
408,63	1333,23
408,84	1327,08
409,05	1286,12
409,25	1265,64
409,46	1265,64
409,67	1224,69
409,88	1267,69
410,08	1239,02
410,29	1298,41
410,50	1200,11
410,70	1296,36
410,91	1284,08
411,12	1308,65
411,32	1286,12
411,53	1275,88
411,74	1236,97
411,95	1255,40
412,15	1251,31
412,36	1288,17
412,57	1306,60
412,77	1218,54
412,98	1308,65
413,19	1253,36
413,39	1279,98
413,60	1271,79
413,81	1302,51
414,01	1273,84
414,22	1249,26
414,43	1312,75
414,63	1251,31
414,84	1359,85
415,05	1228,78
415,25	1212,40
415,46	1296,36
415,67	1282,03
415,87	1220,59
416,08	1306,60
416,29	1234,93
416,49	1290,22
416,70	1277,93
416,91	1269,74
417,11	1241,07
417,32	1290,22
417,53	1255,40
417,73	1308,65
417,94	1251,31
418,15	1204,21
418,35	1275,88
418,56	1372,14
418,77	1277,93
418,97	1241,07
419,18	1230,83
419,38	1243,12
419,59	1265,64
419,80	1290,22
420,00	1316,84
420,21	1316,84
420,42	1288,17
420,62	1200,11
420,83	1312,75
421,04	1290,22
421,24	1308,65
421,45	1265,64
421,65	1329,13
421,86	1257,45
422,07	1200,11
422,27	1298,41
422,48	1265,64
422,69	1353,71
422,89	1380,33
423,10	1286,12
423,30	1257,45
423,51	1318,89
423,72	1251,31
423,92	1271,79
424,13	1257,45
424,33	1298,41
424,54	1214,45
424,75	1353,71
424,95	1294,32
425,16	1253,36
425,36	1273,84
425,57	1265,64
425,78	1296,36
425,98	1296,36
426,19	1298,41
426,39	1241,07
426,60	1249,26
426,81	1226,73
427,01	1220,59
427,22	1222,64
427,42	1355,76
427,63	1288,17
427,83	1282,03
428,04	1232,88
428,25	1239,02
428,45	1282,03
428,66	1261,55
428,86	1181,68
429,07	1218,54
429,28	1216,49
429,48	1255,40
429,69	1226,73
429,89	1292,27
430,10	1234,93
430,30	1296,36
430,51	1304,56
430,71	1255,40
430,92	1273,84
431,13	1253,36
431,33	1277,93
431,54	1327,08
431,74	1306,60
431,95	1224,69
432,15	1333,23
432,36	1368,04
432,56	1331,18
432,77	1226,73
432,98	1224,69
433,18	1257,45
433,39	1300,46
433,59	1308,65
433,80	1282,03
434,00	1298,41
434,21	1249,26
434,41	1296,36
434,62	1380,33
434,82	1312,75
435,03	1290,22
435,23	1275,88
435,44	1304,56
435,64	1230,83
435,85	1300,46
436,06	1196,01
436,26	1271,79
436,47	1294,32
436,67	1310,70
436,88	1288,17
437,08	1275,88
437,29	1249,26
437,49	1310,70
437,70	1339,37
437,90	1241,07
438,11	1308,65
438,31	1290,22
438,52	1277,93
438,72	1230,83
438,93	1275,88
439,13	1230,83
439,34	1349,61
439,54	1279,98
439,75	1255,40
439,95	1253,36
440,16	1290,22
440,36	1279,98
440,57	1232,88
440,77	1259,50
440,98	1298,41
441,18	1245,16
441,39	1265,64
441,59	1247,21
441,80	1273,84
442,00	1263,60
442,21	1282,03
442,41	1271,79
442,62	1316,84
442,82	1263,60
443,02	1263,60
443,23	1265,64
443,43	1314,80
443,64	1279,98
443,84	1286,12
444,05	1292,27
444,25	1329,13
444,46	1220,59
444,66	1224,69
444,87	1279,98
445,07	1241,07
445,28	1288,17
445,48	1241,07
445,69	1206,25
445,89	1251,31
446,09	1239,02
446,30	1226,73
446,50	1251,31
446,71	1290,22
446,91	1292,27
447,12	1290,22
447,32	1331,18
447,53	1269,74
447,73	1243,12
447,93	1257,45
448,14	1290,22
448,34	1245,16
448,55	1273,84
448,75	1261,55
448,96	1245,16
449,16	1298,41
449,36	1284,08
449,57	1298,41
449,77	1298,41
449,98	1241,07
450,18	1288,17
450,39	1284,08
450,59	1228,78
450,79	1214,45
451,00	1273,84
451,20	1253,36
451,41	1204,21
451,61	1363,95
451,81	1253,36
452,02	1269,74
452,22	1292,27
452,43	1271,79
452,63	1277,93
452,84	1300,46
453,04	1273,84
453,24	1300,46
453,45	1253,36
453,65	1251,31
453,86	1222,64
454,06	1294,32
454,26	1253,36
454,47	1288,17
454,67	1224,69
454,87	1216,49
455,08	1253,36
455,28	1318,89
455,49	1294,32
455,69	1236,97
455,89	1312,75
456,10	1253,36
456,30	1288,17
456,51	1236,97
456,71	1220,59
456,91	1253,36
457,12	1273,84
457,32	1243,12
457,52	1306,60
457,73	1339,37
457,93	1296,36
458,14	1245,16
458,34	1198,06
458,54	1282,03
458,75	1183,73
458,95	1230,83
459,15	1298,41
459,36	1222,64
459,56	1228,78
459,76	1355,76
459,97	1279,98
460,17	1249,26
460,37	1259,50
460,58	1275,88
460,78	1327,08
460,99	1243,12
461,19	1271,79
461,39	1320,94
461,60	1290,22
461,80	1251,31
462,00	1314,80
462,21	1277,93
462,41	1173,49
462,61	1228,78
462,82	1329,13
463,02	1239,02
463,22	1261,55
463,43	1284,08
463,63	1294,32
463,83	1286,12
464,04	1263,60
464,24	1357,80
464,44	1304,56
464,64	1292,27
464,85	1265,64
465,05	1261,55
465,25	1263,60
465,46	1353,71
465,66	1187,82
465,86	1296,36
466,07	1241,07
466,27	1275,88
466,47	1333,23
466,68	1290,22
466,88	1331,18
467,08	1230,83
467,29	1232,88
467,49	1286,12
467,69	1249,26
467,89	1183,73
468,10	1245,16
468,30	1294,32
468,50	1218,54
468,71	1224,69
468,91	1204,21
469,11	1327,08
469,31	1306,60
469,52	1286,12
469,72	1273,84
469,92	1253,36
470,13	1269,74
470,33	1269,74
470,53	1292,27
470,73	1298,41
470,94	1245,16
471,14	1279,98
471,34	1249,26
471,54	1239,02
471,75	1265,64
471,95	1286,12
472,15	1310,70
472,36	1212,40
472,56	1294,32
472,76	1298,41
472,96	1243,12
473,17	1239,02
473,37	1284,08
473,57	1249,26
473,77	1261,55
473,98	1366,00
474,18	1259,50
474,38	1341,42
474,58	1243,12
474,79	1230,83
474,99	1245,16
475,19	1261,55
475,39	1273,84
475,60	1234,93
475,80	1310,70
476,00	1290,22
476,20	1372,14
476,41	1226,73
476,61	1288,17
476,81	1292,27
477,01	1226,73
477,21	1212,40
477,42	1261,55
477,62	1226,73
477,82	1265,64
478,02	1308,65
478,23	1265,64
478,43	1314,80
478,63	1265,64
478,83	1228,78
479,03	1220,59
479,24	1277,93
479,44	1296,36
479,64	1300,46
479,84	1282,03
480,04	1236,97
480,25	1318,89
480,45	1361,90
480,65	1277,93
480,85	1239,02
481,06	1255,40
481,26	1331,18
481,46	1251,31
481,66	1292,27
481,86	1284,08
482,06	1300,46
482,27	1316,84
482,47	1302,51
482,67	1236,97
482,87	1234,93
483,07	1320,94
483,28	1212,40
483,48	1273,84
483,68	1267,69
483,88	1306,60
484,08	1196,01
484,29	1255,40
484,49	1282,03
484,69	1286,12
484,89	1331,18
485,09	1355,76
485,29	1296,36
485,50	1333,23
485,70	1193,97
485,90	1259,50
486,10	1284,08
486,30	1236,97
486,50	1247,21
486,71	1320,94
486,91	1247,21
487,11	1263,60
487,31	1234,93
487,51	1271,79
487,71	1253,36
487,91	1255,40
488,12	1288,17
488,32	1267,69
488,52	1261,55
488,72	1271,79
488,92	1282,03
489,12	1312,75
489,32	1275,88
489,53	1255,40
489,73	1171,44
489,93	1288,17
490,13	1243,12
490,33	1251,31
490,53	1259,50
490,73	1282,03
490,94	1347,56
491,14	1267,69
491,34	1265,64
491,54	1357,80
491,74	1216,49
491,94	1247,21
492,14	1239,02
492,34	1284,08
492,54	1322,99
492,75	1327,08
492,95	1384,43
493,15	1288,17
493,35	1155,05
493,55	1327,08
493,75	1353,71
493,95	1275,88
494,15	1267,69
494,35	1263,60
494,56	1288,17
494,76	1320,94
494,96	1363,95
495,16	1339,37
495,36	1247,21
495,56	1351,66
495,76	1294,32
495,96	1302,51
496,16	1290,22
496,36	1257,45
496,56	1314,80
496,77	1273,84
496,97	1222,64
497,17	1234,93
497,37	1286,12
497,57	1273,84
497,77	1241,07
497,97	1222,64
498,17	1208,30
498,37	1214,45
498,57	1282,03
498,77	1300,46
498,97	1267,69
499,17	1294,32
499,38	1271,79
499,58	1239,02
499,78	1253,36
499,98	1163,25
500,18	1255,40
500,38	1363,95
500,58	1298,41
500,78	1181,68
500,98	1198,06
501,18	1267,69
501,38	1263,60
501,58	1296,36
501,78	1204,21
501,98	1189,87
502,18	1310,70
502,38	1271,79
502,58	1226,73
502,78	1282,03
502,98	1294,32
503,18	1290,22
503,38	1312,75
503,59	1267,69
503,79	1255,40
503,99	1279,98
504,19	1292,27
504,39	1236,97
504,59	1265,64
504,79	1277,93
504,99	1302,51
505,19	1282,03
505,39	1257,45
505,59	1249,26
505,79	1269,74
505,99	1298,41
506,19	1159,15
506,39	1302,51
506,59	1226,73
506,79	1191,92
506,99	1257,45
507,19	1251,31
507,39	1298,41
507,59	1343,47
507,79	1263,60
507,99	1273,84
508,19	1294,32
508,39	1298,41
508,59	1288,17
508,79	1277,93
508,99	1198,06
509,19	1290,22
509,39	1304,56
509,59	1312,75
509,79	1277,93
509,99	1241,07
510,19	1261,55
510,39	1273,84
510,59	1226,73
510,79	1286,12
510,99	1306,60
511,19	1333,23
511,39	1277,93
511,59	1318,89
511,79	1298,41
511,99	1267,69
512,19	1187,82
512,38	1245,16
512,58	1259,50
512,78	1234,93
512,98	1325,04
513,18	1290,22
513,38	1230,83
513,58	1310,70
513,78	1290,22
513,98	1290,22
514,18	1247,21
514,38	1146,86
514,58	1271,79
514,78	1210,35
514,98	1241,07
515,18	1279,98
515,38	1234,93
515,58	1337,32
515,78	1243,12
515,98	1286,12
516,18	1279,98
516,38	1257,45
516,57	1232,88
516,77	1239,02
516,97	1255,40
517,17	1353,71
517,37	1247,21
517,57	1302,51
517,77	1261,55
517,97	1292,27
518,17	1261,55
518,37	1232,88
518,57	1236,97
518,77	1308,65
518,97	1257,45
519,16	1273,84
519,36	1206,25
519,56	1277,93
519,76	1210,35
519,96	1357,80
520,16	1279,98
520,36	1208,30
520,56	1271,79
520,76	1357,80
520,96	1257,45
521,16	1341,42
521,35	1298,41
521,55	1335,28
521,75	1230,83
521,95	1286,12
522,15	1241,07
522,35	1341,42
522,55	1290,22
522,75	1290,22
522,95	1189,87
523,14	1265,64
523,34	1310,70
523,54	1167,34
523,74	1220,59
523,94	1298,41
524,14	1263,60
524,34	1232,88
524,54	1288,17
524,73	1353,71
524,93	1269,74
525,13	1292,27
525,33	1300,46
525,53	1267,69
525,73	1232,88
525,93	1220,59
526,13	1294,32
526,32	1200,11
526,52	1261,55
526,72	1243,12
526,92	1335,28
527,12	1226,73
527,32	1298,41
527,52	1257,45
527,71	1220,59
527,91	1228,78
528,11	1290,22
528,31	1267,69
528,51	1263,60
528,71	1339,37
528,90	1226,73
529,10	1206,25
529,30	1265,64
529,50	1275,88
529,70	1265,64
529,90	1171,44
530,09	1263,60
530,29	1222,64
530,49	1214,45
530,69	1337,32
530,89	1359,85
531,09	1286,12
531,28	1230,83
531,48	1247,21
531,68	1226,73
531,88	1249,26
532,08	1327,08
532,28	1239,02
532,47	1265,64
532,67	1232,88
532,87	1267,69
533,07	1257,45
533,27	1308,65
533,46	1314,80
533,66	1243,12
533,86	1343,47
534,06	1251,31
534,26	1341,42
534,45	1288,17
534,65	1218,54
534,85	1234,93
535,05	1275,88
535,25	1304,56
535,44	1183,73
535,64	1232,88
535,84	1316,84
536,04	1320,94
536,24	1267,69
536,43	1261,55
536,63	1300,46
536,83	1275,88
537,03	1388,52
537,22	1216,49
537,42	1282,03
537,62	1206,25
537,82	1298,41
538,02	1288,17
538,21	1263,60
538,41	1263,60
538,61	1255,40
538,81	1304,56
539,00	1204,21
539,20	1253,36
539,40	1232,88
539,60	1310,70
539,79	1320,94
539,99	1282,03
540,19	1304,56
540,39	1265,64
540,58	1296,36
540,78	1198,06
540,98	1284,08
541,18	1257,45
541,37	1241,07
541,57	1191,92
541,77	1329,13
541,97	1322,99
542,16	1193,97
542,36	1271,79
542,56	1261,55
542,76	1302,51
542,95	1267,69
543,15	1243,12
543,35	1294,32
543,54	1314,80
543,74	1273,84
543,94	1298,41
544,14	1253,36
544,33	1296,36
544,53	1316,84
544,73	1255,40
544,93	1282,03
545,12	1284,08
545,32	1232,88
545,52	1251,31
545,71	1220,59
545,91	1271,79
546,11	1279,98
546,30	1259,50
546,50	1277,93
546,70	1306,60
546,90	1275,88
547,09	1320,94
547,29	1249,26
547,49	1292,27
547,68	1265,64
547,88	1236,97
548,08	1249,26
548,27	1351,66
548,47	1243,12
548,67	1302,51
548,87	1253,36
549,06	1296,36
549,26	1273,84
549,46	1245,16
549,65	1306,60
549,85	1271,79
550,05	1273,84
550,24	1243,12
550,44	1331,18
550,64	1263,60
550,83	1275,88
551,03	1339,37
551,23	1312,75
551,42	1314,80
551,62	1282,03
551,82	1306,60
552,01	1279,98
552,21	1191,92
552,41	1245,16
552,60	1288,17
552,80	1310,70
553,00	1290,22
553,19	1322,99
553,39	1234,93
553,59	1302,51
553,78	1355,76
553,98	1318,89
554,17	1230,83
554,37	1347,56
554,57	1253,36
554,76	1251,31
554,96	1308,65
555,16	1257,45
555,35	1273,84
555,55	1267,69
555,75	1318,89
555,94	1345,52
556,14	1187,82
556,33	1282,03
556,53	1214,45
556,73	1267,69
556,92	1284,08
557,12	1271,79
557,32	1288,17
557,51	1220,59
557,71	1245,16
557,90	1185,77
558,10	1249,26
558,30	1220,59
558,49	1271,79
558,69	1355,76
558,88	1275,88
559,08	1329,13
559,28	1208,30
559,47	1243,12
559,67	1208,30
559,86	1298,41
560,06	1241,07
560,26	1245,16
560,45	1222,64
560,65	1259,50
560,84	1275,88
561,04	1259,50
561,24	1206,25
561,43	1290,22
561,63	1282,03
561,82	1320,94
562,02	1284,08
562,22	1249,26
562,41	1279,98
562,61	1265,64
562,80	1187,82
563,00	1329,13
563,19	1245,16
563,39	1249,26
563,59	1327,08
563,78	1255,40
563,98	1187,82
564,17	1243,12
564,37	1239,02
564,56	1216,49
564,76	1257,45
564,96	1234,93
565,15	1296,36
565,35	1271,79
565,54	1298,41
565,74	1302,51
565,93	1296,36
566,13	1234,93
566,32	1290,22
566,52	1265,64
566,71	1286,12
566,91	1286,12
567,11	1247,21
567,30	1292,27
567,50	1239,02
567,69	1343,47
567,89	1290,22
568,08	1193,97
568,28	1275,88
568,47	1310,70
568,67	1200,11
568,86	1298,41
569,06	1259,50
569,25	1243,12
569,45	1300,46
569,64	1300,46
569,84	1294,32
570,04	1249,26
570,23	1261,55
570,43	1304,56
570,62	1277,93
570,82	1327,08
571,01	1257,45
571,21	1236,97
571,40	1271,79
571,60	1245,16
571,79	1247,21
571,99	1308,65
572,18	1253,36
572,38	1265,64
572,57	1222,64
572,77	1288,17
572,96	1216,49
573,16	1206,25
573,35	1249,26
573,55	1251,31
573,74	1288,17
573,94	1271,79
574,13	1292,27
574,33	1275,88
574,52	1243,12
574,71	1282,03
574,91	1241,07
575,10	1257,45
575,30	1239,02
575,49	1343,47
575,69	1294,32
575,88	1314,80
576,08	1269,74
576,27	1239,02
576,47	1273,84
576,66	1269,74
576,86	1320,94
577,05	1290,22
577,25	1267,69
577,44	1310,70
577,64	1208,30
577,83	1290,22
578,02	1198,06
578,22	1292,27
578,41	1243,12
578,61	1304,56
578,80	1177,58
579,00	1255,40
579,19	1243,12
579,39	1222,64
579,58	1247,21
579,77	1232,88
579,97	1325,04
580,16	1253,36
580,36	1249,26
580,55	1273,84
580,75	1265,64
580,94	1339,37
581,13	1263,60
581,33	1249,26
581,52	1331,18
581,72	1329,13
581,91	1296,36
582,11	1216,49
582,30	1271,79
582,49	1279,98
582,69	1236,97
582,88	1296,36
583,08	1212,40
583,27	1286,12
583,47	1322,99
583,66	1212,40
583,85	1251,31
584,05	1263,60
584,24	1253,36
584,44	1222,64
584,63	1265,64
584,82	1224,69
585,02	1296,36
585,21	1230,83
585,41	1159,15
585,60	1284,08
585,79	1284,08
585,99	1298,41
586,18	1200,11
586,37	1269,74
586,57	1230,83
586,76	1269,74
586,96	1257,45
587,15	1236,97
587,34	1202,16
587,54	1247,21
587,73	1273,84
587,93	1277,93
588,12	1224,69
588,31	1290,22
588,51	1243,12
588,70	1310,70
588,89	1286,12
589,09	1288,17
589,28	1243,12
589,47	1224,69
589,67	1298,41
589,86	1271,79
590,06	1157,10
590,25	1314,80
590,44	1343,47
590,64	1251,31
590,83	1267,69
591,02	1304,56
591,22	1245,16
591,41	1290,22
591,60	1292,27
591,80	1138,67
591,99	1185,77
592,18	1290,22
592,38	1241,07
592,57	1275,88
592,76	1263,60
592,96	1245,16
593,15	1275,88
593,34	1277,93
593,54	1263,60
593,73	1290,22
593,92	1257,45
594,12	1322,99
594,31	1337,32
594,50	1290,22
594,70	1234,93
594,89	1306,60
595,08	1275,88
595,28	1282,03
595,47	1220,59
595,66	1208,30
595,86	1286,12
596,05	1261,55
596,24	1230,83
596,43	1275,88
596,63	1275,88
596,82	1277,93
597,01	1294,32
597,21	1271,79
597,40	1325,04
597,59	1275,88
597,79	1261,55
597,98	1234,93
598,17	1247,21
598,36	1255,40
598,56	1253,36
598,75	1282,03
598,94	1251,31
599,14	1275,88
599,33	1239,02
599,52	1257,45
599,71	1241,07
599,91	1296,36
600,10	1257,45
600,29	1253,36
600,48	1318,89
600,68	1243,12
600,87	1325,04
601,06	1218,54
601,26	1251,31
601,45	1224,69
601,64	1273,84
601,83	1210,35
602,03	1284,08
602,22	1288,17
602,41	1271,79
602,60	1341,42
602,80	1273,84
602,99	1347,56
603,18	1265,64
603,37	1292,27
603,57	1255,40
603,76	1249,26
603,95	1208,30
604,14	1331,18
604,34	1304,56
604,53	1249,26
604,72	1239,02
604,91	1224,69
605,10	1279,98
605,30	1257,45
605,49	1263,60
605,68	1296,36
605,87	1253,36
606,07	1269,74
606,26	1243,12
606,45	1208,30
606,64	1234,93
606,84	1343,47
607,03	1253,36
607,22	1198,06
607,41	1284,08
607,60	1325,04
607,80	1230,83
607,99	1279,98
608,18	1234,93
608,37	1202,16
608,56	1310,70
608,76	1212,40
608,95	1255,40
609,14	1300,46
609,33	1267,69
609,52	1331,18
609,72	1185,77
609,91	1288,17
610,10	1241,07
610,29	1275,88
610,48	1218,54
610,68	1247,21
610,87	1249,26
611,06	1239,02
611,25	1290,22
611,44	1232,88
611,63	1261,55
611,83	1183,73
612,02	1232,88
612,21	1251,31
612,40	1269,74
612,59	1271,79
612,79	1220,59
612,98	1218,54
613,17	1292,27
613,36	1316,84
613,55	1341,42
613,74	1241,07
613,93	1216,49
614,13	1232,88
614,32	1277,93
614,51	1263,60
614,70	1255,40
614,89	1294,32
615,08	1282,03
615,28	1355,76
615,47	1300,46
615,66	1255,40
615,85	1259,50
616,04	1300,46
616,23	1187,82
616,42	1239,02
616,62	1271,79
616,81	1271,79
617,00	1269,74
617,19	1214,45
617,38	1284,08
617,57	1290,22
617,76	1314,80
617,95	1296,36
618,15	1320,94
618,34	1214,45
618,53	1288,17
618,72	1298,41
618,91	1300,46
619,10	1234,93
619,29	1251,31
619,48	1239,02
619,68	1177,58
619,87	1310,70
620,06	1273,84
620,25	1261,55
620,44	1245,16
620,63	1275,88
620,82	1290,22
621,01	1277,93
621,20	1288,17
621,39	1236,97
621,59	1284,08
621,78	1269,74
621,97	1284,08
622,16	1337,32
622,35	1286,12
622,54	1282,03
622,73	1288,17
622,92	1273,84
623,11	1288,17
623,30	1335,28
623,49	1318,89
623,68	1275,88
623,88	1288,17
624,07	1347,56
624,26	1282,03
624,45	1232,88
624,64	1236,97
624,83	1206,25
625,02	1294,32
625,21	1345,52
625,40	1290,22
625,59	1265,64
625,78	1306,60
625,97	1351,66
626,16	1290,22
626,35	1312,75
626,54	1310,70
626,74	1316,84
626,93	1220,59
627,12	1222,64
627,31	1296,36
627,50	1308,65
627,69	1275,88
627,88	1304,56
628,07	1314,80
628,26	1286,12
628,45	1300,46
628,64	1292,27
628,83	1294,32
629,02	1284,08
629,21	1337,32
629,40	1290,22
629,59	1290,22
629,78	1218,54
629,97	1308,65
630,16	1263,60
630,35	1257,45
630,54	1327,08
630,73	1359,85
630,92	1366,00
631,11	1296,36
631,30	1353,71
631,49	1325,04
631,68	1398,76
631,87	1564,65
632,06	1710,05
632,25	1591,27
632,44	1673,19
632,63	1736,68
632,82	1904,61
633,01	2316,25
633,20	2000,87
633,39	1877,99
633,58	2041,82
633,77	2158,56
633,96	2029,54
634,15	1976,29
634,34	1935,33
634,53	1996,77
634,72	1884,13
634,91	1816,55
635,10	1748,97
635,29	1742,82
635,48	1714,15
635,67	1636,33
635,86	1724,39
636,05	1562,60
636,24	1466,35
636,43	1351,66
636,62	1441,77
636,81	1310,70
637,00	1329,13
637,19	1339,37
637,38	1406,95
637,57	1327,08
637,76	1279,98
637,95	1304,56
638,14	1353,71
638,33	1341,42
638,52	1325,04
638,71	1210,35
638,89	1306,60
639,08	1277,93
639,27	1290,22
639,46	1320,94
639,65	1249,26
639,84	1271,79
640,03	1239,02
640,22	1288,17
640,41	1230,83
640,60	1263,60
640,79	1320,94
640,98	1224,69
641,17	1333,23
641,36	1277,93
641,55	1355,76
641,74	1236,97
641,92	1261,55
642,11	1302,51
642,30	1257,45
642,49	1265,64
642,68	1288,17
642,87	1308,65
643,06	1322,99
643,25	1265,64
643,44	1290,22
643,63	1261,55
643,82	1216,49
644,00	1314,80
644,19	1257,45
644,38	1241,07
644,57	1275,88
644,76	1247,21
644,95	1288,17
645,14	1298,41
645,33	1310,70
645,52	1306,60
645,71	1292,27
645,89	1269,74
646,08	1243,12
646,27	1257,45
646,46	1353,71
646,65	1187,82
646,84	1271,79
647,03	1335,28
647,22	1304,56
647,40	1257,45
647,59	1292,27
647,78	1187,82
647,97	1302,51
648,16	1329,13
648,35	1298,41
648,54	1286,12
648,73	1267,69
648,91	1218,54
649,10	1339,37
649,29	1222,64
649,48	1335,28
649,67	1298,41
649,86	1322,99
650,05	1290,22
650,23	1298,41
650,42	1273,84
650,61	1232,88
650,80	1271,79
650,99	1292,27
651,18	1241,07
651,36	1312,75
651,55	1245,16
651,74	1271,79
651,93	1212,40
652,12	1329,13
652,31	1345,52
652,49	1314,80
652,68	1288,17
652,87	1232,88
653,06	1271,79
653,25	1265,64
653,44	1183,73
653,62	1257,45
653,81	1333,23
654,00	1333,23
654,19	1241,07
654,38	1253,36
654,56	1193,97
654,75	1273,84
654,94	1341,42
655,13	1279,98
655,32	1220,59
655,51	1282,03
655,69	1257,45
655,88	1241,07
656,07	1247,21
656,26	1232,88
656,45	1259,50
656,63	1185,77
656,82	1292,27
657,01	1335,28
657,20	1288,17
657,38	1298,41
657,57	1247,21
657,76	1306,60
657,95	1275,88
658,14	1337,32
658,32	1322,99
658,51	1173,49
658,70	1284,08
658,89	1247,21
659,08	1322,99
659,26	1286,12
659,45	1218,54
659,64	1249,26
659,83	1316,84
660,01	1312,75
660,20	1335,28
660,39	1265,64
660,58	1269,74
660,76	1302,51
660,95	1298,41
661,14	1241,07
661,33	1304,56
661,51	1298,41
661,70	1275,88
661,89	1263,60
662,08	1269,74
662,26	1249,26
662,45	1269,74
662,64	1347,56
662,83	1306,60
663,01	1327,08
663,20	1263,60
663,39	1253,36
663,58	1253,36
663,76	1310,70
663,95	1288,17
664,14	1314,80
664,32	1259,50
664,51	1236,97
664,70	1267,69
664,89	1298,41
665,07	1300,46
665,26	1255,40
665,45	1310,70
665,64	1257,45
665,82	1220,59
666,01	1306,60
666,20	1226,73
666,38	1179,63
666,57	1271,79
666,76	1306,60
666,95	1236,97
667,13	1314,80
667,32	1290,22
667,51	1310,70
667,69	1224,69
667,88	1255,40
668,07	1265,64
668,25	1265,64
668,44	1265,64
668,63	1255,40
668,81	1279,98
669,00	1234,93
669,19	1292,27
669,38	1261,55
669,56	1249,26
669,75	1247,21
669,94	1271,79
670,12	1249,26
670,31	1247,21
670,50	1279,98
670,68	1263,60
670,87	1265,64
671,06	1271,79
671,24	1265,64
671,43	1265,64
671,62	1310,70
671,80	1222,64
671,99	1306,60
672,18	1271,79
672,36	1294,32
672,55	1257,45
672,74	1269,74
672,92	1234,93
673,11	1318,89
673,29	1288,17
673,48	1249,26
673,67	1308,65
673,85	1249,26
674,04	1226,73
674,23	1290,22
674,41	1241,07
674,60	1282,03
674,79	1275,88
674,97	1200,11
675,16	1308,65
675,34	1257,45
675,53	1249,26
675,72	1294,32
675,90	1261,55
676,09	1232,88
676,28	1279,98
676,46	1325,04
676,65	1265,64
676,83	1314,80
677,02	1275,88
677,21	1325,04
677,39	1333,23
677,58	1218,54
677,77	1234,93
677,95	1236,97
678,14	1277,93
678,32	1241,07
678,51	1187,82
678,70	1255,40
678,88	1273,84
679,07	1216,49
679,25	1314,80
679,44	1220,59
679,63	1234,93
679,81	1282,03
680,00	1204,21
680,18	1347,56
680,37	1282,03
680,55	1296,36
680,74	1249,26
680,93	1249,26
681,11	1255,40
681,30	1245,16
681,48	1282,03
681,67	1247,21
681,85	1222,64
682,04	1241,07
682,23	1282,03
682,41	1351,66
682,60	1277,93
682,78	1228,78
682,97	1208,30
683,15	1322,99
683,34	1275,88
683,53	1277,93
683,71	1234,93
683,90	1271,79
684,08	1243,12
684,27	1298,41
684,45	1243,12
684,64	1284,08
684,82	1282,03
685,01	1282,03
685,19	1292,27
685,38	1341,42
685,57	1320,94
685,75	1355,76
685,94	1222,64
686,12	1298,41
686,31	1335,28
686,49	1259,50
686,68	1253,36
686,86	1282,03
687,05	1353,71
687,23	1298,41
687,42	1236,97
687,60	1290,22
687,79	1282,03
687,97	1220,59
688,16	1253,36
688,34	1255,40
688,53	1206,25
688,71	1304,56
688,90	1191,92
689,08	1320,94
689,27	1210,35
689,45	1306,60
689,64	1257,45
689,82	1230,83
690,01	1249,26
690,19	1273,84
690,38	1294,32
690,56	1257,45
690,75	1241,07
690,93	1261,55
691,12	1284,08
691,30	1331,18
691,49	1249,26
691,67	1335,28
691,86	1245,16
692,04	1329,13
692,23	1282,03
692,41	1239,02
692,60	1294,32
692,78	1222,64
692,97	1298,41
693,15	1322,99
693,34	1206,25
693,52	1288,17
693,71	1308,65
693,89	1314,80
694,08	1267,69
694,26	1269,74
694,44	1331,18
694,63	1265,64
694,81	1247,21
695,00	1337,32
695,18	1249,26
695,37	1298,41
695,55	1304,56
695,74	1239,02
695,92	1302,51
696,10	1208,30
696,29	1226,73
696,47	1257,45
696,66	1320,94
696,84	1265,64
697,03	1234,93
697,21	1282,03
697,40	1296,36
697,58	1245,16
697,76	1275,88
697,95	1249,26
698,13	1245,16
698,32	1271,79
698,50	1257,45
698,68	1269,74
698,87	1286,12
699,05	1247,21
699,24	1327,08
699,42	1236,97
699,61	1290,22
699,79	1286,12
699,97	1282,03
700,16	1322,99
700,34	1269,74
700,53	1269,74
700,71	1300,46
700,89	1269,74
701,08	1251,31
701,26	1214,45
701,45	1275,88
701,63	1265,64
701,81	1279,98
702,00	1304,56
702,18	1214,45
702,37	1239,02
702,55	1224,69
702,73	1320,94
702,92	1294,32
703,10	1243,12
703,28	1329,13
703,47	1259,50
703,65	1302,51
703,84	1253,36
704,02	1282,03
704,20	1286,12
704,39	1374,19
704,57	1263,60
704,75	1232,88
704,94	1333,23
705,12	1259,50
705,30	1241,07
705,49	1241,07
705,67	1290,22
705,86	1245,16
706,04	1277,93
706,22	1314,80
706,41	1316,84
706,59	1304,56
706,77	1312,75
706,96	1329,13
707,14	1318,89
707,32	1298,41
707,51	1282,03
707,69	1322,99
707,87	1322,99
708,06	1232,88
708,24	1253,36
708,42	1187,82
708,61	1253,36
708,79	1230,83
708,97	1253,36
709,16	1308,65
709,34	1216,49
709,52	1273,84
709,71	1279,98
709,89	1322,99
710,07	1306,60
710,26	1345,52
710,44	1327,08
710,62	1230,83
710,80	1245,16
710,99	1282,03
711,17	1267,69
711,35	1241,07
711,54	1306,60
711,72	1329,13
711,90	1306,60
712,09	1310,70
712,27	1249,26
712,45	1255,40
712,63	1257,45
712,82	1259,50
713,00	1249,26
713,18	1296,36
713,37	1273,84
713,55	1232,88
713,73	1277,93
713,91	1292,27
714,10	1263,60
714,28	1282,03
714,46	1312,75
714,65	1316,84
714,83	1271,79
715,01	1355,76
715,19	1273,84
715,38	1318,89
715,56	1212,40
715,74	1271,79
715,92	1218,54
716,11	1230,83
716,29	1257,45
716,47	1320,94
716,65	1255,40
716,84	1273,84
717,02	1265,64
717,20	1273,84
717,38	1230,83
717,57	1277,93
717,75	1363,95
717,93	1251,31
718,11	1261,55
718,30	1271,79
718,48	1279,98
718,66	1298,41
718,84	1265,64
719,03	1230,83
719,21	1351,66
719,39	1337,32
719,57	1243,12
719,75	1232,88
719,94	1257,45
720,12	1257,45
720,30	1218,54
720,48	1273,84
720,67	1273,84
720,85	1253,36
721,03	1261,55
721,21	1361,90
721,39	1310,70
721,58	1284,08
721,76	1257,45
721,94	1333,23
722,12	1257,45
722,30	1204,21
722,49	1228,78
722,67	1249,26
722,85	1300,46
723,03	1331,18
723,21	1292,27
723,40	1239,02
723,58	1310,70
723,76	1257,45
723,94	1298,41
724,12	1177,58
724,30	1370,09
724,49	1316,84
724,67	1249,26
724,85	1257,45
725,03	1288,17
725,21	1273,84
725,40	1210,35
725,58	1351,66
725,76	1304,56
725,94	1298,41
726,12	1269,74
726,30	1269,74
726,49	1249,26
726,67	1327,08
726,85	1279,98
727,03	1294,32
727,21	1226,73
727,39	1320,94
727,57	1230,83
727,76	1300,46
727,94	1290,22
728,12	1228,78
728,30	1316,84
728,48	1282,03
728,66	1249,26
728,84	1259,50
729,03	1226,73
729,21	1306,60
729,39	1320,94
729,57	1277,93
729,75	1279,98
729,93	1228,78
730,11	1294,32
730,30	1302,51
730,48	1259,50
730,66	1232,88
730,84	1290,22
731,02	1191,92
731,20	1267,69
731,38	1290,22
731,56	1241,07
731,74	1236,97
731,93	1296,36
732,11	1308,65
732,29	1277,93
732,47	1271,79
732,65	1249,26
732,83	1210,35
733,01	1241,07
733,19	1193,97
733,37	1294,32
733,56	1243,12
733,74	1228,78
733,92	1277,93
734,10	1314,80
734,28	1331,18
734,46	1263,60
734,64	1234,93
734,82	1318,89
735,00	1253,36
735,18	1327,08
735,36	1284,08
735,54	1257,45
735,73	1249,26
735,91	1286,12
736,09	1261,55
736,27	1290,22
736,45	1331,18
736,63	1286,12
736,81	1261,55
736,99	1269,74
737,17	1294,32
737,35	1288,17
737,53	1247,21
737,71	1325,04
737,89	1300,46
738,07	1206,25
738,25	1359,85
738,43	1269,74
738,61	1224,69
738,80	1259,50
738,98	1251,31
739,16	1312,75
739,34	1288,17
739,52	1255,40
739,70	1257,45
739,88	1249,26
740,06	1279,98
740,24	1253,36
740,42	1247,21
740,60	1331,18
740,78	1263,60
740,96	1165,29
741,14	1357,80
741,32	1284,08
741,50	1249,26
741,68	1234,93
741,86	1261,55
742,04	1325,04
742,22	1179,63
742,40	1279,98
742,58	1292,27
742,76	1357,80
742,94	1310,70
743,12	1257,45
743,30	1228,78
743,48	1282,03
743,66	1224,69
743,84	1296,36
744,02	1316,84
744,20	1296,36
744,38	1212,40
744,56	1265,64
744,74	1304,56
744,92	1286,12
745,10	1206,25
745,28	1245,16
745,46	1298,41
745,64	1279,98
745,82	1249,26
746,00	1290,22
746,18	1306,60
746,36	1263,60
746,54	1214,45
746,72	1302,51
746,90	1259,50
747,08	1327,08
747,26	1277,93
747,44	1284,08
747,62	1277,93
747,80	1255,40
747,98	1294,32
748,15	1249,26
748,33	1306,60
748,51	1275,88
748,69	1310,70
748,87	1265,64
749,05	1267,69
749,23	1282,03
749,41	1288,17
749,59	1322,99
749,77	1267,69
749,95	1245,16
750,13	1318,89
750,31	1277,93
750,49	1245,16
750,67	1288,17
750,85	1241,07
751,03	1284,08
751,20	1353,71
751,38	1228,78
751,56	1220,59
751,74	1277,93
751,92	1263,60
752,10	1232,88
752,28	1255,40
752,46	1226,73
752,64	1284,08
752,82	1247,21
753,00	1298,41
753,18	1261,55
753,35	1249,26
753,53	1294,32
753,71	1159,15
753,89	1282,03
754,07	1224,69
754,25	1271,79
754,43	1259,50
754,61	1259,50
754,79	1234,93
754,97	1282,03
755,14	1284,08
755,32	1249,26
755,50	1261,55
755,68	1228,78
755,86	1269,74
756,04	1234,93
756,22	1275,88
756,40	1249,26
756,57	1259,50
756,75	1284,08
756,93	1273,84
757,11	1247,21
757,29	1273,84
757,47	1284,08
757,65	1302,51
757,82	1230,83
758,00	1236,97
758,18	1241,07
758,36	1259,50
758,54	1247,21
758,72	1236,97
758,90	1308,65
759,07	1275,88
759,25	1275,88
759,43	1282,03
759,61	1257,45
759,79	1304,56
759,97	1341,42
760,15	1226,73
760,32	1347,56
760,50	1253,36
760,68	1271,79
760,86	1300,46
761,04	1253,36
761,22	1224,69
761,39	1296,36
761,57	1220,59
761,75	1282,03
761,93	1245,16
762,11	1329,13
762,28	1212,40
762,46	1300,46
762,64	1284,08
762,82	1224,69
763,00	1232,88
763,18	1294,32
763,35	1187,82
763,53	1329,13
763,71	1253,36
763,89	1277,93
764,07	1282,03
764,24	1306,60
764,42	1245,16
764,60	1253,36
764,78	1191,92
764,96	1259,50
765,13	1314,80
765,31	1275,88
765,49	1249,26
765,67	1265,64
765,84	1173,49
766,02	1335,28
766,20	1251,31
766,38	1331,18
766,56	1173,49
766,73	1265,64
766,91	1349,61
767,09	1259,50
767,27	1224,69
767,44	1296,36
767,62	1245,16
767,80	1341,42
767,98	1216,49
768,15	1232,88
768,33	1265,64
768,51	1273,84
768,69	1292,27
768,87	1351,66
769,04	1306,60
769,22	1271,79
769,40	1292,27
769,58	1329,13
769,75	1339,37
769,93	1239,02
770,11	1284,08
770,28	1282,03
770,46	1284,08
770,64	1257,45
770,82	1243,12
770,99	1284,08
771,17	1193,97
771,35	1302,51
771,53	1261,55
771,70	1292,27
771,88	1214,45
772,06	1267,69
772,23	1300,46
772,41	1200,11
772,59	1284,08
772,77	1294,32
772,94	1216,49
773,12	1247,21
773,30	1290,22
773,47	1331,18
773,65	1265,64
773,83	1261,55
774,01	1294,32
774,18	1263,60
774,36	1286,12
774,54	1286,12
774,71	1171,44
774,89	1212,40
775,07	1236,97
775,24	1263,60
775,42	1294,32
775,60	1275,88
775,78	1224,69
775,95	1282,03
776,13	1208,30
776,31	1265,64
776,48	1220,59
776,66	1294,32
776,84	1271,79
777,01	1325,04
777,19	1378,28
777,37	1251,31
777,54	1302,51
777,72	1290,22
777,90	1320,94
778,07	1333,23
778,25	1284,08
778,43	1318,89
778,60	1255,40
778,78	1259,50
778,96	1224,69
779,13	1302,51
779,31	1177,58
779,49	1263,60
779,66	1304,56
779,84	1224,69
780,01	1306,60
780,19	1273,84
780,37	1271,79
780,54	1320,94
780,72	1263,60
780,90	1300,46
781,07	1249,26
781,25	1318,89
781,43	1337,32
781,60	1279,98
781,78	1271,79
781,95	1214,45
782,13	1286,12
782,31	1314,80
782,48	1296,36
782,66	1261,55
782,83	1216,49
783,01	1255,40
783,19	1273,84
783,36	1251,31
783,54	1286,12
783,72	1288,17
783,89	1241,07
784,07	1271,79
784,24	1279,98
784,42	1282,03
784,60	1239,02
784,77	1257,45
784,95	1193,97
785,12	1257,45
785,30	1251,31
785,47	1257,45
785,65	1273,84
785,83	1288,17
786,00	1279,98
786,18	1304,56
786,35	1316,84
786,53	1269,74
786,71	1267,69
786,88	1169,39
787,06	1282,03
787,23	1288,17
787,41	1314,80
787,58	1257,45
787,76	1241,07
787,94	1259,50
788,11	1255,40
788,29	1247,21
788,46	1245,16
788,64	1310,70
788,81	1259,50
788,99	1329,13
789,16	1245,16
789,34	1304,56
789,52	1224,69
789,69	1253,36
789,87	1239,02
790,04	1320,94
790,22	1253,36
790,39	1232,88
790,57	1185,77
790,74	1232,88
790,92	1302,51
791,09	1236,97
791,27	1267,69
791,44	1204,21
791,62	1290,22
791,79	1253,36
791,97	1216,49
792,15	1282,03
792,32	1325,04
792,50	1277,93
792,67	1239,02
792,85	1234,93
793,02	1273,84
793,20	1372,14
793,37	1269,74
793,55	1312,75
793,72	1290,22
793,90	1271,79
794,07	1243,12
794,25	1294,32
794,42	1208,30
794,60	1327,08
794,77	1216,49
794,95	1243,12
795,12	1263,60
795,30	1208,30
795,47	1288,17
795,65	1322,99
795,82	1259,50
796,00	1329,13
796,17	1247,21
796,34	1288,17
796,52	1234,93
796,69	1261,55
796,87	1236,97
797,04	1298,41
797,22	1288,17
797,39	1320,94
797,57	1279,98
797,74	1218,54
797,92	1228,78
798,09	1198,06
798,27	1222,64
798,44	1300,46
798,62	1228,78
798,79	1210,35
798,96	1286,12
799,14	1271,79
799,31	1261,55
799,49	1253,36
799,66	1294,32
799,84	1263,60
800,01	1288,17
800,19	1273,84
800,36	1255,40
800,53	1220,59
800,71	1279,98
800,88	1296,36
801,06	1243,12
801,23	1275,88
801,41	1228,78
801,58	1261,55
801,75	1224,69
801,93	1259,50
802,10	1204,21
802,28	1212,40
802,45	1222,64
802,63	1257,45
802,80	1296,36
802,97	1265,64
803,15	1265,64
803,32	1243,12
803,50	1316,84
803,67	1310,70
803,84	1265,64
804,02	1318,89
804,19	1290,22
804,37	1284,08
804,54	1200,11
804,71	1224,69
804,89	1236,97
805,06	1263,60
805,24	1234,93
805,41	1232,88
805,58	1253,36
805,76	1265,64
805,93	1288,17
806,10	1234,93
806,28	1253,36
806,45	1304,56
806,63	1239,02
806,80	1259,50
806,97	1378,28
807,15	1277,93
807,32	1277,93
807,49	1261,55
807,67	1282,03
807,84	1228,78
808,01	1200,11
808,19	1302,51
808,36	1210,35
808,54	1267,69
808,71	1265,64
808,88	1320,94
809,06	1234,93
809,23	1273,84
809,40	1247,21
809,58	1294,32
809,75	1273,84
809,92	1294,32
810,10	1277,93
810,27	1355,76
810,44	1327,08
810,62	1232,88
810,79	1370,09
810,96	1296,36
811,14	1302,51
811,31	1269,74
811,48	1282,03
811,66	1222,64
811,83	1275,88
812,00	1245,16
812,18	1298,41
812,35	1208,30
812,52	1296,36
812,69	1234,93
812,87	1265,64
813,04	1296,36
813,21	1222,64
813,39	1312,75
813,56	1232,88
813,73	1298,41
813,91	1263,60
814,08	1249,26
814,25	1224,69
814,42	1331,18
814,60	1263,60
814,77	1234,93
814,94	1261,55
815,12	1286,12
815,29	1320,94
815,46	1224,69
815,63	1218,54
815,81	1245,16
815,98	1257,45
816,15	1214,45
816,33	1243,12
816,50	1226,73
816,67	1232,88
816,84	1265,64
817,02	1245,16
817,19	1267,69
817,36	1380,33
817,53	1267,69
817,71	1241,07
817,88	1345,52
818,05	1263,60
818,22	1220,59
818,40	1220,59
818,57	1306,60
818,74	1267,69
818,91	1282,03
819,09	1239,02
819,26	1339,37
819,43	1312,75
819,60	1267,69
819,78	1312,75
819,95	1257,45
820,12	1251,31
820,29	1290,22
820,47	1322,99
820,64	1351,66
820,81	1236,97
820,98	1230,83
821,15	1265,64
821,33	1282,03
821,50	1273,84
821,67	1363,95
821,84	1247,21
822,02	1271,79
822,19	1306,60
822,36	1273,84
822,53	1261,55
822,70	1249,26
822,88	1279,98
823,05	1189,87
823,22	1255,40
823,39	1300,46
823,56	1263,60
823,74	1224,69
823,91	1286,12
824,08	1333,23
824,25	1286,12
824,42	1232,88
824,60	1263,60
824,77	1183,73
824,94	1259,50
825,11	1292,27
825,28	1265,64
825,45	1239,02
825,63	1220,59
825,80	1261,55
825,97	1288,17
826,14	1314,80
826,31	1273,84
826,48	1339,37
826,66	1271,79
826,83	1294,32
827,00	1214,45
827,17	1249,26
827,34	1275,88
827,51	1253,36
827,69	1257,45
827,86	1331,18
828,03	1183,73
828,20	1296,36
828,37	1294,32
828,54	1273,84
828,71	1261,55
828,89	1265,64
829,06	1239,02
829,23	1236,97
829,40	1179,63
829,57	1210,35
829,74	1232,88
829,91	1292,27
830,09	1210,35
830,26	1249,26
830,43	1310,70
830,60	1296,36
830,77	1202,16
830,94	1241,07
831,11	1279,98
831,28	1263,60
831,46	1236,97
831,63	1298,41
831,80	1255,40
831,97	1239,02
832,14	1294,32
832,31	1279,98
832,48	1251,31
832,65	1241,07
832,82	1308,65
832,99	1284,08
833,17	1224,69
833,34	1300,46
833,51	1216,49
833,68	1241,07
833,85	1245,16
834,02	1304,56
834,19	1251,31
834,36	1249,26
834,53	1312,75
834,70	1271,79
834,87	1245,16
835,04	1226,73
835,22	1257,45
835,39	1232,88
835,56	1218,54
835,73	1271,79
835,90	1230,83
836,07	1320,94
836,24	1241,07
836,41	1306,60
836,58	1255,40
836,75	1214,45
836,92	1230,83
837,09	1249,26
837,26	1259,50
837,43	1296,36
837,60	1298,41
837,77	1249,26
837,94	1249,26
838,12	1290,22
838,29	1304,56
838,46	1331,18
838,63	1304,56
838,80	1161,20
838,97	1245,16
839,14	1236,97
839,31	1269,74
839,48	1261,55
839,65	1261,55
839,82	1249,26
839,99	1228,78
840,16	1245,16
840,33	1239,02
840,50	1282,03
840,67	1279,98
840,84	1257,45
841,01	1271,79
841,18	1279,98
841,35	1249,26
841,52	1265,64
841,69	1277,93
841,86	1269,74
842,03	1304,56
842,20	1290,22
842,37	1222,64
842,54	1345,52
842,71	1269,74
842,88	1232,88
843,05	1234,93
843,22	1271,79
843,39	1271,79
843,56	1255,40
843,73	1216,49
843,90	1337,32
844,07	1255,40
844,24	1265,64
844,41	1279,98
844,58	1232,88
844,75	1355,76
844,92	1220,59
845,09	1243,12
845,26	1257,45
845,43	1288,17
845,60	1282,03
845,77	1265,64
845,94	1232,88
846,10	1290,22
846,27	1284,08
846,44	1245,16
846,61	1294,32
846,78	1322,99
846,95	1257,45
847,12	1251,31
847,29	1269,74
847,46	1214,45
847,63	1327,08
847,80	1284,08
847,97	1275,88
848,14	1241,07
848,31	1273,84
848,48	1341,42
848,65	1228,78
848,82	1236,97
848,98	1322,99
849,15	1220,59
849,32	1288,17
849,49	1253,36
849,66	1271,79
849,83	1275,88
850,00	1257,45
850,17	1279,98
850,34	1271,79
850,51	1228,78
850,68	1259,50
850,85	1245,16
851,01	1310,70
851,18	1234,93
851,35	1222,64
851,52	1316,84
851,69	1247,21
851,86	1359,85
852,03	1226,73
852,20	1286,12
852,37	1232,88
852,53	1228,78
852,70	1275,88
852,87	1251,31
853,04	1279,98
853,21	1263,60
853,38	1265,64
853,55	1318,89
853,72	1282,03
853,89	1345,52
854,05	1294,32
854,22	1189,87
854,39	1320,94
854,56	1222,64
854,73	1239,02
854,90	1349,61
855,07	1236,97
855,23	1284,08
855,40	1288,17
855,57	1253,36
855,74	1249,26
855,91	1300,46
856,08	1257,45
856,25	1224,69
856,41	1275,88
856,58	1261,55
856,75	1243,12
856,92	1251,31
857,09	1304,56
857,26	1294,32
857,42	1279,98
857,59	1257,45
857,76	1263,60
857,93	1302,51
858,10	1222,64
858,27	1200,11
858,43	1216,49
858,60	1228,78
858,77	1245,16
858,94	1198,06
859,11	1249,26
859,27	1265,64
859,44	1288,17
859,61	1249,26
859,78	1288,17
859,95	1253,36
860,12	1273,84
860,28	1265,64
860,45	1298,41
860,62	1298,41
860,79	1275,88
860,95	1247,21
861,12	1239,02
861,29	1343,47
861,46	1236,97
861,63	1241,07
861,79	1282,03
861,96	1236,97
862,13	1273,84
862,30	1275,88
862,47	1241,07
862,63	1279,98
862,80	1275,88
862,97	1279,98
863,14	1265,64
863,30	1241,07
863,47	1232,88
863,64	1230,83
863,81	1269,74
863,97	1200,11
864,14	1277,93
864,31	1308,65
864,48	1265,64
864,65	1245,16
864,81	1318,89
864,98	1298,41
865,15	1253,36
865,32	1263,60
865,48	1208,30
865,65	1249,26
865,82	1226,73
865,98	1265,64
866,15	1200,11
866,32	1249,26
866,49	1292,27
866,65	1265,64
866,82	1232,88
866,99	1228,78
867,16	1273,84
867,32	1292,27
867,49	1335,28
867,66	1296,36
867,83	1261,55
867,99	1245,16
868,16	1249,26
868,33	1220,59
868,49	1363,95
868,66	1300,46
868,83	1312,75
868,99	1212,40
869,16	1271,79
869,33	1259,50
869,50	1310,70
869,66	1251,31
869,83	1241,07
870,00	1277,93
870,16	1314,80
870,33	1333,23
870,50	1339,37
870,66	1232,88
870,83	1226,73
871,00	1261,55
871,17	1298,41
871,33	1279,98
871,50	1292,27
871,67	1232,88
871,83	1247,21
872,00	1259,50
872,17	1255,40
872,33	1265,64
872,50	1288,17
872,67	1300,46
872,83	1290,22
873,00	1234,93
873,17	1220,59
873,33	1249,26
873,50	1259,50
873,67	1286,12
873,83	1282,03
874,00	1273,84
874,16	1308,65
874,33	1294,32
874,50	1320,94
874,66	1261,55
874,83	1265,64
875,00	1263,60
875,16	1327,08
875,33	1239,02
875,50	1286,12
875,66	1292,27
875,83	1290,22
875,99	1275,88
876,16	1239,02
876,33	1177,58
876,49	1349,61
876,66	1247,21
876,83	1302,51
876,99	1269,74
877,16	1343,47
877,32	1298,41
877,49	1298,41
877,66	1304,56
877,82	1286,12
877,99	1284,08
878,15	1245,16
878,32	1267,69
878,49	1329,13
878,65	1224,69
878,82	1282,03
878,98	1279,98
879,15	1193,97
879,32	1269,74
879,48	1230,83
879,65	1290,22
879,81	1271,79
879,98	1271,79
880,15	1290,22
880,31	1245,16
880,48	1259,50
880,64	1214,45
880,81	1298,41
880,97	1372,14
881,14	1257,45
881,31	1234,93
881,47	1273,84
881,64	1339,37
881,80	1298,41
881,97	1404,91
882,13	1214,45
882,30	1191,92
882,47	1279,98
882,63	1361,90
882,80	1220,59
882,96	1314,80
883,13	1308,65
883,29	1224,69
883,46	1265,64
883,62	1220,59
883,79	1312,75
883,95	1320,94
884,12	1290,22
884,29	1267,69
884,45	1247,21
884,62	1308,65
884,78	1241,07
884,95	1263,60
885,11	1261,55
885,28	1329,13
885,44	1200,11
885,61	1271,79
885,77	1232,88
885,94	1241,07
886,10	1290,22
886,27	1296,36
886,43	1302,51
886,60	1294,32
886,76	1257,45
886,93	1298,41
887,09	1282,03
887,26	1257,45
887,42	1261,55
887,59	1306,60
887,75	1241,07
887,92	1288,17
888,08	1230,83
888,25	1230,83
888,41	1284,08
888,58	1271,79
888,74	1322,99
888,91	1269,74
>>>>>End Processed Spectral Data<<<<<
