SpectraSuite Data File
++++++++++++++++++++++++++++++++++++
Date: Sun Apr 03 15:20:04 CEST 2016
User: root
Dark Spectrum Present: No
Reference Spectrum Present: No
Number of Sampled Component Spectra: 1
Spectrometers: USB4C02835
Integration Time (usec): 10000 (USB4C02835)
Spectra Averaged: 1 (USB4C02835)
Boxcar Smoothing: 0 (USB4C02835)
Correct for Electrical Dark: No (USB4C02835)
Strobe/Lamp Enabled: No (USB4C02835)
Correct for Detector Non-linearity: No (USB4C02835)
Correct for Stray Light: No (USB4C02835)
Number of Pixels in Processed Spectrum: 3648
>>>>>Begin Processed Spectral Data<<<<<
177,47	1282,03
177,69	1282,03
177,91	1282,03
178,13	1296,36
178,36	1236,97
178,58	1320,94
178,80	1284,08
179,02	1189,87
179,24	1267,69
179,46	1232,88
179,68	1277,93
179,90	1200,11
180,13	1275,88
180,35	1312,75
180,57	1290,22
180,79	1253,36
181,01	1329,13
181,23	1271,79
181,45	1284,08
181,67	1239,02
181,90	1249,26
182,12	1239,02
182,34	1230,83
182,56	1279,98
182,78	1216,49
183,00	1247,21
183,22	1241,07
183,44	1171,44
183,66	1257,45
183,89	1269,74
184,11	1306,60
184,33	1306,60
184,55	1282,03
184,77	1335,28
184,99	1253,36
185,21	1249,26
185,43	1232,88
185,65	1263,60
185,87	1312,75
186,10	1230,83
186,32	1257,45
186,54	1220,59
186,76	1239,02
186,98	1339,37
187,20	1345,52
187,42	1279,98
187,64	1316,84
187,86	1290,22
188,08	1251,31
188,30	1212,40
188,52	1253,36
188,75	1243,12
188,97	1277,93
189,19	1206,25
189,41	1318,89
189,63	1257,45
189,85	1298,41
190,07	1339,37
190,29	1230,83
190,51	1308,65
190,73	1312,75
190,95	1212,40
191,17	1253,36
191,39	1241,07
191,61	1282,03
191,84	1286,12
192,06	1265,64
192,28	1314,80
192,50	1232,88
192,72	1279,98
192,94	1257,45
193,16	1232,88
193,38	1282,03
193,60	1187,82
193,82	1304,56
194,04	1239,02
194,26	1290,22
194,48	1331,18
194,70	1331,18
194,92	1310,70
195,14	1316,84
195,36	1251,31
195,58	1329,13
195,80	1253,36
196,02	1208,30
196,24	1290,22
196,46	1322,99
196,69	1253,36
196,91	1273,84
197,13	1282,03
197,35	1361,90
197,57	1245,16
197,79	1316,84
198,01	1212,40
198,23	1306,60
198,45	1290,22
198,67	1234,93
198,89	1212,40
199,11	1224,69
199,33	1329,13
199,55	1304,56
199,77	1275,88
199,99	1265,64
200,21	1218,54
200,43	1316,84
200,65	1318,89
200,87	1298,41
201,09	1292,27
201,31	1249,26
201,53	1239,02
201,75	1294,32
201,97	1247,21
202,19	1267,69
202,41	1320,94
202,63	1273,84
202,85	1335,28
203,07	1236,97
203,29	1232,88
203,51	1232,88
203,73	1234,93
203,95	1304,56
204,17	1236,97
204,39	1275,88
204,61	1286,12
204,83	1331,18
205,05	1259,50
205,27	1298,41
205,49	1386,47
205,71	1269,74
205,93	1241,07
206,15	1230,83
206,37	1236,97
206,59	1277,93
206,81	1302,51
207,03	1265,64
207,25	1335,28
207,47	1271,79
207,69	1271,79
207,91	1284,08
208,13	1273,84
208,34	1279,98
208,56	1234,93
208,78	1275,88
209,00	1220,59
209,22	1189,87
209,44	1269,74
209,66	1234,93
209,88	1226,73
210,10	1181,68
210,32	1245,16
210,54	1236,97
210,76	1257,45
210,98	1316,84
211,20	1253,36
211,42	1273,84
211,64	1347,56
211,86	1296,36
212,08	1368,04
212,30	1257,45
212,52	1273,84
212,74	1302,51
212,96	1261,55
213,17	1310,70
213,39	1310,70
213,61	1277,93
213,83	1388,52
214,05	1290,22
214,27	1331,18
214,49	1366,00
214,71	1279,98
214,93	1226,73
215,15	1249,26
215,37	1292,27
215,59	1234,93
215,81	1273,84
216,03	1267,69
216,24	1222,64
216,46	1196,01
216,68	1322,99
216,90	1290,22
217,12	1226,73
217,34	1271,79
217,56	1263,60
217,78	1271,79
218,00	1273,84
218,22	1257,45
218,44	1302,51
218,66	1316,84
218,87	1271,79
219,09	1204,21
219,31	1282,03
219,53	1290,22
219,75	1224,69
219,97	1314,80
220,19	1257,45
220,41	1269,74
220,63	1271,79
220,85	1261,55
221,06	1282,03
221,28	1267,69
221,50	1294,32
221,72	1359,85
221,94	1271,79
222,16	1210,35
222,38	1304,56
222,60	1271,79
222,82	1191,92
223,03	1241,07
223,25	1243,12
223,47	1189,87
223,69	1247,21
223,91	1290,22
224,13	1249,26
224,35	1320,94
224,57	1273,84
224,78	1306,60
225,00	1302,51
225,22	1288,17
225,44	1257,45
225,66	1277,93
225,88	1294,32
226,10	1224,69
226,32	1220,59
226,53	1345,52
226,75	1284,08
226,97	1226,73
227,19	1214,45
227,41	1212,40
227,63	1267,69
227,85	1216,49
228,06	1271,79
228,28	1267,69
228,50	1302,51
228,72	1273,84
228,94	1302,51
229,16	1320,94
229,37	1282,03
229,59	1312,75
229,81	1255,40
230,03	1251,31
230,25	1261,55
230,47	1306,60
230,69	1341,42
230,90	1292,27
231,12	1249,26
231,34	1298,41
231,56	1232,88
231,78	1302,51
232,00	1277,93
232,21	1306,60
232,43	1273,84
232,65	1245,16
232,87	1265,64
233,09	1284,08
233,30	1271,79
233,52	1286,12
233,74	1269,74
233,96	1234,93
234,18	1269,74
234,40	1288,17
234,61	1300,46
234,83	1267,69
235,05	1327,08
235,27	1366,00
235,49	1228,78
235,70	1312,75
235,92	1347,56
236,14	1232,88
236,36	1259,50
236,58	1249,26
236,79	1312,75
237,01	1253,36
237,23	1282,03
237,45	1202,16
237,67	1302,51
237,88	1320,94
238,10	1314,80
238,32	1230,83
238,54	1290,22
238,76	1298,41
238,97	1241,07
239,19	1228,78
239,41	1308,65
239,63	1222,64
239,85	1314,80
240,06	1273,84
240,28	1243,12
240,50	1277,93
240,72	1232,88
240,93	1255,40
241,15	1296,36
241,37	1259,50
241,59	1279,98
241,81	1216,49
242,02	1259,50
242,24	1234,93
242,46	1292,27
242,68	1243,12
242,89	1343,47
243,11	1318,89
243,33	1370,09
243,55	1249,26
243,76	1236,97
243,98	1257,45
244,20	1294,32
244,42	1204,21
244,64	1304,56
244,85	1304,56
245,07	1345,52
245,29	1300,46
245,51	1247,21
245,72	1359,85
245,94	1247,21
246,16	1257,45
246,38	1261,55
246,59	1196,01
246,81	1306,60
247,03	1267,69
247,24	1290,22
247,46	1255,40
247,68	1269,74
247,90	1259,50
248,11	1329,13
248,33	1236,97
248,55	1263,60
248,77	1284,08
248,98	1286,12
249,20	1245,16
249,42	1212,40
249,64	1253,36
249,85	1288,17
250,07	1265,64
250,29	1298,41
250,50	1271,79
250,72	1257,45
250,94	1208,30
251,16	1320,94
251,37	1314,80
251,59	1277,93
251,81	1290,22
252,02	1302,51
252,24	1271,79
252,46	1292,27
252,68	1290,22
252,89	1318,89
253,11	1253,36
253,33	1269,74
253,54	1263,60
253,76	1294,32
253,98	1253,36
254,20	1275,88
254,41	1202,16
254,63	1294,32
254,85	1230,83
255,06	1306,60
255,28	1304,56
255,50	1230,83
255,71	1204,21
255,93	1253,36
256,15	1243,12
256,36	1247,21
256,58	1271,79
256,80	1245,16
257,02	1337,32
257,23	1314,80
257,45	1265,64
257,67	1298,41
257,88	1251,31
258,10	1320,94
258,32	1308,65
258,53	1304,56
258,75	1273,84
258,97	1218,54
259,18	1191,92
259,40	1230,83
259,62	1251,31
259,83	1228,78
260,05	1337,32
260,27	1320,94
260,48	1339,37
260,70	1232,88
260,92	1265,64
261,13	1253,36
261,35	1236,97
261,57	1292,27
261,78	1269,74
262,00	1277,93
262,22	1304,56
262,43	1286,12
262,65	1173,49
262,86	1230,83
263,08	1265,64
263,30	1265,64
263,51	1236,97
263,73	1253,36
263,95	1245,16
264,16	1261,55
264,38	1331,18
264,60	1337,32
264,81	1322,99
265,03	1282,03
265,25	1355,76
265,46	1241,07
265,68	1279,98
265,89	1290,22
266,11	1277,93
266,33	1353,71
266,54	1282,03
266,76	1269,74
266,98	1271,79
267,19	1325,04
267,41	1206,25
267,62	1271,79
267,84	1249,26
268,06	1265,64
268,27	1308,65
268,49	1150,96
268,70	1224,69
268,92	1271,79
269,14	1234,93
269,35	1255,40
269,57	1259,50
269,79	1279,98
270,00	1251,31
270,22	1263,60
270,43	1185,77
270,65	1269,74
270,87	1294,32
271,08	1314,80
271,30	1294,32
271,51	1331,18
271,73	1290,22
271,95	1273,84
272,16	1273,84
272,38	1255,40
272,59	1312,75
272,81	1290,22
273,02	1312,75
273,24	1245,16
273,46	1288,17
273,67	1329,13
273,89	1290,22
274,10	1282,03
274,32	1290,22
274,54	1363,95
274,75	1337,32
274,97	1306,60
275,18	1220,59
275,40	1222,64
275,61	1284,08
275,83	1327,08
276,05	1241,07
276,26	1259,50
276,48	1271,79
276,69	1318,89
276,91	1318,89
277,12	1282,03
277,34	1169,39
277,55	1265,64
277,77	1263,60
277,99	1292,27
278,20	1241,07
278,42	1325,04
278,63	1308,65
278,85	1241,07
279,06	1243,12
279,28	1308,65
279,49	1228,78
279,71	1257,45
279,93	1284,08
280,14	1331,18
280,36	1273,84
280,57	1267,69
280,79	1267,69
281,00	1304,56
281,22	1351,66
281,43	1282,03
281,65	1275,88
281,86	1312,75
282,08	1228,78
282,29	1312,75
282,51	1142,77
282,73	1212,40
282,94	1337,32
283,16	1277,93
283,37	1247,21
283,59	1284,08
283,80	1300,46
284,02	1253,36
284,23	1296,36
284,45	1302,51
284,66	1294,32
284,88	1247,21
285,09	1322,99
285,31	1306,60
285,52	1333,23
285,74	1265,64
285,95	1312,75
286,17	1294,32
286,38	1253,36
286,60	1212,40
286,81	1282,03
287,03	1245,16
287,24	1218,54
287,46	1241,07
287,67	1253,36
287,89	1288,17
288,10	1318,89
288,32	1306,60
288,53	1187,82
288,75	1282,03
288,96	1277,93
289,18	1245,16
289,39	1310,70
289,61	1282,03
289,82	1314,80
290,04	1267,69
290,25	1288,17
290,47	1310,70
290,68	1275,88
290,90	1331,18
291,11	1224,69
291,33	1312,75
291,54	1251,31
291,76	1292,27
291,97	1343,47
292,18	1282,03
292,40	1208,30
292,61	1202,16
292,83	1253,36
293,04	1314,80
293,26	1284,08
293,47	1253,36
293,69	1306,60
293,90	1331,18
294,12	1310,70
294,33	1302,51
294,55	1249,26
294,76	1337,32
294,97	1341,42
295,19	1339,37
295,40	1255,40
295,62	1265,64
295,83	1226,73
296,05	1255,40
296,26	1253,36
296,48	1275,88
296,69	1331,18
296,90	1277,93
297,12	1269,74
297,33	1282,03
297,55	1226,73
297,76	1314,80
297,98	1265,64
298,19	1298,41
298,41	1214,45
298,62	1261,55
298,83	1300,46
299,05	1306,60
299,26	1228,78
299,48	1347,56
299,69	1300,46
299,90	1273,84
300,12	1208,30
300,33	1282,03
300,55	1282,03
300,76	1273,84
300,98	1304,56
301,19	1343,47
301,40	1279,98
301,62	1292,27
301,83	1335,28
302,05	1286,12
302,26	1265,64
302,47	1234,93
302,69	1253,36
302,90	1210,35
303,12	1259,50
303,33	1243,12
303,54	1243,12
303,76	1265,64
303,97	1298,41
304,19	1298,41
304,40	1310,70
304,61	1245,16
304,83	1304,56
305,04	1220,59
305,26	1310,70
305,47	1279,98
305,68	1224,69
305,90	1288,17
306,11	1273,84
306,33	1286,12
306,54	1243,12
306,75	1298,41
306,97	1214,45
307,18	1288,17
307,39	1265,64
307,61	1259,50
307,82	1245,16
308,04	1269,74
308,25	1275,88
308,46	1333,23
308,68	1271,79
308,89	1249,26
309,10	1210,35
309,32	1298,41
309,53	1218,54
309,74	1331,18
309,96	1306,60
310,17	1318,89
310,39	1181,68
310,60	1284,08
310,81	1269,74
311,03	1255,40
311,24	1322,99
311,45	1306,60
311,67	1320,94
311,88	1273,84
312,09	1247,21
312,31	1288,17
312,52	1251,31
312,73	1292,27
312,95	1236,97
313,16	1296,36
313,37	1335,28
313,59	1253,36
313,80	1325,04
314,01	1265,64
314,23	1277,93
314,44	1277,93
314,65	1275,88
314,87	1347,56
315,08	1296,36
315,29	1236,97
315,51	1257,45
315,72	1275,88
315,93	1316,84
316,15	1275,88
316,36	1239,02
316,57	1341,42
316,79	1296,36
317,00	1279,98
317,21	1325,04
317,43	1298,41
317,64	1251,31
317,85	1345,52
318,07	1224,69
318,28	1273,84
318,49	1279,98
318,70	1306,60
318,92	1200,11
319,13	1271,79
319,34	1296,36
319,56	1320,94
319,77	1259,50
319,98	1230,83
320,20	1306,60
320,41	1271,79
320,62	1226,73
320,83	1232,88
321,05	1345,52
321,26	1294,32
321,47	1222,64
321,69	1216,49
321,90	1259,50
322,11	1290,22
322,32	1269,74
322,54	1271,79
322,75	1290,22
322,96	1261,55
323,18	1265,64
323,39	1232,88
323,60	1265,64
323,81	1339,37
324,03	1243,12
324,24	1322,99
324,45	1267,69
324,66	1294,32
324,88	1273,84
325,09	1320,94
325,30	1273,84
325,52	1269,74
325,73	1236,97
325,94	1335,28
326,15	1318,89
326,37	1339,37
326,58	1296,36
326,79	1220,59
327,00	1290,22
327,22	1236,97
327,43	1239,02
327,64	1212,40
327,85	1196,01
328,07	1386,47
328,28	1275,88
328,49	1232,88
328,70	1267,69
328,92	1292,27
329,13	1234,93
329,34	1236,97
329,55	1226,73
329,76	1308,65
329,98	1263,60
330,19	1247,21
330,40	1271,79
330,61	1286,12
330,83	1335,28
331,04	1308,65
331,25	1245,16
331,46	1218,54
331,68	1304,56
331,89	1284,08
332,10	1239,02
332,31	1253,36
332,52	1234,93
332,74	1304,56
332,95	1263,60
333,16	1286,12
333,37	1247,21
333,58	1306,60
333,80	1249,26
334,01	1298,41
334,22	1159,15
334,43	1230,83
334,64	1300,46
334,86	1294,32
335,07	1265,64
335,28	1325,04
335,49	1265,64
335,70	1265,64
335,92	1247,21
336,13	1279,98
336,34	1245,16
336,55	1239,02
336,76	1308,65
336,98	1228,78
337,19	1300,46
337,40	1314,80
337,61	1331,18
337,82	1273,84
338,04	1220,59
338,25	1304,56
338,46	1286,12
338,67	1359,85
338,88	1351,66
339,09	1282,03
339,31	1288,17
339,52	1312,75
339,73	1290,22
339,94	1296,36
340,15	1271,79
340,36	1300,46
340,58	1296,36
340,79	1318,89
341,00	1208,30
341,21	1279,98
341,42	1241,07
341,63	1265,64
341,85	1277,93
342,06	1312,75
342,27	1222,64
342,48	1226,73
342,69	1247,21
342,90	1325,04
343,12	1269,74
343,33	1286,12
343,54	1259,50
343,75	1245,16
343,96	1308,65
344,17	1263,60
344,38	1210,35
344,60	1247,21
344,81	1204,21
345,02	1263,60
345,23	1236,97
345,44	1249,26
345,65	1253,36
345,86	1269,74
346,07	1318,89
346,29	1275,88
346,50	1327,08
346,71	1255,40
346,92	1294,32
347,13	1357,80
347,34	1308,65
347,55	1245,16
347,76	1308,65
347,98	1214,45
348,19	1284,08
348,40	1232,88
348,61	1224,69
348,82	1277,93
349,03	1232,88
349,24	1177,58
349,45	1247,21
349,66	1236,97
349,88	1236,97
350,09	1239,02
350,30	1320,94
350,51	1255,40
350,72	1200,11
350,93	1335,28
351,14	1224,69
351,35	1333,23
351,56	1206,25
351,77	1241,07
351,99	1187,82
352,20	1253,36
352,41	1263,60
352,62	1214,45
352,83	1298,41
353,04	1331,18
353,25	1249,26
353,46	1259,50
353,67	1198,06
353,88	1255,40
354,09	1363,95
354,30	1239,02
354,52	1265,64
354,73	1322,99
354,94	1292,27
355,15	1265,64
355,36	1290,22
355,57	1202,16
355,78	1257,45
355,99	1234,93
356,20	1284,08
356,41	1241,07
356,62	1277,93
356,83	1277,93
357,04	1294,32
357,25	1271,79
357,46	1271,79
357,68	1296,36
357,89	1325,04
358,10	1232,88
358,31	1290,22
358,52	1286,12
358,73	1316,84
358,94	1279,98
359,15	1290,22
359,36	1333,23
359,57	1298,41
359,78	1277,93
359,99	1339,37
360,20	1312,75
360,41	1200,11
360,62	1288,17
360,83	1312,75
361,04	1277,93
361,25	1302,51
361,46	1302,51
361,67	1271,79
361,88	1261,55
362,09	1286,12
362,30	1277,93
362,51	1259,50
362,72	1259,50
362,93	1279,98
363,14	1292,27
363,35	1275,88
363,56	1290,22
363,78	1269,74
363,99	1329,13
364,20	1275,88
364,41	1318,89
364,62	1259,50
364,83	1339,37
365,04	1239,02
365,25	1349,61
365,46	1271,79
365,67	1271,79
365,88	1230,83
366,09	1304,56
366,30	1286,12
366,51	1288,17
366,72	1284,08
366,93	1257,45
367,14	1224,69
367,35	1341,42
367,56	1331,18
367,77	1290,22
367,98	1361,90
368,18	1279,98
368,39	1320,94
368,60	1298,41
368,81	1247,21
369,02	1345,52
369,23	1253,36
369,44	1318,89
369,65	1243,12
369,86	1255,40
370,07	1302,51
370,28	1249,26
370,49	1228,78
370,70	1327,08
370,91	1277,93
371,12	1296,36
371,33	1300,46
371,54	1312,75
371,75	1198,06
371,96	1249,26
372,17	1300,46
372,38	1284,08
372,59	1232,88
372,80	1290,22
373,01	1282,03
373,22	1236,97
373,43	1302,51
373,64	1286,12
373,85	1304,56
374,06	1284,08
374,26	1296,36
374,47	1206,25
374,68	1327,08
374,89	1265,64
375,10	1257,45
375,31	1271,79
375,52	1275,88
375,73	1273,84
375,94	1236,97
376,15	1320,94
376,36	1257,45
376,57	1257,45
376,78	1226,73
376,99	1327,08
377,20	1230,83
377,40	1232,88
377,61	1239,02
377,82	1251,31
378,03	1288,17
378,24	1271,79
378,45	1202,16
378,66	1263,60
378,87	1263,60
379,08	1279,98
379,29	1345,52
379,50	1310,70
379,71	1286,12
379,91	1212,40
380,12	1271,79
380,33	1212,40
380,54	1290,22
380,75	1255,40
380,96	1306,60
381,17	1249,26
381,38	1300,46
381,59	1282,03
381,80	1253,36
382,00	1282,03
382,21	1345,52
382,42	1222,64
382,63	1282,03
382,84	1294,32
383,05	1228,78
383,26	1251,31
383,47	1302,51
383,68	1288,17
383,88	1320,94
384,09	1347,56
384,30	1282,03
384,51	1331,18
384,72	1320,94
384,93	1277,93
385,14	1232,88
385,35	1265,64
385,55	1245,16
385,76	1271,79
385,97	1368,04
386,18	1230,83
386,39	1267,69
386,60	1316,84
386,81	1269,74
387,02	1259,50
387,22	1259,50
387,43	1216,49
387,64	1310,70
387,85	1308,65
388,06	1269,74
388,27	1304,56
388,48	1333,23
388,68	1284,08
388,89	1314,80
389,10	1253,36
389,31	1196,01
389,52	1247,21
389,73	1290,22
389,93	1337,32
390,14	1243,12
390,35	1290,22
390,56	1253,36
390,77	1286,12
390,98	1257,45
391,18	1265,64
391,39	1316,84
391,60	1255,40
391,81	1220,59
392,02	1234,93
392,23	1257,45
392,43	1345,52
392,64	1253,36
392,85	1241,07
393,06	1277,93
393,27	1181,68
393,47	1263,60
393,68	1298,41
393,89	1230,83
394,10	1167,34
394,31	1292,27
394,52	1249,26
394,72	1269,74
394,93	1304,56
395,14	1282,03
395,35	1351,66
395,56	1214,45
395,76	1273,84
395,97	1265,64
396,18	1249,26
396,39	1296,36
396,60	1218,54
396,80	1353,71
397,01	1279,98
397,22	1245,16
397,43	1288,17
397,64	1339,37
397,84	1290,22
398,05	1261,55
398,26	1298,41
398,47	1218,54
398,67	1241,07
398,88	1290,22
399,09	1200,11
399,30	1279,98
399,51	1232,88
399,71	1284,08
399,92	1255,40
400,13	1261,55
400,34	1198,06
400,54	1277,93
400,75	1347,56
400,96	1228,78
401,17	1204,21
401,37	1296,36
401,58	1277,93
401,79	1288,17
402,00	1261,55
402,21	1335,28
402,41	1282,03
402,62	1214,45
402,83	1304,56
403,04	1282,03
403,24	1167,34
403,45	1345,52
403,66	1298,41
403,87	1239,02
404,07	1243,12
404,28	1210,35
404,49	1335,28
404,70	1265,64
404,90	1290,22
405,11	1232,88
405,32	1290,22
405,52	1284,08
405,73	1243,12
405,94	1243,12
406,15	1306,60
406,35	1273,84
406,56	1339,37
406,77	1275,88
406,98	1345,52
407,18	1259,50
407,39	1247,21
407,60	1322,99
407,80	1277,93
408,01	1245,16
408,22	1263,60
408,43	1253,36
408,63	1241,07
408,84	1271,79
409,05	1288,17
409,25	1267,69
409,46	1320,94
409,67	1245,16
409,88	1335,28
410,08	1253,36
410,29	1310,70
410,50	1251,31
410,70	1337,32
410,91	1163,25
411,12	1329,13
411,32	1263,60
411,53	1290,22
411,74	1216,49
411,95	1261,55
412,15	1191,92
412,36	1331,18
412,57	1284,08
412,77	1284,08
412,98	1239,02
413,19	1263,60
413,39	1259,50
413,60	1259,50
413,81	1239,02
414,01	1267,69
414,22	1230,83
414,43	1298,41
414,63	1347,56
414,84	1314,80
415,05	1310,70
415,25	1331,18
415,46	1267,69
415,67	1222,64
415,87	1306,60
416,08	1312,75
416,29	1284,08
416,49	1277,93
416,70	1239,02
416,91	1286,12
417,11	1325,04
417,32	1257,45
417,53	1257,45
417,73	1310,70
417,94	1259,50
418,15	1322,99
418,35	1388,52
418,56	1259,50
418,77	1273,84
418,97	1314,80
419,18	1261,55
419,38	1187,82
419,59	1247,21
419,80	1232,88
420,00	1284,08
420,21	1282,03
420,42	1251,31
420,62	1261,55
420,83	1269,74
421,04	1288,17
421,24	1300,46
421,45	1232,88
421,65	1282,03
421,86	1243,12
422,07	1269,74
422,27	1279,98
422,48	1265,64
422,69	1322,99
422,89	1322,99
423,10	1279,98
423,30	1310,70
423,51	1300,46
423,72	1290,22
423,92	1296,36
424,13	1245,16
424,33	1267,69
424,54	1271,79
424,75	1337,32
424,95	1327,08
425,16	1218,54
425,36	1230,83
425,57	1312,75
425,78	1304,56
425,98	1269,74
426,19	1290,22
426,39	1239,02
426,60	1294,32
426,81	1255,40
427,01	1220,59
427,22	1316,84
427,42	1236,97
427,63	1265,64
427,83	1294,32
428,04	1312,75
428,25	1255,40
428,45	1292,27
428,66	1292,27
428,86	1239,02
429,07	1269,74
429,28	1263,60
429,48	1185,77
429,69	1292,27
429,89	1267,69
430,10	1255,40
430,30	1282,03
430,51	1275,88
430,71	1257,45
430,92	1302,51
431,13	1202,16
431,33	1298,41
431,54	1243,12
431,74	1316,84
431,95	1279,98
432,15	1282,03
432,36	1220,59
432,56	1345,52
432,77	1263,60
432,98	1333,23
433,18	1279,98
433,39	1316,84
433,59	1214,45
433,80	1304,56
434,00	1232,88
434,21	1335,28
434,41	1251,31
434,62	1206,25
434,82	1249,26
435,03	1339,37
435,23	1282,03
435,44	1337,32
435,64	1198,06
435,85	1302,51
436,06	1296,36
436,26	1198,06
436,47	1269,74
436,67	1318,89
436,88	1296,36
437,08	1273,84
437,29	1284,08
437,49	1247,21
437,70	1296,36
437,90	1263,60
438,11	1292,27
438,31	1296,36
438,52	1265,64
438,72	1322,99
438,93	1189,87
439,13	1265,64
439,34	1208,30
439,54	1292,27
439,75	1290,22
439,95	1290,22
440,16	1251,31
440,36	1175,53
440,57	1277,93
440,77	1224,69
440,98	1310,70
441,18	1255,40
441,39	1312,75
441,59	1288,17
441,80	1224,69
442,00	1259,50
442,21	1265,64
442,41	1218,54
442,62	1228,78
442,82	1243,12
443,02	1228,78
443,23	1247,21
443,43	1220,59
443,64	1290,22
443,84	1257,45
444,05	1314,80
444,25	1298,41
444,46	1173,49
444,66	1316,84
444,87	1273,84
445,07	1300,46
445,28	1259,50
445,48	1257,45
445,69	1298,41
445,89	1333,23
446,09	1300,46
446,30	1232,88
446,50	1277,93
446,71	1304,56
446,91	1212,40
447,12	1255,40
447,32	1294,32
447,53	1325,04
447,73	1275,88
447,93	1298,41
448,14	1249,26
448,34	1249,26
448,55	1241,07
448,75	1304,56
448,96	1279,98
449,16	1226,73
449,36	1325,04
449,57	1269,74
449,77	1239,02
449,98	1241,07
450,18	1255,40
450,39	1296,36
450,59	1288,17
450,79	1349,61
451,00	1208,30
451,20	1234,93
451,41	1298,41
451,61	1216,49
451,81	1224,69
452,02	1259,50
452,22	1302,51
452,43	1296,36
452,63	1239,02
452,84	1312,75
453,04	1232,88
453,24	1255,40
453,45	1292,27
453,65	1200,11
453,86	1275,88
454,06	1216,49
454,26	1216,49
454,47	1267,69
454,67	1351,66
454,87	1269,74
455,08	1302,51
455,28	1335,28
455,49	1208,30
455,69	1300,46
455,89	1322,99
456,10	1314,80
456,30	1325,04
456,51	1234,93
456,71	1277,93
456,91	1304,56
457,12	1259,50
457,32	1243,12
457,52	1249,26
457,73	1271,79
457,93	1286,12
458,14	1224,69
458,34	1230,83
458,54	1322,99
458,75	1294,32
458,95	1298,41
459,15	1265,64
459,36	1202,16
459,56	1277,93
459,76	1279,98
459,97	1310,70
460,17	1228,78
460,37	1257,45
460,58	1316,84
460,78	1263,60
460,99	1261,55
461,19	1288,17
461,39	1277,93
461,60	1212,40
461,80	1243,12
462,00	1277,93
462,21	1282,03
462,41	1267,69
462,61	1314,80
462,82	1234,93
463,02	1259,50
463,22	1241,07
463,43	1292,27
463,63	1298,41
463,83	1255,40
464,04	1224,69
464,24	1259,50
464,44	1314,80
464,64	1290,22
464,85	1273,84
465,05	1271,79
465,25	1251,31
465,46	1214,45
465,66	1232,88
465,86	1343,47
466,07	1253,36
466,27	1263,60
466,47	1224,69
466,68	1288,17
466,88	1273,84
467,08	1284,08
467,29	1306,60
467,49	1236,97
467,69	1314,80
467,89	1269,74
468,10	1210,35
468,30	1284,08
468,50	1312,75
468,71	1282,03
468,91	1253,36
469,11	1296,36
469,31	1273,84
469,52	1273,84
469,72	1245,16
469,92	1329,13
470,13	1247,21
470,33	1300,46
470,53	1208,30
470,73	1277,93
470,94	1286,12
471,14	1255,40
471,34	1314,80
471,54	1257,45
471,75	1261,55
471,95	1366,00
472,15	1214,45
472,36	1202,16
472,56	1308,65
472,76	1255,40
472,96	1218,54
473,17	1241,07
473,37	1284,08
473,57	1243,12
473,77	1271,79
473,98	1196,01
474,18	1277,93
474,38	1226,73
474,58	1230,83
474,79	1320,94
474,99	1247,21
475,19	1234,93
475,39	1271,79
475,60	1292,27
475,80	1290,22
476,00	1232,88
476,20	1257,45
476,41	1249,26
476,61	1279,98
476,81	1298,41
477,01	1304,56
477,21	1253,36
477,42	1267,69
477,62	1159,15
477,82	1257,45
478,02	1220,59
478,23	1275,88
478,43	1294,32
478,63	1241,07
478,83	1247,21
479,03	1296,36
479,24	1214,45
479,44	1318,89
479,64	1265,64
479,84	1273,84
480,04	1245,16
480,25	1290,22
480,45	1261,55
480,65	1189,87
480,85	1286,12
481,06	1232,88
481,26	1402,86
481,46	1335,28
481,66	1255,40
481,86	1290,22
482,06	1257,45
482,27	1279,98
482,47	1224,69
482,67	1294,32
482,87	1255,40
483,07	1314,80
483,28	1234,93
483,48	1251,31
483,68	1245,16
483,88	1284,08
484,08	1189,87
484,29	1265,64
484,49	1249,26
484,69	1261,55
484,89	1314,80
485,09	1308,65
485,29	1234,93
485,50	1294,32
485,70	1284,08
485,90	1286,12
486,10	1275,88
486,30	1263,60
486,50	1206,25
486,71	1253,36
486,91	1339,37
487,11	1265,64
487,31	1300,46
487,51	1288,17
487,71	1257,45
487,91	1234,93
488,12	1243,12
488,32	1236,97
488,52	1249,26
488,72	1249,26
488,92	1247,21
489,12	1253,36
489,32	1279,98
489,53	1239,02
489,73	1261,55
489,93	1288,17
490,13	1282,03
490,33	1255,40
490,53	1216,49
490,73	1284,08
490,94	1243,12
491,14	1241,07
491,34	1234,93
491,54	1259,50
491,74	1232,88
491,94	1279,98
492,14	1279,98
492,34	1298,41
492,54	1251,31
492,75	1306,60
492,95	1222,64
493,15	1265,64
493,35	1267,69
493,55	1308,65
493,75	1282,03
493,95	1234,93
494,15	1255,40
494,35	1331,18
494,56	1325,04
494,76	1241,07
494,96	1333,23
495,16	1284,08
495,36	1304,56
495,56	1316,84
495,76	1282,03
495,96	1200,11
496,16	1267,69
496,36	1294,32
496,56	1255,40
496,77	1241,07
496,97	1157,10
497,17	1310,70
497,37	1224,69
497,57	1331,18
497,77	1239,02
497,97	1314,80
498,17	1298,41
498,37	1294,32
498,57	1241,07
498,77	1312,75
498,97	1290,22
499,17	1288,17
499,38	1265,64
499,58	1263,60
499,78	1277,93
499,98	1306,60
500,18	1249,26
500,38	1243,12
500,58	1243,12
500,78	1339,37
500,98	1314,80
501,18	1263,60
501,38	1333,23
501,58	1200,11
501,78	1322,99
501,98	1275,88
502,18	1325,04
502,38	1279,98
502,58	1298,41
502,78	1294,32
502,98	1290,22
503,18	1245,16
503,38	1226,73
503,59	1316,84
503,79	1241,07
503,99	1259,50
504,19	1288,17
504,39	1366,00
504,59	1232,88
504,79	1273,84
504,99	1382,38
505,19	1249,26
505,39	1294,32
505,59	1245,16
505,79	1222,64
505,99	1193,97
506,19	1277,93
506,39	1325,04
506,59	1220,59
506,79	1351,66
506,99	1247,21
507,19	1310,70
507,39	1322,99
507,59	1277,93
507,79	1236,97
507,99	1216,49
508,19	1275,88
508,39	1335,28
508,59	1277,93
508,79	1253,36
508,99	1271,79
509,19	1349,61
509,39	1212,40
509,59	1304,56
509,79	1337,32
509,99	1310,70
510,19	1322,99
510,39	1296,36
510,59	1261,55
510,79	1220,59
510,99	1251,31
511,19	1282,03
511,39	1290,22
511,59	1298,41
511,79	1261,55
511,99	1257,45
512,19	1290,22
512,38	1234,93
512,58	1294,32
512,78	1249,26
512,98	1282,03
513,18	1263,60
513,38	1308,65
513,58	1191,92
513,78	1224,69
513,98	1275,88
514,18	1267,69
514,38	1263,60
514,58	1288,17
514,78	1243,12
514,98	1259,50
515,18	1245,16
515,38	1290,22
515,58	1222,64
515,78	1300,46
515,98	1224,69
516,18	1322,99
516,38	1282,03
516,57	1284,08
516,77	1306,60
516,97	1351,66
517,17	1282,03
517,37	1269,74
517,57	1241,07
517,77	1255,40
517,97	1241,07
518,17	1243,12
518,37	1263,60
518,57	1206,25
518,77	1300,46
518,97	1261,55
519,16	1265,64
519,36	1222,64
519,56	1255,40
519,76	1216,49
519,96	1292,27
520,16	1327,08
520,36	1294,32
520,56	1286,12
520,76	1316,84
520,96	1257,45
521,16	1255,40
521,35	1257,45
521,55	1277,93
521,75	1302,51
521,95	1345,52
522,15	1245,16
522,35	1245,16
522,55	1300,46
522,75	1361,90
522,95	1275,88
523,14	1363,95
523,34	1218,54
523,54	1296,36
523,74	1286,12
523,94	1327,08
524,14	1208,30
524,34	1318,89
524,54	1337,32
524,73	1296,36
524,93	1302,51
525,13	1259,50
525,33	1284,08
525,53	1292,27
525,73	1302,51
525,93	1286,12
526,13	1263,60
526,32	1298,41
526,52	1300,46
526,72	1322,99
526,92	1210,35
527,12	1282,03
527,32	1282,03
527,52	1298,41
527,71	1282,03
527,91	1327,08
528,11	1298,41
528,31	1341,42
528,51	1206,25
528,71	1359,85
528,90	1222,64
529,10	1318,89
529,30	1243,12
529,50	1275,88
529,70	1308,65
529,90	1261,55
530,09	1181,68
530,29	1271,79
530,49	1298,41
530,69	1265,64
530,89	1290,22
531,09	1273,84
531,28	1255,40
531,48	1294,32
531,68	1255,40
531,88	1282,03
532,08	1382,38
532,28	1210,35
532,47	1277,93
532,67	1247,21
532,87	1236,97
533,07	1314,80
533,27	1273,84
533,46	1318,89
533,66	1212,40
533,86	1277,93
534,06	1191,92
534,26	1302,51
534,45	1253,36
534,65	1327,08
534,85	1298,41
535,05	1312,75
535,25	1298,41
535,44	1284,08
535,64	1230,83
535,84	1214,45
536,04	1218,54
536,24	1245,16
536,43	1224,69
536,63	1351,66
536,83	1261,55
537,03	1255,40
537,22	1320,94
537,42	1374,19
537,62	1150,96
537,82	1269,74
538,02	1277,93
538,21	1267,69
538,41	1296,36
538,61	1296,36
538,81	1200,11
539,00	1357,80
539,20	1230,83
539,40	1298,41
539,60	1300,46
539,79	1273,84
539,99	1290,22
540,19	1310,70
540,39	1247,21
540,58	1306,60
540,78	1245,16
540,98	1216,49
541,18	1261,55
541,37	1306,60
541,57	1269,74
541,77	1302,51
541,97	1318,89
542,16	1267,69
542,36	1183,73
542,56	1212,40
542,76	1337,32
542,95	1304,56
543,15	1304,56
543,35	1253,36
543,54	1306,60
543,74	1216,49
543,94	1282,03
544,14	1247,21
544,33	1232,88
544,53	1282,03
544,73	1220,59
544,93	1232,88
545,12	1269,74
545,32	1359,85
545,52	1339,37
545,71	1279,98
545,91	1265,64
546,11	1292,27
546,30	1222,64
546,50	1271,79
546,70	1259,50
546,90	1228,78
547,09	1243,12
547,29	1269,74
547,49	1300,46
547,68	1325,04
547,88	1304,56
548,08	1218,54
548,27	1316,84
548,47	1241,07
548,67	1333,23
548,87	1249,26
549,06	1204,21
549,26	1234,93
549,46	1349,61
549,65	1273,84
549,85	1277,93
550,05	1271,79
550,24	1292,27
550,44	1271,79
550,64	1296,36
550,83	1318,89
551,03	1253,36
551,23	1310,70
551,42	1236,97
551,62	1345,52
551,82	1271,79
552,01	1218,54
552,21	1347,56
552,41	1218,54
552,60	1306,60
552,80	1345,52
553,00	1282,03
553,19	1247,21
553,39	1308,65
553,59	1277,93
553,78	1279,98
553,98	1239,02
554,17	1249,26
554,37	1257,45
554,57	1222,64
554,76	1275,88
554,96	1245,16
555,16	1304,56
555,35	1232,88
555,55	1239,02
555,75	1292,27
555,94	1294,32
556,14	1249,26
556,33	1282,03
556,53	1288,17
556,73	1300,46
556,92	1271,79
557,12	1306,60
557,32	1294,32
557,51	1253,36
557,71	1282,03
557,90	1224,69
558,10	1259,50
558,30	1320,94
558,49	1239,02
558,69	1251,31
558,88	1288,17
559,08	1282,03
559,28	1294,32
559,47	1263,60
559,67	1232,88
559,86	1210,35
560,06	1236,97
560,26	1314,80
560,45	1239,02
560,65	1253,36
560,84	1329,13
561,04	1300,46
561,24	1243,12
561,43	1296,36
561,63	1273,84
561,82	1183,73
562,02	1277,93
562,22	1243,12
562,41	1284,08
562,61	1282,03
562,80	1189,87
563,00	1312,75
563,19	1253,36
563,39	1273,84
563,59	1267,69
563,78	1376,24
563,98	1222,64
564,17	1204,21
564,37	1282,03
564,56	1269,74
564,76	1206,25
564,96	1351,66
565,15	1220,59
565,35	1345,52
565,54	1234,93
565,74	1191,92
565,93	1263,60
566,13	1249,26
566,32	1282,03
566,52	1239,02
566,71	1263,60
566,91	1310,70
567,11	1298,41
567,30	1249,26
567,50	1259,50
567,69	1261,55
567,89	1327,08
568,08	1282,03
568,28	1251,31
568,47	1216,49
568,67	1296,36
568,86	1331,18
569,06	1306,60
569,25	1173,49
569,45	1241,07
569,64	1259,50
569,84	1212,40
570,04	1193,97
570,23	1224,69
570,43	1265,64
570,62	1187,82
570,82	1279,98
571,01	1294,32
571,21	1296,36
571,40	1275,88
571,60	1263,60
571,79	1277,93
571,99	1304,56
572,18	1296,36
572,38	1259,50
572,57	1247,21
572,77	1306,60
572,96	1222,64
573,16	1322,99
573,35	1249,26
573,55	1355,76
573,74	1259,50
573,94	1288,17
574,13	1308,65
574,33	1286,12
574,52	1322,99
574,71	1304,56
574,91	1279,98
575,10	1298,41
575,30	1222,64
575,49	1228,78
575,69	1347,56
575,88	1277,93
576,08	1284,08
576,27	1304,56
576,47	1230,83
576,66	1296,36
576,86	1271,79
577,05	1241,07
577,25	1349,61
577,44	1331,18
577,64	1257,45
577,83	1243,12
578,02	1257,45
578,22	1267,69
578,41	1267,69
578,61	1304,56
578,80	1257,45
579,00	1234,93
579,19	1224,69
579,39	1239,02
579,58	1296,36
579,77	1288,17
579,97	1247,21
580,16	1304,56
580,36	1263,60
580,55	1271,79
580,75	1294,32
580,94	1298,41
581,13	1255,40
581,33	1286,12
581,52	1198,06
581,72	1306,60
581,91	1298,41
582,11	1255,40
582,30	1173,49
582,49	1232,88
582,69	1298,41
582,88	1206,25
583,08	1275,88
583,27	1255,40
583,47	1286,12
583,66	1282,03
583,85	1214,45
584,05	1292,27
584,24	1263,60
584,44	1312,75
584,63	1228,78
584,82	1337,32
585,02	1355,76
585,21	1257,45
585,41	1302,51
585,60	1273,84
585,79	1249,26
585,99	1265,64
586,18	1251,31
586,37	1304,56
586,57	1327,08
586,76	1320,94
586,96	1298,41
587,15	1294,32
587,34	1288,17
587,54	1286,12
587,73	1245,16
587,93	1273,84
588,12	1247,21
588,31	1177,58
588,51	1292,27
588,70	1273,84
588,89	1273,84
589,09	1275,88
589,28	1361,90
589,47	1296,36
589,67	1353,71
589,86	1228,78
590,06	1208,30
590,25	1284,08
590,44	1302,51
590,64	1255,40
590,83	1318,89
591,02	1363,95
591,22	1234,93
591,41	1259,50
591,60	1220,59
591,80	1271,79
591,99	1222,64
592,18	1245,16
592,38	1335,28
592,57	1275,88
592,76	1306,60
592,96	1277,93
593,15	1214,45
593,34	1275,88
593,54	1261,55
593,73	1304,56
593,92	1232,88
594,12	1298,41
594,31	1206,25
594,50	1236,97
594,70	1208,30
594,89	1314,80
595,08	1243,12
595,28	1290,22
595,47	1224,69
595,66	1327,08
595,86	1257,45
596,05	1249,26
596,24	1216,49
596,43	1245,16
596,63	1282,03
596,82	1300,46
597,01	1288,17
597,21	1239,02
597,40	1236,97
597,59	1380,33
597,79	1322,99
597,98	1232,88
598,17	1243,12
598,36	1322,99
598,56	1298,41
598,75	1228,78
598,94	1290,22
599,14	1273,84
599,33	1216,49
599,52	1267,69
599,71	1331,18
599,91	1179,63
600,10	1261,55
600,29	1245,16
600,48	1269,74
600,68	1310,70
600,87	1245,16
601,06	1314,80
601,26	1193,97
601,45	1320,94
601,64	1337,32
601,83	1288,17
602,03	1277,93
602,22	1290,22
602,41	1320,94
602,60	1249,26
602,80	1277,93
602,99	1241,07
603,18	1226,73
603,37	1282,03
603,57	1302,51
603,76	1228,78
603,95	1236,97
604,14	1189,87
604,34	1316,84
604,53	1282,03
604,72	1296,36
604,91	1261,55
605,10	1224,69
605,30	1318,89
605,49	1333,23
605,68	1282,03
605,87	1361,90
606,07	1251,31
606,26	1251,31
606,45	1333,23
606,64	1218,54
606,84	1267,69
607,03	1302,51
607,22	1273,84
607,41	1308,65
607,60	1279,98
607,80	1302,51
607,99	1265,64
608,18	1263,60
608,37	1302,51
608,56	1261,55
608,76	1249,26
608,95	1267,69
609,14	1245,16
609,33	1239,02
609,52	1294,32
609,72	1363,95
609,91	1302,51
610,10	1263,60
610,29	1282,03
610,48	1310,70
610,68	1294,32
610,87	1185,77
611,06	1308,65
611,25	1294,32
611,44	1314,80
611,63	1347,56
611,83	1277,93
612,02	1288,17
612,21	1275,88
612,40	1273,84
612,59	1273,84
612,79	1157,10
612,98	1310,70
613,17	1325,04
613,36	1261,55
613,55	1316,84
613,74	1230,83
613,93	1253,36
614,13	1275,88
614,32	1282,03
614,51	1312,75
614,70	1247,21
614,89	1294,32
615,08	1277,93
615,28	1327,08
615,47	1241,07
615,66	1335,28
615,85	1277,93
616,04	1279,98
616,23	1312,75
616,42	1361,90
616,62	1312,75
616,81	1329,13
617,00	1271,79
617,19	1292,27
617,38	1304,56
617,57	1265,64
617,76	1249,26
617,95	1226,73
618,15	1300,46
618,34	1290,22
618,53	1241,07
618,72	1320,94
618,91	1279,98
619,10	1282,03
619,29	1261,55
619,48	1277,93
619,68	1249,26
619,87	1271,79
620,06	1255,40
620,25	1290,22
620,44	1271,79
620,63	1198,06
620,82	1232,88
621,01	1206,25
621,20	1372,14
621,39	1183,73
621,59	1243,12
621,78	1306,60
621,97	1257,45
622,16	1296,36
622,35	1208,30
622,54	1265,64
622,73	1316,84
622,92	1263,60
623,11	1247,21
623,30	1273,84
623,49	1243,12
623,68	1247,21
623,88	1273,84
624,07	1302,51
624,26	1245,16
624,45	1257,45
624,64	1251,31
624,83	1314,80
625,02	1236,97
625,21	1349,61
625,40	1357,80
625,59	1288,17
625,78	1230,83
625,97	1335,28
626,16	1345,52
626,35	1314,80
626,54	1302,51
626,74	1249,26
626,93	1300,46
627,12	1335,28
627,31	1343,47
627,50	1355,76
627,69	1314,80
627,88	1173,49
628,07	1263,60
628,26	1310,70
628,45	1257,45
628,64	1312,75
628,83	1255,40
629,02	1277,93
629,21	1261,55
629,40	1263,60
629,59	1349,61
629,78	1292,27
629,97	1253,36
630,16	1269,74
630,35	1257,45
630,54	1271,79
630,73	1279,98
630,92	1277,93
631,11	1312,75
631,30	1370,09
631,49	1310,70
631,68	1363,95
631,87	1417,19
632,06	1449,96
632,25	1394,67
632,44	1433,58
632,63	1310,70
632,82	1417,19
633,01	1384,43
633,20	1429,48
633,39	1431,53
633,58	1406,95
633,77	1392,62
633,96	1363,95
634,15	1507,30
634,34	1501,16
634,53	1535,98
634,72	1464,30
634,91	1433,58
635,10	1404,91
635,29	1445,87
635,48	1394,67
635,67	1413,10
635,86	1501,16
636,05	1458,15
636,24	1384,43
636,43	1441,77
636,62	1376,24
636,81	1374,19
637,00	1411,05
637,19	1341,42
637,38	1300,46
637,57	1384,43
637,76	1304,56
637,95	1353,71
638,14	1370,09
638,33	1298,41
638,52	1232,88
638,71	1296,36
638,89	1329,13
639,08	1335,28
639,27	1296,36
639,46	1255,40
639,65	1339,37
639,84	1269,74
640,03	1335,28
640,22	1304,56
640,41	1236,97
640,60	1294,32
640,79	1253,36
640,98	1292,27
641,17	1290,22
641,36	1259,50
641,55	1298,41
641,74	1232,88
641,92	1304,56
642,11	1265,64
642,30	1288,17
642,49	1239,02
642,68	1277,93
642,87	1251,31
643,06	1320,94
643,25	1255,40
643,44	1265,64
643,63	1191,92
643,82	1261,55
644,00	1239,02
644,19	1290,22
644,38	1327,08
644,57	1234,93
644,76	1239,02
644,95	1282,03
645,14	1232,88
645,33	1370,09
645,52	1218,54
645,71	1304,56
645,89	1216,49
646,08	1277,93
646,27	1351,66
646,46	1296,36
646,65	1257,45
646,84	1265,64
647,03	1286,12
647,22	1259,50
647,40	1273,84
647,59	1279,98
647,78	1275,88
647,97	1220,59
648,16	1269,74
648,35	1310,70
648,54	1284,08
648,73	1359,85
648,91	1273,84
649,10	1296,36
649,29	1273,84
649,48	1275,88
649,67	1241,07
649,86	1249,26
650,05	1314,80
650,23	1327,08
650,42	1247,21
650,61	1277,93
650,80	1226,73
650,99	1226,73
651,18	1327,08
651,36	1298,41
651,55	1261,55
651,74	1275,88
651,93	1255,40
652,12	1279,98
652,31	1236,97
652,49	1300,46
652,68	1302,51
652,87	1269,74
653,06	1402,86
653,25	1290,22
653,44	1318,89
653,62	1263,60
653,81	1345,52
654,00	1249,26
654,19	1226,73
654,38	1265,64
654,56	1302,51
654,75	1271,79
654,94	1304,56
655,13	1212,40
655,32	1206,25
655,51	1269,74
655,69	1241,07
655,88	1275,88
656,07	1300,46
656,26	1302,51
656,45	1257,45
656,63	1241,07
656,82	1314,80
657,01	1286,12
657,20	1378,28
657,38	1282,03
657,57	1273,84
657,76	1331,18
657,95	1243,12
658,14	1347,56
658,32	1302,51
658,51	1234,93
658,70	1263,60
658,89	1265,64
659,08	1290,22
659,26	1241,07
659,45	1257,45
659,64	1239,02
659,83	1220,59
660,01	1255,40
660,20	1302,51
660,39	1339,37
660,58	1257,45
660,76	1294,32
660,95	1247,21
661,14	1271,79
661,33	1273,84
661,51	1241,07
661,70	1310,70
661,89	1351,66
662,08	1245,16
662,26	1339,37
662,45	1312,75
662,64	1306,60
662,83	1146,86
663,01	1372,14
663,20	1282,03
663,39	1284,08
663,58	1279,98
663,76	1284,08
663,95	1296,36
664,14	1259,50
664,32	1292,27
664,51	1243,12
664,70	1259,50
664,89	1304,56
665,07	1224,69
665,26	1282,03
665,45	1267,69
665,64	1300,46
665,82	1263,60
666,01	1298,41
666,20	1302,51
666,38	1286,12
666,57	1247,21
666,76	1273,84
666,95	1179,63
667,13	1277,93
667,32	1316,84
667,51	1222,64
667,69	1284,08
667,88	1320,94
668,07	1320,94
668,25	1243,12
668,44	1273,84
668,63	1269,74
668,81	1294,32
669,00	1271,79
669,19	1232,88
669,38	1322,99
669,56	1255,40
669,75	1286,12
669,94	1255,40
670,12	1269,74
670,31	1310,70
670,50	1253,36
670,68	1243,12
670,87	1267,69
671,06	1251,31
671,24	1236,97
671,43	1257,45
671,62	1331,18
671,80	1269,74
671,99	1222,64
672,18	1298,41
672,36	1253,36
672,55	1251,31
672,74	1243,12
672,92	1257,45
673,11	1267,69
673,29	1284,08
673,48	1230,83
673,67	1216,49
673,85	1314,80
674,04	1273,84
674,23	1290,22
674,41	1279,98
674,60	1318,89
674,79	1249,26
674,97	1251,31
675,16	1306,60
675,34	1273,84
675,53	1286,12
675,72	1265,64
675,90	1226,73
676,09	1245,16
676,28	1271,79
676,46	1159,15
676,65	1314,80
676,83	1241,07
677,02	1382,38
677,21	1292,27
677,39	1218,54
677,58	1343,47
677,77	1269,74
677,95	1263,60
678,14	1306,60
678,32	1275,88
678,51	1220,59
678,70	1320,94
678,88	1384,43
679,07	1265,64
679,25	1241,07
679,44	1314,80
679,63	1224,69
679,81	1273,84
680,00	1275,88
680,18	1220,59
680,37	1259,50
680,55	1296,36
680,74	1296,36
680,93	1210,35
681,11	1273,84
681,30	1294,32
681,48	1267,69
681,67	1191,92
681,85	1269,74
682,04	1259,50
682,23	1331,18
682,41	1325,04
682,60	1249,26
682,78	1253,36
682,97	1234,93
683,15	1327,08
683,34	1253,36
683,53	1325,04
683,71	1286,12
683,90	1314,80
684,08	1286,12
684,27	1298,41
684,45	1300,46
684,64	1286,12
684,82	1198,06
685,01	1269,74
685,19	1261,55
685,38	1288,17
685,57	1239,02
685,75	1312,75
685,94	1208,30
686,12	1347,56
686,31	1220,59
686,49	1312,75
686,68	1296,36
686,86	1243,12
687,05	1310,70
687,23	1267,69
687,42	1296,36
687,60	1257,45
687,79	1259,50
687,97	1241,07
688,16	1298,41
688,34	1318,89
688,53	1273,84
688,71	1374,19
688,90	1286,12
689,08	1374,19
689,27	1366,00
689,45	1304,56
689,64	1277,93
689,82	1341,42
690,01	1226,73
690,19	1179,63
690,38	1163,25
690,56	1296,36
690,75	1191,92
690,93	1273,84
691,12	1275,88
691,30	1320,94
691,49	1255,40
691,67	1263,60
691,86	1300,46
692,04	1230,83
692,23	1269,74
692,41	1200,11
692,60	1249,26
692,78	1257,45
692,97	1271,79
693,15	1318,89
693,34	1288,17
693,52	1222,64
693,71	1148,91
693,89	1245,16
694,08	1329,13
694,26	1236,97
694,44	1282,03
694,63	1308,65
694,81	1269,74
695,00	1273,84
695,18	1286,12
695,37	1322,99
695,55	1314,80
695,74	1277,93
695,92	1284,08
696,10	1310,70
696,29	1257,45
696,47	1255,40
696,66	1220,59
696,84	1216,49
697,03	1241,07
697,21	1224,69
697,40	1302,51
697,58	1257,45
697,76	1230,83
697,95	1257,45
698,13	1329,13
698,32	1273,84
698,50	1245,16
698,68	1304,56
698,87	1314,80
699,05	1345,52
699,24	1259,50
699,42	1322,99
699,61	1216,49
699,79	1263,60
699,97	1314,80
700,16	1304,56
700,34	1304,56
700,53	1304,56
700,71	1265,64
700,89	1312,75
701,08	1224,69
701,26	1222,64
701,45	1318,89
701,63	1310,70
701,81	1257,45
702,00	1277,93
702,18	1318,89
702,37	1202,16
702,55	1331,18
702,73	1296,36
702,92	1222,64
703,10	1286,12
703,28	1247,21
703,47	1322,99
703,65	1267,69
703,84	1210,35
704,02	1255,40
704,20	1286,12
704,39	1255,40
704,57	1200,11
704,75	1261,55
704,94	1267,69
705,12	1165,29
705,30	1349,61
705,49	1271,79
705,67	1263,60
705,86	1349,61
706,04	1308,65
706,22	1282,03
706,41	1282,03
706,59	1294,32
706,77	1265,64
706,96	1230,83
707,14	1325,04
707,32	1265,64
707,51	1273,84
707,69	1329,13
707,87	1220,59
708,06	1259,50
708,24	1316,84
708,42	1331,18
708,61	1198,06
708,79	1208,30
708,97	1212,40
709,16	1245,16
709,34	1249,26
709,52	1202,16
709,71	1306,60
709,89	1302,51
710,07	1288,17
710,26	1230,83
710,44	1251,31
710,62	1261,55
710,80	1306,60
710,99	1300,46
711,17	1249,26
711,35	1292,27
711,54	1253,36
711,72	1241,07
711,90	1296,36
712,09	1294,32
712,27	1277,93
712,45	1267,69
712,63	1261,55
712,82	1288,17
713,00	1306,60
713,18	1261,55
713,37	1290,22
713,55	1265,64
713,73	1337,32
713,91	1212,40
714,10	1255,40
714,28	1249,26
714,46	1245,16
714,65	1230,83
714,83	1279,98
715,01	1263,60
715,19	1298,41
715,38	1269,74
715,56	1314,80
715,74	1265,64
715,92	1239,02
716,11	1294,32
716,29	1277,93
716,47	1200,11
716,65	1177,58
716,84	1234,93
717,02	1243,12
717,20	1275,88
717,38	1253,36
717,57	1312,75
717,75	1226,73
717,93	1282,03
718,11	1249,26
718,30	1198,06
718,48	1263,60
718,66	1191,92
718,84	1341,42
719,03	1271,79
719,21	1327,08
719,39	1196,01
719,57	1316,84
719,75	1339,37
719,94	1202,16
720,12	1228,78
720,30	1279,98
720,48	1314,80
720,67	1275,88
720,85	1230,83
721,03	1308,65
721,21	1304,56
721,39	1279,98
721,58	1267,69
721,76	1261,55
721,94	1259,50
722,12	1259,50
722,30	1306,60
722,49	1288,17
722,67	1222,64
722,85	1290,22
723,03	1212,40
723,21	1339,37
723,40	1249,26
723,58	1200,11
723,76	1236,97
723,94	1294,32
724,12	1210,35
724,30	1273,84
724,49	1347,56
724,67	1322,99
724,85	1247,21
725,03	1372,14
725,21	1310,70
725,40	1286,12
725,58	1265,64
725,76	1226,73
725,94	1290,22
726,12	1310,70
726,30	1214,45
726,49	1265,64
726,67	1314,80
726,85	1298,41
727,03	1259,50
727,21	1208,30
727,39	1335,28
727,57	1257,45
727,76	1198,06
727,94	1316,84
728,12	1253,36
728,30	1224,69
728,48	1292,27
728,66	1337,32
728,84	1261,55
729,03	1247,21
729,21	1308,65
729,39	1269,74
729,57	1296,36
729,75	1255,40
729,93	1294,32
730,11	1239,02
730,30	1284,08
730,48	1279,98
730,66	1251,31
730,84	1269,74
731,02	1294,32
731,20	1259,50
731,38	1210,35
731,56	1257,45
731,74	1304,56
731,93	1312,75
732,11	1267,69
732,29	1239,02
732,47	1234,93
732,65	1322,99
732,83	1253,36
733,01	1255,40
733,19	1284,08
733,37	1261,55
733,56	1253,36
733,74	1286,12
733,92	1210,35
734,10	1224,69
734,28	1232,88
734,46	1261,55
734,64	1267,69
734,82	1288,17
735,00	1265,64
735,18	1312,75
735,36	1263,60
735,54	1267,69
735,73	1292,27
735,91	1318,89
736,09	1267,69
736,27	1224,69
736,45	1241,07
736,63	1292,27
736,81	1232,88
736,99	1241,07
737,17	1327,08
737,35	1292,27
737,53	1257,45
737,71	1249,26
737,89	1253,36
738,07	1269,74
738,25	1189,87
738,43	1284,08
738,61	1261,55
738,80	1355,76
738,98	1257,45
739,16	1234,93
739,34	1277,93
739,52	1341,42
739,70	1255,40
739,88	1292,27
740,06	1294,32
740,24	1284,08
740,42	1273,84
740,60	1241,07
740,78	1259,50
740,96	1288,17
741,14	1322,99
741,32	1206,25
741,50	1269,74
741,68	1236,97
741,86	1322,99
742,04	1267,69
742,22	1327,08
742,40	1331,18
742,58	1222,64
742,76	1282,03
742,94	1343,47
743,12	1224,69
743,30	1320,94
743,48	1210,35
743,66	1226,73
743,84	1306,60
744,02	1261,55
744,20	1267,69
744,38	1290,22
744,56	1259,50
744,74	1308,65
744,92	1327,08
745,10	1322,99
745,28	1318,89
745,46	1267,69
745,64	1302,51
745,82	1273,84
746,00	1275,88
746,18	1234,93
746,36	1329,13
746,54	1290,22
746,72	1310,70
746,90	1253,36
747,08	1273,84
747,26	1253,36
747,44	1331,18
747,62	1255,40
747,80	1279,98
747,98	1212,40
748,15	1271,79
748,33	1298,41
748,51	1245,16
748,69	1255,40
748,87	1316,84
749,05	1345,52
749,23	1277,93
749,41	1198,06
749,59	1269,74
749,77	1316,84
749,95	1228,78
750,13	1290,22
750,31	1198,06
750,49	1251,31
750,67	1298,41
750,85	1322,99
751,03	1269,74
751,20	1290,22
751,38	1300,46
751,56	1306,60
751,74	1306,60
751,92	1169,39
752,10	1361,90
752,28	1296,36
752,46	1296,36
752,64	1296,36
752,82	1239,02
753,00	1253,36
753,18	1243,12
753,35	1306,60
753,53	1318,89
753,71	1318,89
753,89	1232,88
754,07	1247,21
754,25	1279,98
754,43	1286,12
754,61	1275,88
754,79	1331,18
754,97	1226,73
755,14	1224,69
755,32	1331,18
755,50	1355,76
755,68	1257,45
755,86	1257,45
756,04	1296,36
756,22	1204,21
756,40	1294,32
756,57	1236,97
756,75	1224,69
756,93	1261,55
757,11	1255,40
757,29	1286,12
757,47	1259,50
757,65	1259,50
757,82	1282,03
758,00	1261,55
758,18	1249,26
758,36	1245,16
758,54	1247,21
758,72	1181,68
758,90	1269,74
759,07	1230,83
759,25	1210,35
759,43	1251,31
759,61	1296,36
759,79	1343,47
759,97	1312,75
760,15	1333,23
760,32	1241,07
760,50	1310,70
760,68	1312,75
760,86	1224,69
761,04	1318,89
761,22	1265,64
761,39	1327,08
761,57	1236,97
761,75	1298,41
761,93	1161,20
762,11	1331,18
762,28	1267,69
762,46	1263,60
762,64	1204,21
762,82	1228,78
763,00	1245,16
763,18	1286,12
763,35	1314,80
763,53	1155,05
763,71	1253,36
763,89	1230,83
764,07	1241,07
764,24	1312,75
764,42	1308,65
764,60	1351,66
764,78	1292,27
764,96	1220,59
765,13	1331,18
765,31	1255,40
765,49	1282,03
765,67	1249,26
765,84	1341,42
766,02	1269,74
766,20	1300,46
766,38	1318,89
766,56	1263,60
766,73	1282,03
766,91	1247,21
767,09	1265,64
767,27	1271,79
767,44	1290,22
767,62	1275,88
767,80	1298,41
767,98	1296,36
768,15	1314,80
768,33	1288,17
768,51	1335,28
768,69	1226,73
768,87	1302,51
769,04	1284,08
769,22	1306,60
769,40	1249,26
769,58	1331,18
769,75	1271,79
769,93	1259,50
770,11	1232,88
770,28	1239,02
770,46	1314,80
770,64	1368,04
770,82	1255,40
770,99	1304,56
771,17	1249,26
771,35	1257,45
771,53	1322,99
771,70	1320,94
771,88	1286,12
772,06	1230,83
772,23	1208,30
772,41	1255,40
772,59	1224,69
772,77	1337,32
772,94	1284,08
773,12	1331,18
773,30	1245,16
773,47	1282,03
773,65	1331,18
773,83	1359,85
774,01	1261,55
774,18	1275,88
774,36	1275,88
774,54	1206,25
774,71	1241,07
774,89	1318,89
775,07	1247,21
775,24	1298,41
775,42	1249,26
775,60	1273,84
775,78	1241,07
775,95	1275,88
776,13	1261,55
776,31	1265,64
776,48	1259,50
776,66	1247,21
776,84	1245,16
777,01	1288,17
777,19	1279,98
777,37	1310,70
777,54	1228,78
777,72	1312,75
777,90	1204,21
778,07	1296,36
778,25	1241,07
778,43	1265,64
778,60	1263,60
778,78	1366,00
778,96	1282,03
779,13	1255,40
779,31	1261,55
779,49	1236,97
779,66	1290,22
779,84	1249,26
780,01	1279,98
780,19	1292,27
780,37	1351,66
780,54	1269,74
780,72	1263,60
780,90	1314,80
781,07	1261,55
781,25	1320,94
781,43	1282,03
781,60	1282,03
781,78	1234,93
781,95	1226,73
782,13	1292,27
782,31	1345,52
782,48	1267,69
782,66	1282,03
782,83	1327,08
783,01	1337,32
783,19	1200,11
783,36	1259,50
783,54	1159,15
783,72	1304,56
783,89	1331,18
784,07	1286,12
784,24	1318,89
784,42	1265,64
784,60	1294,32
784,77	1331,18
784,95	1329,13
785,12	1361,90
785,30	1241,07
785,47	1247,21
785,65	1259,50
785,83	1294,32
786,00	1269,74
786,18	1234,93
786,35	1234,93
786,53	1288,17
786,71	1294,32
786,88	1279,98
787,06	1255,40
787,23	1290,22
787,41	1271,79
787,58	1253,36
787,76	1288,17
787,94	1202,16
788,11	1228,78
788,29	1232,88
788,46	1200,11
788,64	1310,70
788,81	1277,93
788,99	1335,28
789,16	1267,69
789,34	1288,17
789,52	1265,64
789,69	1255,40
789,87	1253,36
790,04	1234,93
790,22	1341,42
790,39	1277,93
790,57	1171,44
790,74	1245,16
790,92	1310,70
791,09	1286,12
791,27	1261,55
791,44	1251,31
791,62	1204,21
791,79	1206,25
791,97	1243,12
792,15	1331,18
792,32	1255,40
792,50	1249,26
792,67	1212,40
792,85	1273,84
793,02	1310,70
793,20	1282,03
793,37	1294,32
793,55	1288,17
793,72	1290,22
793,90	1232,88
794,07	1241,07
794,25	1269,74
794,42	1282,03
794,60	1239,02
794,77	1218,54
794,95	1218,54
795,12	1275,88
795,30	1218,54
795,47	1290,22
795,65	1361,90
795,82	1255,40
796,00	1292,27
796,17	1269,74
796,34	1277,93
796,52	1261,55
796,69	1222,64
796,87	1322,99
797,04	1277,93
797,22	1236,97
797,39	1310,70
797,57	1261,55
797,74	1312,75
797,92	1259,50
798,09	1249,26
798,27	1249,26
798,44	1363,95
798,62	1271,79
798,79	1279,98
798,96	1292,27
799,14	1271,79
799,31	1298,41
799,49	1263,60
799,66	1243,12
799,84	1241,07
800,01	1284,08
800,19	1343,47
800,36	1329,13
800,53	1298,41
800,71	1251,31
800,88	1204,21
801,06	1255,40
801,23	1329,13
801,41	1206,25
801,58	1271,79
801,75	1282,03
801,93	1265,64
802,10	1251,31
802,28	1159,15
802,45	1222,64
802,63	1284,08
802,80	1331,18
802,97	1259,50
803,15	1232,88
803,32	1271,79
803,50	1277,93
803,67	1249,26
803,84	1339,37
804,02	1284,08
804,19	1257,45
804,37	1259,50
804,54	1279,98
804,71	1314,80
804,89	1210,35
805,06	1359,85
805,24	1234,93
805,41	1210,35
805,58	1284,08
805,76	1320,94
805,93	1302,51
806,10	1267,69
806,28	1210,35
806,45	1294,32
806,63	1314,80
806,80	1300,46
806,97	1230,83
807,15	1292,27
807,32	1269,74
807,49	1220,59
807,67	1206,25
807,84	1361,90
808,01	1257,45
808,19	1288,17
808,36	1234,93
808,54	1243,12
808,71	1261,55
808,88	1245,16
809,06	1224,69
809,23	1224,69
809,40	1226,73
809,58	1253,36
809,75	1253,36
809,92	1308,65
810,10	1222,64
810,27	1273,84
810,44	1277,93
810,62	1232,88
810,79	1282,03
810,96	1265,64
811,14	1294,32
811,31	1265,64
811,48	1243,12
811,66	1286,12
811,83	1329,13
812,00	1255,40
812,18	1312,75
812,35	1288,17
812,52	1322,99
812,69	1286,12
812,87	1269,74
813,04	1273,84
813,21	1351,66
813,39	1339,37
813,56	1298,41
813,73	1271,79
813,91	1284,08
814,08	1265,64
814,25	1224,69
814,42	1275,88
814,60	1255,40
814,77	1267,69
814,94	1288,17
815,12	1249,26
815,29	1247,21
815,46	1290,22
815,63	1218,54
815,81	1335,28
815,98	1239,02
816,15	1294,32
816,33	1298,41
816,50	1234,93
816,67	1204,21
816,84	1265,64
817,02	1245,16
817,19	1261,55
817,36	1290,22
817,53	1298,41
817,71	1302,51
817,88	1314,80
818,05	1320,94
818,22	1282,03
818,40	1300,46
818,57	1269,74
818,74	1226,73
818,91	1257,45
819,09	1322,99
819,26	1292,27
819,43	1267,69
819,60	1271,79
819,78	1259,50
819,95	1294,32
820,12	1333,23
820,29	1232,88
820,47	1341,42
820,64	1239,02
820,81	1306,60
820,98	1230,83
821,15	1230,83
821,33	1247,21
821,50	1329,13
821,67	1314,80
821,84	1290,22
822,02	1243,12
822,19	1302,51
822,36	1300,46
822,53	1216,49
822,70	1275,88
822,88	1277,93
823,05	1314,80
823,22	1275,88
823,39	1325,04
823,56	1253,36
823,74	1261,55
823,91	1273,84
824,08	1320,94
824,25	1245,16
824,42	1302,51
824,60	1234,93
824,77	1286,12
824,94	1261,55
825,11	1290,22
825,28	1271,79
825,45	1239,02
825,63	1284,08
825,80	1279,98
825,97	1251,31
826,14	1220,59
826,31	1304,56
826,48	1329,13
826,66	1196,01
826,83	1261,55
827,00	1269,74
827,17	1265,64
827,34	1220,59
827,51	1308,65
827,69	1234,93
827,86	1259,50
828,03	1234,93
828,20	1277,93
828,37	1286,12
828,54	1261,55
828,71	1279,98
828,89	1290,22
829,06	1193,97
829,23	1290,22
829,40	1273,84
829,57	1243,12
829,74	1234,93
829,91	1263,60
830,09	1265,64
830,26	1335,28
830,43	1290,22
830,60	1294,32
830,77	1337,32
830,94	1304,56
831,11	1218,54
831,28	1306,60
831,46	1282,03
831,63	1292,27
831,80	1290,22
831,97	1339,37
832,14	1243,12
832,31	1339,37
832,48	1183,73
832,65	1265,64
832,82	1275,88
832,99	1247,21
833,17	1277,93
833,34	1232,88
833,51	1239,02
833,68	1220,59
833,85	1284,08
834,02	1189,87
834,19	1302,51
834,36	1277,93
834,53	1316,84
834,70	1370,09
834,87	1224,69
835,04	1322,99
835,22	1277,93
835,39	1335,28
835,56	1284,08
835,73	1282,03
835,90	1261,55
836,07	1279,98
836,24	1243,12
836,41	1251,31
836,58	1220,59
836,75	1341,42
836,92	1224,69
837,09	1251,31
837,26	1279,98
837,43	1290,22
837,60	1331,18
837,77	1292,27
837,94	1153,01
838,12	1384,43
838,29	1298,41
838,46	1265,64
838,63	1286,12
838,80	1271,79
838,97	1230,83
839,14	1236,97
839,31	1253,36
839,48	1306,60
839,65	1249,26
839,82	1300,46
839,99	1269,74
840,16	1331,18
840,33	1284,08
840,50	1277,93
840,67	1267,69
840,84	1216,49
841,01	1376,24
841,18	1271,79
841,35	1302,51
841,52	1325,04
841,69	1241,07
841,86	1288,17
842,03	1226,73
842,20	1214,45
842,37	1290,22
842,54	1296,36
842,71	1269,74
842,88	1318,89
843,05	1286,12
843,22	1245,16
843,39	1339,37
843,56	1327,08
843,73	1284,08
843,90	1255,40
844,07	1279,98
844,24	1298,41
844,41	1329,13
844,58	1310,70
844,75	1318,89
844,92	1306,60
845,09	1249,26
845,26	1331,18
845,43	1271,79
845,60	1273,84
845,77	1220,59
845,94	1345,52
846,10	1245,16
846,27	1261,55
846,44	1282,03
846,61	1273,84
846,78	1218,54
846,95	1327,08
847,12	1263,60
847,29	1310,70
847,46	1294,32
847,63	1245,16
847,80	1265,64
847,97	1284,08
848,14	1259,50
848,31	1325,04
848,48	1269,74
848,65	1279,98
848,82	1257,45
848,98	1304,56
849,15	1261,55
849,32	1241,07
849,49	1304,56
849,66	1288,17
849,83	1316,84
850,00	1239,02
850,17	1296,36
850,34	1271,79
850,51	1322,99
850,68	1247,21
850,85	1275,88
851,01	1339,37
851,18	1277,93
851,35	1259,50
851,52	1296,36
851,69	1290,22
851,86	1286,12
852,03	1259,50
852,20	1265,64
852,37	1304,56
852,53	1200,11
852,70	1212,40
852,87	1263,60
853,04	1294,32
853,21	1341,42
853,38	1304,56
853,55	1286,12
853,72	1318,89
853,89	1232,88
854,05	1255,40
854,22	1339,37
854,39	1312,75
854,56	1288,17
854,73	1310,70
854,90	1220,59
855,07	1288,17
855,23	1277,93
855,40	1239,02
855,57	1232,88
855,74	1306,60
855,91	1343,47
856,08	1255,40
856,25	1249,26
856,41	1331,18
856,58	1290,22
856,75	1282,03
856,92	1261,55
857,09	1189,87
857,26	1255,40
857,42	1251,31
857,59	1259,50
857,76	1284,08
857,93	1335,28
858,10	1316,84
858,27	1263,60
858,43	1277,93
858,60	1286,12
858,77	1241,07
858,94	1290,22
859,11	1236,97
859,27	1253,36
859,44	1306,60
859,61	1298,41
859,78	1234,93
859,95	1322,99
860,12	1239,02
860,28	1296,36
860,45	1335,28
860,62	1236,97
860,79	1239,02
860,95	1339,37
861,12	1273,84
861,29	1279,98
861,46	1273,84
861,63	1257,45
861,79	1249,26
861,96	1177,58
862,13	1228,78
862,30	1290,22
862,47	1298,41
862,63	1239,02
862,80	1251,31
862,97	1296,36
863,14	1288,17
863,30	1314,80
863,47	1374,19
863,64	1277,93
863,81	1286,12
863,97	1294,32
864,14	1277,93
864,31	1269,74
864,48	1294,32
864,65	1277,93
864,81	1308,65
864,98	1306,60
865,15	1269,74
865,32	1224,69
865,48	1228,78
865,65	1294,32
865,82	1302,51
865,98	1329,13
866,15	1245,16
866,32	1273,84
866,49	1163,25
866,65	1251,31
866,82	1292,27
866,99	1269,74
867,16	1302,51
867,32	1329,13
867,49	1216,49
867,66	1234,93
867,83	1226,73
867,99	1261,55
868,16	1253,36
868,33	1236,97
868,49	1294,32
868,66	1261,55
868,83	1277,93
868,99	1255,40
869,16	1333,23
869,33	1245,16
869,50	1232,88
869,66	1257,45
869,83	1284,08
870,00	1243,12
870,16	1251,31
870,33	1279,98
870,50	1277,93
870,66	1294,32
870,83	1255,40
871,00	1239,02
871,17	1298,41
871,33	1300,46
871,50	1271,79
871,67	1224,69
871,83	1292,27
872,00	1204,21
872,17	1290,22
872,33	1187,82
872,50	1224,69
872,67	1271,79
872,83	1212,40
873,00	1279,98
873,17	1224,69
873,33	1243,12
873,50	1343,47
873,67	1232,88
873,83	1282,03
874,00	1241,07
874,16	1322,99
874,33	1218,54
874,50	1239,02
874,66	1206,25
874,83	1239,02
875,00	1271,79
875,16	1361,90
875,33	1302,51
875,50	1406,95
875,66	1232,88
875,83	1273,84
875,99	1304,56
876,16	1277,93
876,33	1327,08
876,49	1296,36
876,66	1335,28
876,83	1286,12
876,99	1265,64
877,16	1304,56
877,32	1271,79
877,49	1263,60
877,66	1284,08
877,82	1331,18
877,99	1243,12
878,15	1261,55
878,32	1284,08
878,49	1320,94
878,65	1267,69
878,82	1302,51
878,98	1290,22
879,15	1271,79
879,32	1253,36
879,48	1275,88
879,65	1298,41
879,81	1286,12
879,98	1222,64
880,15	1187,82
880,31	1284,08
880,48	1247,21
880,64	1253,36
880,81	1232,88
880,97	1259,50
881,14	1249,26
881,31	1320,94
881,47	1282,03
881,64	1284,08
881,80	1257,45
881,97	1251,31
882,13	1214,45
882,30	1236,97
882,47	1247,21
882,63	1167,34
882,80	1372,14
882,96	1198,06
883,13	1306,60
883,29	1361,90
883,46	1265,64
883,62	1222,64
883,79	1241,07
883,95	1300,46
884,12	1204,21
884,29	1284,08
884,45	1249,26
884,62	1302,51
884,78	1302,51
884,95	1290,22
885,11	1269,74
885,28	1263,60
885,44	1288,17
885,61	1196,01
885,77	1298,41
885,94	1257,45
886,10	1320,94
886,27	1302,51
886,43	1239,02
886,60	1267,69
886,76	1290,22
886,93	1275,88
887,09	1263,60
887,26	1310,70
887,42	1306,60
887,59	1249,26
887,75	1290,22
887,92	1308,65
888,08	1243,12
888,25	1298,41
888,41	1322,99
888,58	1288,17
888,74	1298,41
888,91	1247,21
>>>>>End Processed Spectral Data<<<<<
