SpectraSuite Data File
++++++++++++++++++++++++++++++++++++
Date: Sun Apr 03 15:00:34 CEST 2016
User: root
Dark Spectrum Present: No
Reference Spectrum Present: No
Number of Sampled Component Spectra: 1
Spectrometers: USB4C02835
Integration Time (usec): 10000 (USB4C02835)
Spectra Averaged: 1 (USB4C02835)
Boxcar Smoothing: 0 (USB4C02835)
Correct for Electrical Dark: No (USB4C02835)
Strobe/Lamp Enabled: No (USB4C02835)
Correct for Detector Non-linearity: No (USB4C02835)
Correct for Stray Light: No (USB4C02835)
Number of Pixels in Processed Spectrum: 3648
>>>>>Begin Processed Spectral Data<<<<<
177,47	1241,07
177,69	1241,07
177,91	1241,07
178,13	1212,40
178,36	1216,49
178,58	1314,80
178,80	1245,16
179,02	1251,31
179,24	1318,89
179,46	1247,21
179,68	1208,30
179,90	1243,12
180,13	1298,41
180,35	1247,21
180,57	1245,16
180,79	1255,40
181,01	1320,94
181,23	1282,03
181,45	1327,08
181,67	1249,26
181,90	1282,03
182,12	1218,54
182,34	1286,12
182,56	1253,36
182,78	1296,36
183,00	1275,88
183,22	1277,93
183,44	1218,54
183,66	1306,60
183,89	1261,55
184,11	1259,50
184,33	1282,03
184,55	1339,37
184,77	1224,69
184,99	1273,84
185,21	1282,03
185,43	1269,74
185,65	1298,41
185,87	1265,64
186,10	1222,64
186,32	1267,69
186,54	1218,54
186,76	1265,64
186,98	1347,56
187,20	1277,93
187,42	1239,02
187,64	1187,82
187,86	1304,56
188,08	1296,36
188,30	1202,16
188,52	1279,98
188,75	1251,31
188,97	1337,32
189,19	1329,13
189,41	1275,88
189,63	1339,37
189,85	1275,88
190,07	1247,21
190,29	1236,97
190,51	1175,53
190,73	1312,75
190,95	1298,41
191,17	1320,94
191,39	1259,50
191,61	1296,36
191,84	1222,64
192,06	1234,93
192,28	1308,65
192,50	1318,89
192,72	1239,02
192,94	1271,79
193,16	1331,18
193,38	1286,12
193,60	1294,32
193,82	1253,36
194,04	1284,08
194,26	1320,94
194,48	1314,80
194,70	1241,07
194,92	1243,12
195,14	1318,89
195,36	1224,69
195,58	1265,64
195,80	1284,08
196,02	1222,64
196,24	1298,41
196,46	1308,65
196,69	1308,65
196,91	1282,03
197,13	1296,36
197,35	1318,89
197,57	1255,40
197,79	1318,89
198,01	1279,98
198,23	1224,69
198,45	1241,07
198,67	1318,89
198,89	1286,12
199,11	1267,69
199,33	1257,45
199,55	1247,21
199,77	1247,21
199,99	1329,13
200,21	1269,74
200,43	1286,12
200,65	1216,49
200,87	1257,45
201,09	1273,84
201,31	1255,40
201,53	1183,73
201,75	1277,93
201,97	1245,16
202,19	1253,36
202,41	1273,84
202,63	1359,85
202,85	1259,50
203,07	1257,45
203,29	1322,99
203,51	1298,41
203,73	1374,19
203,95	1290,22
204,17	1279,98
204,39	1337,32
204,61	1189,87
204,83	1347,56
205,05	1228,78
205,27	1331,18
205,49	1269,74
205,71	1263,60
205,93	1261,55
206,15	1331,18
206,37	1228,78
206,59	1253,36
206,81	1210,35
207,03	1273,84
207,25	1286,12
207,47	1353,71
207,69	1286,12
207,91	1247,21
208,13	1296,36
208,34	1241,07
208,56	1230,83
208,78	1267,69
209,00	1298,41
209,22	1271,79
209,44	1298,41
209,66	1241,07
209,88	1304,56
210,10	1273,84
210,32	1320,94
210,54	1259,50
210,76	1292,27
210,98	1257,45
211,20	1167,34
211,42	1214,45
211,64	1314,80
211,86	1325,04
212,08	1220,59
212,30	1304,56
212,52	1259,50
212,74	1294,32
212,96	1187,82
213,17	1249,26
213,39	1310,70
213,61	1183,73
213,83	1173,49
214,05	1277,93
214,27	1314,80
214,49	1234,93
214,71	1247,21
214,93	1298,41
215,15	1298,41
215,37	1208,30
215,59	1279,98
215,81	1273,84
216,03	1337,32
216,24	1290,22
216,46	1261,55
216,68	1255,40
216,90	1236,97
217,12	1320,94
217,34	1245,16
217,56	1269,74
217,78	1226,73
218,00	1298,41
218,22	1277,93
218,44	1222,64
218,66	1308,65
218,87	1224,69
219,09	1271,79
219,31	1247,21
219,53	1236,97
219,75	1253,36
219,97	1310,70
220,19	1234,93
220,41	1286,12
220,63	1275,88
220,85	1296,36
221,06	1253,36
221,28	1282,03
221,50	1325,04
221,72	1304,56
221,94	1261,55
222,16	1292,27
222,38	1249,26
222,60	1275,88
222,82	1224,69
223,03	1259,50
223,25	1312,75
223,47	1300,46
223,69	1288,17
223,91	1312,75
224,13	1216,49
224,35	1265,64
224,57	1261,55
224,78	1245,16
225,00	1284,08
225,22	1243,12
225,44	1286,12
225,66	1296,36
225,88	1347,56
226,10	1214,45
226,32	1257,45
226,53	1325,04
226,75	1261,55
226,97	1320,94
227,19	1294,32
227,41	1245,16
227,63	1279,98
227,85	1339,37
228,06	1267,69
228,28	1261,55
228,50	1302,51
228,72	1269,74
228,94	1312,75
229,16	1286,12
229,37	1259,50
229,59	1294,32
229,81	1224,69
230,03	1241,07
230,25	1232,88
230,47	1288,17
230,69	1298,41
230,90	1187,82
231,12	1302,51
231,34	1318,89
231,56	1243,12
231,78	1269,74
232,00	1296,36
232,21	1384,43
232,43	1290,22
232,65	1241,07
232,87	1361,90
233,09	1177,58
233,30	1363,95
233,52	1282,03
233,74	1218,54
233,96	1204,21
234,18	1308,65
234,40	1286,12
234,61	1259,50
234,83	1234,93
235,05	1204,21
235,27	1245,16
235,49	1273,84
235,70	1263,60
235,92	1318,89
236,14	1300,46
236,36	1239,02
236,58	1282,03
236,79	1265,64
237,01	1318,89
237,23	1253,36
237,45	1286,12
237,67	1265,64
237,88	1290,22
238,10	1304,56
238,32	1249,26
238,54	1253,36
238,76	1243,12
238,97	1263,60
239,19	1261,55
239,41	1263,60
239,63	1208,30
239,85	1239,02
240,06	1273,84
240,28	1249,26
240,50	1214,45
240,72	1320,94
240,93	1292,27
241,15	1320,94
241,37	1298,41
241,59	1316,84
241,81	1263,60
242,02	1232,88
242,24	1335,28
242,46	1282,03
242,68	1275,88
242,89	1259,50
243,11	1247,21
243,33	1253,36
243,55	1312,75
243,76	1290,22
243,98	1329,13
244,20	1212,40
244,42	1304,56
244,64	1322,99
244,85	1247,21
245,07	1249,26
245,29	1308,65
245,51	1204,21
245,72	1308,65
245,94	1271,79
246,16	1273,84
246,38	1275,88
246,59	1255,40
246,81	1251,31
247,03	1173,49
247,24	1279,98
247,46	1257,45
247,68	1257,45
247,90	1226,73
248,11	1286,12
248,33	1316,84
248,55	1253,36
248,77	1243,12
248,98	1239,02
249,20	1286,12
249,42	1232,88
249,64	1275,88
249,85	1255,40
250,07	1257,45
250,29	1275,88
250,50	1208,30
250,72	1290,22
250,94	1241,07
251,16	1243,12
251,37	1255,40
251,59	1269,74
251,81	1310,70
252,02	1345,52
252,24	1267,69
252,46	1304,56
252,68	1294,32
252,89	1339,37
253,11	1277,93
253,33	1316,84
253,54	1298,41
253,76	1193,97
253,98	1236,97
254,20	1329,13
254,41	1245,16
254,63	1296,36
254,85	1245,16
255,06	1322,99
255,28	1320,94
255,50	1265,64
255,71	1257,45
255,93	1271,79
256,15	1275,88
256,36	1239,02
256,58	1277,93
256,80	1234,93
257,02	1173,49
257,23	1304,56
257,45	1269,74
257,67	1337,32
257,88	1234,93
258,10	1337,32
258,32	1263,60
258,53	1290,22
258,75	1275,88
258,97	1255,40
259,18	1288,17
259,40	1245,16
259,62	1255,40
259,83	1269,74
260,05	1300,46
260,27	1257,45
260,48	1271,79
260,70	1314,80
260,92	1249,26
261,13	1304,56
261,35	1222,64
261,57	1306,60
261,78	1255,40
262,00	1193,97
262,22	1263,60
262,43	1202,16
262,65	1294,32
262,86	1277,93
263,08	1261,55
263,30	1298,41
263,51	1273,84
263,73	1314,80
263,95	1267,69
264,16	1296,36
264,38	1214,45
264,60	1255,40
264,81	1257,45
265,03	1173,49
265,25	1290,22
265,46	1228,78
265,68	1345,52
265,89	1288,17
266,11	1318,89
266,33	1247,21
266,54	1224,69
266,76	1347,56
266,98	1298,41
267,19	1312,75
267,41	1290,22
267,62	1284,08
267,84	1204,21
268,06	1247,21
268,27	1298,41
268,49	1226,73
268,70	1239,02
268,92	1220,59
269,14	1290,22
269,35	1249,26
269,57	1218,54
269,79	1208,30
270,00	1241,07
270,22	1353,71
270,43	1204,21
270,65	1222,64
270,87	1228,78
271,08	1214,45
271,30	1224,69
271,51	1300,46
271,73	1259,50
271,95	1308,65
272,16	1329,13
272,38	1241,07
272,59	1171,44
272,81	1245,16
273,02	1239,02
273,24	1312,75
273,46	1277,93
273,67	1286,12
273,89	1263,60
274,10	1296,36
274,32	1282,03
274,54	1263,60
274,75	1167,34
274,97	1339,37
275,18	1310,70
275,40	1232,88
275,61	1320,94
275,83	1310,70
276,05	1210,35
276,26	1286,12
276,48	1261,55
276,69	1308,65
276,91	1322,99
277,12	1247,21
277,34	1253,36
277,55	1214,45
277,77	1263,60
277,99	1300,46
278,20	1243,12
278,42	1253,36
278,63	1302,51
278,85	1302,51
279,06	1236,97
279,28	1263,60
279,49	1255,40
279,71	1247,21
279,93	1228,78
280,14	1220,59
280,36	1284,08
280,57	1302,51
280,79	1284,08
281,00	1226,73
281,22	1271,79
281,43	1304,56
281,65	1265,64
281,86	1275,88
282,08	1271,79
282,29	1249,26
282,51	1239,02
282,73	1298,41
282,94	1284,08
283,16	1277,93
283,37	1279,98
283,59	1232,88
283,80	1320,94
284,02	1314,80
284,23	1245,16
284,45	1339,37
284,66	1251,31
284,88	1257,45
285,09	1234,93
285,31	1314,80
285,52	1306,60
285,74	1292,27
285,95	1294,32
286,17	1255,40
286,38	1316,84
286,60	1263,60
286,81	1249,26
287,03	1355,76
287,24	1320,94
287,46	1234,93
287,67	1265,64
287,89	1310,70
288,10	1294,32
288,32	1351,66
288,53	1314,80
288,75	1302,51
288,96	1200,11
289,18	1230,83
289,39	1353,71
289,61	1355,76
289,82	1267,69
290,04	1230,83
290,25	1316,84
290,47	1220,59
290,68	1208,30
290,90	1294,32
291,11	1261,55
291,33	1316,84
291,54	1267,69
291,76	1300,46
291,97	1277,93
292,18	1271,79
292,40	1189,87
292,61	1239,02
292,83	1232,88
293,04	1349,61
293,26	1296,36
293,47	1310,70
293,69	1308,65
293,90	1261,55
294,12	1232,88
294,33	1247,21
294,55	1257,45
294,76	1282,03
294,97	1222,64
295,19	1257,45
295,40	1214,45
295,62	1292,27
295,83	1247,21
296,05	1329,13
296,26	1284,08
296,48	1282,03
296,69	1214,45
296,90	1198,06
297,12	1200,11
297,33	1243,12
297,55	1290,22
297,76	1241,07
297,98	1210,35
298,19	1261,55
298,41	1239,02
298,62	1337,32
298,83	1327,08
299,05	1200,11
299,26	1275,88
299,48	1310,70
299,69	1247,21
299,90	1363,95
300,12	1236,97
300,33	1286,12
300,55	1245,16
300,76	1302,51
300,98	1279,98
301,19	1296,36
301,40	1247,21
301,62	1284,08
301,83	1388,52
302,05	1282,03
302,26	1245,16
302,47	1290,22
302,69	1290,22
302,90	1310,70
303,12	1236,97
303,33	1265,64
303,54	1236,97
303,76	1288,17
303,97	1261,55
304,19	1265,64
304,40	1249,26
304,61	1349,61
304,83	1310,70
305,04	1273,84
305,26	1224,69
305,47	1239,02
305,68	1247,21
305,90	1322,99
306,11	1218,54
306,33	1312,75
306,54	1259,50
306,75	1269,74
306,97	1279,98
307,18	1312,75
307,39	1204,21
307,61	1320,94
307,82	1279,98
308,04	1308,65
308,25	1277,93
308,46	1249,26
308,68	1216,49
308,89	1230,83
309,10	1239,02
309,32	1251,31
309,53	1206,25
309,74	1259,50
309,96	1294,32
310,17	1322,99
310,39	1265,64
310,60	1271,79
310,81	1267,69
311,03	1267,69
311,24	1310,70
311,45	1259,50
311,67	1267,69
311,88	1357,80
312,09	1302,51
312,31	1277,93
312,52	1304,56
312,73	1314,80
312,95	1222,64
313,16	1304,56
313,37	1327,08
313,59	1165,29
313,80	1298,41
314,01	1228,78
314,23	1200,11
314,44	1259,50
314,65	1298,41
314,87	1363,95
315,08	1279,98
315,29	1294,32
315,51	1284,08
315,72	1249,26
315,93	1411,05
316,15	1292,27
316,36	1277,93
316,57	1269,74
316,79	1249,26
317,00	1322,99
317,21	1249,26
317,43	1148,91
317,64	1288,17
317,85	1271,79
318,07	1247,21
318,28	1320,94
318,49	1247,21
318,70	1351,66
318,92	1267,69
319,13	1243,12
319,34	1286,12
319,56	1257,45
319,77	1300,46
319,98	1255,40
320,20	1261,55
320,41	1292,27
320,62	1212,40
320,83	1282,03
321,05	1263,60
321,26	1333,23
321,47	1308,65
321,69	1288,17
321,90	1339,37
322,11	1351,66
322,32	1259,50
322,54	1286,12
322,75	1236,97
322,96	1224,69
323,18	1298,41
323,39	1339,37
323,60	1249,26
323,81	1255,40
324,03	1228,78
324,24	1249,26
324,45	1257,45
324,66	1288,17
324,88	1277,93
325,09	1322,99
325,30	1290,22
325,52	1257,45
325,73	1322,99
325,94	1171,44
326,15	1247,21
326,37	1308,65
326,58	1306,60
326,79	1265,64
327,00	1351,66
327,22	1259,50
327,43	1290,22
327,64	1267,69
327,85	1218,54
328,07	1214,45
328,28	1234,93
328,49	1318,89
328,70	1284,08
328,92	1259,50
329,13	1298,41
329,34	1277,93
329,55	1273,84
329,76	1259,50
329,98	1226,73
330,19	1300,46
330,40	1173,49
330,61	1335,28
330,83	1257,45
331,04	1247,21
331,25	1310,70
331,46	1245,16
331,68	1269,74
331,89	1308,65
332,10	1255,40
332,31	1261,55
332,52	1189,87
332,74	1261,55
332,95	1208,30
333,16	1314,80
333,37	1251,31
333,58	1298,41
333,80	1282,03
334,01	1320,94
334,22	1218,54
334,43	1273,84
334,64	1275,88
334,86	1335,28
335,07	1257,45
335,28	1261,55
335,49	1347,56
335,70	1243,12
335,92	1282,03
336,13	1265,64
336,34	1202,16
336,55	1337,32
336,76	1282,03
336,98	1239,02
337,19	1228,78
337,40	1271,79
337,61	1275,88
337,82	1212,40
338,04	1220,59
338,25	1343,47
338,46	1230,83
338,67	1261,55
338,88	1228,78
339,09	1314,80
339,31	1210,35
339,52	1275,88
339,73	1273,84
339,94	1247,21
340,15	1296,36
340,36	1239,02
340,58	1335,28
340,79	1327,08
341,00	1318,89
341,21	1247,21
341,42	1290,22
341,63	1316,84
341,85	1277,93
342,06	1263,60
342,27	1236,97
342,48	1302,51
342,69	1339,37
342,90	1318,89
343,12	1239,02
343,33	1273,84
343,54	1259,50
343,75	1284,08
343,96	1267,69
344,17	1251,31
344,38	1286,12
344,60	1245,16
344,81	1261,55
345,02	1286,12
345,23	1277,93
345,44	1245,16
345,65	1226,73
345,86	1275,88
346,07	1292,27
346,29	1279,98
346,50	1243,12
346,71	1277,93
346,92	1267,69
347,13	1232,88
347,34	1290,22
347,55	1329,13
347,76	1255,40
347,98	1232,88
348,19	1306,60
348,40	1282,03
348,61	1290,22
348,82	1265,64
349,03	1239,02
349,24	1261,55
349,45	1351,66
349,66	1226,73
349,88	1243,12
350,09	1263,60
350,30	1265,64
350,51	1251,31
350,72	1273,84
350,93	1253,36
351,14	1275,88
351,35	1265,64
351,56	1265,64
351,77	1236,97
351,99	1253,36
352,20	1312,75
352,41	1253,36
352,62	1263,60
352,83	1232,88
353,04	1302,51
353,25	1279,98
353,46	1232,88
353,67	1175,53
353,88	1312,75
354,09	1263,60
354,30	1275,88
354,52	1282,03
354,73	1249,26
354,94	1279,98
355,15	1306,60
355,36	1286,12
355,57	1261,55
355,78	1255,40
355,99	1273,84
356,20	1189,87
356,41	1333,23
356,62	1308,65
356,83	1187,82
357,04	1275,88
357,25	1302,51
357,46	1255,40
357,68	1296,36
357,89	1236,97
358,10	1349,61
358,31	1339,37
358,52	1265,64
358,73	1267,69
358,94	1284,08
359,15	1255,40
359,36	1226,73
359,57	1261,55
359,78	1308,65
359,99	1263,60
360,20	1284,08
360,41	1273,84
360,62	1296,36
360,83	1243,12
361,04	1277,93
361,25	1368,04
361,46	1316,84
361,67	1290,22
361,88	1312,75
362,09	1261,55
362,30	1253,36
362,51	1322,99
362,72	1282,03
362,93	1275,88
363,14	1241,07
363,35	1247,21
363,56	1298,41
363,78	1318,89
363,99	1290,22
364,20	1269,74
364,41	1249,26
364,62	1308,65
364,83	1267,69
365,04	1196,01
365,25	1259,50
365,46	1282,03
365,67	1210,35
365,88	1239,02
366,09	1341,42
366,30	1236,97
366,51	1282,03
366,72	1310,70
366,93	1253,36
367,14	1259,50
367,35	1257,45
367,56	1296,36
367,77	1273,84
367,98	1265,64
368,18	1232,88
368,39	1279,98
368,60	1228,78
368,81	1298,41
369,02	1230,83
369,23	1222,64
369,44	1310,70
369,65	1257,45
369,86	1247,21
370,07	1265,64
370,28	1220,59
370,49	1316,84
370,70	1341,42
370,91	1261,55
371,12	1265,64
371,33	1257,45
371,54	1222,64
371,75	1302,51
371,96	1300,46
372,17	1251,31
372,38	1226,73
372,59	1318,89
372,80	1267,69
373,01	1257,45
373,22	1212,40
373,43	1331,18
373,64	1269,74
373,85	1286,12
374,06	1361,90
374,26	1228,78
374,47	1271,79
374,68	1232,88
374,89	1255,40
375,10	1263,60
375,31	1273,84
375,52	1204,21
375,73	1273,84
375,94	1279,98
376,15	1294,32
376,36	1294,32
376,57	1292,27
376,78	1191,92
376,99	1257,45
377,20	1165,29
377,40	1232,88
377,61	1296,36
377,82	1288,17
378,03	1232,88
378,24	1312,75
378,45	1320,94
378,66	1249,26
378,87	1255,40
379,08	1263,60
379,29	1206,25
379,50	1259,50
379,71	1298,41
379,91	1318,89
380,12	1316,84
380,33	1288,17
380,54	1243,12
380,75	1288,17
380,96	1232,88
381,17	1355,76
381,38	1249,26
381,59	1271,79
381,80	1282,03
382,00	1255,40
382,21	1259,50
382,42	1304,56
382,63	1277,93
382,84	1271,79
383,05	1284,08
383,26	1249,26
383,47	1247,21
383,68	1279,98
383,88	1298,41
384,09	1298,41
384,30	1308,65
384,51	1220,59
384,72	1292,27
384,93	1271,79
385,14	1306,60
385,35	1320,94
385,55	1255,40
385,76	1226,73
385,97	1286,12
386,18	1279,98
386,39	1253,36
386,60	1298,41
386,81	1202,16
387,02	1249,26
387,22	1271,79
387,43	1255,40
387,64	1241,07
387,85	1290,22
388,06	1275,88
388,27	1216,49
388,48	1316,84
388,68	1304,56
388,89	1296,36
389,10	1279,98
389,31	1220,59
389,52	1226,73
389,73	1269,74
389,93	1288,17
390,14	1251,31
390,35	1306,60
390,56	1212,40
390,77	1255,40
390,98	1265,64
391,18	1216,49
391,39	1261,55
391,60	1249,26
391,81	1249,26
392,02	1222,64
392,23	1222,64
392,43	1284,08
392,64	1230,83
392,85	1292,27
393,06	1306,60
393,27	1216,49
393,47	1232,88
393,68	1288,17
393,89	1277,93
394,10	1253,36
394,31	1269,74
394,52	1304,56
394,72	1275,88
394,93	1224,69
395,14	1261,55
395,35	1253,36
395,56	1308,65
395,76	1292,27
395,97	1230,83
396,18	1304,56
396,39	1269,74
396,60	1331,18
396,80	1302,51
397,01	1255,40
397,22	1208,30
397,43	1241,07
397,64	1200,11
397,84	1318,89
398,05	1284,08
398,26	1363,95
398,47	1255,40
398,67	1314,80
398,88	1304,56
399,09	1271,79
399,30	1241,07
399,51	1273,84
399,71	1249,26
399,92	1200,11
400,13	1304,56
400,34	1216,49
400,54	1302,51
400,75	1310,70
400,96	1333,23
401,17	1306,60
401,37	1249,26
401,58	1288,17
401,79	1296,36
402,00	1292,27
402,21	1261,55
402,41	1259,50
402,62	1333,23
402,83	1234,93
403,04	1290,22
403,24	1296,36
403,45	1265,64
403,66	1282,03
403,87	1206,25
404,07	1292,27
404,28	1366,00
404,49	1341,42
404,70	1255,40
404,90	1251,31
405,11	1257,45
405,32	1327,08
405,52	1286,12
405,73	1198,06
405,94	1249,26
406,15	1265,64
406,35	1253,36
406,56	1226,73
406,77	1257,45
406,98	1298,41
407,18	1282,03
407,39	1290,22
407,60	1312,75
407,80	1282,03
408,01	1271,79
408,22	1273,84
408,43	1261,55
408,63	1318,89
408,84	1329,13
409,05	1296,36
409,25	1279,98
409,46	1193,97
409,67	1288,17
409,88	1239,02
410,08	1202,16
410,29	1277,93
410,50	1271,79
410,70	1230,83
410,91	1290,22
411,12	1275,88
411,32	1234,93
411,53	1284,08
411,74	1247,21
411,95	1263,60
412,15	1247,21
412,36	1214,45
412,57	1355,76
412,77	1304,56
412,98	1224,69
413,19	1253,36
413,39	1288,17
413,60	1247,21
413,81	1224,69
414,01	1300,46
414,22	1335,28
414,43	1255,40
414,63	1251,31
414,84	1271,79
415,05	1253,36
415,25	1298,41
415,46	1263,60
415,67	1249,26
415,87	1286,12
416,08	1259,50
416,29	1241,07
416,49	1187,82
416,70	1273,84
416,91	1257,45
417,11	1224,69
417,32	1218,54
417,53	1249,26
417,73	1294,32
417,94	1275,88
418,15	1339,37
418,35	1320,94
418,56	1261,55
418,77	1263,60
418,97	1282,03
419,18	1314,80
419,38	1298,41
419,59	1279,98
419,80	1183,73
420,00	1230,83
420,21	1273,84
420,42	1236,97
420,62	1302,51
420,83	1333,23
421,04	1241,07
421,24	1255,40
421,45	1296,36
421,65	1294,32
421,86	1282,03
422,07	1355,76
422,27	1263,60
422,48	1220,59
422,69	1271,79
422,89	1310,70
423,10	1290,22
423,30	1261,55
423,51	1329,13
423,72	1202,16
423,92	1288,17
424,13	1273,84
424,33	1234,93
424,54	1239,02
424,75	1298,41
424,95	1277,93
425,16	1259,50
425,36	1249,26
425,57	1304,56
425,78	1279,98
425,98	1263,60
426,19	1267,69
426,39	1236,97
426,60	1310,70
426,81	1234,93
427,01	1279,98
427,22	1243,12
427,42	1245,16
427,63	1220,59
427,83	1220,59
428,04	1282,03
428,25	1279,98
428,45	1267,69
428,66	1296,36
428,86	1259,50
429,07	1294,32
429,28	1314,80
429,48	1206,25
429,69	1269,74
429,89	1189,87
430,10	1286,12
430,30	1261,55
430,51	1271,79
430,71	1261,55
430,92	1222,64
431,13	1191,92
431,33	1220,59
431,54	1273,84
431,74	1222,64
431,95	1296,36
432,15	1284,08
432,36	1228,78
432,56	1222,64
432,77	1220,59
432,98	1374,19
433,18	1263,60
433,39	1232,88
433,59	1331,18
433,80	1241,07
434,00	1261,55
434,21	1275,88
434,41	1308,65
434,62	1296,36
434,82	1312,75
435,03	1329,13
435,23	1249,26
435,44	1267,69
435,64	1273,84
435,85	1279,98
436,06	1314,80
436,26	1247,21
436,47	1189,87
436,67	1230,83
436,88	1296,36
437,08	1296,36
437,29	1263,60
437,49	1259,50
437,70	1282,03
437,90	1290,22
438,11	1359,85
438,31	1204,21
438,52	1284,08
438,72	1298,41
438,93	1245,16
439,13	1302,51
439,34	1204,21
439,54	1337,32
439,75	1286,12
439,95	1230,83
440,16	1261,55
440,36	1257,45
440,57	1327,08
440,77	1232,88
440,98	1263,60
441,18	1277,93
441,39	1234,93
441,59	1257,45
441,80	1282,03
442,00	1296,36
442,21	1253,36
442,41	1308,65
442,62	1294,32
442,82	1286,12
443,02	1277,93
443,23	1300,46
443,43	1275,88
443,64	1263,60
443,84	1234,93
444,05	1249,26
444,25	1255,40
444,46	1322,99
444,66	1286,12
444,87	1251,31
445,07	1322,99
445,28	1308,65
445,48	1222,64
445,69	1220,59
445,89	1247,21
446,09	1267,69
446,30	1236,97
446,50	1292,27
446,71	1261,55
446,91	1316,84
447,12	1216,49
447,32	1232,88
447,53	1243,12
447,73	1263,60
447,93	1257,45
448,14	1343,47
448,34	1308,65
448,55	1255,40
448,75	1300,46
448,96	1347,56
449,16	1267,69
449,36	1279,98
449,57	1316,84
449,77	1202,16
449,98	1310,70
450,18	1292,27
450,39	1406,95
450,59	1282,03
450,79	1271,79
451,00	1320,94
451,20	1318,89
451,41	1210,35
451,61	1298,41
451,81	1382,38
452,02	1226,73
452,22	1347,56
452,43	1296,36
452,63	1277,93
452,84	1314,80
453,04	1265,64
453,24	1290,22
453,45	1214,45
453,65	1263,60
453,86	1261,55
454,06	1253,36
454,26	1255,40
454,47	1331,18
454,67	1206,25
454,87	1251,31
455,08	1318,89
455,28	1259,50
455,49	1325,04
455,69	1273,84
455,89	1273,84
456,10	1318,89
456,30	1320,94
456,51	1259,50
456,71	1304,56
456,91	1269,74
457,12	1312,75
457,32	1200,11
457,52	1216,49
457,73	1300,46
457,93	1345,52
458,14	1236,97
458,34	1232,88
458,54	1263,60
458,75	1273,84
458,95	1228,78
459,15	1314,80
459,36	1292,27
459,56	1165,29
459,76	1212,40
459,97	1263,60
460,17	1220,59
460,37	1355,76
460,58	1179,63
460,78	1236,97
460,99	1282,03
461,19	1271,79
461,39	1314,80
461,60	1247,21
461,80	1206,25
462,00	1296,36
462,21	1318,89
462,41	1290,22
462,61	1298,41
462,82	1265,64
463,02	1284,08
463,22	1228,78
463,43	1290,22
463,63	1284,08
463,83	1275,88
464,04	1247,21
464,24	1275,88
464,44	1249,26
464,64	1257,45
464,85	1230,83
465,05	1286,12
465,25	1234,93
465,46	1271,79
465,66	1275,88
465,86	1200,11
466,07	1255,40
466,27	1273,84
466,47	1304,56
466,68	1353,71
466,88	1232,88
467,08	1245,16
467,29	1306,60
467,49	1175,53
467,69	1214,45
467,89	1286,12
468,10	1193,97
468,30	1333,23
468,50	1208,30
468,71	1228,78
468,91	1253,36
469,11	1255,40
469,31	1228,78
469,52	1259,50
469,72	1232,88
469,92	1290,22
470,13	1314,80
470,33	1296,36
470,53	1288,17
470,73	1282,03
470,94	1294,32
471,14	1243,12
471,34	1312,75
471,54	1275,88
471,75	1275,88
471,95	1275,88
472,15	1241,07
472,36	1236,97
472,56	1304,56
472,76	1275,88
472,96	1331,18
473,17	1249,26
473,37	1265,64
473,57	1269,74
473,77	1327,08
473,98	1277,93
474,18	1193,97
474,38	1247,21
474,58	1241,07
474,79	1261,55
474,99	1282,03
475,19	1249,26
475,39	1187,82
475,60	1308,65
475,80	1228,78
476,00	1232,88
476,20	1265,64
476,41	1222,64
476,61	1302,51
476,81	1310,70
477,01	1228,78
477,21	1298,41
477,42	1302,51
477,62	1224,69
477,82	1255,40
478,02	1210,35
478,23	1224,69
478,43	1216,49
478,63	1263,60
478,83	1279,98
479,03	1300,46
479,24	1290,22
479,44	1298,41
479,64	1263,60
479,84	1284,08
480,04	1292,27
480,25	1247,21
480,45	1230,83
480,65	1239,02
480,85	1294,32
481,06	1249,26
481,26	1345,52
481,46	1300,46
481,66	1325,04
481,86	1222,64
482,06	1243,12
482,27	1257,45
482,47	1234,93
482,67	1255,40
482,87	1345,52
483,07	1263,60
483,28	1255,40
483,48	1245,16
483,68	1277,93
483,88	1331,18
484,08	1245,16
484,29	1212,40
484,49	1308,65
484,69	1314,80
484,89	1290,22
485,09	1286,12
485,29	1271,79
485,50	1261,55
485,70	1279,98
485,90	1318,89
486,10	1206,25
486,30	1232,88
486,50	1316,84
486,71	1312,75
486,91	1236,97
487,11	1282,03
487,31	1345,52
487,51	1314,80
487,71	1249,26
487,91	1265,64
488,12	1255,40
488,32	1312,75
488,52	1218,54
488,72	1212,40
488,92	1257,45
489,12	1269,74
489,32	1284,08
489,53	1239,02
489,73	1257,45
489,93	1189,87
490,13	1241,07
490,33	1271,79
490,53	1282,03
490,73	1255,40
490,94	1198,06
491,14	1372,14
491,34	1302,51
491,54	1298,41
491,74	1249,26
491,94	1284,08
492,14	1312,75
492,34	1241,07
492,54	1316,84
492,75	1322,99
492,95	1277,93
493,15	1286,12
493,35	1337,32
493,55	1263,60
493,75	1212,40
493,95	1284,08
494,15	1247,21
494,35	1329,13
494,56	1312,75
494,76	1208,30
494,96	1253,36
495,16	1282,03
495,36	1253,36
495,56	1265,64
495,76	1245,16
495,96	1259,50
496,16	1253,36
496,36	1339,37
496,56	1290,22
496,77	1271,79
496,97	1148,91
497,17	1282,03
497,37	1290,22
497,57	1325,04
497,77	1234,93
497,97	1318,89
498,17	1288,17
498,37	1310,70
498,57	1200,11
498,77	1269,74
498,97	1296,36
499,17	1327,08
499,38	1249,26
499,58	1263,60
499,78	1294,32
499,98	1216,49
500,18	1296,36
500,38	1210,35
500,58	1259,50
500,78	1255,40
500,98	1255,40
501,18	1271,79
501,38	1333,23
501,58	1255,40
501,78	1212,40
501,98	1267,69
502,18	1228,78
502,38	1241,07
502,58	1282,03
502,78	1247,21
502,98	1310,70
503,18	1222,64
503,38	1277,93
503,59	1322,99
503,79	1247,21
503,99	1247,21
504,19	1171,44
504,39	1279,98
504,59	1288,17
504,79	1255,40
504,99	1271,79
505,19	1249,26
505,39	1271,79
505,59	1282,03
505,79	1294,32
505,99	1292,27
506,19	1177,58
506,39	1267,69
506,59	1251,31
506,79	1255,40
506,99	1320,94
507,19	1230,83
507,39	1232,88
507,59	1292,27
507,79	1322,99
507,99	1200,11
508,19	1331,18
508,39	1271,79
508,59	1230,83
508,79	1218,54
508,99	1218,54
509,19	1306,60
509,39	1236,97
509,59	1345,52
509,79	1308,65
509,99	1318,89
510,19	1210,35
510,39	1255,40
510,59	1236,97
510,79	1277,93
510,99	1284,08
511,19	1187,82
511,39	1279,98
511,59	1331,18
511,79	1286,12
511,99	1202,16
512,19	1257,45
512,38	1247,21
512,58	1275,88
512,78	1265,64
512,98	1286,12
513,18	1298,41
513,38	1261,55
513,58	1277,93
513,78	1220,59
513,98	1304,56
514,18	1253,36
514,38	1282,03
514,58	1267,69
514,78	1257,45
514,98	1155,05
515,18	1304,56
515,38	1302,51
515,58	1298,41
515,78	1216,49
515,98	1316,84
516,18	1265,64
516,38	1345,52
516,57	1316,84
516,77	1259,50
516,97	1232,88
517,17	1286,12
517,37	1245,16
517,57	1277,93
517,77	1282,03
517,97	1304,56
518,17	1243,12
518,37	1220,59
518,57	1226,73
518,77	1286,12
518,97	1273,84
519,16	1232,88
519,36	1306,60
519,56	1312,75
519,76	1308,65
519,96	1282,03
520,16	1406,95
520,36	1220,59
520,56	1329,13
520,76	1282,03
520,96	1251,31
521,16	1249,26
521,35	1232,88
521,55	1273,84
521,75	1189,87
521,95	1284,08
522,15	1363,95
522,35	1239,02
522,55	1343,47
522,75	1224,69
522,95	1288,17
523,14	1230,83
523,34	1261,55
523,54	1308,65
523,74	1269,74
523,94	1361,90
524,14	1279,98
524,34	1290,22
524,54	1380,33
524,73	1251,31
524,93	1308,65
525,13	1261,55
525,33	1292,27
525,53	1294,32
525,73	1339,37
525,93	1259,50
526,13	1286,12
526,32	1210,35
526,52	1279,98
526,72	1353,71
526,92	1286,12
527,12	1263,60
527,32	1288,17
527,52	1226,73
527,71	1222,64
527,91	1273,84
528,11	1247,21
528,31	1271,79
528,51	1265,64
528,71	1269,74
528,90	1265,64
529,10	1232,88
529,30	1218,54
529,50	1310,70
529,70	1259,50
529,90	1277,93
530,09	1269,74
530,29	1222,64
530,49	1214,45
530,69	1335,28
530,89	1333,23
531,09	1241,07
531,28	1284,08
531,48	1269,74
531,68	1302,51
531,88	1284,08
532,08	1271,79
532,28	1236,97
532,47	1251,31
532,67	1327,08
532,87	1241,07
533,07	1273,84
533,27	1236,97
533,46	1222,64
533,66	1318,89
533,86	1239,02
534,06	1345,52
534,26	1220,59
534,45	1300,46
534,65	1300,46
534,85	1226,73
535,05	1345,52
535,25	1294,32
535,44	1294,32
535,64	1275,88
535,84	1312,75
536,04	1263,60
536,24	1314,80
536,43	1261,55
536,63	1314,80
536,83	1294,32
537,03	1298,41
537,22	1257,45
537,42	1267,69
537,62	1243,12
537,82	1314,80
538,02	1265,64
538,21	1249,26
538,41	1288,17
538,61	1245,16
538,81	1277,93
539,00	1257,45
539,20	1271,79
539,40	1265,64
539,60	1335,28
539,79	1312,75
539,99	1249,26
540,19	1208,30
540,39	1163,25
540,58	1310,70
540,78	1241,07
540,98	1189,87
541,18	1282,03
541,37	1255,40
541,57	1294,32
541,77	1343,47
541,97	1228,78
542,16	1251,31
542,36	1263,60
542,56	1316,84
542,76	1251,31
542,95	1296,36
543,15	1284,08
543,35	1310,70
543,54	1294,32
543,74	1300,46
543,94	1193,97
544,14	1251,31
544,33	1265,64
544,53	1286,12
544,73	1257,45
544,93	1273,84
545,12	1296,36
545,32	1249,26
545,52	1343,47
545,71	1310,70
545,91	1325,04
546,11	1310,70
546,30	1220,59
546,50	1370,09
546,70	1335,28
546,90	1271,79
547,09	1306,60
547,29	1208,30
547,49	1267,69
547,68	1253,36
547,88	1263,60
548,08	1247,21
548,27	1370,09
548,47	1257,45
548,67	1243,12
548,87	1255,40
549,06	1212,40
549,26	1316,84
549,46	1189,87
549,65	1353,71
549,85	1329,13
550,05	1341,42
550,24	1329,13
550,44	1288,17
550,64	1290,22
550,83	1271,79
551,03	1249,26
551,23	1306,60
551,42	1261,55
551,62	1347,56
551,82	1261,55
552,01	1286,12
552,21	1208,30
552,41	1316,84
552,60	1314,80
552,80	1236,97
553,00	1292,27
553,19	1253,36
553,39	1294,32
553,59	1355,76
553,78	1277,93
553,98	1253,36
554,17	1288,17
554,37	1247,21
554,57	1220,59
554,76	1302,51
554,96	1259,50
555,16	1294,32
555,35	1220,59
555,55	1284,08
555,75	1288,17
555,94	1298,41
556,14	1308,65
556,33	1304,56
556,53	1232,88
556,73	1247,21
556,92	1228,78
557,12	1343,47
557,32	1273,84
557,51	1312,75
557,71	1247,21
557,90	1279,98
558,10	1247,21
558,30	1304,56
558,49	1277,93
558,69	1337,32
558,88	1245,16
559,08	1265,64
559,28	1294,32
559,47	1331,18
559,67	1263,60
559,86	1239,02
560,06	1241,07
560,26	1218,54
560,45	1279,98
560,65	1261,55
560,84	1290,22
561,04	1275,88
561,24	1273,84
561,43	1200,11
561,63	1169,39
561,82	1314,80
562,02	1308,65
562,22	1257,45
562,41	1255,40
562,61	1257,45
562,80	1294,32
563,00	1357,80
563,19	1277,93
563,39	1273,84
563,59	1279,98
563,78	1322,99
563,98	1265,64
564,17	1284,08
564,37	1253,36
564,56	1257,45
564,76	1298,41
564,96	1249,26
565,15	1286,12
565,35	1241,07
565,54	1265,64
565,74	1218,54
565,93	1318,89
566,13	1302,51
566,32	1271,79
566,52	1249,26
566,71	1282,03
566,91	1284,08
567,11	1294,32
567,30	1245,16
567,50	1245,16
567,69	1343,47
567,89	1210,35
568,08	1234,93
568,28	1335,28
568,47	1288,17
568,67	1284,08
568,86	1347,56
569,06	1277,93
569,25	1236,97
569,45	1226,73
569,64	1290,22
569,84	1269,74
570,04	1236,97
570,23	1175,53
570,43	1255,40
570,62	1224,69
570,82	1300,46
571,01	1247,21
571,21	1316,84
571,40	1243,12
571,60	1249,26
571,79	1251,31
571,99	1312,75
572,18	1216,49
572,38	1261,55
572,57	1339,37
572,77	1339,37
572,96	1267,69
573,16	1265,64
573,35	1232,88
573,55	1306,60
573,74	1257,45
573,94	1327,08
574,13	1273,84
574,33	1245,16
574,52	1282,03
574,71	1322,99
574,91	1282,03
575,10	1249,26
575,30	1263,60
575,49	1218,54
575,69	1241,07
575,88	1202,16
576,08	1243,12
576,27	1275,88
576,47	1290,22
576,66	1290,22
576,86	1294,32
577,05	1255,40
577,25	1339,37
577,44	1296,36
577,64	1271,79
577,83	1279,98
578,02	1232,88
578,22	1316,84
578,41	1236,97
578,61	1241,07
578,80	1261,55
579,00	1216,49
579,19	1249,26
579,39	1277,93
579,58	1261,55
579,77	1310,70
579,97	1298,41
580,16	1298,41
580,36	1247,21
580,55	1306,60
580,75	1277,93
580,94	1284,08
581,13	1271,79
581,33	1286,12
581,52	1241,07
581,72	1218,54
581,91	1251,31
582,11	1282,03
582,30	1320,94
582,49	1284,08
582,69	1290,22
582,88	1230,83
583,08	1232,88
583,27	1245,16
583,47	1284,08
583,66	1241,07
583,85	1290,22
584,05	1296,36
584,24	1267,69
584,44	1331,18
584,63	1282,03
584,82	1284,08
585,02	1304,56
585,21	1310,70
585,41	1294,32
585,60	1224,69
585,79	1304,56
585,99	1343,47
586,18	1185,77
586,37	1339,37
586,57	1341,42
586,76	1255,40
586,96	1236,97
587,15	1347,56
587,34	1282,03
587,54	1241,07
587,73	1271,79
587,93	1265,64
588,12	1310,70
588,31	1239,02
588,51	1290,22
588,70	1372,14
588,89	1298,41
589,09	1271,79
589,28	1224,69
589,47	1286,12
589,67	1263,60
589,86	1308,65
590,06	1222,64
590,25	1282,03
590,44	1267,69
590,64	1259,50
590,83	1239,02
591,02	1269,74
591,22	1298,41
591,41	1220,59
591,60	1249,26
591,80	1308,65
591,99	1257,45
592,18	1239,02
592,38	1277,93
592,57	1255,40
592,76	1294,32
592,96	1275,88
593,15	1249,26
593,34	1314,80
593,54	1277,93
593,73	1298,41
593,92	1267,69
594,12	1294,32
594,31	1279,98
594,50	1241,07
594,70	1306,60
594,89	1210,35
595,08	1249,26
595,28	1339,37
595,47	1298,41
595,66	1282,03
595,86	1265,64
596,05	1228,78
596,24	1302,51
596,43	1220,59
596,63	1253,36
596,82	1257,45
597,01	1322,99
597,21	1296,36
597,40	1292,27
597,59	1322,99
597,79	1267,69
597,98	1263,60
598,17	1302,51
598,36	1282,03
598,56	1279,98
598,75	1294,32
598,94	1261,55
599,14	1247,21
599,33	1310,70
599,52	1261,55
599,71	1306,60
599,91	1273,84
600,10	1333,23
600,29	1292,27
600,48	1322,99
600,68	1300,46
600,87	1255,40
601,06	1296,36
601,26	1361,90
601,45	1253,36
601,64	1216,49
601,83	1265,64
602,03	1230,83
602,22	1243,12
602,41	1251,31
602,60	1288,17
602,80	1290,22
602,99	1282,03
603,18	1239,02
603,37	1259,50
603,57	1267,69
603,76	1335,28
603,95	1304,56
604,14	1271,79
604,34	1257,45
604,53	1306,60
604,72	1222,64
604,91	1232,88
605,10	1294,32
605,30	1220,59
605,49	1302,51
605,68	1228,78
605,87	1236,97
606,07	1224,69
606,26	1290,22
606,45	1255,40
606,64	1263,60
606,84	1200,11
607,03	1259,50
607,22	1298,41
607,41	1282,03
607,60	1214,45
607,80	1284,08
607,99	1269,74
608,18	1343,47
608,37	1212,40
608,56	1286,12
608,76	1302,51
608,95	1226,73
609,14	1353,71
609,33	1265,64
609,52	1316,84
609,72	1249,26
609,91	1282,03
610,10	1234,93
610,29	1345,52
610,48	1290,22
610,68	1298,41
610,87	1241,07
611,06	1290,22
611,25	1294,32
611,44	1312,75
611,63	1277,93
611,83	1284,08
612,02	1196,01
612,21	1269,74
612,40	1273,84
612,59	1302,51
612,79	1312,75
612,98	1320,94
613,17	1247,21
613,36	1271,79
613,55	1263,60
613,74	1314,80
613,93	1263,60
614,13	1320,94
614,32	1261,55
614,51	1236,97
614,70	1269,74
614,89	1304,56
615,08	1269,74
615,28	1226,73
615,47	1279,98
615,66	1288,17
615,85	1335,28
616,04	1277,93
616,23	1294,32
616,42	1282,03
616,62	1314,80
616,81	1273,84
617,00	1257,45
617,19	1322,99
617,38	1263,60
617,57	1247,21
617,76	1234,93
617,95	1265,64
618,15	1329,13
618,34	1263,60
618,53	1243,12
618,72	1263,60
618,91	1292,27
619,10	1267,69
619,29	1218,54
619,48	1306,60
619,68	1239,02
619,87	1298,41
620,06	1300,46
620,25	1271,79
620,44	1337,32
620,63	1294,32
620,82	1265,64
621,01	1304,56
621,20	1300,46
621,39	1239,02
621,59	1226,73
621,78	1261,55
621,97	1245,16
622,16	1292,27
622,35	1288,17
622,54	1224,69
622,73	1322,99
622,92	1312,75
623,11	1228,78
623,30	1286,12
623,49	1304,56
623,68	1296,36
623,88	1282,03
624,07	1331,18
624,26	1282,03
624,45	1247,21
624,64	1247,21
624,83	1279,98
625,02	1331,18
625,21	1345,52
625,40	1284,08
625,59	1304,56
625,78	1304,56
625,97	1366,00
626,16	1318,89
626,35	1298,41
626,54	1325,04
626,74	1294,32
626,93	1298,41
627,12	1316,84
627,31	1327,08
627,50	1306,60
627,69	1366,00
627,88	1263,60
628,07	1273,84
628,26	1193,97
628,45	1337,32
628,64	1249,26
628,83	1257,45
629,02	1300,46
629,21	1255,40
629,40	1232,88
629,59	1302,51
629,78	1325,04
629,97	1329,13
630,16	1374,19
630,35	1261,55
630,54	1263,60
630,73	1251,31
630,92	1327,08
631,11	1282,03
631,30	1325,04
631,49	1286,12
631,68	1609,70
631,87	6055,84
632,06	25685,62
632,25	54273,22
632,44	41377,16
632,63	25933,43
632,82	23578,26
633,01	5609,39
633,20	3174,35
633,39	2631,64
633,58	2332,64
633,77	1908,71
633,96	1767,40
634,15	1769,44
634,34	1648,61
634,53	1562,60
634,72	1581,03
634,91	1542,12
635,10	1437,67
635,29	1413,10
635,48	1484,78
635,67	1460,20
635,86	1445,87
636,05	1447,91
636,24	1478,63
636,43	1374,19
636,62	1357,80
636,81	1302,51
637,00	1327,08
637,19	1331,18
637,38	1312,75
637,57	1290,22
637,76	1320,94
637,95	1288,17
638,14	1327,08
638,33	1265,64
638,52	1312,75
638,71	1265,64
638,89	1318,89
639,08	1296,36
639,27	1298,41
639,46	1333,23
639,65	1304,56
639,84	1300,46
640,03	1275,88
640,22	1331,18
640,41	1310,70
640,60	1271,79
640,79	1298,41
640,98	1339,37
641,17	1261,55
641,36	1294,32
641,55	1345,52
641,74	1230,83
641,92	1271,79
642,11	1273,84
642,30	1339,37
642,49	1292,27
642,68	1230,83
642,87	1294,32
643,06	1316,84
643,25	1325,04
643,44	1265,64
643,63	1245,16
643,82	1263,60
644,00	1269,74
644,19	1286,12
644,38	1310,70
644,57	1232,88
644,76	1322,99
644,95	1253,36
645,14	1282,03
645,33	1312,75
645,52	1277,93
645,71	1279,98
645,89	1306,60
646,08	1232,88
646,27	1263,60
646,46	1245,16
646,65	1261,55
646,84	1351,66
647,03	1349,61
647,22	1259,50
647,40	1222,64
647,59	1294,32
647,78	1241,07
647,97	1288,17
648,16	1249,26
648,35	1331,18
648,54	1161,20
648,73	1302,51
648,91	1312,75
649,10	1269,74
649,29	1241,07
649,48	1265,64
649,67	1263,60
649,86	1333,23
650,05	1294,32
650,23	1361,90
650,42	1236,97
650,61	1284,08
650,80	1279,98
650,99	1335,28
651,18	1249,26
651,36	1290,22
651,55	1257,45
651,74	1318,89
651,93	1308,65
652,12	1277,93
652,31	1218,54
652,49	1259,50
652,68	1294,32
652,87	1226,73
653,06	1247,21
653,25	1372,14
653,44	1308,65
653,62	1253,36
653,81	1273,84
654,00	1179,63
654,19	1220,59
654,38	1265,64
654,56	1228,78
654,75	1236,97
654,94	1300,46
655,13	1286,12
655,32	1298,41
655,51	1374,19
655,69	1279,98
655,88	1306,60
656,07	1265,64
656,26	1222,64
656,45	1261,55
656,63	1277,93
656,82	1279,98
657,01	1286,12
657,20	1239,02
657,38	1296,36
657,57	1294,32
657,76	1218,54
657,95	1316,84
658,14	1253,36
658,32	1316,84
658,51	1224,69
658,70	1282,03
658,89	1241,07
659,08	1300,46
659,26	1265,64
659,45	1261,55
659,64	1275,88
659,83	1320,94
660,01	1286,12
660,20	1296,36
660,39	1263,60
660,58	1241,07
660,76	1167,34
660,95	1282,03
661,14	1265,64
661,33	1294,32
661,51	1308,65
661,70	1255,40
661,89	1226,73
662,08	1259,50
662,26	1263,60
662,45	1198,06
662,64	1306,60
662,83	1220,59
663,01	1306,60
663,20	1146,86
663,39	1253,36
663,58	1263,60
663,76	1302,51
663,95	1267,69
664,14	1275,88
664,32	1267,69
664,51	1325,04
664,70	1271,79
664,89	1267,69
665,07	1249,26
665,26	1202,16
665,45	1243,12
665,64	1298,41
665,82	1253,36
666,01	1271,79
666,20	1333,23
666,38	1331,18
666,57	1228,78
666,76	1263,60
666,95	1327,08
667,13	1282,03
667,32	1247,21
667,51	1239,02
667,69	1271,79
667,88	1136,62
668,07	1267,69
668,25	1286,12
668,44	1234,93
668,63	1296,36
668,81	1200,11
669,00	1320,94
669,19	1282,03
669,38	1275,88
669,56	1277,93
669,75	1257,45
669,94	1230,83
670,12	1232,88
670,31	1247,21
670,50	1263,60
670,68	1234,93
670,87	1265,64
671,06	1265,64
671,24	1232,88
671,43	1230,83
671,62	1255,40
671,80	1300,46
671,99	1263,60
672,18	1253,36
672,36	1222,64
672,55	1253,36
672,74	1247,21
672,92	1325,04
673,11	1279,98
673,29	1251,31
673,48	1202,16
673,67	1273,84
673,85	1271,79
674,04	1257,45
674,23	1185,77
674,41	1335,28
674,60	1263,60
674,79	1286,12
674,97	1257,45
675,16	1232,88
675,34	1261,55
675,53	1282,03
675,72	1243,12
675,90	1249,26
676,09	1214,45
676,28	1306,60
676,46	1267,69
676,65	1294,32
676,83	1267,69
677,02	1327,08
677,21	1232,88
677,39	1288,17
677,58	1263,60
677,77	1310,70
677,95	1318,89
678,14	1286,12
678,32	1263,60
678,51	1300,46
678,70	1288,17
678,88	1308,65
679,07	1251,31
679,25	1300,46
679,44	1294,32
679,63	1335,28
679,81	1243,12
680,00	1269,74
680,18	1263,60
680,37	1232,88
680,55	1277,93
680,74	1288,17
680,93	1302,51
681,11	1304,56
681,30	1214,45
681,48	1273,84
681,67	1263,60
681,85	1271,79
682,04	1314,80
682,23	1351,66
682,41	1286,12
682,60	1284,08
682,78	1290,22
682,97	1210,35
683,15	1253,36
683,34	1277,93
683,53	1230,83
683,71	1257,45
683,90	1314,80
684,08	1265,64
684,27	1263,60
684,45	1277,93
684,64	1312,75
684,82	1247,21
685,01	1294,32
685,19	1286,12
685,38	1316,84
685,57	1286,12
685,75	1263,60
685,94	1290,22
686,12	1337,32
686,31	1216,49
686,49	1273,84
686,68	1251,31
686,86	1226,73
687,05	1284,08
687,23	1292,27
687,42	1302,51
687,60	1298,41
687,79	1249,26
687,97	1277,93
688,16	1282,03
688,34	1259,50
688,53	1249,26
688,71	1288,17
688,90	1255,40
689,08	1320,94
689,27	1294,32
689,45	1312,75
689,64	1290,22
689,82	1271,79
690,01	1337,32
690,19	1320,94
690,38	1298,41
690,56	1368,04
690,75	1234,93
690,93	1286,12
691,12	1245,16
691,30	1320,94
691,49	1216,49
691,67	1230,83
691,86	1224,69
692,04	1282,03
692,23	1239,02
692,41	1220,59
692,60	1255,40
692,78	1265,64
692,97	1222,64
693,15	1304,56
693,34	1306,60
693,52	1292,27
693,71	1341,42
693,89	1261,55
694,08	1193,97
694,26	1333,23
694,44	1261,55
694,63	1224,69
694,81	1279,98
695,00	1204,21
695,18	1257,45
695,37	1300,46
695,55	1204,21
695,74	1241,07
695,92	1277,93
696,10	1263,60
696,29	1312,75
696,47	1296,36
696,66	1249,26
696,84	1212,40
697,03	1275,88
697,21	1333,23
697,40	1247,21
697,58	1241,07
697,76	1269,74
697,95	1288,17
698,13	1245,16
698,32	1228,78
698,50	1230,83
698,68	1196,01
698,87	1239,02
699,05	1267,69
699,24	1288,17
699,42	1269,74
699,61	1294,32
699,79	1257,45
699,97	1269,74
700,16	1292,27
700,34	1216,49
700,53	1292,27
700,71	1304,56
700,89	1269,74
701,08	1327,08
701,26	1253,36
701,45	1322,99
701,63	1302,51
701,81	1271,79
702,00	1353,71
702,18	1277,93
702,37	1292,27
702,55	1261,55
702,73	1335,28
702,92	1271,79
703,10	1232,88
703,28	1298,41
703,47	1279,98
703,65	1251,31
703,84	1241,07
704,02	1255,40
704,20	1292,27
704,39	1359,85
704,57	1288,17
704,75	1191,92
704,94	1318,89
705,12	1255,40
705,30	1236,97
705,49	1282,03
705,67	1232,88
705,86	1271,79
706,04	1247,21
706,22	1273,84
706,41	1261,55
706,59	1218,54
706,77	1318,89
706,96	1304,56
707,14	1288,17
707,32	1292,27
707,51	1265,64
707,69	1257,45
707,87	1294,32
708,06	1292,27
708,24	1279,98
708,42	1292,27
708,61	1314,80
708,79	1292,27
708,97	1230,83
709,16	1189,87
709,34	1257,45
709,52	1279,98
709,71	1269,74
709,89	1284,08
710,07	1212,40
710,26	1310,70
710,44	1314,80
710,62	1298,41
710,80	1271,79
710,99	1269,74
711,17	1206,25
711,35	1261,55
711,54	1265,64
711,72	1253,36
711,90	1296,36
712,09	1282,03
712,27	1222,64
712,45	1318,89
712,63	1298,41
712,82	1226,73
713,00	1269,74
713,18	1208,30
713,37	1273,84
713,55	1228,78
713,73	1239,02
713,91	1249,26
714,10	1251,31
714,28	1290,22
714,46	1322,99
714,65	1273,84
714,83	1230,83
715,01	1228,78
715,19	1142,77
715,38	1347,56
715,56	1284,08
715,74	1241,07
715,92	1273,84
716,11	1302,51
716,29	1271,79
716,47	1306,60
716,65	1329,13
716,84	1284,08
717,02	1222,64
717,20	1310,70
717,38	1251,31
717,57	1300,46
717,75	1294,32
717,93	1292,27
718,11	1236,97
718,30	1234,93
718,48	1239,02
718,66	1290,22
718,84	1325,04
719,03	1257,45
719,21	1249,26
719,39	1226,73
719,57	1253,36
719,75	1312,75
719,94	1275,88
720,12	1331,18
720,30	1208,30
720,48	1279,98
720,67	1216,49
720,85	1282,03
721,03	1343,47
721,21	1271,79
721,39	1292,27
721,58	1279,98
721,76	1296,36
721,94	1355,76
722,12	1284,08
722,30	1236,97
722,49	1249,26
722,67	1251,31
722,85	1216,49
723,03	1224,69
723,21	1263,60
723,40	1312,75
723,58	1329,13
723,76	1320,94
723,94	1253,36
724,12	1265,64
724,30	1322,99
724,49	1290,22
724,67	1279,98
724,85	1249,26
725,03	1208,30
725,21	1337,32
725,40	1294,32
725,58	1322,99
725,76	1302,51
725,94	1210,35
726,12	1347,56
726,30	1284,08
726,49	1232,88
726,67	1222,64
726,85	1284,08
727,03	1236,97
727,21	1271,79
727,39	1226,73
727,57	1314,80
727,76	1208,30
727,94	1261,55
728,12	1279,98
728,30	1241,07
728,48	1220,59
728,66	1353,71
728,84	1288,17
729,03	1222,64
729,21	1257,45
729,39	1245,16
729,57	1220,59
729,75	1327,08
729,93	1275,88
730,11	1226,73
730,30	1214,45
730,48	1376,24
730,66	1314,80
730,84	1386,47
731,02	1269,74
731,20	1232,88
731,38	1206,25
731,56	1306,60
731,74	1243,12
731,93	1239,02
732,11	1265,64
732,29	1290,22
732,47	1277,93
732,65	1271,79
732,83	1273,84
733,01	1275,88
733,19	1234,93
733,37	1212,40
733,56	1271,79
733,74	1294,32
733,92	1247,21
734,10	1341,42
734,28	1249,26
734,46	1259,50
734,64	1322,99
734,82	1302,51
735,00	1282,03
735,18	1230,83
735,36	1257,45
735,54	1273,84
735,73	1259,50
735,91	1312,75
736,09	1277,93
736,27	1277,93
736,45	1206,25
736,63	1298,41
736,81	1261,55
736,99	1210,35
737,17	1329,13
737,35	1271,79
737,53	1302,51
737,71	1277,93
737,89	1304,56
738,07	1282,03
738,25	1234,93
738,43	1259,50
738,61	1296,36
738,80	1304,56
738,98	1273,84
739,16	1241,07
739,34	1279,98
739,52	1226,73
739,70	1308,65
739,88	1245,16
740,06	1286,12
740,24	1249,26
740,42	1253,36
740,60	1222,64
740,78	1298,41
740,96	1243,12
741,14	1290,22
741,32	1296,36
741,50	1353,71
741,68	1265,64
741,86	1249,26
742,04	1220,59
742,22	1251,31
742,40	1331,18
742,58	1234,93
742,76	1277,93
742,94	1271,79
743,12	1249,26
743,30	1191,92
743,48	1202,16
743,66	1294,32
743,84	1357,80
744,02	1294,32
744,20	1325,04
744,38	1288,17
744,56	1255,40
744,74	1331,18
744,92	1263,60
745,10	1273,84
745,28	1314,80
745,46	1292,27
745,64	1239,02
745,82	1302,51
746,00	1265,64
746,18	1296,36
746,36	1222,64
746,54	1247,21
746,72	1331,18
746,90	1218,54
747,08	1359,85
747,26	1241,07
747,44	1224,69
747,62	1247,21
747,80	1267,69
747,98	1296,36
748,15	1331,18
748,33	1163,25
748,51	1290,22
748,69	1249,26
748,87	1298,41
749,05	1241,07
749,23	1284,08
749,41	1308,65
749,59	1282,03
749,77	1183,73
749,95	1322,99
750,13	1304,56
750,31	1271,79
750,49	1310,70
750,67	1298,41
750,85	1251,31
751,03	1226,73
751,20	1273,84
751,38	1372,14
751,56	1232,88
751,74	1290,22
751,92	1243,12
752,10	1230,83
752,28	1198,06
752,46	1202,16
752,64	1210,35
752,82	1286,12
753,00	1296,36
753,18	1253,36
753,35	1275,88
753,53	1320,94
753,71	1232,88
753,89	1310,70
754,07	1304,56
754,25	1251,31
754,43	1277,93
754,61	1255,40
754,79	1290,22
754,97	1222,64
755,14	1265,64
755,32	1249,26
755,50	1255,40
755,68	1279,98
755,86	1245,16
756,04	1232,88
756,22	1212,40
756,40	1263,60
756,57	1302,51
756,75	1230,83
756,93	1292,27
757,11	1230,83
757,29	1263,60
757,47	1185,77
757,65	1314,80
757,82	1341,42
758,00	1183,73
758,18	1322,99
758,36	1247,21
758,54	1314,80
758,72	1271,79
758,90	1247,21
759,07	1300,46
759,25	1277,93
759,43	1279,98
759,61	1265,64
759,79	1335,28
759,97	1267,69
760,15	1224,69
760,32	1282,03
760,50	1241,07
760,68	1255,40
760,86	1308,65
761,04	1226,73
761,22	1257,45
761,39	1277,93
761,57	1263,60
761,75	1257,45
761,93	1282,03
762,11	1218,54
762,28	1269,74
762,46	1331,18
762,64	1282,03
762,82	1277,93
763,00	1318,89
763,18	1320,94
763,35	1277,93
763,53	1243,12
763,71	1271,79
763,89	1247,21
764,07	1206,25
764,24	1304,56
764,42	1320,94
764,60	1337,32
764,78	1286,12
764,96	1259,50
765,13	1234,93
765,31	1245,16
765,49	1275,88
765,67	1257,45
765,84	1327,08
766,02	1241,07
766,20	1273,84
766,38	1292,27
766,56	1320,94
766,73	1282,03
766,91	1181,68
767,09	1257,45
767,27	1253,36
767,44	1196,01
767,62	1263,60
767,80	1259,50
767,98	1228,78
768,15	1277,93
768,33	1261,55
768,51	1263,60
768,69	1345,52
768,87	1282,03
769,04	1296,36
769,22	1343,47
769,40	1322,99
769,58	1265,64
769,75	1253,36
769,93	1318,89
770,11	1212,40
770,28	1222,64
770,46	1271,79
770,64	1337,32
770,82	1288,17
770,99	1206,25
771,17	1255,40
771,35	1263,60
771,53	1245,16
771,70	1271,79
771,88	1286,12
772,06	1210,35
772,23	1245,16
772,41	1347,56
772,59	1257,45
772,77	1257,45
772,94	1290,22
773,12	1265,64
773,30	1300,46
773,47	1243,12
773,65	1220,59
773,83	1243,12
774,01	1302,51
774,18	1220,59
774,36	1263,60
774,54	1261,55
774,71	1241,07
774,89	1245,16
775,07	1232,88
775,24	1318,89
775,42	1257,45
775,60	1226,73
775,78	1243,12
775,95	1214,45
776,13	1212,40
776,31	1306,60
776,48	1193,97
776,66	1269,74
776,84	1259,50
777,01	1306,60
777,19	1325,04
777,37	1290,22
777,54	1298,41
777,72	1300,46
777,90	1249,26
778,07	1320,94
778,25	1253,36
778,43	1329,13
778,60	1261,55
778,78	1314,80
778,96	1169,39
779,13	1251,31
779,31	1316,84
779,49	1257,45
779,66	1253,36
779,84	1255,40
780,01	1247,21
780,19	1232,88
780,37	1239,02
780,54	1214,45
780,72	1255,40
780,90	1257,45
781,07	1273,84
781,25	1157,10
781,43	1306,60
781,60	1298,41
781,78	1339,37
781,95	1279,98
782,13	1288,17
782,31	1275,88
782,48	1228,78
782,66	1279,98
782,83	1255,40
783,01	1286,12
783,19	1212,40
783,36	1351,66
783,54	1271,79
783,72	1255,40
783,89	1265,64
784,07	1294,32
784,24	1310,70
784,42	1255,40
784,60	1292,27
784,77	1329,13
784,95	1226,73
785,12	1259,50
785,30	1265,64
785,47	1279,98
785,65	1247,21
785,83	1273,84
786,00	1228,78
786,18	1181,68
786,35	1236,97
786,53	1304,56
786,71	1200,11
786,88	1230,83
787,06	1232,88
787,23	1296,36
787,41	1255,40
787,58	1198,06
787,76	1224,69
787,94	1376,24
788,11	1232,88
788,29	1304,56
788,46	1308,65
788,64	1284,08
788,81	1353,71
788,99	1296,36
789,16	1294,32
789,34	1196,01
789,52	1239,02
789,69	1232,88
789,87	1243,12
790,04	1300,46
790,22	1312,75
790,39	1247,21
790,57	1275,88
790,74	1290,22
790,92	1208,30
791,09	1296,36
791,27	1308,65
791,44	1282,03
791,62	1261,55
791,79	1239,02
791,97	1193,97
792,15	1304,56
792,32	1296,36
792,50	1329,13
792,67	1232,88
792,85	1220,59
793,02	1298,41
793,20	1316,84
793,37	1230,83
793,55	1265,64
793,72	1312,75
793,90	1273,84
794,07	1302,51
794,25	1251,31
794,42	1277,93
794,60	1298,41
794,77	1286,12
794,95	1312,75
795,12	1218,54
795,30	1236,97
795,47	1296,36
795,65	1347,56
795,82	1282,03
796,00	1273,84
796,17	1265,64
796,34	1310,70
796,52	1259,50
796,69	1249,26
796,87	1286,12
797,04	1255,40
797,22	1247,21
797,39	1296,36
797,57	1282,03
797,74	1308,65
797,92	1271,79
798,09	1253,36
798,27	1216,49
798,44	1259,50
798,62	1257,45
798,79	1316,84
798,96	1310,70
799,14	1257,45
799,31	1249,26
799,49	1236,97
799,66	1300,46
799,84	1259,50
800,01	1300,46
800,19	1267,69
800,36	1343,47
800,53	1322,99
800,71	1273,84
800,88	1269,74
801,06	1304,56
801,23	1253,36
801,41	1316,84
801,58	1333,23
801,75	1273,84
801,93	1263,60
802,10	1245,16
802,28	1263,60
802,45	1302,51
802,63	1232,88
802,80	1247,21
802,97	1290,22
803,15	1232,88
803,32	1277,93
803,50	1210,35
803,67	1314,80
803,84	1267,69
804,02	1245,16
804,19	1230,83
804,37	1193,97
804,54	1271,79
804,71	1306,60
804,89	1345,52
805,06	1273,84
805,24	1306,60
805,41	1282,03
805,58	1314,80
805,76	1314,80
805,93	1247,21
806,10	1288,17
806,28	1290,22
806,45	1288,17
806,63	1286,12
806,80	1290,22
806,97	1245,16
807,15	1261,55
807,32	1290,22
807,49	1173,49
807,67	1259,50
807,84	1282,03
808,01	1314,80
808,19	1251,31
808,36	1284,08
808,54	1308,65
808,71	1296,36
808,88	1228,78
809,06	1273,84
809,23	1322,99
809,40	1290,22
809,58	1273,84
809,75	1255,40
809,92	1243,12
810,10	1288,17
810,27	1218,54
810,44	1269,74
810,62	1314,80
810,79	1269,74
810,96	1308,65
811,14	1300,46
811,31	1241,07
811,48	1216,49
811,66	1208,30
811,83	1210,35
812,00	1355,76
812,18	1253,36
812,35	1341,42
812,52	1269,74
812,69	1265,64
812,87	1245,16
813,04	1288,17
813,21	1335,28
813,39	1234,93
813,56	1286,12
813,73	1218,54
813,91	1355,76
814,08	1320,94
814,25	1245,16
814,42	1279,98
814,60	1314,80
814,77	1275,88
814,94	1282,03
815,12	1269,74
815,29	1273,84
815,46	1241,07
815,63	1255,40
815,81	1273,84
815,98	1286,12
816,15	1290,22
816,33	1236,97
816,50	1261,55
816,67	1247,21
816,84	1312,75
817,02	1204,21
817,19	1239,02
817,36	1232,88
817,53	1320,94
817,71	1232,88
817,88	1325,04
818,05	1236,97
818,22	1302,51
818,40	1302,51
818,57	1243,12
818,74	1208,30
818,91	1312,75
819,09	1316,84
819,26	1271,79
819,43	1329,13
819,60	1331,18
819,78	1284,08
819,95	1239,02
820,12	1302,51
820,29	1253,36
820,47	1228,78
820,64	1241,07
820,81	1286,12
820,98	1198,06
821,15	1251,31
821,33	1232,88
821,50	1200,11
821,67	1187,82
821,84	1282,03
822,02	1284,08
822,19	1265,64
822,36	1370,09
822,53	1351,66
822,70	1275,88
822,88	1265,64
823,05	1222,64
823,22	1318,89
823,39	1269,74
823,56	1335,28
823,74	1279,98
823,91	1239,02
824,08	1241,07
824,25	1253,36
824,42	1239,02
824,60	1247,21
824,77	1249,26
824,94	1191,92
825,11	1210,35
825,28	1255,40
825,45	1306,60
825,63	1193,97
825,80	1249,26
825,97	1282,03
826,14	1335,28
826,31	1255,40
826,48	1273,84
826,66	1347,56
826,83	1298,41
827,00	1286,12
827,17	1300,46
827,34	1279,98
827,51	1388,52
827,69	1247,21
827,86	1331,18
828,03	1234,93
828,20	1247,21
828,37	1245,16
828,54	1249,26
828,71	1294,32
828,89	1269,74
829,06	1259,50
829,23	1271,79
829,40	1296,36
829,57	1230,83
829,74	1224,69
829,91	1265,64
830,09	1269,74
830,26	1325,04
830,43	1253,36
830,60	1255,40
830,77	1337,32
830,94	1241,07
831,11	1327,08
831,28	1216,49
831,46	1253,36
831,63	1185,77
831,80	1275,88
831,97	1216,49
832,14	1214,45
832,31	1259,50
832,48	1300,46
832,65	1288,17
832,82	1255,40
832,99	1325,04
833,17	1286,12
833,34	1263,60
833,51	1322,99
833,68	1236,97
833,85	1308,65
834,02	1263,60
834,19	1257,45
834,36	1234,93
834,53	1279,98
834,70	1265,64
834,87	1314,80
835,04	1255,40
835,22	1253,36
835,39	1249,26
835,56	1259,50
835,73	1230,83
835,90	1312,75
836,07	1271,79
836,24	1279,98
836,41	1302,51
836,58	1265,64
836,75	1341,42
836,92	1294,32
837,09	1304,56
837,26	1269,74
837,43	1267,69
837,60	1263,60
837,77	1257,45
837,94	1239,02
838,12	1255,40
838,29	1300,46
838,46	1230,83
838,63	1212,40
838,80	1265,64
838,97	1265,64
839,14	1314,80
839,31	1232,88
839,48	1265,64
839,65	1247,21
839,82	1193,97
839,99	1300,46
840,16	1263,60
840,33	1282,03
840,50	1345,52
840,67	1284,08
840,84	1247,21
841,01	1265,64
841,18	1241,07
841,35	1224,69
841,52	1239,02
841,69	1318,89
841,86	1271,79
842,03	1271,79
842,20	1288,17
842,37	1271,79
842,54	1273,84
842,71	1267,69
842,88	1214,45
843,05	1290,22
843,22	1284,08
843,39	1263,60
843,56	1259,50
843,73	1261,55
843,90	1314,80
844,07	1308,65
844,24	1259,50
844,41	1239,02
844,58	1279,98
844,75	1284,08
844,92	1306,60
845,09	1320,94
845,26	1284,08
845,43	1279,98
845,60	1257,45
845,77	1255,40
845,94	1337,32
846,10	1277,93
846,27	1245,16
846,44	1263,60
846,61	1277,93
846,78	1241,07
846,95	1275,88
847,12	1208,30
847,29	1216,49
847,46	1243,12
847,63	1263,60
847,80	1286,12
847,97	1208,30
848,14	1290,22
848,31	1247,21
848,48	1318,89
848,65	1220,59
848,82	1288,17
848,98	1218,54
849,15	1251,31
849,32	1290,22
849,49	1247,21
849,66	1259,50
849,83	1267,69
850,00	1275,88
850,17	1277,93
850,34	1257,45
850,51	1251,31
850,68	1236,97
850,85	1343,47
851,01	1325,04
851,18	1304,56
851,35	1269,74
851,52	1251,31
851,69	1200,11
851,86	1267,69
852,03	1294,32
852,20	1345,52
852,37	1284,08
852,53	1279,98
852,70	1239,02
852,87	1310,70
853,04	1302,51
853,21	1206,25
853,38	1292,27
853,55	1218,54
853,72	1282,03
853,89	1251,31
854,05	1257,45
854,22	1257,45
854,39	1261,55
854,56	1378,28
854,73	1232,88
854,90	1333,23
855,07	1318,89
855,23	1302,51
855,40	1298,41
855,57	1279,98
855,74	1253,36
855,91	1306,60
856,08	1255,40
856,25	1273,84
856,41	1296,36
856,58	1269,74
856,75	1230,83
856,92	1284,08
857,09	1226,73
857,26	1308,65
857,42	1290,22
857,59	1290,22
857,76	1288,17
857,93	1239,02
858,10	1232,88
858,27	1257,45
858,43	1294,32
858,60	1310,70
858,77	1218,54
858,94	1277,93
859,11	1288,17
859,27	1310,70
859,44	1290,22
859,61	1306,60
859,78	1210,35
859,95	1349,61
860,12	1257,45
860,28	1349,61
860,45	1265,64
860,62	1277,93
860,79	1294,32
860,95	1277,93
861,12	1282,03
861,29	1298,41
861,46	1202,16
861,63	1218,54
861,79	1304,56
861,96	1282,03
862,13	1318,89
862,30	1277,93
862,47	1167,34
862,63	1310,70
862,80	1265,64
862,97	1294,32
863,14	1193,97
863,30	1314,80
863,47	1239,02
863,64	1361,90
863,81	1255,40
863,97	1296,36
864,14	1267,69
864,31	1249,26
864,48	1298,41
864,65	1247,21
864,81	1290,22
864,98	1327,08
865,15	1320,94
865,32	1220,59
865,48	1378,28
865,65	1329,13
865,82	1304,56
865,98	1228,78
866,15	1273,84
866,32	1320,94
866,49	1257,45
866,65	1302,51
866,82	1187,82
866,99	1200,11
867,16	1236,97
867,32	1363,95
867,49	1206,25
867,66	1275,88
867,83	1331,18
867,99	1322,99
868,16	1302,51
868,33	1288,17
868,49	1312,75
868,66	1234,93
868,83	1345,52
868,99	1239,02
869,16	1322,99
869,33	1257,45
869,50	1320,94
869,66	1247,21
869,83	1245,16
870,00	1208,30
870,16	1282,03
870,33	1263,60
870,50	1241,07
870,66	1331,18
870,83	1292,27
871,00	1265,64
871,17	1175,53
871,33	1267,69
871,50	1282,03
871,67	1353,71
871,83	1288,17
872,00	1318,89
872,17	1224,69
872,33	1191,92
872,50	1273,84
872,67	1261,55
872,83	1236,97
873,00	1232,88
873,17	1239,02
873,33	1245,16
873,50	1314,80
873,67	1294,32
873,83	1251,31
874,00	1239,02
874,16	1253,36
874,33	1230,83
874,50	1282,03
874,66	1277,93
874,83	1204,21
875,00	1279,98
875,16	1255,40
875,33	1279,98
875,50	1239,02
875,66	1234,93
875,83	1253,36
875,99	1302,51
876,16	1333,23
876,33	1308,65
876,49	1226,73
876,66	1265,64
876,83	1222,64
876,99	1218,54
877,16	1271,79
877,32	1279,98
877,49	1306,60
877,66	1294,32
877,82	1282,03
877,99	1269,74
878,15	1298,41
878,32	1257,45
878,49	1257,45
878,65	1249,26
878,82	1300,46
878,98	1243,12
879,15	1232,88
879,32	1279,98
879,48	1224,69
879,65	1296,36
879,81	1273,84
879,98	1277,93
880,15	1181,68
880,31	1339,37
880,48	1222,64
880,64	1286,12
880,81	1236,97
880,97	1267,69
881,14	1271,79
881,31	1247,21
881,47	1271,79
881,64	1310,70
881,80	1253,36
881,97	1304,56
882,13	1216,49
882,30	1239,02
882,47	1345,52
882,63	1257,45
882,80	1241,07
882,96	1265,64
883,13	1241,07
883,29	1279,98
883,46	1312,75
883,62	1202,16
883,79	1296,36
883,95	1279,98
884,12	1222,64
884,29	1245,16
884,45	1239,02
884,62	1349,61
884,78	1277,93
884,95	1284,08
885,11	1265,64
885,28	1239,02
885,44	1228,78
885,61	1236,97
885,77	1263,60
885,94	1275,88
886,10	1294,32
886,27	1267,69
886,43	1271,79
886,60	1282,03
886,76	1161,20
886,93	1232,88
887,09	1271,79
887,26	1290,22
887,42	1288,17
887,59	1265,64
887,75	1296,36
887,92	1290,22
888,08	1267,69
888,25	1253,36
888,41	1247,21
888,58	1210,35
888,74	1249,26
888,91	1261,55
>>>>>End Processed Spectral Data<<<<<
