SpectraSuite Data File
++++++++++++++++++++++++++++++++++++
Date: Sun Apr 03 17:34:04 CEST 2016
User: root
Dark Spectrum Present: No
Reference Spectrum Present: No
Number of Sampled Component Spectra: 1
Spectrometers: USB4C02835
Integration Time (usec): 10000 (USB4C02835)
Spectra Averaged: 1 (USB4C02835)
Boxcar Smoothing: 0 (USB4C02835)
Correct for Electrical Dark: No (USB4C02835)
Strobe/Lamp Enabled: No (USB4C02835)
Correct for Detector Non-linearity: No (USB4C02835)
Correct for Stray Light: No (USB4C02835)
Number of Pixels in Processed Spectrum: 3648
>>>>>Begin Processed Spectral Data<<<<<
177,47	1282,03
177,69	1282,03
177,91	1282,03
178,13	1218,54
178,36	1181,68
178,58	1265,64
178,80	1312,75
179,02	1216,49
179,24	1212,40
179,46	1247,21
179,68	1300,46
179,90	1253,36
180,13	1234,93
180,35	1245,16
180,57	1300,46
180,79	1306,60
181,01	1273,84
181,23	1245,16
181,45	1294,32
181,67	1370,09
181,90	1210,35
182,12	1234,93
182,34	1298,41
182,56	1243,12
182,78	1308,65
183,00	1177,58
183,22	1345,52
183,44	1318,89
183,66	1265,64
183,89	1261,55
184,11	1300,46
184,33	1300,46
184,55	1298,41
184,77	1277,93
184,99	1241,07
185,21	1282,03
185,43	1265,64
185,65	1247,21
185,87	1239,02
186,10	1310,70
186,32	1273,84
186,54	1298,41
186,76	1261,55
186,98	1243,12
187,20	1310,70
187,42	1310,70
187,64	1243,12
187,86	1284,08
188,08	1316,84
188,30	1282,03
188,52	1333,23
188,75	1302,51
188,97	1304,56
189,19	1282,03
189,41	1294,32
189,63	1239,02
189,85	1263,60
190,07	1327,08
190,29	1241,07
190,51	1314,80
190,73	1292,27
190,95	1241,07
191,17	1236,97
191,39	1316,84
191,61	1261,55
191,84	1310,70
192,06	1310,70
192,28	1329,13
192,50	1224,69
192,72	1294,32
192,94	1290,22
193,16	1234,93
193,38	1249,26
193,60	1173,49
193,82	1228,78
194,04	1228,78
194,26	1245,16
194,48	1308,65
194,70	1286,12
194,92	1234,93
195,14	1329,13
195,36	1279,98
195,58	1284,08
195,80	1320,94
196,02	1265,64
196,24	1269,74
196,46	1247,21
196,69	1310,70
196,91	1251,31
197,13	1228,78
197,35	1302,51
197,57	1267,69
197,79	1239,02
198,01	1282,03
198,23	1290,22
198,45	1329,13
198,67	1216,49
198,89	1269,74
199,11	1318,89
199,33	1241,07
199,55	1314,80
199,77	1185,77
199,99	1275,88
200,21	1230,83
200,43	1277,93
200,65	1222,64
200,87	1187,82
201,09	1251,31
201,31	1325,04
201,53	1284,08
201,75	1275,88
201,97	1261,55
202,19	1255,40
202,41	1308,65
202,63	1300,46
202,85	1185,77
203,07	1255,40
203,29	1228,78
203,51	1277,93
203,73	1218,54
203,95	1288,17
204,17	1277,93
204,39	1312,75
204,61	1247,21
204,83	1257,45
205,05	1236,97
205,27	1208,30
205,49	1271,79
205,71	1245,16
205,93	1214,45
206,15	1333,23
206,37	1228,78
206,59	1298,41
206,81	1271,79
207,03	1273,84
207,25	1294,32
207,47	1228,78
207,69	1277,93
207,91	1214,45
208,13	1198,06
208,34	1361,90
208,56	1230,83
208,78	1259,50
209,00	1265,64
209,22	1257,45
209,44	1337,32
209,66	1273,84
209,88	1196,01
210,10	1265,64
210,32	1257,45
210,54	1318,89
210,76	1269,74
210,98	1316,84
211,20	1236,97
211,42	1253,36
211,64	1288,17
211,86	1273,84
212,08	1263,60
212,30	1290,22
212,52	1251,31
212,74	1304,56
212,96	1312,75
213,17	1265,64
213,39	1345,52
213,61	1267,69
213,83	1296,36
214,05	1269,74
214,27	1282,03
214,49	1320,94
214,71	1325,04
214,93	1355,76
215,15	1296,36
215,37	1267,69
215,59	1300,46
215,81	1234,93
216,03	1247,21
216,24	1236,97
216,46	1257,45
216,68	1290,22
216,90	1300,46
217,12	1284,08
217,34	1245,16
217,56	1314,80
217,78	1277,93
218,00	1273,84
218,22	1271,79
218,44	1286,12
218,66	1318,89
218,87	1296,36
219,09	1302,51
219,31	1259,50
219,53	1249,26
219,75	1247,21
219,97	1273,84
220,19	1300,46
220,41	1277,93
220,63	1279,98
220,85	1206,25
221,06	1198,06
221,28	1269,74
221,50	1249,26
221,72	1304,56
221,94	1257,45
222,16	1228,78
222,38	1296,36
222,60	1349,61
222,82	1290,22
223,03	1230,83
223,25	1257,45
223,47	1343,47
223,69	1265,64
223,91	1327,08
224,13	1249,26
224,35	1288,17
224,57	1263,60
224,78	1216,49
225,00	1282,03
225,22	1279,98
225,44	1232,88
225,66	1282,03
225,88	1320,94
226,10	1271,79
226,32	1333,23
226,53	1294,32
226,75	1226,73
226,97	1210,35
227,19	1290,22
227,41	1261,55
227,63	1304,56
227,85	1302,51
228,06	1243,12
228,28	1249,26
228,50	1277,93
228,72	1247,21
228,94	1273,84
229,16	1249,26
229,37	1249,26
229,59	1275,88
229,81	1294,32
230,03	1214,45
230,25	1345,52
230,47	1267,69
230,69	1325,04
230,90	1292,27
231,12	1273,84
231,34	1245,16
231,56	1312,75
231,78	1284,08
232,00	1279,98
232,21	1304,56
232,43	1284,08
232,65	1261,55
232,87	1263,60
233,09	1310,70
233,30	1208,30
233,52	1286,12
233,74	1333,23
233,96	1234,93
234,18	1361,90
234,40	1218,54
234,61	1261,55
234,83	1308,65
235,05	1218,54
235,27	1310,70
235,49	1181,68
235,70	1155,05
235,92	1273,84
236,14	1312,75
236,36	1198,06
236,58	1259,50
236,79	1251,31
237,01	1226,73
237,23	1208,30
237,45	1337,32
237,67	1277,93
237,88	1331,18
238,10	1282,03
238,32	1267,69
238,54	1245,16
238,76	1273,84
238,97	1269,74
239,19	1306,60
239,41	1292,27
239,63	1282,03
239,85	1304,56
240,06	1298,41
240,28	1224,69
240,50	1253,36
240,72	1216,49
240,93	1318,89
241,15	1228,78
241,37	1273,84
241,59	1247,21
241,81	1282,03
242,02	1255,40
242,24	1290,22
242,46	1255,40
242,68	1298,41
242,89	1308,65
243,11	1239,02
243,33	1239,02
243,55	1230,83
243,76	1314,80
243,98	1263,60
244,20	1292,27
244,42	1239,02
244,64	1282,03
244,85	1261,55
245,07	1327,08
245,29	1320,94
245,51	1269,74
245,72	1267,69
245,94	1273,84
246,16	1288,17
246,38	1243,12
246,59	1308,65
246,81	1253,36
247,03	1310,70
247,24	1271,79
247,46	1269,74
247,68	1306,60
247,90	1339,37
248,11	1243,12
248,33	1220,59
248,55	1282,03
248,77	1249,26
248,98	1310,70
249,20	1275,88
249,42	1296,36
249,64	1202,16
249,85	1277,93
250,07	1290,22
250,29	1239,02
250,50	1275,88
250,72	1286,12
250,94	1234,93
251,16	1234,93
251,37	1234,93
251,59	1269,74
251,81	1232,88
252,02	1279,98
252,24	1279,98
252,46	1337,32
252,68	1282,03
252,89	1273,84
253,11	1327,08
253,33	1263,60
253,54	1255,40
253,76	1335,28
253,98	1245,16
254,20	1259,50
254,41	1232,88
254,63	1279,98
254,85	1261,55
255,06	1255,40
255,28	1308,65
255,50	1275,88
255,71	1314,80
255,93	1337,32
256,15	1234,93
256,36	1232,88
256,58	1318,89
256,80	1279,98
257,02	1257,45
257,23	1230,83
257,45	1269,74
257,67	1259,50
257,88	1298,41
258,10	1243,12
258,32	1267,69
258,53	1226,73
258,75	1245,16
258,97	1277,93
259,18	1218,54
259,40	1302,51
259,62	1312,75
259,83	1226,73
260,05	1312,75
260,27	1273,84
260,48	1286,12
260,70	1300,46
260,92	1267,69
261,13	1306,60
261,35	1302,51
261,57	1312,75
261,78	1265,64
262,00	1263,60
262,22	1253,36
262,43	1265,64
262,65	1290,22
262,86	1314,80
263,08	1214,45
263,30	1349,61
263,51	1255,40
263,73	1214,45
263,95	1325,04
264,16	1239,02
264,38	1228,78
264,60	1220,59
264,81	1187,82
265,03	1306,60
265,25	1241,07
265,46	1359,85
265,68	1277,93
265,89	1263,60
266,11	1247,21
266,33	1239,02
266,54	1257,45
266,76	1173,49
266,98	1347,56
267,19	1284,08
267,41	1304,56
267,62	1228,78
267,84	1245,16
268,06	1282,03
268,27	1312,75
268,49	1306,60
268,70	1212,40
268,92	1296,36
269,14	1230,83
269,35	1222,64
269,57	1368,04
269,79	1282,03
270,00	1191,92
270,22	1247,21
270,43	1232,88
270,65	1245,16
270,87	1298,41
271,08	1284,08
271,30	1286,12
271,51	1218,54
271,73	1261,55
271,95	1329,13
272,16	1296,36
272,38	1218,54
272,59	1259,50
272,81	1277,93
273,02	1245,16
273,24	1335,28
273,46	1306,60
273,67	1300,46
273,89	1312,75
274,10	1290,22
274,32	1296,36
274,54	1286,12
274,75	1189,87
274,97	1263,60
275,18	1302,51
275,40	1239,02
275,61	1226,73
275,83	1308,65
276,05	1236,97
276,26	1249,26
276,48	1239,02
276,69	1331,18
276,91	1228,78
277,12	1251,31
277,34	1292,27
277,55	1263,60
277,77	1198,06
277,99	1206,25
278,20	1251,31
278,42	1331,18
278,63	1202,16
278,85	1322,99
279,06	1251,31
279,28	1175,53
279,49	1308,65
279,71	1243,12
279,93	1286,12
280,14	1269,74
280,36	1271,79
280,57	1222,64
280,79	1351,66
281,00	1273,84
281,22	1222,64
281,43	1279,98
281,65	1312,75
281,86	1216,49
282,08	1286,12
282,29	1279,98
282,51	1261,55
282,73	1265,64
282,94	1243,12
283,16	1292,27
283,37	1318,89
283,59	1224,69
283,80	1216,49
284,02	1318,89
284,23	1282,03
284,45	1282,03
284,66	1290,22
284,88	1200,11
285,09	1290,22
285,31	1253,36
285,52	1275,88
285,74	1298,41
285,95	1292,27
286,17	1255,40
286,38	1249,26
286,60	1304,56
286,81	1322,99
287,03	1298,41
287,24	1298,41
287,46	1222,64
287,67	1286,12
287,89	1232,88
288,10	1241,07
288,32	1255,40
288,53	1314,80
288,75	1314,80
288,96	1298,41
289,18	1255,40
289,39	1335,28
289,61	1292,27
289,82	1312,75
290,04	1298,41
290,25	1298,41
290,47	1251,31
290,68	1294,32
290,90	1296,36
291,11	1314,80
291,33	1265,64
291,54	1282,03
291,76	1282,03
291,97	1263,60
292,18	1226,73
292,40	1290,22
292,61	1300,46
292,83	1263,60
293,04	1249,26
293,26	1251,31
293,47	1329,13
293,69	1302,51
293,90	1265,64
294,12	1251,31
294,33	1304,56
294,55	1269,74
294,76	1247,21
294,97	1296,36
295,19	1236,97
295,40	1196,01
295,62	1277,93
295,83	1253,36
296,05	1241,07
296,26	1232,88
296,48	1269,74
296,69	1175,53
296,90	1286,12
297,12	1339,37
297,33	1279,98
297,55	1302,51
297,76	1304,56
297,98	1286,12
298,19	1257,45
298,41	1318,89
298,62	1282,03
298,83	1261,55
299,05	1249,26
299,26	1271,79
299,48	1218,54
299,69	1310,70
299,90	1273,84
300,12	1230,83
300,33	1239,02
300,55	1318,89
300,76	1353,71
300,98	1273,84
301,19	1245,16
301,40	1212,40
301,62	1329,13
301,83	1261,55
302,05	1253,36
302,26	1271,79
302,47	1228,78
302,69	1388,52
302,90	1290,22
303,12	1339,37
303,33	1359,85
303,54	1325,04
303,76	1265,64
303,97	1294,32
304,19	1325,04
304,40	1220,59
304,61	1267,69
304,83	1275,88
305,04	1241,07
305,26	1230,83
305,47	1230,83
305,68	1300,46
305,90	1243,12
306,11	1314,80
306,33	1347,56
306,54	1255,40
306,75	1255,40
306,97	1255,40
307,18	1312,75
307,39	1300,46
307,61	1273,84
307,82	1286,12
308,04	1251,31
308,25	1300,46
308,46	1239,02
308,68	1224,69
308,89	1279,98
309,10	1269,74
309,32	1316,84
309,53	1300,46
309,74	1243,12
309,96	1212,40
310,17	1251,31
310,39	1247,21
310,60	1292,27
310,81	1202,16
311,03	1265,64
311,24	1236,97
311,45	1298,41
311,67	1304,56
311,88	1302,51
312,09	1269,74
312,31	1290,22
312,52	1234,93
312,73	1255,40
312,95	1259,50
313,16	1230,83
313,37	1310,70
313,59	1269,74
313,80	1318,89
314,01	1224,69
314,23	1277,93
314,44	1282,03
314,65	1263,60
314,87	1292,27
315,08	1247,21
315,29	1222,64
315,51	1214,45
315,72	1302,51
315,93	1222,64
316,15	1279,98
316,36	1282,03
316,57	1314,80
316,79	1259,50
317,00	1290,22
317,21	1314,80
317,43	1241,07
317,64	1239,02
317,85	1290,22
318,07	1275,88
318,28	1284,08
318,49	1232,88
318,70	1265,64
318,92	1257,45
319,13	1247,21
319,34	1277,93
319,56	1187,82
319,77	1275,88
319,98	1230,83
320,20	1222,64
320,41	1279,98
320,62	1236,97
320,83	1241,07
321,05	1249,26
321,26	1331,18
321,47	1312,75
321,69	1239,02
321,90	1243,12
322,11	1218,54
322,32	1224,69
322,54	1269,74
322,75	1292,27
322,96	1277,93
323,18	1300,46
323,39	1232,88
323,60	1202,16
323,81	1327,08
324,03	1228,78
324,24	1273,84
324,45	1239,02
324,66	1251,31
324,88	1269,74
325,09	1312,75
325,30	1204,21
325,52	1325,04
325,73	1273,84
325,94	1249,26
326,15	1259,50
326,37	1353,71
326,58	1193,97
326,79	1296,36
327,00	1298,41
327,22	1241,07
327,43	1251,31
327,64	1265,64
327,85	1210,35
328,07	1306,60
328,28	1302,51
328,49	1187,82
328,70	1290,22
328,92	1222,64
329,13	1300,46
329,34	1249,26
329,55	1277,93
329,76	1267,69
329,98	1318,89
330,19	1277,93
330,40	1265,64
330,61	1234,93
330,83	1306,60
331,04	1257,45
331,25	1253,36
331,46	1282,03
331,68	1253,36
331,89	1327,08
332,10	1286,12
332,31	1228,78
332,52	1216,49
332,74	1300,46
332,95	1269,74
333,16	1253,36
333,37	1224,69
333,58	1298,41
333,80	1271,79
334,01	1333,23
334,22	1265,64
334,43	1296,36
334,64	1159,15
334,86	1292,27
335,07	1277,93
335,28	1318,89
335,49	1249,26
335,70	1288,17
335,92	1322,99
336,13	1249,26
336,34	1208,30
336,55	1290,22
336,76	1230,83
336,98	1329,13
337,19	1216,49
337,40	1241,07
337,61	1216,49
337,82	1249,26
338,04	1316,84
338,25	1208,30
338,46	1277,93
338,67	1269,74
338,88	1310,70
339,09	1263,60
339,31	1286,12
339,52	1288,17
339,73	1261,55
339,94	1273,84
340,15	1363,95
340,36	1308,65
340,58	1265,64
340,79	1288,17
341,00	1300,46
341,21	1247,21
341,42	1253,36
341,63	1265,64
341,85	1241,07
342,06	1298,41
342,27	1239,02
342,48	1284,08
342,69	1261,55
342,90	1263,60
343,12	1296,36
343,33	1331,18
343,54	1275,88
343,75	1253,36
343,96	1322,99
344,17	1239,02
344,38	1277,93
344,60	1329,13
344,81	1286,12
345,02	1265,64
345,23	1189,87
345,44	1267,69
345,65	1267,69
345,86	1191,92
346,07	1251,31
346,29	1355,76
346,50	1312,75
346,71	1232,88
346,92	1286,12
347,13	1292,27
347,34	1294,32
347,55	1331,18
347,76	1259,50
347,98	1286,12
348,19	1189,87
348,40	1273,84
348,61	1236,97
348,82	1263,60
349,03	1253,36
349,24	1247,21
349,45	1234,93
349,66	1269,74
349,88	1288,17
350,09	1279,98
350,30	1206,25
350,51	1259,50
350,72	1187,82
350,93	1222,64
351,14	1290,22
351,35	1308,65
351,56	1267,69
351,77	1239,02
351,99	1265,64
352,20	1277,93
352,41	1269,74
352,62	1239,02
352,83	1181,68
353,04	1316,84
353,25	1300,46
353,46	1261,55
353,67	1216,49
353,88	1322,99
354,09	1273,84
354,30	1325,04
354,52	1306,60
354,73	1220,59
354,94	1267,69
355,15	1314,80
355,36	1247,21
355,57	1267,69
355,78	1243,12
355,99	1282,03
356,20	1306,60
356,41	1327,08
356,62	1241,07
356,83	1333,23
357,04	1284,08
357,25	1255,40
357,46	1257,45
357,68	1300,46
357,89	1282,03
358,10	1284,08
358,31	1249,26
358,52	1247,21
358,73	1198,06
358,94	1335,28
359,15	1247,21
359,36	1306,60
359,57	1290,22
359,78	1247,21
359,99	1277,93
360,20	1322,99
360,41	1298,41
360,62	1290,22
360,83	1271,79
361,04	1277,93
361,25	1259,50
361,46	1286,12
361,67	1300,46
361,88	1253,36
362,09	1312,75
362,30	1288,17
362,51	1308,65
362,72	1279,98
362,93	1261,55
363,14	1279,98
363,35	1292,27
363,56	1284,08
363,78	1253,36
363,99	1308,65
364,20	1253,36
364,41	1322,99
364,62	1269,74
364,83	1224,69
365,04	1273,84
365,25	1284,08
365,46	1226,73
365,67	1282,03
365,88	1257,45
366,09	1345,52
366,30	1239,02
366,51	1316,84
366,72	1220,59
366,93	1230,83
367,14	1308,65
367,35	1271,79
367,56	1224,69
367,77	1226,73
367,98	1308,65
368,18	1300,46
368,39	1304,56
368,60	1277,93
368,81	1300,46
369,02	1343,47
369,23	1290,22
369,44	1308,65
369,65	1302,51
369,86	1271,79
370,07	1241,07
370,28	1253,36
370,49	1247,21
370,70	1363,95
370,91	1279,98
371,12	1273,84
371,33	1337,32
371,54	1263,60
371,75	1251,31
371,96	1247,21
372,17	1208,30
372,38	1247,21
372,59	1275,88
372,80	1212,40
373,01	1325,04
373,22	1314,80
373,43	1239,02
373,64	1259,50
373,85	1230,83
374,06	1261,55
374,26	1232,88
374,47	1255,40
374,68	1202,16
374,89	1357,80
375,10	1259,50
375,31	1255,40
375,52	1249,26
375,73	1279,98
375,94	1249,26
376,15	1318,89
376,36	1249,26
376,57	1306,60
376,78	1279,98
376,99	1267,69
377,20	1351,66
377,40	1282,03
377,61	1259,50
377,82	1345,52
378,03	1271,79
378,24	1347,56
378,45	1241,07
378,66	1300,46
378,87	1320,94
379,08	1298,41
379,29	1210,35
379,50	1269,74
379,71	1304,56
379,91	1292,27
380,12	1257,45
380,33	1228,78
380,54	1275,88
380,75	1271,79
380,96	1185,77
381,17	1228,78
381,38	1253,36
381,59	1208,30
381,80	1273,84
382,00	1232,88
382,21	1273,84
382,42	1269,74
382,63	1302,51
382,84	1302,51
383,05	1265,64
383,26	1308,65
383,47	1263,60
383,68	1288,17
383,88	1251,31
384,09	1255,40
384,30	1357,80
384,51	1302,51
384,72	1220,59
384,93	1253,36
385,14	1267,69
385,35	1204,21
385,55	1214,45
385,76	1249,26
385,97	1273,84
386,18	1273,84
386,39	1245,16
386,60	1316,84
386,81	1247,21
387,02	1284,08
387,22	1247,21
387,43	1275,88
387,64	1286,12
387,85	1183,73
388,06	1253,36
388,27	1304,56
388,48	1269,74
388,68	1232,88
388,89	1286,12
389,10	1261,55
389,31	1265,64
389,52	1273,84
389,73	1282,03
389,93	1318,89
390,14	1253,36
390,35	1236,97
390,56	1224,69
390,77	1241,07
390,98	1288,17
391,18	1288,17
391,39	1300,46
391,60	1290,22
391,81	1339,37
392,02	1271,79
392,23	1222,64
392,43	1316,84
392,64	1308,65
392,85	1294,32
393,06	1261,55
393,27	1292,27
393,47	1236,97
393,68	1265,64
393,89	1257,45
394,10	1298,41
394,31	1263,60
394,52	1279,98
394,72	1263,60
394,93	1267,69
395,14	1329,13
395,35	1320,94
395,56	1230,83
395,76	1302,51
395,97	1187,82
396,18	1226,73
396,39	1279,98
396,60	1275,88
396,80	1249,26
397,01	1302,51
397,22	1228,78
397,43	1232,88
397,64	1286,12
397,84	1239,02
398,05	1308,65
398,26	1267,69
398,47	1288,17
398,67	1368,04
398,88	1269,74
399,09	1204,21
399,30	1286,12
399,51	1228,78
399,71	1247,21
399,92	1265,64
400,13	1247,21
400,34	1198,06
400,54	1191,92
400,75	1329,13
400,96	1267,69
401,17	1288,17
401,37	1222,64
401,58	1200,11
401,79	1284,08
402,00	1247,21
402,21	1236,97
402,41	1339,37
402,62	1316,84
402,83	1232,88
403,04	1304,56
403,24	1257,45
403,45	1310,70
403,66	1239,02
403,87	1220,59
404,07	1345,52
404,28	1191,92
404,49	1265,64
404,70	1341,42
404,90	1255,40
405,11	1257,45
405,32	1222,64
405,52	1286,12
405,73	1239,02
405,94	1236,97
406,15	1363,95
406,35	1298,41
406,56	1273,84
406,77	1316,84
406,98	1300,46
407,18	1245,16
407,39	1310,70
407,60	1292,27
407,80	1263,60
408,01	1234,93
408,22	1304,56
408,43	1243,12
408,63	1247,21
408,84	1314,80
409,05	1312,75
409,25	1267,69
409,46	1255,40
409,67	1243,12
409,88	1308,65
410,08	1292,27
410,29	1257,45
410,50	1265,64
410,70	1259,50
410,91	1255,40
411,12	1245,16
411,32	1267,69
411,53	1331,18
411,74	1288,17
411,95	1239,02
412,15	1339,37
412,36	1275,88
412,57	1286,12
412,77	1265,64
412,98	1245,16
413,19	1261,55
413,39	1214,45
413,60	1269,74
413,81	1318,89
414,01	1288,17
414,22	1263,60
414,43	1310,70
414,63	1290,22
414,84	1247,21
415,05	1232,88
415,25	1269,74
415,46	1236,97
415,67	1241,07
415,87	1255,40
416,08	1331,18
416,29	1228,78
416,49	1271,79
416,70	1314,80
416,91	1294,32
417,11	1263,60
417,32	1288,17
417,53	1308,65
417,73	1183,73
417,94	1234,93
418,15	1314,80
418,35	1292,27
418,56	1261,55
418,77	1220,59
418,97	1290,22
419,18	1247,21
419,38	1284,08
419,59	1259,50
419,80	1273,84
420,00	1146,86
420,21	1282,03
420,42	1226,73
420,62	1271,79
420,83	1253,36
421,04	1181,68
421,24	1273,84
421,45	1273,84
421,65	1208,30
421,86	1255,40
422,07	1279,98
422,27	1282,03
422,48	1284,08
422,69	1216,49
422,89	1232,88
423,10	1273,84
423,30	1304,56
423,51	1220,59
423,72	1265,64
423,92	1259,50
424,13	1181,68
424,33	1263,60
424,54	1339,37
424,75	1253,36
424,95	1189,87
425,16	1286,12
425,36	1169,39
425,57	1259,50
425,78	1226,73
425,98	1282,03
426,19	1286,12
426,39	1239,02
426,60	1290,22
426,81	1320,94
427,01	1220,59
427,22	1243,12
427,42	1234,93
427,63	1241,07
427,83	1212,40
428,04	1273,84
428,25	1249,26
428,45	1277,93
428,66	1341,42
428,86	1271,79
429,07	1269,74
429,28	1277,93
429,48	1247,21
429,69	1384,43
429,89	1226,73
430,10	1245,16
430,30	1220,59
430,51	1304,56
430,71	1220,59
430,92	1249,26
431,13	1196,01
431,33	1298,41
431,54	1208,30
431,74	1374,19
431,95	1288,17
432,15	1214,45
432,36	1232,88
432,56	1234,93
432,77	1296,36
432,98	1265,64
433,18	1232,88
433,39	1257,45
433,59	1267,69
433,80	1267,69
434,00	1224,69
434,21	1273,84
434,41	1241,07
434,62	1298,41
434,82	1234,93
435,03	1284,08
435,23	1263,60
435,44	1296,36
435,64	1294,32
435,85	1249,26
436,06	1282,03
436,26	1241,07
436,47	1277,93
436,67	1228,78
436,88	1247,21
437,08	1300,46
437,29	1214,45
437,49	1239,02
437,70	1208,30
437,90	1247,21
438,11	1320,94
438,31	1269,74
438,52	1296,36
438,72	1249,26
438,93	1243,12
439,13	1308,65
439,34	1200,11
439,54	1312,75
439,75	1243,12
439,95	1302,51
440,16	1222,64
440,36	1286,12
440,57	1247,21
440,77	1263,60
440,98	1245,16
441,18	1267,69
441,39	1204,21
441,59	1282,03
441,80	1331,18
442,00	1210,35
442,21	1273,84
442,41	1263,60
442,62	1290,22
442,82	1265,64
443,02	1241,07
443,23	1351,66
443,43	1288,17
443,64	1277,93
443,84	1247,21
444,05	1298,41
444,25	1302,51
444,46	1320,94
444,66	1296,36
444,87	1294,32
445,07	1271,79
445,28	1363,95
445,48	1290,22
445,69	1265,64
445,89	1337,32
446,09	1183,73
446,30	1320,94
446,50	1212,40
446,71	1198,06
446,91	1265,64
447,12	1282,03
447,32	1169,39
447,53	1273,84
447,73	1259,50
447,93	1288,17
448,14	1282,03
448,34	1228,78
448,55	1226,73
448,75	1277,93
448,96	1214,45
449,16	1275,88
449,36	1265,64
449,57	1208,30
449,77	1284,08
449,98	1322,99
450,18	1288,17
450,39	1292,27
450,59	1279,98
450,79	1273,84
451,00	1310,70
451,20	1263,60
451,41	1249,26
451,61	1298,41
451,81	1257,45
452,02	1267,69
452,22	1189,87
452,43	1306,60
452,63	1230,83
452,84	1310,70
453,04	1253,36
453,24	1269,74
453,45	1318,89
453,65	1251,31
453,86	1263,60
454,06	1259,50
454,26	1273,84
454,47	1288,17
454,67	1271,79
454,87	1255,40
455,08	1236,97
455,28	1312,75
455,49	1251,31
455,69	1228,78
455,89	1302,51
456,10	1279,98
456,30	1320,94
456,51	1296,36
456,71	1284,08
456,91	1267,69
457,12	1214,45
457,32	1314,80
457,52	1236,97
457,73	1282,03
457,93	1333,23
458,14	1245,16
458,34	1277,93
458,54	1247,21
458,75	1241,07
458,95	1249,26
459,15	1337,32
459,36	1241,07
459,56	1220,59
459,76	1241,07
459,97	1329,13
460,17	1314,80
460,37	1208,30
460,58	1222,64
460,78	1306,60
460,99	1282,03
461,19	1288,17
461,39	1212,40
461,60	1218,54
461,80	1318,89
462,00	1290,22
462,21	1193,97
462,41	1314,80
462,61	1245,16
462,82	1302,51
463,02	1247,21
463,22	1284,08
463,43	1269,74
463,63	1279,98
463,83	1257,45
464,04	1275,88
464,24	1245,16
464,44	1318,89
464,64	1290,22
464,85	1325,04
465,05	1216,49
465,25	1239,02
465,46	1316,84
465,66	1267,69
465,86	1257,45
466,07	1241,07
466,27	1257,45
466,47	1273,84
466,68	1263,60
466,88	1208,30
467,08	1249,26
467,29	1255,40
467,49	1290,22
467,69	1214,45
467,89	1286,12
468,10	1249,26
468,30	1267,69
468,50	1320,94
468,71	1294,32
468,91	1241,07
469,11	1259,50
469,31	1296,36
469,52	1290,22
469,72	1284,08
469,92	1220,59
470,13	1230,83
470,33	1341,42
470,53	1261,55
470,73	1212,40
470,94	1267,69
471,14	1335,28
471,34	1257,45
471,54	1273,84
471,75	1284,08
471,95	1198,06
472,15	1236,97
472,36	1255,40
472,56	1187,82
472,76	1228,78
472,96	1269,74
473,17	1251,31
473,37	1320,94
473,57	1310,70
473,77	1247,21
473,98	1306,60
474,18	1288,17
474,38	1224,69
474,58	1230,83
474,79	1343,47
474,99	1259,50
475,19	1304,56
475,39	1271,79
475,60	1265,64
475,80	1232,88
476,00	1339,37
476,20	1224,69
476,41	1271,79
476,61	1302,51
476,81	1290,22
477,01	1218,54
477,21	1273,84
477,42	1196,01
477,62	1269,74
477,82	1265,64
478,02	1255,40
478,23	1271,79
478,43	1216,49
478,63	1271,79
478,83	1224,69
479,03	1288,17
479,24	1298,41
479,44	1157,10
479,64	1255,40
479,84	1298,41
480,04	1275,88
480,25	1191,92
480,45	1269,74
480,65	1261,55
480,85	1222,64
481,06	1232,88
481,26	1306,60
481,46	1279,98
481,66	1243,12
481,86	1245,16
482,06	1265,64
482,27	1261,55
482,47	1273,84
482,67	1292,27
482,87	1316,84
483,07	1263,60
483,28	1210,35
483,48	1282,03
483,68	1288,17
483,88	1284,08
484,08	1249,26
484,29	1218,54
484,49	1245,16
484,69	1241,07
484,89	1245,16
485,09	1236,97
485,29	1245,16
485,50	1234,93
485,70	1304,56
485,90	1269,74
486,10	1204,21
486,30	1288,17
486,50	1206,25
486,71	1210,35
486,91	1241,07
487,11	1349,61
487,31	1286,12
487,51	1286,12
487,71	1239,02
487,91	1282,03
488,12	1275,88
488,32	1236,97
488,52	1255,40
488,72	1214,45
488,92	1247,21
489,12	1279,98
489,32	1282,03
489,53	1247,21
489,73	1179,63
489,93	1247,21
490,13	1200,11
490,33	1259,50
490,53	1314,80
490,73	1314,80
490,94	1251,31
491,14	1222,64
491,34	1292,27
491,54	1247,21
491,74	1247,21
491,94	1265,64
492,14	1210,35
492,34	1230,83
492,54	1284,08
492,75	1208,30
492,95	1327,08
493,15	1302,51
493,35	1279,98
493,55	1239,02
493,75	1314,80
493,95	1234,93
494,15	1286,12
494,35	1257,45
494,56	1216,49
494,76	1296,36
494,96	1265,64
495,16	1294,32
495,36	1249,26
495,56	1196,01
495,76	1263,60
495,96	1236,97
496,16	1290,22
496,36	1251,31
496,56	1333,23
496,77	1312,75
496,97	1232,88
497,17	1284,08
497,37	1261,55
497,57	1271,79
497,77	1251,31
497,97	1292,27
498,17	1255,40
498,37	1271,79
498,57	1271,79
498,77	1255,40
498,97	1284,08
499,17	1337,32
499,38	1275,88
499,58	1232,88
499,78	1239,02
499,98	1253,36
500,18	1357,80
500,38	1257,45
500,58	1214,45
500,78	1290,22
500,98	1294,32
501,18	1228,78
501,38	1255,40
501,58	1282,03
501,78	1290,22
501,98	1239,02
502,18	1310,70
502,38	1218,54
502,58	1277,93
502,78	1284,08
502,98	1306,60
503,18	1282,03
503,38	1247,21
503,59	1273,84
503,79	1269,74
503,99	1290,22
504,19	1284,08
504,39	1257,45
504,59	1304,56
504,79	1255,40
504,99	1251,31
505,19	1279,98
505,39	1247,21
505,59	1322,99
505,79	1228,78
505,99	1290,22
506,19	1288,17
506,39	1263,60
506,59	1300,46
506,79	1204,21
506,99	1290,22
507,19	1320,94
507,39	1251,31
507,59	1265,64
507,79	1218,54
507,99	1245,16
508,19	1234,93
508,39	1337,32
508,59	1286,12
508,79	1304,56
508,99	1306,60
509,19	1325,04
509,39	1241,07
509,59	1259,50
509,79	1222,64
509,99	1255,40
510,19	1294,32
510,39	1265,64
510,59	1302,51
510,79	1275,88
510,99	1253,36
511,19	1314,80
511,39	1232,88
511,59	1222,64
511,79	1288,17
511,99	1308,65
512,19	1155,05
512,38	1345,52
512,58	1306,60
512,78	1265,64
512,98	1222,64
513,18	1329,13
513,38	1269,74
513,58	1210,35
513,78	1333,23
513,98	1249,26
514,18	1306,60
514,38	1273,84
514,58	1273,84
514,78	1208,30
514,98	1318,89
515,18	1265,64
515,38	1361,90
515,58	1282,03
515,78	1257,45
515,98	1234,93
516,18	1366,00
516,38	1282,03
516,57	1298,41
516,77	1279,98
516,97	1247,21
517,17	1251,31
517,37	1277,93
517,57	1318,89
517,77	1277,93
517,97	1302,51
518,17	1220,59
518,37	1312,75
518,57	1249,26
518,77	1210,35
518,97	1318,89
519,16	1232,88
519,36	1226,73
519,56	1269,74
519,76	1271,79
519,96	1261,55
520,16	1333,23
520,36	1290,22
520,56	1265,64
520,76	1265,64
520,96	1345,52
521,16	1263,60
521,35	1228,78
521,55	1222,64
521,75	1236,97
521,95	1308,65
522,15	1224,69
522,35	1245,16
522,55	1316,84
522,75	1267,69
522,95	1304,56
523,14	1247,21
523,34	1267,69
523,54	1269,74
523,74	1245,16
523,94	1226,73
524,14	1267,69
524,34	1257,45
524,54	1320,94
524,73	1220,59
524,93	1282,03
525,13	1343,47
525,33	1200,11
525,53	1282,03
525,73	1284,08
525,93	1214,45
526,13	1273,84
526,32	1312,75
526,52	1226,73
526,72	1277,93
526,92	1265,64
527,12	1286,12
527,32	1226,73
527,52	1269,74
527,71	1298,41
527,91	1247,21
528,11	1286,12
528,31	1282,03
528,51	1273,84
528,71	1290,22
528,90	1312,75
529,10	1357,80
529,30	1179,63
529,50	1249,26
529,70	1298,41
529,90	1267,69
530,09	1286,12
530,29	1263,60
530,49	1218,54
530,69	1232,88
530,89	1298,41
531,09	1214,45
531,28	1339,37
531,48	1222,64
531,68	1279,98
531,88	1216,49
532,08	1212,40
532,28	1224,69
532,47	1275,88
532,67	1331,18
532,87	1206,25
533,07	1333,23
533,27	1257,45
533,46	1251,31
533,66	1261,55
533,86	1265,64
534,06	1327,08
534,26	1263,60
534,45	1302,51
534,65	1333,23
534,85	1279,98
535,05	1273,84
535,25	1271,79
535,44	1263,60
535,64	1222,64
535,84	1306,60
536,04	1318,89
536,24	1269,74
536,43	1239,02
536,63	1308,65
536,83	1302,51
537,03	1265,64
537,22	1269,74
537,42	1257,45
537,62	1257,45
537,82	1277,93
538,02	1279,98
538,21	1267,69
538,41	1296,36
538,61	1212,40
538,81	1298,41
539,00	1302,51
539,20	1263,60
539,40	1230,83
539,60	1245,16
539,79	1337,32
539,99	1284,08
540,19	1314,80
540,39	1290,22
540,58	1267,69
540,78	1271,79
540,98	1273,84
541,18	1251,31
541,37	1288,17
541,57	1200,11
541,77	1267,69
541,97	1304,56
542,16	1208,30
542,36	1304,56
542,56	1300,46
542,76	1249,26
542,95	1241,07
543,15	1239,02
543,35	1322,99
543,54	1265,64
543,74	1267,69
543,94	1191,92
544,14	1277,93
544,33	1249,26
544,53	1269,74
544,73	1349,61
544,93	1193,97
545,12	1265,64
545,32	1241,07
545,52	1249,26
545,71	1271,79
545,91	1325,04
546,11	1226,73
546,30	1347,56
546,50	1273,84
546,70	1245,16
546,90	1282,03
547,09	1200,11
547,29	1331,18
547,49	1271,79
547,68	1263,60
547,88	1257,45
548,08	1267,69
548,27	1304,56
548,47	1247,21
548,67	1247,21
548,87	1267,69
549,06	1308,65
549,26	1259,50
549,46	1232,88
549,65	1236,97
549,85	1286,12
550,05	1241,07
550,24	1234,93
550,44	1267,69
550,64	1247,21
550,83	1247,21
551,03	1298,41
551,23	1267,69
551,42	1239,02
551,62	1304,56
551,82	1290,22
552,01	1279,98
552,21	1204,21
552,41	1263,60
552,60	1290,22
552,80	1296,36
553,00	1290,22
553,19	1265,64
553,39	1232,88
553,59	1230,83
553,78	1226,73
553,98	1247,21
554,17	1220,59
554,37	1296,36
554,57	1310,70
554,76	1241,07
554,96	1222,64
555,16	1224,69
555,35	1318,89
555,55	1286,12
555,75	1298,41
555,94	1304,56
556,14	1318,89
556,33	1294,32
556,53	1296,36
556,73	1392,62
556,92	1329,13
557,12	1259,50
557,32	1341,42
557,51	1216,49
557,71	1269,74
557,90	1232,88
558,10	1216,49
558,30	1327,08
558,49	1261,55
558,69	1314,80
558,88	1218,54
559,08	1290,22
559,28	1241,07
559,47	1331,18
559,67	1222,64
559,86	1212,40
560,06	1263,60
560,26	1220,59
560,45	1263,60
560,65	1212,40
560,84	1222,64
561,04	1282,03
561,24	1208,30
561,43	1187,82
561,63	1312,75
561,82	1255,40
562,02	1294,32
562,22	1302,51
562,41	1216,49
562,61	1327,08
562,80	1212,40
563,00	1232,88
563,19	1236,97
563,39	1255,40
563,59	1206,25
563,78	1210,35
563,98	1249,26
564,17	1286,12
564,37	1314,80
564,56	1208,30
564,76	1331,18
564,96	1241,07
565,15	1257,45
565,35	1318,89
565,54	1253,36
565,74	1304,56
565,93	1286,12
566,13	1259,50
566,32	1279,98
566,52	1302,51
566,71	1234,93
566,91	1316,84
567,11	1228,78
567,30	1257,45
567,50	1239,02
567,69	1363,95
567,89	1243,12
568,08	1298,41
568,28	1284,08
568,47	1269,74
568,67	1333,23
568,86	1185,77
569,06	1284,08
569,25	1230,83
569,45	1296,36
569,64	1232,88
569,84	1234,93
570,04	1353,71
570,23	1290,22
570,43	1267,69
570,62	1212,40
570,82	1177,58
571,01	1286,12
571,21	1294,32
571,40	1181,68
571,60	1271,79
571,79	1224,69
571,99	1310,70
572,18	1198,06
572,38	1290,22
572,57	1269,74
572,77	1277,93
572,96	1277,93
573,16	1232,88
573,35	1312,75
573,55	1298,41
573,74	1296,36
573,94	1259,50
574,13	1208,30
574,33	1353,71
574,52	1298,41
574,71	1191,92
574,91	1232,88
575,10	1325,04
575,30	1318,89
575,49	1275,88
575,69	1345,52
575,88	1239,02
576,08	1255,40
576,27	1236,97
576,47	1234,93
576,66	1320,94
576,86	1265,64
577,05	1374,19
577,25	1284,08
577,44	1290,22
577,64	1269,74
577,83	1259,50
578,02	1277,93
578,22	1200,11
578,41	1236,97
578,61	1204,21
578,80	1179,63
579,00	1239,02
579,19	1245,16
579,39	1253,36
579,58	1271,79
579,77	1208,30
579,97	1232,88
580,16	1290,22
580,36	1314,80
580,55	1247,21
580,75	1220,59
580,94	1216,49
581,13	1286,12
581,33	1277,93
581,52	1257,45
581,72	1265,64
581,91	1222,64
582,11	1263,60
582,30	1368,04
582,49	1230,83
582,69	1249,26
582,88	1236,97
583,08	1288,17
583,27	1241,07
583,47	1288,17
583,66	1294,32
583,85	1247,21
584,05	1294,32
584,24	1292,27
584,44	1265,64
584,63	1288,17
584,82	1300,46
585,02	1306,60
585,21	1220,59
585,41	1269,74
585,60	1294,32
585,79	1222,64
585,99	1222,64
586,18	1279,98
586,37	1298,41
586,57	1241,07
586,76	1247,21
586,96	1322,99
587,15	1232,88
587,34	1273,84
587,54	1236,97
587,73	1245,16
587,93	1218,54
588,12	1331,18
588,31	1232,88
588,51	1249,26
588,70	1296,36
588,89	1224,69
589,09	1282,03
589,28	1261,55
589,47	1284,08
589,67	1265,64
589,86	1255,40
590,06	1284,08
590,25	1263,60
590,44	1226,73
590,64	1290,22
590,83	1222,64
591,02	1222,64
591,22	1224,69
591,41	1275,88
591,60	1282,03
591,80	1331,18
591,99	1284,08
592,18	1249,26
592,38	1322,99
592,57	1286,12
592,76	1310,70
592,96	1206,25
593,15	1298,41
593,34	1263,60
593,54	1282,03
593,73	1282,03
593,92	1261,55
594,12	1318,89
594,31	1279,98
594,50	1255,40
594,70	1257,45
594,89	1310,70
595,08	1245,16
595,28	1224,69
595,47	1279,98
595,66	1308,65
595,86	1218,54
596,05	1251,31
596,24	1277,93
596,43	1312,75
596,63	1196,01
596,82	1306,60
597,01	1255,40
597,21	1236,97
597,40	1335,28
597,59	1249,26
597,79	1202,16
597,98	1245,16
598,17	1210,35
598,36	1292,27
598,56	1282,03
598,75	1249,26
598,94	1261,55
599,14	1245,16
599,33	1234,93
599,52	1271,79
599,71	1247,21
599,91	1236,97
600,10	1282,03
600,29	1224,69
600,48	1263,60
600,68	1259,50
600,87	1257,45
601,06	1271,79
601,26	1263,60
601,45	1271,79
601,64	1259,50
601,83	1228,78
602,03	1368,04
602,22	1269,74
602,41	1204,21
602,60	1259,50
602,80	1232,88
602,99	1236,97
603,18	1191,92
603,37	1306,60
603,57	1294,32
603,76	1359,85
603,95	1353,71
604,14	1212,40
604,34	1226,73
604,53	1253,36
604,72	1243,12
604,91	1314,80
605,10	1232,88
605,30	1282,03
605,49	1380,33
605,68	1302,51
605,87	1267,69
606,07	1290,22
606,26	1232,88
606,45	1265,64
606,64	1263,60
606,84	1273,84
607,03	1282,03
607,22	1214,45
607,41	1314,80
607,60	1261,55
607,80	1218,54
607,99	1265,64
608,18	1261,55
608,37	1310,70
608,56	1259,50
608,76	1298,41
608,95	1312,75
609,14	1320,94
609,33	1316,84
609,52	1357,80
609,72	1226,73
609,91	1265,64
610,10	1300,46
610,29	1259,50
610,48	1267,69
610,68	1200,11
610,87	1273,84
611,06	1269,74
611,25	1193,97
611,44	1329,13
611,63	1290,22
611,83	1327,08
612,02	1292,27
612,21	1294,32
612,40	1322,99
612,59	1265,64
612,79	1279,98
612,98	1232,88
613,17	1181,68
613,36	1298,41
613,55	1294,32
613,74	1277,93
613,93	1228,78
614,13	1210,35
614,32	1368,04
614,51	1363,95
614,70	1267,69
614,89	1382,38
615,08	1255,40
615,28	1318,89
615,47	1269,74
615,66	1247,21
615,85	1284,08
616,04	1226,73
616,23	1267,69
616,42	1257,45
616,62	1234,93
616,81	1243,12
617,00	1267,69
617,19	1259,50
617,38	1208,30
617,57	1167,34
617,76	1286,12
617,95	1265,64
618,15	1228,78
618,34	1273,84
618,53	1251,31
618,72	1298,41
618,91	1322,99
619,10	1298,41
619,29	1236,97
619,48	1226,73
619,68	1357,80
619,87	1245,16
620,06	1320,94
620,25	1249,26
620,44	1243,12
620,63	1339,37
620,82	1298,41
621,01	1196,01
621,20	1292,27
621,39	1210,35
621,59	1290,22
621,78	1318,89
621,97	1216,49
622,16	1261,55
622,35	1269,74
622,54	1298,41
622,73	1247,21
622,92	1333,23
623,11	1292,27
623,30	1308,65
623,49	1243,12
623,68	1296,36
623,88	1267,69
624,07	1239,02
624,26	1271,79
624,45	1202,16
624,64	1230,83
624,83	1259,50
625,02	1255,40
625,21	1273,84
625,40	1318,89
625,59	1339,37
625,78	1277,93
625,97	1335,28
626,16	1333,23
626,35	1325,04
626,54	1243,12
626,74	1376,24
626,93	1290,22
627,12	1333,23
627,31	1212,40
627,50	1306,60
627,69	1320,94
627,88	1339,37
628,07	1294,32
628,26	1294,32
628,45	1271,79
628,64	1333,23
628,83	1267,69
629,02	1320,94
629,21	1284,08
629,40	1322,99
629,59	1310,70
629,78	1314,80
629,97	1302,51
630,16	1314,80
630,35	1247,21
630,54	1339,37
630,73	1337,32
630,92	1267,69
631,11	1355,76
631,30	1269,74
631,49	1310,70
631,68	1427,43
631,87	1495,02
632,06	1626,09
632,25	1478,63
632,44	1507,30
632,63	1421,29
632,82	1503,21
633,01	1527,78
633,20	1486,83
633,39	1462,25
633,58	1507,30
633,77	1464,30
633,96	1488,87
634,15	1505,26
634,34	1511,40
634,53	1527,78
634,72	1515,50
634,91	1456,11
635,10	1495,02
635,29	1568,74
635,48	1511,40
635,67	1486,83
635,86	1550,31
636,05	1540,07
636,24	1419,24
636,43	1464,30
636,62	1454,06
636,81	1445,87
637,00	1423,34
637,19	1443,82
637,38	1372,14
637,57	1382,38
637,76	1335,28
637,95	1368,04
638,14	1351,66
638,33	1308,65
638,52	1273,84
638,71	1275,88
638,89	1230,83
639,08	1320,94
639,27	1261,55
639,46	1406,95
639,65	1269,74
639,84	1322,99
640,03	1204,21
640,22	1310,70
640,41	1292,27
640,60	1271,79
640,79	1220,59
640,98	1255,40
641,17	1193,97
641,36	1304,56
641,55	1226,73
641,74	1206,25
641,92	1245,16
642,11	1320,94
642,30	1236,97
642,49	1206,25
642,68	1279,98
642,87	1284,08
643,06	1304,56
643,25	1304,56
643,44	1255,40
643,63	1279,98
643,82	1212,40
644,00	1290,22
644,19	1234,93
644,38	1257,45
644,57	1255,40
644,76	1226,73
644,95	1200,11
645,14	1267,69
645,33	1267,69
645,52	1302,51
645,71	1212,40
645,89	1220,59
646,08	1265,64
646,27	1288,17
646,46	1302,51
646,65	1282,03
646,84	1374,19
647,03	1230,83
647,22	1277,93
647,40	1245,16
647,59	1257,45
647,78	1253,36
647,97	1290,22
648,16	1263,60
648,35	1271,79
648,54	1279,98
648,73	1282,03
648,91	1220,59
649,10	1273,84
649,29	1224,69
649,48	1339,37
649,67	1243,12
649,86	1222,64
650,05	1243,12
650,23	1347,56
650,42	1236,97
650,61	1329,13
650,80	1267,69
650,99	1294,32
651,18	1298,41
651,36	1308,65
651,55	1316,84
651,74	1257,45
651,93	1284,08
652,12	1296,36
652,31	1208,30
652,49	1245,16
652,68	1212,40
652,87	1193,97
653,06	1265,64
653,25	1247,21
653,44	1277,93
653,62	1312,75
653,81	1290,22
654,00	1200,11
654,19	1263,60
654,38	1265,64
654,56	1271,79
654,75	1314,80
654,94	1208,30
655,13	1241,07
655,32	1247,21
655,51	1306,60
655,69	1251,31
655,88	1322,99
656,07	1239,02
656,26	1273,84
656,45	1304,56
656,63	1212,40
656,82	1271,79
657,01	1241,07
657,20	1247,21
657,38	1290,22
657,57	1329,13
657,76	1230,83
657,95	1241,07
658,14	1257,45
658,32	1249,26
658,51	1273,84
658,70	1261,55
658,89	1333,23
659,08	1228,78
659,26	1198,06
659,45	1296,36
659,64	1286,12
659,83	1269,74
660,01	1312,75
660,20	1314,80
660,39	1271,79
660,58	1257,45
660,76	1300,46
660,95	1261,55
661,14	1247,21
661,33	1247,21
661,51	1222,64
661,70	1228,78
661,89	1255,40
662,08	1294,32
662,26	1269,74
662,45	1343,47
662,64	1261,55
662,83	1214,45
663,01	1261,55
663,20	1327,08
663,39	1255,40
663,58	1290,22
663,76	1306,60
663,95	1327,08
664,14	1226,73
664,32	1222,64
664,51	1208,30
664,70	1148,91
664,89	1253,36
665,07	1243,12
665,26	1382,38
665,45	1218,54
665,64	1232,88
665,82	1198,06
666,01	1284,08
666,20	1251,31
666,38	1384,43
666,57	1239,02
666,76	1275,88
666,95	1265,64
667,13	1329,13
667,32	1284,08
667,51	1208,30
667,69	1257,45
667,88	1282,03
668,07	1239,02
668,25	1275,88
668,44	1327,08
668,63	1265,64
668,81	1359,85
669,00	1292,27
669,19	1189,87
669,38	1318,89
669,56	1269,74
669,75	1234,93
669,94	1310,70
670,12	1320,94
670,31	1206,25
670,50	1241,07
670,68	1263,60
670,87	1306,60
671,06	1284,08
671,24	1288,17
671,43	1257,45
671,62	1255,40
671,80	1216,49
671,99	1351,66
672,18	1245,16
672,36	1277,93
672,55	1230,83
672,74	1271,79
672,92	1265,64
673,11	1294,32
673,29	1257,45
673,48	1269,74
673,67	1165,29
673,85	1226,73
674,04	1243,12
674,23	1263,60
674,41	1263,60
674,60	1253,36
674,79	1275,88
674,97	1196,01
675,16	1286,12
675,34	1318,89
675,53	1290,22
675,72	1286,12
675,90	1249,26
676,09	1288,17
676,28	1263,60
676,46	1257,45
676,65	1284,08
676,83	1308,65
677,02	1224,69
677,21	1247,21
677,39	1290,22
677,58	1218,54
677,77	1271,79
677,95	1286,12
678,14	1204,21
678,32	1298,41
678,51	1286,12
678,70	1279,98
678,88	1249,26
679,07	1286,12
679,25	1265,64
679,44	1247,21
679,63	1269,74
679,81	1257,45
680,00	1286,12
680,18	1265,64
680,37	1230,83
680,55	1232,88
680,74	1290,22
680,93	1351,66
681,11	1261,55
681,30	1296,36
681,48	1232,88
681,67	1288,17
681,85	1335,28
682,04	1310,70
682,23	1234,93
682,41	1259,50
682,60	1296,36
682,78	1236,97
682,97	1200,11
683,15	1310,70
683,34	1261,55
683,53	1241,07
683,71	1271,79
683,90	1232,88
684,08	1316,84
684,27	1230,83
684,45	1224,69
684,64	1312,75
684,82	1345,52
685,01	1253,36
685,19	1261,55
685,38	1277,93
685,57	1259,50
685,75	1259,50
685,94	1210,35
686,12	1351,66
686,31	1325,04
686,49	1198,06
686,68	1247,21
686,86	1290,22
687,05	1259,50
687,23	1267,69
687,42	1275,88
687,60	1208,30
687,79	1282,03
687,97	1255,40
688,16	1335,28
688,34	1279,98
688,53	1308,65
688,71	1273,84
688,90	1310,70
689,08	1206,25
689,27	1320,94
689,45	1247,21
689,64	1189,87
689,82	1257,45
690,01	1253,36
690,19	1284,08
690,38	1277,93
690,56	1255,40
690,75	1314,80
690,93	1263,60
691,12	1243,12
691,30	1343,47
691,49	1302,51
691,67	1306,60
691,86	1269,74
692,04	1286,12
692,23	1265,64
692,41	1241,07
692,60	1271,79
692,78	1236,97
692,97	1277,93
693,15	1279,98
693,34	1249,26
693,52	1230,83
693,71	1243,12
693,89	1243,12
694,08	1243,12
694,26	1234,93
694,44	1232,88
694,63	1206,25
694,81	1333,23
695,00	1222,64
695,18	1261,55
695,37	1316,84
695,55	1282,03
695,74	1261,55
695,92	1277,93
696,10	1284,08
696,29	1310,70
696,47	1286,12
696,66	1226,73
696,84	1263,60
697,03	1275,88
697,21	1279,98
697,40	1241,07
697,58	1345,52
697,76	1263,60
697,95	1253,36
698,13	1251,31
698,32	1232,88
698,50	1198,06
698,68	1286,12
698,87	1245,16
699,05	1304,56
699,24	1216,49
699,42	1275,88
699,61	1290,22
699,79	1271,79
699,97	1282,03
700,16	1349,61
700,34	1263,60
700,53	1241,07
700,71	1269,74
700,89	1208,30
701,08	1277,93
701,26	1316,84
701,45	1331,18
701,63	1247,21
701,81	1206,25
702,00	1343,47
702,18	1298,41
702,37	1304,56
702,55	1267,69
702,73	1271,79
702,92	1279,98
703,10	1290,22
703,28	1265,64
703,47	1247,21
703,65	1257,45
703,84	1284,08
704,02	1298,41
704,20	1243,12
704,39	1208,30
704,57	1298,41
704,75	1228,78
704,94	1228,78
705,12	1259,50
705,30	1183,73
705,49	1359,85
705,67	1327,08
705,86	1267,69
706,04	1335,28
706,22	1298,41
706,41	1275,88
706,59	1241,07
706,77	1298,41
706,96	1316,84
707,14	1251,31
707,32	1286,12
707,51	1259,50
707,69	1259,50
707,87	1298,41
708,06	1251,31
708,24	1267,69
708,42	1302,51
708,61	1193,97
708,79	1251,31
708,97	1161,20
709,16	1298,41
709,34	1198,06
709,52	1312,75
709,71	1302,51
709,89	1218,54
710,07	1286,12
710,26	1228,78
710,44	1261,55
710,62	1277,93
710,80	1265,64
710,99	1253,36
711,17	1222,64
711,35	1247,21
711,54	1320,94
711,72	1228,78
711,90	1191,92
712,09	1251,31
712,27	1218,54
712,45	1302,51
712,63	1198,06
712,82	1300,46
713,00	1335,28
713,18	1279,98
713,37	1318,89
713,55	1302,51
713,73	1284,08
713,91	1308,65
714,10	1320,94
714,28	1296,36
714,46	1241,07
714,65	1282,03
714,83	1261,55
715,01	1294,32
715,19	1212,40
715,38	1298,41
715,56	1216,49
715,74	1224,69
715,92	1245,16
716,11	1247,21
716,29	1284,08
716,47	1243,12
716,65	1271,79
716,84	1220,59
717,02	1294,32
717,20	1241,07
717,38	1290,22
717,57	1265,64
717,75	1273,84
717,93	1331,18
718,11	1306,60
718,30	1320,94
718,48	1273,84
718,66	1232,88
718,84	1263,60
719,03	1230,83
719,21	1282,03
719,39	1275,88
719,57	1263,60
719,75	1279,98
719,94	1228,78
720,12	1261,55
720,30	1298,41
720,48	1241,07
720,67	1251,31
720,85	1265,64
721,03	1282,03
721,21	1320,94
721,39	1290,22
721,58	1310,70
721,76	1271,79
721,94	1312,75
722,12	1198,06
722,30	1251,31
722,49	1259,50
722,67	1337,32
722,85	1298,41
723,03	1284,08
723,21	1232,88
723,40	1239,02
723,58	1306,60
723,76	1251,31
723,94	1300,46
724,12	1257,45
724,30	1243,12
724,49	1239,02
724,67	1282,03
724,85	1300,46
725,03	1206,25
725,21	1296,36
725,40	1296,36
725,58	1247,21
725,76	1288,17
725,94	1286,12
726,12	1320,94
726,30	1251,31
726,49	1234,93
726,67	1277,93
726,85	1236,97
727,03	1304,56
727,21	1249,26
727,39	1230,83
727,57	1253,36
727,76	1314,80
727,94	1273,84
728,12	1302,51
728,30	1331,18
728,48	1288,17
728,66	1310,70
728,84	1296,36
729,03	1232,88
729,21	1269,74
729,39	1212,40
729,57	1187,82
729,75	1308,65
729,93	1214,45
730,11	1259,50
730,30	1191,92
730,48	1271,79
730,66	1284,08
730,84	1286,12
731,02	1298,41
731,20	1243,12
731,38	1263,60
731,56	1230,83
731,74	1273,84
731,93	1337,32
732,11	1306,60
732,29	1265,64
732,47	1243,12
732,65	1253,36
732,83	1306,60
733,01	1298,41
733,19	1191,92
733,37	1239,02
733,56	1263,60
733,74	1273,84
733,92	1239,02
734,10	1263,60
734,28	1191,92
734,46	1206,25
734,64	1294,32
734,82	1288,17
735,00	1269,74
735,18	1292,27
735,36	1224,69
735,54	1320,94
735,73	1331,18
735,91	1241,07
736,09	1337,32
736,27	1224,69
736,45	1253,36
736,63	1284,08
736,81	1302,51
736,99	1271,79
737,17	1193,97
737,35	1230,83
737,53	1257,45
737,71	1259,50
737,89	1236,97
738,07	1247,21
738,25	1198,06
738,43	1325,04
738,61	1202,16
738,80	1241,07
738,98	1245,16
739,16	1206,25
739,34	1247,21
739,52	1224,69
739,70	1261,55
739,88	1257,45
740,06	1249,26
740,24	1236,97
740,42	1302,51
740,60	1341,42
740,78	1228,78
740,96	1257,45
741,14	1214,45
741,32	1304,56
741,50	1318,89
741,68	1214,45
741,86	1312,75
742,04	1245,16
742,22	1271,79
742,40	1220,59
742,58	1259,50
742,76	1296,36
742,94	1325,04
743,12	1286,12
743,30	1265,64
743,48	1208,30
743,66	1284,08
743,84	1222,64
744,02	1314,80
744,20	1277,93
744,38	1314,80
744,56	1259,50
744,74	1234,93
744,92	1216,49
745,10	1265,64
745,28	1320,94
745,46	1251,31
745,64	1292,27
745,82	1265,64
746,00	1284,08
746,18	1314,80
746,36	1308,65
746,54	1245,16
746,72	1204,21
746,90	1271,79
747,08	1273,84
747,26	1316,84
747,44	1187,82
747,62	1265,64
747,80	1212,40
747,98	1226,73
748,15	1288,17
748,33	1267,69
748,51	1331,18
748,69	1282,03
748,87	1255,40
749,05	1282,03
749,23	1355,76
749,41	1294,32
749,59	1302,51
749,77	1277,93
749,95	1251,31
750,13	1224,69
750,31	1202,16
750,49	1277,93
750,67	1282,03
750,85	1286,12
751,03	1322,99
751,20	1273,84
751,38	1249,26
751,56	1263,60
751,74	1296,36
751,92	1271,79
752,10	1314,80
752,28	1288,17
752,46	1173,49
752,64	1249,26
752,82	1249,26
753,00	1282,03
753,18	1239,02
753,35	1206,25
753,53	1214,45
753,71	1286,12
753,89	1284,08
754,07	1261,55
754,25	1271,79
754,43	1267,69
754,61	1271,79
754,79	1216,49
754,97	1304,56
755,14	1298,41
755,32	1263,60
755,50	1245,16
755,68	1214,45
755,86	1259,50
756,04	1331,18
756,22	1267,69
756,40	1290,22
756,57	1265,64
756,75	1331,18
756,93	1261,55
757,11	1224,69
757,29	1208,30
757,47	1290,22
757,65	1214,45
757,82	1202,16
758,00	1232,88
758,18	1202,16
758,36	1310,70
758,54	1300,46
758,72	1196,01
758,90	1288,17
759,07	1253,36
759,25	1273,84
759,43	1294,32
759,61	1279,98
759,79	1267,69
759,97	1294,32
760,15	1241,07
760,32	1306,60
760,50	1232,88
760,68	1275,88
760,86	1273,84
761,04	1228,78
761,22	1329,13
761,39	1275,88
761,57	1294,32
761,75	1290,22
761,93	1196,01
762,11	1253,36
762,28	1259,50
762,46	1263,60
762,64	1234,93
762,82	1249,26
763,00	1216,49
763,18	1304,56
763,35	1261,55
763,53	1265,64
763,71	1255,40
763,89	1273,84
764,07	1245,16
764,24	1249,26
764,42	1290,22
764,60	1245,16
764,78	1263,60
764,96	1255,40
765,13	1263,60
765,31	1265,64
765,49	1265,64
765,67	1241,07
765,84	1284,08
766,02	1312,75
766,20	1239,02
766,38	1261,55
766,56	1265,64
766,73	1351,66
766,91	1325,04
767,09	1345,52
767,27	1239,02
767,44	1200,11
767,62	1261,55
767,80	1257,45
767,98	1286,12
768,15	1306,60
768,33	1218,54
768,51	1265,64
768,69	1273,84
768,87	1263,60
769,04	1249,26
769,22	1298,41
769,40	1257,45
769,58	1292,27
769,75	1255,40
769,93	1320,94
770,11	1300,46
770,28	1273,84
770,46	1189,87
770,64	1325,04
770,82	1314,80
770,99	1277,93
771,17	1261,55
771,35	1265,64
771,53	1228,78
771,70	1265,64
771,88	1245,16
772,06	1279,98
772,23	1271,79
772,41	1263,60
772,59	1325,04
772,77	1277,93
772,94	1236,97
773,12	1282,03
773,30	1294,32
773,47	1200,11
773,65	1249,26
773,83	1261,55
774,01	1218,54
774,18	1329,13
774,36	1349,61
774,54	1230,83
774,71	1271,79
774,89	1296,36
775,07	1327,08
775,24	1277,93
775,42	1298,41
775,60	1167,34
775,78	1286,12
775,95	1253,36
776,13	1257,45
776,31	1288,17
776,48	1253,36
776,66	1279,98
776,84	1286,12
777,01	1286,12
777,19	1267,69
777,37	1282,03
777,54	1282,03
777,72	1243,12
777,90	1316,84
778,07	1243,12
778,25	1257,45
778,43	1208,30
778,60	1183,73
778,78	1273,84
778,96	1312,75
779,13	1251,31
779,31	1269,74
779,49	1263,60
779,66	1273,84
779,84	1282,03
780,01	1216,49
780,19	1257,45
780,37	1304,56
780,54	1243,12
780,72	1275,88
780,90	1236,97
781,07	1265,64
781,25	1259,50
781,43	1277,93
781,60	1220,59
781,78	1263,60
781,95	1351,66
782,13	1251,31
782,31	1208,30
782,48	1218,54
782,66	1259,50
782,83	1236,97
783,01	1232,88
783,19	1206,25
783,36	1284,08
783,54	1216,49
783,72	1312,75
783,89	1275,88
784,07	1286,12
784,24	1308,65
784,42	1251,31
784,60	1255,40
784,77	1257,45
784,95	1277,93
785,12	1282,03
785,30	1284,08
785,47	1304,56
785,65	1331,18
785,83	1312,75
786,00	1302,51
786,18	1290,22
786,35	1284,08
786,53	1277,93
786,71	1239,02
786,88	1230,83
787,06	1257,45
787,23	1251,31
787,41	1247,21
787,58	1292,27
787,76	1265,64
787,94	1232,88
788,11	1314,80
788,29	1216,49
788,46	1282,03
788,64	1214,45
788,81	1279,98
788,99	1236,97
789,16	1271,79
789,34	1249,26
789,52	1275,88
789,69	1259,50
789,87	1341,42
790,04	1239,02
790,22	1261,55
790,39	1273,84
790,57	1298,41
790,74	1370,09
790,92	1206,25
791,09	1279,98
791,27	1331,18
791,44	1284,08
791,62	1331,18
791,79	1255,40
791,97	1302,51
792,15	1271,79
792,32	1316,84
792,50	1208,30
792,67	1257,45
792,85	1277,93
793,02	1300,46
793,20	1275,88
793,37	1249,26
793,55	1232,88
793,72	1200,11
793,90	1298,41
794,07	1257,45
794,25	1331,18
794,42	1257,45
794,60	1286,12
794,77	1263,60
794,95	1257,45
795,12	1310,70
795,30	1216,49
795,47	1228,78
795,65	1312,75
795,82	1275,88
796,00	1300,46
796,17	1234,93
796,34	1257,45
796,52	1257,45
796,69	1294,32
796,87	1316,84
797,04	1275,88
797,22	1298,41
797,39	1267,69
797,57	1226,73
797,74	1255,40
797,92	1232,88
798,09	1282,03
798,27	1341,42
798,44	1284,08
798,62	1290,22
798,79	1245,16
798,96	1275,88
799,14	1191,92
799,31	1259,50
799,49	1275,88
799,66	1214,45
799,84	1292,27
800,01	1314,80
800,19	1294,32
800,36	1302,51
800,53	1329,13
800,71	1202,16
800,88	1300,46
801,06	1218,54
801,23	1279,98
801,41	1288,17
801,58	1251,31
801,75	1318,89
801,93	1269,74
802,10	1261,55
802,28	1314,80
802,45	1327,08
802,63	1310,70
802,80	1290,22
802,97	1269,74
803,15	1193,97
803,32	1288,17
803,50	1243,12
803,67	1279,98
803,84	1228,78
804,02	1329,13
804,19	1257,45
804,37	1214,45
804,54	1251,31
804,71	1216,49
804,89	1318,89
805,06	1239,02
805,24	1245,16
805,41	1302,51
805,58	1286,12
805,76	1316,84
805,93	1282,03
806,10	1257,45
806,28	1212,40
806,45	1320,94
806,63	1232,88
806,80	1310,70
806,97	1247,21
807,15	1247,21
807,32	1284,08
807,49	1286,12
807,67	1288,17
807,84	1257,45
808,01	1212,40
808,19	1361,90
808,36	1310,70
808,54	1251,31
808,71	1249,26
808,88	1220,59
809,06	1241,07
809,23	1263,60
809,40	1200,11
809,58	1302,51
809,75	1241,07
809,92	1271,79
810,10	1277,93
810,27	1187,82
810,44	1267,69
810,62	1257,45
810,79	1245,16
810,96	1191,92
811,14	1212,40
811,31	1310,70
811,48	1275,88
811,66	1284,08
811,83	1304,56
812,00	1208,30
812,18	1263,60
812,35	1306,60
812,52	1263,60
812,69	1222,64
812,87	1306,60
813,04	1310,70
813,21	1273,84
813,39	1271,79
813,56	1282,03
813,73	1310,70
813,91	1204,21
814,08	1279,98
814,25	1310,70
814,42	1241,07
814,60	1249,26
814,77	1247,21
814,94	1232,88
815,12	1269,74
815,29	1302,51
815,46	1271,79
815,63	1251,31
815,81	1275,88
815,98	1200,11
816,15	1320,94
816,33	1251,31
816,50	1308,65
816,67	1294,32
816,84	1261,55
817,02	1290,22
817,19	1253,36
817,36	1263,60
817,53	1298,41
817,71	1368,04
817,88	1294,32
818,05	1261,55
818,22	1265,64
818,40	1279,98
818,57	1257,45
818,74	1296,36
818,91	1222,64
819,09	1310,70
819,26	1374,19
819,43	1241,07
819,60	1275,88
819,78	1234,93
819,95	1267,69
820,12	1226,73
820,29	1290,22
820,47	1333,23
820,64	1343,47
820,81	1226,73
820,98	1329,13
821,15	1265,64
821,33	1314,80
821,50	1214,45
821,67	1282,03
821,84	1337,32
822,02	1310,70
822,19	1306,60
822,36	1279,98
822,53	1277,93
822,70	1277,93
822,88	1314,80
823,05	1302,51
823,22	1257,45
823,39	1282,03
823,56	1296,36
823,74	1314,80
823,91	1261,55
824,08	1198,06
824,25	1234,93
824,42	1234,93
824,60	1255,40
824,77	1292,27
824,94	1304,56
825,11	1239,02
825,28	1284,08
825,45	1247,21
825,63	1220,59
825,80	1271,79
825,97	1228,78
826,14	1312,75
826,31	1208,30
826,48	1294,32
826,66	1294,32
826,83	1306,60
827,00	1273,84
827,17	1298,41
827,34	1218,54
827,51	1282,03
827,69	1284,08
827,86	1183,73
828,03	1243,12
828,20	1216,49
828,37	1179,63
828,54	1196,01
828,71	1271,79
828,89	1298,41
829,06	1269,74
829,23	1343,47
829,40	1282,03
829,57	1234,93
829,74	1255,40
829,91	1318,89
830,09	1294,32
830,26	1224,69
830,43	1279,98
830,60	1290,22
830,77	1341,42
830,94	1243,12
831,11	1230,83
831,28	1314,80
831,46	1296,36
831,63	1288,17
831,80	1282,03
831,97	1284,08
832,14	1232,88
832,31	1284,08
832,48	1277,93
832,65	1284,08
832,82	1279,98
832,99	1230,83
833,17	1220,59
833,34	1249,26
833,51	1333,23
833,68	1304,56
833,85	1234,93
834,02	1300,46
834,19	1257,45
834,36	1286,12
834,53	1236,97
834,70	1269,74
834,87	1193,97
835,04	1273,84
835,22	1279,98
835,39	1230,83
835,56	1251,31
835,73	1282,03
835,90	1302,51
836,07	1200,11
836,24	1296,36
836,41	1333,23
836,58	1220,59
836,75	1282,03
836,92	1230,83
837,09	1290,22
837,26	1349,61
837,43	1257,45
837,60	1277,93
837,77	1296,36
837,94	1243,12
838,12	1312,75
838,29	1265,64
838,46	1234,93
838,63	1230,83
838,80	1277,93
838,97	1251,31
839,14	1241,07
839,31	1282,03
839,48	1298,41
839,65	1269,74
839,82	1249,26
839,99	1284,08
840,16	1302,51
840,33	1259,50
840,50	1253,36
840,67	1298,41
840,84	1261,55
841,01	1181,68
841,18	1306,60
841,35	1224,69
841,52	1216,49
841,69	1322,99
841,86	1339,37
842,03	1331,18
842,20	1265,64
842,37	1251,31
842,54	1290,22
842,71	1257,45
842,88	1241,07
843,05	1220,59
843,22	1298,41
843,39	1339,37
843,56	1249,26
843,73	1255,40
843,90	1302,51
844,07	1271,79
844,24	1202,16
844,41	1296,36
844,58	1226,73
844,75	1275,88
844,92	1167,34
845,09	1259,50
845,26	1279,98
845,43	1296,36
845,60	1290,22
845,77	1234,93
845,94	1196,01
846,10	1306,60
846,27	1228,78
846,44	1296,36
846,61	1327,08
846,78	1257,45
846,95	1314,80
847,12	1271,79
847,29	1187,82
847,46	1216,49
847,63	1245,16
847,80	1267,69
847,97	1279,98
848,14	1302,51
848,31	1255,40
848,48	1241,07
848,65	1337,32
848,82	1255,40
848,98	1239,02
849,15	1279,98
849,32	1230,83
849,49	1335,28
849,66	1273,84
849,83	1304,56
850,00	1273,84
850,17	1279,98
850,34	1286,12
850,51	1282,03
850,68	1312,75
850,85	1267,69
851,01	1296,36
851,18	1239,02
851,35	1304,56
851,52	1296,36
851,69	1236,97
851,86	1255,40
852,03	1241,07
852,20	1310,70
852,37	1239,02
852,53	1189,87
852,70	1322,99
852,87	1200,11
853,04	1302,51
853,21	1273,84
853,38	1245,16
853,55	1267,69
853,72	1241,07
853,89	1245,16
854,05	1263,60
854,22	1296,36
854,39	1212,40
854,56	1255,40
854,73	1277,93
854,90	1232,88
855,07	1275,88
855,23	1251,31
855,40	1241,07
855,57	1220,59
855,74	1257,45
855,91	1226,73
856,08	1273,84
856,25	1302,51
856,41	1236,97
856,58	1286,12
856,75	1378,28
856,92	1267,69
857,09	1257,45
857,26	1220,59
857,42	1222,64
857,59	1277,93
857,76	1316,84
857,93	1239,02
858,10	1236,97
858,27	1269,74
858,43	1306,60
858,60	1265,64
858,77	1282,03
858,94	1337,32
859,11	1275,88
859,27	1204,21
859,44	1269,74
859,61	1228,78
859,78	1263,60
859,95	1265,64
860,12	1273,84
860,28	1327,08
860,45	1269,74
860,62	1363,95
860,79	1265,64
860,95	1214,45
861,12	1216,49
861,29	1284,08
861,46	1200,11
861,63	1279,98
861,79	1306,60
861,96	1277,93
862,13	1202,16
862,30	1271,79
862,47	1230,83
862,63	1249,26
862,80	1282,03
862,97	1267,69
863,14	1333,23
863,30	1255,40
863,47	1298,41
863,64	1247,21
863,81	1298,41
863,97	1253,36
864,14	1361,90
864,31	1290,22
864,48	1279,98
864,65	1384,43
864,81	1218,54
864,98	1251,31
865,15	1214,45
865,32	1257,45
865,48	1191,92
865,65	1253,36
865,82	1230,83
865,98	1284,08
866,15	1314,80
866,32	1335,28
866,49	1308,65
866,65	1265,64
866,82	1306,60
866,99	1243,12
867,16	1251,31
867,32	1261,55
867,49	1343,47
867,66	1198,06
867,83	1267,69
867,99	1292,27
868,16	1294,32
868,33	1243,12
868,49	1314,80
868,66	1210,35
868,83	1255,40
868,99	1243,12
869,16	1247,21
869,33	1267,69
869,50	1290,22
869,66	1308,65
869,83	1380,33
870,00	1271,79
870,16	1288,17
870,33	1255,40
870,50	1208,30
870,66	1187,82
870,83	1292,27
871,00	1257,45
871,17	1284,08
871,33	1216,49
871,50	1265,64
871,67	1247,21
871,83	1208,30
872,00	1282,03
872,17	1255,40
872,33	1308,65
872,50	1255,40
872,67	1234,93
872,83	1245,16
873,00	1232,88
873,17	1255,40
873,33	1310,70
873,50	1314,80
873,67	1282,03
873,83	1265,64
874,00	1236,97
874,16	1247,21
874,33	1269,74
874,50	1279,98
874,66	1265,64
874,83	1308,65
875,00	1241,07
875,16	1208,30
875,33	1239,02
875,50	1263,60
875,66	1165,29
875,83	1327,08
875,99	1302,51
876,16	1298,41
876,33	1275,88
876,49	1230,83
876,66	1200,11
876,83	1247,21
876,99	1265,64
877,16	1226,73
877,32	1294,32
877,49	1361,90
877,66	1277,93
877,82	1247,21
877,99	1271,79
878,15	1290,22
878,32	1236,97
878,49	1249,26
878,65	1361,90
878,82	1304,56
878,98	1249,26
879,15	1322,99
879,32	1302,51
879,48	1310,70
879,65	1267,69
879,81	1302,51
879,98	1255,40
880,15	1214,45
880,31	1341,42
880,48	1257,45
880,64	1234,93
880,81	1277,93
880,97	1298,41
881,14	1329,13
881,31	1310,70
881,47	1304,56
881,64	1288,17
881,80	1224,69
881,97	1249,26
882,13	1224,69
882,30	1284,08
882,47	1214,45
882,63	1218,54
882,80	1290,22
882,96	1275,88
883,13	1275,88
883,29	1298,41
883,46	1331,18
883,62	1232,88
883,79	1241,07
883,95	1257,45
884,12	1273,84
884,29	1267,69
884,45	1216,49
884,62	1302,51
884,78	1320,94
884,95	1312,75
885,11	1271,79
885,28	1228,78
885,44	1204,21
885,61	1310,70
885,77	1267,69
885,94	1298,41
886,10	1320,94
886,27	1224,69
886,43	1282,03
886,60	1300,46
886,76	1243,12
886,93	1275,88
887,09	1290,22
887,26	1239,02
887,42	1343,47
887,59	1222,64
887,75	1267,69
887,92	1239,02
888,08	1292,27
888,25	1204,21
888,41	1294,32
888,58	1191,92
888,74	1255,40
888,91	1341,42
>>>>>End Processed Spectral Data<<<<<
