SpectraSuite Data File
++++++++++++++++++++++++++++++++++++
Date: Sun Apr 03 15:29:34 CEST 2016
User: root
Dark Spectrum Present: No
Reference Spectrum Present: No
Number of Sampled Component Spectra: 1
Spectrometers: USB4C02835
Integration Time (usec): 10000 (USB4C02835)
Spectra Averaged: 1 (USB4C02835)
Boxcar Smoothing: 0 (USB4C02835)
Correct for Electrical Dark: No (USB4C02835)
Strobe/Lamp Enabled: No (USB4C02835)
Correct for Detector Non-linearity: No (USB4C02835)
Correct for Stray Light: No (USB4C02835)
Number of Pixels in Processed Spectrum: 3648
>>>>>Begin Processed Spectral Data<<<<<
177,47	1296,36
177,69	1296,36
177,91	1296,36
178,13	1273,84
178,36	1173,49
178,58	1271,79
178,80	1265,64
179,02	1308,65
179,24	1282,03
179,46	1245,16
179,68	1331,18
179,90	1236,97
180,13	1325,04
180,35	1349,61
180,57	1271,79
180,79	1316,84
181,01	1288,17
181,23	1230,83
181,45	1249,26
181,67	1275,88
181,90	1234,93
182,12	1277,93
182,34	1220,59
182,56	1279,98
182,78	1259,50
183,00	1298,41
183,22	1331,18
183,44	1261,55
183,66	1179,63
183,89	1294,32
184,11	1273,84
184,33	1226,73
184,55	1288,17
184,77	1263,60
184,99	1277,93
185,21	1153,01
185,43	1206,25
185,65	1241,07
185,87	1255,40
186,10	1296,36
186,32	1273,84
186,54	1333,23
186,76	1298,41
186,98	1232,88
187,20	1271,79
187,42	1232,88
187,64	1208,30
187,86	1273,84
188,08	1284,08
188,30	1277,93
188,52	1345,52
188,75	1265,64
188,97	1269,74
189,19	1247,21
189,41	1290,22
189,63	1214,45
189,85	1322,99
190,07	1226,73
190,29	1259,50
190,51	1251,31
190,73	1241,07
190,95	1218,54
191,17	1232,88
191,39	1261,55
191,61	1282,03
191,84	1269,74
192,06	1310,70
192,28	1284,08
192,50	1241,07
192,72	1312,75
192,94	1253,36
193,16	1257,45
193,38	1294,32
193,60	1314,80
193,82	1232,88
194,04	1196,01
194,26	1263,60
194,48	1247,21
194,70	1253,36
194,92	1232,88
195,14	1265,64
195,36	1327,08
195,58	1253,36
195,80	1257,45
196,02	1277,93
196,24	1255,40
196,46	1363,95
196,69	1216,49
196,91	1361,90
197,13	1327,08
197,35	1304,56
197,57	1263,60
197,79	1216,49
198,01	1224,69
198,23	1277,93
198,45	1255,40
198,67	1265,64
198,89	1312,75
199,11	1300,46
199,33	1251,31
199,55	1265,64
199,77	1220,59
199,99	1261,55
200,21	1204,21
200,43	1288,17
200,65	1263,60
200,87	1241,07
201,09	1290,22
201,31	1275,88
201,53	1257,45
201,75	1267,69
201,97	1179,63
202,19	1306,60
202,41	1241,07
202,63	1263,60
202,85	1384,43
203,07	1247,21
203,29	1265,64
203,51	1288,17
203,73	1308,65
203,95	1298,41
204,17	1343,47
204,39	1243,12
204,61	1251,31
204,83	1271,79
205,05	1341,42
205,27	1249,26
205,49	1253,36
205,71	1286,12
205,93	1277,93
206,15	1200,11
206,37	1300,46
206,59	1241,07
206,81	1290,22
207,03	1243,12
207,25	1224,69
207,47	1220,59
207,69	1316,84
207,91	1296,36
208,13	1249,26
208,34	1284,08
208,56	1267,69
208,78	1294,32
209,00	1286,12
209,22	1259,50
209,44	1236,97
209,66	1286,12
209,88	1236,97
210,10	1296,36
210,32	1263,60
210,54	1288,17
210,76	1312,75
210,98	1165,29
211,20	1232,88
211,42	1165,29
211,64	1200,11
211,86	1314,80
212,08	1255,40
212,30	1288,17
212,52	1275,88
212,74	1286,12
212,96	1288,17
213,17	1236,97
213,39	1247,21
213,61	1304,56
213,83	1290,22
214,05	1198,06
214,27	1255,40
214,49	1298,41
214,71	1286,12
214,93	1249,26
215,15	1181,68
215,37	1300,46
215,59	1306,60
215,81	1224,69
216,03	1296,36
216,24	1206,25
216,46	1271,79
216,68	1306,60
216,90	1257,45
217,12	1331,18
217,34	1302,51
217,56	1267,69
217,78	1243,12
218,00	1286,12
218,22	1269,74
218,44	1296,36
218,66	1288,17
218,87	1304,56
219,09	1259,50
219,31	1351,66
219,53	1257,45
219,75	1327,08
219,97	1361,90
220,19	1312,75
220,41	1265,64
220,63	1257,45
220,85	1314,80
221,06	1298,41
221,28	1247,21
221,50	1236,97
221,72	1261,55
221,94	1320,94
222,16	1284,08
222,38	1255,40
222,60	1275,88
222,82	1247,21
223,03	1286,12
223,25	1286,12
223,47	1359,85
223,69	1288,17
223,91	1302,51
224,13	1306,60
224,35	1253,36
224,57	1310,70
224,78	1198,06
225,00	1325,04
225,22	1288,17
225,44	1279,98
225,66	1300,46
225,88	1366,00
226,10	1288,17
226,32	1253,36
226,53	1271,79
226,75	1261,55
226,97	1271,79
227,19	1257,45
227,41	1224,69
227,63	1234,93
227,85	1253,36
228,06	1267,69
228,28	1232,88
228,50	1288,17
228,72	1312,75
228,94	1208,30
229,16	1331,18
229,37	1320,94
229,59	1243,12
229,81	1204,21
230,03	1228,78
230,25	1310,70
230,47	1245,16
230,69	1243,12
230,90	1249,26
231,12	1267,69
231,34	1249,26
231,56	1314,80
231,78	1308,65
232,00	1220,59
232,21	1267,69
232,43	1288,17
232,65	1275,88
232,87	1216,49
233,09	1335,28
233,30	1265,64
233,52	1304,56
233,74	1202,16
233,96	1263,60
234,18	1232,88
234,40	1300,46
234,61	1333,23
234,83	1290,22
235,05	1230,83
235,27	1335,28
235,49	1282,03
235,70	1267,69
235,92	1273,84
236,14	1214,45
236,36	1228,78
236,58	1331,18
236,79	1249,26
237,01	1271,79
237,23	1339,37
237,45	1306,60
237,67	1255,40
237,88	1292,27
238,10	1284,08
238,32	1288,17
238,54	1353,71
238,76	1232,88
238,97	1265,64
239,19	1239,02
239,41	1298,41
239,63	1269,74
239,85	1290,22
240,06	1304,56
240,28	1236,97
240,50	1263,60
240,72	1253,36
240,93	1284,08
241,15	1265,64
241,37	1257,45
241,59	1214,45
241,81	1277,93
242,02	1191,92
242,24	1218,54
242,46	1370,09
242,68	1294,32
242,89	1294,32
243,11	1206,25
243,33	1247,21
243,55	1253,36
243,76	1265,64
243,98	1249,26
244,20	1359,85
244,42	1243,12
244,64	1304,56
244,85	1206,25
245,07	1282,03
245,29	1265,64
245,51	1265,64
245,72	1165,29
245,94	1253,36
246,16	1206,25
246,38	1259,50
246,59	1267,69
246,81	1212,40
247,03	1325,04
247,24	1267,69
247,46	1228,78
247,68	1298,41
247,90	1261,55
248,11	1290,22
248,33	1273,84
248,55	1263,60
248,77	1312,75
248,98	1245,16
249,20	1300,46
249,42	1222,64
249,64	1263,60
249,85	1347,56
250,07	1243,12
250,29	1308,65
250,50	1327,08
250,72	1298,41
250,94	1273,84
251,16	1325,04
251,37	1241,07
251,59	1265,64
251,81	1294,32
252,02	1327,08
252,24	1286,12
252,46	1249,26
252,68	1314,80
252,89	1286,12
253,11	1279,98
253,33	1249,26
253,54	1212,40
253,76	1261,55
253,98	1232,88
254,20	1265,64
254,41	1226,73
254,63	1308,65
254,85	1200,11
255,06	1271,79
255,28	1261,55
255,50	1296,36
255,71	1267,69
255,93	1290,22
256,15	1159,15
256,36	1220,59
256,58	1224,69
256,80	1312,75
257,02	1306,60
257,23	1296,36
257,45	1363,95
257,67	1271,79
257,88	1277,93
258,10	1243,12
258,32	1181,68
258,53	1296,36
258,75	1302,51
258,97	1298,41
259,18	1263,60
259,40	1263,60
259,62	1275,88
259,83	1247,21
260,05	1224,69
260,27	1312,75
260,48	1282,03
260,70	1306,60
260,92	1279,98
261,13	1257,45
261,35	1269,74
261,57	1191,92
261,78	1312,75
262,00	1269,74
262,22	1255,40
262,43	1241,07
262,65	1308,65
262,86	1277,93
263,08	1337,32
263,30	1255,40
263,51	1290,22
263,73	1359,85
263,95	1322,99
264,16	1284,08
264,38	1343,47
264,60	1282,03
264,81	1277,93
265,03	1290,22
265,25	1290,22
265,46	1275,88
265,68	1304,56
265,89	1318,89
266,11	1236,97
266,33	1335,28
266,54	1251,31
266,76	1292,27
266,98	1271,79
267,19	1271,79
267,41	1271,79
267,62	1273,84
267,84	1310,70
268,06	1230,83
268,27	1267,69
268,49	1263,60
268,70	1222,64
268,92	1296,36
269,14	1286,12
269,35	1218,54
269,57	1310,70
269,79	1318,89
270,00	1230,83
270,22	1236,97
270,43	1228,78
270,65	1249,26
270,87	1294,32
271,08	1275,88
271,30	1255,40
271,51	1193,97
271,73	1325,04
271,95	1327,08
272,16	1234,93
272,38	1290,22
272,59	1216,49
272,81	1306,60
273,02	1239,02
273,24	1196,01
273,46	1253,36
273,67	1347,56
273,89	1279,98
274,10	1314,80
274,32	1253,36
274,54	1241,07
274,75	1241,07
274,97	1282,03
275,18	1294,32
275,40	1241,07
275,61	1263,60
275,83	1335,28
276,05	1284,08
276,26	1320,94
276,48	1216,49
276,69	1279,98
276,91	1236,97
277,12	1241,07
277,34	1294,32
277,55	1339,37
277,77	1236,97
277,99	1265,64
278,20	1261,55
278,42	1288,17
278,63	1286,12
278,85	1275,88
279,06	1236,97
279,28	1333,23
279,49	1224,69
279,71	1271,79
279,93	1347,56
280,14	1232,88
280,36	1265,64
280,57	1277,93
280,79	1214,45
281,00	1216,49
281,22	1249,26
281,43	1234,93
281,65	1320,94
281,86	1300,46
282,08	1232,88
282,29	1228,78
282,51	1257,45
282,73	1245,16
282,94	1257,45
283,16	1382,38
283,37	1306,60
283,59	1210,35
283,80	1300,46
284,02	1230,83
284,23	1282,03
284,45	1320,94
284,66	1304,56
284,88	1333,23
285,09	1310,70
285,31	1265,64
285,52	1247,21
285,74	1288,17
285,95	1220,59
286,17	1234,93
286,38	1261,55
286,60	1277,93
286,81	1314,80
287,03	1279,98
287,24	1288,17
287,46	1316,84
287,67	1294,32
287,89	1259,50
288,10	1191,92
288,32	1273,84
288,53	1241,07
288,75	1304,56
288,96	1196,01
289,18	1269,74
289,39	1277,93
289,61	1314,80
289,82	1290,22
290,04	1302,51
290,25	1343,47
290,47	1271,79
290,68	1257,45
290,90	1302,51
291,11	1298,41
291,33	1396,71
291,54	1304,56
291,76	1288,17
291,97	1222,64
292,18	1294,32
292,40	1290,22
292,61	1259,50
292,83	1241,07
293,04	1247,21
293,26	1345,52
293,47	1290,22
293,69	1271,79
293,90	1271,79
294,12	1292,27
294,33	1202,16
294,55	1284,08
294,76	1163,25
294,97	1339,37
295,19	1267,69
295,40	1212,40
295,62	1302,51
295,83	1304,56
296,05	1325,04
296,26	1279,98
296,48	1230,83
296,69	1267,69
296,90	1249,26
297,12	1255,40
297,33	1290,22
297,55	1173,49
297,76	1300,46
297,98	1202,16
298,19	1288,17
298,41	1185,77
298,62	1284,08
298,83	1191,92
299,05	1257,45
299,26	1234,93
299,48	1279,98
299,69	1292,27
299,90	1200,11
300,12	1279,98
300,33	1243,12
300,55	1314,80
300,76	1277,93
300,98	1333,23
301,19	1263,60
301,40	1257,45
301,62	1349,61
301,83	1241,07
302,05	1249,26
302,26	1310,70
302,47	1273,84
302,69	1230,83
302,90	1288,17
303,12	1226,73
303,33	1267,69
303,54	1265,64
303,76	1288,17
303,97	1216,49
304,19	1245,16
304,40	1253,36
304,61	1275,88
304,83	1335,28
305,04	1234,93
305,26	1263,60
305,47	1282,03
305,68	1322,99
305,90	1243,12
306,11	1251,31
306,33	1284,08
306,54	1290,22
306,75	1282,03
306,97	1306,60
307,18	1325,04
307,39	1314,80
307,61	1279,98
307,82	1236,97
308,04	1329,13
308,25	1241,07
308,46	1255,40
308,68	1271,79
308,89	1204,21
309,10	1261,55
309,32	1282,03
309,53	1271,79
309,74	1263,60
309,96	1288,17
310,17	1343,47
310,39	1296,36
310,60	1259,50
310,81	1286,12
311,03	1183,73
311,24	1273,84
311,45	1288,17
311,67	1286,12
311,88	1333,23
312,09	1294,32
312,31	1341,42
312,52	1308,65
312,73	1288,17
312,95	1226,73
313,16	1269,74
313,37	1259,50
313,59	1236,97
313,80	1265,64
314,01	1230,83
314,23	1251,31
314,44	1216,49
314,65	1269,74
314,87	1232,88
315,08	1288,17
315,29	1265,64
315,51	1224,69
315,72	1247,21
315,93	1241,07
316,15	1255,40
316,36	1300,46
316,57	1271,79
316,79	1249,26
317,00	1322,99
317,21	1310,70
317,43	1298,41
317,64	1271,79
317,85	1288,17
318,07	1267,69
318,28	1327,08
318,49	1308,65
318,70	1337,32
318,92	1304,56
319,13	1304,56
319,34	1212,40
319,56	1277,93
319,77	1279,98
319,98	1243,12
320,20	1269,74
320,41	1286,12
320,62	1298,41
320,83	1288,17
321,05	1325,04
321,26	1277,93
321,47	1320,94
321,69	1255,40
321,90	1236,97
322,11	1337,32
322,32	1271,79
322,54	1208,30
322,75	1247,21
322,96	1255,40
323,18	1310,70
323,39	1300,46
323,60	1277,93
323,81	1357,80
324,03	1308,65
324,24	1245,16
324,45	1314,80
324,66	1282,03
324,88	1366,00
325,09	1339,37
325,30	1222,64
325,52	1253,36
325,73	1239,02
325,94	1224,69
326,15	1298,41
326,37	1304,56
326,58	1255,40
326,79	1335,28
327,00	1318,89
327,22	1236,97
327,43	1257,45
327,64	1306,60
327,85	1361,90
328,07	1198,06
328,28	1263,60
328,49	1275,88
328,70	1183,73
328,92	1216,49
329,13	1269,74
329,34	1284,08
329,55	1269,74
329,76	1271,79
329,98	1183,73
330,19	1273,84
330,40	1306,60
330,61	1279,98
330,83	1251,31
331,04	1271,79
331,25	1275,88
331,46	1271,79
331,68	1239,02
331,89	1306,60
332,10	1308,65
332,31	1279,98
332,52	1302,51
332,74	1263,60
332,95	1220,59
333,16	1331,18
333,37	1253,36
333,58	1269,74
333,80	1249,26
334,01	1271,79
334,22	1224,69
334,43	1273,84
334,64	1265,64
334,86	1322,99
335,07	1265,64
335,28	1286,12
335,49	1304,56
335,70	1236,97
335,92	1286,12
336,13	1275,88
336,34	1296,36
336,55	1286,12
336,76	1267,69
336,98	1263,60
337,19	1230,83
337,40	1290,22
337,61	1310,70
337,82	1251,31
338,04	1290,22
338,25	1249,26
338,46	1318,89
338,67	1269,74
338,88	1261,55
339,09	1271,79
339,31	1279,98
339,52	1312,75
339,73	1343,47
339,94	1241,07
340,15	1271,79
340,36	1206,25
340,58	1257,45
340,79	1230,83
341,00	1292,27
341,21	1228,78
341,42	1279,98
341,63	1296,36
341,85	1288,17
342,06	1271,79
342,27	1224,69
342,48	1200,11
342,69	1306,60
342,90	1302,51
343,12	1277,93
343,33	1261,55
343,54	1255,40
343,75	1269,74
343,96	1198,06
344,17	1263,60
344,38	1288,17
344,60	1339,37
344,81	1232,88
345,02	1273,84
345,23	1314,80
345,44	1255,40
345,65	1241,07
345,86	1228,78
346,07	1220,59
346,29	1329,13
346,50	1265,64
346,71	1277,93
346,92	1300,46
347,13	1314,80
347,34	1302,51
347,55	1363,95
347,76	1241,07
347,98	1232,88
348,19	1198,06
348,40	1273,84
348,61	1243,12
348,82	1271,79
349,03	1189,87
349,24	1228,78
349,45	1290,22
349,66	1294,32
349,88	1267,69
350,09	1241,07
350,30	1255,40
350,51	1271,79
350,72	1216,49
350,93	1341,42
351,14	1212,40
351,35	1214,45
351,56	1298,41
351,77	1288,17
351,99	1263,60
352,20	1261,55
352,41	1249,26
352,62	1261,55
352,83	1314,80
353,04	1241,07
353,25	1269,74
353,46	1214,45
353,67	1296,36
353,88	1271,79
354,09	1236,97
354,30	1318,89
354,52	1257,45
354,73	1290,22
354,94	1298,41
355,15	1277,93
355,36	1290,22
355,57	1247,21
355,78	1236,97
355,99	1265,64
356,20	1230,83
356,41	1296,36
356,62	1271,79
356,83	1247,21
357,04	1267,69
357,25	1200,11
357,46	1261,55
357,68	1232,88
357,89	1196,01
358,10	1224,69
358,31	1298,41
358,52	1288,17
358,73	1263,60
358,94	1312,75
359,15	1343,47
359,36	1247,21
359,57	1253,36
359,78	1271,79
359,99	1269,74
360,20	1318,89
360,41	1273,84
360,62	1341,42
360,83	1251,31
361,04	1284,08
361,25	1296,36
361,46	1288,17
361,67	1357,80
361,88	1198,06
362,09	1236,97
362,30	1220,59
362,51	1279,98
362,72	1253,36
362,93	1288,17
363,14	1322,99
363,35	1239,02
363,56	1196,01
363,78	1302,51
363,99	1275,88
364,20	1247,21
364,41	1230,83
364,62	1296,36
364,83	1306,60
365,04	1318,89
365,25	1325,04
365,46	1349,61
365,67	1277,93
365,88	1279,98
366,09	1251,31
366,30	1265,64
366,51	1263,60
366,72	1257,45
366,93	1279,98
367,14	1218,54
367,35	1241,07
367,56	1273,84
367,77	1296,36
367,98	1279,98
368,18	1267,69
368,39	1249,26
368,60	1320,94
368,81	1255,40
369,02	1300,46
369,23	1253,36
369,44	1279,98
369,65	1263,60
369,86	1259,50
370,07	1304,56
370,28	1234,93
370,49	1255,40
370,70	1288,17
370,91	1243,12
371,12	1331,18
371,33	1263,60
371,54	1306,60
371,75	1269,74
371,96	1304,56
372,17	1320,94
372,38	1255,40
372,59	1255,40
372,80	1198,06
373,01	1247,21
373,22	1298,41
373,43	1241,07
373,64	1214,45
373,85	1265,64
374,06	1302,51
374,26	1292,27
374,47	1214,45
374,68	1290,22
374,89	1304,56
375,10	1290,22
375,31	1257,45
375,52	1292,27
375,73	1263,60
375,94	1202,16
376,15	1282,03
376,36	1236,97
376,57	1284,08
376,78	1255,40
376,99	1230,83
377,20	1368,04
377,40	1310,70
377,61	1331,18
377,82	1331,18
378,03	1218,54
378,24	1265,64
378,45	1310,70
378,66	1251,31
378,87	1257,45
379,08	1245,16
379,29	1208,30
379,50	1232,88
379,71	1214,45
379,91	1325,04
380,12	1122,29
380,33	1222,64
380,54	1282,03
380,75	1316,84
380,96	1306,60
381,17	1216,49
381,38	1290,22
381,59	1314,80
381,80	1204,21
382,00	1304,56
382,21	1230,83
382,42	1308,65
382,63	1282,03
382,84	1298,41
383,05	1267,69
383,26	1241,07
383,47	1230,83
383,68	1288,17
383,88	1261,55
384,09	1306,60
384,30	1306,60
384,51	1261,55
384,72	1239,02
384,93	1253,36
385,14	1200,11
385,35	1316,84
385,55	1320,94
385,76	1300,46
385,97	1212,40
386,18	1224,69
386,39	1279,98
386,60	1275,88
386,81	1253,36
387,02	1345,52
387,22	1310,70
387,43	1314,80
387,64	1208,30
387,85	1277,93
388,06	1269,74
388,27	1286,12
388,48	1275,88
388,68	1236,97
388,89	1222,64
389,10	1327,08
389,31	1312,75
389,52	1257,45
389,73	1269,74
389,93	1249,26
390,14	1308,65
390,35	1234,93
390,56	1224,69
390,77	1208,30
390,98	1290,22
391,18	1273,84
391,39	1255,40
391,60	1265,64
391,81	1282,03
392,02	1347,56
392,23	1308,65
392,43	1263,60
392,64	1243,12
392,85	1310,70
393,06	1218,54
393,27	1267,69
393,47	1277,93
393,68	1302,51
393,89	1245,16
394,10	1304,56
394,31	1279,98
394,52	1253,36
394,72	1257,45
394,93	1304,56
395,14	1208,30
395,35	1185,77
395,56	1214,45
395,76	1294,32
395,97	1308,65
396,18	1200,11
396,39	1241,07
396,60	1329,13
396,80	1306,60
397,01	1337,32
397,22	1286,12
397,43	1251,31
397,64	1200,11
397,84	1265,64
398,05	1210,35
398,26	1214,45
398,47	1267,69
398,67	1271,79
398,88	1226,73
399,09	1245,16
399,30	1322,99
399,51	1259,50
399,71	1294,32
399,92	1247,21
400,13	1218,54
400,34	1208,30
400,54	1232,88
400,75	1331,18
400,96	1265,64
401,17	1247,21
401,37	1269,74
401,58	1265,64
401,79	1255,40
402,00	1277,93
402,21	1267,69
402,41	1263,60
402,62	1159,15
402,83	1288,17
403,04	1273,84
403,24	1310,70
403,45	1310,70
403,66	1247,21
403,87	1286,12
404,07	1265,64
404,28	1253,36
404,49	1220,59
404,70	1255,40
404,90	1206,25
405,11	1259,50
405,32	1226,73
405,52	1236,97
405,73	1286,12
405,94	1257,45
406,15	1277,93
406,35	1253,36
406,56	1263,60
406,77	1294,32
406,98	1245,16
407,18	1245,16
407,39	1271,79
407,60	1253,36
407,80	1292,27
408,01	1288,17
408,22	1236,97
408,43	1308,65
408,63	1245,16
408,84	1310,70
409,05	1302,51
409,25	1265,64
409,46	1302,51
409,67	1230,83
409,88	1257,45
410,08	1193,97
410,29	1210,35
410,50	1222,64
410,70	1222,64
410,91	1300,46
411,12	1290,22
411,32	1175,53
411,53	1288,17
411,74	1310,70
411,95	1269,74
412,15	1275,88
412,36	1298,41
412,57	1210,35
412,77	1263,60
412,98	1230,83
413,19	1406,95
413,39	1300,46
413,60	1304,56
413,81	1277,93
414,01	1279,98
414,22	1277,93
414,43	1206,25
414,63	1255,40
414,84	1261,55
415,05	1275,88
415,25	1234,93
415,46	1279,98
415,67	1271,79
415,87	1302,51
416,08	1269,74
416,29	1302,51
416,49	1279,98
416,70	1275,88
416,91	1292,27
417,11	1273,84
417,32	1310,70
417,53	1298,41
417,73	1273,84
417,94	1245,16
418,15	1171,44
418,35	1306,60
418,56	1282,03
418,77	1241,07
418,97	1298,41
419,18	1312,75
419,38	1212,40
419,59	1230,83
419,80	1245,16
420,00	1296,36
420,21	1232,88
420,42	1251,31
420,62	1230,83
420,83	1277,93
421,04	1279,98
421,24	1249,26
421,45	1245,16
421,65	1253,36
421,86	1318,89
422,07	1322,99
422,27	1282,03
422,48	1196,01
422,69	1249,26
422,89	1314,80
423,10	1271,79
423,30	1243,12
423,51	1228,78
423,72	1226,73
423,92	1286,12
424,13	1296,36
424,33	1304,56
424,54	1292,27
424,75	1345,52
424,95	1286,12
425,16	1275,88
425,36	1259,50
425,57	1220,59
425,78	1279,98
425,98	1302,51
426,19	1308,65
426,39	1351,66
426,60	1327,08
426,81	1292,27
427,01	1318,89
427,22	1279,98
427,42	1267,69
427,63	1261,55
427,83	1286,12
428,04	1239,02
428,25	1204,21
428,45	1247,21
428,66	1300,46
428,86	1284,08
429,07	1351,66
429,28	1308,65
429,48	1286,12
429,69	1288,17
429,89	1257,45
430,10	1251,31
430,30	1251,31
430,51	1187,82
430,71	1247,21
430,92	1331,18
431,13	1253,36
431,33	1372,14
431,54	1271,79
431,74	1216,49
431,95	1275,88
432,15	1359,85
432,36	1265,64
432,56	1351,66
432,77	1288,17
432,98	1263,60
433,18	1275,88
433,39	1230,83
433,59	1210,35
433,80	1263,60
434,00	1222,64
434,21	1286,12
434,41	1234,93
434,62	1306,60
434,82	1232,88
435,03	1236,97
435,23	1310,70
435,44	1263,60
435,64	1282,03
435,85	1302,51
436,06	1298,41
436,26	1255,40
436,47	1243,12
436,67	1198,06
436,88	1288,17
437,08	1271,79
437,29	1218,54
437,49	1269,74
437,70	1279,98
437,90	1224,69
438,11	1275,88
438,31	1261,55
438,52	1296,36
438,72	1243,12
438,93	1306,60
439,13	1239,02
439,34	1320,94
439,54	1339,37
439,75	1314,80
439,95	1265,64
440,16	1298,41
440,36	1292,27
440,57	1230,83
440,77	1277,93
440,98	1316,84
441,18	1314,80
441,39	1232,88
441,59	1241,07
441,80	1325,04
442,00	1261,55
442,21	1318,89
442,41	1327,08
442,62	1224,69
442,82	1222,64
443,02	1259,50
443,23	1261,55
443,43	1232,88
443,64	1277,93
443,84	1316,84
444,05	1249,26
444,25	1265,64
444,46	1282,03
444,66	1257,45
444,87	1296,36
445,07	1298,41
445,28	1271,79
445,48	1284,08
445,69	1331,18
445,89	1288,17
446,09	1335,28
446,30	1284,08
446,50	1230,83
446,71	1271,79
446,91	1257,45
447,12	1277,93
447,32	1265,64
447,53	1232,88
447,73	1222,64
447,93	1208,30
448,14	1249,26
448,34	1267,69
448,55	1288,17
448,75	1298,41
448,96	1320,94
449,16	1212,40
449,36	1228,78
449,57	1327,08
449,77	1247,21
449,98	1310,70
450,18	1249,26
450,39	1230,83
450,59	1282,03
450,79	1318,89
451,00	1298,41
451,20	1267,69
451,41	1230,83
451,61	1261,55
451,81	1261,55
452,02	1263,60
452,22	1316,84
452,43	1218,54
452,63	1241,07
452,84	1265,64
453,04	1249,26
453,24	1337,32
453,45	1286,12
453,65	1304,56
453,86	1253,36
454,06	1265,64
454,26	1241,07
454,47	1261,55
454,67	1331,18
454,87	1310,70
455,08	1189,87
455,28	1236,97
455,49	1245,16
455,69	1265,64
455,89	1296,36
456,10	1290,22
456,30	1294,32
456,51	1267,69
456,71	1339,37
456,91	1206,25
457,12	1222,64
457,32	1224,69
457,52	1228,78
457,73	1228,78
457,93	1327,08
458,14	1325,04
458,34	1271,79
458,54	1251,31
458,75	1255,40
458,95	1275,88
459,15	1263,60
459,36	1310,70
459,56	1298,41
459,76	1282,03
459,97	1214,45
460,17	1263,60
460,37	1261,55
460,58	1245,16
460,78	1208,30
460,99	1310,70
461,19	1257,45
461,39	1298,41
461,60	1255,40
461,80	1310,70
462,00	1202,16
462,21	1228,78
462,41	1261,55
462,61	1310,70
462,82	1296,36
463,02	1249,26
463,22	1273,84
463,43	1232,88
463,63	1316,84
463,83	1269,74
464,04	1288,17
464,24	1167,34
464,44	1312,75
464,64	1253,36
464,85	1210,35
465,05	1255,40
465,25	1232,88
465,46	1271,79
465,66	1196,01
465,86	1253,36
466,07	1224,69
466,27	1298,41
466,47	1282,03
466,68	1296,36
466,88	1292,27
467,08	1245,16
467,29	1345,52
467,49	1275,88
467,69	1253,36
467,89	1298,41
468,10	1255,40
468,30	1265,64
468,50	1333,23
468,71	1286,12
468,91	1290,22
469,11	1312,75
469,31	1273,84
469,52	1218,54
469,72	1333,23
469,92	1269,74
470,13	1259,50
470,33	1288,17
470,53	1224,69
470,73	1296,36
470,94	1343,47
471,14	1292,27
471,34	1222,64
471,54	1247,21
471,75	1320,94
471,95	1275,88
472,15	1275,88
472,36	1310,70
472,56	1296,36
472,76	1331,18
472,96	1263,60
473,17	1302,51
473,37	1284,08
473,57	1222,64
473,77	1302,51
473,98	1318,89
474,18	1187,82
474,38	1220,59
474,58	1251,31
474,79	1275,88
474,99	1228,78
475,19	1292,27
475,39	1230,83
475,60	1255,40
475,80	1357,80
476,00	1316,84
476,20	1255,40
476,41	1275,88
476,61	1271,79
476,81	1265,64
477,01	1273,84
477,21	1259,50
477,42	1308,65
477,62	1253,36
477,82	1247,21
478,02	1275,88
478,23	1308,65
478,43	1288,17
478,63	1284,08
478,83	1167,34
479,03	1232,88
479,24	1222,64
479,44	1288,17
479,64	1294,32
479,84	1200,11
480,04	1253,36
480,25	1308,65
480,45	1167,34
480,65	1314,80
480,85	1247,21
481,06	1257,45
481,26	1378,28
481,46	1247,21
481,66	1349,61
481,86	1239,02
482,06	1259,50
482,27	1222,64
482,47	1222,64
482,67	1167,34
482,87	1290,22
483,07	1263,60
483,28	1284,08
483,48	1259,50
483,68	1230,83
483,88	1279,98
484,08	1271,79
484,29	1310,70
484,49	1234,93
484,69	1259,50
484,89	1345,52
485,09	1294,32
485,29	1226,73
485,50	1343,47
485,70	1226,73
485,90	1206,25
486,10	1294,32
486,30	1310,70
486,50	1189,87
486,71	1255,40
486,91	1257,45
487,11	1279,98
487,31	1284,08
487,51	1302,51
487,71	1322,99
487,91	1257,45
488,12	1286,12
488,32	1249,26
488,52	1320,94
488,72	1269,74
488,92	1265,64
489,12	1314,80
489,32	1333,23
489,53	1292,27
489,73	1257,45
489,93	1306,60
490,13	1189,87
490,33	1267,69
490,53	1275,88
490,73	1183,73
490,94	1296,36
491,14	1275,88
491,34	1249,26
491,54	1234,93
491,74	1259,50
491,94	1224,69
492,14	1335,28
492,34	1296,36
492,54	1292,27
492,75	1263,60
492,95	1257,45
493,15	1271,79
493,35	1241,07
493,55	1288,17
493,75	1318,89
493,95	1255,40
494,15	1271,79
494,35	1249,26
494,56	1202,16
494,76	1247,21
494,96	1290,22
495,16	1298,41
495,36	1214,45
495,56	1310,70
495,76	1349,61
495,96	1210,35
496,16	1230,83
496,36	1196,01
496,56	1216,49
496,77	1294,32
496,97	1196,01
497,17	1265,64
497,37	1255,40
497,57	1245,16
497,77	1277,93
497,97	1249,26
498,17	1222,64
498,37	1253,36
498,57	1294,32
498,77	1329,13
498,97	1191,92
499,17	1288,17
499,38	1312,75
499,58	1288,17
499,78	1284,08
499,98	1277,93
500,18	1290,22
500,38	1253,36
500,58	1341,42
500,78	1273,84
500,98	1236,97
501,18	1353,71
501,38	1241,07
501,58	1288,17
501,78	1304,56
501,98	1263,60
502,18	1337,32
502,38	1290,22
502,58	1265,64
502,78	1236,97
502,98	1261,55
503,18	1271,79
503,38	1286,12
503,59	1216,49
503,79	1267,69
503,99	1314,80
504,19	1257,45
504,39	1220,59
504,59	1288,17
504,79	1232,88
504,99	1269,74
505,19	1294,32
505,39	1335,28
505,59	1224,69
505,79	1292,27
505,99	1257,45
506,19	1251,31
506,39	1269,74
506,59	1310,70
506,79	1269,74
506,99	1224,69
507,19	1265,64
507,39	1183,73
507,59	1316,84
507,79	1277,93
507,99	1259,50
508,19	1277,93
508,39	1288,17
508,59	1253,36
508,79	1322,99
508,99	1296,36
509,19	1259,50
509,39	1314,80
509,59	1314,80
509,79	1247,21
509,99	1316,84
510,19	1343,47
510,39	1343,47
510,59	1304,56
510,79	1198,06
510,99	1253,36
511,19	1259,50
511,39	1236,97
511,59	1222,64
511,79	1226,73
511,99	1218,54
512,19	1320,94
512,38	1314,80
512,58	1253,36
512,78	1249,26
512,98	1265,64
513,18	1327,08
513,38	1187,82
513,58	1284,08
513,78	1269,74
513,98	1241,07
514,18	1275,88
514,38	1343,47
514,58	1271,79
514,78	1275,88
514,98	1230,83
515,18	1306,60
515,38	1294,32
515,58	1243,12
515,78	1275,88
515,98	1353,71
516,18	1196,01
516,38	1351,66
516,57	1263,60
516,77	1236,97
516,97	1251,31
517,17	1312,75
517,37	1296,36
517,57	1249,26
517,77	1290,22
517,97	1282,03
518,17	1257,45
518,37	1302,51
518,57	1294,32
518,77	1275,88
518,97	1282,03
519,16	1351,66
519,36	1322,99
519,56	1230,83
519,76	1298,41
519,96	1296,36
520,16	1298,41
520,36	1255,40
520,56	1257,45
520,76	1329,13
520,96	1257,45
521,16	1298,41
521,35	1322,99
521,55	1302,51
521,75	1236,97
521,95	1341,42
522,15	1245,16
522,35	1255,40
522,55	1232,88
522,75	1325,04
522,95	1286,12
523,14	1273,84
523,34	1269,74
523,54	1279,98
523,74	1290,22
523,94	1257,45
524,14	1269,74
524,34	1294,32
524,54	1341,42
524,73	1269,74
524,93	1320,94
525,13	1284,08
525,33	1210,35
525,53	1318,89
525,73	1269,74
525,93	1191,92
526,13	1236,97
526,32	1210,35
526,52	1312,75
526,72	1320,94
526,92	1265,64
527,12	1345,52
527,32	1306,60
527,52	1312,75
527,71	1302,51
527,91	1294,32
528,11	1310,70
528,31	1304,56
528,51	1310,70
528,71	1282,03
528,90	1198,06
529,10	1286,12
529,30	1273,84
529,50	1232,88
529,70	1220,59
529,90	1249,26
530,09	1273,84
530,29	1239,02
530,49	1290,22
530,69	1263,60
530,89	1204,21
531,09	1255,40
531,28	1314,80
531,48	1261,55
531,68	1218,54
531,88	1322,99
532,08	1265,64
532,28	1249,26
532,47	1273,84
532,67	1308,65
532,87	1228,78
533,07	1257,45
533,27	1269,74
533,46	1273,84
533,66	1220,59
533,86	1249,26
534,06	1218,54
534,26	1263,60
534,45	1298,41
534,65	1329,13
534,85	1241,07
535,05	1239,02
535,25	1255,40
535,44	1263,60
535,64	1257,45
535,84	1306,60
536,04	1222,64
536,24	1312,75
536,43	1257,45
536,63	1282,03
536,83	1316,84
537,03	1298,41
537,22	1261,55
537,42	1331,18
537,62	1282,03
537,82	1318,89
538,02	1277,93
538,21	1249,26
538,41	1347,56
538,61	1253,36
538,81	1226,73
539,00	1286,12
539,20	1271,79
539,40	1241,07
539,60	1292,27
539,79	1218,54
539,99	1282,03
540,19	1259,50
540,39	1212,40
540,58	1265,64
540,78	1249,26
540,98	1226,73
541,18	1226,73
541,37	1288,17
541,57	1353,71
541,77	1284,08
541,97	1298,41
542,16	1282,03
542,36	1275,88
542,56	1312,75
542,76	1282,03
542,95	1275,88
543,15	1243,12
543,35	1294,32
543,54	1271,79
543,74	1308,65
543,94	1267,69
544,14	1265,64
544,33	1245,16
544,53	1339,37
544,73	1304,56
544,93	1294,32
545,12	1265,64
545,32	1314,80
545,52	1325,04
545,71	1314,80
545,91	1247,21
546,11	1284,08
546,30	1263,60
546,50	1310,70
546,70	1275,88
546,90	1241,07
547,09	1296,36
547,29	1173,49
547,49	1277,93
547,68	1165,29
547,88	1230,83
548,08	1241,07
548,27	1351,66
548,47	1173,49
548,67	1318,89
548,87	1271,79
549,06	1298,41
549,26	1230,83
549,46	1263,60
549,65	1298,41
549,85	1298,41
550,05	1228,78
550,24	1267,69
550,44	1378,28
550,64	1253,36
550,83	1243,12
551,03	1247,21
551,23	1322,99
551,42	1277,93
551,62	1259,50
551,82	1232,88
552,01	1241,07
552,21	1312,75
552,41	1279,98
552,60	1220,59
552,80	1284,08
553,00	1351,66
553,19	1275,88
553,39	1298,41
553,59	1310,70
553,78	1325,04
553,98	1245,16
554,17	1245,16
554,37	1275,88
554,57	1263,60
554,76	1282,03
554,96	1290,22
555,16	1253,36
555,35	1275,88
555,55	1234,93
555,75	1282,03
555,94	1259,50
556,14	1275,88
556,33	1236,97
556,53	1322,99
556,73	1306,60
556,92	1249,26
557,12	1298,41
557,32	1236,97
557,51	1277,93
557,71	1236,97
557,90	1275,88
558,10	1228,78
558,30	1230,83
558,49	1271,79
558,69	1286,12
558,88	1294,32
559,08	1267,69
559,28	1298,41
559,47	1216,49
559,67	1277,93
559,86	1187,82
560,06	1286,12
560,26	1296,36
560,45	1347,56
560,65	1279,98
560,84	1249,26
561,04	1306,60
561,24	1241,07
561,43	1222,64
561,63	1239,02
561,82	1306,60
562,02	1271,79
562,22	1277,93
562,41	1191,92
562,61	1290,22
562,80	1198,06
563,00	1222,64
563,19	1304,56
563,39	1210,35
563,59	1257,45
563,78	1263,60
563,98	1232,88
564,17	1300,46
564,37	1263,60
564,56	1220,59
564,76	1284,08
564,96	1273,84
565,15	1284,08
565,35	1304,56
565,54	1146,86
565,74	1230,83
565,93	1247,21
566,13	1312,75
566,32	1277,93
566,52	1214,45
566,71	1230,83
566,91	1255,40
567,11	1220,59
567,30	1259,50
567,50	1286,12
567,69	1251,31
567,89	1208,30
568,08	1239,02
568,28	1310,70
568,47	1224,69
568,67	1286,12
568,86	1239,02
569,06	1282,03
569,25	1273,84
569,45	1200,11
569,64	1329,13
569,84	1239,02
570,04	1239,02
570,23	1286,12
570,43	1269,74
570,62	1273,84
570,82	1296,36
571,01	1253,36
571,21	1294,32
571,40	1275,88
571,60	1357,80
571,79	1314,80
571,99	1279,98
572,18	1304,56
572,38	1271,79
572,57	1234,93
572,77	1249,26
572,96	1282,03
573,16	1251,31
573,35	1245,16
573,55	1284,08
573,74	1279,98
573,94	1259,50
574,13	1275,88
574,33	1277,93
574,52	1253,36
574,71	1304,56
574,91	1288,17
575,10	1271,79
575,30	1251,31
575,49	1300,46
575,69	1259,50
575,88	1261,55
576,08	1282,03
576,27	1320,94
576,47	1308,65
576,66	1325,04
576,86	1224,69
577,05	1261,55
577,25	1220,59
577,44	1314,80
577,64	1249,26
577,83	1265,64
578,02	1245,16
578,22	1279,98
578,41	1335,28
578,61	1257,45
578,80	1357,80
579,00	1292,27
579,19	1230,83
579,39	1249,26
579,58	1196,01
579,77	1275,88
579,97	1236,97
580,16	1263,60
580,36	1310,70
580,55	1257,45
580,75	1269,74
580,94	1226,73
581,13	1253,36
581,33	1294,32
581,52	1247,21
581,72	1279,98
581,91	1320,94
582,11	1267,69
582,30	1284,08
582,49	1337,32
582,69	1296,36
582,88	1245,16
583,08	1218,54
583,27	1314,80
583,47	1271,79
583,66	1198,06
583,85	1245,16
584,05	1275,88
584,24	1267,69
584,44	1273,84
584,63	1296,36
584,82	1312,75
585,02	1224,69
585,21	1271,79
585,41	1259,50
585,60	1220,59
585,79	1259,50
585,99	1290,22
586,18	1267,69
586,37	1341,42
586,57	1382,38
586,76	1255,40
586,96	1220,59
587,15	1284,08
587,34	1232,88
587,54	1259,50
587,73	1345,52
587,93	1306,60
588,12	1347,56
588,31	1271,79
588,51	1269,74
588,70	1214,45
588,89	1224,69
589,09	1302,51
589,28	1216,49
589,47	1271,79
589,67	1279,98
589,86	1224,69
590,06	1284,08
590,25	1275,88
590,44	1288,17
590,64	1224,69
590,83	1234,93
591,02	1196,01
591,22	1222,64
591,41	1255,40
591,60	1243,12
591,80	1249,26
591,99	1251,31
592,18	1271,79
592,38	1228,78
592,57	1241,07
592,76	1247,21
592,96	1273,84
593,15	1316,84
593,34	1298,41
593,54	1318,89
593,73	1230,83
593,92	1222,64
594,12	1247,21
594,31	1224,69
594,50	1249,26
594,70	1204,21
594,89	1208,30
595,08	1320,94
595,28	1263,60
595,47	1300,46
595,66	1282,03
595,86	1259,50
596,05	1296,36
596,24	1286,12
596,43	1318,89
596,63	1282,03
596,82	1331,18
597,01	1253,36
597,21	1263,60
597,40	1300,46
597,59	1347,56
597,79	1259,50
597,98	1284,08
598,17	1204,21
598,36	1257,45
598,56	1286,12
598,75	1187,82
598,94	1222,64
599,14	1273,84
599,33	1251,31
599,52	1275,88
599,71	1232,88
599,91	1306,60
600,10	1175,53
600,29	1216,49
600,48	1226,73
600,68	1212,40
600,87	1249,26
601,06	1269,74
601,26	1277,93
601,45	1279,98
601,64	1290,22
601,83	1206,25
602,03	1263,60
602,22	1302,51
602,41	1224,69
602,60	1277,93
602,80	1255,40
602,99	1253,36
603,18	1279,98
603,37	1212,40
603,57	1243,12
603,76	1257,45
603,95	1200,11
604,14	1273,84
604,34	1288,17
604,53	1347,56
604,72	1253,36
604,91	1239,02
605,10	1202,16
605,30	1296,36
605,49	1267,69
605,68	1306,60
605,87	1228,78
606,07	1306,60
606,26	1271,79
606,45	1312,75
606,64	1277,93
606,84	1228,78
607,03	1261,55
607,22	1279,98
607,41	1243,12
607,60	1306,60
607,80	1228,78
607,99	1312,75
608,18	1249,26
608,37	1286,12
608,56	1230,83
608,76	1273,84
608,95	1261,55
609,14	1239,02
609,33	1265,64
609,52	1314,80
609,72	1271,79
609,91	1304,56
610,10	1228,78
610,29	1298,41
610,48	1243,12
610,68	1224,69
610,87	1296,36
611,06	1253,36
611,25	1290,22
611,44	1294,32
611,63	1200,11
611,83	1232,88
612,02	1308,65
612,21	1279,98
612,40	1275,88
612,59	1282,03
612,79	1253,36
612,98	1236,97
613,17	1255,40
613,36	1318,89
613,55	1273,84
613,74	1265,64
613,93	1255,40
614,13	1279,98
614,32	1284,08
614,51	1306,60
614,70	1243,12
614,89	1298,41
615,08	1210,35
615,28	1304,56
615,47	1318,89
615,66	1312,75
615,85	1257,45
616,04	1322,99
616,23	1288,17
616,42	1275,88
616,62	1316,84
616,81	1331,18
617,00	1224,69
617,19	1302,51
617,38	1259,50
617,57	1255,40
617,76	1224,69
617,95	1216,49
618,15	1288,17
618,34	1339,37
618,53	1249,26
618,72	1300,46
618,91	1228,78
619,10	1292,27
619,29	1282,03
619,48	1275,88
619,68	1263,60
619,87	1257,45
620,06	1222,64
620,25	1269,74
620,44	1277,93
620,63	1325,04
620,82	1314,80
621,01	1304,56
621,20	1234,93
621,39	1226,73
621,59	1335,28
621,78	1239,02
621,97	1261,55
622,16	1220,59
622,35	1249,26
622,54	1296,36
622,73	1263,60
622,92	1224,69
623,11	1277,93
623,30	1296,36
623,49	1302,51
623,68	1294,32
623,88	1322,99
624,07	1206,25
624,26	1255,40
624,45	1249,26
624,64	1251,31
624,83	1206,25
625,02	1257,45
625,21	1271,79
625,40	1239,02
625,59	1337,32
625,78	1269,74
625,97	1249,26
626,16	1282,03
626,35	1333,23
626,54	1279,98
626,74	1290,22
626,93	1243,12
627,12	1300,46
627,31	1372,14
627,50	1310,70
627,69	1300,46
627,88	1265,64
628,07	1327,08
628,26	1304,56
628,45	1241,07
628,64	1245,16
628,83	1279,98
629,02	1288,17
629,21	1275,88
629,40	1359,85
629,59	1322,99
629,78	1314,80
629,97	1255,40
630,16	1341,42
630,35	1290,22
630,54	1214,45
630,73	1322,99
630,92	1290,22
631,11	1273,84
631,30	1353,71
631,49	1265,64
631,68	1300,46
631,87	1380,33
632,06	1474,54
632,25	1390,57
632,44	1372,14
632,63	1421,29
632,82	1437,67
633,01	1427,43
633,20	1390,57
633,39	1429,48
633,58	1374,19
633,77	1359,85
633,96	1468,39
634,15	1531,88
634,34	1927,14
634,53	2398,17
634,72	1798,12
634,91	1445,87
635,10	1628,14
635,29	2052,06
635,48	2502,62
635,67	2527,19
635,86	2260,96
636,05	2013,15
636,24	1638,38
636,43	1556,46
636,62	1470,44
636,81	1355,76
637,00	1370,09
637,19	1425,39
637,38	1359,85
637,57	1308,65
637,76	1411,05
637,95	1277,93
638,14	1271,79
638,33	1331,18
638,52	1292,27
638,71	1249,26
638,89	1314,80
639,08	1320,94
639,27	1329,13
639,46	1265,64
639,65	1290,22
639,84	1296,36
640,03	1234,93
640,22	1239,02
640,41	1318,89
640,60	1228,78
640,79	1294,32
640,98	1273,84
641,17	1306,60
641,36	1271,79
641,55	1302,51
641,74	1257,45
641,92	1218,54
642,11	1241,07
642,30	1292,27
642,49	1241,07
642,68	1239,02
642,87	1284,08
643,06	1279,98
643,25	1347,56
643,44	1253,36
643,63	1290,22
643,82	1279,98
644,00	1304,56
644,19	1304,56
644,38	1230,83
644,57	1343,47
644,76	1239,02
644,95	1216,49
645,14	1239,02
645,33	1198,06
645,52	1230,83
645,71	1292,27
645,89	1265,64
646,08	1294,32
646,27	1253,36
646,46	1236,97
646,65	1206,25
646,84	1345,52
647,03	1226,73
647,22	1320,94
647,40	1314,80
647,59	1366,00
647,78	1322,99
647,97	1267,69
648,16	1251,31
648,35	1288,17
648,54	1308,65
648,73	1206,25
648,91	1325,04
649,10	1304,56
649,29	1298,41
649,48	1232,88
649,67	1234,93
649,86	1288,17
650,05	1302,51
650,23	1224,69
650,42	1257,45
650,61	1329,13
650,80	1322,99
650,99	1189,87
651,18	1245,16
651,36	1318,89
651,55	1329,13
651,74	1335,28
651,93	1302,51
652,12	1271,79
652,31	1251,31
652,49	1218,54
652,68	1302,51
652,87	1218,54
653,06	1318,89
653,25	1288,17
653,44	1169,39
653,62	1286,12
653,81	1351,66
654,00	1269,74
654,19	1306,60
654,38	1269,74
654,56	1345,52
654,75	1193,97
654,94	1345,52
655,13	1277,93
655,32	1245,16
655,51	1306,60
655,69	1343,47
655,88	1249,26
656,07	1202,16
656,26	1312,75
656,45	1241,07
656,63	1269,74
656,82	1251,31
657,01	1263,60
657,20	1286,12
657,38	1255,40
657,57	1275,88
657,76	1298,41
657,95	1318,89
658,14	1284,08
658,32	1261,55
658,51	1308,65
658,70	1288,17
658,89	1347,56
659,08	1269,74
659,26	1286,12
659,45	1284,08
659,64	1298,41
659,83	1292,27
660,01	1269,74
660,20	1279,98
660,39	1255,40
660,58	1245,16
660,76	1271,79
660,95	1331,18
661,14	1296,36
661,33	1228,78
661,51	1288,17
661,70	1255,40
661,89	1208,30
662,08	1214,45
662,26	1263,60
662,45	1232,88
662,64	1234,93
662,83	1241,07
663,01	1345,52
663,20	1183,73
663,39	1216,49
663,58	1261,55
663,76	1327,08
663,95	1224,69
664,14	1259,50
664,32	1292,27
664,51	1220,59
664,70	1286,12
664,89	1241,07
665,07	1269,74
665,26	1284,08
665,45	1298,41
665,64	1273,84
665,82	1198,06
666,01	1294,32
666,20	1298,41
666,38	1284,08
666,57	1296,36
666,76	1271,79
666,95	1277,93
667,13	1284,08
667,32	1204,21
667,51	1349,61
667,69	1322,99
667,88	1275,88
668,07	1277,93
668,25	1286,12
668,44	1257,45
668,63	1314,80
668,81	1216,49
669,00	1251,31
669,19	1306,60
669,38	1343,47
669,56	1298,41
669,75	1189,87
669,94	1279,98
670,12	1236,97
670,31	1263,60
670,50	1304,56
670,68	1259,50
670,87	1269,74
671,06	1269,74
671,24	1337,32
671,43	1310,70
671,62	1245,16
671,80	1296,36
671,99	1273,84
672,18	1265,64
672,36	1277,93
672,55	1234,93
672,74	1327,08
672,92	1310,70
673,11	1310,70
673,29	1275,88
673,48	1253,36
673,67	1329,13
673,85	1304,56
674,04	1282,03
674,23	1286,12
674,41	1288,17
674,60	1314,80
674,79	1275,88
674,97	1222,64
675,16	1267,69
675,34	1312,75
675,53	1302,51
675,72	1284,08
675,90	1273,84
676,09	1273,84
676,28	1210,35
676,46	1204,21
676,65	1261,55
676,83	1304,56
677,02	1181,68
677,21	1257,45
677,39	1267,69
677,58	1314,80
677,77	1339,37
677,95	1320,94
678,14	1322,99
678,32	1198,06
678,51	1253,36
678,70	1265,64
678,88	1230,83
679,07	1249,26
679,25	1255,40
679,44	1327,08
679,63	1259,50
679,81	1220,59
680,00	1234,93
680,18	1286,12
680,37	1218,54
680,55	1318,89
680,74	1310,70
680,93	1255,40
681,11	1290,22
681,30	1339,37
681,48	1261,55
681,67	1322,99
681,85	1325,04
682,04	1282,03
682,23	1259,50
682,41	1314,80
682,60	1253,36
682,78	1202,16
682,97	1312,75
683,15	1298,41
683,34	1282,03
683,53	1232,88
683,71	1261,55
683,90	1273,84
684,08	1177,58
684,27	1286,12
684,45	1329,13
684,64	1310,70
684,82	1341,42
685,01	1239,02
685,19	1298,41
685,38	1255,40
685,57	1247,21
685,75	1296,36
685,94	1308,65
686,12	1230,83
686,31	1251,31
686,49	1329,13
686,68	1232,88
686,86	1279,98
687,05	1249,26
687,23	1396,71
687,42	1200,11
687,60	1308,65
687,79	1282,03
687,97	1306,60
688,16	1218,54
688,34	1271,79
688,53	1224,69
688,71	1249,26
688,90	1267,69
689,08	1290,22
689,27	1236,97
689,45	1271,79
689,64	1212,40
689,82	1267,69
690,01	1179,63
690,19	1241,07
690,38	1232,88
690,56	1253,36
690,75	1247,21
690,93	1253,36
691,12	1228,78
691,30	1339,37
691,49	1325,04
691,67	1259,50
691,86	1314,80
692,04	1245,16
692,23	1286,12
692,41	1234,93
692,60	1263,60
692,78	1236,97
692,97	1251,31
693,15	1269,74
693,34	1245,16
693,52	1286,12
693,71	1265,64
693,89	1249,26
694,08	1236,97
694,26	1234,93
694,44	1251,31
694,63	1228,78
694,81	1261,55
695,00	1302,51
695,18	1288,17
695,37	1294,32
695,55	1267,69
695,74	1292,27
695,92	1222,64
696,10	1271,79
696,29	1341,42
696,47	1292,27
696,66	1247,21
696,84	1245,16
697,03	1193,97
697,21	1249,26
697,40	1325,04
697,58	1236,97
697,76	1286,12
697,95	1273,84
698,13	1273,84
698,32	1241,07
698,50	1243,12
698,68	1288,17
698,87	1331,18
699,05	1282,03
699,24	1320,94
699,42	1255,40
699,61	1247,21
699,79	1241,07
699,97	1337,32
700,16	1257,45
700,34	1320,94
700,53	1288,17
700,71	1294,32
700,89	1232,88
701,08	1284,08
701,26	1265,64
701,45	1306,60
701,63	1245,16
701,81	1279,98
702,00	1261,55
702,18	1261,55
702,37	1261,55
702,55	1271,79
702,73	1216,49
702,92	1298,41
703,10	1251,31
703,28	1273,84
703,47	1306,60
703,65	1273,84
703,84	1255,40
704,02	1265,64
704,20	1349,61
704,39	1279,98
704,57	1222,64
704,75	1282,03
704,94	1224,69
705,12	1337,32
705,30	1318,89
705,49	1251,31
705,67	1271,79
705,86	1279,98
706,04	1298,41
706,22	1279,98
706,41	1277,93
706,59	1312,75
706,77	1288,17
706,96	1318,89
707,14	1253,36
707,32	1353,71
707,51	1312,75
707,69	1261,55
707,87	1304,56
708,06	1378,28
708,24	1318,89
708,42	1294,32
708,61	1282,03
708,79	1288,17
708,97	1189,87
709,16	1366,00
709,34	1325,04
709,52	1314,80
709,71	1269,74
709,89	1294,32
710,07	1218,54
710,26	1294,32
710,44	1271,79
710,62	1234,93
710,80	1265,64
710,99	1249,26
711,17	1282,03
711,35	1271,79
711,54	1228,78
711,72	1304,56
711,90	1325,04
712,09	1302,51
712,27	1263,60
712,45	1263,60
712,63	1341,42
712,82	1312,75
713,00	1331,18
713,18	1310,70
713,37	1232,88
713,55	1259,50
713,73	1275,88
713,91	1224,69
714,10	1257,45
714,28	1286,12
714,46	1355,76
714,65	1247,21
714,83	1275,88
715,01	1243,12
715,19	1279,98
715,38	1316,84
715,56	1267,69
715,74	1255,40
715,92	1322,99
716,11	1245,16
716,29	1267,69
716,47	1243,12
716,65	1206,25
716,84	1228,78
717,02	1329,13
717,20	1251,31
717,38	1204,21
717,57	1245,16
717,75	1329,13
717,93	1298,41
718,11	1255,40
718,30	1243,12
718,48	1298,41
718,66	1275,88
718,84	1290,22
719,03	1277,93
719,21	1232,88
719,39	1222,64
719,57	1279,98
719,75	1232,88
719,94	1175,53
720,12	1339,37
720,30	1255,40
720,48	1275,88
720,67	1322,99
720,85	1241,07
721,03	1255,40
721,21	1302,51
721,39	1279,98
721,58	1202,16
721,76	1322,99
721,94	1214,45
722,12	1251,31
722,30	1279,98
722,49	1286,12
722,67	1341,42
722,85	1286,12
723,03	1308,65
723,21	1314,80
723,40	1243,12
723,58	1259,50
723,76	1232,88
723,94	1261,55
724,12	1322,99
724,30	1269,74
724,49	1255,40
724,67	1282,03
724,85	1234,93
725,03	1253,36
725,21	1212,40
725,40	1259,50
725,58	1296,36
725,76	1290,22
725,94	1277,93
726,12	1318,89
726,30	1243,12
726,49	1210,35
726,67	1300,46
726,85	1331,18
727,03	1279,98
727,21	1251,31
727,39	1185,77
727,57	1292,27
727,76	1290,22
727,94	1212,40
728,12	1243,12
728,30	1275,88
728,48	1310,70
728,66	1265,64
728,84	1236,97
729,03	1255,40
729,21	1267,69
729,39	1292,27
729,57	1322,99
729,75	1269,74
729,93	1322,99
730,11	1298,41
730,30	1224,69
730,48	1212,40
730,66	1302,51
730,84	1298,41
731,02	1241,07
731,20	1245,16
731,38	1296,36
731,56	1300,46
731,74	1273,84
731,93	1245,16
732,11	1200,11
732,29	1279,98
732,47	1269,74
732,65	1296,36
732,83	1269,74
733,01	1206,25
733,19	1277,93
733,37	1230,83
733,56	1234,93
733,74	1366,00
733,92	1234,93
734,10	1298,41
734,28	1255,40
734,46	1228,78
734,64	1347,56
734,82	1284,08
735,00	1292,27
735,18	1255,40
735,36	1306,60
735,54	1288,17
735,73	1312,75
735,91	1275,88
736,09	1263,60
736,27	1247,21
736,45	1312,75
736,63	1255,40
736,81	1243,12
736,99	1247,21
737,17	1322,99
737,35	1290,22
737,53	1255,40
737,71	1320,94
737,89	1265,64
738,07	1273,84
738,25	1214,45
738,43	1298,41
738,61	1290,22
738,80	1236,97
738,98	1251,31
739,16	1261,55
739,34	1261,55
739,52	1308,65
739,70	1257,45
739,88	1282,03
740,06	1245,16
740,24	1189,87
740,42	1261,55
740,60	1245,16
740,78	1253,36
740,96	1322,99
741,14	1279,98
741,32	1226,73
741,50	1206,25
741,68	1263,60
741,86	1273,84
742,04	1200,11
742,22	1335,28
742,40	1267,69
742,58	1220,59
742,76	1288,17
742,94	1243,12
743,12	1214,45
743,30	1257,45
743,48	1314,80
743,66	1267,69
743,84	1247,21
744,02	1218,54
744,20	1255,40
744,38	1277,93
744,56	1245,16
744,74	1198,06
744,92	1273,84
745,10	1249,26
745,28	1312,75
745,46	1314,80
745,64	1228,78
745,82	1234,93
746,00	1273,84
746,18	1290,22
746,36	1302,51
746,54	1327,08
746,72	1306,60
746,90	1355,76
747,08	1222,64
747,26	1208,30
747,44	1300,46
747,62	1288,17
747,80	1304,56
747,98	1198,06
748,15	1241,07
748,33	1275,88
748,51	1419,24
748,69	1257,45
748,87	1249,26
749,05	1374,19
749,23	1290,22
749,41	1249,26
749,59	1247,21
749,77	1243,12
749,95	1236,97
750,13	1300,46
750,31	1241,07
750,49	1243,12
750,67	1265,64
750,85	1261,55
751,03	1273,84
751,20	1277,93
751,38	1279,98
751,56	1271,79
751,74	1279,98
751,92	1273,84
752,10	1263,60
752,28	1316,84
752,46	1232,88
752,64	1318,89
752,82	1263,60
753,00	1230,83
753,18	1263,60
753,35	1284,08
753,53	1218,54
753,71	1239,02
753,89	1257,45
754,07	1255,40
754,25	1222,64
754,43	1277,93
754,61	1292,27
754,79	1279,98
754,97	1335,28
755,14	1259,50
755,32	1175,53
755,50	1226,73
755,68	1288,17
755,86	1245,16
756,04	1243,12
756,22	1234,93
756,40	1329,13
756,57	1261,55
756,75	1232,88
756,93	1282,03
757,11	1282,03
757,29	1257,45
757,47	1251,31
757,65	1206,25
757,82	1226,73
758,00	1277,93
758,18	1273,84
758,36	1312,75
758,54	1298,41
758,72	1298,41
758,90	1294,32
759,07	1290,22
759,25	1298,41
759,43	1314,80
759,61	1224,69
759,79	1302,51
759,97	1257,45
760,15	1257,45
760,32	1337,32
760,50	1304,56
760,68	1292,27
760,86	1265,64
761,04	1241,07
761,22	1198,06
761,39	1290,22
761,57	1224,69
761,75	1279,98
761,93	1257,45
762,11	1320,94
762,28	1234,93
762,46	1275,88
762,64	1300,46
762,82	1169,39
763,00	1255,40
763,18	1357,80
763,35	1273,84
763,53	1271,79
763,71	1226,73
763,89	1216,49
764,07	1236,97
764,24	1196,01
764,42	1257,45
764,60	1288,17
764,78	1322,99
764,96	1218,54
765,13	1343,47
765,31	1245,16
765,49	1200,11
765,67	1243,12
765,84	1286,12
766,02	1230,83
766,20	1230,83
766,38	1249,26
766,56	1302,51
766,73	1232,88
766,91	1245,16
767,09	1236,97
767,27	1302,51
767,44	1243,12
767,62	1255,40
767,80	1239,02
767,98	1220,59
768,15	1290,22
768,33	1302,51
768,51	1290,22
768,69	1257,45
768,87	1265,64
769,04	1259,50
769,22	1228,78
769,40	1288,17
769,58	1253,36
769,75	1263,60
769,93	1300,46
770,11	1290,22
770,28	1282,03
770,46	1263,60
770,64	1279,98
770,82	1298,41
770,99	1288,17
771,17	1290,22
771,35	1236,97
771,53	1212,40
771,70	1241,07
771,88	1310,70
772,06	1306,60
772,23	1265,64
772,41	1279,98
772,59	1290,22
772,77	1310,70
772,94	1322,99
773,12	1253,36
773,30	1247,21
773,47	1277,93
773,65	1284,08
773,83	1290,22
774,01	1204,21
774,18	1294,32
774,36	1286,12
774,54	1181,68
774,71	1232,88
774,89	1232,88
775,07	1282,03
775,24	1226,73
775,42	1292,27
775,60	1226,73
775,78	1329,13
775,95	1269,74
776,13	1239,02
776,31	1282,03
776,48	1279,98
776,66	1300,46
776,84	1259,50
777,01	1267,69
777,19	1181,68
777,37	1337,32
777,54	1253,36
777,72	1206,25
777,90	1341,42
778,07	1298,41
778,25	1265,64
778,43	1312,75
778,60	1308,65
778,78	1314,80
778,96	1245,16
779,13	1292,27
779,31	1212,40
779,49	1292,27
779,66	1257,45
779,84	1273,84
780,01	1230,83
780,19	1310,70
780,37	1232,88
780,54	1284,08
780,72	1224,69
780,90	1243,12
781,07	1232,88
781,25	1243,12
781,43	1236,97
781,60	1224,69
781,78	1325,04
781,95	1322,99
782,13	1290,22
782,31	1267,69
782,48	1259,50
782,66	1239,02
782,83	1322,99
783,01	1263,60
783,19	1298,41
783,36	1279,98
783,54	1267,69
783,72	1314,80
783,89	1241,07
784,07	1257,45
784,24	1288,17
784,42	1185,77
784,60	1290,22
784,77	1290,22
784,95	1241,07
785,12	1265,64
785,30	1251,31
785,47	1247,21
785,65	1265,64
785,83	1286,12
786,00	1212,40
786,18	1282,03
786,35	1218,54
786,53	1271,79
786,71	1298,41
786,88	1263,60
787,06	1249,26
787,23	1306,60
787,41	1296,36
787,58	1267,69
787,76	1327,08
787,94	1228,78
788,11	1261,55
788,29	1236,97
788,46	1275,88
788,64	1249,26
788,81	1202,16
788,99	1290,22
789,16	1304,56
789,34	1218,54
789,52	1255,40
789,69	1337,32
789,87	1253,36
790,04	1286,12
790,22	1300,46
790,39	1234,93
790,57	1298,41
790,74	1212,40
790,92	1241,07
791,09	1282,03
791,27	1228,78
791,44	1241,07
791,62	1212,40
791,79	1306,60
791,97	1214,45
792,15	1329,13
792,32	1292,27
792,50	1259,50
792,67	1269,74
792,85	1273,84
793,02	1308,65
793,20	1269,74
793,37	1200,11
793,55	1357,80
793,72	1284,08
793,90	1298,41
794,07	1253,36
794,25	1271,79
794,42	1341,42
794,60	1232,88
794,77	1357,80
794,95	1347,56
795,12	1275,88
795,30	1337,32
795,47	1245,16
795,65	1232,88
795,82	1263,60
796,00	1261,55
796,17	1214,45
796,34	1257,45
796,52	1263,60
796,69	1331,18
796,87	1251,31
797,04	1300,46
797,22	1214,45
797,39	1200,11
797,57	1310,70
797,74	1320,94
797,92	1308,65
798,09	1216,49
798,27	1282,03
798,44	1255,40
798,62	1212,40
798,79	1214,45
798,96	1226,73
799,14	1265,64
799,31	1282,03
799,49	1257,45
799,66	1265,64
799,84	1236,97
800,01	1247,21
800,19	1206,25
800,36	1282,03
800,53	1224,69
800,71	1288,17
800,88	1286,12
801,06	1212,40
801,23	1290,22
801,41	1294,32
801,58	1294,32
801,75	1212,40
801,93	1265,64
802,10	1333,23
802,28	1214,45
802,45	1327,08
802,63	1302,51
802,80	1273,84
802,97	1247,21
803,15	1253,36
803,32	1255,40
803,50	1173,49
803,67	1345,52
803,84	1271,79
804,02	1234,93
804,19	1261,55
804,37	1202,16
804,54	1329,13
804,71	1218,54
804,89	1269,74
805,06	1343,47
805,24	1302,51
805,41	1226,73
805,58	1306,60
805,76	1302,51
805,93	1218,54
806,10	1322,99
806,28	1257,45
806,45	1267,69
806,63	1282,03
806,80	1310,70
806,97	1304,56
807,15	1277,93
807,32	1343,47
807,49	1310,70
807,67	1267,69
807,84	1282,03
808,01	1232,88
808,19	1259,50
808,36	1325,04
808,54	1282,03
808,71	1216,49
808,88	1306,60
809,06	1290,22
809,23	1320,94
809,40	1273,84
809,58	1304,56
809,75	1331,18
809,92	1294,32
810,10	1282,03
810,27	1306,60
810,44	1275,88
810,62	1263,60
810,79	1245,16
810,96	1239,02
811,14	1220,59
811,31	1282,03
811,48	1298,41
811,66	1333,23
811,83	1351,66
812,00	1204,21
812,18	1325,04
812,35	1320,94
812,52	1271,79
812,69	1296,36
812,87	1243,12
813,04	1288,17
813,21	1257,45
813,39	1269,74
813,56	1261,55
813,73	1296,36
813,91	1241,07
814,08	1279,98
814,25	1296,36
814,42	1271,79
814,60	1292,27
814,77	1284,08
814,94	1277,93
815,12	1316,84
815,29	1267,69
815,46	1298,41
815,63	1232,88
815,81	1239,02
815,98	1320,94
816,15	1251,31
816,33	1286,12
816,50	1232,88
816,67	1241,07
816,84	1200,11
817,02	1353,71
817,19	1316,84
817,36	1253,36
817,53	1257,45
817,71	1243,12
817,88	1282,03
818,05	1230,83
818,22	1257,45
818,40	1236,97
818,57	1284,08
818,74	1263,60
818,91	1202,16
819,09	1312,75
819,26	1372,14
819,43	1302,51
819,60	1345,52
819,78	1286,12
819,95	1222,64
820,12	1277,93
820,29	1251,31
820,47	1327,08
820,64	1232,88
820,81	1232,88
820,98	1286,12
821,15	1286,12
821,33	1267,69
821,50	1243,12
821,67	1316,84
821,84	1284,08
822,02	1284,08
822,19	1345,52
822,36	1312,75
822,53	1210,35
822,70	1310,70
822,88	1316,84
823,05	1159,15
823,22	1282,03
823,39	1204,21
823,56	1224,69
823,74	1167,34
823,91	1286,12
824,08	1271,79
824,25	1251,31
824,42	1284,08
824,60	1294,32
824,77	1249,26
824,94	1251,31
825,11	1292,27
825,28	1298,41
825,45	1263,60
825,63	1230,83
825,80	1234,93
825,97	1339,37
826,14	1224,69
826,31	1206,25
826,48	1347,56
826,66	1277,93
826,83	1263,60
827,00	1298,41
827,17	1222,64
827,34	1300,46
827,51	1294,32
827,69	1261,55
827,86	1322,99
828,03	1277,93
828,20	1271,79
828,37	1253,36
828,54	1224,69
828,71	1296,36
828,89	1296,36
829,06	1292,27
829,23	1251,31
829,40	1355,76
829,57	1265,64
829,74	1347,56
829,91	1216,49
830,09	1298,41
830,26	1253,36
830,43	1261,55
830,60	1304,56
830,77	1273,84
830,94	1282,03
831,11	1273,84
831,28	1316,84
831,46	1327,08
831,63	1253,36
831,80	1234,93
831,97	1257,45
832,14	1265,64
832,31	1247,21
832,48	1277,93
832,65	1249,26
832,82	1300,46
832,99	1265,64
833,17	1277,93
833,34	1275,88
833,51	1286,12
833,68	1226,73
833,85	1325,04
834,02	1282,03
834,19	1214,45
834,36	1288,17
834,53	1230,83
834,70	1249,26
834,87	1277,93
835,04	1284,08
835,22	1245,16
835,39	1300,46
835,56	1198,06
835,73	1249,26
835,90	1275,88
836,07	1243,12
836,24	1224,69
836,41	1255,40
836,58	1198,06
836,75	1294,32
836,92	1327,08
837,09	1282,03
837,26	1284,08
837,43	1263,60
837,60	1259,50
837,77	1366,00
837,94	1183,73
838,12	1300,46
838,29	1202,16
838,46	1253,36
838,63	1335,28
838,80	1296,36
838,97	1331,18
839,14	1236,97
839,31	1284,08
839,48	1292,27
839,65	1230,83
839,82	1341,42
839,99	1286,12
840,16	1339,37
840,33	1259,50
840,50	1298,41
840,67	1249,26
840,84	1153,01
841,01	1241,07
841,18	1249,26
841,35	1224,69
841,52	1236,97
841,69	1257,45
841,86	1249,26
842,03	1253,36
842,20	1327,08
842,37	1200,11
842,54	1304,56
842,71	1275,88
842,88	1257,45
843,05	1263,60
843,22	1183,73
843,39	1275,88
843,56	1247,21
843,73	1257,45
843,90	1257,45
844,07	1290,22
844,24	1288,17
844,41	1224,69
844,58	1310,70
844,75	1292,27
844,92	1335,28
845,09	1255,40
845,26	1243,12
845,43	1236,97
845,60	1275,88
845,77	1251,31
845,94	1345,52
846,10	1251,31
846,27	1304,56
846,44	1241,07
846,61	1308,65
846,78	1312,75
846,95	1316,84
847,12	1230,83
847,29	1226,73
847,46	1300,46
847,63	1267,69
847,80	1245,16
847,97	1351,66
848,14	1247,21
848,31	1282,03
848,48	1251,31
848,65	1329,13
848,82	1306,60
848,98	1286,12
849,15	1361,90
849,32	1333,23
849,49	1261,55
849,66	1257,45
849,83	1253,36
850,00	1322,99
850,17	1279,98
850,34	1333,23
850,51	1234,93
850,68	1269,74
850,85	1249,26
851,01	1198,06
851,18	1204,21
851,35	1232,88
851,52	1300,46
851,69	1320,94
851,86	1308,65
852,03	1300,46
852,20	1265,64
852,37	1290,22
852,53	1282,03
852,70	1277,93
852,87	1259,50
853,04	1359,85
853,21	1222,64
853,38	1198,06
853,55	1245,16
853,72	1253,36
853,89	1269,74
854,05	1183,73
854,22	1300,46
854,39	1185,77
854,56	1230,83
854,73	1261,55
854,90	1310,70
855,07	1312,75
855,23	1212,40
855,40	1210,35
855,57	1286,12
855,74	1298,41
855,91	1255,40
856,08	1216,49
856,25	1312,75
856,41	1273,84
856,58	1257,45
856,75	1335,28
856,92	1322,99
857,09	1259,50
857,26	1239,02
857,42	1245,16
857,59	1255,40
857,76	1267,69
857,93	1230,83
858,10	1263,60
858,27	1296,36
858,43	1228,78
858,60	1320,94
858,77	1288,17
858,94	1224,69
859,11	1230,83
859,27	1243,12
859,44	1294,32
859,61	1335,28
859,78	1269,74
859,95	1243,12
860,12	1300,46
860,28	1261,55
860,45	1271,79
860,62	1220,59
860,79	1306,60
860,95	1216,49
861,12	1222,64
861,29	1273,84
861,46	1288,17
861,63	1255,40
861,79	1292,27
861,96	1253,36
862,13	1339,37
862,30	1314,80
862,47	1261,55
862,63	1273,84
862,80	1271,79
862,97	1314,80
863,14	1322,99
863,30	1234,93
863,47	1263,60
863,64	1234,93
863,81	1288,17
863,97	1310,70
864,14	1247,21
864,31	1236,97
864,48	1261,55
864,65	1236,97
864,81	1304,56
864,98	1277,93
865,15	1249,26
865,32	1245,16
865,48	1234,93
865,65	1277,93
865,82	1343,47
865,98	1273,84
866,15	1226,73
866,32	1316,84
866,49	1320,94
866,65	1335,28
866,82	1259,50
866,99	1173,49
867,16	1230,83
867,32	1267,69
867,49	1298,41
867,66	1263,60
867,83	1310,70
867,99	1234,93
868,16	1236,97
868,33	1300,46
868,49	1279,98
868,66	1224,69
868,83	1290,22
868,99	1257,45
869,16	1226,73
869,33	1234,93
869,50	1331,18
869,66	1263,60
869,83	1239,02
870,00	1325,04
870,16	1290,22
870,33	1275,88
870,50	1269,74
870,66	1232,88
870,83	1271,79
871,00	1275,88
871,17	1279,98
871,33	1261,55
871,50	1298,41
871,67	1202,16
871,83	1300,46
872,00	1265,64
872,17	1255,40
872,33	1232,88
872,50	1290,22
872,67	1198,06
872,83	1310,70
873,00	1247,21
873,17	1267,69
873,33	1267,69
873,50	1318,89
873,67	1226,73
873,83	1331,18
874,00	1296,36
874,16	1337,32
874,33	1325,04
874,50	1292,27
874,66	1275,88
874,83	1329,13
875,00	1257,45
875,16	1257,45
875,33	1249,26
875,50	1290,22
875,66	1191,92
875,83	1288,17
875,99	1265,64
876,16	1263,60
876,33	1247,21
876,49	1263,60
876,66	1243,12
876,83	1234,93
876,99	1257,45
877,16	1304,56
877,32	1243,12
877,49	1308,65
877,66	1261,55
877,82	1255,40
877,99	1267,69
878,15	1257,45
878,32	1259,50
878,49	1253,36
878,65	1271,79
878,82	1247,21
878,98	1327,08
879,15	1271,79
879,32	1273,84
879,48	1312,75
879,65	1314,80
879,81	1267,69
879,98	1185,77
880,15	1275,88
880,31	1265,64
880,48	1241,07
880,64	1296,36
880,81	1335,28
880,97	1349,61
881,14	1327,08
881,31	1251,31
881,47	1253,36
881,64	1243,12
881,80	1271,79
881,97	1253,36
882,13	1329,13
882,30	1292,27
882,47	1296,36
882,63	1263,60
882,80	1271,79
882,96	1239,02
883,13	1331,18
883,29	1210,35
883,46	1290,22
883,62	1273,84
883,79	1322,99
883,95	1302,51
884,12	1296,36
884,29	1296,36
884,45	1198,06
884,62	1331,18
884,78	1327,08
884,95	1282,03
885,11	1290,22
885,28	1306,60
885,44	1298,41
885,61	1337,32
885,77	1316,84
885,94	1294,32
886,10	1228,78
886,27	1204,21
886,43	1218,54
886,60	1243,12
886,76	1284,08
886,93	1269,74
887,09	1294,32
887,26	1257,45
887,42	1234,93
887,59	1243,12
887,75	1294,32
887,92	1247,21
888,08	1288,17
888,25	1232,88
888,41	1265,64
888,58	1271,79
888,74	1259,50
888,91	1255,40
>>>>>End Processed Spectral Data<<<<<
