SpectraSuite Data File
++++++++++++++++++++++++++++++++++++
Date: Sun Apr 03 13:38:34 CEST 2016
User: root
Dark Spectrum Present: No
Reference Spectrum Present: No
Number of Sampled Component Spectra: 1
Spectrometers: USB4C02835
Integration Time (usec): 10000 (USB4C02835)
Spectra Averaged: 1 (USB4C02835)
Boxcar Smoothing: 0 (USB4C02835)
Correct for Electrical Dark: No (USB4C02835)
Strobe/Lamp Enabled: No (USB4C02835)
Correct for Detector Non-linearity: No (USB4C02835)
Correct for Stray Light: No (USB4C02835)
Number of Pixels in Processed Spectrum: 3648
>>>>>Begin Processed Spectral Data<<<<<
177,47	1230,83
177,69	1230,83
177,91	1230,83
178,13	1228,78
178,36	1298,41
178,58	1292,27
178,80	1265,64
179,02	1331,18
179,24	1302,51
179,46	1247,21
179,68	1198,06
179,90	1329,13
180,13	1243,12
180,35	1183,73
180,57	1312,75
180,79	1349,61
181,01	1282,03
181,23	1228,78
181,45	1263,60
181,67	1255,40
181,90	1269,74
182,12	1279,98
182,34	1304,56
182,56	1329,13
182,78	1257,45
183,00	1320,94
183,22	1257,45
183,44	1212,40
183,66	1333,23
183,89	1247,21
184,11	1255,40
184,33	1241,07
184,55	1261,55
184,77	1247,21
184,99	1157,10
185,21	1269,74
185,43	1286,12
185,65	1327,08
185,87	1249,26
186,10	1298,41
186,32	1232,88
186,54	1398,76
186,76	1273,84
186,98	1249,26
187,20	1349,61
187,42	1286,12
187,64	1216,49
187,86	1241,07
188,08	1347,56
188,30	1269,74
188,52	1308,65
188,75	1239,02
188,97	1275,88
189,19	1271,79
189,41	1314,80
189,63	1261,55
189,85	1259,50
190,07	1302,51
190,29	1257,45
190,51	1259,50
190,73	1296,36
190,95	1255,40
191,17	1329,13
191,39	1261,55
191,61	1286,12
191,84	1279,98
192,06	1296,36
192,28	1218,54
192,50	1292,27
192,72	1253,36
192,94	1345,52
193,16	1320,94
193,38	1241,07
193,60	1298,41
193,82	1292,27
194,04	1277,93
194,26	1288,17
194,48	1304,56
194,70	1308,65
194,92	1279,98
195,14	1224,69
195,36	1345,52
195,58	1331,18
195,80	1320,94
196,02	1298,41
196,24	1234,93
196,46	1273,84
196,69	1314,80
196,91	1273,84
197,13	1333,23
197,35	1232,88
197,57	1275,88
197,79	1290,22
198,01	1296,36
198,23	1341,42
198,45	1282,03
198,67	1294,32
198,89	1292,27
199,11	1236,97
199,33	1296,36
199,55	1263,60
199,77	1304,56
199,99	1275,88
200,21	1267,69
200,43	1249,26
200,65	1239,02
200,87	1318,89
201,09	1261,55
201,31	1228,78
201,53	1255,40
201,75	1257,45
201,97	1232,88
202,19	1239,02
202,41	1331,18
202,63	1261,55
202,85	1271,79
203,07	1263,60
203,29	1275,88
203,51	1300,46
203,73	1216,49
203,95	1282,03
204,17	1284,08
204,39	1288,17
204,61	1322,99
204,83	1290,22
205,05	1304,56
205,27	1265,64
205,49	1241,07
205,71	1224,69
205,93	1218,54
206,15	1271,79
206,37	1222,64
206,59	1331,18
206,81	1249,26
207,03	1288,17
207,25	1243,12
207,47	1255,40
207,69	1265,64
207,91	1273,84
208,13	1253,36
208,34	1257,45
208,56	1234,93
208,78	1357,80
209,00	1284,08
209,22	1236,97
209,44	1243,12
209,66	1298,41
209,88	1290,22
210,10	1253,36
210,32	1200,11
210,54	1339,37
210,76	1306,60
210,98	1271,79
211,20	1277,93
211,42	1277,93
211,64	1249,26
211,86	1296,36
212,08	1265,64
212,30	1322,99
212,52	1286,12
212,74	1345,52
212,96	1220,59
213,17	1232,88
213,39	1183,73
213,61	1253,36
213,83	1267,69
214,05	1263,60
214,27	1288,17
214,49	1275,88
214,71	1312,75
214,93	1282,03
215,15	1261,55
215,37	1298,41
215,59	1181,68
215,81	1251,31
216,03	1220,59
216,24	1333,23
216,46	1294,32
216,68	1298,41
216,90	1306,60
217,12	1275,88
217,34	1261,55
217,56	1304,56
217,78	1306,60
218,00	1269,74
218,22	1277,93
218,44	1290,22
218,66	1236,97
218,87	1269,74
219,09	1288,17
219,31	1318,89
219,53	1279,98
219,75	1265,64
219,97	1290,22
220,19	1245,16
220,41	1230,83
220,63	1279,98
220,85	1259,50
221,06	1249,26
221,28	1286,12
221,50	1222,64
221,72	1304,56
221,94	1300,46
222,16	1257,45
222,38	1331,18
222,60	1314,80
222,82	1247,21
223,03	1284,08
223,25	1290,22
223,47	1247,21
223,69	1288,17
223,91	1220,59
224,13	1245,16
224,35	1255,40
224,57	1234,93
224,78	1271,79
225,00	1284,08
225,22	1331,18
225,44	1296,36
225,66	1286,12
225,88	1277,93
226,10	1286,12
226,32	1259,50
226,53	1191,92
226,75	1298,41
226,97	1261,55
227,19	1253,36
227,41	1329,13
227,63	1253,36
227,85	1284,08
228,06	1347,56
228,28	1300,46
228,50	1214,45
228,72	1214,45
228,94	1286,12
229,16	1236,97
229,37	1269,74
229,59	1298,41
229,81	1220,59
230,03	1267,69
230,25	1196,01
230,47	1222,64
230,69	1271,79
230,90	1366,00
231,12	1329,13
231,34	1257,45
231,56	1306,60
231,78	1251,31
232,00	1290,22
232,21	1232,88
232,43	1302,51
232,65	1234,93
232,87	1175,53
233,09	1304,56
233,30	1269,74
233,52	1282,03
233,74	1218,54
233,96	1302,51
234,18	1318,89
234,40	1243,12
234,61	1337,32
234,83	1275,88
235,05	1329,13
235,27	1302,51
235,49	1284,08
235,70	1294,32
235,92	1331,18
236,14	1335,28
236,36	1284,08
236,58	1179,63
236,79	1294,32
237,01	1222,64
237,23	1218,54
237,45	1288,17
237,67	1298,41
237,88	1284,08
238,10	1318,89
238,32	1263,60
238,54	1220,59
238,76	1239,02
238,97	1269,74
239,19	1298,41
239,41	1271,79
239,63	1243,12
239,85	1259,50
240,06	1212,40
240,28	1241,07
240,50	1243,12
240,72	1322,99
240,93	1308,65
241,15	1279,98
241,37	1300,46
241,59	1284,08
241,81	1353,71
242,02	1226,73
242,24	1269,74
242,46	1282,03
242,68	1398,76
242,89	1269,74
243,11	1331,18
243,33	1273,84
243,55	1226,73
243,76	1241,07
243,98	1290,22
244,20	1298,41
244,42	1253,36
244,64	1308,65
244,85	1222,64
245,07	1245,16
245,29	1277,93
245,51	1277,93
245,72	1239,02
245,94	1265,64
246,16	1257,45
246,38	1302,51
246,59	1282,03
246,81	1200,11
247,03	1253,36
247,24	1265,64
247,46	1275,88
247,68	1298,41
247,90	1228,78
248,11	1196,01
248,33	1228,78
248,55	1226,73
248,77	1300,46
248,98	1232,88
249,20	1341,42
249,42	1263,60
249,64	1208,30
249,85	1230,83
250,07	1271,79
250,29	1290,22
250,50	1314,80
250,72	1288,17
250,94	1236,97
251,16	1331,18
251,37	1222,64
251,59	1251,31
251,81	1234,93
252,02	1271,79
252,24	1259,50
252,46	1339,37
252,68	1236,97
252,89	1271,79
253,11	1277,93
253,33	1290,22
253,54	1234,93
253,76	1294,32
253,98	1228,78
254,20	1329,13
254,41	1290,22
254,63	1271,79
254,85	1322,99
255,06	1292,27
255,28	1267,69
255,50	1247,21
255,71	1300,46
255,93	1351,66
256,15	1290,22
256,36	1265,64
256,58	1302,51
256,80	1318,89
257,02	1298,41
257,23	1273,84
257,45	1236,97
257,67	1337,32
257,88	1353,71
258,10	1314,80
258,32	1210,35
258,53	1243,12
258,75	1167,34
258,97	1247,21
259,18	1284,08
259,40	1335,28
259,62	1294,32
259,83	1282,03
260,05	1267,69
260,27	1273,84
260,48	1282,03
260,70	1241,07
260,92	1251,31
261,13	1277,93
261,35	1296,36
261,57	1316,84
261,78	1351,66
262,00	1216,49
262,22	1253,36
262,43	1316,84
262,65	1284,08
262,86	1253,36
263,08	1310,70
263,30	1251,31
263,51	1284,08
263,73	1304,56
263,95	1247,21
264,16	1241,07
264,38	1290,22
264,60	1267,69
264,81	1277,93
265,03	1243,12
265,25	1314,80
265,46	1316,84
265,68	1243,12
265,89	1253,36
266,11	1273,84
266,33	1236,97
266,54	1318,89
266,76	1267,69
266,98	1273,84
267,19	1257,45
267,41	1290,22
267,62	1243,12
267,84	1269,74
268,06	1341,42
268,27	1331,18
268,49	1265,64
268,70	1300,46
268,92	1228,78
269,14	1306,60
269,35	1249,26
269,57	1273,84
269,79	1271,79
270,00	1239,02
270,22	1271,79
270,43	1327,08
270,65	1335,28
270,87	1302,51
271,08	1265,64
271,30	1290,22
271,51	1265,64
271,73	1226,73
271,95	1273,84
272,16	1220,59
272,38	1243,12
272,59	1347,56
272,81	1253,36
273,02	1267,69
273,24	1224,69
273,46	1265,64
273,67	1239,02
273,89	1282,03
274,10	1337,32
274,32	1290,22
274,54	1257,45
274,75	1279,98
274,97	1230,83
275,18	1269,74
275,40	1312,75
275,61	1230,83
275,83	1302,51
276,05	1312,75
276,26	1183,73
276,48	1292,27
276,69	1208,30
276,91	1263,60
277,12	1277,93
277,34	1241,07
277,55	1277,93
277,77	1243,12
277,99	1325,04
278,20	1300,46
278,42	1279,98
278,63	1335,28
278,85	1337,32
279,06	1245,16
279,28	1236,97
279,49	1286,12
279,71	1241,07
279,93	1257,45
280,14	1370,09
280,36	1343,47
280,57	1271,79
280,79	1318,89
281,00	1310,70
281,22	1343,47
281,43	1239,02
281,65	1273,84
281,86	1239,02
282,08	1218,54
282,29	1296,36
282,51	1284,08
282,73	1216,49
282,94	1300,46
283,16	1187,82
283,37	1232,88
283,59	1249,26
283,80	1224,69
284,02	1267,69
284,23	1267,69
284,45	1224,69
284,66	1230,83
284,88	1230,83
285,09	1269,74
285,31	1220,59
285,52	1279,98
285,74	1218,54
285,95	1292,27
286,17	1353,71
286,38	1347,56
286,60	1269,74
286,81	1247,21
287,03	1288,17
287,24	1249,26
287,46	1249,26
287,67	1300,46
287,89	1298,41
288,10	1226,73
288,32	1269,74
288,53	1316,84
288,75	1243,12
288,96	1265,64
289,18	1279,98
289,39	1230,83
289,61	1347,56
289,82	1179,63
290,04	1243,12
290,25	1198,06
290,47	1302,51
290,68	1337,32
290,90	1300,46
291,11	1277,93
291,33	1275,88
291,54	1273,84
291,76	1288,17
291,97	1304,56
292,18	1304,56
292,40	1222,64
292,61	1343,47
292,83	1257,45
293,04	1322,99
293,26	1304,56
293,47	1267,69
293,69	1253,36
293,90	1175,53
294,12	1239,02
294,33	1349,61
294,55	1226,73
294,76	1312,75
294,97	1314,80
295,19	1284,08
295,40	1339,37
295,62	1286,12
295,83	1220,59
296,05	1232,88
296,26	1308,65
296,48	1298,41
296,69	1239,02
296,90	1269,74
297,12	1284,08
297,33	1368,04
297,55	1294,32
297,76	1271,79
297,98	1310,70
298,19	1257,45
298,41	1337,32
298,62	1259,50
298,83	1232,88
299,05	1208,30
299,26	1333,23
299,48	1216,49
299,69	1232,88
299,90	1292,27
300,12	1241,07
300,33	1261,55
300,55	1279,98
300,76	1210,35
300,98	1300,46
301,19	1241,07
301,40	1288,17
301,62	1306,60
301,83	1257,45
302,05	1288,17
302,26	1294,32
302,47	1296,36
302,69	1335,28
302,90	1232,88
303,12	1294,32
303,33	1216,49
303,54	1284,08
303,76	1357,80
303,97	1277,93
304,19	1351,66
304,40	1302,51
304,61	1255,40
304,83	1218,54
305,04	1308,65
305,26	1290,22
305,47	1277,93
305,68	1374,19
305,90	1243,12
306,11	1259,50
306,33	1290,22
306,54	1298,41
306,75	1177,58
306,97	1234,93
307,18	1216,49
307,39	1302,51
307,61	1353,71
307,82	1294,32
308,04	1257,45
308,25	1296,36
308,46	1304,56
308,68	1206,25
308,89	1230,83
309,10	1304,56
309,32	1306,60
309,53	1370,09
309,74	1292,27
309,96	1325,04
310,17	1269,74
310,39	1290,22
310,60	1279,98
310,81	1220,59
311,03	1271,79
311,24	1230,83
311,45	1279,98
311,67	1310,70
311,88	1284,08
312,09	1259,50
312,31	1224,69
312,52	1263,60
312,73	1312,75
312,95	1343,47
313,16	1331,18
313,37	1279,98
313,59	1341,42
313,80	1329,13
314,01	1331,18
314,23	1230,83
314,44	1329,13
314,65	1267,69
314,87	1273,84
315,08	1302,51
315,29	1284,08
315,51	1212,40
315,72	1284,08
315,93	1378,28
316,15	1269,74
316,36	1236,97
316,57	1263,60
316,79	1302,51
317,00	1232,88
317,21	1320,94
317,43	1251,31
317,64	1271,79
317,85	1269,74
318,07	1343,47
318,28	1298,41
318,49	1304,56
318,70	1279,98
318,92	1210,35
319,13	1337,32
319,34	1198,06
319,56	1308,65
319,77	1259,50
319,98	1286,12
320,20	1284,08
320,41	1325,04
320,62	1216,49
320,83	1271,79
321,05	1337,32
321,26	1263,60
321,47	1308,65
321,69	1269,74
321,90	1206,25
322,11	1263,60
322,32	1206,25
322,54	1239,02
322,75	1257,45
322,96	1288,17
323,18	1304,56
323,39	1271,79
323,60	1232,88
323,81	1306,60
324,03	1310,70
324,24	1314,80
324,45	1368,04
324,66	1253,36
324,88	1284,08
325,09	1259,50
325,30	1204,21
325,52	1261,55
325,73	1298,41
325,94	1208,30
326,15	1245,16
326,37	1306,60
326,58	1255,40
326,79	1236,97
327,00	1257,45
327,22	1265,64
327,43	1306,60
327,64	1210,35
327,85	1300,46
328,07	1255,40
328,28	1189,87
328,49	1202,16
328,70	1345,52
328,92	1290,22
329,13	1261,55
329,34	1273,84
329,55	1243,12
329,76	1325,04
329,98	1304,56
330,19	1322,99
330,40	1263,60
330,61	1351,66
330,83	1218,54
331,04	1251,31
331,25	1282,03
331,46	1312,75
331,68	1232,88
331,89	1222,64
332,10	1230,83
332,31	1259,50
332,52	1251,31
332,74	1196,01
332,95	1290,22
333,16	1372,14
333,37	1273,84
333,58	1271,79
333,80	1230,83
334,01	1214,45
334,22	1226,73
334,43	1282,03
334,64	1292,27
334,86	1275,88
335,07	1294,32
335,28	1279,98
335,49	1224,69
335,70	1279,98
335,92	1224,69
336,13	1279,98
336,34	1273,84
336,55	1361,90
336,76	1265,64
336,98	1191,92
337,19	1298,41
337,40	1290,22
337,61	1296,36
337,82	1298,41
338,04	1288,17
338,25	1312,75
338,46	1212,40
338,67	1263,60
338,88	1214,45
339,09	1304,56
339,31	1302,51
339,52	1249,26
339,73	1282,03
339,94	1271,79
340,15	1222,64
340,36	1279,98
340,58	1298,41
340,79	1245,16
341,00	1230,83
341,21	1204,21
341,42	1249,26
341,63	1230,83
341,85	1316,84
342,06	1251,31
342,27	1304,56
342,48	1282,03
342,69	1331,18
342,90	1259,50
343,12	1296,36
343,33	1316,84
343,54	1220,59
343,75	1298,41
343,96	1261,55
344,17	1232,88
344,38	1245,16
344,60	1292,27
344,81	1351,66
345,02	1247,21
345,23	1325,04
345,44	1363,95
345,65	1304,56
345,86	1282,03
346,07	1265,64
346,29	1239,02
346,50	1292,27
346,71	1271,79
346,92	1265,64
347,13	1314,80
347,34	1243,12
347,55	1284,08
347,76	1292,27
347,98	1284,08
348,19	1267,69
348,40	1251,31
348,61	1273,84
348,82	1271,79
349,03	1294,32
349,24	1271,79
349,45	1349,61
349,66	1236,97
349,88	1236,97
350,09	1267,69
350,30	1243,12
350,51	1296,36
350,72	1212,40
350,93	1353,71
351,14	1265,64
351,35	1286,12
351,56	1288,17
351,77	1257,45
351,99	1271,79
352,20	1206,25
352,41	1216,49
352,62	1271,79
352,83	1279,98
353,04	1222,64
353,25	1253,36
353,46	1263,60
353,67	1325,04
353,88	1218,54
354,09	1265,64
354,30	1251,31
354,52	1320,94
354,73	1255,40
354,94	1282,03
355,15	1255,40
355,36	1234,93
355,57	1267,69
355,78	1249,26
355,99	1247,21
356,20	1292,27
356,41	1302,51
356,62	1196,01
356,83	1282,03
357,04	1257,45
357,25	1249,26
357,46	1282,03
357,68	1320,94
357,89	1304,56
358,10	1236,97
358,31	1206,25
358,52	1282,03
358,73	1247,21
358,94	1247,21
359,15	1273,84
359,36	1310,70
359,57	1298,41
359,78	1220,59
359,99	1247,21
360,20	1228,78
360,41	1253,36
360,62	1288,17
360,83	1214,45
361,04	1357,80
361,25	1173,49
361,46	1251,31
361,67	1247,21
361,88	1259,50
362,09	1230,83
362,30	1247,21
362,51	1257,45
362,72	1296,36
362,93	1284,08
363,14	1277,93
363,35	1273,84
363,56	1306,60
363,78	1263,60
363,99	1261,55
364,20	1288,17
364,41	1255,40
364,62	1247,21
364,83	1265,64
365,04	1296,36
365,25	1265,64
365,46	1286,12
365,67	1322,99
365,88	1331,18
366,09	1286,12
366,30	1275,88
366,51	1247,21
366,72	1255,40
366,93	1302,51
367,14	1298,41
367,35	1290,22
367,56	1320,94
367,77	1318,89
367,98	1322,99
368,18	1306,60
368,39	1279,98
368,60	1294,32
368,81	1279,98
369,02	1253,36
369,23	1214,45
369,44	1204,21
369,65	1236,97
369,86	1292,27
370,07	1286,12
370,28	1228,78
370,49	1220,59
370,70	1304,56
370,91	1277,93
371,12	1245,16
371,33	1263,60
371,54	1249,26
371,75	1300,46
371,96	1271,79
372,17	1279,98
372,38	1216,49
372,59	1224,69
372,80	1306,60
373,01	1263,60
373,22	1267,69
373,43	1331,18
373,64	1306,60
373,85	1284,08
374,06	1347,56
374,26	1259,50
374,47	1331,18
374,68	1300,46
374,89	1261,55
375,10	1279,98
375,31	1218,54
375,52	1263,60
375,73	1259,50
375,94	1284,08
376,15	1224,69
376,36	1335,28
376,57	1249,26
376,78	1232,88
376,99	1255,40
377,20	1308,65
377,40	1241,07
377,61	1267,69
377,82	1284,08
378,03	1300,46
378,24	1294,32
378,45	1277,93
378,66	1212,40
378,87	1271,79
379,08	1325,04
379,29	1296,36
379,50	1294,32
379,71	1253,36
379,91	1284,08
380,12	1271,79
380,33	1224,69
380,54	1273,84
380,75	1320,94
380,96	1337,32
381,17	1337,32
381,38	1339,37
381,59	1341,42
381,80	1224,69
382,00	1273,84
382,21	1267,69
382,42	1255,40
382,63	1290,22
382,84	1288,17
383,05	1294,32
383,26	1251,31
383,47	1226,73
383,68	1290,22
383,88	1241,07
384,09	1243,12
384,30	1230,83
384,51	1218,54
384,72	1230,83
384,93	1290,22
385,14	1308,65
385,35	1298,41
385,55	1265,64
385,76	1343,47
385,97	1212,40
386,18	1296,36
386,39	1241,07
386,60	1335,28
386,81	1239,02
387,02	1275,88
387,22	1259,50
387,43	1282,03
387,64	1214,45
387,85	1308,65
388,06	1288,17
388,27	1308,65
388,48	1249,26
388,68	1296,36
388,89	1316,84
389,10	1284,08
389,31	1304,56
389,52	1255,40
389,73	1325,04
389,93	1275,88
390,14	1265,64
390,35	1234,93
390,56	1249,26
390,77	1263,60
390,98	1259,50
391,18	1290,22
391,39	1249,26
391,60	1298,41
391,81	1247,21
392,02	1257,45
392,23	1245,16
392,43	1316,84
392,64	1292,27
392,85	1222,64
393,06	1253,36
393,27	1314,80
393,47	1304,56
393,68	1253,36
393,89	1271,79
394,10	1204,21
394,31	1261,55
394,52	1230,83
394,72	1241,07
394,93	1300,46
395,14	1249,26
395,35	1271,79
395,56	1259,50
395,76	1218,54
395,97	1239,02
396,18	1177,58
396,39	1282,03
396,60	1249,26
396,80	1208,30
397,01	1230,83
397,22	1253,36
397,43	1300,46
397,64	1316,84
397,84	1331,18
398,05	1331,18
398,26	1265,64
398,47	1275,88
398,67	1296,36
398,88	1288,17
399,09	1241,07
399,30	1304,56
399,51	1316,84
399,71	1265,64
399,92	1267,69
400,13	1282,03
400,34	1208,30
400,54	1277,93
400,75	1263,60
400,96	1232,88
401,17	1271,79
401,37	1236,97
401,58	1286,12
401,79	1279,98
402,00	1261,55
402,21	1284,08
402,41	1308,65
402,62	1286,12
402,83	1236,97
403,04	1243,12
403,24	1296,36
403,45	1236,97
403,66	1331,18
403,87	1343,47
404,07	1310,70
404,28	1267,69
404,49	1314,80
404,70	1316,84
404,90	1314,80
405,11	1308,65
405,32	1339,37
405,52	1304,56
405,73	1245,16
405,94	1269,74
406,15	1310,70
406,35	1296,36
406,56	1296,36
406,77	1271,79
406,98	1208,30
407,18	1257,45
407,39	1320,94
407,60	1275,88
407,80	1230,83
408,01	1239,02
408,22	1298,41
408,43	1269,74
408,63	1298,41
408,84	1200,11
409,05	1333,23
409,25	1222,64
409,46	1230,83
409,67	1304,56
409,88	1253,36
410,08	1308,65
410,29	1329,13
410,50	1253,36
410,70	1282,03
410,91	1286,12
411,12	1239,02
411,32	1253,36
411,53	1271,79
411,74	1251,31
411,95	1228,78
412,15	1282,03
412,36	1269,74
412,57	1265,64
412,77	1253,36
412,98	1269,74
413,19	1214,45
413,39	1251,31
413,60	1279,98
413,81	1214,45
414,01	1200,11
414,22	1210,35
414,43	1259,50
414,63	1200,11
414,84	1320,94
415,05	1279,98
415,25	1341,42
415,46	1224,69
415,67	1239,02
415,87	1224,69
416,08	1288,17
416,29	1271,79
416,49	1230,83
416,70	1345,52
416,91	1265,64
417,11	1222,64
417,32	1304,56
417,53	1290,22
417,73	1290,22
417,94	1292,27
418,15	1304,56
418,35	1374,19
418,56	1284,08
418,77	1202,16
418,97	1286,12
419,18	1253,36
419,38	1216,49
419,59	1279,98
419,80	1329,13
420,00	1226,73
420,21	1298,41
420,42	1322,99
420,62	1261,55
420,83	1284,08
421,04	1230,83
421,24	1304,56
421,45	1265,64
421,65	1273,84
421,86	1312,75
422,07	1292,27
422,27	1232,88
422,48	1236,97
422,69	1320,94
422,89	1200,11
423,10	1177,58
423,30	1230,83
423,51	1279,98
423,72	1218,54
423,92	1347,56
424,13	1267,69
424,33	1243,12
424,54	1341,42
424,75	1241,07
424,95	1253,36
425,16	1341,42
425,36	1236,97
425,57	1239,02
425,78	1224,69
425,98	1265,64
426,19	1308,65
426,39	1282,03
426,60	1331,18
426,81	1370,09
427,01	1314,80
427,22	1255,40
427,42	1282,03
427,63	1183,73
427,83	1249,26
428,04	1257,45
428,25	1247,21
428,45	1292,27
428,66	1253,36
428,86	1208,30
429,07	1318,89
429,28	1214,45
429,48	1351,66
429,69	1222,64
429,89	1325,04
430,10	1267,69
430,30	1331,18
430,51	1306,60
430,71	1144,81
430,92	1298,41
431,13	1292,27
431,33	1218,54
431,54	1298,41
431,74	1249,26
431,95	1355,76
432,15	1277,93
432,36	1290,22
432,56	1202,16
432,77	1329,13
432,98	1241,07
433,18	1208,30
433,39	1294,32
433,59	1339,37
433,80	1294,32
434,00	1296,36
434,21	1327,08
434,41	1253,36
434,62	1236,97
434,82	1290,22
435,03	1245,16
435,23	1212,40
435,44	1261,55
435,64	1216,49
435,85	1277,93
436,06	1304,56
436,26	1292,27
436,47	1284,08
436,67	1230,83
436,88	1255,40
437,08	1214,45
437,29	1304,56
437,49	1292,27
437,70	1279,98
437,90	1273,84
438,11	1306,60
438,31	1234,93
438,52	1292,27
438,72	1279,98
438,93	1316,84
439,13	1314,80
439,34	1290,22
439,54	1257,45
439,75	1279,98
439,95	1251,31
440,16	1316,84
440,36	1218,54
440,57	1263,60
440,77	1320,94
440,98	1271,79
441,18	1298,41
441,39	1273,84
441,59	1298,41
441,80	1322,99
442,00	1261,55
442,21	1288,17
442,41	1339,37
442,62	1214,45
442,82	1214,45
443,02	1298,41
443,23	1263,60
443,43	1275,88
443,64	1255,40
443,84	1234,93
444,05	1327,08
444,25	1286,12
444,46	1222,64
444,66	1269,74
444,87	1302,51
445,07	1257,45
445,28	1335,28
445,48	1335,28
445,69	1345,52
445,89	1247,21
446,09	1275,88
446,30	1345,52
446,50	1300,46
446,71	1202,16
446,91	1286,12
447,12	1318,89
447,32	1279,98
447,53	1329,13
447,73	1255,40
447,93	1189,87
448,14	1347,56
448,34	1302,51
448,55	1249,26
448,75	1288,17
448,96	1304,56
449,16	1247,21
449,36	1282,03
449,57	1353,71
449,77	1247,21
449,98	1288,17
450,18	1284,08
450,39	1329,13
450,59	1255,40
450,79	1286,12
451,00	1267,69
451,20	1269,74
451,41	1318,89
451,61	1296,36
451,81	1298,41
452,02	1294,32
452,22	1232,88
452,43	1302,51
452,63	1337,32
452,84	1263,60
453,04	1236,97
453,24	1302,51
453,45	1304,56
453,65	1245,16
453,86	1316,84
454,06	1329,13
454,26	1306,60
454,47	1230,83
454,67	1234,93
454,87	1294,32
455,08	1251,31
455,28	1337,32
455,49	1255,40
455,69	1318,89
455,89	1306,60
456,10	1245,16
456,30	1243,12
456,51	1288,17
456,71	1269,74
456,91	1279,98
457,12	1267,69
457,32	1230,83
457,52	1265,64
457,73	1312,75
457,93	1322,99
458,14	1302,51
458,34	1243,12
458,54	1314,80
458,75	1247,21
458,95	1251,31
459,15	1265,64
459,36	1243,12
459,56	1259,50
459,76	1267,69
459,97	1245,16
460,17	1243,12
460,37	1337,32
460,58	1294,32
460,78	1337,32
460,99	1249,26
461,19	1306,60
461,39	1308,65
461,60	1314,80
461,80	1275,88
462,00	1222,64
462,21	1296,36
462,41	1277,93
462,61	1282,03
462,82	1251,31
463,02	1314,80
463,22	1290,22
463,43	1241,07
463,63	1255,40
463,83	1255,40
464,04	1263,60
464,24	1292,27
464,44	1249,26
464,64	1296,36
464,85	1288,17
465,05	1187,82
465,25	1314,80
465,46	1183,73
465,66	1230,83
465,86	1279,98
466,07	1249,26
466,27	1312,75
466,47	1279,98
466,68	1247,21
466,88	1251,31
467,08	1239,02
467,29	1302,51
467,49	1288,17
467,69	1236,97
467,89	1267,69
468,10	1363,95
468,30	1333,23
468,50	1185,77
468,71	1331,18
468,91	1263,60
469,11	1312,75
469,31	1310,70
469,52	1161,20
469,72	1243,12
469,92	1296,36
470,13	1273,84
470,33	1277,93
470,53	1331,18
470,73	1269,74
470,94	1282,03
471,14	1343,47
471,34	1310,70
471,54	1259,50
471,75	1226,73
471,95	1314,80
472,15	1259,50
472,36	1327,08
472,56	1255,40
472,76	1232,88
472,96	1298,41
473,17	1257,45
473,37	1282,03
473,57	1298,41
473,77	1314,80
473,98	1294,32
474,18	1241,07
474,38	1263,60
474,58	1304,56
474,79	1322,99
474,99	1331,18
475,19	1273,84
475,39	1198,06
475,60	1271,79
475,80	1296,36
476,00	1290,22
476,20	1251,31
476,41	1277,93
476,61	1275,88
476,81	1255,40
477,01	1261,55
477,21	1228,78
477,42	1288,17
477,62	1245,16
477,82	1275,88
478,02	1247,21
478,23	1329,13
478,43	1261,55
478,63	1210,35
478,83	1329,13
479,03	1314,80
479,24	1236,97
479,44	1339,37
479,64	1333,23
479,84	1261,55
480,04	1204,21
480,25	1337,32
480,45	1306,60
480,65	1302,51
480,85	1253,36
481,06	1286,12
481,26	1265,64
481,46	1288,17
481,66	1269,74
481,86	1345,52
482,06	1277,93
482,27	1226,73
482,47	1337,32
482,67	1243,12
482,87	1273,84
483,07	1312,75
483,28	1236,97
483,48	1275,88
483,68	1257,45
483,88	1206,25
484,08	1294,32
484,29	1273,84
484,49	1347,56
484,69	1239,02
484,89	1191,92
485,09	1310,70
485,29	1243,12
485,50	1271,79
485,70	1277,93
485,90	1255,40
486,10	1267,69
486,30	1255,40
486,50	1224,69
486,71	1255,40
486,91	1282,03
487,11	1286,12
487,31	1271,79
487,51	1257,45
487,71	1298,41
487,91	1277,93
488,12	1218,54
488,32	1239,02
488,52	1261,55
488,72	1292,27
488,92	1273,84
489,12	1296,36
489,32	1286,12
489,53	1292,27
489,73	1325,04
489,93	1275,88
490,13	1308,65
490,33	1271,79
490,53	1314,80
490,73	1251,31
490,94	1314,80
491,14	1271,79
491,34	1228,78
491,54	1275,88
491,74	1230,83
491,94	1234,93
492,14	1249,26
492,34	1214,45
492,54	1304,56
492,75	1298,41
492,95	1200,11
493,15	1314,80
493,35	1284,08
493,55	1314,80
493,75	1234,93
493,95	1296,36
494,15	1228,78
494,35	1335,28
494,56	1216,49
494,76	1216,49
494,96	1339,37
495,16	1282,03
495,36	1230,83
495,56	1275,88
495,76	1296,36
495,96	1263,60
496,16	1230,83
496,36	1286,12
496,56	1316,84
496,77	1226,73
496,97	1259,50
497,17	1302,51
497,37	1265,64
497,57	1286,12
497,77	1306,60
497,97	1265,64
498,17	1265,64
498,37	1259,50
498,57	1290,22
498,77	1255,40
498,97	1318,89
499,17	1335,28
499,38	1261,55
499,58	1322,99
499,78	1265,64
499,98	1306,60
500,18	1251,31
500,38	1249,26
500,58	1337,32
500,78	1282,03
500,98	1279,98
501,18	1267,69
501,38	1302,51
501,58	1265,64
501,78	1228,78
501,98	1239,02
502,18	1316,84
502,38	1300,46
502,58	1294,32
502,78	1306,60
502,98	1269,74
503,18	1314,80
503,38	1236,97
503,59	1308,65
503,79	1302,51
503,99	1318,89
504,19	1181,68
504,39	1308,65
504,59	1318,89
504,79	1220,59
504,99	1361,90
505,19	1234,93
505,39	1312,75
505,59	1230,83
505,79	1306,60
505,99	1329,13
506,19	1230,83
506,39	1322,99
506,59	1224,69
506,79	1253,36
506,99	1290,22
507,19	1275,88
507,39	1337,32
507,59	1333,23
507,79	1265,64
507,99	1318,89
508,19	1310,70
508,39	1314,80
508,59	1234,93
508,79	1306,60
508,99	1322,99
509,19	1220,59
509,39	1314,80
509,59	1261,55
509,79	1247,21
509,99	1284,08
510,19	1257,45
510,39	1259,50
510,59	1265,64
510,79	1255,40
510,99	1306,60
511,19	1265,64
511,39	1228,78
511,59	1322,99
511,79	1296,36
511,99	1292,27
512,19	1312,75
512,38	1318,89
512,58	1236,97
512,78	1298,41
512,98	1284,08
513,18	1322,99
513,38	1265,64
513,58	1161,20
513,78	1228,78
513,98	1320,94
514,18	1275,88
514,38	1325,04
514,58	1255,40
514,78	1206,25
514,98	1290,22
515,18	1296,36
515,38	1259,50
515,58	1275,88
515,78	1290,22
515,98	1273,84
516,18	1337,32
516,38	1267,69
516,57	1277,93
516,77	1320,94
516,97	1312,75
517,17	1255,40
517,37	1273,84
517,57	1232,88
517,77	1263,60
517,97	1322,99
518,17	1320,94
518,37	1265,64
518,57	1212,40
518,77	1241,07
518,97	1284,08
519,16	1288,17
519,36	1290,22
519,56	1378,28
519,76	1239,02
519,96	1322,99
520,16	1255,40
520,36	1312,75
520,56	1275,88
520,76	1304,56
520,96	1275,88
521,16	1308,65
521,35	1320,94
521,55	1282,03
521,75	1320,94
521,95	1277,93
522,15	1198,06
522,35	1302,51
522,55	1267,69
522,75	1304,56
522,95	1265,64
523,14	1284,08
523,34	1314,80
523,54	1175,53
523,74	1288,17
523,94	1320,94
524,14	1322,99
524,34	1353,71
524,54	1282,03
524,73	1251,31
524,93	1230,83
525,13	1265,64
525,33	1296,36
525,53	1318,89
525,73	1224,69
525,93	1298,41
526,13	1273,84
526,32	1288,17
526,52	1269,74
526,72	1310,70
526,92	1253,36
527,12	1325,04
527,32	1288,17
527,52	1345,52
527,71	1310,70
527,91	1292,27
528,11	1279,98
528,31	1290,22
528,51	1277,93
528,71	1290,22
528,90	1300,46
529,10	1241,07
529,30	1308,65
529,50	1261,55
529,70	1269,74
529,90	1271,79
530,09	1247,21
530,29	1241,07
530,49	1271,79
530,69	1265,64
530,89	1310,70
531,09	1314,80
531,28	1300,46
531,48	1322,99
531,68	1298,41
531,88	1314,80
532,08	1302,51
532,28	1337,32
532,47	1247,21
532,67	1230,83
532,87	1290,22
533,07	1257,45
533,27	1257,45
533,46	1288,17
533,66	1372,14
533,86	1353,71
534,06	1271,79
534,26	1361,90
534,45	1224,69
534,65	1288,17
534,85	1349,61
535,05	1318,89
535,25	1282,03
535,44	1327,08
535,64	1271,79
535,84	1202,16
536,04	1372,14
536,24	1273,84
536,43	1351,66
536,63	1357,80
536,83	1312,75
537,03	1234,93
537,22	1333,23
537,42	1232,88
537,62	1302,51
537,82	1218,54
538,02	1216,49
538,21	1372,14
538,41	1335,28
538,61	1257,45
538,81	1273,84
539,00	1279,98
539,20	1273,84
539,40	1257,45
539,60	1296,36
539,79	1294,32
539,99	1253,36
540,19	1314,80
540,39	1306,60
540,58	1273,84
540,78	1232,88
540,98	1347,56
541,18	1308,65
541,37	1259,50
541,57	1304,56
541,77	1300,46
541,97	1265,64
542,16	1253,36
542,36	1327,08
542,56	1345,52
542,76	1318,89
542,95	1335,28
543,15	1318,89
543,35	1279,98
543,54	1275,88
543,74	1353,71
543,94	1234,93
544,14	1320,94
544,33	1284,08
544,53	1267,69
544,73	1296,36
544,93	1368,04
545,12	1331,18
545,32	1269,74
545,52	1327,08
545,71	1322,99
545,91	1294,32
546,11	1259,50
546,30	1339,37
546,50	1273,84
546,70	1273,84
546,90	1312,75
547,09	1247,21
547,29	1302,51
547,49	1249,26
547,68	1292,27
547,88	1226,73
548,08	1355,76
548,27	1275,88
548,47	1296,36
548,67	1314,80
548,87	1380,33
549,06	1261,55
549,26	1318,89
549,46	1333,23
549,65	1322,99
549,85	1357,80
550,05	1304,56
550,24	1214,45
550,44	1196,01
550,64	1191,92
550,83	1333,23
551,03	1257,45
551,23	1286,12
551,42	1247,21
551,62	1331,18
551,82	1284,08
552,01	1216,49
552,21	1269,74
552,41	1312,75
552,60	1318,89
552,80	1259,50
553,00	1269,74
553,19	1236,97
553,39	1226,73
553,59	1243,12
553,78	1187,82
553,98	1294,32
554,17	1222,64
554,37	1267,69
554,57	1245,16
554,76	1232,88
554,96	1294,32
555,16	1302,51
555,35	1296,36
555,55	1286,12
555,75	1290,22
555,94	1198,06
556,14	1279,98
556,33	1318,89
556,53	1267,69
556,73	1290,22
556,92	1310,70
557,12	1306,60
557,32	1318,89
557,51	1288,17
557,71	1267,69
557,90	1343,47
558,10	1175,53
558,30	1286,12
558,49	1335,28
558,69	1275,88
558,88	1357,80
559,08	1247,21
559,28	1269,74
559,47	1368,04
559,67	1294,32
559,86	1304,56
560,06	1286,12
560,26	1296,36
560,45	1290,22
560,65	1345,52
560,84	1261,55
561,04	1316,84
561,24	1318,89
561,43	1251,31
561,63	1337,32
561,82	1282,03
562,02	1302,51
562,22	1329,13
562,41	1322,99
562,61	1318,89
562,80	1279,98
563,00	1294,32
563,19	1286,12
563,39	1269,74
563,59	1271,79
563,78	1306,60
563,98	1257,45
564,17	1232,88
564,37	1228,78
564,56	1288,17
564,76	1314,80
564,96	1378,28
565,15	1279,98
565,35	1314,80
565,54	1239,02
565,74	1406,95
565,93	1214,45
566,13	1251,31
566,32	1318,89
566,52	1247,21
566,71	1304,56
566,91	1247,21
567,11	1290,22
567,30	1314,80
567,50	1271,79
567,69	1245,16
567,89	1312,75
568,08	1306,60
568,28	1284,08
568,47	1232,88
568,67	1269,74
568,86	1372,14
569,06	1255,40
569,25	1218,54
569,45	1269,74
569,64	1232,88
569,84	1310,70
570,04	1363,95
570,23	1257,45
570,43	1196,01
570,62	1277,93
570,82	1243,12
571,01	1269,74
571,21	1269,74
571,40	1339,37
571,60	1282,03
571,79	1304,56
571,99	1265,64
572,18	1265,64
572,38	1312,75
572,57	1290,22
572,77	1322,99
572,96	1286,12
573,16	1247,21
573,35	1265,64
573,55	1327,08
573,74	1329,13
573,94	1304,56
574,13	1269,74
574,33	1245,16
574,52	1261,55
574,71	1298,41
574,91	1286,12
575,10	1286,12
575,30	1296,36
575,49	1322,99
575,69	1277,93
575,88	1331,18
576,08	1292,27
576,27	1236,97
576,47	1314,80
576,66	1271,79
576,86	1316,84
577,05	1255,40
577,25	1296,36
577,44	1312,75
577,64	1300,46
577,83	1282,03
578,02	1249,26
578,22	1275,88
578,41	1290,22
578,61	1290,22
578,80	1279,98
579,00	1234,93
579,19	1298,41
579,39	1279,98
579,58	1251,31
579,77	1224,69
579,97	1316,84
580,16	1271,79
580,36	1337,32
580,55	1269,74
580,75	1304,56
580,94	1298,41
581,13	1308,65
581,33	1335,28
581,52	1273,84
581,72	1314,80
581,91	1302,51
582,11	1251,31
582,30	1224,69
582,49	1298,41
582,69	1327,08
582,88	1212,40
583,08	1259,50
583,27	1310,70
583,47	1253,36
583,66	1263,60
583,85	1226,73
584,05	1320,94
584,24	1251,31
584,44	1320,94
584,63	1302,51
584,82	1286,12
585,02	1333,23
585,21	1232,88
585,41	1298,41
585,60	1398,76
585,79	1204,21
585,99	1247,21
586,18	1359,85
586,37	1271,79
586,57	1320,94
586,76	1267,69
586,96	1308,65
587,15	1259,50
587,34	1257,45
587,54	1271,79
587,73	1275,88
587,93	1267,69
588,12	1279,98
588,31	1310,70
588,51	1241,07
588,70	1318,89
588,89	1302,51
589,09	1189,87
589,28	1331,18
589,47	1320,94
589,67	1286,12
589,86	1288,17
590,06	1243,12
590,25	1198,06
590,44	1353,71
590,64	1294,32
590,83	1273,84
591,02	1263,60
591,22	1302,51
591,41	1271,79
591,60	1402,86
591,80	1236,97
591,99	1357,80
592,18	1331,18
592,38	1245,16
592,57	1234,93
592,76	1257,45
592,96	1275,88
593,15	1216,49
593,34	1273,84
593,54	1267,69
593,73	1349,61
593,92	1282,03
594,12	1282,03
594,31	1290,22
594,50	1292,27
594,70	1239,02
594,89	1296,36
595,08	1279,98
595,28	1265,64
595,47	1329,13
595,66	1339,37
595,86	1259,50
596,05	1226,73
596,24	1286,12
596,43	1255,40
596,63	1282,03
596,82	1296,36
597,01	1265,64
597,21	1263,60
597,40	1275,88
597,59	1292,27
597,79	1257,45
597,98	1302,51
598,17	1269,74
598,36	1314,80
598,56	1298,41
598,75	1243,12
598,94	1267,69
599,14	1318,89
599,33	1366,00
599,52	1314,80
599,71	1302,51
599,91	1232,88
600,10	1253,36
600,29	1218,54
600,48	1353,71
600,68	1294,32
600,87	1279,98
601,06	1245,16
601,26	1325,04
601,45	1320,94
601,64	1273,84
601,83	1345,52
602,03	1234,93
602,22	1306,60
602,41	1282,03
602,60	1288,17
602,80	1298,41
602,99	1230,83
603,18	1267,69
603,37	1361,90
603,57	1271,79
603,76	1304,56
603,95	1267,69
604,14	1298,41
604,34	1224,69
604,53	1322,99
604,72	1288,17
604,91	1296,36
605,10	1298,41
605,30	1234,93
605,49	1249,26
605,68	1241,07
605,87	1247,21
606,07	1329,13
606,26	1261,55
606,45	1269,74
606,64	1339,37
606,84	1292,27
607,03	1290,22
607,22	1308,65
607,41	1290,22
607,60	1269,74
607,80	1241,07
607,99	1353,71
608,18	1310,70
608,37	1316,84
608,56	1277,93
608,76	1288,17
608,95	1247,21
609,14	1251,31
609,33	1261,55
609,52	1255,40
609,72	1329,13
609,91	1269,74
610,10	1286,12
610,29	1234,93
610,48	1253,36
610,68	1230,83
610,87	1306,60
611,06	1249,26
611,25	1325,04
611,44	1253,36
611,63	1243,12
611,83	1310,70
612,02	1284,08
612,21	1347,56
612,40	1249,26
612,59	1210,35
612,79	1361,90
612,98	1273,84
613,17	1216,49
613,36	1245,16
613,55	1282,03
613,74	1282,03
613,93	1294,32
614,13	1263,60
614,32	1347,56
614,51	1249,26
614,70	1316,84
614,89	1275,88
615,08	1339,37
615,28	1359,85
615,47	1359,85
615,66	1261,55
615,85	1310,70
616,04	1271,79
616,23	1308,65
616,42	1320,94
616,62	1343,47
616,81	1314,80
617,00	1298,41
617,19	1259,50
617,38	1329,13
617,57	1275,88
617,76	1314,80
617,95	1290,22
618,15	1310,70
618,34	1304,56
618,53	1255,40
618,72	1290,22
618,91	1359,85
619,10	1386,47
619,29	1290,22
619,48	1316,84
619,68	1234,93
619,87	1273,84
620,06	1341,42
620,25	1306,60
620,44	1382,38
620,63	1247,21
620,82	1345,52
621,01	1298,41
621,20	1265,64
621,39	1271,79
621,59	1345,52
621,78	1298,41
621,97	1347,56
622,16	1279,98
622,35	1298,41
622,54	1322,99
622,73	1210,35
622,92	1370,09
623,11	1341,42
623,30	1273,84
623,49	1302,51
623,68	1265,64
623,88	1339,37
624,07	1271,79
624,26	1269,74
624,45	1322,99
624,64	1347,56
624,83	1239,02
625,02	1316,84
625,21	1351,66
625,40	1398,76
625,59	1327,08
625,78	1320,94
625,97	1331,18
626,16	1239,02
626,35	1282,03
626,54	1249,26
626,74	1222,64
626,93	1335,28
627,12	1314,80
627,31	1345,52
627,50	1277,93
627,69	1296,36
627,88	1314,80
628,07	1322,99
628,26	1357,80
628,45	1312,75
628,64	1329,13
628,83	1370,09
629,02	1249,26
629,21	1275,88
629,40	1234,93
629,59	1271,79
629,78	1277,93
629,97	1290,22
630,16	1247,21
630,35	1284,08
630,54	1333,23
630,73	1310,70
630,92	1316,84
631,11	1275,88
631,30	1306,60
631,49	1351,66
631,68	1691,62
631,87	2762,71
632,06	6420,38
632,25	12433,22
632,44	13479,73
632,63	12928,83
632,82	7112,60
633,01	3375,05
633,20	2535,39
633,39	2090,98
633,58	1871,84
633,77	1705,96
633,96	1687,53
634,15	1671,14
634,34	1640,42
634,53	1601,51
634,72	1556,46
634,91	1376,24
635,10	1490,92
635,29	1484,78
635,48	1439,72
635,67	1413,10
635,86	1443,82
636,05	1433,58
636,24	1449,96
636,43	1318,89
636,62	1386,47
636,81	1341,42
637,00	1388,52
637,19	1351,66
637,38	1411,05
637,57	1421,29
637,76	1290,22
637,95	1322,99
638,14	1329,13
638,33	1265,64
638,52	1363,95
638,71	1230,83
638,89	1279,98
639,08	1339,37
639,27	1312,75
639,46	1327,08
639,65	1234,93
639,84	1243,12
640,03	1263,60
640,22	1275,88
640,41	1296,36
640,60	1304,56
640,79	1249,26
640,98	1267,69
641,17	1257,45
641,36	1241,07
641,55	1296,36
641,74	1288,17
641,92	1263,60
642,11	1245,16
642,30	1306,60
642,49	1245,16
642,68	1316,84
642,87	1304,56
643,06	1236,97
643,25	1312,75
643,44	1302,51
643,63	1243,12
643,82	1279,98
644,00	1296,36
644,19	1341,42
644,38	1349,61
644,57	1241,07
644,76	1204,21
644,95	1327,08
645,14	1329,13
645,33	1279,98
645,52	1292,27
645,71	1253,36
645,89	1335,28
646,08	1224,69
646,27	1275,88
646,46	1273,84
646,65	1271,79
646,84	1406,95
647,03	1304,56
647,22	1329,13
647,40	1234,93
647,59	1275,88
647,78	1277,93
647,97	1277,93
648,16	1349,61
648,35	1257,45
648,54	1277,93
648,73	1279,98
648,91	1337,32
649,10	1232,88
649,29	1310,70
649,48	1294,32
649,67	1228,78
649,86	1325,04
650,05	1259,50
650,23	1349,61
650,42	1279,98
650,61	1239,02
650,80	1249,26
650,99	1298,41
651,18	1226,73
651,36	1277,93
651,55	1322,99
651,74	1247,21
651,93	1253,36
652,12	1282,03
652,31	1243,12
652,49	1310,70
652,68	1269,74
652,87	1292,27
653,06	1284,08
653,25	1329,13
653,44	1259,50
653,62	1382,38
653,81	1300,46
654,00	1259,50
654,19	1288,17
654,38	1292,27
654,56	1273,84
654,75	1288,17
654,94	1298,41
655,13	1271,79
655,32	1208,30
655,51	1304,56
655,69	1265,64
655,88	1239,02
656,07	1271,79
656,26	1236,97
656,45	1263,60
656,63	1259,50
656,82	1243,12
657,01	1322,99
657,20	1257,45
657,38	1277,93
657,57	1239,02
657,76	1273,84
657,95	1208,30
658,14	1279,98
658,32	1175,53
658,51	1290,22
658,70	1282,03
658,89	1345,52
659,08	1273,84
659,26	1302,51
659,45	1228,78
659,64	1288,17
659,83	1279,98
660,01	1247,21
660,20	1320,94
660,39	1222,64
660,58	1267,69
660,76	1239,02
660,95	1316,84
661,14	1214,45
661,33	1234,93
661,51	1273,84
661,70	1263,60
661,89	1318,89
662,08	1204,21
662,26	1325,04
662,45	1290,22
662,64	1202,16
662,83	1282,03
663,01	1294,32
663,20	1304,56
663,39	1314,80
663,58	1298,41
663,76	1292,27
663,95	1318,89
664,14	1234,93
664,32	1239,02
664,51	1273,84
664,70	1275,88
664,89	1236,97
665,07	1214,45
665,26	1226,73
665,45	1226,73
665,64	1308,65
665,82	1337,32
666,01	1308,65
666,20	1269,74
666,38	1282,03
666,57	1304,56
666,76	1306,60
666,95	1271,79
667,13	1302,51
667,32	1325,04
667,51	1241,07
667,69	1339,37
667,88	1300,46
668,07	1318,89
668,25	1284,08
668,44	1300,46
668,63	1226,73
668,81	1277,93
669,00	1232,88
669,19	1269,74
669,38	1263,60
669,56	1263,60
669,75	1232,88
669,94	1370,09
670,12	1265,64
670,31	1247,21
670,50	1273,84
670,68	1279,98
670,87	1232,88
671,06	1171,44
671,24	1269,74
671,43	1263,60
671,62	1279,98
671,80	1212,40
671,99	1273,84
672,18	1335,28
672,36	1322,99
672,55	1290,22
672,74	1374,19
672,92	1265,64
673,11	1339,37
673,29	1249,26
673,48	1325,04
673,67	1275,88
673,85	1296,36
674,04	1290,22
674,23	1232,88
674,41	1300,46
674,60	1216,49
674,79	1314,80
674,97	1249,26
675,16	1294,32
675,34	1236,97
675,53	1318,89
675,72	1288,17
675,90	1241,07
676,09	1312,75
676,28	1261,55
676,46	1267,69
676,65	1304,56
676,83	1208,30
677,02	1191,92
677,21	1279,98
677,39	1241,07
677,58	1312,75
677,77	1226,73
677,95	1263,60
678,14	1261,55
678,32	1298,41
678,51	1269,74
678,70	1294,32
678,88	1228,78
679,07	1261,55
679,25	1267,69
679,44	1286,12
679,63	1251,31
679,81	1357,80
680,00	1279,98
680,18	1335,28
680,37	1228,78
680,55	1288,17
680,74	1277,93
680,93	1316,84
681,11	1374,19
681,30	1206,25
681,48	1263,60
681,67	1236,97
681,85	1273,84
682,04	1273,84
682,23	1255,40
682,41	1261,55
682,60	1339,37
682,78	1286,12
682,97	1314,80
683,15	1333,23
683,34	1337,32
683,53	1394,67
683,71	1314,80
683,90	1343,47
684,08	1290,22
684,27	1271,79
684,45	1316,84
684,64	1304,56
684,82	1331,18
685,01	1286,12
685,19	1310,70
685,38	1314,80
685,57	1282,03
685,75	1382,38
685,94	1259,50
686,12	1261,55
686,31	1290,22
686,49	1300,46
686,68	1288,17
686,86	1277,93
687,05	1292,27
687,23	1353,71
687,42	1247,21
687,60	1286,12
687,79	1243,12
687,97	1298,41
688,16	1290,22
688,34	1302,51
688,53	1275,88
688,71	1312,75
688,90	1310,70
689,08	1249,26
689,27	1241,07
689,45	1200,11
689,64	1271,79
689,82	1271,79
690,01	1290,22
690,19	1314,80
690,38	1286,12
690,56	1294,32
690,75	1333,23
690,93	1249,26
691,12	1243,12
691,30	1288,17
691,49	1208,30
691,67	1214,45
691,86	1239,02
692,04	1208,30
692,23	1193,97
692,41	1261,55
692,60	1341,42
692,78	1249,26
692,97	1325,04
693,15	1253,36
693,34	1347,56
693,52	1335,28
693,71	1236,97
693,89	1259,50
694,08	1232,88
694,26	1290,22
694,44	1232,88
694,63	1310,70
694,81	1314,80
695,00	1263,60
695,18	1288,17
695,37	1226,73
695,55	1304,56
695,74	1261,55
695,92	1255,40
696,10	1243,12
696,29	1228,78
696,47	1265,64
696,66	1247,21
696,84	1249,26
697,03	1277,93
697,21	1312,75
697,40	1322,99
697,58	1265,64
697,76	1300,46
697,95	1226,73
698,13	1322,99
698,32	1247,21
698,50	1312,75
698,68	1284,08
698,87	1329,13
699,05	1308,65
699,24	1245,16
699,42	1361,90
699,61	1210,35
699,79	1257,45
699,97	1284,08
700,16	1302,51
700,34	1251,31
700,53	1288,17
700,71	1294,32
700,89	1304,56
701,08	1243,12
701,26	1288,17
701,45	1247,21
701,63	1296,36
701,81	1249,26
702,00	1318,89
702,18	1329,13
702,37	1314,80
702,55	1263,60
702,73	1304,56
702,92	1253,36
703,10	1206,25
703,28	1312,75
703,47	1257,45
703,65	1300,46
703,84	1273,84
704,02	1310,70
704,20	1279,98
704,39	1310,70
704,57	1263,60
704,75	1298,41
704,94	1306,60
705,12	1265,64
705,30	1312,75
705,49	1232,88
705,67	1282,03
705,86	1376,24
706,04	1239,02
706,22	1325,04
706,41	1298,41
706,59	1302,51
706,77	1288,17
706,96	1310,70
707,14	1216,49
707,32	1269,74
707,51	1394,67
707,69	1294,32
707,87	1259,50
708,06	1345,52
708,24	1224,69
708,42	1275,88
708,61	1255,40
708,79	1304,56
708,97	1345,52
709,16	1204,21
709,34	1306,60
709,52	1261,55
709,71	1247,21
709,89	1284,08
710,07	1208,30
710,26	1236,97
710,44	1228,78
710,62	1288,17
710,80	1284,08
710,99	1263,60
711,17	1271,79
711,35	1304,56
711,54	1296,36
711,72	1302,51
711,90	1302,51
712,09	1277,93
712,27	1304,56
712,45	1290,22
712,63	1261,55
712,82	1339,37
713,00	1247,21
713,18	1304,56
713,37	1300,46
713,55	1275,88
713,73	1288,17
713,91	1345,52
714,10	1275,88
714,28	1288,17
714,46	1261,55
714,65	1339,37
714,83	1222,64
715,01	1294,32
715,19	1259,50
715,38	1228,78
715,56	1232,88
715,74	1273,84
715,92	1304,56
716,11	1335,28
716,29	1286,12
716,47	1275,88
716,65	1255,40
716,84	1298,41
717,02	1257,45
717,20	1249,26
717,38	1273,84
717,57	1292,27
717,75	1282,03
717,93	1239,02
718,11	1316,84
718,30	1306,60
718,48	1239,02
718,66	1277,93
718,84	1247,21
719,03	1271,79
719,21	1271,79
719,39	1331,18
719,57	1288,17
719,75	1306,60
719,94	1279,98
720,12	1220,59
720,30	1298,41
720,48	1376,24
720,67	1269,74
720,85	1271,79
721,03	1314,80
721,21	1318,89
721,39	1335,28
721,58	1300,46
721,76	1251,31
721,94	1339,37
722,12	1255,40
722,30	1294,32
722,49	1214,45
722,67	1279,98
722,85	1273,84
723,03	1265,64
723,21	1269,74
723,40	1259,50
723,58	1245,16
723,76	1222,64
723,94	1292,27
724,12	1314,80
724,30	1239,02
724,49	1288,17
724,67	1210,35
724,85	1220,59
725,03	1292,27
725,21	1302,51
725,40	1239,02
725,58	1275,88
725,76	1306,60
725,94	1331,18
726,12	1271,79
726,30	1228,78
726,49	1290,22
726,67	1279,98
726,85	1306,60
727,03	1279,98
727,21	1292,27
727,39	1304,56
727,57	1282,03
727,76	1269,74
727,94	1193,97
728,12	1331,18
728,30	1366,00
728,48	1275,88
728,66	1251,31
728,84	1292,27
729,03	1226,73
729,21	1261,55
729,39	1329,13
729,57	1212,40
729,75	1337,32
729,93	1261,55
730,11	1245,16
730,30	1214,45
730,48	1263,60
730,66	1226,73
730,84	1267,69
731,02	1228,78
731,20	1261,55
731,38	1275,88
731,56	1263,60
731,74	1259,50
731,93	1206,25
732,11	1288,17
732,29	1300,46
732,47	1269,74
732,65	1320,94
732,83	1327,08
733,01	1286,12
733,19	1251,31
733,37	1222,64
733,56	1261,55
733,74	1329,13
733,92	1247,21
734,10	1374,19
734,28	1232,88
734,46	1300,46
734,64	1263,60
734,82	1271,79
735,00	1306,60
735,18	1298,41
735,36	1306,60
735,54	1214,45
735,73	1271,79
735,91	1271,79
736,09	1355,76
736,27	1265,64
736,45	1288,17
736,63	1298,41
736,81	1241,07
736,99	1306,60
737,17	1251,31
737,35	1255,40
737,53	1261,55
737,71	1327,08
737,89	1314,80
738,07	1314,80
738,25	1251,31
738,43	1298,41
738,61	1286,12
738,80	1286,12
738,98	1232,88
739,16	1249,26
739,34	1251,31
739,52	1292,27
739,70	1210,35
739,88	1259,50
740,06	1259,50
740,24	1255,40
740,42	1251,31
740,60	1251,31
740,78	1357,80
740,96	1277,93
741,14	1224,69
741,32	1302,51
741,50	1241,07
741,68	1337,32
741,86	1333,23
742,04	1269,74
742,22	1234,93
742,40	1288,17
742,58	1298,41
742,76	1216,49
742,94	1384,43
743,12	1267,69
743,30	1282,03
743,48	1261,55
743,66	1212,40
743,84	1265,64
744,02	1263,60
744,20	1345,52
744,38	1259,50
744,56	1269,74
744,74	1267,69
744,92	1253,36
745,10	1267,69
745,28	1249,26
745,46	1200,11
745,64	1255,40
745,82	1251,31
746,00	1224,69
746,18	1306,60
746,36	1286,12
746,54	1239,02
746,72	1298,41
746,90	1269,74
747,08	1300,46
747,26	1316,84
747,44	1292,27
747,62	1247,21
747,80	1298,41
747,98	1282,03
748,15	1245,16
748,33	1378,28
748,51	1241,07
748,69	1273,84
748,87	1316,84
749,05	1267,69
749,23	1275,88
749,41	1284,08
749,59	1263,60
749,77	1208,30
749,95	1255,40
750,13	1202,16
750,31	1208,30
750,49	1232,88
750,67	1241,07
750,85	1327,08
751,03	1316,84
751,20	1239,02
751,38	1241,07
751,56	1284,08
751,74	1257,45
751,92	1148,91
752,10	1294,32
752,28	1363,95
752,46	1239,02
752,64	1322,99
752,82	1198,06
753,00	1239,02
753,18	1279,98
753,35	1249,26
753,53	1265,64
753,71	1286,12
753,89	1312,75
754,07	1247,21
754,25	1318,89
754,43	1265,64
754,61	1300,46
754,79	1294,32
754,97	1273,84
755,14	1265,64
755,32	1318,89
755,50	1218,54
755,68	1257,45
755,86	1230,83
756,04	1306,60
756,22	1327,08
756,40	1284,08
756,57	1322,99
756,75	1255,40
756,93	1257,45
757,11	1304,56
757,29	1288,17
757,47	1284,08
757,65	1202,16
757,82	1218,54
758,00	1202,16
758,18	1226,73
758,36	1222,64
758,54	1245,16
758,72	1257,45
758,90	1306,60
759,07	1263,60
759,25	1208,30
759,43	1247,21
759,61	1325,04
759,79	1312,75
759,97	1294,32
760,15	1187,82
760,32	1361,90
760,50	1286,12
760,68	1273,84
760,86	1226,73
761,04	1224,69
761,22	1249,26
761,39	1286,12
761,57	1310,70
761,75	1183,73
761,93	1296,36
762,11	1255,40
762,28	1243,12
762,46	1261,55
762,64	1269,74
762,82	1306,60
763,00	1232,88
763,18	1239,02
763,35	1275,88
763,53	1296,36
763,71	1290,22
763,89	1302,51
764,07	1267,69
764,24	1294,32
764,42	1206,25
764,60	1222,64
764,78	1243,12
764,96	1247,21
765,13	1234,93
765,31	1288,17
765,49	1236,97
765,67	1308,65
765,84	1228,78
766,02	1314,80
766,20	1259,50
766,38	1228,78
766,56	1282,03
766,73	1288,17
766,91	1349,61
767,09	1331,18
767,27	1247,21
767,44	1230,83
767,62	1308,65
767,80	1300,46
767,98	1206,25
768,15	1232,88
768,33	1253,36
768,51	1320,94
768,69	1296,36
768,87	1306,60
769,04	1314,80
769,22	1239,02
769,40	1282,03
769,58	1331,18
769,75	1308,65
769,93	1316,84
770,11	1304,56
770,28	1245,16
770,46	1236,97
770,64	1310,70
770,82	1310,70
770,99	1261,55
771,17	1282,03
771,35	1288,17
771,53	1181,68
771,70	1335,28
771,88	1200,11
772,06	1288,17
772,23	1257,45
772,41	1239,02
772,59	1226,73
772,77	1302,51
772,94	1331,18
773,12	1273,84
773,30	1191,92
773,47	1304,56
773,65	1316,84
773,83	1247,21
774,01	1212,40
774,18	1296,36
774,36	1282,03
774,54	1298,41
774,71	1306,60
774,89	1208,30
775,07	1286,12
775,24	1267,69
775,42	1265,64
775,60	1265,64
775,78	1204,21
775,95	1279,98
776,13	1214,45
776,31	1257,45
776,48	1255,40
776,66	1312,75
776,84	1269,74
777,01	1271,79
777,19	1198,06
777,37	1245,16
777,54	1279,98
777,72	1263,60
777,90	1249,26
778,07	1294,32
778,25	1349,61
778,43	1273,84
778,60	1271,79
778,78	1329,13
778,96	1236,97
779,13	1294,32
779,31	1224,69
779,49	1255,40
779,66	1282,03
779,84	1273,84
780,01	1232,88
780,19	1255,40
780,37	1247,21
780,54	1318,89
780,72	1275,88
780,90	1286,12
781,07	1247,21
781,25	1327,08
781,43	1259,50
781,60	1329,13
781,78	1304,56
781,95	1275,88
782,13	1236,97
782,31	1314,80
782,48	1247,21
782,66	1222,64
782,83	1294,32
783,01	1259,50
783,19	1191,92
783,36	1292,27
783,54	1300,46
783,72	1261,55
783,89	1277,93
784,07	1241,07
784,24	1253,36
784,42	1322,99
784,60	1255,40
784,77	1286,12
784,95	1267,69
785,12	1243,12
785,30	1255,40
785,47	1265,64
785,65	1224,69
785,83	1294,32
786,00	1236,97
786,18	1198,06
786,35	1214,45
786,53	1241,07
786,71	1263,60
786,88	1263,60
787,06	1353,71
787,23	1251,31
787,41	1261,55
787,58	1300,46
787,76	1271,79
787,94	1249,26
788,11	1216,49
788,29	1271,79
788,46	1247,21
788,64	1257,45
788,81	1279,98
788,99	1253,36
789,16	1282,03
789,34	1288,17
789,52	1304,56
789,69	1345,52
789,87	1214,45
790,04	1230,83
790,22	1243,12
790,39	1306,60
790,57	1292,27
790,74	1275,88
790,92	1247,21
791,09	1316,84
791,27	1275,88
791,44	1282,03
791,62	1249,26
791,79	1298,41
791,97	1257,45
792,15	1306,60
792,32	1191,92
792,50	1288,17
792,67	1294,32
792,85	1183,73
793,02	1257,45
793,20	1292,27
793,37	1247,21
793,55	1296,36
793,72	1216,49
793,90	1267,69
794,07	1279,98
794,25	1208,30
794,42	1230,83
794,60	1257,45
794,77	1191,92
794,95	1288,17
795,12	1249,26
795,30	1277,93
795,47	1255,40
795,65	1290,22
795,82	1316,84
796,00	1320,94
796,17	1208,30
796,34	1296,36
796,52	1288,17
796,69	1329,13
796,87	1310,70
797,04	1288,17
797,22	1316,84
797,39	1304,56
797,57	1290,22
797,74	1261,55
797,92	1267,69
798,09	1275,88
798,27	1206,25
798,44	1292,27
798,62	1273,84
798,79	1255,40
798,96	1263,60
799,14	1265,64
799,31	1308,65
799,49	1247,21
799,66	1302,51
799,84	1290,22
800,01	1232,88
800,19	1247,21
800,36	1196,01
800,53	1216,49
800,71	1294,32
800,88	1263,60
801,06	1347,56
801,23	1300,46
801,41	1241,07
801,58	1304,56
801,75	1306,60
801,93	1339,37
802,10	1290,22
802,28	1302,51
802,45	1263,60
802,63	1232,88
802,80	1269,74
802,97	1269,74
803,15	1261,55
803,32	1261,55
803,50	1298,41
803,67	1269,74
803,84	1261,55
804,02	1234,93
804,19	1263,60
804,37	1296,36
804,54	1261,55
804,71	1261,55
804,89	1310,70
805,06	1282,03
805,24	1296,36
805,41	1249,26
805,58	1273,84
805,76	1329,13
805,93	1247,21
806,10	1335,28
806,28	1198,06
806,45	1232,88
806,63	1193,97
806,80	1286,12
806,97	1294,32
807,15	1204,21
807,32	1304,56
807,49	1271,79
807,67	1277,93
807,84	1247,21
808,01	1210,35
808,19	1347,56
808,36	1273,84
808,54	1222,64
808,71	1253,36
808,88	1306,60
809,06	1314,80
809,23	1322,99
809,40	1333,23
809,58	1325,04
809,75	1312,75
809,92	1249,26
810,10	1224,69
810,27	1236,97
810,44	1351,66
810,62	1322,99
810,79	1239,02
810,96	1239,02
811,14	1259,50
811,31	1265,64
811,48	1306,60
811,66	1224,69
811,83	1255,40
812,00	1298,41
812,18	1302,51
812,35	1265,64
812,52	1302,51
812,69	1228,78
812,87	1261,55
813,04	1214,45
813,21	1294,32
813,39	1271,79
813,56	1232,88
813,73	1292,27
813,91	1290,22
814,08	1189,87
814,25	1298,41
814,42	1157,10
814,60	1275,88
814,77	1210,35
814,94	1210,35
815,12	1302,51
815,29	1214,45
815,46	1288,17
815,63	1251,31
815,81	1228,78
815,98	1247,21
816,15	1224,69
816,33	1308,65
816,50	1200,11
816,67	1218,54
816,84	1269,74
817,02	1271,79
817,19	1259,50
817,36	1286,12
817,53	1320,94
817,71	1310,70
817,88	1290,22
818,05	1224,69
818,22	1222,64
818,40	1320,94
818,57	1249,26
818,74	1241,07
818,91	1282,03
819,09	1234,93
819,26	1277,93
819,43	1275,88
819,60	1298,41
819,78	1355,76
819,95	1193,97
820,12	1204,21
820,29	1239,02
820,47	1361,90
820,64	1232,88
820,81	1230,83
820,98	1290,22
821,15	1255,40
821,33	1253,36
821,50	1290,22
821,67	1325,04
821,84	1265,64
822,02	1251,31
822,19	1226,73
822,36	1282,03
822,53	1306,60
822,70	1296,36
822,88	1243,12
823,05	1304,56
823,22	1298,41
823,39	1294,32
823,56	1314,80
823,74	1218,54
823,91	1212,40
824,08	1284,08
824,25	1200,11
824,42	1226,73
824,60	1292,27
824,77	1212,40
824,94	1226,73
825,11	1298,41
825,28	1288,17
825,45	1296,36
825,63	1236,97
825,80	1329,13
825,97	1243,12
826,14	1314,80
826,31	1249,26
826,48	1298,41
826,66	1222,64
826,83	1277,93
827,00	1275,88
827,17	1339,37
827,34	1294,32
827,51	1271,79
827,69	1255,40
827,86	1374,19
828,03	1271,79
828,20	1271,79
828,37	1214,45
828,54	1206,25
828,71	1302,51
828,89	1263,60
829,06	1275,88
829,23	1277,93
829,40	1239,02
829,57	1261,55
829,74	1277,93
829,91	1236,97
830,09	1249,26
830,26	1331,18
830,43	1257,45
830,60	1339,37
830,77	1267,69
830,94	1208,30
831,11	1259,50
831,28	1304,56
831,46	1271,79
831,63	1263,60
831,80	1265,64
831,97	1265,64
832,14	1257,45
832,31	1214,45
832,48	1263,60
832,65	1269,74
832,82	1269,74
832,99	1271,79
833,17	1212,40
833,34	1232,88
833,51	1306,60
833,68	1232,88
833,85	1327,08
834,02	1265,64
834,19	1279,98
834,36	1275,88
834,53	1288,17
834,70	1288,17
834,87	1265,64
835,04	1265,64
835,22	1288,17
835,39	1214,45
835,56	1302,51
835,73	1339,37
835,90	1294,32
836,07	1222,64
836,24	1208,30
836,41	1245,16
836,58	1331,18
836,75	1325,04
836,92	1218,54
837,09	1230,83
837,26	1314,80
837,43	1265,64
837,60	1257,45
837,77	1286,12
837,94	1204,21
838,12	1286,12
838,29	1206,25
838,46	1263,60
838,63	1224,69
838,80	1282,03
838,97	1255,40
839,14	1320,94
839,31	1251,31
839,48	1322,99
839,65	1300,46
839,82	1257,45
839,99	1325,04
840,16	1210,35
840,33	1290,22
840,50	1288,17
840,67	1316,84
840,84	1347,56
841,01	1236,97
841,18	1265,64
841,35	1245,16
841,52	1265,64
841,69	1316,84
841,86	1232,88
842,03	1212,40
842,20	1282,03
842,37	1269,74
842,54	1273,84
842,71	1294,32
842,88	1310,70
843,05	1243,12
843,22	1327,08
843,39	1329,13
843,56	1218,54
843,73	1251,31
843,90	1251,31
844,07	1288,17
844,24	1320,94
844,41	1277,93
844,58	1335,28
844,75	1257,45
844,92	1271,79
845,09	1241,07
845,26	1261,55
845,43	1243,12
845,60	1284,08
845,77	1220,59
845,94	1288,17
846,10	1282,03
846,27	1265,64
846,44	1193,97
846,61	1279,98
846,78	1228,78
846,95	1296,36
847,12	1224,69
847,29	1175,53
847,46	1263,60
847,63	1288,17
847,80	1257,45
847,97	1269,74
848,14	1288,17
848,31	1214,45
848,48	1306,60
848,65	1310,70
848,82	1236,97
848,98	1279,98
849,15	1302,51
849,32	1292,27
849,49	1316,84
849,66	1302,51
849,83	1294,32
850,00	1265,64
850,17	1230,83
850,34	1298,41
850,51	1290,22
850,68	1265,64
850,85	1265,64
851,01	1257,45
851,18	1279,98
851,35	1322,99
851,52	1267,69
851,69	1331,18
851,86	1290,22
852,03	1273,84
852,20	1288,17
852,37	1277,93
852,53	1187,82
852,70	1374,19
852,87	1298,41
853,04	1277,93
853,21	1234,93
853,38	1265,64
853,55	1331,18
853,72	1298,41
853,89	1302,51
854,05	1273,84
854,22	1193,97
854,39	1267,69
854,56	1292,27
854,73	1351,66
854,90	1232,88
855,07	1368,04
855,23	1341,42
855,40	1245,16
855,57	1339,37
855,74	1329,13
855,91	1310,70
856,08	1310,70
856,25	1265,64
856,41	1239,02
856,58	1263,60
856,75	1243,12
856,92	1292,27
857,09	1288,17
857,26	1257,45
857,42	1212,40
857,59	1335,28
857,76	1200,11
857,93	1267,69
858,10	1261,55
858,27	1230,83
858,43	1228,78
858,60	1251,31
858,77	1294,32
858,94	1241,07
859,11	1257,45
859,27	1298,41
859,44	1279,98
859,61	1249,26
859,78	1208,30
859,95	1298,41
860,12	1200,11
860,28	1261,55
860,45	1257,45
860,62	1257,45
860,79	1339,37
860,95	1193,97
861,12	1329,13
861,29	1253,36
861,46	1232,88
861,63	1249,26
861,79	1294,32
861,96	1308,65
862,13	1255,40
862,30	1245,16
862,47	1282,03
862,63	1255,40
862,80	1284,08
862,97	1286,12
863,14	1306,60
863,30	1214,45
863,47	1271,79
863,64	1196,01
863,81	1251,31
863,97	1282,03
864,14	1263,60
864,31	1241,07
864,48	1263,60
864,65	1243,12
864,81	1296,36
864,98	1224,69
865,15	1298,41
865,32	1286,12
865,48	1222,64
865,65	1249,26
865,82	1245,16
865,98	1251,31
866,15	1267,69
866,32	1300,46
866,49	1282,03
866,65	1232,88
866,82	1220,59
866,99	1339,37
867,16	1263,60
867,32	1298,41
867,49	1288,17
867,66	1273,84
867,83	1267,69
867,99	1222,64
868,16	1312,75
868,33	1259,50
868,49	1290,22
868,66	1298,41
868,83	1279,98
868,99	1243,12
869,16	1284,08
869,33	1275,88
869,50	1263,60
869,66	1210,35
869,83	1277,93
870,00	1263,60
870,16	1284,08
870,33	1255,40
870,50	1257,45
870,66	1216,49
870,83	1257,45
871,00	1257,45
871,17	1222,64
871,33	1259,50
871,50	1290,22
871,67	1314,80
871,83	1277,93
872,00	1363,95
872,17	1325,04
872,33	1288,17
872,50	1300,46
872,67	1263,60
872,83	1228,78
873,00	1263,60
873,17	1316,84
873,33	1226,73
873,50	1331,18
873,67	1255,40
873,83	1294,32
874,00	1214,45
874,16	1302,51
874,33	1245,16
874,50	1347,56
874,66	1241,07
874,83	1296,36
875,00	1218,54
875,16	1290,22
875,33	1271,79
875,50	1279,98
875,66	1241,07
875,83	1255,40
875,99	1318,89
876,16	1245,16
876,33	1388,52
876,49	1306,60
876,66	1357,80
876,83	1228,78
876,99	1230,83
877,16	1290,22
877,32	1325,04
877,49	1249,26
877,66	1318,89
877,82	1279,98
877,99	1284,08
878,15	1265,64
878,32	1236,97
878,49	1249,26
878,65	1255,40
878,82	1273,84
878,98	1310,70
879,15	1249,26
879,32	1241,07
879,48	1292,27
879,65	1284,08
879,81	1298,41
879,98	1212,40
880,15	1312,75
880,31	1265,64
880,48	1320,94
880,64	1318,89
880,81	1282,03
880,97	1234,93
881,14	1282,03
881,31	1300,46
881,47	1257,45
881,64	1282,03
881,80	1236,97
881,97	1241,07
882,13	1308,65
882,30	1247,21
882,47	1241,07
882,63	1257,45
882,80	1232,88
882,96	1249,26
883,13	1243,12
883,29	1265,64
883,46	1347,56
883,62	1286,12
883,79	1232,88
883,95	1232,88
884,12	1314,80
884,29	1282,03
884,45	1241,07
884,62	1236,97
884,78	1222,64
884,95	1265,64
885,11	1259,50
885,28	1294,32
885,44	1306,60
885,61	1335,28
885,77	1251,31
885,94	1275,88
886,10	1257,45
886,27	1296,36
886,43	1290,22
886,60	1310,70
886,76	1339,37
886,93	1243,12
887,09	1282,03
887,26	1306,60
887,42	1257,45
887,59	1337,32
887,75	1263,60
887,92	1271,79
888,08	1279,98
888,25	1316,84
888,41	1288,17
888,58	1218,54
888,74	1230,83
888,91	1243,12
>>>>>End Processed Spectral Data<<<<<
