SpectraSuite Data File
++++++++++++++++++++++++++++++++++++
Date: Sun Apr 03 17:08:04 CEST 2016
User: root
Dark Spectrum Present: No
Reference Spectrum Present: No
Number of Sampled Component Spectra: 1
Spectrometers: USB4C02835
Integration Time (usec): 10000 (USB4C02835)
Spectra Averaged: 1 (USB4C02835)
Boxcar Smoothing: 0 (USB4C02835)
Correct for Electrical Dark: No (USB4C02835)
Strobe/Lamp Enabled: No (USB4C02835)
Correct for Detector Non-linearity: No (USB4C02835)
Correct for Stray Light: No (USB4C02835)
Number of Pixels in Processed Spectrum: 3648
>>>>>Begin Processed Spectral Data<<<<<
177,47	1134,57
177,69	1134,57
177,91	1134,57
178,13	1273,84
178,36	1263,60
178,58	1204,21
178,80	1275,88
179,02	1226,73
179,24	1265,64
179,46	1249,26
179,68	1241,07
179,90	1275,88
180,13	1198,06
180,35	1275,88
180,57	1222,64
180,79	1253,36
181,01	1259,50
181,23	1279,98
181,45	1288,17
181,67	1298,41
181,90	1257,45
182,12	1302,51
182,34	1245,16
182,56	1249,26
182,78	1261,55
183,00	1261,55
183,22	1222,64
183,44	1249,26
183,66	1284,08
183,89	1204,21
184,11	1220,59
184,33	1241,07
184,55	1251,31
184,77	1261,55
184,99	1300,46
185,21	1290,22
185,43	1306,60
185,65	1206,25
185,87	1247,21
186,10	1249,26
186,32	1290,22
186,54	1251,31
186,76	1269,74
186,98	1286,12
187,20	1320,94
187,42	1312,75
187,64	1320,94
187,86	1298,41
188,08	1284,08
188,30	1245,16
188,52	1294,32
188,75	1273,84
188,97	1267,69
189,19	1304,56
189,41	1306,60
189,63	1325,04
189,85	1249,26
190,07	1277,93
190,29	1312,75
190,51	1275,88
190,73	1308,65
190,95	1232,88
191,17	1183,73
191,39	1247,21
191,61	1267,69
191,84	1302,51
192,06	1245,16
192,28	1284,08
192,50	1273,84
192,72	1132,53
192,94	1288,17
193,16	1214,45
193,38	1286,12
193,60	1253,36
193,82	1329,13
194,04	1214,45
194,26	1251,31
194,48	1269,74
194,70	1308,65
194,92	1251,31
195,14	1288,17
195,36	1257,45
195,58	1271,79
195,80	1339,37
196,02	1210,35
196,24	1247,21
196,46	1255,40
196,69	1247,21
196,91	1243,12
197,13	1212,40
197,35	1255,40
197,57	1322,99
197,79	1294,32
198,01	1251,31
198,23	1265,64
198,45	1302,51
198,67	1275,88
198,89	1308,65
199,11	1257,45
199,33	1302,51
199,55	1239,02
199,77	1333,23
199,99	1282,03
200,21	1255,40
200,43	1257,45
200,65	1228,78
200,87	1331,18
201,09	1294,32
201,31	1232,88
201,53	1234,93
201,75	1185,77
201,97	1314,80
202,19	1269,74
202,41	1284,08
202,63	1294,32
202,85	1290,22
203,07	1296,36
203,29	1333,23
203,51	1230,83
203,73	1239,02
203,95	1265,64
204,17	1181,68
204,39	1290,22
204,61	1239,02
204,83	1239,02
205,05	1263,60
205,27	1208,30
205,49	1312,75
205,71	1314,80
205,93	1251,31
206,15	1288,17
206,37	1236,97
206,59	1247,21
206,81	1249,26
207,03	1220,59
207,25	1249,26
207,47	1282,03
207,69	1239,02
207,91	1263,60
208,13	1269,74
208,34	1210,35
208,56	1265,64
208,78	1304,56
209,00	1228,78
209,22	1306,60
209,44	1290,22
209,66	1265,64
209,88	1294,32
210,10	1290,22
210,32	1269,74
210,54	1300,46
210,76	1241,07
210,98	1292,27
211,20	1218,54
211,42	1284,08
211,64	1228,78
211,86	1298,41
212,08	1304,56
212,30	1265,64
212,52	1226,73
212,74	1251,31
212,96	1224,69
213,17	1296,36
213,39	1302,51
213,61	1382,38
213,83	1263,60
214,05	1288,17
214,27	1228,78
214,49	1298,41
214,71	1331,18
214,93	1310,70
215,15	1296,36
215,37	1259,50
215,59	1189,87
215,81	1222,64
216,03	1286,12
216,24	1259,50
216,46	1232,88
216,68	1261,55
216,90	1261,55
217,12	1222,64
217,34	1271,79
217,56	1253,36
217,78	1204,21
218,00	1304,56
218,22	1304,56
218,44	1290,22
218,66	1267,69
218,87	1212,40
219,09	1239,02
219,31	1273,84
219,53	1241,07
219,75	1245,16
219,97	1273,84
220,19	1357,80
220,41	1300,46
220,63	1255,40
220,85	1202,16
221,06	1335,28
221,28	1269,74
221,50	1329,13
221,72	1275,88
221,94	1310,70
222,16	1275,88
222,38	1241,07
222,60	1224,69
222,82	1267,69
223,03	1247,21
223,25	1325,04
223,47	1339,37
223,69	1325,04
223,91	1314,80
224,13	1275,88
224,35	1273,84
224,57	1245,16
224,78	1363,95
225,00	1271,79
225,22	1241,07
225,44	1306,60
225,66	1298,41
225,88	1253,36
226,10	1345,52
226,32	1273,84
226,53	1243,12
226,75	1312,75
226,97	1282,03
227,19	1189,87
227,41	1304,56
227,63	1320,94
227,85	1333,23
228,06	1251,31
228,28	1314,80
228,50	1304,56
228,72	1206,25
228,94	1247,21
229,16	1253,36
229,37	1286,12
229,59	1300,46
229,81	1314,80
230,03	1310,70
230,25	1314,80
230,47	1290,22
230,69	1284,08
230,90	1251,31
231,12	1212,40
231,34	1257,45
231,56	1236,97
231,78	1304,56
232,00	1314,80
232,21	1216,49
232,43	1322,99
232,65	1320,94
232,87	1255,40
233,09	1273,84
233,30	1327,08
233,52	1230,83
233,74	1200,11
233,96	1318,89
234,18	1218,54
234,40	1333,23
234,61	1243,12
234,83	1251,31
235,05	1236,97
235,27	1251,31
235,49	1310,70
235,70	1255,40
235,92	1275,88
236,14	1239,02
236,36	1282,03
236,58	1286,12
236,79	1306,60
237,01	1259,50
237,23	1271,79
237,45	1204,21
237,67	1267,69
237,88	1257,45
238,10	1298,41
238,32	1249,26
238,54	1220,59
238,76	1234,93
238,97	1298,41
239,19	1271,79
239,41	1277,93
239,63	1198,06
239,85	1239,02
240,06	1269,74
240,28	1320,94
240,50	1239,02
240,72	1314,80
240,93	1236,97
241,15	1257,45
241,37	1331,18
241,59	1230,83
241,81	1273,84
242,02	1271,79
242,24	1318,89
242,46	1347,56
242,68	1245,16
242,89	1271,79
243,11	1202,16
243,33	1298,41
243,55	1271,79
243,76	1277,93
243,98	1243,12
244,20	1263,60
244,42	1279,98
244,64	1230,83
244,85	1275,88
245,07	1290,22
245,29	1263,60
245,51	1314,80
245,72	1247,21
245,94	1249,26
246,16	1228,78
246,38	1226,73
246,59	1228,78
246,81	1259,50
247,03	1279,98
247,24	1302,51
247,46	1279,98
247,68	1300,46
247,90	1257,45
248,11	1255,40
248,33	1253,36
248,55	1327,08
248,77	1273,84
248,98	1300,46
249,20	1220,59
249,42	1341,42
249,64	1267,69
249,85	1232,88
250,07	1189,87
250,29	1263,60
250,50	1259,50
250,72	1228,78
250,94	1290,22
251,16	1271,79
251,37	1298,41
251,59	1331,18
251,81	1318,89
252,02	1282,03
252,24	1269,74
252,46	1271,79
252,68	1290,22
252,89	1265,64
253,11	1241,07
253,33	1304,56
253,54	1239,02
253,76	1308,65
253,98	1255,40
254,20	1200,11
254,41	1216,49
254,63	1286,12
254,85	1269,74
255,06	1318,89
255,28	1290,22
255,50	1374,19
255,71	1269,74
255,93	1294,32
256,15	1234,93
256,36	1265,64
256,58	1277,93
256,80	1312,75
257,02	1255,40
257,23	1175,53
257,45	1214,45
257,67	1259,50
257,88	1257,45
258,10	1232,88
258,32	1284,08
258,53	1314,80
258,75	1271,79
258,97	1236,97
259,18	1284,08
259,40	1298,41
259,62	1251,31
259,83	1255,40
260,05	1249,26
260,27	1279,98
260,48	1220,59
260,70	1255,40
260,92	1208,30
261,13	1265,64
261,35	1251,31
261,57	1273,84
261,78	1224,69
262,00	1212,40
262,22	1263,60
262,43	1284,08
262,65	1322,99
262,86	1253,36
263,08	1265,64
263,30	1325,04
263,51	1282,03
263,73	1327,08
263,95	1310,70
264,16	1239,02
264,38	1224,69
264,60	1208,30
264,81	1232,88
265,03	1298,41
265,25	1230,83
265,46	1304,56
265,68	1288,17
265,89	1279,98
266,11	1335,28
266,33	1304,56
266,54	1236,97
266,76	1263,60
266,98	1230,83
267,19	1292,27
267,41	1222,64
267,62	1337,32
267,84	1333,23
268,06	1306,60
268,27	1261,55
268,49	1253,36
268,70	1320,94
268,92	1267,69
269,14	1296,36
269,35	1222,64
269,57	1286,12
269,79	1290,22
270,00	1290,22
270,22	1329,13
270,43	1241,07
270,65	1282,03
270,87	1275,88
271,08	1300,46
271,30	1325,04
271,51	1286,12
271,73	1269,74
271,95	1282,03
272,16	1286,12
272,38	1263,60
272,59	1239,02
272,81	1310,70
273,02	1347,56
273,24	1288,17
273,46	1261,55
273,67	1298,41
273,89	1296,36
274,10	1335,28
274,32	1271,79
274,54	1269,74
274,75	1265,64
274,97	1241,07
275,18	1273,84
275,40	1257,45
275,61	1214,45
275,83	1279,98
276,05	1216,49
276,26	1288,17
276,48	1329,13
276,69	1226,73
276,91	1232,88
277,12	1290,22
277,34	1226,73
277,55	1284,08
277,77	1216,49
277,99	1163,25
278,20	1193,97
278,42	1236,97
278,63	1206,25
278,85	1265,64
279,06	1167,34
279,28	1341,42
279,49	1232,88
279,71	1214,45
279,93	1312,75
280,14	1171,44
280,36	1325,04
280,57	1263,60
280,79	1290,22
281,00	1271,79
281,22	1308,65
281,43	1296,36
281,65	1284,08
281,86	1249,26
282,08	1239,02
282,29	1318,89
282,51	1245,16
282,73	1335,28
282,94	1241,07
283,16	1282,03
283,37	1259,50
283,59	1306,60
283,80	1290,22
284,02	1259,50
284,23	1210,35
284,45	1245,16
284,66	1282,03
284,88	1234,93
285,09	1294,32
285,31	1306,60
285,52	1249,26
285,74	1304,56
285,95	1284,08
286,17	1279,98
286,38	1251,31
286,60	1306,60
286,81	1263,60
287,03	1300,46
287,24	1169,39
287,46	1220,59
287,67	1169,39
287,89	1196,01
288,10	1312,75
288,32	1282,03
288,53	1306,60
288,75	1290,22
288,96	1284,08
289,18	1378,28
289,39	1263,60
289,61	1249,26
289,82	1282,03
290,04	1271,79
290,25	1253,36
290,47	1318,89
290,68	1265,64
290,90	1288,17
291,11	1261,55
291,33	1298,41
291,54	1253,36
291,76	1220,59
291,97	1234,93
292,18	1290,22
292,40	1265,64
292,61	1310,70
292,83	1267,69
293,04	1232,88
293,26	1257,45
293,47	1241,07
293,69	1226,73
293,90	1279,98
294,12	1327,08
294,33	1325,04
294,55	1257,45
294,76	1253,36
294,97	1216,49
295,19	1224,69
295,40	1206,25
295,62	1245,16
295,83	1239,02
296,05	1257,45
296,26	1241,07
296,48	1314,80
296,69	1318,89
296,90	1181,68
297,12	1304,56
297,33	1282,03
297,55	1296,36
297,76	1300,46
297,98	1314,80
298,19	1243,12
298,41	1282,03
298,62	1345,52
298,83	1294,32
299,05	1279,98
299,26	1239,02
299,48	1228,78
299,69	1288,17
299,90	1265,64
300,12	1263,60
300,33	1230,83
300,55	1263,60
300,76	1316,84
300,98	1251,31
301,19	1294,32
301,40	1255,40
301,62	1265,64
301,83	1218,54
302,05	1247,21
302,26	1314,80
302,47	1230,83
302,69	1241,07
302,90	1363,95
303,12	1218,54
303,33	1243,12
303,54	1316,84
303,76	1239,02
303,97	1277,93
304,19	1216,49
304,40	1249,26
304,61	1294,32
304,83	1302,51
305,04	1255,40
305,26	1284,08
305,47	1218,54
305,68	1333,23
305,90	1318,89
306,11	1325,04
306,33	1296,36
306,54	1296,36
306,75	1228,78
306,97	1208,30
307,18	1292,27
307,39	1245,16
307,61	1341,42
307,82	1234,93
308,04	1255,40
308,25	1214,45
308,46	1320,94
308,68	1230,83
308,89	1341,42
309,10	1261,55
309,32	1226,73
309,53	1165,29
309,74	1347,56
309,96	1241,07
310,17	1277,93
310,39	1277,93
310,60	1263,60
310,81	1310,70
311,03	1310,70
311,24	1269,74
311,45	1290,22
311,67	1282,03
311,88	1232,88
312,09	1279,98
312,31	1224,69
312,52	1265,64
312,73	1216,49
312,95	1300,46
313,16	1312,75
313,37	1243,12
313,59	1316,84
313,80	1267,69
314,01	1294,32
314,23	1275,88
314,44	1310,70
314,65	1312,75
314,87	1294,32
315,08	1271,79
315,29	1290,22
315,51	1284,08
315,72	1282,03
315,93	1298,41
316,15	1298,41
316,36	1296,36
316,57	1304,56
316,79	1214,45
317,00	1294,32
317,21	1288,17
317,43	1322,99
317,64	1347,56
317,85	1271,79
318,07	1366,00
318,28	1296,36
318,49	1261,55
318,70	1316,84
318,92	1257,45
319,13	1261,55
319,34	1296,36
319,56	1263,60
319,77	1271,79
319,98	1271,79
320,20	1253,36
320,41	1331,18
320,62	1282,03
320,83	1273,84
321,05	1220,59
321,26	1259,50
321,47	1279,98
321,69	1312,75
321,90	1222,64
322,11	1230,83
322,32	1232,88
322,54	1310,70
322,75	1279,98
322,96	1341,42
323,18	1206,25
323,39	1284,08
323,60	1241,07
323,81	1253,36
324,03	1277,93
324,24	1226,73
324,45	1273,84
324,66	1208,30
324,88	1206,25
325,09	1290,22
325,30	1312,75
325,52	1218,54
325,73	1294,32
325,94	1271,79
326,15	1253,36
326,37	1249,26
326,58	1204,21
326,79	1210,35
327,00	1216,49
327,22	1337,32
327,43	1339,37
327,64	1275,88
327,85	1259,50
328,07	1286,12
328,28	1294,32
328,49	1306,60
328,70	1245,16
328,92	1257,45
329,13	1267,69
329,34	1331,18
329,55	1294,32
329,76	1288,17
329,98	1265,64
330,19	1339,37
330,40	1282,03
330,61	1216,49
330,83	1247,21
331,04	1273,84
331,25	1290,22
331,46	1230,83
331,68	1249,26
331,89	1316,84
332,10	1269,74
332,31	1312,75
332,52	1222,64
332,74	1265,64
332,95	1220,59
333,16	1222,64
333,37	1222,64
333,58	1337,32
333,80	1277,93
334,01	1200,11
334,22	1261,55
334,43	1255,40
334,64	1253,36
334,86	1273,84
335,07	1267,69
335,28	1296,36
335,49	1308,65
335,70	1247,21
335,92	1167,34
336,13	1312,75
336,34	1333,23
336,55	1241,07
336,76	1247,21
336,98	1355,76
337,19	1302,51
337,40	1271,79
337,61	1138,67
337,82	1331,18
338,04	1267,69
338,25	1333,23
338,46	1259,50
338,67	1259,50
338,88	1329,13
339,09	1273,84
339,31	1232,88
339,52	1300,46
339,73	1208,30
339,94	1329,13
340,15	1277,93
340,36	1232,88
340,58	1159,15
340,79	1259,50
341,00	1247,21
341,21	1286,12
341,42	1331,18
341,63	1230,83
341,85	1228,78
342,06	1298,41
342,27	1265,64
342,48	1355,76
342,69	1263,60
342,90	1263,60
343,12	1288,17
343,33	1265,64
343,54	1292,27
343,75	1241,07
343,96	1226,73
344,17	1226,73
344,38	1284,08
344,60	1204,21
344,81	1298,41
345,02	1279,98
345,23	1290,22
345,44	1245,16
345,65	1206,25
345,86	1259,50
346,07	1232,88
346,29	1232,88
346,50	1222,64
346,71	1292,27
346,92	1306,60
347,13	1368,04
347,34	1265,64
347,55	1298,41
347,76	1273,84
347,98	1267,69
348,19	1257,45
348,40	1253,36
348,61	1261,55
348,82	1310,70
349,03	1255,40
349,24	1269,74
349,45	1286,12
349,66	1343,47
349,88	1236,97
350,09	1286,12
350,30	1249,26
350,51	1282,03
350,72	1327,08
350,93	1308,65
351,14	1208,30
351,35	1243,12
351,56	1196,01
351,77	1206,25
351,99	1277,93
352,20	1314,80
352,41	1273,84
352,62	1173,49
352,83	1304,56
353,04	1277,93
353,25	1312,75
353,46	1261,55
353,67	1277,93
353,88	1210,35
354,09	1204,21
354,30	1255,40
354,52	1382,38
354,73	1284,08
354,94	1249,26
355,15	1230,83
355,36	1253,36
355,57	1331,18
355,78	1267,69
355,99	1286,12
356,20	1271,79
356,41	1304,56
356,62	1265,64
356,83	1310,70
357,04	1259,50
357,25	1222,64
357,46	1318,89
357,68	1304,56
357,89	1282,03
358,10	1230,83
358,31	1282,03
358,52	1298,41
358,73	1292,27
358,94	1200,11
359,15	1222,64
359,36	1253,36
359,57	1296,36
359,78	1288,17
359,99	1200,11
360,20	1255,40
360,41	1263,60
360,62	1275,88
360,83	1343,47
361,04	1220,59
361,25	1222,64
361,46	1206,25
361,67	1302,51
361,88	1300,46
362,09	1249,26
362,30	1263,60
362,51	1306,60
362,72	1265,64
362,93	1241,07
363,14	1251,31
363,35	1232,88
363,56	1316,84
363,78	1273,84
363,99	1277,93
364,20	1290,22
364,41	1253,36
364,62	1316,84
364,83	1208,30
365,04	1181,68
365,25	1177,58
365,46	1279,98
365,67	1263,60
365,88	1216,49
366,09	1288,17
366,30	1189,87
366,51	1200,11
366,72	1249,26
366,93	1296,36
367,14	1357,80
367,35	1292,27
367,56	1306,60
367,77	1308,65
367,98	1224,69
368,18	1226,73
368,39	1277,93
368,60	1249,26
368,81	1222,64
369,02	1175,53
369,23	1322,99
369,44	1290,22
369,65	1214,45
369,86	1269,74
370,07	1247,21
370,28	1325,04
370,49	1249,26
370,70	1314,80
370,91	1318,89
371,12	1196,01
371,33	1298,41
371,54	1277,93
371,75	1312,75
371,96	1216,49
372,17	1288,17
372,38	1249,26
372,59	1232,88
372,80	1296,36
373,01	1210,35
373,22	1296,36
373,43	1247,21
373,64	1230,83
373,85	1298,41
374,06	1277,93
374,26	1304,56
374,47	1245,16
374,68	1269,74
374,89	1226,73
375,10	1314,80
375,31	1212,40
375,52	1329,13
375,73	1261,55
375,94	1310,70
376,15	1243,12
376,36	1185,77
376,57	1261,55
376,78	1277,93
376,99	1347,56
377,20	1312,75
377,40	1314,80
377,61	1253,36
377,82	1300,46
378,03	1257,45
378,24	1298,41
378,45	1296,36
378,66	1290,22
378,87	1243,12
379,08	1245,16
379,29	1300,46
379,50	1245,16
379,71	1284,08
379,91	1241,07
380,12	1232,88
380,33	1255,40
380,54	1263,60
380,75	1232,88
380,96	1251,31
381,17	1316,84
381,38	1353,71
381,59	1191,92
381,80	1175,53
382,00	1269,74
382,21	1345,52
382,42	1302,51
382,63	1263,60
382,84	1296,36
383,05	1251,31
383,26	1200,11
383,47	1355,76
383,68	1265,64
383,88	1310,70
384,09	1286,12
384,30	1173,49
384,51	1294,32
384,72	1247,21
384,93	1191,92
385,14	1253,36
385,35	1288,17
385,55	1267,69
385,76	1294,32
385,97	1259,50
386,18	1255,40
386,39	1239,02
386,60	1220,59
386,81	1257,45
387,02	1247,21
387,22	1226,73
387,43	1263,60
387,64	1357,80
387,85	1282,03
388,06	1214,45
388,27	1220,59
388,48	1212,40
388,68	1204,21
388,89	1288,17
389,10	1144,81
389,31	1359,85
389,52	1288,17
389,73	1245,16
389,93	1277,93
390,14	1312,75
390,35	1210,35
390,56	1294,32
390,77	1249,26
390,98	1284,08
391,18	1306,60
391,39	1273,84
391,60	1296,36
391,81	1277,93
392,02	1316,84
392,23	1300,46
392,43	1304,56
392,64	1212,40
392,85	1165,29
393,06	1306,60
393,27	1218,54
393,47	1329,13
393,68	1337,32
393,89	1298,41
394,10	1271,79
394,31	1267,69
394,52	1318,89
394,72	1243,12
394,93	1286,12
395,14	1339,37
395,35	1282,03
395,56	1253,36
395,76	1300,46
395,97	1267,69
396,18	1269,74
396,39	1241,07
396,60	1288,17
396,80	1230,83
397,01	1277,93
397,22	1247,21
397,43	1196,01
397,64	1251,31
397,84	1275,88
398,05	1265,64
398,26	1265,64
398,47	1247,21
398,67	1298,41
398,88	1239,02
399,09	1253,36
399,30	1302,51
399,51	1214,45
399,71	1263,60
399,92	1300,46
400,13	1273,84
400,34	1253,36
400,54	1245,16
400,75	1314,80
400,96	1232,88
401,17	1288,17
401,37	1253,36
401,58	1259,50
401,79	1273,84
402,00	1241,07
402,21	1333,23
402,41	1284,08
402,62	1253,36
402,83	1302,51
403,04	1232,88
403,24	1345,52
403,45	1282,03
403,66	1263,60
403,87	1253,36
404,07	1314,80
404,28	1222,64
404,49	1331,18
404,70	1230,83
404,90	1243,12
405,11	1296,36
405,32	1290,22
405,52	1298,41
405,73	1232,88
405,94	1288,17
406,15	1226,73
406,35	1277,93
406,56	1267,69
406,77	1241,07
406,98	1298,41
407,18	1230,83
407,39	1234,93
407,60	1249,26
407,80	1306,60
408,01	1230,83
408,22	1257,45
408,43	1261,55
408,63	1314,80
408,84	1234,93
409,05	1286,12
409,25	1271,79
409,46	1265,64
409,67	1253,36
409,88	1314,80
410,08	1288,17
410,29	1296,36
410,50	1251,31
410,70	1269,74
410,91	1261,55
411,12	1269,74
411,32	1247,21
411,53	1255,40
411,74	1253,36
411,95	1269,74
412,15	1183,73
412,36	1314,80
412,57	1284,08
412,77	1249,26
412,98	1204,21
413,19	1259,50
413,39	1282,03
413,60	1206,25
413,81	1275,88
414,01	1269,74
414,22	1230,83
414,43	1245,16
414,63	1261,55
414,84	1230,83
415,05	1134,57
415,25	1314,80
415,46	1214,45
415,67	1185,77
415,87	1259,50
416,08	1269,74
416,29	1241,07
416,49	1288,17
416,70	1243,12
416,91	1279,98
417,11	1275,88
417,32	1306,60
417,53	1302,51
417,73	1277,93
417,94	1249,26
418,15	1236,97
418,35	1239,02
418,56	1265,64
418,77	1230,83
418,97	1253,36
419,18	1282,03
419,38	1255,40
419,59	1255,40
419,80	1269,74
420,00	1263,60
420,21	1322,99
420,42	1234,93
420,62	1212,40
420,83	1259,50
421,04	1288,17
421,24	1251,31
421,45	1284,08
421,65	1249,26
421,86	1267,69
422,07	1288,17
422,27	1282,03
422,48	1341,42
422,69	1294,32
422,89	1222,64
423,10	1241,07
423,30	1290,22
423,51	1273,84
423,72	1341,42
423,92	1335,28
424,13	1298,41
424,33	1267,69
424,54	1294,32
424,75	1296,36
424,95	1198,06
425,16	1282,03
425,36	1343,47
425,57	1294,32
425,78	1251,31
425,98	1312,75
426,19	1320,94
426,39	1218,54
426,60	1265,64
426,81	1294,32
427,01	1286,12
427,22	1320,94
427,42	1282,03
427,63	1247,21
427,83	1279,98
428,04	1241,07
428,25	1273,84
428,45	1279,98
428,66	1253,36
428,86	1253,36
429,07	1275,88
429,28	1304,56
429,48	1267,69
429,69	1247,21
429,89	1302,51
430,10	1310,70
430,30	1259,50
430,51	1271,79
430,71	1275,88
430,92	1298,41
431,13	1259,50
431,33	1286,12
431,54	1249,26
431,74	1312,75
431,95	1277,93
432,15	1304,56
432,36	1304,56
432,56	1222,64
432,77	1232,88
432,98	1314,80
433,18	1273,84
433,39	1251,31
433,59	1232,88
433,80	1232,88
434,00	1331,18
434,21	1222,64
434,41	1257,45
434,62	1306,60
434,82	1265,64
435,03	1273,84
435,23	1331,18
435,44	1279,98
435,64	1339,37
435,85	1273,84
436,06	1282,03
436,26	1286,12
436,47	1294,32
436,67	1269,74
436,88	1310,70
437,08	1269,74
437,29	1304,56
437,49	1357,80
437,70	1329,13
437,90	1269,74
438,11	1216,49
438,31	1292,27
438,52	1296,36
438,72	1249,26
438,93	1206,25
439,13	1196,01
439,34	1335,28
439,54	1185,77
439,75	1337,32
439,95	1249,26
440,16	1179,63
440,36	1316,84
440,57	1245,16
440,77	1273,84
440,98	1257,45
441,18	1288,17
441,39	1275,88
441,59	1284,08
441,80	1376,24
442,00	1325,04
442,21	1128,43
442,41	1269,74
442,62	1243,12
442,82	1255,40
443,02	1290,22
443,23	1263,60
443,43	1257,45
443,64	1271,79
443,84	1239,02
444,05	1300,46
444,25	1306,60
444,46	1245,16
444,66	1228,78
444,87	1284,08
445,07	1206,25
445,28	1253,36
445,48	1341,42
445,69	1251,31
445,89	1265,64
446,09	1347,56
446,30	1284,08
446,50	1261,55
446,71	1296,36
446,91	1310,70
447,12	1255,40
447,32	1290,22
447,53	1259,50
447,73	1263,60
447,93	1228,78
448,14	1325,04
448,34	1271,79
448,55	1353,71
448,75	1290,22
448,96	1193,97
449,16	1273,84
449,36	1241,07
449,57	1253,36
449,77	1243,12
449,98	1286,12
450,18	1361,90
450,39	1288,17
450,59	1306,60
450,79	1306,60
451,00	1224,69
451,20	1255,40
451,41	1249,26
451,61	1279,98
451,81	1206,25
452,02	1245,16
452,22	1165,29
452,43	1191,92
452,63	1306,60
452,84	1253,36
453,04	1196,01
453,24	1286,12
453,45	1259,50
453,65	1245,16
453,86	1261,55
454,06	1300,46
454,26	1290,22
454,47	1255,40
454,67	1265,64
454,87	1267,69
455,08	1312,75
455,28	1284,08
455,49	1265,64
455,69	1253,36
455,89	1368,04
456,10	1261,55
456,30	1245,16
456,51	1249,26
456,71	1269,74
456,91	1271,79
457,12	1243,12
457,32	1314,80
457,52	1193,97
457,73	1212,40
457,93	1345,52
458,14	1228,78
458,34	1275,88
458,54	1241,07
458,75	1220,59
458,95	1314,80
459,15	1296,36
459,36	1243,12
459,56	1243,12
459,76	1269,74
459,97	1232,88
460,17	1308,65
460,37	1247,21
460,58	1298,41
460,78	1318,89
460,99	1337,32
461,19	1290,22
461,39	1294,32
461,60	1239,02
461,80	1269,74
462,00	1263,60
462,21	1314,80
462,41	1271,79
462,61	1263,60
462,82	1255,40
463,02	1327,08
463,22	1296,36
463,43	1359,85
463,63	1226,73
463,83	1341,42
464,04	1269,74
464,24	1279,98
464,44	1288,17
464,64	1230,83
464,85	1339,37
465,05	1277,93
465,25	1279,98
465,46	1271,79
465,66	1279,98
465,86	1275,88
466,07	1249,26
466,27	1279,98
466,47	1273,84
466,68	1263,60
466,88	1269,74
467,08	1294,32
467,29	1265,64
467,49	1292,27
467,69	1320,94
467,89	1236,97
468,10	1234,93
468,30	1265,64
468,50	1241,07
468,71	1265,64
468,91	1210,35
469,11	1249,26
469,31	1257,45
469,52	1249,26
469,72	1247,21
469,92	1253,36
470,13	1269,74
470,33	1308,65
470,53	1255,40
470,73	1271,79
470,94	1316,84
471,14	1210,35
471,34	1290,22
471,54	1261,55
471,75	1259,50
471,95	1267,69
472,15	1251,31
472,36	1339,37
472,56	1243,12
472,76	1232,88
472,96	1222,64
473,17	1251,31
473,37	1226,73
473,57	1279,98
473,77	1290,22
473,98	1282,03
474,18	1310,70
474,38	1286,12
474,58	1198,06
474,79	1300,46
474,99	1239,02
475,19	1290,22
475,39	1335,28
475,60	1224,69
475,80	1269,74
476,00	1267,69
476,20	1273,84
476,41	1277,93
476,61	1316,84
476,81	1290,22
477,01	1247,21
477,21	1290,22
477,42	1228,78
477,62	1200,11
477,82	1331,18
478,02	1263,60
478,23	1243,12
478,43	1222,64
478,63	1226,73
478,83	1277,93
479,03	1306,60
479,24	1234,93
479,44	1312,75
479,64	1282,03
479,84	1269,74
480,04	1228,78
480,25	1312,75
480,45	1265,64
480,65	1310,70
480,85	1302,51
481,06	1271,79
481,26	1298,41
481,46	1269,74
481,66	1210,35
481,86	1273,84
482,06	1191,92
482,27	1279,98
482,47	1239,02
482,67	1232,88
482,87	1247,21
483,07	1298,41
483,28	1269,74
483,48	1312,75
483,68	1236,97
483,88	1376,24
484,08	1279,98
484,29	1222,64
484,49	1245,16
484,69	1241,07
484,89	1290,22
485,09	1288,17
485,29	1265,64
485,50	1185,77
485,70	1259,50
485,90	1273,84
486,10	1284,08
486,30	1216,49
486,50	1288,17
486,71	1300,46
486,91	1370,09
487,11	1290,22
487,31	1374,19
487,51	1306,60
487,71	1277,93
487,91	1200,11
488,12	1236,97
488,32	1239,02
488,52	1288,17
488,72	1236,97
488,92	1325,04
489,12	1239,02
489,32	1292,27
489,53	1298,41
489,73	1232,88
489,93	1271,79
490,13	1335,28
490,33	1263,60
490,53	1257,45
490,73	1298,41
490,94	1265,64
491,14	1261,55
491,34	1228,78
491,54	1267,69
491,74	1216,49
491,94	1279,98
492,14	1370,09
492,34	1292,27
492,54	1290,22
492,75	1257,45
492,95	1300,46
493,15	1261,55
493,35	1265,64
493,55	1312,75
493,75	1214,45
493,95	1290,22
494,15	1232,88
494,35	1273,84
494,56	1275,88
494,76	1273,84
494,96	1267,69
495,16	1273,84
495,36	1327,08
495,56	1220,59
495,76	1255,40
495,96	1241,07
496,16	1212,40
496,36	1165,29
496,56	1322,99
496,77	1288,17
496,97	1214,45
497,17	1343,47
497,37	1261,55
497,57	1198,06
497,77	1247,21
497,97	1218,54
498,17	1273,84
498,37	1265,64
498,57	1212,40
498,77	1253,36
498,97	1302,51
499,17	1310,70
499,38	1247,21
499,58	1202,16
499,78	1247,21
499,98	1320,94
500,18	1249,26
500,38	1275,88
500,58	1189,87
500,78	1247,21
500,98	1253,36
501,18	1234,93
501,38	1314,80
501,58	1269,74
501,78	1304,56
501,98	1273,84
502,18	1216,49
502,38	1312,75
502,58	1333,23
502,78	1298,41
502,98	1216,49
503,18	1187,82
503,38	1265,64
503,59	1257,45
503,79	1249,26
503,99	1288,17
504,19	1284,08
504,39	1222,64
504,59	1286,12
504,79	1294,32
504,99	1277,93
505,19	1220,59
505,39	1249,26
505,59	1251,31
505,79	1318,89
505,99	1247,21
506,19	1314,80
506,39	1286,12
506,59	1269,74
506,79	1310,70
506,99	1228,78
507,19	1310,70
507,39	1304,56
507,59	1292,27
507,79	1202,16
507,99	1206,25
508,19	1224,69
508,39	1239,02
508,59	1200,11
508,79	1257,45
508,99	1286,12
509,19	1302,51
509,39	1312,75
509,59	1216,49
509,79	1269,74
509,99	1245,16
510,19	1292,27
510,39	1357,80
510,59	1236,97
510,79	1251,31
510,99	1261,55
511,19	1312,75
511,39	1300,46
511,59	1294,32
511,79	1298,41
511,99	1241,07
512,19	1257,45
512,38	1282,03
512,58	1290,22
512,78	1253,36
512,98	1269,74
513,18	1302,51
513,38	1259,50
513,58	1288,17
513,78	1253,36
513,98	1273,84
514,18	1306,60
514,38	1282,03
514,58	1232,88
514,78	1271,79
514,98	1320,94
515,18	1236,97
515,38	1241,07
515,58	1279,98
515,78	1290,22
515,98	1239,02
516,18	1282,03
516,38	1368,04
516,57	1322,99
516,77	1312,75
516,97	1241,07
517,17	1308,65
517,37	1333,23
517,57	1320,94
517,77	1257,45
517,97	1286,12
518,17	1249,26
518,37	1341,42
518,57	1271,79
518,77	1339,37
518,97	1226,73
519,16	1251,31
519,36	1251,31
519,56	1310,70
519,76	1253,36
519,96	1243,12
520,16	1261,55
520,36	1241,07
520,56	1275,88
520,76	1247,21
520,96	1310,70
521,16	1304,56
521,35	1224,69
521,55	1245,16
521,75	1351,66
521,95	1304,56
522,15	1277,93
522,35	1277,93
522,55	1239,02
522,75	1253,36
522,95	1212,40
523,14	1302,51
523,34	1236,97
523,54	1304,56
523,74	1267,69
523,94	1306,60
524,14	1288,17
524,34	1263,60
524,54	1234,93
524,73	1239,02
524,93	1247,21
525,13	1263,60
525,33	1300,46
525,53	1290,22
525,73	1259,50
525,93	1286,12
526,13	1300,46
526,32	1245,16
526,52	1255,40
526,72	1316,84
526,92	1263,60
527,12	1210,35
527,32	1314,80
527,52	1206,25
527,71	1198,06
527,91	1253,36
528,11	1282,03
528,31	1308,65
528,51	1267,69
528,71	1251,31
528,90	1261,55
529,10	1263,60
529,30	1298,41
529,50	1304,56
529,70	1329,13
529,90	1271,79
530,09	1255,40
530,29	1236,97
530,49	1275,88
530,69	1265,64
530,89	1277,93
531,09	1294,32
531,28	1216,49
531,48	1241,07
531,68	1288,17
531,88	1292,27
532,08	1245,16
532,28	1253,36
532,47	1282,03
532,67	1331,18
532,87	1337,32
533,07	1290,22
533,27	1296,36
533,46	1269,74
533,66	1269,74
533,86	1333,23
534,06	1245,16
534,26	1273,84
534,45	1267,69
534,65	1286,12
534,85	1265,64
535,05	1208,30
535,25	1304,56
535,44	1273,84
535,64	1284,08
535,84	1253,36
536,04	1251,31
536,24	1306,60
536,43	1286,12
536,63	1206,25
536,83	1249,26
537,03	1216,49
537,22	1296,36
537,42	1206,25
537,62	1275,88
537,82	1249,26
538,02	1208,30
538,21	1243,12
538,41	1247,21
538,61	1263,60
538,81	1241,07
539,00	1239,02
539,20	1320,94
539,40	1308,65
539,60	1284,08
539,79	1343,47
539,99	1279,98
540,19	1329,13
540,39	1220,59
540,58	1261,55
540,78	1234,93
540,98	1255,40
541,18	1267,69
541,37	1296,36
541,57	1318,89
541,77	1232,88
541,97	1275,88
542,16	1290,22
542,36	1226,73
542,56	1261,55
542,76	1284,08
542,95	1284,08
543,15	1222,64
543,35	1298,41
543,54	1239,02
543,74	1251,31
543,94	1220,59
544,14	1222,64
544,33	1218,54
544,53	1277,93
544,73	1249,26
544,93	1243,12
545,12	1255,40
545,32	1245,16
545,52	1239,02
545,71	1331,18
545,91	1261,55
546,11	1257,45
546,30	1257,45
546,50	1179,63
546,70	1243,12
546,90	1232,88
547,09	1337,32
547,29	1284,08
547,49	1286,12
547,68	1288,17
547,88	1265,64
548,08	1279,98
548,27	1275,88
548,47	1282,03
548,67	1144,81
548,87	1271,79
549,06	1232,88
549,26	1214,45
549,46	1226,73
549,65	1298,41
549,85	1204,21
550,05	1337,32
550,24	1220,59
550,44	1196,01
550,64	1232,88
550,83	1302,51
551,03	1327,08
551,23	1284,08
551,42	1292,27
551,62	1241,07
551,82	1310,70
552,01	1290,22
552,21	1277,93
552,41	1286,12
552,60	1255,40
552,80	1232,88
553,00	1257,45
553,19	1341,42
553,39	1300,46
553,59	1228,78
553,78	1304,56
553,98	1220,59
554,17	1277,93
554,37	1269,74
554,57	1224,69
554,76	1251,31
554,96	1255,40
555,16	1318,89
555,35	1320,94
555,55	1239,02
555,75	1312,75
555,94	1312,75
556,14	1220,59
556,33	1306,60
556,53	1253,36
556,73	1286,12
556,92	1279,98
557,12	1259,50
557,32	1284,08
557,51	1282,03
557,71	1249,26
557,90	1214,45
558,10	1282,03
558,30	1263,60
558,49	1259,50
558,69	1218,54
558,88	1228,78
559,08	1337,32
559,28	1206,25
559,47	1337,32
559,67	1302,51
559,86	1247,21
560,06	1304,56
560,26	1249,26
560,45	1255,40
560,65	1241,07
560,84	1200,11
561,04	1296,36
561,24	1306,60
561,43	1296,36
561,63	1243,12
561,82	1263,60
562,02	1320,94
562,22	1220,59
562,41	1277,93
562,61	1314,80
562,80	1288,17
563,00	1282,03
563,19	1288,17
563,39	1267,69
563,59	1210,35
563,78	1302,51
563,98	1236,97
564,17	1273,84
564,37	1273,84
564,56	1241,07
564,76	1327,08
564,96	1290,22
565,15	1204,21
565,35	1331,18
565,54	1290,22
565,74	1267,69
565,93	1255,40
566,13	1267,69
566,32	1351,66
566,52	1226,73
566,71	1265,64
566,91	1302,51
567,11	1277,93
567,30	1292,27
567,50	1253,36
567,69	1294,32
567,89	1251,31
568,08	1255,40
568,28	1263,60
568,47	1257,45
568,67	1277,93
568,86	1259,50
569,06	1288,17
569,25	1335,28
569,45	1273,84
569,64	1267,69
569,84	1191,92
570,04	1253,36
570,23	1275,88
570,43	1292,27
570,62	1220,59
570,82	1224,69
571,01	1294,32
571,21	1320,94
571,40	1232,88
571,60	1304,56
571,79	1241,07
571,99	1279,98
572,18	1310,70
572,38	1230,83
572,57	1296,36
572,77	1200,11
572,96	1294,32
573,16	1259,50
573,35	1306,60
573,55	1277,93
573,74	1261,55
573,94	1267,69
574,13	1277,93
574,33	1322,99
574,52	1249,26
574,71	1214,45
574,91	1263,60
575,10	1304,56
575,30	1302,51
575,49	1243,12
575,69	1284,08
575,88	1259,50
576,08	1294,32
576,27	1279,98
576,47	1239,02
576,66	1296,36
576,86	1265,64
577,05	1351,66
577,25	1294,32
577,44	1304,56
577,64	1306,60
577,83	1296,36
578,02	1308,65
578,22	1267,69
578,41	1249,26
578,61	1296,36
578,80	1220,59
579,00	1314,80
579,19	1232,88
579,39	1353,71
579,58	1189,87
579,77	1255,40
579,97	1304,56
580,16	1245,16
580,36	1343,47
580,55	1234,93
580,75	1224,69
580,94	1316,84
581,13	1273,84
581,33	1314,80
581,52	1325,04
581,72	1253,36
581,91	1214,45
582,11	1302,51
582,30	1261,55
582,49	1337,32
582,69	1243,12
582,88	1314,80
583,08	1198,06
583,27	1253,36
583,47	1310,70
583,66	1222,64
583,85	1277,93
584,05	1257,45
584,24	1302,51
584,44	1257,45
584,63	1265,64
584,82	1294,32
585,02	1304,56
585,21	1282,03
585,41	1255,40
585,60	1263,60
585,79	1220,59
585,99	1236,97
586,18	1302,51
586,37	1282,03
586,57	1271,79
586,76	1351,66
586,96	1216,49
587,15	1220,59
587,34	1263,60
587,54	1269,74
587,73	1259,50
587,93	1298,41
588,12	1206,25
588,31	1245,16
588,51	1257,45
588,70	1269,74
588,89	1204,21
589,09	1255,40
589,28	1210,35
589,47	1226,73
589,67	1304,56
589,86	1318,89
590,06	1251,31
590,25	1284,08
590,44	1161,20
590,64	1239,02
590,83	1298,41
591,02	1265,64
591,22	1193,97
591,41	1232,88
591,60	1232,88
591,80	1208,30
591,99	1189,87
592,18	1282,03
592,38	1259,50
592,57	1243,12
592,76	1302,51
592,96	1241,07
593,15	1257,45
593,34	1261,55
593,54	1339,37
593,73	1251,31
593,92	1333,23
594,12	1249,26
594,31	1247,21
594,50	1341,42
594,70	1216,49
594,89	1271,79
595,08	1249,26
595,28	1277,93
595,47	1261,55
595,66	1234,93
595,86	1269,74
596,05	1193,97
596,24	1320,94
596,43	1355,76
596,63	1247,21
596,82	1259,50
597,01	1232,88
597,21	1259,50
597,40	1316,84
597,59	1279,98
597,79	1267,69
597,98	1171,44
598,17	1310,70
598,36	1267,69
598,56	1347,56
598,75	1257,45
598,94	1292,27
599,14	1265,64
599,33	1310,70
599,52	1247,21
599,71	1298,41
599,91	1236,97
600,10	1279,98
600,29	1271,79
600,48	1232,88
600,68	1230,83
600,87	1253,36
601,06	1304,56
601,26	1265,64
601,45	1245,16
601,64	1243,12
601,83	1232,88
602,03	1255,40
602,22	1239,02
602,41	1230,83
602,60	1284,08
602,80	1286,12
602,99	1255,40
603,18	1335,28
603,37	1267,69
603,57	1286,12
603,76	1239,02
603,95	1279,98
604,14	1239,02
604,34	1269,74
604,53	1261,55
604,72	1257,45
604,91	1294,32
605,10	1249,26
605,30	1222,64
605,49	1273,84
605,68	1282,03
605,87	1312,75
606,07	1327,08
606,26	1239,02
606,45	1284,08
606,64	1257,45
606,84	1310,70
607,03	1216,49
607,22	1279,98
607,41	1298,41
607,60	1292,27
607,80	1251,31
607,99	1333,23
608,18	1196,01
608,37	1300,46
608,56	1263,60
608,76	1339,37
608,95	1298,41
609,14	1327,08
609,33	1306,60
609,52	1212,40
609,72	1271,79
609,91	1241,07
610,10	1165,29
610,29	1206,25
610,48	1161,20
610,68	1269,74
610,87	1249,26
611,06	1245,16
611,25	1265,64
611,44	1230,83
611,63	1335,28
611,83	1290,22
612,02	1329,13
612,21	1312,75
612,40	1255,40
612,59	1259,50
612,79	1290,22
612,98	1255,40
613,17	1279,98
613,36	1259,50
613,55	1382,38
613,74	1314,80
613,93	1214,45
614,13	1286,12
614,32	1279,98
614,51	1273,84
614,70	1298,41
614,89	1314,80
615,08	1284,08
615,28	1337,32
615,47	1239,02
615,66	1243,12
615,85	1296,36
616,04	1339,37
616,23	1269,74
616,42	1257,45
616,62	1267,69
616,81	1310,70
617,00	1251,31
617,19	1304,56
617,38	1290,22
617,57	1325,04
617,76	1255,40
617,95	1361,90
618,15	1249,26
618,34	1290,22
618,53	1298,41
618,72	1255,40
618,91	1306,60
619,10	1275,88
619,29	1298,41
619,48	1284,08
619,68	1374,19
619,87	1282,03
620,06	1206,25
620,25	1296,36
620,44	1243,12
620,63	1304,56
620,82	1224,69
621,01	1249,26
621,20	1284,08
621,39	1214,45
621,59	1183,73
621,78	1271,79
621,97	1288,17
622,16	1249,26
622,35	1279,98
622,54	1247,21
622,73	1116,14
622,92	1314,80
623,11	1294,32
623,30	1261,55
623,49	1241,07
623,68	1298,41
623,88	1261,55
624,07	1249,26
624,26	1253,36
624,45	1230,83
624,64	1247,21
624,83	1314,80
625,02	1269,74
625,21	1253,36
625,40	1318,89
625,59	1357,80
625,78	1267,69
625,97	1279,98
626,16	1345,52
626,35	1234,93
626,54	1298,41
626,74	1298,41
626,93	1228,78
627,12	1292,27
627,31	1290,22
627,50	1320,94
627,69	1236,97
627,88	1279,98
628,07	1220,59
628,26	1267,69
628,45	1243,12
628,64	1337,32
628,83	1308,65
629,02	1261,55
629,21	1300,46
629,40	1329,13
629,59	1273,84
629,78	1331,18
629,97	1218,54
630,16	1243,12
630,35	1294,32
630,54	1300,46
630,73	1273,84
630,92	1316,84
631,11	1230,83
631,30	1265,64
631,49	1318,89
631,68	1402,86
631,87	2578,39
632,06	7286,67
632,25	8179,59
632,44	14815,01
632,63	21092,03
632,82	34371,06
633,01	65162,27
633,20	65535,00
633,39	56771,74
633,58	32503,31
633,77	14331,69
633,96	8236,93
634,15	6639,51
634,34	4990,90
634,53	3420,11
634,72	2512,86
634,91	2066,40
635,10	2228,19
635,29	2076,64
635,48	1964,00
635,67	1769,44
635,86	1740,77
636,05	1683,43
636,24	1662,95
636,43	1509,35
636,62	1628,14
636,81	1595,37
637,00	1421,29
637,19	1449,96
637,38	1495,02
637,57	1431,53
637,76	1404,91
637,95	1368,04
638,14	1384,43
638,33	1316,84
638,52	1333,23
638,71	1331,18
638,89	1269,74
639,08	1402,86
639,27	1294,32
639,46	1253,36
639,65	1298,41
639,84	1255,40
640,03	1277,93
640,22	1226,73
640,41	1296,36
640,60	1269,74
640,79	1265,64
640,98	1239,02
641,17	1253,36
641,36	1284,08
641,55	1286,12
641,74	1290,22
641,92	1290,22
642,11	1247,21
642,30	1267,69
642,49	1275,88
642,68	1251,31
642,87	1298,41
643,06	1308,65
643,25	1267,69
643,44	1304,56
643,63	1243,12
643,82	1261,55
644,00	1290,22
644,19	1331,18
644,38	1241,07
644,57	1339,37
644,76	1232,88
644,95	1241,07
645,14	1370,09
645,33	1286,12
645,52	1257,45
645,71	1284,08
645,89	1269,74
646,08	1288,17
646,27	1306,60
646,46	1269,74
646,65	1249,26
646,84	1329,13
647,03	1302,51
647,22	1339,37
647,40	1273,84
647,59	1310,70
647,78	1204,21
647,97	1255,40
648,16	1282,03
648,35	1222,64
648,54	1302,51
648,73	1296,36
648,91	1331,18
649,10	1306,60
649,29	1314,80
649,48	1290,22
649,67	1241,07
649,86	1179,63
650,05	1228,78
650,23	1257,45
650,42	1255,40
650,61	1249,26
650,80	1296,36
650,99	1208,30
651,18	1269,74
651,36	1296,36
651,55	1294,32
651,74	1310,70
651,93	1275,88
652,12	1226,73
652,31	1204,21
652,49	1263,60
652,68	1239,02
652,87	1273,84
653,06	1257,45
653,25	1331,18
653,44	1247,21
653,62	1216,49
653,81	1257,45
654,00	1300,46
654,19	1267,69
654,38	1310,70
654,56	1214,45
654,75	1339,37
654,94	1243,12
655,13	1300,46
655,32	1212,40
655,51	1282,03
655,69	1308,65
655,88	1208,30
656,07	1259,50
656,26	1279,98
656,45	1224,69
656,63	1357,80
656,82	1267,69
657,01	1294,32
657,20	1253,36
657,38	1261,55
657,57	1212,40
657,76	1230,83
657,95	1308,65
658,14	1236,97
658,32	1322,99
658,51	1282,03
658,70	1241,07
658,89	1200,11
659,08	1333,23
659,26	1284,08
659,45	1263,60
659,64	1294,32
659,83	1286,12
660,01	1298,41
660,20	1267,69
660,39	1263,60
660,58	1298,41
660,76	1288,17
660,95	1224,69
661,14	1308,65
661,33	1208,30
661,51	1261,55
661,70	1241,07
661,89	1290,22
662,08	1279,98
662,26	1218,54
662,45	1191,92
662,64	1279,98
662,83	1222,64
663,01	1368,04
663,20	1239,02
663,39	1259,50
663,58	1241,07
663,76	1296,36
663,95	1265,64
664,14	1218,54
664,32	1179,63
664,51	1230,83
664,70	1179,63
664,89	1230,83
665,07	1271,79
665,26	1200,11
665,45	1286,12
665,64	1269,74
665,82	1257,45
666,01	1322,99
666,20	1288,17
666,38	1236,97
666,57	1236,97
666,76	1282,03
666,95	1288,17
667,13	1257,45
667,32	1245,16
667,51	1327,08
667,69	1193,97
667,88	1316,84
668,07	1251,31
668,25	1261,55
668,44	1202,16
668,63	1304,56
668,81	1265,64
669,00	1269,74
669,19	1208,30
669,38	1304,56
669,56	1271,79
669,75	1196,01
669,94	1376,24
670,12	1191,92
670,31	1286,12
670,50	1253,36
670,68	1298,41
670,87	1198,06
671,06	1245,16
671,24	1349,61
671,43	1220,59
671,62	1249,26
671,80	1232,88
671,99	1243,12
672,18	1232,88
672,36	1224,69
672,55	1284,08
672,74	1277,93
672,92	1263,60
673,11	1343,47
673,29	1388,52
673,48	1308,65
673,67	1310,70
673,85	1302,51
674,04	1359,85
674,23	1316,84
674,41	1277,93
674,60	1208,30
674,79	1310,70
674,97	1331,18
675,16	1277,93
675,34	1296,36
675,53	1183,73
675,72	1296,36
675,90	1292,27
676,09	1234,93
676,28	1257,45
676,46	1249,26
676,65	1277,93
676,83	1261,55
677,02	1212,40
677,21	1224,69
677,39	1247,21
677,58	1355,76
677,77	1253,36
677,95	1296,36
678,14	1251,31
678,32	1212,40
678,51	1216,49
678,70	1296,36
678,88	1226,73
679,07	1230,83
679,25	1241,07
679,44	1271,79
679,63	1173,49
679,81	1232,88
680,00	1245,16
680,18	1257,45
680,37	1228,78
680,55	1251,31
680,74	1202,16
680,93	1300,46
681,11	1263,60
681,30	1347,56
681,48	1243,12
681,67	1214,45
681,85	1239,02
682,04	1275,88
682,23	1341,42
682,41	1302,51
682,60	1271,79
682,78	1273,84
682,97	1312,75
683,15	1337,32
683,34	1255,40
683,53	1288,17
683,71	1212,40
683,90	1230,83
684,08	1257,45
684,27	1310,70
684,45	1232,88
684,64	1310,70
684,82	1277,93
685,01	1255,40
685,19	1243,12
685,38	1193,97
685,57	1341,42
685,75	1228,78
685,94	1304,56
686,12	1230,83
686,31	1310,70
686,49	1279,98
686,68	1271,79
686,86	1263,60
687,05	1253,36
687,23	1232,88
687,42	1304,56
687,60	1320,94
687,79	1251,31
687,97	1310,70
688,16	1226,73
688,34	1335,28
688,53	1245,16
688,71	1236,97
688,90	1290,22
689,08	1271,79
689,27	1247,21
689,45	1308,65
689,64	1279,98
689,82	1339,37
690,01	1265,64
690,19	1333,23
690,38	1247,21
690,56	1249,26
690,75	1271,79
690,93	1294,32
691,12	1275,88
691,30	1247,21
691,49	1279,98
691,67	1247,21
691,86	1204,21
692,04	1271,79
692,23	1220,59
692,41	1284,08
692,60	1251,31
692,78	1251,31
692,97	1220,59
693,15	1271,79
693,34	1284,08
693,52	1253,36
693,71	1224,69
693,89	1269,74
694,08	1288,17
694,26	1279,98
694,44	1243,12
694,63	1271,79
694,81	1331,18
695,00	1236,97
695,18	1298,41
695,37	1306,60
695,55	1273,84
695,74	1292,27
695,92	1257,45
696,10	1290,22
696,29	1222,64
696,47	1277,93
696,66	1208,30
696,84	1241,07
697,03	1216,49
697,21	1288,17
697,40	1288,17
697,58	1277,93
697,76	1265,64
697,95	1241,07
698,13	1247,21
698,32	1251,31
698,50	1302,51
698,68	1314,80
698,87	1257,45
699,05	1296,36
699,24	1253,36
699,42	1282,03
699,61	1255,40
699,79	1312,75
699,97	1269,74
700,16	1241,07
700,34	1191,92
700,53	1275,88
700,71	1230,83
700,89	1353,71
701,08	1259,50
701,26	1265,64
701,45	1296,36
701,63	1273,84
701,81	1341,42
702,00	1298,41
702,18	1202,16
702,37	1257,45
702,55	1247,21
702,73	1275,88
702,92	1253,36
703,10	1304,56
703,28	1282,03
703,47	1251,31
703,65	1294,32
703,84	1263,60
704,02	1302,51
704,20	1273,84
704,39	1196,01
704,57	1243,12
704,75	1271,79
704,94	1277,93
705,12	1298,41
705,30	1198,06
705,49	1302,51
705,67	1216,49
705,86	1261,55
706,04	1318,89
706,22	1288,17
706,41	1351,66
706,59	1204,21
706,77	1335,28
706,96	1277,93
707,14	1189,87
707,32	1212,40
707,51	1255,40
707,69	1312,75
707,87	1191,92
708,06	1247,21
708,24	1249,26
708,42	1384,43
708,61	1222,64
708,79	1282,03
708,97	1265,64
709,16	1230,83
709,34	1239,02
709,52	1232,88
709,71	1343,47
709,89	1320,94
710,07	1273,84
710,26	1292,27
710,44	1282,03
710,62	1212,40
710,80	1187,82
710,99	1298,41
711,17	1187,82
711,35	1234,93
711,54	1255,40
711,72	1255,40
711,90	1292,27
712,09	1232,88
712,27	1327,08
712,45	1300,46
712,63	1257,45
712,82	1198,06
713,00	1333,23
713,18	1255,40
713,37	1232,88
713,55	1308,65
713,73	1247,21
713,91	1234,93
714,10	1214,45
714,28	1316,84
714,46	1247,21
714,65	1241,07
714,83	1239,02
715,01	1236,97
715,19	1325,04
715,38	1267,69
715,56	1255,40
715,74	1196,01
715,92	1236,97
716,11	1251,31
716,29	1239,02
716,47	1251,31
716,65	1236,97
716,84	1245,16
717,02	1282,03
717,20	1196,01
717,38	1318,89
717,57	1220,59
717,75	1273,84
717,93	1347,56
718,11	1208,30
718,30	1288,17
718,48	1234,93
718,66	1345,52
718,84	1296,36
719,03	1275,88
719,21	1304,56
719,39	1271,79
719,57	1275,88
719,75	1239,02
719,94	1294,32
720,12	1241,07
720,30	1294,32
720,48	1239,02
720,67	1316,84
720,85	1249,26
721,03	1277,93
721,21	1210,35
721,39	1255,40
721,58	1198,06
721,76	1249,26
721,94	1259,50
722,12	1232,88
722,30	1245,16
722,49	1263,60
722,67	1239,02
722,85	1329,13
723,03	1329,13
723,21	1259,50
723,40	1306,60
723,58	1257,45
723,76	1257,45
723,94	1236,97
724,12	1228,78
724,30	1318,89
724,49	1275,88
724,67	1236,97
724,85	1282,03
725,03	1277,93
725,21	1251,31
725,40	1253,36
725,58	1341,42
725,76	1230,83
725,94	1298,41
726,12	1265,64
726,30	1222,64
726,49	1294,32
726,67	1220,59
726,85	1247,21
727,03	1269,74
727,21	1279,98
727,39	1273,84
727,57	1232,88
727,76	1236,97
727,94	1224,69
728,12	1253,36
728,30	1288,17
728,48	1286,12
728,66	1239,02
728,84	1288,17
729,03	1263,60
729,21	1320,94
729,39	1224,69
729,57	1304,56
729,75	1269,74
729,93	1243,12
730,11	1322,99
730,30	1249,26
730,48	1228,78
730,66	1300,46
730,84	1271,79
731,02	1265,64
731,20	1224,69
731,38	1347,56
731,56	1277,93
731,74	1275,88
731,93	1279,98
732,11	1273,84
732,29	1288,17
732,47	1275,88
732,65	1284,08
732,83	1196,01
733,01	1263,60
733,19	1255,40
733,37	1208,30
733,56	1263,60
733,74	1208,30
733,92	1263,60
734,10	1292,27
734,28	1302,51
734,46	1243,12
734,64	1343,47
734,82	1214,45
735,00	1329,13
735,18	1302,51
735,36	1224,69
735,54	1245,16
735,73	1245,16
735,91	1228,78
736,09	1267,69
736,27	1277,93
736,45	1312,75
736,63	1349,61
736,81	1312,75
736,99	1230,83
737,17	1279,98
737,35	1257,45
737,53	1232,88
737,71	1279,98
737,89	1292,27
738,07	1284,08
738,25	1239,02
738,43	1279,98
738,61	1298,41
738,80	1271,79
738,98	1318,89
739,16	1189,87
739,34	1224,69
739,52	1294,32
739,70	1277,93
739,88	1286,12
740,06	1288,17
740,24	1341,42
740,42	1200,11
740,60	1320,94
740,78	1243,12
740,96	1269,74
741,14	1271,79
741,32	1249,26
741,50	1300,46
741,68	1318,89
741,86	1271,79
742,04	1298,41
742,22	1325,04
742,40	1298,41
742,58	1255,40
742,76	1245,16
742,94	1236,97
743,12	1316,84
743,30	1257,45
743,48	1361,90
743,66	1294,32
743,84	1337,32
744,02	1279,98
744,20	1257,45
744,38	1257,45
744,56	1265,64
744,74	1222,64
744,92	1247,21
745,10	1232,88
745,28	1284,08
745,46	1263,60
745,64	1253,36
745,82	1294,32
746,00	1288,17
746,18	1271,79
746,36	1245,16
746,54	1288,17
746,72	1294,32
746,90	1279,98
747,08	1312,75
747,26	1322,99
747,44	1275,88
747,62	1310,70
747,80	1314,80
747,98	1263,60
748,15	1257,45
748,33	1325,04
748,51	1234,93
748,69	1247,21
748,87	1224,69
749,05	1267,69
749,23	1329,13
749,41	1187,82
749,59	1265,64
749,77	1333,23
749,95	1294,32
750,13	1222,64
750,31	1232,88
750,49	1267,69
750,67	1273,84
750,85	1308,65
751,03	1216,49
751,20	1296,36
751,38	1232,88
751,56	1267,69
751,74	1304,56
751,92	1300,46
752,10	1249,26
752,28	1322,99
752,46	1208,30
752,64	1269,74
752,82	1263,60
753,00	1269,74
753,18	1302,51
753,35	1255,40
753,53	1185,77
753,71	1241,07
753,89	1300,46
754,07	1265,64
754,25	1251,31
754,43	1275,88
754,61	1214,45
754,79	1294,32
754,97	1277,93
755,14	1302,51
755,32	1275,88
755,50	1220,59
755,68	1257,45
755,86	1357,80
756,04	1294,32
756,22	1245,16
756,40	1269,74
756,57	1173,49
756,75	1312,75
756,93	1279,98
757,11	1226,73
757,29	1263,60
757,47	1267,69
757,65	1247,21
757,82	1265,64
758,00	1271,79
758,18	1265,64
758,36	1314,80
758,54	1300,46
758,72	1198,06
758,90	1306,60
759,07	1275,88
759,25	1302,51
759,43	1236,97
759,61	1353,71
759,79	1239,02
759,97	1298,41
760,15	1277,93
760,32	1331,18
760,50	1230,83
760,68	1214,45
760,86	1265,64
761,04	1284,08
761,22	1288,17
761,39	1249,26
761,57	1286,12
761,75	1261,55
761,93	1220,59
762,11	1249,26
762,28	1296,36
762,46	1327,08
762,64	1357,80
762,82	1249,26
763,00	1263,60
763,18	1284,08
763,35	1273,84
763,53	1255,40
763,71	1234,93
763,89	1253,36
764,07	1265,64
764,24	1265,64
764,42	1302,51
764,60	1239,02
764,78	1298,41
764,96	1304,56
765,13	1267,69
765,31	1329,13
765,49	1296,36
765,67	1271,79
765,84	1286,12
766,02	1279,98
766,20	1261,55
766,38	1230,83
766,56	1179,63
766,73	1337,32
766,91	1259,50
767,09	1298,41
767,27	1349,61
767,44	1273,84
767,62	1298,41
767,80	1249,26
767,98	1253,36
768,15	1236,97
768,33	1261,55
768,51	1247,21
768,69	1263,60
768,87	1261,55
769,04	1282,03
769,22	1247,21
769,40	1271,79
769,58	1273,84
769,75	1247,21
769,93	1259,50
770,11	1206,25
770,28	1249,26
770,46	1236,97
770,64	1329,13
770,82	1339,37
770,99	1212,40
771,17	1325,04
771,35	1331,18
771,53	1345,52
771,70	1220,59
771,88	1286,12
772,06	1269,74
772,23	1214,45
772,41	1255,40
772,59	1261,55
772,77	1224,69
772,94	1257,45
773,12	1386,47
773,30	1259,50
773,47	1265,64
773,65	1304,56
773,83	1355,76
774,01	1300,46
774,18	1255,40
774,36	1282,03
774,54	1245,16
774,71	1257,45
774,89	1261,55
775,07	1269,74
775,24	1284,08
775,42	1284,08
775,60	1325,04
775,78	1306,60
775,95	1298,41
776,13	1263,60
776,31	1271,79
776,48	1247,21
776,66	1282,03
776,84	1236,97
777,01	1312,75
777,19	1239,02
777,37	1304,56
777,54	1339,37
777,72	1286,12
777,90	1251,31
778,07	1273,84
778,25	1275,88
778,43	1329,13
778,60	1269,74
778,78	1339,37
778,96	1304,56
779,13	1257,45
779,31	1239,02
779,49	1298,41
779,66	1327,08
779,84	1304,56
780,01	1222,64
780,19	1226,73
780,37	1234,93
780,54	1304,56
780,72	1300,46
780,90	1257,45
781,07	1214,45
781,25	1271,79
781,43	1204,21
781,60	1241,07
781,78	1294,32
781,95	1245,16
782,13	1288,17
782,31	1249,26
782,48	1263,60
782,66	1251,31
782,83	1279,98
783,01	1265,64
783,19	1253,36
783,36	1255,40
783,54	1247,21
783,72	1261,55
783,89	1275,88
784,07	1255,40
784,24	1261,55
784,42	1314,80
784,60	1290,22
784,77	1284,08
784,95	1302,51
785,12	1224,69
785,30	1265,64
785,47	1245,16
785,65	1236,97
785,83	1279,98
786,00	1259,50
786,18	1251,31
786,35	1271,79
786,53	1296,36
786,71	1232,88
786,88	1277,93
787,06	1224,69
787,23	1269,74
787,41	1298,41
787,58	1269,74
787,76	1255,40
787,94	1329,13
788,11	1230,83
788,29	1247,21
788,46	1257,45
788,64	1288,17
788,81	1198,06
788,99	1247,21
789,16	1337,32
789,34	1277,93
789,52	1304,56
789,69	1259,50
789,87	1193,97
790,04	1216,49
790,22	1279,98
790,39	1267,69
790,57	1302,51
790,74	1327,08
790,92	1239,02
791,09	1279,98
791,27	1284,08
791,44	1279,98
791,62	1198,06
791,79	1214,45
791,97	1282,03
792,15	1310,70
792,32	1214,45
792,50	1249,26
792,67	1257,45
792,85	1253,36
793,02	1288,17
793,20	1224,69
793,37	1333,23
793,55	1241,07
793,72	1245,16
793,90	1312,75
794,07	1296,36
794,25	1218,54
794,42	1273,84
794,60	1241,07
794,77	1316,84
794,95	1261,55
795,12	1224,69
795,30	1355,76
795,47	1275,88
795,65	1337,32
795,82	1198,06
796,00	1220,59
796,17	1263,60
796,34	1284,08
796,52	1282,03
796,69	1302,51
796,87	1220,59
797,04	1255,40
797,22	1261,55
797,39	1249,26
797,57	1255,40
797,74	1286,12
797,92	1198,06
798,09	1296,36
798,27	1224,69
798,44	1249,26
798,62	1335,28
798,79	1210,35
798,96	1290,22
799,14	1249,26
799,31	1322,99
799,49	1183,73
799,66	1275,88
799,84	1241,07
800,01	1253,36
800,19	1249,26
800,36	1333,23
800,53	1183,73
800,71	1261,55
800,88	1236,97
801,06	1245,16
801,23	1306,60
801,41	1265,64
801,58	1310,70
801,75	1271,79
801,93	1300,46
802,10	1284,08
802,28	1273,84
802,45	1202,16
802,63	1234,93
802,80	1298,41
802,97	1222,64
803,15	1339,37
803,32	1208,30
803,50	1269,74
803,67	1282,03
803,84	1196,01
804,02	1310,70
804,19	1243,12
804,37	1304,56
804,54	1292,27
804,71	1282,03
804,89	1265,64
805,06	1265,64
805,24	1230,83
805,41	1296,36
805,58	1292,27
805,76	1282,03
805,93	1228,78
806,10	1241,07
806,28	1316,84
806,45	1243,12
806,63	1296,36
806,80	1222,64
806,97	1286,12
807,15	1241,07
807,32	1230,83
807,49	1300,46
807,67	1153,01
807,84	1216,49
808,01	1282,03
808,19	1261,55
808,36	1257,45
808,54	1265,64
808,71	1318,89
808,88	1302,51
809,06	1279,98
809,23	1273,84
809,40	1302,51
809,58	1275,88
809,75	1210,35
809,92	1279,98
810,10	1279,98
810,27	1304,56
810,44	1275,88
810,62	1322,99
810,79	1253,36
810,96	1271,79
811,14	1302,51
811,31	1296,36
811,48	1300,46
811,66	1249,26
811,83	1228,78
812,00	1208,30
812,18	1222,64
812,35	1294,32
812,52	1306,60
812,69	1261,55
812,87	1286,12
813,04	1249,26
813,21	1288,17
813,39	1279,98
813,56	1198,06
813,73	1208,30
813,91	1308,65
814,08	1310,70
814,25	1222,64
814,42	1343,47
814,60	1294,32
814,77	1261,55
814,94	1239,02
815,12	1230,83
815,29	1333,23
815,46	1288,17
815,63	1296,36
815,81	1204,21
815,98	1234,93
816,15	1306,60
816,33	1230,83
816,50	1329,13
816,67	1157,10
816,84	1261,55
817,02	1310,70
817,19	1265,64
817,36	1261,55
817,53	1247,21
817,71	1372,14
817,88	1265,64
818,05	1208,30
818,22	1298,41
818,40	1171,44
818,57	1294,32
818,74	1398,76
818,91	1210,35
819,09	1294,32
819,26	1292,27
819,43	1290,22
819,60	1198,06
819,78	1312,75
819,95	1212,40
820,12	1263,60
820,29	1343,47
820,47	1286,12
820,64	1253,36
820,81	1214,45
820,98	1259,50
821,15	1236,97
821,33	1279,98
821,50	1187,82
821,67	1245,16
821,84	1314,80
822,02	1366,00
822,19	1228,78
822,36	1318,89
822,53	1322,99
822,70	1263,60
822,88	1292,27
823,05	1204,21
823,22	1196,01
823,39	1277,93
823,56	1253,36
823,74	1277,93
823,91	1265,64
824,08	1230,83
824,25	1224,69
824,42	1210,35
824,60	1273,84
824,77	1294,32
824,94	1290,22
825,11	1204,21
825,28	1241,07
825,45	1288,17
825,63	1232,88
825,80	1185,77
825,97	1302,51
826,14	1312,75
826,31	1273,84
826,48	1325,04
826,66	1216,49
826,83	1222,64
827,00	1198,06
827,17	1216,49
827,34	1304,56
827,51	1296,36
827,69	1337,32
827,86	1253,36
828,03	1259,50
828,20	1241,07
828,37	1277,93
828,54	1282,03
828,71	1230,83
828,89	1257,45
829,06	1216,49
829,23	1337,32
829,40	1236,97
829,57	1273,84
829,74	1212,40
829,91	1216,49
830,09	1230,83
830,26	1216,49
830,43	1200,11
830,60	1279,98
830,77	1314,80
830,94	1273,84
831,11	1269,74
831,28	1193,97
831,46	1282,03
831,63	1304,56
831,80	1292,27
831,97	1316,84
832,14	1279,98
832,31	1300,46
832,48	1325,04
832,65	1249,26
832,82	1314,80
832,99	1234,93
833,17	1251,31
833,34	1181,68
833,51	1286,12
833,68	1239,02
833,85	1304,56
834,02	1318,89
834,19	1212,40
834,36	1247,21
834,53	1234,93
834,70	1257,45
834,87	1234,93
835,04	1320,94
835,22	1198,06
835,39	1279,98
835,56	1251,31
835,73	1226,73
835,90	1255,40
836,07	1292,27
836,24	1171,44
836,41	1249,26
836,58	1277,93
836,75	1335,28
836,92	1255,40
837,09	1322,99
837,26	1232,88
837,43	1247,21
837,60	1286,12
837,77	1200,11
837,94	1255,40
838,12	1247,21
838,29	1241,07
838,46	1208,30
838,63	1325,04
838,80	1271,79
838,97	1298,41
839,14	1302,51
839,31	1265,64
839,48	1247,21
839,65	1261,55
839,82	1292,27
839,99	1275,88
840,16	1314,80
840,33	1277,93
840,50	1302,51
840,67	1251,31
840,84	1232,88
841,01	1249,26
841,18	1343,47
841,35	1181,68
841,52	1239,02
841,69	1306,60
841,86	1247,21
842,03	1312,75
842,20	1322,99
842,37	1196,01
842,54	1277,93
842,71	1220,59
842,88	1204,21
843,05	1255,40
843,22	1239,02
843,39	1327,08
843,56	1224,69
843,73	1259,50
843,90	1261,55
844,07	1265,64
844,24	1277,93
844,41	1298,41
844,58	1161,20
844,75	1263,60
844,92	1318,89
845,09	1284,08
845,26	1279,98
845,43	1322,99
845,60	1236,97
845,77	1173,49
845,94	1239,02
846,10	1257,45
846,27	1249,26
846,44	1239,02
846,61	1249,26
846,78	1255,40
846,95	1294,32
847,12	1308,65
847,29	1292,27
847,46	1279,98
847,63	1269,74
847,80	1296,36
847,97	1253,36
848,14	1200,11
848,31	1228,78
848,48	1236,97
848,65	1284,08
848,82	1300,46
848,98	1314,80
849,15	1181,68
849,32	1306,60
849,49	1163,25
849,66	1232,88
849,83	1263,60
850,00	1239,02
850,17	1343,47
850,34	1261,55
850,51	1216,49
850,68	1308,65
850,85	1327,08
851,01	1304,56
851,18	1234,93
851,35	1316,84
851,52	1206,25
851,69	1298,41
851,86	1253,36
852,03	1314,80
852,20	1302,51
852,37	1269,74
852,53	1212,40
852,70	1202,16
852,87	1310,70
853,04	1253,36
853,21	1245,16
853,38	1239,02
853,55	1308,65
853,72	1265,64
853,89	1290,22
854,05	1275,88
854,22	1212,40
854,39	1320,94
854,56	1277,93
854,73	1212,40
854,90	1245,16
855,07	1312,75
855,23	1288,17
855,40	1251,31
855,57	1288,17
855,74	1226,73
855,91	1282,03
856,08	1294,32
856,25	1273,84
856,41	1212,40
856,58	1263,60
856,75	1220,59
856,92	1249,26
857,09	1228,78
857,26	1261,55
857,42	1247,21
857,59	1337,32
857,76	1325,04
857,93	1220,59
858,10	1257,45
858,27	1236,97
858,43	1290,22
858,60	1241,07
858,77	1286,12
858,94	1241,07
859,11	1337,32
859,27	1234,93
859,44	1310,70
859,61	1282,03
859,78	1296,36
859,95	1234,93
860,12	1267,69
860,28	1322,99
860,45	1224,69
860,62	1232,88
860,79	1220,59
860,95	1236,97
861,12	1232,88
861,29	1310,70
861,46	1279,98
861,63	1288,17
861,79	1271,79
861,96	1279,98
862,13	1320,94
862,30	1239,02
862,47	1191,92
862,63	1253,36
862,80	1288,17
862,97	1230,83
863,14	1277,93
863,30	1380,33
863,47	1339,37
863,64	1277,93
863,81	1335,28
863,97	1361,90
864,14	1298,41
864,31	1288,17
864,48	1239,02
864,65	1236,97
864,81	1241,07
864,98	1290,22
865,15	1249,26
865,32	1302,51
865,48	1255,40
865,65	1273,84
865,82	1269,74
865,98	1224,69
866,15	1208,30
866,32	1294,32
866,49	1327,08
866,65	1308,65
866,82	1288,17
866,99	1234,93
867,16	1253,36
867,32	1263,60
867,49	1259,50
867,66	1212,40
867,83	1249,26
867,99	1351,66
868,16	1263,60
868,33	1306,60
868,49	1214,45
868,66	1259,50
868,83	1247,21
868,99	1204,21
869,16	1271,79
869,33	1300,46
869,50	1253,36
869,66	1241,07
869,83	1279,98
870,00	1253,36
870,16	1255,40
870,33	1279,98
870,50	1302,51
870,66	1273,84
870,83	1388,52
871,00	1277,93
871,17	1298,41
871,33	1286,12
871,50	1279,98
871,67	1259,50
871,83	1243,12
872,00	1286,12
872,17	1249,26
872,33	1212,40
872,50	1216,49
872,67	1241,07
872,83	1298,41
873,00	1257,45
873,17	1314,80
873,33	1257,45
873,50	1232,88
873,67	1343,47
873,83	1325,04
874,00	1245,16
874,16	1208,30
874,33	1298,41
874,50	1277,93
874,66	1277,93
874,83	1320,94
875,00	1228,78
875,16	1253,36
875,33	1298,41
875,50	1214,45
875,66	1261,55
875,83	1251,31
875,99	1247,21
876,16	1265,64
876,33	1261,55
876,49	1208,30
876,66	1329,13
876,83	1310,70
876,99	1312,75
877,16	1232,88
877,32	1322,99
877,49	1200,11
877,66	1220,59
877,82	1241,07
877,99	1247,21
878,15	1247,21
878,32	1185,77
878,49	1275,88
878,65	1296,36
878,82	1320,94
878,98	1312,75
879,15	1241,07
879,32	1290,22
879,48	1249,26
879,65	1232,88
879,81	1224,69
879,98	1259,50
880,15	1296,36
880,31	1329,13
880,48	1181,68
880,64	1243,12
880,81	1288,17
880,97	1284,08
881,14	1345,52
881,31	1312,75
881,47	1218,54
881,64	1282,03
881,80	1222,64
881,97	1294,32
882,13	1253,36
882,30	1277,93
882,47	1277,93
882,63	1286,12
882,80	1222,64
882,96	1277,93
883,13	1267,69
883,29	1259,50
883,46	1241,07
883,62	1329,13
883,79	1245,16
883,95	1253,36
884,12	1202,16
884,29	1216,49
884,45	1277,93
884,62	1200,11
884,78	1292,27
884,95	1181,68
885,11	1331,18
885,28	1196,01
885,44	1306,60
885,61	1239,02
885,77	1249,26
885,94	1230,83
886,10	1220,59
886,27	1306,60
886,43	1294,32
886,60	1243,12
886,76	1275,88
886,93	1226,73
887,09	1267,69
887,26	1249,26
887,42	1239,02
887,59	1302,51
887,75	1292,27
887,92	1306,60
888,08	1226,73
888,25	1271,79
888,41	1257,45
888,58	1349,61
888,74	1322,99
888,91	1290,22
>>>>>End Processed Spectral Data<<<<<
