SpectraSuite Data File
++++++++++++++++++++++++++++++++++++
Date: Sun Apr 03 15:52:34 CEST 2016
User: root
Dark Spectrum Present: No
Reference Spectrum Present: No
Number of Sampled Component Spectra: 1
Spectrometers: USB4C02835
Integration Time (usec): 10000 (USB4C02835)
Spectra Averaged: 1 (USB4C02835)
Boxcar Smoothing: 0 (USB4C02835)
Correct for Electrical Dark: No (USB4C02835)
Strobe/Lamp Enabled: No (USB4C02835)
Correct for Detector Non-linearity: No (USB4C02835)
Correct for Stray Light: No (USB4C02835)
Number of Pixels in Processed Spectrum: 3648
>>>>>Begin Processed Spectral Data<<<<<
177,47	1214,45
177,69	1214,45
177,91	1214,45
178,13	1329,13
178,36	1292,27
178,58	1310,70
178,80	1279,98
179,02	1271,79
179,24	1312,75
179,46	1282,03
179,68	1290,22
179,90	1257,45
180,13	1263,60
180,35	1282,03
180,57	1222,64
180,79	1275,88
181,01	1282,03
181,23	1169,39
181,45	1271,79
181,67	1265,64
181,90	1312,75
182,12	1253,36
182,34	1325,04
182,56	1286,12
182,78	1337,32
183,00	1320,94
183,22	1259,50
183,44	1241,07
183,66	1286,12
183,89	1294,32
184,11	1292,27
184,33	1302,51
184,55	1267,69
184,77	1316,84
184,99	1257,45
185,21	1337,32
185,43	1243,12
185,65	1308,65
185,87	1290,22
186,10	1294,32
186,32	1236,97
186,54	1314,80
186,76	1308,65
186,98	1273,84
187,20	1306,60
187,42	1220,59
187,64	1318,89
187,86	1290,22
188,08	1273,84
188,30	1257,45
188,52	1234,93
188,75	1247,21
188,97	1200,11
189,19	1277,93
189,41	1337,32
189,63	1228,78
189,85	1263,60
190,07	1273,84
190,29	1288,17
190,51	1284,08
190,73	1271,79
190,95	1251,31
191,17	1284,08
191,39	1236,97
191,61	1294,32
191,84	1310,70
192,06	1312,75
192,28	1294,32
192,50	1325,04
192,72	1347,56
192,94	1253,36
193,16	1277,93
193,38	1286,12
193,60	1253,36
193,82	1202,16
194,04	1277,93
194,26	1310,70
194,48	1214,45
194,70	1312,75
194,92	1247,21
195,14	1269,74
195,36	1239,02
195,58	1263,60
195,80	1273,84
196,02	1222,64
196,24	1304,56
196,46	1284,08
196,69	1273,84
196,91	1228,78
197,13	1253,36
197,35	1282,03
197,57	1267,69
197,79	1265,64
198,01	1222,64
198,23	1286,12
198,45	1290,22
198,67	1286,12
198,89	1234,93
199,11	1216,49
199,33	1302,51
199,55	1322,99
199,77	1265,64
199,99	1263,60
200,21	1333,23
200,43	1208,30
200,65	1263,60
200,87	1290,22
201,09	1243,12
201,31	1185,77
201,53	1236,97
201,75	1273,84
201,97	1306,60
202,19	1261,55
202,41	1312,75
202,63	1265,64
202,85	1224,69
203,07	1253,36
203,29	1245,16
203,51	1269,74
203,73	1286,12
203,95	1312,75
204,17	1288,17
204,39	1284,08
204,61	1310,70
204,83	1296,36
205,05	1329,13
205,27	1282,03
205,49	1269,74
205,71	1249,26
205,93	1261,55
206,15	1302,51
206,37	1310,70
206,59	1296,36
206,81	1292,27
207,03	1292,27
207,25	1304,56
207,47	1265,64
207,69	1282,03
207,91	1306,60
208,13	1241,07
208,34	1318,89
208,56	1271,79
208,78	1255,40
209,00	1265,64
209,22	1343,47
209,44	1302,51
209,66	1275,88
209,88	1247,21
210,10	1234,93
210,32	1310,70
210,54	1290,22
210,76	1245,16
210,98	1255,40
211,20	1232,88
211,42	1187,82
211,64	1253,36
211,86	1327,08
212,08	1275,88
212,30	1275,88
212,52	1343,47
212,74	1220,59
212,96	1230,83
213,17	1294,32
213,39	1232,88
213,61	1234,93
213,83	1245,16
214,05	1218,54
214,27	1353,71
214,49	1214,45
214,71	1341,42
214,93	1327,08
215,15	1279,98
215,37	1345,52
215,59	1290,22
215,81	1245,16
216,03	1265,64
216,24	1284,08
216,46	1312,75
216,68	1277,93
216,90	1318,89
217,12	1339,37
217,34	1286,12
217,56	1245,16
217,78	1279,98
218,00	1273,84
218,22	1298,41
218,44	1261,55
218,66	1261,55
218,87	1245,16
219,09	1316,84
219,31	1261,55
219,53	1290,22
219,75	1257,45
219,97	1271,79
220,19	1290,22
220,41	1290,22
220,63	1245,16
220,85	1226,73
221,06	1208,30
221,28	1318,89
221,50	1290,22
221,72	1232,88
221,94	1261,55
222,16	1290,22
222,38	1265,64
222,60	1249,26
222,82	1275,88
223,03	1249,26
223,25	1339,37
223,47	1275,88
223,69	1290,22
223,91	1312,75
224,13	1249,26
224,35	1249,26
224,57	1298,41
224,78	1304,56
225,00	1290,22
225,22	1236,97
225,44	1243,12
225,66	1273,84
225,88	1230,83
226,10	1259,50
226,32	1257,45
226,53	1286,12
226,75	1273,84
226,97	1271,79
227,19	1322,99
227,41	1259,50
227,63	1300,46
227,85	1267,69
228,06	1331,18
228,28	1257,45
228,50	1284,08
228,72	1241,07
228,94	1290,22
229,16	1265,64
229,37	1277,93
229,59	1312,75
229,81	1257,45
230,03	1310,70
230,25	1294,32
230,47	1318,89
230,69	1337,32
230,90	1206,25
231,12	1263,60
231,34	1255,40
231,56	1347,56
231,78	1306,60
232,00	1351,66
232,21	1269,74
232,43	1218,54
232,65	1298,41
232,87	1218,54
233,09	1208,30
233,30	1320,94
233,52	1300,46
233,74	1263,60
233,96	1339,37
234,18	1208,30
234,40	1302,51
234,61	1314,80
234,83	1218,54
235,05	1239,02
235,27	1267,69
235,49	1251,31
235,70	1300,46
235,92	1275,88
236,14	1322,99
236,36	1198,06
236,58	1261,55
236,79	1273,84
237,01	1300,46
237,23	1279,98
237,45	1298,41
237,67	1275,88
237,88	1263,60
238,10	1298,41
238,32	1253,36
238,54	1302,51
238,76	1236,97
238,97	1243,12
239,19	1257,45
239,41	1314,80
239,63	1288,17
239,85	1261,55
240,06	1288,17
240,28	1304,56
240,50	1277,93
240,72	1320,94
240,93	1306,60
241,15	1296,36
241,37	1239,02
241,59	1265,64
241,81	1224,69
242,02	1304,56
242,24	1284,08
242,46	1269,74
242,68	1255,40
242,89	1249,26
243,11	1255,40
243,33	1200,11
243,55	1292,27
243,76	1277,93
243,98	1253,36
244,20	1257,45
244,42	1277,93
244,64	1257,45
244,85	1224,69
245,07	1335,28
245,29	1255,40
245,51	1236,97
245,72	1304,56
245,94	1296,36
246,16	1245,16
246,38	1206,25
246,59	1261,55
246,81	1239,02
247,03	1322,99
247,24	1251,31
247,46	1228,78
247,68	1284,08
247,90	1286,12
248,11	1306,60
248,33	1265,64
248,55	1241,07
248,77	1226,73
248,98	1359,85
249,20	1273,84
249,42	1306,60
249,64	1353,71
249,85	1290,22
250,07	1282,03
250,29	1267,69
250,50	1310,70
250,72	1304,56
250,94	1288,17
251,16	1282,03
251,37	1181,68
251,59	1222,64
251,81	1243,12
252,02	1247,21
252,24	1277,93
252,46	1286,12
252,68	1212,40
252,89	1273,84
253,11	1198,06
253,33	1232,88
253,54	1290,22
253,76	1224,69
253,98	1249,26
254,20	1216,49
254,41	1296,36
254,63	1245,16
254,85	1267,69
255,06	1306,60
255,28	1282,03
255,50	1259,50
255,71	1294,32
255,93	1269,74
256,15	1290,22
256,36	1202,16
256,58	1286,12
256,80	1232,88
257,02	1269,74
257,23	1370,09
257,45	1220,59
257,67	1347,56
257,88	1288,17
258,10	1249,26
258,32	1208,30
258,53	1259,50
258,75	1277,93
258,97	1316,84
259,18	1267,69
259,40	1271,79
259,62	1288,17
259,83	1251,31
260,05	1218,54
260,27	1296,36
260,48	1257,45
260,70	1255,40
260,92	1286,12
261,13	1329,13
261,35	1259,50
261,57	1288,17
261,78	1206,25
262,00	1214,45
262,22	1284,08
262,43	1257,45
262,65	1249,26
262,86	1263,60
263,08	1273,84
263,30	1253,36
263,51	1277,93
263,73	1353,71
263,95	1273,84
264,16	1302,51
264,38	1290,22
264,60	1300,46
264,81	1267,69
265,03	1314,80
265,25	1267,69
265,46	1286,12
265,68	1279,98
265,89	1290,22
266,11	1265,64
266,33	1271,79
266,54	1318,89
266,76	1259,50
266,98	1247,21
267,19	1261,55
267,41	1253,36
267,62	1230,83
267,84	1288,17
268,06	1208,30
268,27	1271,79
268,49	1275,88
268,70	1339,37
268,92	1259,50
269,14	1263,60
269,35	1265,64
269,57	1261,55
269,79	1232,88
270,00	1310,70
270,22	1239,02
270,43	1247,21
270,65	1247,21
270,87	1304,56
271,08	1245,16
271,30	1247,21
271,51	1267,69
271,73	1222,64
271,95	1241,07
272,16	1257,45
272,38	1247,21
272,59	1292,27
272,81	1345,52
273,02	1247,21
273,24	1265,64
273,46	1263,60
273,67	1212,40
273,89	1251,31
274,10	1277,93
274,32	1249,26
274,54	1288,17
274,75	1263,60
274,97	1263,60
275,18	1267,69
275,40	1273,84
275,61	1241,07
275,83	1228,78
276,05	1206,25
276,26	1320,94
276,48	1271,79
276,69	1279,98
276,91	1282,03
277,12	1179,63
277,34	1261,55
277,55	1253,36
277,77	1232,88
277,99	1282,03
278,20	1310,70
278,42	1232,88
278,63	1261,55
278,85	1212,40
279,06	1320,94
279,28	1279,98
279,49	1239,02
279,71	1232,88
279,93	1308,65
280,14	1214,45
280,36	1308,65
280,57	1294,32
280,79	1249,26
281,00	1298,41
281,22	1249,26
281,43	1292,27
281,65	1265,64
281,86	1263,60
282,08	1236,97
282,29	1298,41
282,51	1243,12
282,73	1273,84
282,94	1193,97
283,16	1255,40
283,37	1337,32
283,59	1220,59
283,80	1308,65
284,02	1335,28
284,23	1236,97
284,45	1320,94
284,66	1316,84
284,88	1363,95
285,09	1204,21
285,31	1263,60
285,52	1267,69
285,74	1275,88
285,95	1292,27
286,17	1249,26
286,38	1290,22
286,60	1267,69
286,81	1206,25
287,03	1304,56
287,24	1259,50
287,46	1368,04
287,67	1288,17
287,89	1304,56
288,10	1320,94
288,32	1277,93
288,53	1253,36
288,75	1275,88
288,96	1310,70
289,18	1216,49
289,39	1322,99
289,61	1222,64
289,82	1257,45
290,04	1290,22
290,25	1300,46
290,47	1265,64
290,68	1335,28
290,90	1294,32
291,11	1173,49
291,33	1255,40
291,54	1265,64
291,76	1349,61
291,97	1277,93
292,18	1198,06
292,40	1318,89
292,61	1212,40
292,83	1243,12
293,04	1187,82
293,26	1234,93
293,47	1331,18
293,69	1329,13
293,90	1290,22
294,12	1216,49
294,33	1304,56
294,55	1257,45
294,76	1269,74
294,97	1320,94
295,19	1331,18
295,40	1333,23
295,62	1232,88
295,83	1275,88
296,05	1331,18
296,26	1269,74
296,48	1251,31
296,69	1241,07
296,90	1191,92
297,12	1257,45
297,33	1277,93
297,55	1226,73
297,76	1220,59
297,98	1265,64
298,19	1222,64
298,41	1312,75
298,62	1300,46
298,83	1308,65
299,05	1302,51
299,26	1257,45
299,48	1335,28
299,69	1286,12
299,90	1288,17
300,12	1284,08
300,33	1312,75
300,55	1234,93
300,76	1294,32
300,98	1222,64
301,19	1282,03
301,40	1296,36
301,62	1273,84
301,83	1294,32
302,05	1228,78
302,26	1236,97
302,47	1271,79
302,69	1251,31
302,90	1378,28
303,12	1187,82
303,33	1241,07
303,54	1218,54
303,76	1322,99
303,97	1232,88
304,19	1267,69
304,40	1294,32
304,61	1294,32
304,83	1230,83
305,04	1275,88
305,26	1267,69
305,47	1286,12
305,68	1294,32
305,90	1304,56
306,11	1239,02
306,33	1372,14
306,54	1314,80
306,75	1232,88
306,97	1310,70
307,18	1325,04
307,39	1349,61
307,61	1286,12
307,82	1216,49
308,04	1310,70
308,25	1216,49
308,46	1298,41
308,68	1282,03
308,89	1216,49
309,10	1189,87
309,32	1251,31
309,53	1239,02
309,74	1355,76
309,96	1259,50
310,17	1273,84
310,39	1236,97
310,60	1269,74
310,81	1243,12
311,03	1288,17
311,24	1236,97
311,45	1265,64
311,67	1267,69
311,88	1286,12
312,09	1214,45
312,31	1298,41
312,52	1310,70
312,73	1247,21
312,95	1269,74
313,16	1339,37
313,37	1222,64
313,59	1204,21
313,80	1214,45
314,01	1251,31
314,23	1224,69
314,44	1288,17
314,65	1236,97
314,87	1263,60
315,08	1257,45
315,29	1241,07
315,51	1363,95
315,72	1294,32
315,93	1339,37
316,15	1320,94
316,36	1216,49
316,57	1312,75
316,79	1290,22
317,00	1257,45
317,21	1271,79
317,43	1259,50
317,64	1327,08
317,85	1218,54
318,07	1265,64
318,28	1247,21
318,49	1253,36
318,70	1294,32
318,92	1277,93
319,13	1310,70
319,34	1222,64
319,56	1191,92
319,77	1259,50
319,98	1232,88
320,20	1247,21
320,41	1294,32
320,62	1314,80
320,83	1312,75
321,05	1329,13
321,26	1245,16
321,47	1294,32
321,69	1241,07
321,90	1292,27
322,11	1245,16
322,32	1245,16
322,54	1275,88
322,75	1277,93
322,96	1267,69
323,18	1363,95
323,39	1288,17
323,60	1273,84
323,81	1267,69
324,03	1271,79
324,24	1343,47
324,45	1271,79
324,66	1269,74
324,88	1263,60
325,09	1218,54
325,30	1263,60
325,52	1259,50
325,73	1267,69
325,94	1253,36
326,15	1288,17
326,37	1347,56
326,58	1239,02
326,79	1318,89
327,00	1282,03
327,22	1312,75
327,43	1290,22
327,64	1298,41
327,85	1251,31
328,07	1306,60
328,28	1245,16
328,49	1273,84
328,70	1306,60
328,92	1316,84
329,13	1230,83
329,34	1308,65
329,55	1341,42
329,76	1245,16
329,98	1302,51
330,19	1224,69
330,40	1249,26
330,61	1228,78
330,83	1249,26
331,04	1249,26
331,25	1279,98
331,46	1265,64
331,68	1247,21
331,89	1284,08
332,10	1277,93
332,31	1255,40
332,52	1306,60
332,74	1300,46
332,95	1239,02
333,16	1294,32
333,37	1251,31
333,58	1310,70
333,80	1247,21
334,01	1298,41
334,22	1384,43
334,43	1286,12
334,64	1265,64
334,86	1216,49
335,07	1286,12
335,28	1263,60
335,49	1259,50
335,70	1257,45
335,92	1263,60
336,13	1296,36
336,34	1253,36
336,55	1286,12
336,76	1327,08
336,98	1277,93
337,19	1255,40
337,40	1290,22
337,61	1196,01
337,82	1271,79
338,04	1306,60
338,25	1232,88
338,46	1267,69
338,67	1255,40
338,88	1259,50
339,09	1236,97
339,31	1290,22
339,52	1343,47
339,73	1310,70
339,94	1255,40
340,15	1331,18
340,36	1241,07
340,58	1255,40
340,79	1308,65
341,00	1325,04
341,21	1294,32
341,42	1275,88
341,63	1282,03
341,85	1241,07
342,06	1269,74
342,27	1214,45
342,48	1230,83
342,69	1253,36
342,90	1230,83
343,12	1329,13
343,33	1271,79
343,54	1243,12
343,75	1302,51
343,96	1253,36
344,17	1271,79
344,38	1245,16
344,60	1282,03
344,81	1288,17
345,02	1312,75
345,23	1232,88
345,44	1282,03
345,65	1298,41
345,86	1218,54
346,07	1282,03
346,29	1208,30
346,50	1288,17
346,71	1259,50
346,92	1316,84
347,13	1306,60
347,34	1234,93
347,55	1294,32
347,76	1327,08
347,98	1312,75
348,19	1269,74
348,40	1220,59
348,61	1349,61
348,82	1247,21
349,03	1214,45
349,24	1322,99
349,45	1216,49
349,66	1286,12
349,88	1269,74
350,09	1318,89
350,30	1310,70
350,51	1273,84
350,72	1224,69
350,93	1273,84
351,14	1263,60
351,35	1322,99
351,56	1296,36
351,77	1296,36
351,99	1314,80
352,20	1249,26
352,41	1284,08
352,62	1320,94
352,83	1304,56
353,04	1290,22
353,25	1269,74
353,46	1232,88
353,67	1284,08
353,88	1331,18
354,09	1230,83
354,30	1273,84
354,52	1302,51
354,73	1282,03
354,94	1300,46
355,15	1304,56
355,36	1216,49
355,57	1257,45
355,78	1267,69
355,99	1329,13
356,20	1234,93
356,41	1294,32
356,62	1284,08
356,83	1306,60
357,04	1292,27
357,25	1292,27
357,46	1314,80
357,68	1318,89
357,89	1292,27
358,10	1322,99
358,31	1247,21
358,52	1224,69
358,73	1257,45
358,94	1234,93
359,15	1292,27
359,36	1230,83
359,57	1286,12
359,78	1290,22
359,99	1290,22
360,20	1257,45
360,41	1304,56
360,62	1241,07
360,83	1232,88
361,04	1245,16
361,25	1286,12
361,46	1236,97
361,67	1245,16
361,88	1241,07
362,09	1263,60
362,30	1245,16
362,51	1300,46
362,72	1288,17
362,93	1286,12
363,14	1279,98
363,35	1263,60
363,56	1236,97
363,78	1189,87
363,99	1204,21
364,20	1306,60
364,41	1259,50
364,62	1322,99
364,83	1277,93
365,04	1316,84
365,25	1282,03
365,46	1241,07
365,67	1275,88
365,88	1263,60
366,09	1318,89
366,30	1349,61
366,51	1208,30
366,72	1361,90
366,93	1263,60
367,14	1232,88
367,35	1234,93
367,56	1212,40
367,77	1212,40
367,98	1247,21
368,18	1286,12
368,39	1284,08
368,60	1263,60
368,81	1294,32
369,02	1226,73
369,23	1241,07
369,44	1314,80
369,65	1257,45
369,86	1282,03
370,07	1232,88
370,28	1257,45
370,49	1302,51
370,70	1310,70
370,91	1322,99
371,12	1263,60
371,33	1181,68
371,54	1292,27
371,75	1228,78
371,96	1288,17
372,17	1208,30
372,38	1318,89
372,59	1302,51
372,80	1259,50
373,01	1198,06
373,22	1331,18
373,43	1224,69
373,64	1312,75
373,85	1282,03
374,06	1298,41
374,26	1269,74
374,47	1273,84
374,68	1282,03
374,89	1308,65
375,10	1257,45
375,31	1249,26
375,52	1279,98
375,73	1230,83
375,94	1234,93
376,15	1337,32
376,36	1224,69
376,57	1255,40
376,78	1243,12
376,99	1218,54
377,20	1302,51
377,40	1279,98
377,61	1327,08
377,82	1198,06
378,03	1239,02
378,24	1267,69
378,45	1306,60
378,66	1206,25
378,87	1343,47
379,08	1255,40
379,29	1335,28
379,50	1277,93
379,71	1327,08
379,91	1232,88
380,12	1191,92
380,33	1327,08
380,54	1234,93
380,75	1243,12
380,96	1232,88
381,17	1302,51
381,38	1216,49
381,59	1224,69
381,80	1204,21
382,00	1298,41
382,21	1312,75
382,42	1320,94
382,63	1263,60
382,84	1241,07
383,05	1292,27
383,26	1337,32
383,47	1275,88
383,68	1267,69
383,88	1279,98
384,09	1200,11
384,30	1175,53
384,51	1255,40
384,72	1247,21
384,93	1247,21
385,14	1220,59
385,35	1261,55
385,55	1314,80
385,76	1247,21
385,97	1310,70
386,18	1251,31
386,39	1202,16
386,60	1296,36
386,81	1232,88
387,02	1247,21
387,22	1286,12
387,43	1300,46
387,64	1308,65
387,85	1273,84
388,06	1189,87
388,27	1314,80
388,48	1316,84
388,68	1269,74
388,89	1310,70
389,10	1253,36
389,31	1284,08
389,52	1265,64
389,73	1167,34
389,93	1345,52
390,14	1185,77
390,35	1296,36
390,56	1284,08
390,77	1257,45
390,98	1228,78
391,18	1236,97
391,39	1245,16
391,60	1271,79
391,81	1275,88
392,02	1290,22
392,23	1247,21
392,43	1312,75
392,64	1298,41
392,85	1312,75
393,06	1288,17
393,27	1288,17
393,47	1288,17
393,68	1204,21
393,89	1255,40
394,10	1347,56
394,31	1273,84
394,52	1204,21
394,72	1255,40
394,93	1236,97
395,14	1253,36
395,35	1316,84
395,56	1290,22
395,76	1220,59
395,97	1196,01
396,18	1345,52
396,39	1267,69
396,60	1298,41
396,80	1275,88
397,01	1273,84
397,22	1282,03
397,43	1220,59
397,64	1226,73
397,84	1288,17
398,05	1277,93
398,26	1253,36
398,47	1226,73
398,67	1230,83
398,88	1206,25
399,09	1275,88
399,30	1368,04
399,51	1267,69
399,71	1320,94
399,92	1224,69
400,13	1232,88
400,34	1236,97
400,54	1224,69
400,75	1239,02
400,96	1314,80
401,17	1249,26
401,37	1290,22
401,58	1308,65
401,79	1255,40
402,00	1298,41
402,21	1261,55
402,41	1279,98
402,62	1329,13
402,83	1288,17
403,04	1284,08
403,24	1275,88
403,45	1333,23
403,66	1322,99
403,87	1286,12
404,07	1277,93
404,28	1335,28
404,49	1300,46
404,70	1382,38
404,90	1277,93
405,11	1296,36
405,32	1271,79
405,52	1341,42
405,73	1275,88
405,94	1306,60
406,15	1226,73
406,35	1226,73
406,56	1331,18
406,77	1312,75
406,98	1277,93
407,18	1230,83
407,39	1200,11
407,60	1241,07
407,80	1320,94
408,01	1265,64
408,22	1277,93
408,43	1318,89
408,63	1220,59
408,84	1302,51
409,05	1316,84
409,25	1318,89
409,46	1318,89
409,67	1239,02
409,88	1302,51
410,08	1257,45
410,29	1306,60
410,50	1320,94
410,70	1306,60
410,91	1198,06
411,12	1245,16
411,32	1202,16
411,53	1282,03
411,74	1284,08
411,95	1226,73
412,15	1322,99
412,36	1257,45
412,57	1263,60
412,77	1314,80
412,98	1261,55
413,19	1298,41
413,39	1298,41
413,60	1290,22
413,81	1292,27
414,01	1247,21
414,22	1249,26
414,43	1261,55
414,63	1279,98
414,84	1275,88
415,05	1253,36
415,25	1279,98
415,46	1236,97
415,67	1282,03
415,87	1222,64
416,08	1265,64
416,29	1251,31
416,49	1253,36
416,70	1265,64
416,91	1259,50
417,11	1269,74
417,32	1288,17
417,53	1224,69
417,73	1282,03
417,94	1306,60
418,15	1212,40
418,35	1304,56
418,56	1275,88
418,77	1257,45
418,97	1284,08
419,18	1345,52
419,38	1259,50
419,59	1202,16
419,80	1308,65
420,00	1327,08
420,21	1302,51
420,42	1239,02
420,62	1279,98
420,83	1226,73
421,04	1288,17
421,24	1228,78
421,45	1306,60
421,65	1253,36
421,86	1212,40
422,07	1322,99
422,27	1216,49
422,48	1318,89
422,69	1273,84
422,89	1249,26
423,10	1288,17
423,30	1251,31
423,51	1249,26
423,72	1269,74
423,92	1232,88
424,13	1290,22
424,33	1236,97
424,54	1327,08
424,75	1261,55
424,95	1271,79
425,16	1253,36
425,36	1279,98
425,57	1273,84
425,78	1239,02
425,98	1327,08
426,19	1298,41
426,39	1271,79
426,60	1251,31
426,81	1292,27
427,01	1263,60
427,22	1298,41
427,42	1322,99
427,63	1265,64
427,83	1339,37
428,04	1277,93
428,25	1269,74
428,45	1345,52
428,66	1253,36
428,86	1247,21
429,07	1228,78
429,28	1271,79
429,48	1236,97
429,69	1288,17
429,89	1341,42
430,10	1249,26
430,30	1210,35
430,51	1222,64
430,71	1265,64
430,92	1251,31
431,13	1265,64
431,33	1314,80
431,54	1312,75
431,74	1290,22
431,95	1284,08
432,15	1239,02
432,36	1249,26
432,56	1236,97
432,77	1271,79
432,98	1284,08
433,18	1267,69
433,39	1357,80
433,59	1204,21
433,80	1220,59
434,00	1304,56
434,21	1312,75
434,41	1249,26
434,62	1265,64
434,82	1273,84
435,03	1247,21
435,23	1292,27
435,44	1288,17
435,64	1273,84
435,85	1282,03
436,06	1314,80
436,26	1247,21
436,47	1257,45
436,67	1236,97
436,88	1279,98
437,08	1275,88
437,29	1302,51
437,49	1302,51
437,70	1349,61
437,90	1196,01
438,11	1343,47
438,31	1304,56
438,52	1243,12
438,72	1314,80
438,93	1302,51
439,13	1304,56
439,34	1288,17
439,54	1259,50
439,75	1282,03
439,95	1269,74
440,16	1269,74
440,36	1282,03
440,57	1200,11
440,77	1382,38
440,98	1241,07
441,18	1320,94
441,39	1253,36
441,59	1282,03
441,80	1241,07
442,00	1249,26
442,21	1331,18
442,41	1222,64
442,62	1267,69
442,82	1247,21
443,02	1286,12
443,23	1247,21
443,43	1263,60
443,64	1279,98
443,84	1241,07
444,05	1241,07
444,25	1267,69
444,46	1271,79
444,66	1249,26
444,87	1263,60
445,07	1253,36
445,28	1267,69
445,48	1243,12
445,69	1290,22
445,89	1341,42
446,09	1343,47
446,30	1300,46
446,50	1220,59
446,71	1286,12
446,91	1253,36
447,12	1253,36
447,32	1320,94
447,53	1322,99
447,73	1282,03
447,93	1267,69
448,14	1286,12
448,34	1239,02
448,55	1290,22
448,75	1284,08
448,96	1245,16
449,16	1302,51
449,36	1224,69
449,57	1228,78
449,77	1239,02
449,98	1347,56
450,18	1247,21
450,39	1179,63
450,59	1269,74
450,79	1243,12
451,00	1327,08
451,20	1239,02
451,41	1263,60
451,61	1290,22
451,81	1269,74
452,02	1214,45
452,22	1290,22
452,43	1249,26
452,63	1255,40
452,84	1253,36
453,04	1277,93
453,24	1214,45
453,45	1288,17
453,65	1269,74
453,86	1224,69
454,06	1257,45
454,26	1257,45
454,47	1269,74
454,67	1273,84
454,87	1239,02
455,08	1245,16
455,28	1161,20
455,49	1308,65
455,69	1234,93
455,89	1210,35
456,10	1318,89
456,30	1234,93
456,51	1265,64
456,71	1286,12
456,91	1312,75
457,12	1335,28
457,32	1234,93
457,52	1267,69
457,73	1259,50
457,93	1325,04
458,14	1253,36
458,34	1286,12
458,54	1298,41
458,75	1261,55
458,95	1247,21
459,15	1269,74
459,36	1259,50
459,56	1282,03
459,76	1249,26
459,97	1296,36
460,17	1275,88
460,37	1378,28
460,58	1273,84
460,78	1226,73
460,99	1204,21
461,19	1325,04
461,39	1267,69
461,60	1298,41
461,80	1163,25
462,00	1298,41
462,21	1261,55
462,41	1206,25
462,61	1253,36
462,82	1241,07
463,02	1255,40
463,22	1261,55
463,43	1294,32
463,63	1316,84
463,83	1206,25
464,04	1320,94
464,24	1202,16
464,44	1279,98
464,64	1257,45
464,85	1230,83
465,05	1269,74
465,25	1290,22
465,46	1220,59
465,66	1300,46
465,86	1271,79
466,07	1322,99
466,27	1228,78
466,47	1359,85
466,68	1220,59
466,88	1185,77
467,08	1327,08
467,29	1279,98
467,49	1286,12
467,69	1282,03
467,89	1294,32
468,10	1236,97
468,30	1230,83
468,50	1339,37
468,71	1243,12
468,91	1316,84
469,11	1329,13
469,31	1341,42
469,52	1189,87
469,72	1296,36
469,92	1226,73
470,13	1253,36
470,33	1208,30
470,53	1351,66
470,73	1329,13
470,94	1202,16
471,14	1228,78
471,34	1288,17
471,54	1275,88
471,75	1241,07
471,95	1308,65
472,15	1302,51
472,36	1230,83
472,56	1343,47
472,76	1322,99
472,96	1226,73
473,17	1290,22
473,37	1257,45
473,57	1239,02
473,77	1269,74
473,98	1290,22
474,18	1312,75
474,38	1236,97
474,58	1245,16
474,79	1298,41
474,99	1286,12
475,19	1306,60
475,39	1236,97
475,60	1210,35
475,80	1325,04
476,00	1257,45
476,20	1335,28
476,41	1228,78
476,61	1335,28
476,81	1279,98
477,01	1273,84
477,21	1298,41
477,42	1302,51
477,62	1263,60
477,82	1183,73
478,02	1267,69
478,23	1232,88
478,43	1284,08
478,63	1261,55
478,83	1275,88
479,03	1292,27
479,24	1247,21
479,44	1251,31
479,64	1316,84
479,84	1220,59
480,04	1226,73
480,25	1249,26
480,45	1212,40
480,65	1243,12
480,85	1243,12
481,06	1236,97
481,26	1220,59
481,46	1198,06
481,66	1261,55
481,86	1320,94
482,06	1286,12
482,27	1177,58
482,47	1214,45
482,67	1339,37
482,87	1241,07
483,07	1249,26
483,28	1267,69
483,48	1257,45
483,68	1294,32
483,88	1191,92
484,08	1296,36
484,29	1183,73
484,49	1261,55
484,69	1263,60
484,89	1286,12
485,09	1251,31
485,29	1310,70
485,50	1241,07
485,70	1247,21
485,90	1222,64
486,10	1300,46
486,30	1239,02
486,50	1341,42
486,71	1290,22
486,91	1241,07
487,11	1230,83
487,31	1259,50
487,51	1361,90
487,71	1271,79
487,91	1306,60
488,12	1370,09
488,32	1210,35
488,52	1286,12
488,72	1245,16
488,92	1210,35
489,12	1304,56
489,32	1349,61
489,53	1232,88
489,73	1245,16
489,93	1353,71
490,13	1214,45
490,33	1298,41
490,53	1204,21
490,73	1259,50
490,94	1292,27
491,14	1273,84
491,34	1304,56
491,54	1239,02
491,74	1236,97
491,94	1159,15
492,14	1298,41
492,34	1284,08
492,54	1204,21
492,75	1241,07
492,95	1191,92
493,15	1294,32
493,35	1294,32
493,55	1300,46
493,75	1236,97
493,95	1271,79
494,15	1271,79
494,35	1282,03
494,56	1253,36
494,76	1257,45
494,96	1249,26
495,16	1271,79
495,36	1329,13
495,56	1226,73
495,76	1337,32
495,96	1282,03
496,16	1208,30
496,36	1277,93
496,56	1282,03
496,77	1327,08
496,97	1353,71
497,17	1298,41
497,37	1279,98
497,57	1286,12
497,77	1224,69
497,97	1271,79
498,17	1296,36
498,37	1243,12
498,57	1290,22
498,77	1173,49
498,97	1294,32
499,17	1265,64
499,38	1263,60
499,58	1202,16
499,78	1253,36
499,98	1257,45
500,18	1204,21
500,38	1314,80
500,58	1226,73
500,78	1273,84
500,98	1232,88
501,18	1343,47
501,38	1312,75
501,58	1284,08
501,78	1298,41
501,98	1302,51
502,18	1300,46
502,38	1224,69
502,58	1241,07
502,78	1263,60
502,98	1300,46
503,18	1249,26
503,38	1318,89
503,59	1279,98
503,79	1218,54
503,99	1259,50
504,19	1294,32
504,39	1255,40
504,59	1341,42
504,79	1148,91
504,99	1265,64
505,19	1288,17
505,39	1306,60
505,59	1322,99
505,79	1208,30
505,99	1245,16
506,19	1292,27
506,39	1228,78
506,59	1337,32
506,79	1282,03
506,99	1284,08
507,19	1292,27
507,39	1241,07
507,59	1312,75
507,79	1247,21
507,99	1273,84
508,19	1222,64
508,39	1257,45
508,59	1279,98
508,79	1271,79
508,99	1290,22
509,19	1241,07
509,39	1298,41
509,59	1312,75
509,79	1212,40
509,99	1355,76
510,19	1257,45
510,39	1290,22
510,59	1247,21
510,79	1255,40
510,99	1247,21
511,19	1216,49
511,39	1282,03
511,59	1236,97
511,79	1204,21
511,99	1306,60
512,19	1314,80
512,38	1282,03
512,58	1273,84
512,78	1331,18
512,98	1245,16
513,18	1300,46
513,38	1273,84
513,58	1220,59
513,78	1314,80
513,98	1282,03
514,18	1247,21
514,38	1347,56
514,58	1312,75
514,78	1245,16
514,98	1263,60
515,18	1220,59
515,38	1290,22
515,58	1265,64
515,78	1310,70
515,98	1298,41
516,18	1345,52
516,38	1230,83
516,57	1220,59
516,77	1314,80
516,97	1245,16
517,17	1259,50
517,37	1271,79
517,57	1282,03
517,77	1255,40
517,97	1302,51
518,17	1267,69
518,37	1263,60
518,57	1257,45
518,77	1222,64
518,97	1261,55
519,16	1261,55
519,36	1329,13
519,56	1341,42
519,76	1251,31
519,96	1277,93
520,16	1198,06
520,36	1263,60
520,56	1222,64
520,76	1257,45
520,96	1200,11
521,16	1282,03
521,35	1279,98
521,55	1290,22
521,75	1241,07
521,95	1298,41
522,15	1300,46
522,35	1294,32
522,55	1228,78
522,75	1257,45
522,95	1171,44
523,14	1263,60
523,34	1247,21
523,54	1271,79
523,74	1257,45
523,94	1339,37
524,14	1253,36
524,34	1347,56
524,54	1322,99
524,73	1294,32
524,93	1339,37
525,13	1196,01
525,33	1286,12
525,53	1275,88
525,73	1243,12
525,93	1282,03
526,13	1302,51
526,32	1277,93
526,52	1253,36
526,72	1265,64
526,92	1316,84
527,12	1320,94
527,32	1255,40
527,52	1314,80
527,71	1247,21
527,91	1318,89
528,11	1314,80
528,31	1232,88
528,51	1236,97
528,71	1257,45
528,90	1318,89
529,10	1292,27
529,30	1290,22
529,50	1288,17
529,70	1271,79
529,90	1214,45
530,09	1267,69
530,29	1222,64
530,49	1232,88
530,69	1249,26
530,89	1251,31
531,09	1349,61
531,28	1296,36
531,48	1257,45
531,68	1304,56
531,88	1296,36
532,08	1290,22
532,28	1247,21
532,47	1241,07
532,67	1232,88
532,87	1310,70
533,07	1316,84
533,27	1275,88
533,46	1259,50
533,66	1181,68
533,86	1279,98
534,06	1232,88
534,26	1294,32
534,45	1261,55
534,65	1200,11
534,85	1327,08
535,05	1226,73
535,25	1212,40
535,44	1249,26
535,64	1318,89
535,84	1314,80
536,04	1216,49
536,24	1320,94
536,43	1279,98
536,63	1312,75
536,83	1241,07
537,03	1310,70
537,22	1220,59
537,42	1220,59
537,62	1208,30
537,82	1247,21
538,02	1298,41
538,21	1257,45
538,41	1277,93
538,61	1277,93
538,81	1284,08
539,00	1148,91
539,20	1329,13
539,40	1312,75
539,60	1210,35
539,79	1271,79
539,99	1277,93
540,19	1277,93
540,39	1302,51
540,58	1366,00
540,78	1269,74
540,98	1214,45
541,18	1304,56
541,37	1292,27
541,57	1269,74
541,77	1261,55
541,97	1241,07
542,16	1257,45
542,36	1257,45
542,56	1263,60
542,76	1277,93
542,95	1296,36
543,15	1243,12
543,35	1304,56
543,54	1249,26
543,74	1333,23
543,94	1339,37
544,14	1298,41
544,33	1224,69
544,53	1284,08
544,73	1277,93
544,93	1304,56
545,12	1314,80
545,32	1300,46
545,52	1286,12
545,71	1302,51
545,91	1259,50
546,11	1284,08
546,30	1214,45
546,50	1302,51
546,70	1290,22
546,90	1267,69
547,09	1322,99
547,29	1216,49
547,49	1257,45
547,68	1275,88
547,88	1279,98
548,08	1267,69
548,27	1331,18
548,47	1282,03
548,67	1232,88
548,87	1259,50
549,06	1296,36
549,26	1265,64
549,46	1345,52
549,65	1282,03
549,85	1282,03
550,05	1318,89
550,24	1241,07
550,44	1296,36
550,64	1212,40
550,83	1290,22
551,03	1226,73
551,23	1275,88
551,42	1257,45
551,62	1349,61
551,82	1241,07
552,01	1294,32
552,21	1251,31
552,41	1253,36
552,60	1290,22
552,80	1245,16
553,00	1232,88
553,19	1374,19
553,39	1320,94
553,59	1304,56
553,78	1294,32
553,98	1296,36
554,17	1273,84
554,37	1251,31
554,57	1200,11
554,76	1253,36
554,96	1314,80
555,16	1232,88
555,35	1200,11
555,55	1314,80
555,75	1290,22
555,94	1308,65
556,14	1261,55
556,33	1249,26
556,53	1294,32
556,73	1339,37
556,92	1275,88
557,12	1234,93
557,32	1300,46
557,51	1251,31
557,71	1263,60
557,90	1277,93
558,10	1269,74
558,30	1257,45
558,49	1294,32
558,69	1290,22
558,88	1228,78
559,08	1210,35
559,28	1318,89
559,47	1265,64
559,67	1251,31
559,86	1232,88
560,06	1314,80
560,26	1216,49
560,45	1273,84
560,65	1259,50
560,84	1267,69
561,04	1284,08
561,24	1253,36
561,43	1275,88
561,63	1261,55
561,82	1261,55
562,02	1284,08
562,22	1216,49
562,41	1247,21
562,61	1259,50
562,80	1236,97
563,00	1257,45
563,19	1286,12
563,39	1296,36
563,59	1263,60
563,78	1267,69
563,98	1155,05
564,17	1347,56
564,37	1271,79
564,56	1247,21
564,76	1347,56
564,96	1218,54
565,15	1239,02
565,35	1292,27
565,54	1294,32
565,74	1249,26
565,93	1277,93
566,13	1269,74
566,32	1249,26
566,52	1288,17
566,71	1314,80
566,91	1261,55
567,11	1304,56
567,30	1232,88
567,50	1249,26
567,69	1275,88
567,89	1343,47
568,08	1230,83
568,28	1216,49
568,47	1257,45
568,67	1322,99
568,86	1224,69
569,06	1210,35
569,25	1239,02
569,45	1314,80
569,64	1189,87
569,84	1275,88
570,04	1294,32
570,23	1277,93
570,43	1386,47
570,62	1271,79
570,82	1282,03
571,01	1271,79
571,21	1271,79
571,40	1208,30
571,60	1314,80
571,79	1351,66
571,99	1288,17
572,18	1300,46
572,38	1222,64
572,57	1228,78
572,77	1257,45
572,96	1251,31
573,16	1247,21
573,35	1273,84
573,55	1298,41
573,74	1220,59
573,94	1210,35
574,13	1306,60
574,33	1351,66
574,52	1288,17
574,71	1239,02
574,91	1288,17
575,10	1243,12
575,30	1327,08
575,49	1339,37
575,69	1265,64
575,88	1279,98
576,08	1241,07
576,27	1218,54
576,47	1314,80
576,66	1263,60
576,86	1339,37
577,05	1322,99
577,25	1296,36
577,44	1353,71
577,64	1279,98
577,83	1273,84
578,02	1210,35
578,22	1232,88
578,41	1259,50
578,61	1333,23
578,80	1202,16
579,00	1310,70
579,19	1265,64
579,39	1331,18
579,58	1247,21
579,77	1304,56
579,97	1284,08
580,16	1306,60
580,36	1277,93
580,55	1271,79
580,75	1251,31
580,94	1302,51
581,13	1214,45
581,33	1232,88
581,52	1318,89
581,72	1247,21
581,91	1267,69
582,11	1275,88
582,30	1230,83
582,49	1253,36
582,69	1325,04
582,88	1263,60
583,08	1212,40
583,27	1273,84
583,47	1275,88
583,66	1282,03
583,85	1198,06
584,05	1325,04
584,24	1245,16
584,44	1230,83
584,63	1273,84
584,82	1257,45
585,02	1263,60
585,21	1239,02
585,41	1200,11
585,60	1216,49
585,79	1212,40
585,99	1282,03
586,18	1292,27
586,37	1273,84
586,57	1198,06
586,76	1273,84
586,96	1269,74
587,15	1304,56
587,34	1253,36
587,54	1304,56
587,73	1239,02
587,93	1316,84
588,12	1234,93
588,31	1257,45
588,51	1296,36
588,70	1290,22
588,89	1257,45
589,09	1329,13
589,28	1255,40
589,47	1300,46
589,67	1253,36
589,86	1318,89
590,06	1273,84
590,25	1298,41
590,44	1269,74
590,64	1239,02
590,83	1345,52
591,02	1341,42
591,22	1243,12
591,41	1292,27
591,60	1185,77
591,80	1298,41
591,99	1234,93
592,18	1249,26
592,38	1306,60
592,57	1259,50
592,76	1259,50
592,96	1312,75
593,15	1271,79
593,34	1232,88
593,54	1275,88
593,73	1322,99
593,92	1331,18
594,12	1290,22
594,31	1200,11
594,50	1282,03
594,70	1193,97
594,89	1310,70
595,08	1302,51
595,28	1343,47
595,47	1218,54
595,66	1294,32
595,86	1249,26
596,05	1286,12
596,24	1261,55
596,43	1304,56
596,63	1220,59
596,82	1247,21
597,01	1191,92
597,21	1298,41
597,40	1310,70
597,59	1259,50
597,79	1224,69
597,98	1304,56
598,17	1261,55
598,36	1271,79
598,56	1298,41
598,75	1259,50
598,94	1257,45
599,14	1226,73
599,33	1273,84
599,52	1320,94
599,71	1234,93
599,91	1232,88
600,10	1282,03
600,29	1302,51
600,48	1212,40
600,68	1275,88
600,87	1271,79
601,06	1288,17
601,26	1243,12
601,45	1331,18
601,64	1257,45
601,83	1218,54
602,03	1257,45
602,22	1286,12
602,41	1273,84
602,60	1296,36
602,80	1292,27
602,99	1322,99
603,18	1214,45
603,37	1298,41
603,57	1257,45
603,76	1286,12
603,95	1204,21
604,14	1187,82
604,34	1316,84
604,53	1279,98
604,72	1273,84
604,91	1325,04
605,10	1273,84
605,30	1312,75
605,49	1267,69
605,68	1306,60
605,87	1271,79
606,07	1296,36
606,26	1247,21
606,45	1282,03
606,64	1243,12
606,84	1329,13
607,03	1310,70
607,22	1292,27
607,41	1269,74
607,60	1261,55
607,80	1292,27
607,99	1335,28
608,18	1214,45
608,37	1312,75
608,56	1230,83
608,76	1267,69
608,95	1222,64
609,14	1236,97
609,33	1286,12
609,52	1249,26
609,72	1275,88
609,91	1292,27
610,10	1265,64
610,29	1300,46
610,48	1286,12
610,68	1282,03
610,87	1224,69
611,06	1284,08
611,25	1226,73
611,44	1236,97
611,63	1271,79
611,83	1279,98
612,02	1304,56
612,21	1243,12
612,40	1218,54
612,59	1241,07
612,79	1243,12
612,98	1304,56
613,17	1218,54
613,36	1306,60
613,55	1294,32
613,74	1294,32
613,93	1304,56
614,13	1302,51
614,32	1296,36
614,51	1284,08
614,70	1318,89
614,89	1279,98
615,08	1290,22
615,28	1296,36
615,47	1239,02
615,66	1312,75
615,85	1247,21
616,04	1318,89
616,23	1247,21
616,42	1255,40
616,62	1267,69
616,81	1279,98
617,00	1263,60
617,19	1304,56
617,38	1284,08
617,57	1312,75
617,76	1292,27
617,95	1239,02
618,15	1208,30
618,34	1314,80
618,53	1308,65
618,72	1279,98
618,91	1308,65
619,10	1290,22
619,29	1249,26
619,48	1277,93
619,68	1290,22
619,87	1314,80
620,06	1302,51
620,25	1284,08
620,44	1263,60
620,63	1411,05
620,82	1292,27
621,01	1279,98
621,20	1257,45
621,39	1316,84
621,59	1191,92
621,78	1296,36
621,97	1261,55
622,16	1304,56
622,35	1308,65
622,54	1269,74
622,73	1263,60
622,92	1300,46
623,11	1259,50
623,30	1271,79
623,49	1259,50
623,68	1288,17
623,88	1224,69
624,07	1322,99
624,26	1265,64
624,45	1318,89
624,64	1325,04
624,83	1347,56
625,02	1296,36
625,21	1253,36
625,40	1300,46
625,59	1271,79
625,78	1306,60
625,97	1251,31
626,16	1347,56
626,35	1277,93
626,54	1331,18
626,74	1312,75
626,93	1220,59
627,12	1282,03
627,31	1298,41
627,50	1277,93
627,69	1257,45
627,88	1306,60
628,07	1312,75
628,26	1239,02
628,45	1314,80
628,64	1265,64
628,83	1255,40
629,02	1290,22
629,21	1286,12
629,40	1322,99
629,59	1320,94
629,78	1310,70
629,97	1322,99
630,16	1279,98
630,35	1318,89
630,54	1306,60
630,73	1306,60
630,92	1357,80
631,11	1339,37
631,30	1320,94
631,49	1347,56
631,68	1640,42
631,87	6000,55
632,06	19818,19
632,25	36492,76
632,44	57932,94
632,63	65535,00
632,82	60159,08
633,01	31024,68
633,20	13743,92
633,39	6659,99
633,58	3579,85
633,77	2881,49
633,96	2684,89
634,15	2621,40
634,34	2084,83
634,53	1898,47
634,72	1935,33
634,91	1755,11
635,10	1687,53
635,29	1765,35
635,48	1667,05
635,67	1626,09
635,86	1603,56
636,05	1564,65
636,24	1449,96
636,43	1431,53
636,62	1468,39
636,81	1445,87
637,00	1452,01
637,19	1349,61
637,38	1304,56
637,57	1345,52
637,76	1312,75
637,95	1318,89
638,14	1318,89
638,33	1275,88
638,52	1322,99
638,71	1269,74
638,89	1374,19
639,08	1327,08
639,27	1318,89
639,46	1286,12
639,65	1314,80
639,84	1302,51
640,03	1310,70
640,22	1224,69
640,41	1249,26
640,60	1277,93
640,79	1249,26
640,98	1257,45
641,17	1296,36
641,36	1306,60
641,55	1247,21
641,74	1265,64
641,92	1329,13
642,11	1290,22
642,30	1325,04
642,49	1322,99
642,68	1214,45
642,87	1300,46
643,06	1298,41
643,25	1228,78
643,44	1255,40
643,63	1279,98
643,82	1318,89
644,00	1306,60
644,19	1308,65
644,38	1275,88
644,57	1312,75
644,76	1271,79
644,95	1288,17
645,14	1292,27
645,33	1257,45
645,52	1271,79
645,71	1267,69
645,89	1181,68
646,08	1318,89
646,27	1257,45
646,46	1345,52
646,65	1251,31
646,84	1292,27
647,03	1286,12
647,22	1255,40
647,40	1261,55
647,59	1247,21
647,78	1241,07
647,97	1294,32
648,16	1234,93
648,35	1257,45
648,54	1308,65
648,73	1255,40
648,91	1333,23
649,10	1259,50
649,29	1214,45
649,48	1275,88
649,67	1185,77
649,86	1265,64
650,05	1351,66
650,23	1259,50
650,42	1263,60
650,61	1279,98
650,80	1282,03
650,99	1349,61
651,18	1304,56
651,36	1282,03
651,55	1255,40
651,74	1245,16
651,93	1269,74
652,12	1232,88
652,31	1216,49
652,49	1259,50
652,68	1329,13
652,87	1249,26
653,06	1304,56
653,25	1282,03
653,44	1273,84
653,62	1273,84
653,81	1292,27
654,00	1376,24
654,19	1267,69
654,38	1249,26
654,56	1226,73
654,75	1288,17
654,94	1308,65
655,13	1273,84
655,32	1296,36
655,51	1320,94
655,69	1224,69
655,88	1228,78
656,07	1294,32
656,26	1214,45
656,45	1245,16
656,63	1198,06
656,82	1212,40
657,01	1296,36
657,20	1204,21
657,38	1234,93
657,57	1296,36
657,76	1310,70
657,95	1265,64
658,14	1279,98
658,32	1202,16
658,51	1273,84
658,70	1247,21
658,89	1259,50
659,08	1310,70
659,26	1314,80
659,45	1331,18
659,64	1310,70
659,83	1300,46
660,01	1257,45
660,20	1247,21
660,39	1320,94
660,58	1263,60
660,76	1183,73
660,95	1279,98
661,14	1247,21
661,33	1282,03
661,51	1279,98
661,70	1232,88
661,89	1230,83
662,08	1232,88
662,26	1282,03
662,45	1257,45
662,64	1275,88
662,83	1218,54
663,01	1263,60
663,20	1290,22
663,39	1337,32
663,58	1304,56
663,76	1210,35
663,95	1243,12
664,14	1284,08
664,32	1138,67
664,51	1353,71
664,70	1191,92
664,89	1286,12
665,07	1277,93
665,26	1204,21
665,45	1257,45
665,64	1259,50
665,82	1282,03
666,01	1292,27
666,20	1253,36
666,38	1341,42
666,57	1304,56
666,76	1361,90
666,95	1320,94
667,13	1335,28
667,32	1290,22
667,51	1310,70
667,69	1275,88
667,88	1263,60
668,07	1275,88
668,25	1279,98
668,44	1269,74
668,63	1335,28
668,81	1249,26
669,00	1288,17
669,19	1269,74
669,38	1185,77
669,56	1179,63
669,75	1208,30
669,94	1294,32
670,12	1318,89
670,31	1320,94
670,50	1257,45
670,68	1224,69
670,87	1247,21
671,06	1335,28
671,24	1269,74
671,43	1261,55
671,62	1329,13
671,80	1355,76
671,99	1275,88
672,18	1230,83
672,36	1329,13
672,55	1298,41
672,74	1257,45
672,92	1206,25
673,11	1312,75
673,29	1263,60
673,48	1300,46
673,67	1296,36
673,85	1198,06
674,04	1304,56
674,23	1236,97
674,41	1308,65
674,60	1271,79
674,79	1214,45
674,97	1314,80
675,16	1204,21
675,34	1232,88
675,53	1253,36
675,72	1179,63
675,90	1204,21
676,09	1282,03
676,28	1245,16
676,46	1300,46
676,65	1243,12
676,83	1216,49
677,02	1255,40
677,21	1275,88
677,39	1310,70
677,58	1261,55
677,77	1337,32
677,95	1257,45
678,14	1224,69
678,32	1265,64
678,51	1292,27
678,70	1261,55
678,88	1271,79
679,07	1361,90
679,25	1312,75
679,44	1304,56
679,63	1298,41
679,81	1261,55
680,00	1243,12
680,18	1245,16
680,37	1282,03
680,55	1298,41
680,74	1282,03
680,93	1277,93
681,11	1329,13
681,30	1316,84
681,48	1308,65
681,67	1300,46
681,85	1245,16
682,04	1206,25
682,23	1329,13
682,41	1325,04
682,60	1273,84
682,78	1282,03
682,97	1212,40
683,15	1249,26
683,34	1224,69
683,53	1339,37
683,71	1269,74
683,90	1396,71
684,08	1183,73
684,27	1298,41
684,45	1216,49
684,64	1277,93
684,82	1294,32
685,01	1247,21
685,19	1279,98
685,38	1183,73
685,57	1263,60
685,75	1288,17
685,94	1294,32
686,12	1247,21
686,31	1191,92
686,49	1331,18
686,68	1208,30
686,86	1275,88
687,05	1282,03
687,23	1320,94
687,42	1271,79
687,60	1269,74
687,79	1226,73
687,97	1247,21
688,16	1277,93
688,34	1261,55
688,53	1294,32
688,71	1288,17
688,90	1290,22
689,08	1245,16
689,27	1236,97
689,45	1212,40
689,64	1312,75
689,82	1282,03
690,01	1282,03
690,19	1245,16
690,38	1241,07
690,56	1251,31
690,75	1218,54
690,93	1298,41
691,12	1251,31
691,30	1251,31
691,49	1329,13
691,67	1271,79
691,86	1218,54
692,04	1224,69
692,23	1196,01
692,41	1247,21
692,60	1271,79
692,78	1286,12
692,97	1296,36
693,15	1273,84
693,34	1284,08
693,52	1236,97
693,71	1275,88
693,89	1312,75
694,08	1290,22
694,26	1294,32
694,44	1284,08
694,63	1218,54
694,81	1224,69
695,00	1294,32
695,18	1292,27
695,37	1284,08
695,55	1294,32
695,74	1216,49
695,92	1290,22
696,10	1290,22
696,29	1259,50
696,47	1302,51
696,66	1308,65
696,84	1316,84
697,03	1263,60
697,21	1255,40
697,40	1312,75
697,58	1275,88
697,76	1224,69
697,95	1273,84
698,13	1247,21
698,32	1273,84
698,50	1224,69
698,68	1273,84
698,87	1310,70
699,05	1259,50
699,24	1286,12
699,42	1241,07
699,61	1243,12
699,79	1204,21
699,97	1275,88
700,16	1249,26
700,34	1191,92
700,53	1288,17
700,71	1259,50
700,89	1298,41
701,08	1271,79
701,26	1306,60
701,45	1298,41
701,63	1290,22
701,81	1269,74
702,00	1239,02
702,18	1273,84
702,37	1228,78
702,55	1282,03
702,73	1284,08
702,92	1351,66
703,10	1279,98
703,28	1277,93
703,47	1277,93
703,65	1302,51
703,84	1216,49
704,02	1269,74
704,20	1288,17
704,39	1236,97
704,57	1263,60
704,75	1200,11
704,94	1236,97
705,12	1234,93
705,30	1224,69
705,49	1228,78
705,67	1222,64
705,86	1318,89
706,04	1300,46
706,22	1232,88
706,41	1247,21
706,59	1230,83
706,77	1271,79
706,96	1265,64
707,14	1261,55
707,32	1232,88
707,51	1230,83
707,69	1282,03
707,87	1296,36
708,06	1234,93
708,24	1290,22
708,42	1249,26
708,61	1212,40
708,79	1333,23
708,97	1239,02
709,16	1257,45
709,34	1224,69
709,52	1284,08
709,71	1271,79
709,89	1263,60
710,07	1245,16
710,26	1230,83
710,44	1257,45
710,62	1290,22
710,80	1325,04
710,99	1300,46
711,17	1298,41
711,35	1249,26
711,54	1255,40
711,72	1222,64
711,90	1331,18
712,09	1337,32
712,27	1296,36
712,45	1208,30
712,63	1241,07
712,82	1245,16
713,00	1239,02
713,18	1214,45
713,37	1351,66
713,55	1245,16
713,73	1282,03
713,91	1234,93
714,10	1267,69
714,28	1206,25
714,46	1296,36
714,65	1284,08
714,83	1255,40
715,01	1333,23
715,19	1241,07
715,38	1290,22
715,56	1345,52
715,74	1290,22
715,92	1296,36
716,11	1230,83
716,29	1273,84
716,47	1261,55
716,65	1245,16
716,84	1245,16
717,02	1284,08
717,20	1230,83
717,38	1277,93
717,57	1263,60
717,75	1337,32
717,93	1279,98
718,11	1161,20
718,30	1224,69
718,48	1271,79
718,66	1228,78
718,84	1339,37
719,03	1298,41
719,21	1234,93
719,39	1316,84
719,57	1277,93
719,75	1279,98
719,94	1251,31
720,12	1236,97
720,30	1251,31
720,48	1214,45
720,67	1263,60
720,85	1320,94
721,03	1288,17
721,21	1265,64
721,39	1288,17
721,58	1312,75
721,76	1353,71
721,94	1236,97
722,12	1284,08
722,30	1341,42
722,49	1304,56
722,67	1333,23
722,85	1273,84
723,03	1302,51
723,21	1263,60
723,40	1290,22
723,58	1300,46
723,76	1296,36
723,94	1224,69
724,12	1308,65
724,30	1255,40
724,49	1273,84
724,67	1257,45
724,85	1310,70
725,03	1212,40
725,21	1239,02
725,40	1286,12
725,58	1269,74
725,76	1241,07
725,94	1243,12
726,12	1314,80
726,30	1286,12
726,49	1304,56
726,67	1232,88
726,85	1370,09
727,03	1304,56
727,21	1265,64
727,39	1304,56
727,57	1224,69
727,76	1267,69
727,94	1234,93
728,12	1255,40
728,30	1265,64
728,48	1245,16
728,66	1230,83
728,84	1267,69
729,03	1230,83
729,21	1175,53
729,39	1320,94
729,57	1271,79
729,75	1292,27
729,93	1322,99
730,11	1249,26
730,30	1275,88
730,48	1302,51
730,66	1253,36
730,84	1300,46
731,02	1320,94
731,20	1261,55
731,38	1314,80
731,56	1245,16
731,74	1232,88
731,93	1216,49
732,11	1275,88
732,29	1259,50
732,47	1214,45
732,65	1228,78
732,83	1275,88
733,01	1304,56
733,19	1226,73
733,37	1200,11
733,56	1275,88
733,74	1216,49
733,92	1284,08
734,10	1318,89
734,28	1214,45
734,46	1292,27
734,64	1245,16
734,82	1191,92
735,00	1224,69
735,18	1228,78
735,36	1290,22
735,54	1224,69
735,73	1200,11
735,91	1249,26
736,09	1226,73
736,27	1257,45
736,45	1318,89
736,63	1239,02
736,81	1198,06
736,99	1288,17
737,17	1298,41
737,35	1247,21
737,53	1228,78
737,71	1253,36
737,89	1292,27
738,07	1288,17
738,25	1290,22
738,43	1296,36
738,61	1206,25
738,80	1247,21
738,98	1322,99
739,16	1265,64
739,34	1306,60
739,52	1282,03
739,70	1249,26
739,88	1298,41
740,06	1302,51
740,24	1282,03
740,42	1263,60
740,60	1271,79
740,78	1269,74
740,96	1267,69
741,14	1265,64
741,32	1304,56
741,50	1282,03
741,68	1232,88
741,86	1208,30
742,04	1241,07
742,22	1269,74
742,40	1312,75
742,58	1177,58
742,76	1247,21
742,94	1314,80
743,12	1316,84
743,30	1298,41
743,48	1232,88
743,66	1261,55
743,84	1314,80
744,02	1298,41
744,20	1294,32
744,38	1210,35
744,56	1290,22
744,74	1257,45
744,92	1304,56
745,10	1304,56
745,28	1288,17
745,46	1331,18
745,64	1314,80
745,82	1275,88
746,00	1236,97
746,18	1329,13
746,36	1259,50
746,54	1253,36
746,72	1296,36
746,90	1249,26
747,08	1271,79
747,26	1298,41
747,44	1298,41
747,62	1245,16
747,80	1304,56
747,98	1253,36
748,15	1302,51
748,33	1267,69
748,51	1275,88
748,69	1224,69
748,87	1279,98
749,05	1310,70
749,23	1251,31
749,41	1312,75
749,59	1292,27
749,77	1310,70
749,95	1224,69
750,13	1314,80
750,31	1234,93
750,49	1216,49
750,67	1279,98
750,85	1247,21
751,03	1232,88
751,20	1210,35
751,38	1234,93
751,56	1243,12
751,74	1230,83
751,92	1351,66
752,10	1236,97
752,28	1232,88
752,46	1273,84
752,64	1286,12
752,82	1290,22
753,00	1216,49
753,18	1343,47
753,35	1255,40
753,53	1230,83
753,71	1236,97
753,89	1251,31
754,07	1263,60
754,25	1265,64
754,43	1275,88
754,61	1273,84
754,79	1263,60
754,97	1257,45
755,14	1273,84
755,32	1247,21
755,50	1279,98
755,68	1284,08
755,86	1368,04
756,04	1222,64
756,22	1316,84
756,40	1277,93
756,57	1216,49
756,75	1292,27
756,93	1247,21
757,11	1290,22
757,29	1222,64
757,47	1236,97
757,65	1249,26
757,82	1253,36
758,00	1331,18
758,18	1312,75
758,36	1228,78
758,54	1296,36
758,72	1193,97
758,90	1249,26
759,07	1257,45
759,25	1243,12
759,43	1228,78
759,61	1259,50
759,79	1329,13
759,97	1245,16
760,15	1236,97
760,32	1255,40
760,50	1241,07
760,68	1269,74
760,86	1269,74
761,04	1277,93
761,22	1216,49
761,39	1292,27
761,57	1300,46
761,75	1267,69
761,93	1259,50
762,11	1259,50
762,28	1304,56
762,46	1200,11
762,64	1277,93
762,82	1214,45
763,00	1202,16
763,18	1241,07
763,35	1290,22
763,53	1275,88
763,71	1243,12
763,89	1216,49
764,07	1273,84
764,24	1232,88
764,42	1288,17
764,60	1327,08
764,78	1282,03
764,96	1316,84
765,13	1245,16
765,31	1253,36
765,49	1282,03
765,67	1232,88
765,84	1277,93
766,02	1271,79
766,20	1322,99
766,38	1208,30
766,56	1224,69
766,73	1247,21
766,91	1251,31
767,09	1308,65
767,27	1255,40
767,44	1288,17
767,62	1271,79
767,80	1290,22
767,98	1288,17
768,15	1189,87
768,33	1288,17
768,51	1226,73
768,69	1288,17
768,87	1298,41
769,04	1245,16
769,22	1275,88
769,40	1304,56
769,58	1327,08
769,75	1263,60
769,93	1279,98
770,11	1245,16
770,28	1329,13
770,46	1265,64
770,64	1251,31
770,82	1251,31
770,99	1290,22
771,17	1249,26
771,35	1296,36
771,53	1265,64
771,70	1318,89
771,88	1279,98
772,06	1198,06
772,23	1239,02
772,41	1279,98
772,59	1241,07
772,77	1322,99
772,94	1259,50
773,12	1288,17
773,30	1214,45
773,47	1196,01
773,65	1277,93
773,83	1255,40
774,01	1359,85
774,18	1241,07
774,36	1267,69
774,54	1363,95
774,71	1226,73
774,89	1220,59
775,07	1267,69
775,24	1269,74
775,42	1224,69
775,60	1337,32
775,78	1196,01
775,95	1275,88
776,13	1284,08
776,31	1263,60
776,48	1253,36
776,66	1257,45
776,84	1277,93
777,01	1308,65
777,19	1208,30
777,37	1220,59
777,54	1208,30
777,72	1234,93
777,90	1214,45
778,07	1331,18
778,25	1337,32
778,43	1251,31
778,60	1292,27
778,78	1286,12
778,96	1294,32
779,13	1335,28
779,31	1386,47
779,49	1290,22
779,66	1325,04
779,84	1357,80
780,01	1239,02
780,19	1261,55
780,37	1255,40
780,54	1300,46
780,72	1302,51
780,90	1273,84
781,07	1218,54
781,25	1290,22
781,43	1308,65
781,60	1349,61
781,78	1355,76
781,95	1316,84
782,13	1265,64
782,31	1241,07
782,48	1241,07
782,66	1273,84
782,83	1282,03
783,01	1304,56
783,19	1290,22
783,36	1241,07
783,54	1216,49
783,72	1327,08
783,89	1353,71
784,07	1243,12
784,24	1265,64
784,42	1320,94
784,60	1257,45
784,77	1255,40
784,95	1253,36
785,12	1335,28
785,30	1279,98
785,47	1206,25
785,65	1341,42
785,83	1292,27
786,00	1216,49
786,18	1255,40
786,35	1226,73
786,53	1331,18
786,71	1271,79
786,88	1269,74
787,06	1239,02
787,23	1253,36
787,41	1312,75
787,58	1302,51
787,76	1277,93
787,94	1257,45
788,11	1275,88
788,29	1282,03
788,46	1245,16
788,64	1320,94
788,81	1267,69
788,99	1312,75
789,16	1284,08
789,34	1335,28
789,52	1263,60
789,69	1204,21
789,87	1198,06
790,04	1191,92
790,22	1282,03
790,39	1279,98
790,57	1251,31
790,74	1273,84
790,92	1331,18
791,09	1261,55
791,27	1325,04
791,44	1325,04
791,62	1224,69
791,79	1282,03
791,97	1314,80
792,15	1304,56
792,32	1316,84
792,50	1243,12
792,67	1290,22
792,85	1220,59
793,02	1325,04
793,20	1265,64
793,37	1273,84
793,55	1374,19
793,72	1302,51
793,90	1267,69
794,07	1271,79
794,25	1230,83
794,42	1292,27
794,60	1300,46
794,77	1259,50
794,95	1294,32
795,12	1273,84
795,30	1257,45
795,47	1228,78
795,65	1259,50
795,82	1343,47
796,00	1212,40
796,17	1208,30
796,34	1275,88
796,52	1288,17
796,69	1232,88
796,87	1265,64
797,04	1251,31
797,22	1275,88
797,39	1234,93
797,57	1206,25
797,74	1232,88
797,92	1372,14
798,09	1257,45
798,27	1249,26
798,44	1206,25
798,62	1222,64
798,79	1290,22
798,96	1290,22
799,14	1302,51
799,31	1331,18
799,49	1304,56
799,66	1310,70
799,84	1245,16
800,01	1304,56
800,19	1124,33
800,36	1230,83
800,53	1298,41
800,71	1347,56
800,88	1300,46
801,06	1261,55
801,23	1273,84
801,41	1249,26
801,58	1265,64
801,75	1243,12
801,93	1230,83
802,10	1243,12
802,28	1310,70
802,45	1255,40
802,63	1189,87
802,80	1253,36
802,97	1292,27
803,15	1185,77
803,32	1308,65
803,50	1288,17
803,67	1230,83
803,84	1290,22
804,02	1228,78
804,19	1187,82
804,37	1304,56
804,54	1306,60
804,71	1241,07
804,89	1210,35
805,06	1243,12
805,24	1204,21
805,41	1247,21
805,58	1257,45
805,76	1347,56
805,93	1337,32
806,10	1296,36
806,28	1222,64
806,45	1275,88
806,63	1255,40
806,80	1351,66
806,97	1327,08
807,15	1269,74
807,32	1243,12
807,49	1220,59
807,67	1327,08
807,84	1298,41
808,01	1271,79
808,19	1216,49
808,36	1232,88
808,54	1243,12
808,71	1239,02
808,88	1255,40
809,06	1298,41
809,23	1265,64
809,40	1275,88
809,58	1296,36
809,75	1325,04
809,92	1245,16
810,10	1216,49
810,27	1228,78
810,44	1224,69
810,62	1306,60
810,79	1241,07
810,96	1296,36
811,14	1239,02
811,31	1265,64
811,48	1271,79
811,66	1230,83
811,83	1239,02
812,00	1265,64
812,18	1292,27
812,35	1273,84
812,52	1230,83
812,69	1275,88
812,87	1302,51
813,04	1234,93
813,21	1255,40
813,39	1243,12
813,56	1263,60
813,73	1257,45
813,91	1251,31
814,08	1257,45
814,25	1310,70
814,42	1206,25
814,60	1312,75
814,77	1257,45
814,94	1337,32
815,12	1284,08
815,29	1302,51
815,46	1314,80
815,63	1286,12
815,81	1296,36
815,98	1232,88
816,15	1261,55
816,33	1322,99
816,50	1343,47
816,67	1241,07
816,84	1271,79
817,02	1269,74
817,19	1259,50
817,36	1279,98
817,53	1290,22
817,71	1179,63
817,88	1220,59
818,05	1218,54
818,22	1239,02
818,40	1294,32
818,57	1271,79
818,74	1249,26
818,91	1200,11
819,09	1343,47
819,26	1263,60
819,43	1245,16
819,60	1308,65
819,78	1282,03
819,95	1298,41
820,12	1216,49
820,29	1247,21
820,47	1263,60
820,64	1302,51
820,81	1220,59
820,98	1220,59
821,15	1226,73
821,33	1259,50
821,50	1286,12
821,67	1245,16
821,84	1220,59
822,02	1294,32
822,19	1259,50
822,36	1261,55
822,53	1253,36
822,70	1241,07
822,88	1290,22
823,05	1275,88
823,22	1251,31
823,39	1363,95
823,56	1230,83
823,74	1261,55
823,91	1251,31
824,08	1247,21
824,25	1228,78
824,42	1259,50
824,60	1255,40
824,77	1216,49
824,94	1282,03
825,11	1257,45
825,28	1245,16
825,45	1267,69
825,63	1249,26
825,80	1290,22
825,97	1277,93
826,14	1279,98
826,31	1253,36
826,48	1325,04
826,66	1218,54
826,83	1314,80
827,00	1263,60
827,17	1271,79
827,34	1265,64
827,51	1300,46
827,69	1277,93
827,86	1243,12
828,03	1232,88
828,20	1257,45
828,37	1269,74
828,54	1193,97
828,71	1308,65
828,89	1255,40
829,06	1210,35
829,23	1243,12
829,40	1236,97
829,57	1279,98
829,74	1265,64
829,91	1224,69
830,09	1284,08
830,26	1320,94
830,43	1282,03
830,60	1226,73
830,77	1318,89
830,94	1314,80
831,11	1290,22
831,28	1261,55
831,46	1290,22
831,63	1263,60
831,80	1277,93
831,97	1267,69
832,14	1232,88
832,31	1275,88
832,48	1243,12
832,65	1353,71
832,82	1245,16
832,99	1271,79
833,17	1249,26
833,34	1325,04
833,51	1290,22
833,68	1298,41
833,85	1316,84
834,02	1304,56
834,19	1269,74
834,36	1251,31
834,53	1249,26
834,70	1224,69
834,87	1271,79
835,04	1234,93
835,22	1267,69
835,39	1322,99
835,56	1230,83
835,73	1261,55
835,90	1220,59
836,07	1302,51
836,24	1259,50
836,41	1282,03
836,58	1247,21
836,75	1236,97
836,92	1288,17
837,09	1282,03
837,26	1249,26
837,43	1212,40
837,60	1282,03
837,77	1282,03
837,94	1243,12
838,12	1314,80
838,29	1214,45
838,46	1286,12
838,63	1243,12
838,80	1277,93
838,97	1265,64
839,14	1329,13
839,31	1288,17
839,48	1253,36
839,65	1236,97
839,82	1267,69
839,99	1232,88
840,16	1277,93
840,33	1198,06
840,50	1257,45
840,67	1249,26
840,84	1294,32
841,01	1245,16
841,18	1241,07
841,35	1349,61
841,52	1310,70
841,69	1245,16
841,86	1267,69
842,03	1198,06
842,20	1228,78
842,37	1222,64
842,54	1282,03
842,71	1282,03
842,88	1271,79
843,05	1255,40
843,22	1198,06
843,39	1290,22
843,56	1228,78
843,73	1277,93
843,90	1349,61
844,07	1239,02
844,24	1257,45
844,41	1247,21
844,58	1222,64
844,75	1286,12
844,92	1208,30
845,09	1290,22
845,26	1247,21
845,43	1273,84
845,60	1267,69
845,77	1363,95
845,94	1306,60
846,10	1247,21
846,27	1200,11
846,44	1294,32
846,61	1261,55
846,78	1255,40
846,95	1261,55
847,12	1245,16
847,29	1249,26
847,46	1198,06
847,63	1284,08
847,80	1193,97
847,97	1282,03
848,14	1316,84
848,31	1294,32
848,48	1273,84
848,65	1275,88
848,82	1261,55
848,98	1245,16
849,15	1247,21
849,32	1263,60
849,49	1298,41
849,66	1234,93
849,83	1253,36
850,00	1273,84
850,17	1243,12
850,34	1290,22
850,51	1294,32
850,68	1314,80
850,85	1249,26
851,01	1241,07
851,18	1347,56
851,35	1300,46
851,52	1247,21
851,69	1339,37
851,86	1212,40
852,03	1255,40
852,20	1308,65
852,37	1392,62
852,53	1296,36
852,70	1294,32
852,87	1335,28
853,04	1316,84
853,21	1189,87
853,38	1279,98
853,55	1316,84
853,72	1224,69
853,89	1275,88
854,05	1286,12
854,22	1245,16
854,39	1302,51
854,56	1214,45
854,73	1228,78
854,90	1298,41
855,07	1269,74
855,23	1249,26
855,40	1239,02
855,57	1259,50
855,74	1265,64
855,91	1275,88
856,08	1271,79
856,25	1267,69
856,41	1249,26
856,58	1259,50
856,75	1241,07
856,92	1230,83
857,09	1251,31
857,26	1245,16
857,42	1300,46
857,59	1292,27
857,76	1204,21
857,93	1236,97
858,10	1312,75
858,27	1222,64
858,43	1222,64
858,60	1230,83
858,77	1302,51
858,94	1322,99
859,11	1196,01
859,27	1257,45
859,44	1306,60
859,61	1253,36
859,78	1331,18
859,95	1234,93
860,12	1322,99
860,28	1312,75
860,45	1277,93
860,62	1318,89
860,79	1320,94
860,95	1265,64
861,12	1245,16
861,29	1271,79
861,46	1247,21
861,63	1284,08
861,79	1298,41
861,96	1220,59
862,13	1294,32
862,30	1224,69
862,47	1316,84
862,63	1253,36
862,80	1236,97
862,97	1187,82
863,14	1300,46
863,30	1239,02
863,47	1222,64
863,64	1316,84
863,81	1222,64
863,97	1279,98
864,14	1249,26
864,31	1267,69
864,48	1271,79
864,65	1241,07
864,81	1314,80
864,98	1263,60
865,15	1247,21
865,32	1273,84
865,48	1224,69
865,65	1300,46
865,82	1204,21
865,98	1234,93
866,15	1241,07
866,32	1286,12
866,49	1296,36
866,65	1220,59
866,82	1259,50
866,99	1224,69
867,16	1284,08
867,32	1300,46
867,49	1267,69
867,66	1214,45
867,83	1275,88
867,99	1271,79
868,16	1290,22
868,33	1279,98
868,49	1222,64
868,66	1220,59
868,83	1337,32
868,99	1302,51
869,16	1165,29
869,33	1271,79
869,50	1277,93
869,66	1320,94
869,83	1290,22
870,00	1269,74
870,16	1273,84
870,33	1286,12
870,50	1288,17
870,66	1243,12
870,83	1277,93
871,00	1284,08
871,17	1216,49
871,33	1308,65
871,50	1277,93
871,67	1298,41
871,83	1286,12
872,00	1259,50
872,17	1325,04
872,33	1314,80
872,50	1214,45
872,67	1286,12
872,83	1259,50
873,00	1384,43
873,17	1306,60
873,33	1351,66
873,50	1279,98
873,67	1273,84
873,83	1241,07
874,00	1265,64
874,16	1296,36
874,33	1257,45
874,50	1277,93
874,66	1288,17
874,83	1245,16
875,00	1322,99
875,16	1273,84
875,33	1267,69
875,50	1263,60
875,66	1288,17
875,83	1222,64
875,99	1179,63
876,16	1212,40
876,33	1214,45
876,49	1232,88
876,66	1204,21
876,83	1314,80
876,99	1347,56
877,16	1292,27
877,32	1337,32
877,49	1304,56
877,66	1302,51
877,82	1343,47
877,99	1329,13
878,15	1232,88
878,32	1257,45
878,49	1273,84
878,65	1286,12
878,82	1245,16
878,98	1255,40
879,15	1224,69
879,32	1286,12
879,48	1304,56
879,65	1261,55
879,81	1282,03
879,98	1243,12
880,15	1257,45
880,31	1269,74
880,48	1288,17
880,64	1314,80
880,81	1255,40
880,97	1255,40
881,14	1290,22
881,31	1218,54
881,47	1308,65
881,64	1173,49
881,80	1251,31
881,97	1265,64
882,13	1316,84
882,30	1361,90
882,47	1212,40
882,63	1224,69
882,80	1239,02
882,96	1267,69
883,13	1296,36
883,29	1224,69
883,46	1314,80
883,62	1230,83
883,79	1318,89
883,95	1236,97
884,12	1204,21
884,29	1200,11
884,45	1200,11
884,62	1232,88
884,78	1214,45
884,95	1351,66
885,11	1286,12
885,28	1325,04
885,44	1265,64
885,61	1296,36
885,77	1249,26
885,94	1269,74
886,10	1368,04
886,27	1286,12
886,43	1241,07
886,60	1216,49
886,76	1304,56
886,93	1255,40
887,09	1273,84
887,26	1208,30
887,42	1222,64
887,59	1306,60
887,75	1335,28
887,92	1284,08
888,08	1290,22
888,25	1234,93
888,41	1269,74
888,58	1306,60
888,74	1241,07
888,91	1191,92
>>>>>End Processed Spectral Data<<<<<
