SpectraSuite Data File
++++++++++++++++++++++++++++++++++++
Date: Sun Apr 03 17:51:34 CEST 2016
User: root
Dark Spectrum Present: No
Reference Spectrum Present: No
Number of Sampled Component Spectra: 1
Spectrometers: USB4C02835
Integration Time (usec): 10000 (USB4C02835)
Spectra Averaged: 1 (USB4C02835)
Boxcar Smoothing: 0 (USB4C02835)
Correct for Electrical Dark: No (USB4C02835)
Strobe/Lamp Enabled: No (USB4C02835)
Correct for Detector Non-linearity: No (USB4C02835)
Correct for Stray Light: No (USB4C02835)
Number of Pixels in Processed Spectrum: 3648
>>>>>Begin Processed Spectral Data<<<<<
177,47	1302,51
177,69	1302,51
177,91	1302,51
178,13	1189,87
178,36	1269,74
178,58	1226,73
178,80	1273,84
179,02	1275,88
179,24	1259,50
179,46	1243,12
179,68	1284,08
179,90	1228,78
180,13	1263,60
180,35	1263,60
180,57	1327,08
180,79	1316,84
181,01	1322,99
181,23	1372,14
181,45	1257,45
181,67	1208,30
181,90	1214,45
182,12	1187,82
182,34	1255,40
182,56	1349,61
182,78	1232,88
183,00	1339,37
183,22	1206,25
183,44	1279,98
183,66	1257,45
183,89	1339,37
184,11	1239,02
184,33	1263,60
184,55	1294,32
184,77	1279,98
184,99	1279,98
185,21	1327,08
185,43	1206,25
185,65	1251,31
185,87	1179,63
186,10	1255,40
186,32	1329,13
186,54	1290,22
186,76	1286,12
186,98	1296,36
187,20	1243,12
187,42	1279,98
187,64	1286,12
187,86	1251,31
188,08	1245,16
188,30	1312,75
188,52	1325,04
188,75	1275,88
188,97	1298,41
189,19	1208,30
189,41	1232,88
189,63	1247,21
189,85	1173,49
190,07	1273,84
190,29	1239,02
190,51	1239,02
190,73	1265,64
190,95	1282,03
191,17	1331,18
191,39	1290,22
191,61	1292,27
191,84	1249,26
192,06	1249,26
192,28	1216,49
192,50	1290,22
192,72	1239,02
192,94	1236,97
193,16	1331,18
193,38	1300,46
193,60	1288,17
193,82	1220,59
194,04	1314,80
194,26	1279,98
194,48	1261,55
194,70	1288,17
194,92	1241,07
195,14	1277,93
195,36	1265,64
195,58	1271,79
195,80	1247,21
196,02	1232,88
196,24	1251,31
196,46	1286,12
196,69	1243,12
196,91	1302,51
197,13	1214,45
197,35	1249,26
197,57	1206,25
197,79	1214,45
198,01	1339,37
198,23	1204,21
198,45	1325,04
198,67	1255,40
198,89	1232,88
199,11	1316,84
199,33	1286,12
199,55	1239,02
199,77	1329,13
199,99	1337,32
200,21	1284,08
200,43	1333,23
200,65	1273,84
200,87	1320,94
201,09	1216,49
201,31	1259,50
201,53	1216,49
201,75	1298,41
201,97	1222,64
202,19	1245,16
202,41	1286,12
202,63	1286,12
202,85	1275,88
203,07	1320,94
203,29	1249,26
203,51	1214,45
203,73	1267,69
203,95	1267,69
204,17	1341,42
204,39	1257,45
204,61	1239,02
204,83	1230,83
205,05	1245,16
205,27	1288,17
205,49	1341,42
205,71	1249,26
205,93	1216,49
206,15	1320,94
206,37	1257,45
206,59	1255,40
206,81	1216,49
207,03	1171,44
207,25	1271,79
207,47	1259,50
207,69	1245,16
207,91	1339,37
208,13	1241,07
208,34	1232,88
208,56	1282,03
208,78	1288,17
209,00	1302,51
209,22	1271,79
209,44	1296,36
209,66	1325,04
209,88	1212,40
210,10	1234,93
210,32	1216,49
210,54	1210,35
210,76	1245,16
210,98	1259,50
211,20	1249,26
211,42	1241,07
211,64	1302,51
211,86	1206,25
212,08	1374,19
212,30	1279,98
212,52	1243,12
212,74	1263,60
212,96	1300,46
213,17	1300,46
213,39	1173,49
213,61	1286,12
213,83	1312,75
214,05	1294,32
214,27	1230,83
214,49	1265,64
214,71	1255,40
214,93	1316,84
215,15	1284,08
215,37	1222,64
215,59	1282,03
215,81	1314,80
216,03	1302,51
216,24	1271,79
216,46	1310,70
216,68	1327,08
216,90	1216,49
217,12	1290,22
217,34	1300,46
217,56	1245,16
217,78	1214,45
218,00	1230,83
218,22	1267,69
218,44	1249,26
218,66	1277,93
218,87	1277,93
219,09	1288,17
219,31	1243,12
219,53	1296,36
219,75	1257,45
219,97	1282,03
220,19	1290,22
220,41	1236,97
220,63	1320,94
220,85	1296,36
221,06	1298,41
221,28	1351,66
221,50	1282,03
221,72	1236,97
221,94	1314,80
222,16	1228,78
222,38	1196,01
222,60	1208,30
222,82	1298,41
223,03	1245,16
223,25	1241,07
223,47	1294,32
223,69	1343,47
223,91	1236,97
224,13	1257,45
224,35	1312,75
224,57	1300,46
224,78	1282,03
225,00	1286,12
225,22	1286,12
225,44	1312,75
225,66	1300,46
225,88	1312,75
226,10	1310,70
226,32	1320,94
226,53	1206,25
226,75	1273,84
226,97	1232,88
227,19	1232,88
227,41	1290,22
227,63	1355,76
227,85	1271,79
228,06	1335,28
228,28	1228,78
228,50	1335,28
228,72	1318,89
228,94	1241,07
229,16	1298,41
229,37	1228,78
229,59	1241,07
229,81	1261,55
230,03	1318,89
230,25	1267,69
230,47	1236,97
230,69	1230,83
230,90	1257,45
231,12	1230,83
231,34	1282,03
231,56	1284,08
231,78	1374,19
232,00	1245,16
232,21	1167,34
232,43	1302,51
232,65	1370,09
232,87	1302,51
233,09	1251,31
233,30	1216,49
233,52	1216,49
233,74	1187,82
233,96	1292,27
234,18	1284,08
234,40	1308,65
234,61	1296,36
234,83	1239,02
235,05	1359,85
235,27	1271,79
235,49	1286,12
235,70	1288,17
235,92	1298,41
236,14	1241,07
236,36	1331,18
236,58	1263,60
236,79	1277,93
237,01	1253,36
237,23	1206,25
237,45	1253,36
237,67	1288,17
237,88	1222,64
238,10	1284,08
238,32	1316,84
238,54	1247,21
238,76	1239,02
238,97	1288,17
239,19	1249,26
239,41	1255,40
239,63	1294,32
239,85	1304,56
240,06	1253,36
240,28	1257,45
240,50	1300,46
240,72	1271,79
240,93	1318,89
241,15	1273,84
241,37	1265,64
241,59	1279,98
241,81	1267,69
242,02	1302,51
242,24	1288,17
242,46	1247,21
242,68	1247,21
242,89	1345,52
243,11	1279,98
243,33	1314,80
243,55	1282,03
243,76	1320,94
243,98	1241,07
244,20	1245,16
244,42	1261,55
244,64	1255,40
244,85	1214,45
245,07	1284,08
245,29	1263,60
245,51	1259,50
245,72	1261,55
245,94	1325,04
246,16	1322,99
246,38	1282,03
246,59	1271,79
246,81	1224,69
247,03	1245,16
247,24	1249,26
247,46	1320,94
247,68	1322,99
247,90	1312,75
248,11	1286,12
248,33	1286,12
248,55	1333,23
248,77	1226,73
248,98	1290,22
249,20	1304,56
249,42	1232,88
249,64	1267,69
249,85	1306,60
250,07	1282,03
250,29	1298,41
250,50	1196,01
250,72	1265,64
250,94	1249,26
251,16	1349,61
251,37	1294,32
251,59	1304,56
251,81	1230,83
252,02	1288,17
252,24	1265,64
252,46	1196,01
252,68	1204,21
252,89	1255,40
253,11	1189,87
253,33	1245,16
253,54	1290,22
253,76	1247,21
253,98	1251,31
254,20	1232,88
254,41	1282,03
254,63	1241,07
254,85	1249,26
255,06	1343,47
255,28	1234,93
255,50	1263,60
255,71	1271,79
255,93	1200,11
256,15	1263,60
256,36	1249,26
256,58	1232,88
256,80	1271,79
257,02	1259,50
257,23	1261,55
257,45	1218,54
257,67	1322,99
257,88	1279,98
258,10	1279,98
258,32	1253,36
258,53	1292,27
258,75	1286,12
258,97	1247,21
259,18	1310,70
259,40	1353,71
259,62	1271,79
259,83	1271,79
260,05	1282,03
260,27	1394,67
260,48	1304,56
260,70	1267,69
260,92	1312,75
261,13	1202,16
261,35	1230,83
261,57	1333,23
261,78	1200,11
262,00	1279,98
262,22	1298,41
262,43	1265,64
262,65	1253,36
262,86	1277,93
263,08	1253,36
263,30	1337,32
263,51	1189,87
263,73	1222,64
263,95	1296,36
264,16	1222,64
264,38	1234,93
264,60	1290,22
264,81	1234,93
265,03	1292,27
265,25	1279,98
265,46	1349,61
265,68	1226,73
265,89	1218,54
266,11	1239,02
266,33	1273,84
266,54	1286,12
266,76	1269,74
266,98	1292,27
267,19	1304,56
267,41	1202,16
267,62	1271,79
267,84	1261,55
268,06	1318,89
268,27	1251,31
268,49	1265,64
268,70	1259,50
268,92	1325,04
269,14	1345,52
269,35	1282,03
269,57	1232,88
269,79	1267,69
270,00	1241,07
270,22	1339,37
270,43	1302,51
270,65	1241,07
270,87	1216,49
271,08	1253,36
271,30	1185,77
271,51	1249,26
271,73	1241,07
271,95	1271,79
272,16	1241,07
272,38	1322,99
272,59	1265,64
272,81	1269,74
273,02	1271,79
273,24	1316,84
273,46	1288,17
273,67	1312,75
273,89	1230,83
274,10	1275,88
274,32	1337,32
274,54	1251,31
274,75	1296,36
274,97	1263,60
275,18	1318,89
275,40	1318,89
275,61	1241,07
275,83	1306,60
276,05	1355,76
276,26	1257,45
276,48	1263,60
276,69	1265,64
276,91	1232,88
277,12	1265,64
277,34	1206,25
277,55	1298,41
277,77	1271,79
277,99	1306,60
278,20	1265,64
278,42	1251,31
278,63	1247,21
278,85	1312,75
279,06	1286,12
279,28	1265,64
279,49	1267,69
279,71	1253,36
279,93	1263,60
280,14	1277,93
280,36	1245,16
280,57	1239,02
280,79	1247,21
281,00	1253,36
281,22	1230,83
281,43	1259,50
281,65	1255,40
281,86	1284,08
282,08	1236,97
282,29	1255,40
282,51	1310,70
282,73	1288,17
282,94	1249,26
283,16	1214,45
283,37	1277,93
283,59	1296,36
283,80	1218,54
284,02	1372,14
284,23	1347,56
284,45	1271,79
284,66	1294,32
284,88	1236,97
285,09	1322,99
285,31	1263,60
285,52	1271,79
285,74	1279,98
285,95	1273,84
286,17	1222,64
286,38	1247,21
286,60	1265,64
286,81	1202,16
287,03	1255,40
287,24	1230,83
287,46	1329,13
287,67	1296,36
287,89	1318,89
288,10	1265,64
288,32	1261,55
288,53	1296,36
288,75	1267,69
288,96	1275,88
289,18	1290,22
289,39	1234,93
289,61	1298,41
289,82	1316,84
290,04	1298,41
290,25	1251,31
290,47	1275,88
290,68	1304,56
290,90	1255,40
291,11	1284,08
291,33	1279,98
291,54	1196,01
291,76	1200,11
291,97	1222,64
292,18	1286,12
292,40	1271,79
292,61	1292,27
292,83	1331,18
293,04	1294,32
293,26	1198,06
293,47	1249,26
293,69	1241,07
293,90	1302,51
294,12	1220,59
294,33	1214,45
294,55	1261,55
294,76	1325,04
294,97	1304,56
295,19	1269,74
295,40	1308,65
295,62	1284,08
295,83	1245,16
296,05	1271,79
296,26	1261,55
296,48	1243,12
296,69	1335,28
296,90	1300,46
297,12	1300,46
297,33	1322,99
297,55	1333,23
297,76	1304,56
297,98	1249,26
298,19	1294,32
298,41	1271,79
298,62	1277,93
298,83	1257,45
299,05	1236,97
299,26	1304,56
299,48	1224,69
299,69	1284,08
299,90	1200,11
300,12	1325,04
300,33	1304,56
300,55	1288,17
300,76	1189,87
300,98	1310,70
301,19	1261,55
301,40	1247,21
301,62	1234,93
301,83	1308,65
302,05	1277,93
302,26	1300,46
302,47	1261,55
302,69	1366,00
302,90	1189,87
303,12	1230,83
303,33	1333,23
303,54	1216,49
303,76	1198,06
303,97	1255,40
304,19	1273,84
304,40	1245,16
304,61	1286,12
304,83	1228,78
305,04	1273,84
305,26	1273,84
305,47	1265,64
305,68	1310,70
305,90	1181,68
306,11	1353,71
306,33	1312,75
306,54	1284,08
306,75	1271,79
306,97	1196,01
307,18	1228,78
307,39	1241,07
307,61	1263,60
307,82	1247,21
308,04	1296,36
308,25	1288,17
308,46	1247,21
308,68	1300,46
308,89	1234,93
309,10	1257,45
309,32	1198,06
309,53	1232,88
309,74	1353,71
309,96	1271,79
310,17	1273,84
310,39	1234,93
310,60	1247,21
310,81	1296,36
311,03	1273,84
311,24	1277,93
311,45	1228,78
311,67	1273,84
311,88	1322,99
312,09	1269,74
312,31	1206,25
312,52	1243,12
312,73	1269,74
312,95	1351,66
313,16	1220,59
313,37	1251,31
313,59	1284,08
313,80	1271,79
314,01	1253,36
314,23	1298,41
314,44	1314,80
314,65	1200,11
314,87	1284,08
315,08	1269,74
315,29	1277,93
315,51	1263,60
315,72	1224,69
315,93	1322,99
316,15	1259,50
316,36	1247,21
316,57	1255,40
316,79	1210,35
317,00	1218,54
317,21	1265,64
317,43	1322,99
317,64	1273,84
317,85	1232,88
318,07	1282,03
318,28	1228,78
318,49	1253,36
318,70	1265,64
318,92	1292,27
319,13	1234,93
319,34	1202,16
319,56	1306,60
319,77	1300,46
319,98	1224,69
320,20	1247,21
320,41	1275,88
320,62	1259,50
320,83	1239,02
321,05	1253,36
321,26	1316,84
321,47	1294,32
321,69	1273,84
321,90	1353,71
322,11	1329,13
322,32	1179,63
322,54	1257,45
322,75	1282,03
322,96	1269,74
323,18	1271,79
323,39	1247,21
323,60	1251,31
323,81	1212,40
324,03	1265,64
324,24	1294,32
324,45	1232,88
324,66	1208,30
324,88	1366,00
325,09	1259,50
325,30	1261,55
325,52	1241,07
325,73	1212,40
325,94	1261,55
326,15	1261,55
326,37	1298,41
326,58	1296,36
326,79	1282,03
327,00	1245,16
327,22	1255,40
327,43	1236,97
327,64	1232,88
327,85	1253,36
328,07	1259,50
328,28	1265,64
328,49	1245,16
328,70	1241,07
328,92	1249,26
329,13	1261,55
329,34	1288,17
329,55	1302,51
329,76	1265,64
329,98	1318,89
330,19	1298,41
330,40	1218,54
330,61	1302,51
330,83	1314,80
331,04	1310,70
331,25	1273,84
331,46	1314,80
331,68	1304,56
331,89	1263,60
332,10	1294,32
332,31	1230,83
332,52	1224,69
332,74	1343,47
332,95	1251,31
333,16	1253,36
333,37	1196,01
333,58	1220,59
333,80	1302,51
334,01	1128,43
334,22	1222,64
334,43	1279,98
334,64	1288,17
334,86	1304,56
335,07	1284,08
335,28	1290,22
335,49	1359,85
335,70	1290,22
335,92	1251,31
336,13	1247,21
336,34	1314,80
336,55	1222,64
336,76	1282,03
336,98	1202,16
337,19	1255,40
337,40	1232,88
337,61	1347,56
337,82	1279,98
338,04	1294,32
338,25	1308,65
338,46	1243,12
338,67	1265,64
338,88	1224,69
339,09	1239,02
339,31	1255,40
339,52	1249,26
339,73	1296,36
339,94	1312,75
340,15	1208,30
340,36	1282,03
340,58	1304,56
340,79	1265,64
341,00	1253,36
341,21	1243,12
341,42	1316,84
341,63	1306,60
341,85	1220,59
342,06	1290,22
342,27	1253,36
342,48	1273,84
342,69	1290,22
342,90	1255,40
343,12	1284,08
343,33	1243,12
343,54	1279,98
343,75	1236,97
343,96	1220,59
344,17	1286,12
344,38	1243,12
344,60	1259,50
344,81	1277,93
345,02	1236,97
345,23	1230,83
345,44	1302,51
345,65	1265,64
345,86	1218,54
346,07	1306,60
346,29	1212,40
346,50	1275,88
346,71	1331,18
346,92	1265,64
347,13	1243,12
347,34	1257,45
347,55	1243,12
347,76	1232,88
347,98	1224,69
348,19	1226,73
348,40	1292,27
348,61	1257,45
348,82	1304,56
349,03	1312,75
349,24	1265,64
349,45	1302,51
349,66	1261,55
349,88	1255,40
350,09	1243,12
350,30	1251,31
350,51	1279,98
350,72	1245,16
350,93	1294,32
351,14	1181,68
351,35	1241,07
351,56	1230,83
351,77	1296,36
351,99	1224,69
352,20	1255,40
352,41	1218,54
352,62	1196,01
352,83	1298,41
353,04	1288,17
353,25	1196,01
353,46	1181,68
353,67	1265,64
353,88	1226,73
354,09	1234,93
354,30	1304,56
354,52	1220,59
354,73	1304,56
354,94	1290,22
355,15	1212,40
355,36	1224,69
355,57	1267,69
355,78	1298,41
355,99	1257,45
356,20	1247,21
356,41	1269,74
356,62	1288,17
356,83	1288,17
357,04	1284,08
357,25	1241,07
357,46	1294,32
357,68	1241,07
357,89	1269,74
358,10	1277,93
358,31	1290,22
358,52	1253,36
358,73	1169,39
358,94	1265,64
359,15	1290,22
359,36	1277,93
359,57	1325,04
359,78	1247,21
359,99	1286,12
360,20	1267,69
360,41	1245,16
360,62	1236,97
360,83	1298,41
361,04	1257,45
361,25	1243,12
361,46	1273,84
361,67	1208,30
361,88	1325,04
362,09	1296,36
362,30	1284,08
362,51	1300,46
362,72	1228,78
362,93	1253,36
363,14	1322,99
363,35	1230,83
363,56	1290,22
363,78	1263,60
363,99	1204,21
364,20	1269,74
364,41	1236,97
364,62	1251,31
364,83	1239,02
365,04	1296,36
365,25	1277,93
365,46	1310,70
365,67	1257,45
365,88	1261,55
366,09	1216,49
366,30	1232,88
366,51	1271,79
366,72	1318,89
366,93	1300,46
367,14	1247,21
367,35	1216,49
367,56	1189,87
367,77	1294,32
367,98	1245,16
368,18	1347,56
368,39	1292,27
368,60	1314,80
368,81	1236,97
369,02	1294,32
369,23	1216,49
369,44	1243,12
369,65	1304,56
369,86	1265,64
370,07	1318,89
370,28	1290,22
370,49	1269,74
370,70	1167,34
370,91	1292,27
371,12	1304,56
371,33	1249,26
371,54	1245,16
371,75	1292,27
371,96	1269,74
372,17	1263,60
372,38	1263,60
372,59	1265,64
372,80	1314,80
373,01	1298,41
373,22	1269,74
373,43	1314,80
373,64	1175,53
373,85	1210,35
374,06	1277,93
374,26	1269,74
374,47	1220,59
374,68	1241,07
374,89	1198,06
375,10	1185,77
375,31	1241,07
375,52	1294,32
375,73	1263,60
375,94	1234,93
376,15	1288,17
376,36	1243,12
376,57	1200,11
376,78	1333,23
376,99	1306,60
377,20	1294,32
377,40	1304,56
377,61	1259,50
377,82	1226,73
378,03	1320,94
378,24	1263,60
378,45	1288,17
378,66	1282,03
378,87	1245,16
379,08	1318,89
379,29	1241,07
379,50	1271,79
379,71	1228,78
379,91	1298,41
380,12	1368,04
380,33	1200,11
380,54	1230,83
380,75	1292,27
380,96	1292,27
381,17	1198,06
381,38	1290,22
381,59	1378,28
381,80	1314,80
382,00	1282,03
382,21	1269,74
382,42	1234,93
382,63	1320,94
382,84	1253,36
383,05	1265,64
383,26	1239,02
383,47	1325,04
383,68	1294,32
383,88	1331,18
384,09	1259,50
384,30	1286,12
384,51	1265,64
384,72	1253,36
384,93	1249,26
385,14	1206,25
385,35	1216,49
385,55	1267,69
385,76	1230,83
385,97	1249,26
386,18	1259,50
386,39	1222,64
386,60	1243,12
386,81	1265,64
387,02	1251,31
387,22	1257,45
387,43	1259,50
387,64	1230,83
387,85	1241,07
388,06	1243,12
388,27	1271,79
388,48	1253,36
388,68	1210,35
388,89	1288,17
389,10	1304,56
389,31	1243,12
389,52	1245,16
389,73	1294,32
389,93	1259,50
390,14	1292,27
390,35	1249,26
390,56	1318,89
390,77	1243,12
390,98	1263,60
391,18	1304,56
391,39	1212,40
391,60	1275,88
391,81	1220,59
392,02	1249,26
392,23	1316,84
392,43	1185,77
392,64	1279,98
392,85	1304,56
393,06	1181,68
393,27	1212,40
393,47	1275,88
393,68	1193,97
393,89	1282,03
394,10	1308,65
394,31	1286,12
394,52	1236,97
394,72	1216,49
394,93	1308,65
395,14	1304,56
395,35	1204,21
395,56	1222,64
395,76	1261,55
395,97	1302,51
396,18	1294,32
396,39	1253,36
396,60	1271,79
396,80	1222,64
397,01	1304,56
397,22	1224,69
397,43	1247,21
397,64	1175,53
397,84	1361,90
398,05	1236,97
398,26	1300,46
398,47	1253,36
398,67	1306,60
398,88	1210,35
399,09	1279,98
399,30	1247,21
399,51	1255,40
399,71	1269,74
399,92	1380,33
400,13	1220,59
400,34	1322,99
400,54	1251,31
400,75	1304,56
400,96	1290,22
401,17	1331,18
401,37	1253,36
401,58	1290,22
401,79	1220,59
402,00	1290,22
402,21	1216,49
402,41	1294,32
402,62	1212,40
402,83	1271,79
403,04	1253,36
403,24	1339,37
403,45	1236,97
403,66	1277,93
403,87	1265,64
404,07	1306,60
404,28	1312,75
404,49	1210,35
404,70	1286,12
404,90	1214,45
405,11	1273,84
405,32	1325,04
405,52	1290,22
405,73	1247,21
405,94	1245,16
406,15	1329,13
406,35	1300,46
406,56	1253,36
406,77	1294,32
406,98	1300,46
407,18	1239,02
407,39	1265,64
407,60	1314,80
407,80	1265,64
408,01	1212,40
408,22	1347,56
408,43	1318,89
408,63	1245,16
408,84	1308,65
409,05	1261,55
409,25	1290,22
409,46	1273,84
409,67	1292,27
409,88	1273,84
410,08	1298,41
410,29	1318,89
410,50	1218,54
410,70	1306,60
410,91	1234,93
411,12	1267,69
411,32	1279,98
411,53	1290,22
411,74	1255,40
411,95	1222,64
412,15	1198,06
412,36	1329,13
412,57	1212,40
412,77	1279,98
412,98	1282,03
413,19	1292,27
413,39	1331,18
413,60	1236,97
413,81	1298,41
414,01	1216,49
414,22	1298,41
414,43	1185,77
414,63	1255,40
414,84	1208,30
415,05	1298,41
415,25	1241,07
415,46	1316,84
415,67	1286,12
415,87	1282,03
416,08	1257,45
416,29	1339,37
416,49	1249,26
416,70	1304,56
416,91	1224,69
417,11	1261,55
417,32	1288,17
417,53	1224,69
417,73	1265,64
417,94	1290,22
418,15	1273,84
418,35	1232,88
418,56	1224,69
418,77	1302,51
418,97	1292,27
419,18	1279,98
419,38	1286,12
419,59	1331,18
419,80	1288,17
420,00	1208,30
420,21	1191,92
420,42	1275,88
420,62	1253,36
420,83	1296,36
421,04	1314,80
421,24	1279,98
421,45	1306,60
421,65	1318,89
421,86	1265,64
422,07	1304,56
422,27	1298,41
422,48	1322,99
422,69	1271,79
422,89	1245,16
423,10	1343,47
423,30	1247,21
423,51	1261,55
423,72	1234,93
423,92	1304,56
424,13	1249,26
424,33	1269,74
424,54	1230,83
424,75	1331,18
424,95	1220,59
425,16	1306,60
425,36	1224,69
425,57	1263,60
425,78	1282,03
425,98	1298,41
426,19	1241,07
426,39	1335,28
426,60	1267,69
426,81	1314,80
427,01	1214,45
427,22	1296,36
427,42	1234,93
427,63	1357,80
427,83	1236,97
428,04	1325,04
428,25	1208,30
428,45	1247,21
428,66	1304,56
428,86	1261,55
429,07	1343,47
429,28	1298,41
429,48	1277,93
429,69	1269,74
429,89	1312,75
430,10	1290,22
430,30	1251,31
430,51	1269,74
430,71	1279,98
430,92	1308,65
431,13	1234,93
431,33	1239,02
431,54	1204,21
431,74	1318,89
431,95	1249,26
432,15	1296,36
432,36	1290,22
432,56	1271,79
432,77	1193,97
432,98	1216,49
433,18	1234,93
433,39	1279,98
433,59	1286,12
433,80	1241,07
434,00	1249,26
434,21	1294,32
434,41	1347,56
434,62	1273,84
434,82	1236,97
435,03	1308,65
435,23	1269,74
435,44	1261,55
435,64	1210,35
435,85	1288,17
436,06	1300,46
436,26	1300,46
436,47	1214,45
436,67	1294,32
436,88	1218,54
437,08	1273,84
437,29	1277,93
437,49	1253,36
437,70	1249,26
437,90	1251,31
438,11	1325,04
438,31	1310,70
438,52	1275,88
438,72	1314,80
438,93	1267,69
439,13	1204,21
439,34	1357,80
439,54	1198,06
439,75	1292,27
439,95	1349,61
440,16	1214,45
440,36	1247,21
440,57	1259,50
440,77	1265,64
440,98	1265,64
441,18	1220,59
441,39	1251,31
441,59	1241,07
441,80	1230,83
442,00	1239,02
442,21	1284,08
442,41	1220,59
442,62	1316,84
442,82	1251,31
443,02	1193,97
443,23	1306,60
443,43	1277,93
443,64	1224,69
443,84	1202,16
444,05	1314,80
444,25	1310,70
444,46	1314,80
444,66	1273,84
444,87	1257,45
445,07	1249,26
445,28	1298,41
445,48	1263,60
445,69	1257,45
445,89	1265,64
446,09	1234,93
446,30	1294,32
446,50	1253,36
446,71	1239,02
446,91	1284,08
447,12	1232,88
447,32	1224,69
447,53	1292,27
447,73	1200,11
447,93	1290,22
448,14	1189,87
448,34	1279,98
448,55	1284,08
448,75	1257,45
448,96	1333,23
449,16	1263,60
449,36	1265,64
449,57	1216,49
449,77	1320,94
449,98	1253,36
450,18	1290,22
450,39	1210,35
450,59	1308,65
450,79	1222,64
451,00	1206,25
451,20	1228,78
451,41	1241,07
451,61	1339,37
451,81	1275,88
452,02	1249,26
452,22	1273,84
452,43	1259,50
452,63	1247,21
452,84	1290,22
453,04	1290,22
453,24	1267,69
453,45	1318,89
453,65	1208,30
453,86	1257,45
454,06	1271,79
454,26	1261,55
454,47	1279,98
454,67	1263,60
454,87	1224,69
455,08	1292,27
455,28	1210,35
455,49	1251,31
455,69	1304,56
455,89	1228,78
456,10	1269,74
456,30	1249,26
456,51	1255,40
456,71	1288,17
456,91	1288,17
457,12	1288,17
457,32	1343,47
457,52	1230,83
457,73	1279,98
457,93	1282,03
458,14	1288,17
458,34	1247,21
458,54	1241,07
458,75	1214,45
458,95	1234,93
459,15	1267,69
459,36	1286,12
459,56	1220,59
459,76	1298,41
459,97	1247,21
460,17	1249,26
460,37	1261,55
460,58	1236,97
460,78	1241,07
460,99	1271,79
461,19	1249,26
461,39	1214,45
461,60	1222,64
461,80	1222,64
462,00	1198,06
462,21	1247,21
462,41	1210,35
462,61	1282,03
462,82	1286,12
463,02	1322,99
463,22	1273,84
463,43	1236,97
463,63	1249,26
463,83	1284,08
464,04	1247,21
464,24	1361,90
464,44	1257,45
464,64	1314,80
464,85	1251,31
465,05	1253,36
465,25	1249,26
465,46	1361,90
465,66	1351,66
465,86	1337,32
466,07	1224,69
466,27	1265,64
466,47	1259,50
466,68	1228,78
466,88	1228,78
467,08	1241,07
467,29	1224,69
467,49	1318,89
467,69	1282,03
467,89	1282,03
468,10	1312,75
468,30	1302,51
468,50	1318,89
468,71	1232,88
468,91	1279,98
469,11	1224,69
469,31	1310,70
469,52	1288,17
469,72	1200,11
469,92	1290,22
470,13	1241,07
470,33	1273,84
470,53	1288,17
470,73	1259,50
470,94	1292,27
471,14	1308,65
471,34	1239,02
471,54	1193,97
471,75	1314,80
471,95	1247,21
472,15	1232,88
472,36	1257,45
472,56	1355,76
472,76	1257,45
472,96	1228,78
473,17	1310,70
473,37	1245,16
473,57	1198,06
473,77	1316,84
473,98	1267,69
474,18	1302,51
474,38	1294,32
474,58	1228,78
474,79	1300,46
474,99	1318,89
475,19	1230,83
475,39	1298,41
475,60	1275,88
475,80	1202,16
476,00	1310,70
476,20	1277,93
476,41	1284,08
476,61	1314,80
476,81	1265,64
477,01	1329,13
477,21	1265,64
477,42	1341,42
477,62	1263,60
477,82	1251,31
478,02	1269,74
478,23	1275,88
478,43	1290,22
478,63	1288,17
478,83	1320,94
479,03	1282,03
479,24	1296,36
479,44	1263,60
479,64	1271,79
479,84	1228,78
480,04	1273,84
480,25	1236,97
480,45	1220,59
480,65	1304,56
480,85	1339,37
481,06	1331,18
481,26	1277,93
481,46	1255,40
481,66	1288,17
481,86	1263,60
482,06	1247,21
482,27	1275,88
482,47	1257,45
482,67	1243,12
482,87	1314,80
483,07	1216,49
483,28	1232,88
483,48	1290,22
483,68	1277,93
483,88	1249,26
484,08	1306,60
484,29	1222,64
484,49	1288,17
484,69	1234,93
484,89	1265,64
485,09	1241,07
485,29	1228,78
485,50	1222,64
485,70	1243,12
485,90	1202,16
486,10	1284,08
486,30	1261,55
486,50	1300,46
486,71	1228,78
486,91	1308,65
487,11	1288,17
487,31	1159,15
487,51	1206,25
487,71	1265,64
487,91	1259,50
488,12	1218,54
488,32	1298,41
488,52	1279,98
488,72	1239,02
488,92	1288,17
489,12	1251,31
489,32	1234,93
489,53	1271,79
489,73	1239,02
489,93	1263,60
490,13	1261,55
490,33	1206,25
490,53	1288,17
490,73	1284,08
490,94	1204,21
491,14	1204,21
491,34	1277,93
491,54	1273,84
491,74	1257,45
491,94	1271,79
492,14	1290,22
492,34	1279,98
492,54	1298,41
492,75	1302,51
492,95	1263,60
493,15	1314,80
493,35	1306,60
493,55	1263,60
493,75	1241,07
493,95	1271,79
494,15	1202,16
494,35	1234,93
494,56	1292,27
494,76	1290,22
494,96	1284,08
495,16	1325,04
495,36	1308,65
495,56	1259,50
495,76	1288,17
495,96	1271,79
496,16	1198,06
496,36	1345,52
496,56	1284,08
496,77	1306,60
496,97	1210,35
497,17	1249,26
497,37	1306,60
497,57	1306,60
497,77	1304,56
497,97	1206,25
498,17	1241,07
498,37	1310,70
498,57	1284,08
498,77	1228,78
498,97	1292,27
499,17	1271,79
499,38	1265,64
499,58	1279,98
499,78	1249,26
499,98	1316,84
500,18	1161,20
500,38	1296,36
500,58	1230,83
500,78	1298,41
500,98	1261,55
501,18	1357,80
501,38	1255,40
501,58	1347,56
501,78	1308,65
501,98	1288,17
502,18	1222,64
502,38	1292,27
502,58	1212,40
502,78	1249,26
502,98	1265,64
503,18	1261,55
503,38	1314,80
503,59	1249,26
503,79	1236,97
503,99	1302,51
504,19	1300,46
504,39	1349,61
504,59	1239,02
504,79	1239,02
504,99	1230,83
505,19	1306,60
505,39	1279,98
505,59	1292,27
505,79	1316,84
505,99	1241,07
506,19	1247,21
506,39	1200,11
506,59	1306,60
506,79	1322,99
506,99	1228,78
507,19	1300,46
507,39	1316,84
507,59	1259,50
507,79	1322,99
507,99	1355,76
508,19	1245,16
508,39	1304,56
508,59	1226,73
508,79	1304,56
508,99	1243,12
509,19	1314,80
509,39	1259,50
509,59	1224,69
509,79	1296,36
509,99	1196,01
510,19	1267,69
510,39	1331,18
510,59	1245,16
510,79	1267,69
510,99	1245,16
511,19	1284,08
511,39	1265,64
511,59	1298,41
511,79	1245,16
511,99	1265,64
512,19	1271,79
512,38	1277,93
512,58	1298,41
512,78	1220,59
512,98	1177,58
513,18	1232,88
513,38	1239,02
513,58	1357,80
513,78	1263,60
513,98	1286,12
514,18	1279,98
514,38	1306,60
514,58	1251,31
514,78	1214,45
514,98	1234,93
515,18	1294,32
515,38	1349,61
515,58	1279,98
515,78	1261,55
515,98	1249,26
516,18	1286,12
516,38	1259,50
516,57	1296,36
516,77	1226,73
516,97	1357,80
517,17	1273,84
517,37	1296,36
517,57	1216,49
517,77	1241,07
517,97	1249,26
518,17	1296,36
518,37	1230,83
518,57	1347,56
518,77	1269,74
518,97	1300,46
519,16	1298,41
519,36	1243,12
519,56	1277,93
519,76	1279,98
519,96	1271,79
520,16	1286,12
520,36	1239,02
520,56	1269,74
520,76	1159,15
520,96	1222,64
521,16	1294,32
521,35	1290,22
521,55	1277,93
521,75	1239,02
521,95	1247,21
522,15	1282,03
522,35	1271,79
522,55	1284,08
522,75	1259,50
522,95	1288,17
523,14	1255,40
523,34	1296,36
523,54	1275,88
523,74	1257,45
523,94	1206,25
524,14	1249,26
524,34	1228,78
524,54	1269,74
524,73	1216,49
524,93	1277,93
525,13	1173,49
525,33	1273,84
525,53	1290,22
525,73	1275,88
525,93	1265,64
526,13	1251,31
526,32	1251,31
526,52	1177,58
526,72	1277,93
526,92	1271,79
527,12	1310,70
527,32	1208,30
527,52	1329,13
527,71	1247,21
527,91	1249,26
528,11	1249,26
528,31	1241,07
528,51	1286,12
528,71	1265,64
528,90	1261,55
529,10	1257,45
529,30	1228,78
529,50	1234,93
529,70	1325,04
529,90	1359,85
530,09	1300,46
530,29	1290,22
530,49	1208,30
530,69	1269,74
530,89	1245,16
531,09	1273,84
531,28	1259,50
531,48	1269,74
531,68	1267,69
531,88	1257,45
532,08	1279,98
532,28	1288,17
532,47	1290,22
532,67	1249,26
532,87	1302,51
533,07	1341,42
533,27	1232,88
533,46	1259,50
533,66	1212,40
533,86	1241,07
534,06	1282,03
534,26	1239,02
534,45	1177,58
534,65	1288,17
534,85	1269,74
535,05	1212,40
535,25	1232,88
535,44	1253,36
535,64	1263,60
535,84	1314,80
536,04	1191,92
536,24	1163,25
536,43	1269,74
536,63	1302,51
536,83	1249,26
537,03	1312,75
537,22	1220,59
537,42	1370,09
537,62	1259,50
537,82	1251,31
538,02	1314,80
538,21	1267,69
538,41	1318,89
538,61	1257,45
538,81	1224,69
539,00	1224,69
539,20	1306,60
539,40	1353,71
539,60	1234,93
539,79	1322,99
539,99	1200,11
540,19	1282,03
540,39	1191,92
540,58	1218,54
540,78	1308,65
540,98	1208,30
541,18	1333,23
541,37	1245,16
541,57	1273,84
541,77	1247,21
541,97	1255,40
542,16	1279,98
542,36	1322,99
542,56	1304,56
542,76	1343,47
542,95	1224,69
543,15	1214,45
543,35	1234,93
543,54	1230,83
543,74	1322,99
543,94	1212,40
544,14	1208,30
544,33	1253,36
544,53	1275,88
544,73	1165,29
544,93	1282,03
545,12	1263,60
545,32	1261,55
545,52	1241,07
545,71	1257,45
545,91	1239,02
546,11	1239,02
546,30	1286,12
546,50	1361,90
546,70	1282,03
546,90	1290,22
547,09	1265,64
547,29	1273,84
547,49	1249,26
547,68	1314,80
547,88	1218,54
548,08	1234,93
548,27	1273,84
548,47	1212,40
548,67	1236,97
548,87	1318,89
549,06	1249,26
549,26	1222,64
549,46	1257,45
549,65	1265,64
549,85	1284,08
550,05	1265,64
550,24	1294,32
550,44	1275,88
550,64	1275,88
550,83	1224,69
551,03	1310,70
551,23	1302,51
551,42	1261,55
551,62	1261,55
551,82	1251,31
552,01	1257,45
552,21	1243,12
552,41	1294,32
552,60	1298,41
552,80	1327,08
553,00	1267,69
553,19	1273,84
553,39	1198,06
553,59	1247,21
553,78	1296,36
553,98	1282,03
554,17	1236,97
554,37	1271,79
554,57	1228,78
554,76	1290,22
554,96	1249,26
555,16	1220,59
555,35	1255,40
555,55	1273,84
555,75	1236,97
555,94	1241,07
556,14	1294,32
556,33	1196,01
556,53	1165,29
556,73	1251,31
556,92	1282,03
557,12	1292,27
557,32	1230,83
557,51	1300,46
557,71	1265,64
557,90	1282,03
558,10	1241,07
558,30	1337,32
558,49	1284,08
558,69	1306,60
558,88	1294,32
559,08	1200,11
559,28	1241,07
559,47	1236,97
559,67	1275,88
559,86	1279,98
560,06	1329,13
560,26	1257,45
560,45	1247,21
560,65	1247,21
560,84	1234,93
561,04	1249,26
561,24	1257,45
561,43	1296,36
561,63	1349,61
561,82	1275,88
562,02	1314,80
562,22	1259,50
562,41	1228,78
562,61	1300,46
562,80	1253,36
563,00	1288,17
563,19	1245,16
563,39	1232,88
563,59	1327,08
563,78	1298,41
563,98	1185,77
564,17	1257,45
564,37	1245,16
564,56	1335,28
564,76	1212,40
564,96	1288,17
565,15	1247,21
565,35	1318,89
565,54	1277,93
565,74	1255,40
565,93	1308,65
566,13	1263,60
566,32	1288,17
566,52	1310,70
566,71	1253,36
566,91	1232,88
567,11	1243,12
567,30	1294,32
567,50	1202,16
567,69	1218,54
567,89	1310,70
568,08	1214,45
568,28	1279,98
568,47	1277,93
568,67	1263,60
568,86	1267,69
569,06	1284,08
569,25	1329,13
569,45	1212,40
569,64	1282,03
569,84	1187,82
570,04	1239,02
570,23	1314,80
570,43	1322,99
570,62	1277,93
570,82	1271,79
571,01	1259,50
571,21	1243,12
571,40	1253,36
571,60	1247,21
571,79	1261,55
571,99	1314,80
572,18	1247,21
572,38	1226,73
572,57	1273,84
572,77	1267,69
572,96	1189,87
573,16	1265,64
573,35	1298,41
573,55	1290,22
573,74	1187,82
573,94	1253,36
574,13	1308,65
574,33	1327,08
574,52	1273,84
574,71	1255,40
574,91	1312,75
575,10	1288,17
575,30	1241,07
575,49	1284,08
575,69	1265,64
575,88	1277,93
576,08	1245,16
576,27	1243,12
576,47	1234,93
576,66	1335,28
576,86	1290,22
577,05	1251,31
577,25	1224,69
577,44	1306,60
577,64	1239,02
577,83	1296,36
578,02	1259,50
578,22	1271,79
578,41	1298,41
578,61	1265,64
578,80	1200,11
579,00	1265,64
579,19	1277,93
579,39	1275,88
579,58	1294,32
579,77	1234,93
579,97	1232,88
580,16	1329,13
580,36	1327,08
580,55	1304,56
580,75	1259,50
580,94	1167,34
581,13	1210,35
581,33	1261,55
581,52	1247,21
581,72	1335,28
581,91	1241,07
582,11	1279,98
582,30	1228,78
582,49	1230,83
582,69	1294,32
582,88	1279,98
583,08	1308,65
583,27	1236,97
583,47	1310,70
583,66	1275,88
583,85	1288,17
584,05	1298,41
584,24	1251,31
584,44	1277,93
584,63	1183,73
584,82	1175,53
585,02	1294,32
585,21	1277,93
585,41	1273,84
585,60	1331,18
585,79	1320,94
585,99	1271,79
586,18	1222,64
586,37	1329,13
586,57	1241,07
586,76	1304,56
586,96	1247,21
587,15	1282,03
587,34	1259,50
587,54	1241,07
587,73	1214,45
587,93	1263,60
588,12	1282,03
588,31	1302,51
588,51	1292,27
588,70	1249,26
588,89	1316,84
589,09	1220,59
589,28	1265,64
589,47	1249,26
589,67	1232,88
589,86	1263,60
590,06	1284,08
590,25	1284,08
590,44	1243,12
590,64	1204,21
590,83	1263,60
591,02	1169,39
591,22	1277,93
591,41	1249,26
591,60	1257,45
591,80	1239,02
591,99	1322,99
592,18	1273,84
592,38	1345,52
592,57	1257,45
592,76	1261,55
592,96	1288,17
593,15	1263,60
593,34	1261,55
593,54	1275,88
593,73	1304,56
593,92	1269,74
594,12	1255,40
594,31	1294,32
594,50	1337,32
594,70	1224,69
594,89	1314,80
595,08	1279,98
595,28	1284,08
595,47	1320,94
595,66	1249,26
595,86	1261,55
596,05	1185,77
596,24	1284,08
596,43	1263,60
596,63	1257,45
596,82	1259,50
597,01	1265,64
597,21	1241,07
597,40	1265,64
597,59	1282,03
597,79	1267,69
597,98	1290,22
598,17	1304,56
598,36	1255,40
598,56	1267,69
598,75	1218,54
598,94	1294,32
599,14	1261,55
599,33	1261,55
599,52	1269,74
599,71	1294,32
599,91	1261,55
600,10	1306,60
600,29	1232,88
600,48	1259,50
600,68	1284,08
600,87	1214,45
601,06	1322,99
601,26	1277,93
601,45	1310,70
601,64	1259,50
601,83	1292,27
602,03	1314,80
602,22	1296,36
602,41	1210,35
602,60	1269,74
602,80	1300,46
602,99	1308,65
603,18	1294,32
603,37	1196,01
603,57	1288,17
603,76	1304,56
603,95	1304,56
604,14	1298,41
604,34	1161,20
604,53	1322,99
604,72	1284,08
604,91	1318,89
605,10	1284,08
605,30	1249,26
605,49	1239,02
605,68	1288,17
605,87	1261,55
606,07	1279,98
606,26	1290,22
606,45	1271,79
606,64	1251,31
606,84	1279,98
607,03	1226,73
607,22	1171,44
607,41	1314,80
607,60	1290,22
607,80	1277,93
607,99	1267,69
608,18	1271,79
608,37	1267,69
608,56	1298,41
608,76	1282,03
608,95	1329,13
609,14	1198,06
609,33	1267,69
609,52	1193,97
609,72	1327,08
609,91	1304,56
610,10	1290,22
610,29	1286,12
610,48	1273,84
610,68	1230,83
610,87	1271,79
611,06	1339,37
611,25	1224,69
611,44	1255,40
611,63	1210,35
611,83	1261,55
612,02	1247,21
612,21	1282,03
612,40	1269,74
612,59	1339,37
612,79	1241,07
612,98	1302,51
613,17	1255,40
613,36	1214,45
613,55	1286,12
613,74	1306,60
613,93	1284,08
614,13	1304,56
614,32	1210,35
614,51	1288,17
614,70	1220,59
614,89	1306,60
615,08	1230,83
615,28	1296,36
615,47	1173,49
615,66	1296,36
615,85	1288,17
616,04	1310,70
616,23	1247,21
616,42	1314,80
616,62	1298,41
616,81	1306,60
617,00	1279,98
617,19	1292,27
617,38	1327,08
617,57	1226,73
617,76	1302,51
617,95	1368,04
618,15	1243,12
618,34	1253,36
618,53	1251,31
618,72	1267,69
618,91	1308,65
619,10	1290,22
619,29	1214,45
619,48	1298,41
619,68	1275,88
619,87	1312,75
620,06	1286,12
620,25	1273,84
620,44	1210,35
620,63	1265,64
620,82	1361,90
621,01	1236,97
621,20	1284,08
621,39	1282,03
621,59	1245,16
621,78	1288,17
621,97	1239,02
622,16	1286,12
622,35	1310,70
622,54	1253,36
622,73	1339,37
622,92	1224,69
623,11	1263,60
623,30	1277,93
623,49	1257,45
623,68	1329,13
623,88	1269,74
624,07	1261,55
624,26	1273,84
624,45	1271,79
624,64	1259,50
624,83	1253,36
625,02	1308,65
625,21	1257,45
625,40	1218,54
625,59	1310,70
625,78	1292,27
625,97	1185,77
626,16	1290,22
626,35	1337,32
626,54	1241,07
626,74	1286,12
626,93	1243,12
627,12	1222,64
627,31	1257,45
627,50	1255,40
627,69	1388,52
627,88	1226,73
628,07	1286,12
628,26	1214,45
628,45	1322,99
628,64	1320,94
628,83	1322,99
629,02	1239,02
629,21	1279,98
629,40	1273,84
629,59	1243,12
629,78	1271,79
629,97	1296,36
630,16	1322,99
630,35	1288,17
630,54	1296,36
630,73	1253,36
630,92	1230,83
631,11	1273,84
631,30	1314,80
631,49	1300,46
631,68	1433,58
631,87	2287,58
632,06	5351,34
632,25	7126,93
632,44	13195,06
632,63	20184,78
632,82	35335,65
633,01	46622,01
633,20	27795,03
633,39	12296,00
633,58	5175,22
633,77	3835,85
633,96	3792,84
634,15	2983,89
634,34	2340,83
634,53	2187,23
634,72	2162,66
634,91	1890,28
635,10	1935,33
635,29	1736,68
635,48	1734,63
635,67	1665,00
635,86	1587,18
636,05	1615,85
636,24	1599,46
636,43	1495,02
636,62	1519,59
636,81	1423,34
637,00	1454,06
637,19	1368,04
637,38	1411,05
637,57	1376,24
637,76	1339,37
637,95	1298,41
638,14	1361,90
638,33	1402,86
638,52	1327,08
638,71	1277,93
638,89	1298,41
639,08	1298,41
639,27	1234,93
639,46	1271,79
639,65	1282,03
639,84	1318,89
640,03	1288,17
640,22	1298,41
640,41	1241,07
640,60	1243,12
640,79	1308,65
640,98	1214,45
641,17	1288,17
641,36	1196,01
641,55	1253,36
641,74	1222,64
641,92	1279,98
642,11	1318,89
642,30	1253,36
642,49	1286,12
642,68	1296,36
642,87	1249,26
643,06	1294,32
643,25	1294,32
643,44	1322,99
643,63	1200,11
643,82	1284,08
644,00	1349,61
644,19	1286,12
644,38	1241,07
644,57	1304,56
644,76	1273,84
644,95	1269,74
645,14	1206,25
645,33	1218,54
645,52	1214,45
645,71	1239,02
645,89	1290,22
646,08	1269,74
646,27	1259,50
646,46	1265,64
646,65	1265,64
646,84	1277,93
647,03	1247,21
647,22	1345,52
647,40	1241,07
647,59	1224,69
647,78	1234,93
647,97	1265,64
648,16	1263,60
648,35	1288,17
648,54	1290,22
648,73	1286,12
648,91	1253,36
649,10	1249,26
649,29	1245,16
649,48	1343,47
649,67	1269,74
649,86	1306,60
650,05	1257,45
650,23	1335,28
650,42	1314,80
650,61	1265,64
650,80	1296,36
650,99	1279,98
651,18	1267,69
651,36	1224,69
651,55	1222,64
651,74	1273,84
651,93	1241,07
652,12	1322,99
652,31	1310,70
652,49	1284,08
652,68	1218,54
652,87	1255,40
653,06	1298,41
653,25	1263,60
653,44	1316,84
653,62	1269,74
653,81	1249,26
654,00	1310,70
654,19	1224,69
654,38	1269,74
654,56	1279,98
654,75	1251,31
654,94	1298,41
655,13	1230,83
655,32	1226,73
655,51	1263,60
655,69	1294,32
655,88	1380,33
656,07	1331,18
656,26	1253,36
656,45	1232,88
656,63	1267,69
656,82	1263,60
657,01	1316,84
657,20	1290,22
657,38	1331,18
657,57	1261,55
657,76	1282,03
657,95	1302,51
658,14	1331,18
658,32	1265,64
658,51	1179,63
658,70	1318,89
658,89	1300,46
659,08	1243,12
659,26	1224,69
659,45	1300,46
659,64	1296,36
659,83	1253,36
660,01	1327,08
660,20	1277,93
660,39	1335,28
660,58	1241,07
660,76	1314,80
660,95	1239,02
661,14	1300,46
661,33	1294,32
661,51	1224,69
661,70	1310,70
661,89	1304,56
662,08	1273,84
662,26	1288,17
662,45	1320,94
662,64	1292,27
662,83	1236,97
663,01	1245,16
663,20	1265,64
663,39	1206,25
663,58	1232,88
663,76	1347,56
663,95	1228,78
664,14	1345,52
664,32	1279,98
664,51	1257,45
664,70	1255,40
664,89	1298,41
665,07	1228,78
665,26	1302,51
665,45	1239,02
665,64	1259,50
665,82	1222,64
666,01	1277,93
666,20	1196,01
666,38	1271,79
666,57	1267,69
666,76	1271,79
666,95	1294,32
667,13	1310,70
667,32	1310,70
667,51	1310,70
667,69	1255,40
667,88	1259,50
668,07	1214,45
668,25	1267,69
668,44	1314,80
668,63	1181,68
668,81	1277,93
669,00	1245,16
669,19	1279,98
669,38	1255,40
669,56	1255,40
669,75	1275,88
669,94	1275,88
670,12	1249,26
670,31	1247,21
670,50	1247,21
670,68	1239,02
670,87	1298,41
671,06	1331,18
671,24	1282,03
671,43	1212,40
671,62	1216,49
671,80	1275,88
671,99	1251,31
672,18	1210,35
672,36	1294,32
672,55	1277,93
672,74	1245,16
672,92	1241,07
673,11	1228,78
673,29	1269,74
673,48	1298,41
673,67	1220,59
673,85	1331,18
674,04	1210,35
674,23	1224,69
674,41	1236,97
674,60	1325,04
674,79	1232,88
674,97	1257,45
675,16	1325,04
675,34	1298,41
675,53	1279,98
675,72	1261,55
675,90	1306,60
676,09	1259,50
676,28	1206,25
676,46	1253,36
676,65	1228,78
676,83	1202,16
677,02	1298,41
677,21	1290,22
677,39	1204,21
677,58	1193,97
677,77	1300,46
677,95	1271,79
678,14	1273,84
678,32	1216,49
678,51	1232,88
678,70	1271,79
678,88	1230,83
679,07	1296,36
679,25	1265,64
679,44	1331,18
679,63	1253,36
679,81	1245,16
680,00	1288,17
680,18	1347,56
680,37	1257,45
680,55	1335,28
680,74	1273,84
680,93	1210,35
681,11	1249,26
681,30	1269,74
681,48	1251,31
681,67	1312,75
681,85	1218,54
682,04	1245,16
682,23	1331,18
682,41	1224,69
682,60	1322,99
682,78	1210,35
682,97	1286,12
683,15	1279,98
683,34	1337,32
683,53	1236,97
683,71	1286,12
683,90	1232,88
684,08	1267,69
684,27	1218,54
684,45	1288,17
684,64	1265,64
684,82	1271,79
685,01	1265,64
685,19	1302,51
685,38	1349,61
685,57	1310,70
685,75	1253,36
685,94	1275,88
686,12	1247,21
686,31	1228,78
686,49	1232,88
686,68	1249,26
686,86	1271,79
687,05	1292,27
687,23	1286,12
687,42	1279,98
687,60	1312,75
687,79	1314,80
687,97	1236,97
688,16	1263,60
688,34	1298,41
688,53	1288,17
688,71	1241,07
688,90	1296,36
689,08	1247,21
689,27	1236,97
689,45	1191,92
689,64	1275,88
689,82	1312,75
690,01	1230,83
690,19	1249,26
690,38	1210,35
690,56	1236,97
690,75	1318,89
690,93	1241,07
691,12	1308,65
691,30	1329,13
691,49	1185,77
691,67	1245,16
691,86	1273,84
692,04	1236,97
692,23	1308,65
692,41	1220,59
692,60	1228,78
692,78	1304,56
692,97	1243,12
693,15	1191,92
693,34	1294,32
693,52	1185,77
693,71	1247,21
693,89	1286,12
694,08	1304,56
694,26	1284,08
694,44	1232,88
694,63	1210,35
694,81	1331,18
695,00	1298,41
695,18	1255,40
695,37	1347,56
695,55	1290,22
695,74	1222,64
695,92	1206,25
696,10	1230,83
696,29	1271,79
696,47	1263,60
696,66	1282,03
696,84	1232,88
697,03	1208,30
697,21	1322,99
697,40	1308,65
697,58	1314,80
697,76	1277,93
697,95	1269,74
698,13	1269,74
698,32	1329,13
698,50	1294,32
698,68	1273,84
698,87	1284,08
699,05	1269,74
699,24	1267,69
699,42	1284,08
699,61	1343,47
699,79	1204,21
699,97	1298,41
700,16	1210,35
700,34	1263,60
700,53	1232,88
700,71	1316,84
700,89	1214,45
701,08	1230,83
701,26	1286,12
701,45	1236,97
701,63	1230,83
701,81	1304,56
702,00	1222,64
702,18	1294,32
702,37	1320,94
702,55	1198,06
702,73	1253,36
702,92	1222,64
703,10	1286,12
703,28	1165,29
703,47	1304,56
703,65	1236,97
703,84	1296,36
704,02	1265,64
704,20	1329,13
704,39	1204,21
704,57	1286,12
704,75	1253,36
704,94	1212,40
705,12	1245,16
705,30	1273,84
705,49	1282,03
705,67	1261,55
705,86	1327,08
706,04	1159,15
706,22	1243,12
706,41	1279,98
706,59	1234,93
706,77	1259,50
706,96	1230,83
707,14	1271,79
707,32	1265,64
707,51	1296,36
707,69	1351,66
707,87	1247,21
708,06	1253,36
708,24	1279,98
708,42	1347,56
708,61	1275,88
708,79	1329,13
708,97	1304,56
709,16	1339,37
709,34	1218,54
709,52	1224,69
709,71	1257,45
709,89	1214,45
710,07	1218,54
710,26	1292,27
710,44	1279,98
710,62	1292,27
710,80	1294,32
710,99	1239,02
711,17	1304,56
711,35	1232,88
711,54	1294,32
711,72	1220,59
711,90	1216,49
712,09	1320,94
712,27	1236,97
712,45	1241,07
712,63	1214,45
712,82	1220,59
713,00	1353,71
713,18	1277,93
713,37	1243,12
713,55	1181,68
713,73	1294,32
713,91	1314,80
714,10	1279,98
714,28	1253,36
714,46	1308,65
714,65	1294,32
714,83	1300,46
715,01	1343,47
715,19	1329,13
715,38	1214,45
715,56	1353,71
715,74	1277,93
715,92	1255,40
716,11	1300,46
716,29	1302,51
716,47	1226,73
716,65	1224,69
716,84	1236,97
717,02	1316,84
717,20	1216,49
717,38	1290,22
717,57	1312,75
717,75	1261,55
717,93	1306,60
718,11	1259,50
718,30	1277,93
718,48	1325,04
718,66	1210,35
718,84	1337,32
719,03	1325,04
719,21	1298,41
719,39	1261,55
719,57	1359,85
719,75	1320,94
719,94	1228,78
720,12	1259,50
720,30	1284,08
720,48	1290,22
720,67	1345,52
720,85	1241,07
721,03	1249,26
721,21	1249,26
721,39	1333,23
721,58	1290,22
721,76	1279,98
721,94	1234,93
722,12	1331,18
722,30	1200,11
722,49	1263,60
722,67	1263,60
722,85	1249,26
723,03	1239,02
723,21	1206,25
723,40	1253,36
723,58	1191,92
723,76	1288,17
723,94	1257,45
724,12	1218,54
724,30	1265,64
724,49	1210,35
724,67	1269,74
724,85	1255,40
725,03	1193,97
725,21	1243,12
725,40	1296,36
725,58	1277,93
725,76	1255,40
725,94	1241,07
726,12	1247,21
726,30	1265,64
726,49	1230,83
726,67	1294,32
726,85	1312,75
727,03	1259,50
727,21	1304,56
727,39	1236,97
727,57	1267,69
727,76	1292,27
727,94	1288,17
728,12	1269,74
728,30	1263,60
728,48	1284,08
728,66	1288,17
728,84	1271,79
729,03	1251,31
729,21	1310,70
729,39	1232,88
729,57	1316,84
729,75	1296,36
729,93	1259,50
730,11	1347,56
730,30	1282,03
730,48	1284,08
730,66	1290,22
730,84	1353,71
731,02	1341,42
731,20	1275,88
731,38	1239,02
731,56	1179,63
731,74	1292,27
731,93	1259,50
732,11	1239,02
732,29	1275,88
732,47	1247,21
732,65	1232,88
732,83	1329,13
733,01	1261,55
733,19	1282,03
733,37	1208,30
733,56	1306,60
733,74	1300,46
733,92	1333,23
734,10	1253,36
734,28	1284,08
734,46	1245,16
734,64	1204,21
734,82	1288,17
735,00	1271,79
735,18	1288,17
735,36	1294,32
735,54	1296,36
735,73	1251,31
735,91	1273,84
736,09	1292,27
736,27	1288,17
736,45	1320,94
736,63	1232,88
736,81	1232,88
736,99	1241,07
737,17	1322,99
737,35	1224,69
737,53	1320,94
737,71	1298,41
737,89	1247,21
738,07	1292,27
738,25	1224,69
738,43	1243,12
738,61	1290,22
738,80	1269,74
738,98	1245,16
739,16	1255,40
739,34	1279,98
739,52	1220,59
739,70	1275,88
739,88	1239,02
740,06	1204,21
740,24	1271,79
740,42	1327,08
740,60	1296,36
740,78	1208,30
740,96	1253,36
741,14	1243,12
741,32	1296,36
741,50	1187,82
741,68	1251,31
741,86	1251,31
742,04	1329,13
742,22	1251,31
742,40	1308,65
742,58	1222,64
742,76	1259,50
742,94	1300,46
743,12	1269,74
743,30	1214,45
743,48	1347,56
743,66	1234,93
743,84	1273,84
744,02	1181,68
744,20	1179,63
744,38	1261,55
744,56	1179,63
744,74	1292,27
744,92	1247,21
745,10	1259,50
745,28	1355,76
745,46	1314,80
745,64	1304,56
745,82	1243,12
746,00	1325,04
746,18	1318,89
746,36	1247,21
746,54	1261,55
746,72	1296,36
746,90	1253,36
747,08	1306,60
747,26	1304,56
747,44	1236,97
747,62	1263,60
747,80	1314,80
747,98	1210,35
748,15	1251,31
748,33	1241,07
748,51	1216,49
748,69	1273,84
748,87	1310,70
749,05	1269,74
749,23	1245,16
749,41	1251,31
749,59	1265,64
749,77	1210,35
749,95	1232,88
750,13	1288,17
750,31	1294,32
750,49	1282,03
750,67	1292,27
750,85	1288,17
751,03	1290,22
751,20	1316,84
751,38	1263,60
751,56	1269,74
751,74	1259,50
751,92	1253,36
752,10	1222,64
752,28	1312,75
752,46	1234,93
752,64	1302,51
752,82	1331,18
753,00	1337,32
753,18	1327,08
753,35	1300,46
753,53	1239,02
753,71	1216,49
753,89	1290,22
754,07	1251,31
754,25	1277,93
754,43	1322,99
754,61	1196,01
754,79	1312,75
754,97	1236,97
755,14	1279,98
755,32	1306,60
755,50	1224,69
755,68	1288,17
755,86	1245,16
756,04	1255,40
756,22	1251,31
756,40	1236,97
756,57	1255,40
756,75	1241,07
756,93	1243,12
757,11	1271,79
757,29	1255,40
757,47	1314,80
757,65	1226,73
757,82	1202,16
758,00	1236,97
758,18	1329,13
758,36	1329,13
758,54	1269,74
758,72	1308,65
758,90	1243,12
759,07	1230,83
759,25	1279,98
759,43	1273,84
759,61	1253,36
759,79	1245,16
759,97	1257,45
760,15	1263,60
760,32	1300,46
760,50	1239,02
760,68	1269,74
760,86	1279,98
761,04	1282,03
761,22	1271,79
761,39	1224,69
761,57	1239,02
761,75	1292,27
761,93	1273,84
762,11	1312,75
762,28	1292,27
762,46	1226,73
762,64	1267,69
762,82	1232,88
763,00	1249,26
763,18	1288,17
763,35	1245,16
763,53	1288,17
763,71	1216,49
763,89	1294,32
764,07	1251,31
764,24	1099,76
764,42	1259,50
764,60	1282,03
764,78	1286,12
764,96	1302,51
765,13	1269,74
765,31	1339,37
765,49	1300,46
765,67	1286,12
765,84	1284,08
766,02	1265,64
766,20	1290,22
766,38	1322,99
766,56	1210,35
766,73	1298,41
766,91	1251,31
767,09	1241,07
767,27	1275,88
767,44	1261,55
767,62	1245,16
767,80	1224,69
767,98	1288,17
768,15	1251,31
768,33	1302,51
768,51	1241,07
768,69	1292,27
768,87	1279,98
769,04	1267,69
769,22	1288,17
769,40	1318,89
769,58	1298,41
769,75	1261,55
769,93	1257,45
770,11	1259,50
770,28	1228,78
770,46	1314,80
770,64	1236,97
770,82	1271,79
770,99	1255,40
771,17	1308,65
771,35	1255,40
771,53	1322,99
771,70	1325,04
771,88	1265,64
772,06	1294,32
772,23	1216,49
772,41	1288,17
772,59	1316,84
772,77	1284,08
772,94	1241,07
773,12	1282,03
773,30	1265,64
773,47	1216,49
773,65	1372,14
773,83	1243,12
774,01	1308,65
774,18	1306,60
774,36	1241,07
774,54	1234,93
774,71	1300,46
774,89	1247,21
775,07	1296,36
775,24	1302,51
775,42	1251,31
775,60	1288,17
775,78	1300,46
775,95	1206,25
776,13	1251,31
776,31	1253,36
776,48	1210,35
776,66	1224,69
776,84	1220,59
777,01	1234,93
777,19	1259,50
777,37	1265,64
777,54	1277,93
777,72	1234,93
777,90	1206,25
778,07	1255,40
778,25	1275,88
778,43	1314,80
778,60	1308,65
778,78	1273,84
778,96	1300,46
779,13	1314,80
779,31	1288,17
779,49	1255,40
779,66	1298,41
779,84	1271,79
780,01	1216,49
780,19	1282,03
780,37	1318,89
780,54	1253,36
780,72	1304,56
780,90	1187,82
781,07	1269,74
781,25	1247,21
781,43	1255,40
781,60	1290,22
781,78	1214,45
781,95	1267,69
782,13	1232,88
782,31	1265,64
782,48	1167,34
782,66	1320,94
782,83	1327,08
783,01	1306,60
783,19	1271,79
783,36	1253,36
783,54	1228,78
783,72	1255,40
783,89	1253,36
784,07	1296,36
784,24	1290,22
784,42	1322,99
784,60	1298,41
784,77	1335,28
784,95	1275,88
785,12	1251,31
785,30	1228,78
785,47	1284,08
785,65	1288,17
785,83	1275,88
786,00	1202,16
786,18	1202,16
786,35	1245,16
786,53	1282,03
786,71	1241,07
786,88	1273,84
787,06	1275,88
787,23	1222,64
787,41	1273,84
787,58	1320,94
787,76	1220,59
787,94	1249,26
788,11	1241,07
788,29	1247,21
788,46	1290,22
788,64	1357,80
788,81	1257,45
788,99	1245,16
789,16	1277,93
789,34	1327,08
789,52	1308,65
789,69	1292,27
789,87	1189,87
790,04	1337,32
790,22	1245,16
790,39	1320,94
790,57	1245,16
790,74	1212,40
790,92	1284,08
791,09	1310,70
791,27	1249,26
791,44	1322,99
791,62	1271,79
791,79	1314,80
791,97	1284,08
792,15	1296,36
792,32	1261,55
792,50	1304,56
792,67	1296,36
792,85	1294,32
793,02	1224,69
793,20	1249,26
793,37	1298,41
793,55	1284,08
793,72	1183,73
793,90	1282,03
794,07	1300,46
794,25	1327,08
794,42	1222,64
794,60	1210,35
794,77	1337,32
794,95	1378,28
795,12	1243,12
795,30	1294,32
795,47	1275,88
795,65	1214,45
795,82	1275,88
796,00	1345,52
796,17	1288,17
796,34	1236,97
796,52	1236,97
796,69	1226,73
796,87	1277,93
797,04	1202,16
797,22	1171,44
797,39	1241,07
797,57	1288,17
797,74	1290,22
797,92	1241,07
798,09	1304,56
798,27	1316,84
798,44	1325,04
798,62	1320,94
798,79	1243,12
798,96	1284,08
799,14	1222,64
799,31	1343,47
799,49	1228,78
799,66	1241,07
799,84	1226,73
800,01	1261,55
800,19	1241,07
800,36	1255,40
800,53	1255,40
800,71	1259,50
800,88	1320,94
801,06	1288,17
801,23	1216,49
801,41	1284,08
801,58	1275,88
801,75	1171,44
801,93	1253,36
802,10	1261,55
802,28	1206,25
802,45	1245,16
802,63	1212,40
802,80	1273,84
802,97	1290,22
803,15	1243,12
803,32	1296,36
803,50	1257,45
803,67	1366,00
803,84	1265,64
804,02	1224,69
804,19	1275,88
804,37	1298,41
804,54	1284,08
804,71	1308,65
804,89	1261,55
805,06	1355,76
805,24	1351,66
805,41	1249,26
805,58	1273,84
805,76	1316,84
805,93	1275,88
806,10	1271,79
806,28	1294,32
806,45	1202,16
806,63	1191,92
806,80	1290,22
806,97	1259,50
807,15	1259,50
807,32	1216,49
807,49	1247,21
807,67	1241,07
807,84	1308,65
808,01	1294,32
808,19	1265,64
808,36	1243,12
808,54	1286,12
808,71	1255,40
808,88	1318,89
809,06	1257,45
809,23	1230,83
809,40	1216,49
809,58	1273,84
809,75	1261,55
809,92	1282,03
810,10	1310,70
810,27	1298,41
810,44	1277,93
810,62	1320,94
810,79	1288,17
810,96	1253,36
811,14	1273,84
811,31	1292,27
811,48	1341,42
811,66	1288,17
811,83	1277,93
812,00	1206,25
812,18	1159,15
812,35	1255,40
812,52	1261,55
812,69	1206,25
812,87	1253,36
813,04	1304,56
813,21	1292,27
813,39	1267,69
813,56	1222,64
813,73	1320,94
813,91	1263,60
814,08	1312,75
814,25	1341,42
814,42	1226,73
814,60	1247,21
814,77	1214,45
814,94	1300,46
815,12	1239,02
815,29	1265,64
815,46	1298,41
815,63	1245,16
815,81	1243,12
815,98	1279,98
816,15	1298,41
816,33	1245,16
816,50	1208,30
816,67	1316,84
816,84	1288,17
817,02	1222,64
817,19	1247,21
817,36	1243,12
817,53	1273,84
817,71	1255,40
817,88	1314,80
818,05	1255,40
818,22	1249,26
818,40	1267,69
818,57	1284,08
818,74	1300,46
818,91	1302,51
819,09	1200,11
819,26	1232,88
819,43	1279,98
819,60	1216,49
819,78	1308,65
819,95	1294,32
820,12	1247,21
820,29	1273,84
820,47	1245,16
820,64	1247,21
820,81	1273,84
820,98	1279,98
821,15	1273,84
821,33	1271,79
821,50	1271,79
821,67	1259,50
821,84	1302,51
822,02	1257,45
822,19	1320,94
822,36	1187,82
822,53	1279,98
822,70	1239,02
822,88	1206,25
823,05	1267,69
823,22	1286,12
823,39	1230,83
823,56	1284,08
823,74	1279,98
823,91	1265,64
824,08	1232,88
824,25	1294,32
824,42	1228,78
824,60	1261,55
824,77	1265,64
824,94	1304,56
825,11	1300,46
825,28	1288,17
825,45	1230,83
825,63	1193,97
825,80	1265,64
825,97	1175,53
826,14	1249,26
826,31	1253,36
826,48	1226,73
826,66	1236,97
826,83	1232,88
827,00	1253,36
827,17	1298,41
827,34	1200,11
827,51	1277,93
827,69	1331,18
827,86	1304,56
828,03	1202,16
828,20	1310,70
828,37	1230,83
828,54	1370,09
828,71	1267,69
828,89	1273,84
829,06	1273,84
829,23	1236,97
829,40	1292,27
829,57	1224,69
829,74	1284,08
829,91	1329,13
830,09	1259,50
830,26	1236,97
830,43	1255,40
830,60	1279,98
830,77	1269,74
830,94	1255,40
831,11	1206,25
831,28	1253,36
831,46	1232,88
831,63	1204,21
831,80	1275,88
831,97	1296,36
832,14	1255,40
832,31	1275,88
832,48	1187,82
832,65	1306,60
832,82	1271,79
832,99	1282,03
833,17	1261,55
833,34	1261,55
833,51	1322,99
833,68	1300,46
833,85	1279,98
834,02	1273,84
834,19	1200,11
834,36	1300,46
834,53	1292,27
834,70	1265,64
834,87	1314,80
835,04	1232,88
835,22	1239,02
835,39	1161,20
835,56	1212,40
835,73	1398,76
835,90	1259,50
836,07	1294,32
836,24	1288,17
836,41	1312,75
836,58	1290,22
836,75	1318,89
836,92	1226,73
837,09	1255,40
837,26	1269,74
837,43	1329,13
837,60	1196,01
837,77	1212,40
837,94	1294,32
838,12	1232,88
838,29	1255,40
838,46	1239,02
838,63	1245,16
838,80	1239,02
838,97	1341,42
839,14	1296,36
839,31	1245,16
839,48	1255,40
839,65	1263,60
839,82	1325,04
839,99	1241,07
840,16	1312,75
840,33	1253,36
840,50	1308,65
840,67	1304,56
840,84	1218,54
841,01	1271,79
841,18	1257,45
841,35	1185,77
841,52	1282,03
841,69	1269,74
841,86	1318,89
842,03	1282,03
842,20	1294,32
842,37	1290,22
842,54	1261,55
842,71	1279,98
842,88	1308,65
843,05	1224,69
843,22	1273,84
843,39	1198,06
843,56	1263,60
843,73	1286,12
843,90	1243,12
844,07	1241,07
844,24	1220,59
844,41	1312,75
844,58	1224,69
844,75	1267,69
844,92	1261,55
845,09	1241,07
845,26	1263,60
845,43	1261,55
845,60	1296,36
845,77	1275,88
845,94	1263,60
846,10	1224,69
846,27	1292,27
846,44	1316,84
846,61	1314,80
846,78	1265,64
846,95	1275,88
847,12	1236,97
847,29	1271,79
847,46	1318,89
847,63	1296,36
847,80	1251,31
847,97	1222,64
848,14	1314,80
848,31	1265,64
848,48	1232,88
848,65	1294,32
848,82	1273,84
848,98	1257,45
849,15	1236,97
849,32	1282,03
849,49	1269,74
849,66	1204,21
849,83	1241,07
850,00	1232,88
850,17	1196,01
850,34	1261,55
850,51	1298,41
850,68	1150,96
850,85	1329,13
851,01	1241,07
851,18	1239,02
851,35	1222,64
851,52	1247,21
851,69	1318,89
851,86	1333,23
852,03	1292,27
852,20	1284,08
852,37	1269,74
852,53	1290,22
852,70	1331,18
852,87	1267,69
853,04	1189,87
853,21	1275,88
853,38	1282,03
853,55	1226,73
853,72	1288,17
853,89	1277,93
854,05	1306,60
854,22	1257,45
854,39	1222,64
854,56	1214,45
854,73	1337,32
854,90	1230,83
855,07	1279,98
855,23	1249,26
855,40	1271,79
855,57	1253,36
855,74	1228,78
855,91	1247,21
856,08	1335,28
856,25	1271,79
856,41	1261,55
856,58	1232,88
856,75	1259,50
856,92	1263,60
857,09	1236,97
857,26	1224,69
857,42	1216,49
857,59	1265,64
857,76	1292,27
857,93	1236,97
858,10	1183,73
858,27	1236,97
858,43	1316,84
858,60	1284,08
858,77	1267,69
858,94	1253,36
859,11	1259,50
859,27	1279,98
859,44	1294,32
859,61	1304,56
859,78	1265,64
859,95	1282,03
860,12	1230,83
860,28	1222,64
860,45	1261,55
860,62	1216,49
860,79	1300,46
860,95	1269,74
861,12	1265,64
861,29	1259,50
861,46	1298,41
861,63	1245,16
861,79	1316,84
861,96	1259,50
862,13	1247,21
862,30	1185,77
862,47	1261,55
862,63	1290,22
862,80	1265,64
862,97	1251,31
863,14	1279,98
863,30	1253,36
863,47	1312,75
863,64	1259,50
863,81	1267,69
863,97	1247,21
864,14	1331,18
864,31	1312,75
864,48	1200,11
864,65	1359,85
864,81	1259,50
864,98	1279,98
865,15	1292,27
865,32	1302,51
865,48	1308,65
865,65	1263,60
865,82	1159,15
865,98	1226,73
866,15	1230,83
866,32	1265,64
866,49	1261,55
866,65	1263,60
866,82	1257,45
866,99	1218,54
867,16	1247,21
867,32	1263,60
867,49	1288,17
867,66	1265,64
867,83	1286,12
867,99	1263,60
868,16	1273,84
868,33	1314,80
868,49	1226,73
868,66	1247,21
868,83	1247,21
868,99	1298,41
869,16	1304,56
869,33	1292,27
869,50	1253,36
869,66	1265,64
869,83	1234,93
870,00	1245,16
870,16	1265,64
870,33	1210,35
870,50	1239,02
870,66	1292,27
870,83	1359,85
871,00	1290,22
871,17	1206,25
871,33	1263,60
871,50	1245,16
871,67	1275,88
871,83	1271,79
872,00	1273,84
872,17	1273,84
872,33	1253,36
872,50	1245,16
872,67	1206,25
872,83	1314,80
873,00	1239,02
873,17	1298,41
873,33	1257,45
873,50	1277,93
873,67	1277,93
873,83	1198,06
874,00	1236,97
874,16	1269,74
874,33	1247,21
874,50	1249,26
874,66	1265,64
874,83	1251,31
875,00	1263,60
875,16	1243,12
875,33	1347,56
875,50	1271,79
875,66	1279,98
875,83	1284,08
875,99	1255,40
876,16	1263,60
876,33	1286,12
876,49	1263,60
876,66	1273,84
876,83	1277,93
876,99	1218,54
877,16	1224,69
877,32	1245,16
877,49	1255,40
877,66	1234,93
877,82	1267,69
877,99	1286,12
878,15	1249,26
878,32	1275,88
878,49	1296,36
878,65	1249,26
878,82	1318,89
878,98	1314,80
879,15	1226,73
879,32	1300,46
879,48	1279,98
879,65	1263,60
879,81	1296,36
879,98	1226,73
880,15	1245,16
880,31	1183,73
880,48	1243,12
880,64	1269,74
880,81	1239,02
880,97	1261,55
881,14	1273,84
881,31	1259,50
881,47	1239,02
881,64	1337,32
881,80	1257,45
881,97	1263,60
882,13	1273,84
882,30	1249,26
882,47	1292,27
882,63	1290,22
882,80	1304,56
882,96	1269,74
883,13	1275,88
883,29	1263,60
883,46	1249,26
883,62	1273,84
883,79	1329,13
883,95	1214,45
884,12	1249,26
884,29	1222,64
884,45	1290,22
884,62	1294,32
884,78	1271,79
884,95	1318,89
885,11	1265,64
885,28	1282,03
885,44	1363,95
885,61	1290,22
885,77	1284,08
885,94	1247,21
886,10	1241,07
886,27	1243,12
886,43	1288,17
886,60	1318,89
886,76	1288,17
886,93	1232,88
887,09	1273,84
887,26	1247,21
887,42	1220,59
887,59	1277,93
887,75	1253,36
887,92	1234,93
888,08	1300,46
888,25	1320,94
888,41	1236,97
888,58	1253,36
888,74	1241,07
888,91	1214,45
>>>>>End Processed Spectral Data<<<<<
