SpectraSuite Data File
++++++++++++++++++++++++++++++++++++
Date: Sun Apr 03 15:05:04 CEST 2016
User: root
Dark Spectrum Present: No
Reference Spectrum Present: No
Number of Sampled Component Spectra: 1
Spectrometers: USB4C02835
Integration Time (usec): 10000 (USB4C02835)
Spectra Averaged: 1 (USB4C02835)
Boxcar Smoothing: 0 (USB4C02835)
Correct for Electrical Dark: No (USB4C02835)
Strobe/Lamp Enabled: No (USB4C02835)
Correct for Detector Non-linearity: No (USB4C02835)
Correct for Stray Light: No (USB4C02835)
Number of Pixels in Processed Spectrum: 3648
>>>>>Begin Processed Spectral Data<<<<<
177,47	1245,16
177,69	1245,16
177,91	1245,16
178,13	1228,78
178,36	1249,26
178,58	1294,32
178,80	1239,02
179,02	1306,60
179,24	1255,40
179,46	1245,16
179,68	1245,16
179,90	1277,93
180,13	1249,26
180,35	1257,45
180,57	1230,83
180,79	1302,51
181,01	1267,69
181,23	1185,77
181,45	1347,56
181,67	1251,31
181,90	1277,93
182,12	1241,07
182,34	1249,26
182,56	1216,49
182,78	1239,02
183,00	1239,02
183,22	1290,22
183,44	1312,75
183,66	1239,02
183,89	1298,41
184,11	1259,50
184,33	1279,98
184,55	1257,45
184,77	1277,93
184,99	1279,98
185,21	1318,89
185,43	1251,31
185,65	1224,69
185,87	1216,49
186,10	1302,51
186,32	1267,69
186,54	1216,49
186,76	1245,16
186,98	1259,50
187,20	1269,74
187,42	1284,08
187,64	1232,88
187,86	1204,21
188,08	1306,60
188,30	1243,12
188,52	1314,80
188,75	1361,90
188,97	1216,49
189,19	1232,88
189,41	1271,79
189,63	1249,26
189,85	1247,21
190,07	1247,21
190,29	1228,78
190,51	1300,46
190,73	1282,03
190,95	1298,41
191,17	1279,98
191,39	1253,36
191,61	1224,69
191,84	1259,50
192,06	1251,31
192,28	1275,88
192,50	1265,64
192,72	1300,46
192,94	1284,08
193,16	1265,64
193,38	1263,60
193,60	1247,21
193,82	1257,45
194,04	1232,88
194,26	1261,55
194,48	1294,32
194,70	1341,42
194,92	1234,93
195,14	1273,84
195,36	1249,26
195,58	1208,30
195,80	1261,55
196,02	1265,64
196,24	1265,64
196,46	1241,07
196,69	1279,98
196,91	1279,98
197,13	1210,35
197,35	1224,69
197,57	1191,92
197,79	1331,18
198,01	1322,99
198,23	1222,64
198,45	1282,03
198,67	1300,46
198,89	1288,17
199,11	1271,79
199,33	1255,40
199,55	1320,94
199,77	1275,88
199,99	1222,64
200,21	1263,60
200,43	1226,73
200,65	1177,58
200,87	1253,36
201,09	1247,21
201,31	1265,64
201,53	1216,49
201,75	1292,27
201,97	1259,50
202,19	1181,68
202,41	1212,40
202,63	1370,09
202,85	1345,52
203,07	1183,73
203,29	1325,04
203,51	1351,66
203,73	1245,16
203,95	1300,46
204,17	1208,30
204,39	1284,08
204,61	1251,31
204,83	1302,51
205,05	1222,64
205,27	1308,65
205,49	1304,56
205,71	1286,12
205,93	1310,70
206,15	1191,92
206,37	1298,41
206,59	1288,17
206,81	1282,03
207,03	1230,83
207,25	1253,36
207,47	1265,64
207,69	1249,26
207,91	1271,79
208,13	1198,06
208,34	1273,84
208,56	1339,37
208,78	1251,31
209,00	1265,64
209,22	1275,88
209,44	1216,49
209,66	1263,60
209,88	1198,06
210,10	1277,93
210,32	1255,40
210,54	1333,23
210,76	1247,21
210,98	1275,88
211,20	1300,46
211,42	1298,41
211,64	1308,65
211,86	1341,42
212,08	1279,98
212,30	1282,03
212,52	1232,88
212,74	1228,78
212,96	1286,12
213,17	1277,93
213,39	1202,16
213,61	1232,88
213,83	1368,04
214,05	1265,64
214,27	1255,40
214,49	1193,97
214,71	1302,51
214,93	1337,32
215,15	1208,30
215,37	1222,64
215,59	1204,21
215,81	1335,28
216,03	1247,21
216,24	1304,56
216,46	1310,70
216,68	1228,78
216,90	1265,64
217,12	1257,45
217,34	1243,12
217,56	1337,32
217,78	1249,26
218,00	1292,27
218,22	1243,12
218,44	1251,31
218,66	1296,36
218,87	1320,94
219,09	1253,36
219,31	1247,21
219,53	1255,40
219,75	1275,88
219,97	1230,83
220,19	1251,31
220,41	1294,32
220,63	1163,25
220,85	1275,88
221,06	1236,97
221,28	1318,89
221,50	1259,50
221,72	1282,03
221,94	1239,02
222,16	1337,32
222,38	1296,36
222,60	1210,35
222,82	1275,88
223,03	1294,32
223,25	1304,56
223,47	1234,93
223,69	1279,98
223,91	1284,08
224,13	1282,03
224,35	1304,56
224,57	1290,22
224,78	1284,08
225,00	1279,98
225,22	1329,13
225,44	1265,64
225,66	1294,32
225,88	1247,21
226,10	1282,03
226,32	1253,36
226,53	1247,21
226,75	1312,75
226,97	1210,35
227,19	1282,03
227,41	1204,21
227,63	1208,30
227,85	1198,06
228,06	1224,69
228,28	1269,74
228,50	1337,32
228,72	1277,93
228,94	1253,36
229,16	1214,45
229,37	1251,31
229,59	1269,74
229,81	1251,31
230,03	1226,73
230,25	1329,13
230,47	1271,79
230,69	1308,65
230,90	1263,60
231,12	1308,65
231,34	1236,97
231,56	1304,56
231,78	1261,55
232,00	1312,75
232,21	1232,88
232,43	1243,12
232,65	1320,94
232,87	1275,88
233,09	1239,02
233,30	1308,65
233,52	1265,64
233,74	1296,36
233,96	1239,02
234,18	1265,64
234,40	1284,08
234,61	1224,69
234,83	1263,60
235,05	1193,97
235,27	1300,46
235,49	1345,52
235,70	1218,54
235,92	1247,21
236,14	1216,49
236,36	1245,16
236,58	1279,98
236,79	1251,31
237,01	1257,45
237,23	1247,21
237,45	1279,98
237,67	1259,50
237,88	1243,12
238,10	1261,55
238,32	1296,36
238,54	1259,50
238,76	1284,08
238,97	1210,35
239,19	1249,26
239,41	1329,13
239,63	1265,64
239,85	1290,22
240,06	1310,70
240,28	1312,75
240,50	1284,08
240,72	1314,80
240,93	1267,69
241,15	1236,97
241,37	1298,41
241,59	1282,03
241,81	1277,93
242,02	1271,79
242,24	1296,36
242,46	1261,55
242,68	1282,03
242,89	1316,84
243,11	1282,03
243,33	1333,23
243,55	1300,46
243,76	1222,64
243,98	1320,94
244,20	1265,64
244,42	1273,84
244,64	1288,17
244,85	1273,84
245,07	1290,22
245,29	1243,12
245,51	1257,45
245,72	1273,84
245,94	1329,13
246,16	1277,93
246,38	1279,98
246,59	1218,54
246,81	1257,45
247,03	1222,64
247,24	1267,69
247,46	1277,93
247,68	1269,74
247,90	1253,36
248,11	1249,26
248,33	1294,32
248,55	1257,45
248,77	1265,64
248,98	1282,03
249,20	1290,22
249,42	1374,19
249,64	1294,32
249,85	1296,36
250,07	1279,98
250,29	1370,09
250,50	1228,78
250,72	1267,69
250,94	1245,16
251,16	1255,40
251,37	1247,21
251,59	1243,12
251,81	1247,21
252,02	1306,60
252,24	1263,60
252,46	1245,16
252,68	1228,78
252,89	1277,93
253,11	1206,25
253,33	1247,21
253,54	1263,60
253,76	1273,84
253,98	1296,36
254,20	1230,83
254,41	1253,36
254,63	1286,12
254,85	1257,45
255,06	1314,80
255,28	1296,36
255,50	1251,31
255,71	1277,93
255,93	1279,98
256,15	1271,79
256,36	1314,80
256,58	1216,49
256,80	1226,73
257,02	1239,02
257,23	1220,59
257,45	1333,23
257,67	1273,84
257,88	1298,41
258,10	1198,06
258,32	1222,64
258,53	1224,69
258,75	1273,84
258,97	1212,40
259,18	1241,07
259,40	1261,55
259,62	1210,35
259,83	1312,75
260,05	1286,12
260,27	1259,50
260,48	1290,22
260,70	1273,84
260,92	1329,13
261,13	1208,30
261,35	1222,64
261,57	1318,89
261,78	1251,31
262,00	1290,22
262,22	1316,84
262,43	1222,64
262,65	1320,94
262,86	1212,40
263,08	1288,17
263,30	1277,93
263,51	1196,01
263,73	1228,78
263,95	1341,42
264,16	1234,93
264,38	1251,31
264,60	1273,84
264,81	1288,17
265,03	1226,73
265,25	1263,60
265,46	1339,37
265,68	1263,60
265,89	1275,88
266,11	1232,88
266,33	1341,42
266,54	1243,12
266,76	1265,64
266,98	1325,04
267,19	1304,56
267,41	1329,13
267,62	1267,69
267,84	1196,01
268,06	1253,36
268,27	1279,98
268,49	1261,55
268,70	1271,79
268,92	1245,16
269,14	1257,45
269,35	1234,93
269,57	1312,75
269,79	1232,88
270,00	1282,03
270,22	1282,03
270,43	1290,22
270,65	1277,93
270,87	1265,64
271,08	1337,32
271,30	1249,26
271,51	1271,79
271,73	1243,12
271,95	1302,51
272,16	1310,70
272,38	1296,36
272,59	1279,98
272,81	1245,16
273,02	1249,26
273,24	1294,32
273,46	1351,66
273,67	1275,88
273,89	1341,42
274,10	1261,55
274,32	1202,16
274,54	1247,21
274,75	1298,41
274,97	1277,93
275,18	1265,64
275,40	1325,04
275,61	1284,08
275,83	1298,41
276,05	1263,60
276,26	1331,18
276,48	1253,36
276,69	1265,64
276,91	1271,79
277,12	1243,12
277,34	1245,16
277,55	1259,50
277,77	1269,74
277,99	1294,32
278,20	1255,40
278,42	1267,69
278,63	1261,55
278,85	1236,97
279,06	1243,12
279,28	1236,97
279,49	1304,56
279,71	1245,16
279,93	1306,60
280,14	1198,06
280,36	1245,16
280,57	1304,56
280,79	1298,41
281,00	1271,79
281,22	1230,83
281,43	1253,36
281,65	1310,70
281,86	1277,93
282,08	1210,35
282,29	1282,03
282,51	1282,03
282,73	1275,88
282,94	1318,89
283,16	1304,56
283,37	1269,74
283,59	1298,41
283,80	1273,84
284,02	1230,83
284,23	1304,56
284,45	1241,07
284,66	1265,64
284,88	1208,30
285,09	1298,41
285,31	1261,55
285,52	1310,70
285,74	1298,41
285,95	1267,69
286,17	1228,78
286,38	1277,93
286,60	1257,45
286,81	1161,20
287,03	1284,08
287,24	1251,31
287,46	1339,37
287,67	1259,50
287,89	1271,79
288,10	1253,36
288,32	1273,84
288,53	1255,40
288,75	1251,31
288,96	1226,73
289,18	1302,51
289,39	1269,74
289,61	1269,74
289,82	1290,22
290,04	1208,30
290,25	1294,32
290,47	1243,12
290,68	1218,54
290,90	1239,02
291,11	1282,03
291,33	1302,51
291,54	1198,06
291,76	1265,64
291,97	1318,89
292,18	1290,22
292,40	1267,69
292,61	1249,26
292,83	1271,79
293,04	1267,69
293,26	1249,26
293,47	1286,12
293,69	1226,73
293,90	1298,41
294,12	1269,74
294,33	1234,93
294,55	1251,31
294,76	1255,40
294,97	1251,31
295,19	1292,27
295,40	1255,40
295,62	1269,74
295,83	1232,88
296,05	1347,56
296,26	1298,41
296,48	1218,54
296,69	1265,64
296,90	1298,41
297,12	1239,02
297,33	1261,55
297,55	1275,88
297,76	1232,88
297,98	1322,99
298,19	1282,03
298,41	1306,60
298,62	1304,56
298,83	1251,31
299,05	1314,80
299,26	1218,54
299,48	1253,36
299,69	1277,93
299,90	1247,21
300,12	1255,40
300,33	1286,12
300,55	1259,50
300,76	1335,28
300,98	1312,75
301,19	1277,93
301,40	1331,18
301,62	1257,45
301,83	1300,46
302,05	1306,60
302,26	1230,83
302,47	1386,47
302,69	1275,88
302,90	1284,08
303,12	1210,35
303,33	1200,11
303,54	1269,74
303,76	1302,51
303,97	1247,21
304,19	1224,69
304,40	1243,12
304,61	1243,12
304,83	1298,41
305,04	1202,16
305,26	1296,36
305,47	1279,98
305,68	1247,21
305,90	1267,69
306,11	1302,51
306,33	1202,16
306,54	1273,84
306,75	1273,84
306,97	1255,40
307,18	1259,50
307,39	1312,75
307,61	1257,45
307,82	1255,40
308,04	1308,65
308,25	1193,97
308,46	1300,46
308,68	1306,60
308,89	1275,88
309,10	1263,60
309,32	1308,65
309,53	1284,08
309,74	1257,45
309,96	1273,84
310,17	1284,08
310,39	1245,16
310,60	1224,69
310,81	1234,93
311,03	1261,55
311,24	1255,40
311,45	1200,11
311,67	1308,65
311,88	1228,78
312,09	1255,40
312,31	1279,98
312,52	1292,27
312,73	1247,21
312,95	1290,22
313,16	1322,99
313,37	1288,17
313,59	1292,27
313,80	1228,78
314,01	1198,06
314,23	1232,88
314,44	1282,03
314,65	1302,51
314,87	1171,44
315,08	1273,84
315,29	1318,89
315,51	1320,94
315,72	1308,65
315,93	1249,26
316,15	1273,84
316,36	1290,22
316,57	1232,88
316,79	1220,59
317,00	1290,22
317,21	1282,03
317,43	1284,08
317,64	1230,83
317,85	1241,07
318,07	1353,71
318,28	1273,84
318,49	1322,99
318,70	1216,49
318,92	1292,27
319,13	1230,83
319,34	1224,69
319,56	1333,23
319,77	1226,73
319,98	1363,95
320,20	1286,12
320,41	1243,12
320,62	1275,88
320,83	1214,45
321,05	1261,55
321,26	1247,21
321,47	1290,22
321,69	1253,36
321,90	1271,79
322,11	1316,84
322,32	1318,89
322,54	1333,23
322,75	1243,12
322,96	1339,37
323,18	1345,52
323,39	1273,84
323,60	1320,94
323,81	1245,16
324,03	1257,45
324,24	1216,49
324,45	1284,08
324,66	1277,93
324,88	1263,60
325,09	1290,22
325,30	1255,40
325,52	1296,36
325,73	1302,51
325,94	1271,79
326,15	1286,12
326,37	1345,52
326,58	1345,52
326,79	1347,56
327,00	1261,55
327,22	1310,70
327,43	1333,23
327,64	1310,70
327,85	1318,89
328,07	1282,03
328,28	1234,93
328,49	1241,07
328,70	1200,11
328,92	1265,64
329,13	1261,55
329,34	1259,50
329,55	1290,22
329,76	1253,36
329,98	1224,69
330,19	1273,84
330,40	1294,32
330,61	1212,40
330,83	1200,11
331,04	1261,55
331,25	1236,97
331,46	1312,75
331,68	1273,84
331,89	1279,98
332,10	1255,40
332,31	1361,90
332,52	1310,70
332,74	1298,41
332,95	1322,99
333,16	1308,65
333,37	1322,99
333,58	1308,65
333,80	1353,71
334,01	1224,69
334,22	1257,45
334,43	1306,60
334,64	1314,80
334,86	1185,77
335,07	1259,50
335,28	1249,26
335,49	1249,26
335,70	1284,08
335,92	1341,42
336,13	1241,07
336,34	1265,64
336,55	1232,88
336,76	1279,98
336,98	1239,02
337,19	1314,80
337,40	1286,12
337,61	1257,45
337,82	1296,36
338,04	1314,80
338,25	1236,97
338,46	1245,16
338,67	1265,64
338,88	1318,89
339,09	1255,40
339,31	1314,80
339,52	1263,60
339,73	1277,93
339,94	1304,56
340,15	1218,54
340,36	1282,03
340,58	1279,98
340,79	1327,08
341,00	1284,08
341,21	1236,97
341,42	1241,07
341,63	1232,88
341,85	1282,03
342,06	1247,21
342,27	1282,03
342,48	1243,12
342,69	1210,35
342,90	1298,41
343,12	1279,98
343,33	1236,97
343,54	1241,07
343,75	1296,36
343,96	1271,79
344,17	1322,99
344,38	1314,80
344,60	1331,18
344,81	1243,12
345,02	1355,76
345,23	1290,22
345,44	1279,98
345,65	1249,26
345,86	1239,02
346,07	1296,36
346,29	1282,03
346,50	1284,08
346,71	1232,88
346,92	1255,40
347,13	1232,88
347,34	1189,87
347,55	1263,60
347,76	1288,17
347,98	1304,56
348,19	1329,13
348,40	1288,17
348,61	1257,45
348,82	1234,93
349,03	1220,59
349,24	1298,41
349,45	1269,74
349,66	1216,49
349,88	1255,40
350,09	1320,94
350,30	1300,46
350,51	1259,50
350,72	1308,65
350,93	1232,88
351,14	1245,16
351,35	1249,26
351,56	1220,59
351,77	1255,40
351,99	1302,51
352,20	1290,22
352,41	1236,97
352,62	1312,75
352,83	1318,89
353,04	1236,97
353,25	1259,50
353,46	1257,45
353,67	1300,46
353,88	1216,49
354,09	1265,64
354,30	1286,12
354,52	1218,54
354,73	1284,08
354,94	1210,35
355,15	1241,07
355,36	1265,64
355,57	1257,45
355,78	1267,69
355,99	1284,08
356,20	1331,18
356,41	1269,74
356,62	1216,49
356,83	1314,80
357,04	1298,41
357,25	1249,26
357,46	1353,71
357,68	1279,98
357,89	1296,36
358,10	1284,08
358,31	1306,60
358,52	1198,06
358,73	1302,51
358,94	1267,69
359,15	1263,60
359,36	1300,46
359,57	1279,98
359,78	1222,64
359,99	1245,16
360,20	1288,17
360,41	1236,97
360,62	1183,73
360,83	1273,84
361,04	1304,56
361,25	1273,84
361,46	1265,64
361,67	1273,84
361,88	1241,07
362,09	1249,26
362,30	1308,65
362,51	1294,32
362,72	1236,97
362,93	1273,84
363,14	1275,88
363,35	1341,42
363,56	1249,26
363,78	1232,88
363,99	1257,45
364,20	1232,88
364,41	1239,02
364,62	1253,36
364,83	1316,84
365,04	1239,02
365,25	1261,55
365,46	1247,21
365,67	1325,04
365,88	1320,94
366,09	1290,22
366,30	1273,84
366,51	1251,31
366,72	1247,21
366,93	1300,46
367,14	1234,93
367,35	1277,93
367,56	1249,26
367,77	1271,79
367,98	1300,46
368,18	1363,95
368,39	1263,60
368,60	1239,02
368,81	1232,88
369,02	1296,36
369,23	1286,12
369,44	1226,73
369,65	1292,27
369,86	1286,12
370,07	1183,73
370,28	1230,83
370,49	1294,32
370,70	1333,23
370,91	1308,65
371,12	1284,08
371,33	1277,93
371,54	1230,83
371,75	1306,60
371,96	1279,98
372,17	1320,94
372,38	1292,27
372,59	1245,16
372,80	1294,32
373,01	1239,02
373,22	1325,04
373,43	1224,69
373,64	1255,40
373,85	1296,36
374,06	1345,52
374,26	1259,50
374,47	1234,93
374,68	1230,83
374,89	1310,70
375,10	1312,75
375,31	1286,12
375,52	1284,08
375,73	1257,45
375,94	1228,78
376,15	1337,32
376,36	1284,08
376,57	1279,98
376,78	1202,16
376,99	1222,64
377,20	1300,46
377,40	1271,79
377,61	1302,51
377,82	1288,17
378,03	1259,50
378,24	1288,17
378,45	1282,03
378,66	1259,50
378,87	1312,75
379,08	1224,69
379,29	1292,27
379,50	1247,21
379,71	1277,93
379,91	1296,36
380,12	1245,16
380,33	1236,97
380,54	1351,66
380,75	1255,40
380,96	1312,75
381,17	1220,59
381,38	1269,74
381,59	1308,65
381,80	1253,36
382,00	1273,84
382,21	1245,16
382,42	1275,88
382,63	1314,80
382,84	1271,79
383,05	1265,64
383,26	1298,41
383,47	1294,32
383,68	1247,21
383,88	1296,36
384,09	1294,32
384,30	1232,88
384,51	1202,16
384,72	1210,35
384,93	1271,79
385,14	1239,02
385,35	1282,03
385,55	1310,70
385,76	1347,56
385,97	1294,32
386,18	1320,94
386,39	1263,60
386,60	1257,45
386,81	1286,12
387,02	1251,31
387,22	1318,89
387,43	1314,80
387,64	1320,94
387,85	1290,22
388,06	1286,12
388,27	1312,75
388,48	1320,94
388,68	1241,07
388,89	1318,89
389,10	1255,40
389,31	1290,22
389,52	1255,40
389,73	1245,16
389,93	1275,88
390,14	1239,02
390,35	1214,45
390,56	1320,94
390,77	1277,93
390,98	1284,08
391,18	1216,49
391,39	1271,79
391,60	1271,79
391,81	1339,37
392,02	1282,03
392,23	1363,95
392,43	1241,07
392,64	1316,84
392,85	1232,88
393,06	1271,79
393,27	1196,01
393,47	1290,22
393,68	1275,88
393,89	1349,61
394,10	1210,35
394,31	1316,84
394,52	1247,21
394,72	1322,99
394,93	1298,41
395,14	1257,45
395,35	1255,40
395,56	1249,26
395,76	1236,97
395,97	1306,60
396,18	1298,41
396,39	1218,54
396,60	1279,98
396,80	1230,83
397,01	1269,74
397,22	1284,08
397,43	1304,56
397,64	1296,36
397,84	1290,22
398,05	1329,13
398,26	1249,26
398,47	1282,03
398,67	1261,55
398,88	1282,03
399,09	1271,79
399,30	1269,74
399,51	1284,08
399,71	1277,93
399,92	1241,07
400,13	1249,26
400,34	1267,69
400,54	1331,18
400,75	1255,40
400,96	1347,56
401,17	1263,60
401,37	1269,74
401,58	1265,64
401,79	1335,28
402,00	1333,23
402,21	1251,31
402,41	1322,99
402,62	1376,24
402,83	1288,17
403,04	1322,99
403,24	1189,87
403,45	1228,78
403,66	1327,08
403,87	1339,37
404,07	1249,26
404,28	1282,03
404,49	1265,64
404,70	1265,64
404,90	1292,27
405,11	1271,79
405,32	1204,21
405,52	1335,28
405,73	1267,69
405,94	1253,36
406,15	1265,64
406,35	1271,79
406,56	1296,36
406,77	1284,08
406,98	1204,21
407,18	1253,36
407,39	1327,08
407,60	1275,88
407,80	1288,17
408,01	1253,36
408,22	1263,60
408,43	1298,41
408,63	1263,60
408,84	1253,36
409,05	1279,98
409,25	1243,12
409,46	1265,64
409,67	1290,22
409,88	1327,08
410,08	1282,03
410,29	1331,18
410,50	1296,36
410,70	1232,88
410,91	1243,12
411,12	1265,64
411,32	1267,69
411,53	1286,12
411,74	1308,65
411,95	1304,56
412,15	1271,79
412,36	1353,71
412,57	1296,36
412,77	1322,99
412,98	1306,60
413,19	1314,80
413,39	1273,84
413,60	1247,21
413,81	1261,55
414,01	1226,73
414,22	1247,21
414,43	1327,08
414,63	1232,88
414,84	1353,71
415,05	1175,53
415,25	1306,60
415,46	1318,89
415,67	1253,36
415,87	1341,42
416,08	1277,93
416,29	1292,27
416,49	1279,98
416,70	1216,49
416,91	1312,75
417,11	1261,55
417,32	1279,98
417,53	1306,60
417,73	1282,03
417,94	1253,36
418,15	1300,46
418,35	1218,54
418,56	1298,41
418,77	1243,12
418,97	1251,31
419,18	1296,36
419,38	1236,97
419,59	1239,02
419,80	1236,97
420,00	1257,45
420,21	1322,99
420,42	1325,04
420,62	1259,50
420,83	1220,59
421,04	1312,75
421,24	1257,45
421,45	1251,31
421,65	1273,84
421,86	1318,89
422,07	1255,40
422,27	1269,74
422,48	1204,21
422,69	1306,60
422,89	1210,35
423,10	1257,45
423,30	1239,02
423,51	1261,55
423,72	1325,04
423,92	1298,41
424,13	1245,16
424,33	1210,35
424,54	1196,01
424,75	1255,40
424,95	1232,88
425,16	1296,36
425,36	1300,46
425,57	1277,93
425,78	1212,40
425,98	1245,16
426,19	1290,22
426,39	1249,26
426,60	1357,80
426,81	1294,32
427,01	1220,59
427,22	1279,98
427,42	1331,18
427,63	1263,60
427,83	1267,69
428,04	1288,17
428,25	1255,40
428,45	1284,08
428,66	1290,22
428,86	1279,98
429,07	1339,37
429,28	1249,26
429,48	1290,22
429,69	1314,80
429,89	1288,17
430,10	1200,11
430,30	1269,74
430,51	1304,56
430,71	1259,50
430,92	1261,55
431,13	1294,32
431,33	1318,89
431,54	1292,27
431,74	1314,80
431,95	1212,40
432,15	1245,16
432,36	1331,18
432,56	1208,30
432,77	1261,55
432,98	1304,56
433,18	1318,89
433,39	1230,83
433,59	1275,88
433,80	1341,42
434,00	1300,46
434,21	1288,17
434,41	1302,51
434,62	1273,84
434,82	1222,64
435,03	1265,64
435,23	1249,26
435,44	1273,84
435,64	1320,94
435,85	1294,32
436,06	1279,98
436,26	1255,40
436,47	1239,02
436,67	1216,49
436,88	1310,70
437,08	1335,28
437,29	1269,74
437,49	1312,75
437,70	1290,22
437,90	1318,89
438,11	1304,56
438,31	1279,98
438,52	1277,93
438,72	1279,98
438,93	1257,45
439,13	1345,52
439,34	1232,88
439,54	1200,11
439,75	1273,84
439,95	1308,65
440,16	1294,32
440,36	1259,50
440,57	1290,22
440,77	1275,88
440,98	1243,12
441,18	1214,45
441,39	1257,45
441,59	1333,23
441,80	1245,16
442,00	1277,93
442,21	1318,89
442,41	1267,69
442,62	1304,56
442,82	1257,45
443,02	1232,88
443,23	1337,32
443,43	1220,59
443,64	1265,64
443,84	1282,03
444,05	1269,74
444,25	1189,87
444,46	1306,60
444,66	1284,08
444,87	1320,94
445,07	1298,41
445,28	1251,31
445,48	1245,16
445,69	1302,51
445,89	1243,12
446,09	1308,65
446,30	1337,32
446,50	1294,32
446,71	1277,93
446,91	1273,84
447,12	1253,36
447,32	1370,09
447,53	1214,45
447,73	1228,78
447,93	1286,12
448,14	1198,06
448,34	1286,12
448,55	1279,98
448,75	1314,80
448,96	1241,07
449,16	1214,45
449,36	1304,56
449,57	1251,31
449,77	1245,16
449,98	1286,12
450,18	1292,27
450,39	1320,94
450,59	1243,12
450,79	1269,74
451,00	1255,40
451,20	1296,36
451,41	1259,50
451,61	1339,37
451,81	1196,01
452,02	1263,60
452,22	1224,69
452,43	1296,36
452,63	1206,25
452,84	1230,83
453,04	1232,88
453,24	1191,92
453,45	1282,03
453,65	1257,45
453,86	1249,26
454,06	1288,17
454,26	1277,93
454,47	1267,69
454,67	1290,22
454,87	1243,12
455,08	1282,03
455,28	1300,46
455,49	1273,84
455,69	1284,08
455,89	1335,28
456,10	1351,66
456,30	1271,79
456,51	1130,48
456,71	1267,69
456,91	1271,79
457,12	1288,17
457,32	1181,68
457,52	1261,55
457,73	1279,98
457,93	1224,69
458,14	1255,40
458,34	1302,51
458,54	1226,73
458,75	1232,88
458,95	1290,22
459,15	1255,40
459,36	1259,50
459,56	1294,32
459,76	1232,88
459,97	1282,03
460,17	1226,73
460,37	1226,73
460,58	1288,17
460,78	1343,47
460,99	1193,97
461,19	1241,07
461,39	1243,12
461,60	1273,84
461,80	1212,40
462,00	1239,02
462,21	1232,88
462,41	1241,07
462,61	1265,64
462,82	1335,28
463,02	1220,59
463,22	1322,99
463,43	1282,03
463,63	1277,93
463,83	1329,13
464,04	1288,17
464,24	1284,08
464,44	1257,45
464,64	1261,55
464,85	1290,22
465,05	1265,64
465,25	1351,66
465,46	1288,17
465,66	1288,17
465,86	1269,74
466,07	1198,06
466,27	1210,35
466,47	1243,12
466,68	1329,13
466,88	1306,60
467,08	1282,03
467,29	1294,32
467,49	1271,79
467,69	1226,73
467,89	1269,74
468,10	1298,41
468,30	1269,74
468,50	1288,17
468,71	1234,93
468,91	1275,88
469,11	1255,40
469,31	1333,23
469,52	1279,98
469,72	1327,08
469,92	1288,17
470,13	1331,18
470,33	1228,78
470,53	1220,59
470,73	1288,17
470,94	1290,22
471,14	1251,31
471,34	1257,45
471,54	1419,24
471,75	1329,13
471,95	1255,40
472,15	1298,41
472,36	1282,03
472,56	1257,45
472,76	1300,46
472,96	1273,84
473,17	1222,64
473,37	1273,84
473,57	1247,21
473,77	1269,74
473,98	1257,45
474,18	1224,69
474,38	1234,93
474,58	1275,88
474,79	1218,54
474,99	1282,03
475,19	1306,60
475,39	1210,35
475,60	1273,84
475,80	1314,80
476,00	1273,84
476,20	1310,70
476,41	1251,31
476,61	1347,56
476,81	1265,64
477,01	1304,56
477,21	1241,07
477,42	1259,50
477,62	1218,54
477,82	1198,06
478,02	1245,16
478,23	1296,36
478,43	1251,31
478,63	1259,50
478,83	1261,55
479,03	1232,88
479,24	1271,79
479,44	1226,73
479,64	1277,93
479,84	1265,64
480,04	1255,40
480,25	1288,17
480,45	1265,64
480,65	1298,41
480,85	1333,23
481,06	1249,26
481,26	1282,03
481,46	1249,26
481,66	1212,40
481,86	1173,49
482,06	1234,93
482,27	1271,79
482,47	1257,45
482,67	1257,45
482,87	1245,16
483,07	1288,17
483,28	1204,21
483,48	1265,64
483,68	1290,22
483,88	1304,56
484,08	1251,31
484,29	1236,97
484,49	1251,31
484,69	1265,64
484,89	1288,17
485,09	1255,40
485,29	1200,11
485,50	1282,03
485,70	1290,22
485,90	1279,98
486,10	1255,40
486,30	1255,40
486,50	1267,69
486,71	1335,28
486,91	1282,03
487,11	1277,93
487,31	1259,50
487,51	1296,36
487,71	1286,12
487,91	1286,12
488,12	1284,08
488,32	1286,12
488,52	1314,80
488,72	1282,03
488,92	1282,03
489,12	1224,69
489,32	1271,79
489,53	1314,80
489,73	1316,84
489,93	1286,12
490,13	1222,64
490,33	1255,40
490,53	1202,16
490,73	1312,75
490,94	1288,17
491,14	1337,32
491,34	1304,56
491,54	1261,55
491,74	1304,56
491,94	1275,88
492,14	1271,79
492,34	1255,40
492,54	1189,87
492,75	1288,17
492,95	1310,70
493,15	1337,32
493,35	1349,61
493,55	1300,46
493,75	1269,74
493,95	1216,49
494,15	1255,40
494,35	1212,40
494,56	1232,88
494,76	1265,64
494,96	1296,36
495,16	1277,93
495,36	1355,76
495,56	1290,22
495,76	1208,30
495,96	1177,58
496,16	1286,12
496,36	1210,35
496,56	1255,40
496,77	1302,51
496,97	1298,41
497,17	1259,50
497,37	1267,69
497,57	1288,17
497,77	1275,88
497,97	1253,36
498,17	1187,82
498,37	1320,94
498,57	1224,69
498,77	1312,75
498,97	1271,79
499,17	1300,46
499,38	1284,08
499,58	1277,93
499,78	1239,02
499,98	1275,88
500,18	1288,17
500,38	1292,27
500,58	1267,69
500,78	1279,98
500,98	1271,79
501,18	1253,36
501,38	1296,36
501,58	1230,83
501,78	1298,41
501,98	1339,37
502,18	1284,08
502,38	1232,88
502,58	1165,29
502,78	1243,12
502,98	1294,32
503,18	1259,50
503,38	1300,46
503,59	1327,08
503,79	1251,31
503,99	1327,08
504,19	1257,45
504,39	1314,80
504,59	1226,73
504,79	1339,37
504,99	1284,08
505,19	1232,88
505,39	1263,60
505,59	1292,27
505,79	1308,65
505,99	1265,64
506,19	1253,36
506,39	1271,79
506,59	1267,69
506,79	1261,55
506,99	1335,28
507,19	1265,64
507,39	1298,41
507,59	1298,41
507,79	1351,66
507,99	1255,40
508,19	1308,65
508,39	1288,17
508,59	1277,93
508,79	1243,12
508,99	1259,50
509,19	1325,04
509,39	1292,27
509,59	1249,26
509,79	1196,01
509,99	1290,22
510,19	1335,28
510,39	1193,97
510,59	1200,11
510,79	1234,93
510,99	1257,45
511,19	1269,74
511,39	1286,12
511,59	1267,69
511,79	1282,03
511,99	1253,36
512,19	1273,84
512,38	1327,08
512,58	1245,16
512,78	1310,70
512,98	1372,14
513,18	1275,88
513,38	1255,40
513,58	1290,22
513,78	1282,03
513,98	1292,27
514,18	1275,88
514,38	1273,84
514,58	1249,26
514,78	1290,22
514,98	1271,79
515,18	1267,69
515,38	1298,41
515,58	1257,45
515,78	1245,16
515,98	1193,97
516,18	1253,36
516,38	1288,17
516,57	1216,49
516,77	1282,03
516,97	1247,21
517,17	1282,03
517,37	1296,36
517,57	1210,35
517,77	1300,46
517,97	1292,27
518,17	1253,36
518,37	1263,60
518,57	1298,41
518,77	1304,56
518,97	1255,40
519,16	1245,16
519,36	1271,79
519,56	1269,74
519,76	1226,73
519,96	1261,55
520,16	1288,17
520,36	1288,17
520,56	1255,40
520,76	1269,74
520,96	1241,07
521,16	1275,88
521,35	1236,97
521,55	1318,89
521,75	1271,79
521,95	1218,54
522,15	1310,70
522,35	1275,88
522,55	1265,64
522,75	1273,84
522,95	1220,59
523,14	1243,12
523,34	1218,54
523,54	1298,41
523,74	1249,26
523,94	1284,08
524,14	1263,60
524,34	1263,60
524,54	1239,02
524,73	1255,40
524,93	1300,46
525,13	1337,32
525,33	1249,26
525,53	1259,50
525,73	1298,41
525,93	1353,71
526,13	1290,22
526,32	1351,66
526,52	1273,84
526,72	1261,55
526,92	1239,02
527,12	1239,02
527,32	1265,64
527,52	1294,32
527,71	1284,08
527,91	1236,97
528,11	1351,66
528,31	1251,31
528,51	1273,84
528,71	1247,21
528,90	1286,12
529,10	1226,73
529,30	1236,97
529,50	1279,98
529,70	1290,22
529,90	1374,19
530,09	1329,13
530,29	1247,21
530,49	1296,36
530,69	1255,40
530,89	1232,88
531,09	1265,64
531,28	1341,42
531,48	1253,36
531,68	1249,26
531,88	1286,12
532,08	1259,50
532,28	1161,20
532,47	1253,36
532,67	1247,21
532,87	1208,30
533,07	1286,12
533,27	1294,32
533,46	1259,50
533,66	1232,88
533,86	1277,93
534,06	1218,54
534,26	1314,80
534,45	1284,08
534,65	1288,17
534,85	1218,54
535,05	1245,16
535,25	1247,21
535,44	1243,12
535,64	1329,13
535,84	1294,32
536,04	1279,98
536,24	1290,22
536,43	1249,26
536,63	1241,07
536,83	1187,82
537,03	1290,22
537,22	1241,07
537,42	1267,69
537,62	1312,75
537,82	1279,98
538,02	1325,04
538,21	1296,36
538,41	1312,75
538,61	1228,78
538,81	1300,46
539,00	1290,22
539,20	1286,12
539,40	1212,40
539,60	1298,41
539,79	1277,93
539,99	1279,98
540,19	1267,69
540,39	1275,88
540,58	1228,78
540,78	1296,36
540,98	1288,17
541,18	1230,83
541,37	1288,17
541,57	1273,84
541,77	1198,06
541,97	1261,55
542,16	1249,26
542,36	1243,12
542,56	1279,98
542,76	1304,56
542,95	1337,32
543,15	1232,88
543,35	1331,18
543,54	1245,16
543,74	1325,04
543,94	1298,41
544,14	1224,69
544,33	1353,71
544,53	1322,99
544,73	1298,41
544,93	1290,22
545,12	1249,26
545,32	1304,56
545,52	1261,55
545,71	1243,12
545,91	1259,50
546,11	1288,17
546,30	1259,50
546,50	1306,60
546,70	1318,89
546,90	1337,32
547,09	1245,16
547,29	1267,69
547,49	1206,25
547,68	1298,41
547,88	1290,22
548,08	1230,83
548,27	1294,32
548,47	1304,56
548,67	1345,52
548,87	1286,12
549,06	1247,21
549,26	1265,64
549,46	1208,30
549,65	1253,36
549,85	1316,84
550,05	1282,03
550,24	1249,26
550,44	1267,69
550,64	1269,74
550,83	1304,56
551,03	1224,69
551,23	1263,60
551,42	1318,89
551,62	1234,93
551,82	1302,51
552,01	1236,97
552,21	1218,54
552,41	1261,55
552,60	1234,93
552,80	1310,70
553,00	1247,21
553,19	1273,84
553,39	1277,93
553,59	1265,64
553,78	1271,79
553,98	1263,60
554,17	1253,36
554,37	1349,61
554,57	1316,84
554,76	1136,62
554,96	1329,13
555,16	1304,56
555,35	1284,08
555,55	1318,89
555,75	1304,56
555,94	1306,60
556,14	1294,32
556,33	1333,23
556,53	1302,51
556,73	1243,12
556,92	1302,51
557,12	1253,36
557,32	1236,97
557,51	1304,56
557,71	1327,08
557,90	1300,46
558,10	1304,56
558,30	1253,36
558,49	1304,56
558,69	1292,27
558,88	1253,36
559,08	1273,84
559,28	1286,12
559,47	1226,73
559,67	1249,26
559,86	1296,36
560,06	1290,22
560,26	1226,73
560,45	1277,93
560,65	1343,47
560,84	1290,22
561,04	1269,74
561,24	1267,69
561,43	1224,69
561,63	1251,31
561,82	1261,55
562,02	1263,60
562,22	1204,21
562,41	1279,98
562,61	1275,88
562,80	1316,84
563,00	1267,69
563,19	1236,97
563,39	1300,46
563,59	1271,79
563,78	1380,33
563,98	1245,16
564,17	1341,42
564,37	1259,50
564,56	1298,41
564,76	1273,84
564,96	1320,94
565,15	1347,56
565,35	1271,79
565,54	1257,45
565,74	1345,52
565,93	1220,59
566,13	1249,26
566,32	1218,54
566,52	1216,49
566,71	1222,64
566,91	1310,70
567,11	1228,78
567,30	1347,56
567,50	1271,79
567,69	1275,88
567,89	1220,59
568,08	1351,66
568,28	1314,80
568,47	1257,45
568,67	1296,36
568,86	1322,99
569,06	1306,60
569,25	1239,02
569,45	1322,99
569,64	1288,17
569,84	1271,79
570,04	1228,78
570,23	1300,46
570,43	1253,36
570,62	1277,93
570,82	1265,64
571,01	1218,54
571,21	1269,74
571,40	1222,64
571,60	1282,03
571,79	1259,50
571,99	1247,21
572,18	1234,93
572,38	1306,60
572,57	1216,49
572,77	1247,21
572,96	1265,64
573,16	1191,92
573,35	1232,88
573,55	1249,26
573,74	1286,12
573,94	1265,64
574,13	1320,94
574,33	1265,64
574,52	1302,51
574,71	1310,70
574,91	1284,08
575,10	1331,18
575,30	1284,08
575,49	1236,97
575,69	1249,26
575,88	1277,93
576,08	1245,16
576,27	1251,31
576,47	1302,51
576,66	1263,60
576,86	1220,59
577,05	1318,89
577,25	1239,02
577,44	1228,78
577,64	1290,22
577,83	1198,06
578,02	1243,12
578,22	1314,80
578,41	1341,42
578,61	1247,21
578,80	1212,40
579,00	1304,56
579,19	1286,12
579,39	1380,33
579,58	1243,12
579,77	1296,36
579,97	1224,69
580,16	1234,93
580,36	1234,93
580,55	1318,89
580,75	1251,31
580,94	1277,93
581,13	1220,59
581,33	1214,45
581,52	1247,21
581,72	1263,60
581,91	1257,45
582,11	1228,78
582,30	1302,51
582,49	1298,41
582,69	1314,80
582,88	1257,45
583,08	1257,45
583,27	1304,56
583,47	1337,32
583,66	1245,16
583,85	1275,88
584,05	1214,45
584,24	1333,23
584,44	1212,40
584,63	1286,12
584,82	1239,02
585,02	1294,32
585,21	1355,76
585,41	1263,60
585,60	1243,12
585,79	1249,26
585,99	1282,03
586,18	1226,73
586,37	1253,36
586,57	1208,30
586,76	1218,54
586,96	1329,13
587,15	1290,22
587,34	1314,80
587,54	1251,31
587,73	1275,88
587,93	1282,03
588,12	1236,97
588,31	1204,21
588,51	1306,60
588,70	1288,17
588,89	1288,17
589,09	1261,55
589,28	1185,77
589,47	1273,84
589,67	1304,56
589,86	1269,74
590,06	1204,21
590,25	1247,21
590,44	1222,64
590,64	1247,21
590,83	1222,64
591,02	1277,93
591,22	1279,98
591,41	1304,56
591,60	1224,69
591,80	1355,76
591,99	1316,84
592,18	1241,07
592,38	1257,45
592,57	1304,56
592,76	1267,69
592,96	1234,93
593,15	1253,36
593,34	1255,40
593,54	1259,50
593,73	1273,84
593,92	1191,92
594,12	1210,35
594,31	1245,16
594,50	1279,98
594,70	1273,84
594,89	1314,80
595,08	1247,21
595,28	1269,74
595,47	1206,25
595,66	1292,27
595,86	1271,79
596,05	1288,17
596,24	1267,69
596,43	1310,70
596,63	1271,79
596,82	1267,69
597,01	1294,32
597,21	1273,84
597,40	1322,99
597,59	1382,38
597,79	1228,78
597,98	1325,04
598,17	1253,36
598,36	1300,46
598,56	1269,74
598,75	1249,26
598,94	1245,16
599,14	1331,18
599,33	1275,88
599,52	1288,17
599,71	1279,98
599,91	1292,27
600,10	1320,94
600,29	1308,65
600,48	1277,93
600,68	1290,22
600,87	1220,59
601,06	1251,31
601,26	1298,41
601,45	1245,16
601,64	1353,71
601,83	1277,93
602,03	1261,55
602,22	1263,60
602,41	1286,12
602,60	1253,36
602,80	1327,08
602,99	1300,46
603,18	1251,31
603,37	1249,26
603,57	1296,36
603,76	1282,03
603,95	1267,69
604,14	1269,74
604,34	1269,74
604,53	1282,03
604,72	1329,13
604,91	1284,08
605,10	1208,30
605,30	1304,56
605,49	1284,08
605,68	1269,74
605,87	1282,03
606,07	1265,64
606,26	1269,74
606,45	1261,55
606,64	1320,94
606,84	1320,94
607,03	1277,93
607,22	1288,17
607,41	1236,97
607,60	1298,41
607,80	1286,12
607,99	1271,79
608,18	1253,36
608,37	1331,18
608,56	1298,41
608,76	1308,65
608,95	1306,60
609,14	1320,94
609,33	1251,31
609,52	1265,64
609,72	1271,79
609,91	1241,07
610,10	1292,27
610,29	1298,41
610,48	1337,32
610,68	1232,88
610,87	1228,78
611,06	1306,60
611,25	1159,15
611,44	1200,11
611,63	1294,32
611,83	1318,89
612,02	1304,56
612,21	1189,87
612,40	1275,88
612,59	1204,21
612,79	1296,36
612,98	1249,26
613,17	1361,90
613,36	1267,69
613,55	1241,07
613,74	1290,22
613,93	1206,25
614,13	1331,18
614,32	1308,65
614,51	1310,70
614,70	1284,08
614,89	1234,93
615,08	1257,45
615,28	1243,12
615,47	1257,45
615,66	1253,36
615,85	1380,33
616,04	1355,76
616,23	1294,32
616,42	1273,84
616,62	1292,27
616,81	1296,36
617,00	1253,36
617,19	1245,16
617,38	1189,87
617,57	1200,11
617,76	1265,64
617,95	1296,36
618,15	1247,21
618,34	1357,80
618,53	1273,84
618,72	1259,50
618,91	1261,55
619,10	1193,97
619,29	1304,56
619,48	1288,17
619,68	1292,27
619,87	1269,74
620,06	1292,27
620,25	1261,55
620,44	1247,21
620,63	1259,50
620,82	1245,16
621,01	1277,93
621,20	1269,74
621,39	1292,27
621,59	1353,71
621,78	1308,65
621,97	1249,26
622,16	1304,56
622,35	1263,60
622,54	1249,26
622,73	1249,26
622,92	1327,08
623,11	1259,50
623,30	1286,12
623,49	1265,64
623,68	1257,45
623,88	1236,97
624,07	1236,97
624,26	1247,21
624,45	1282,03
624,64	1230,83
624,83	1302,51
625,02	1284,08
625,21	1347,56
625,40	1277,93
625,59	1259,50
625,78	1214,45
625,97	1290,22
626,16	1341,42
626,35	1314,80
626,54	1308,65
626,74	1322,99
626,93	1247,21
627,12	1361,90
627,31	1310,70
627,50	1247,21
627,69	1335,28
627,88	1196,01
628,07	1300,46
628,26	1218,54
628,45	1300,46
628,64	1245,16
628,83	1294,32
629,02	1277,93
629,21	1304,56
629,40	1275,88
629,59	1247,21
629,78	1306,60
629,97	1286,12
630,16	1277,93
630,35	1198,06
630,54	1335,28
630,73	1296,36
630,92	1308,65
631,11	1267,69
631,30	1263,60
631,49	1288,17
631,68	1359,85
631,87	1337,32
632,06	1445,87
632,25	1415,15
632,44	1351,66
632,63	1384,43
632,82	1341,42
633,01	1404,91
633,20	1456,11
633,39	1503,21
633,58	1341,42
633,77	1327,08
633,96	1474,54
634,15	1521,64
634,34	1632,23
634,53	1847,27
634,72	1589,22
634,91	1427,43
635,10	1558,50
635,29	1640,42
635,48	1820,64
635,67	1763,30
635,86	1800,16
636,05	1628,14
636,24	1624,04
636,43	1546,22
636,62	1497,07
636,81	1402,86
637,00	1368,04
637,19	1368,04
637,38	1304,56
637,57	1255,40
637,76	1374,19
637,95	1279,98
638,14	1298,41
638,33	1286,12
638,52	1306,60
638,71	1236,97
638,89	1279,98
639,08	1261,55
639,27	1363,95
639,46	1263,60
639,65	1327,08
639,84	1298,41
640,03	1273,84
640,22	1320,94
640,41	1333,23
640,60	1284,08
640,79	1261,55
640,98	1218,54
641,17	1271,79
641,36	1249,26
641,55	1282,03
641,74	1302,51
641,92	1177,58
642,11	1273,84
642,30	1200,11
642,49	1308,65
642,68	1265,64
642,87	1212,40
643,06	1327,08
643,25	1249,26
643,44	1279,98
643,63	1230,83
643,82	1306,60
644,00	1296,36
644,19	1308,65
644,38	1249,26
644,57	1304,56
644,76	1269,74
644,95	1249,26
645,14	1263,60
645,33	1302,51
645,52	1298,41
645,71	1314,80
645,89	1284,08
646,08	1265,64
646,27	1249,26
646,46	1249,26
646,65	1226,73
646,84	1247,21
647,03	1275,88
647,22	1259,50
647,40	1228,78
647,59	1236,97
647,78	1196,01
647,97	1329,13
648,16	1374,19
648,35	1320,94
648,54	1304,56
648,73	1288,17
648,91	1316,84
649,10	1329,13
649,29	1267,69
649,48	1357,80
649,67	1230,83
649,86	1208,30
650,05	1320,94
650,23	1234,93
650,42	1193,97
650,61	1312,75
650,80	1218,54
650,99	1282,03
651,18	1273,84
651,36	1351,66
651,55	1267,69
651,74	1314,80
651,93	1200,11
652,12	1318,89
652,31	1306,60
652,49	1247,21
652,68	1290,22
652,87	1189,87
653,06	1310,70
653,25	1320,94
653,44	1255,40
653,62	1300,46
653,81	1214,45
654,00	1277,93
654,19	1265,64
654,38	1380,33
654,56	1288,17
654,75	1277,93
654,94	1257,45
655,13	1282,03
655,32	1255,40
655,51	1267,69
655,69	1271,79
655,88	1261,55
656,07	1294,32
656,26	1335,28
656,45	1234,93
656,63	1206,25
656,82	1277,93
657,01	1341,42
657,20	1253,36
657,38	1255,40
657,57	1220,59
657,76	1222,64
657,95	1294,32
658,14	1273,84
658,32	1267,69
658,51	1239,02
658,70	1265,64
658,89	1288,17
659,08	1302,51
659,26	1265,64
659,45	1247,21
659,64	1318,89
659,83	1263,60
660,01	1353,71
660,20	1234,93
660,39	1263,60
660,58	1265,64
660,76	1275,88
660,95	1230,83
661,14	1241,07
661,33	1275,88
661,51	1314,80
661,70	1273,84
661,89	1279,98
662,08	1300,46
662,26	1271,79
662,45	1292,27
662,64	1249,26
662,83	1259,50
663,01	1368,04
663,20	1257,45
663,39	1300,46
663,58	1282,03
663,76	1290,22
663,95	1343,47
664,14	1234,93
664,32	1284,08
664,51	1259,50
664,70	1292,27
664,89	1249,26
665,07	1228,78
665,26	1318,89
665,45	1298,41
665,64	1302,51
665,82	1275,88
666,01	1255,40
666,20	1296,36
666,38	1314,80
666,57	1236,97
666,76	1282,03
666,95	1261,55
667,13	1247,21
667,32	1331,18
667,51	1347,56
667,69	1230,83
667,88	1245,16
668,07	1277,93
668,25	1265,64
668,44	1222,64
668,63	1306,60
668,81	1208,30
669,00	1222,64
669,19	1218,54
669,38	1249,26
669,56	1286,12
669,75	1236,97
669,94	1314,80
670,12	1255,40
670,31	1277,93
670,50	1322,99
670,68	1298,41
670,87	1222,64
671,06	1310,70
671,24	1202,16
671,43	1257,45
671,62	1370,09
671,80	1243,12
671,99	1269,74
672,18	1228,78
672,36	1208,30
672,55	1249,26
672,74	1269,74
672,92	1271,79
673,11	1279,98
673,29	1269,74
673,48	1277,93
673,67	1267,69
673,85	1290,22
674,04	1204,21
674,23	1284,08
674,41	1226,73
674,60	1234,93
674,79	1196,01
674,97	1294,32
675,16	1314,80
675,34	1271,79
675,53	1318,89
675,72	1279,98
675,90	1308,65
676,09	1265,64
676,28	1200,11
676,46	1359,85
676,65	1339,37
676,83	1298,41
677,02	1290,22
677,21	1273,84
677,39	1288,17
677,58	1253,36
677,77	1245,16
677,95	1298,41
678,14	1273,84
678,32	1306,60
678,51	1329,13
678,70	1355,76
678,88	1236,97
679,07	1208,30
679,25	1380,33
679,44	1239,02
679,63	1210,35
679,81	1298,41
680,00	1275,88
680,18	1290,22
680,37	1331,18
680,55	1263,60
680,74	1220,59
680,93	1288,17
681,11	1284,08
681,30	1261,55
681,48	1261,55
681,67	1241,07
681,85	1275,88
682,04	1290,22
682,23	1265,64
682,41	1294,32
682,60	1249,26
682,78	1257,45
682,97	1222,64
683,15	1228,78
683,34	1245,16
683,53	1239,02
683,71	1273,84
683,90	1282,03
684,08	1296,36
684,27	1247,21
684,45	1236,97
684,64	1337,32
684,82	1271,79
685,01	1296,36
685,19	1191,92
685,38	1228,78
685,57	1251,31
685,75	1269,74
685,94	1249,26
686,12	1255,40
686,31	1167,34
686,49	1279,98
686,68	1214,45
686,86	1243,12
687,05	1218,54
687,23	1210,35
687,42	1263,60
687,60	1306,60
687,79	1210,35
687,97	1294,32
688,16	1275,88
688,34	1239,02
688,53	1288,17
688,71	1273,84
688,90	1245,16
689,08	1306,60
689,27	1329,13
689,45	1302,51
689,64	1226,73
689,82	1284,08
690,01	1271,79
690,19	1282,03
690,38	1208,30
690,56	1271,79
690,75	1236,97
690,93	1298,41
691,12	1220,59
691,30	1306,60
691,49	1302,51
691,67	1279,98
691,86	1306,60
692,04	1279,98
692,23	1419,24
692,41	1220,59
692,60	1239,02
692,78	1245,16
692,97	1320,94
693,15	1318,89
693,34	1310,70
693,52	1320,94
693,71	1249,26
693,89	1228,78
694,08	1234,93
694,26	1257,45
694,44	1241,07
694,63	1267,69
694,81	1181,68
695,00	1302,51
695,18	1284,08
695,37	1306,60
695,55	1261,55
695,74	1304,56
695,92	1236,97
696,10	1294,32
696,29	1271,79
696,47	1363,95
696,66	1345,52
696,84	1230,83
697,03	1290,22
697,21	1329,13
697,40	1347,56
697,58	1288,17
697,76	1300,46
697,95	1298,41
698,13	1249,26
698,32	1208,30
698,50	1255,40
698,68	1279,98
698,87	1247,21
699,05	1226,73
699,24	1279,98
699,42	1286,12
699,61	1249,26
699,79	1320,94
699,97	1294,32
700,16	1210,35
700,34	1232,88
700,53	1343,47
700,71	1294,32
700,89	1341,42
701,08	1284,08
701,26	1265,64
701,45	1255,40
701,63	1202,16
701,81	1251,31
702,00	1198,06
702,18	1255,40
702,37	1318,89
702,55	1282,03
702,73	1286,12
702,92	1251,31
703,10	1269,74
703,28	1284,08
703,47	1286,12
703,65	1253,36
703,84	1228,78
704,02	1245,16
704,20	1236,97
704,39	1269,74
704,57	1216,49
704,75	1255,40
704,94	1245,16
705,12	1263,60
705,30	1363,95
705,49	1290,22
705,67	1271,79
705,86	1226,73
706,04	1279,98
706,22	1275,88
706,41	1232,88
706,59	1255,40
706,77	1200,11
706,96	1302,51
707,14	1271,79
707,32	1210,35
707,51	1269,74
707,69	1325,04
707,87	1341,42
708,06	1247,21
708,24	1298,41
708,42	1265,64
708,61	1232,88
708,79	1304,56
708,97	1282,03
709,16	1259,50
709,34	1329,13
709,52	1261,55
709,71	1263,60
709,89	1245,16
710,07	1312,75
710,26	1161,20
710,44	1312,75
710,62	1265,64
710,80	1292,27
710,99	1308,65
711,17	1251,31
711,35	1294,32
711,54	1355,76
711,72	1230,83
711,90	1224,69
712,09	1298,41
712,27	1288,17
712,45	1277,93
712,63	1345,52
712,82	1275,88
713,00	1271,79
713,18	1247,21
713,37	1351,66
713,55	1234,93
713,73	1288,17
713,91	1275,88
714,10	1300,46
714,28	1204,21
714,46	1327,08
714,65	1277,93
714,83	1187,82
715,01	1273,84
715,19	1277,93
715,38	1234,93
715,56	1322,99
715,74	1302,51
715,92	1265,64
716,11	1288,17
716,29	1226,73
716,47	1232,88
716,65	1245,16
716,84	1275,88
717,02	1355,76
717,20	1228,78
717,38	1261,55
717,57	1298,41
717,75	1292,27
717,93	1290,22
718,11	1306,60
718,30	1331,18
718,48	1275,88
718,66	1288,17
718,84	1273,84
719,03	1251,31
719,21	1288,17
719,39	1292,27
719,57	1325,04
719,75	1314,80
719,94	1218,54
720,12	1277,93
720,30	1196,01
720,48	1261,55
720,67	1306,60
720,85	1257,45
721,03	1230,83
721,21	1290,22
721,39	1271,79
721,58	1275,88
721,76	1249,26
721,94	1239,02
722,12	1232,88
722,30	1259,50
722,49	1236,97
722,67	1302,51
722,85	1212,40
723,03	1341,42
723,21	1288,17
723,40	1284,08
723,58	1366,00
723,76	1259,50
723,94	1282,03
724,12	1216,49
724,30	1261,55
724,49	1277,93
724,67	1220,59
724,85	1286,12
725,03	1204,21
725,21	1310,70
725,40	1312,75
725,58	1206,25
725,76	1255,40
725,94	1214,45
726,12	1187,82
726,30	1232,88
726,49	1249,26
726,67	1269,74
726,85	1279,98
727,03	1269,74
727,21	1304,56
727,39	1247,21
727,57	1232,88
727,76	1273,84
727,94	1265,64
728,12	1302,51
728,30	1245,16
728,48	1316,84
728,66	1228,78
728,84	1259,50
729,03	1208,30
729,21	1386,47
729,39	1312,75
729,57	1204,21
729,75	1304,56
729,93	1241,07
730,11	1314,80
730,30	1245,16
730,48	1208,30
730,66	1292,27
730,84	1259,50
731,02	1234,93
731,20	1241,07
731,38	1269,74
731,56	1261,55
731,74	1226,73
731,93	1282,03
732,11	1224,69
732,29	1288,17
732,47	1282,03
732,65	1273,84
732,83	1251,31
733,01	1216,49
733,19	1343,47
733,37	1312,75
733,56	1226,73
733,74	1243,12
733,92	1320,94
734,10	1267,69
734,28	1282,03
734,46	1271,79
734,64	1255,40
734,82	1206,25
735,00	1292,27
735,18	1282,03
735,36	1245,16
735,54	1314,80
735,73	1249,26
735,91	1220,59
736,09	1259,50
736,27	1196,01
736,45	1273,84
736,63	1245,16
736,81	1230,83
736,99	1208,30
737,17	1331,18
737,35	1232,88
737,53	1302,51
737,71	1298,41
737,89	1208,30
738,07	1277,93
738,25	1273,84
738,43	1208,30
738,61	1265,64
738,80	1253,36
738,98	1294,32
739,16	1322,99
739,34	1271,79
739,52	1273,84
739,70	1306,60
739,88	1279,98
740,06	1234,93
740,24	1249,26
740,42	1374,19
740,60	1210,35
740,78	1273,84
740,96	1222,64
741,14	1216,49
741,32	1265,64
741,50	1275,88
741,68	1290,22
741,86	1226,73
742,04	1241,07
742,22	1298,41
742,40	1331,18
742,58	1308,65
742,76	1265,64
742,94	1302,51
743,12	1288,17
743,30	1253,36
743,48	1306,60
743,66	1300,46
743,84	1230,83
744,02	1277,93
744,20	1302,51
744,38	1191,92
744,56	1273,84
744,74	1279,98
744,92	1284,08
745,10	1265,64
745,28	1265,64
745,46	1265,64
745,64	1304,56
745,82	1261,55
746,00	1312,75
746,18	1302,51
746,36	1279,98
746,54	1236,97
746,72	1300,46
746,90	1259,50
747,08	1355,76
747,26	1239,02
747,44	1304,56
747,62	1292,27
747,80	1255,40
747,98	1257,45
748,15	1318,89
748,33	1245,16
748,51	1259,50
748,69	1230,83
748,87	1300,46
749,05	1282,03
749,23	1198,06
749,41	1241,07
749,59	1306,60
749,77	1288,17
749,95	1279,98
750,13	1259,50
750,31	1210,35
750,49	1294,32
750,67	1239,02
750,85	1243,12
751,03	1269,74
751,20	1286,12
751,38	1314,80
751,56	1269,74
751,74	1257,45
751,92	1277,93
752,10	1273,84
752,28	1253,36
752,46	1320,94
752,64	1325,04
752,82	1247,21
753,00	1236,97
753,18	1304,56
753,35	1261,55
753,53	1239,02
753,71	1265,64
753,89	1310,70
754,07	1247,21
754,25	1288,17
754,43	1277,93
754,61	1290,22
754,79	1247,21
754,97	1343,47
755,14	1286,12
755,32	1284,08
755,50	1239,02
755,68	1265,64
755,86	1286,12
756,04	1302,51
756,22	1304,56
756,40	1296,36
756,57	1333,23
756,75	1329,13
756,93	1249,26
757,11	1265,64
757,29	1218,54
757,47	1261,55
757,65	1273,84
757,82	1290,22
758,00	1282,03
758,18	1214,45
758,36	1302,51
758,54	1259,50
758,72	1251,31
758,90	1232,88
759,07	1257,45
759,25	1312,75
759,43	1230,83
759,61	1273,84
759,79	1282,03
759,97	1232,88
760,15	1241,07
760,32	1267,69
760,50	1269,74
760,68	1243,12
760,86	1228,78
761,04	1241,07
761,22	1224,69
761,39	1294,32
761,57	1220,59
761,75	1208,30
761,93	1220,59
762,11	1320,94
762,28	1261,55
762,46	1316,84
762,64	1304,56
762,82	1165,29
763,00	1277,93
763,18	1273,84
763,35	1253,36
763,53	1247,21
763,71	1296,36
763,89	1196,01
764,07	1222,64
764,24	1222,64
764,42	1298,41
764,60	1259,50
764,78	1298,41
764,96	1249,26
765,13	1216,49
765,31	1239,02
765,49	1290,22
765,67	1241,07
765,84	1277,93
766,02	1277,93
766,20	1247,21
766,38	1177,58
766,56	1329,13
766,73	1269,74
766,91	1265,64
767,09	1249,26
767,27	1226,73
767,44	1284,08
767,62	1284,08
767,80	1284,08
767,98	1325,04
768,15	1298,41
768,33	1277,93
768,51	1259,50
768,69	1320,94
768,87	1304,56
769,04	1241,07
769,22	1265,64
769,40	1296,36
769,58	1259,50
769,75	1226,73
769,93	1226,73
770,11	1275,88
770,28	1251,31
770,46	1271,79
770,64	1206,25
770,82	1263,60
770,99	1232,88
771,17	1286,12
771,35	1255,40
771,53	1310,70
771,70	1222,64
771,88	1226,73
772,06	1277,93
772,23	1234,93
772,41	1333,23
772,59	1230,83
772,77	1273,84
772,94	1220,59
773,12	1279,98
773,30	1193,97
773,47	1232,88
773,65	1236,97
773,83	1232,88
774,01	1247,21
774,18	1282,03
774,36	1212,40
774,54	1300,46
774,71	1273,84
774,89	1263,60
775,07	1290,22
775,24	1226,73
775,42	1267,69
775,60	1288,17
775,78	1253,36
775,95	1228,78
776,13	1202,16
776,31	1224,69
776,48	1177,58
776,66	1265,64
776,84	1298,41
777,01	1245,16
777,19	1306,60
777,37	1316,84
777,54	1253,36
777,72	1249,26
777,90	1290,22
778,07	1310,70
778,25	1271,79
778,43	1322,99
778,60	1210,35
778,78	1327,08
778,96	1288,17
779,13	1259,50
779,31	1304,56
779,49	1263,60
779,66	1304,56
779,84	1265,64
780,01	1239,02
780,19	1255,40
780,37	1243,12
780,54	1247,21
780,72	1253,36
780,90	1306,60
781,07	1296,36
781,25	1255,40
781,43	1327,08
781,60	1257,45
781,78	1255,40
781,95	1277,93
782,13	1261,55
782,31	1312,75
782,48	1277,93
782,66	1275,88
782,83	1275,88
783,01	1279,98
783,19	1267,69
783,36	1298,41
783,54	1204,21
783,72	1267,69
783,89	1333,23
784,07	1316,84
784,24	1212,40
784,42	1224,69
784,60	1208,30
784,77	1263,60
784,95	1230,83
785,12	1247,21
785,30	1277,93
785,47	1298,41
785,65	1257,45
785,83	1300,46
786,00	1282,03
786,18	1247,21
786,35	1259,50
786,53	1302,51
786,71	1271,79
786,88	1304,56
787,06	1294,32
787,23	1314,80
787,41	1277,93
787,58	1284,08
787,76	1265,64
787,94	1320,94
788,11	1298,41
788,29	1378,28
788,46	1288,17
788,64	1257,45
788,81	1269,74
788,99	1273,84
789,16	1265,64
789,34	1288,17
789,52	1310,70
789,69	1216,49
789,87	1247,21
790,04	1253,36
790,22	1263,60
790,39	1292,27
790,57	1298,41
790,74	1292,27
790,92	1251,31
791,09	1284,08
791,27	1216,49
791,44	1286,12
791,62	1294,32
791,79	1273,84
791,97	1279,98
792,15	1322,99
792,32	1322,99
792,50	1230,83
792,67	1302,51
792,85	1304,56
793,02	1275,88
793,20	1288,17
793,37	1222,64
793,55	1230,83
793,72	1175,53
793,90	1269,74
794,07	1257,45
794,25	1232,88
794,42	1349,61
794,60	1318,89
794,77	1140,72
794,95	1179,63
795,12	1259,50
795,30	1306,60
795,47	1228,78
795,65	1308,65
795,82	1228,78
796,00	1236,97
796,17	1347,56
796,34	1261,55
796,52	1183,73
796,69	1263,60
796,87	1310,70
797,04	1224,69
797,22	1263,60
797,39	1200,11
797,57	1236,97
797,74	1239,02
797,92	1327,08
798,09	1259,50
798,27	1320,94
798,44	1241,07
798,62	1222,64
798,79	1222,64
798,96	1284,08
799,14	1312,75
799,31	1241,07
799,49	1257,45
799,66	1257,45
799,84	1271,79
800,01	1247,21
800,19	1298,41
800,36	1253,36
800,53	1263,60
800,71	1298,41
800,88	1261,55
801,06	1249,26
801,23	1286,12
801,41	1255,40
801,58	1259,50
801,75	1226,73
801,93	1282,03
802,10	1243,12
802,28	1263,60
802,45	1228,78
802,63	1306,60
802,80	1226,73
802,97	1269,74
803,15	1189,87
803,32	1239,02
803,50	1275,88
803,67	1271,79
803,84	1259,50
804,02	1304,56
804,19	1304,56
804,37	1265,64
804,54	1193,97
804,71	1249,26
804,89	1226,73
805,06	1271,79
805,24	1284,08
805,41	1247,21
805,58	1277,93
805,76	1290,22
805,93	1249,26
806,10	1230,83
806,28	1214,45
806,45	1257,45
806,63	1249,26
806,80	1275,88
806,97	1226,73
807,15	1247,21
807,32	1269,74
807,49	1263,60
807,67	1249,26
807,84	1294,32
808,01	1271,79
808,19	1277,93
808,36	1241,07
808,54	1310,70
808,71	1257,45
808,88	1234,93
809,06	1236,97
809,23	1284,08
809,40	1265,64
809,58	1316,84
809,75	1228,78
809,92	1234,93
810,10	1363,95
810,27	1290,22
810,44	1179,63
810,62	1333,23
810,79	1269,74
810,96	1306,60
811,14	1310,70
811,31	1363,95
811,48	1363,95
811,66	1292,27
811,83	1259,50
812,00	1286,12
812,18	1249,26
812,35	1234,93
812,52	1273,84
812,69	1251,31
812,87	1249,26
813,04	1249,26
813,21	1257,45
813,39	1292,27
813,56	1234,93
813,73	1302,51
813,91	1263,60
814,08	1337,32
814,25	1198,06
814,42	1241,07
814,60	1329,13
814,77	1232,88
814,94	1370,09
815,12	1308,65
815,29	1314,80
815,46	1249,26
815,63	1275,88
815,81	1282,03
815,98	1247,21
816,15	1228,78
816,33	1279,98
816,50	1239,02
816,67	1255,40
816,84	1228,78
817,02	1224,69
817,19	1236,97
817,36	1277,93
817,53	1241,07
817,71	1226,73
817,88	1247,21
818,05	1259,50
818,22	1271,79
818,40	1249,26
818,57	1286,12
818,74	1300,46
818,91	1222,64
819,09	1284,08
819,26	1265,64
819,43	1263,60
819,60	1247,21
819,78	1298,41
819,95	1255,40
820,12	1224,69
820,29	1273,84
820,47	1232,88
820,64	1257,45
820,81	1189,87
820,98	1288,17
821,15	1216,49
821,33	1271,79
821,50	1279,98
821,67	1261,55
821,84	1216,49
822,02	1286,12
822,19	1257,45
822,36	1206,25
822,53	1271,79
822,70	1251,31
822,88	1253,36
823,05	1265,64
823,22	1286,12
823,39	1269,74
823,56	1282,03
823,74	1271,79
823,91	1251,31
824,08	1284,08
824,25	1210,35
824,42	1368,04
824,60	1222,64
824,77	1279,98
824,94	1243,12
825,11	1316,84
825,28	1239,02
825,45	1212,40
825,63	1255,40
825,80	1247,21
825,97	1290,22
826,14	1273,84
826,31	1294,32
826,48	1257,45
826,66	1191,92
826,83	1263,60
827,00	1161,20
827,17	1277,93
827,34	1294,32
827,51	1261,55
827,69	1306,60
827,86	1286,12
828,03	1222,64
828,20	1288,17
828,37	1296,36
828,54	1378,28
828,71	1198,06
828,89	1316,84
829,06	1249,26
829,23	1316,84
829,40	1251,31
829,57	1234,93
829,74	1292,27
829,91	1245,16
830,09	1265,64
830,26	1304,56
830,43	1322,99
830,60	1273,84
830,77	1310,70
830,94	1308,65
831,11	1232,88
831,28	1241,07
831,46	1294,32
831,63	1302,51
831,80	1255,40
831,97	1277,93
832,14	1279,98
832,31	1218,54
832,48	1263,60
832,65	1239,02
832,82	1255,40
832,99	1341,42
833,17	1271,79
833,34	1267,69
833,51	1214,45
833,68	1302,51
833,85	1292,27
834,02	1282,03
834,19	1296,36
834,36	1282,03
834,53	1249,26
834,70	1279,98
834,87	1261,55
835,04	1271,79
835,22	1314,80
835,39	1282,03
835,56	1261,55
835,73	1286,12
835,90	1314,80
836,07	1318,89
836,24	1271,79
836,41	1322,99
836,58	1191,92
836,75	1263,60
836,92	1327,08
837,09	1304,56
837,26	1353,71
837,43	1339,37
837,60	1282,03
837,77	1376,24
837,94	1232,88
838,12	1253,36
838,29	1232,88
838,46	1230,83
838,63	1343,47
838,80	1325,04
838,97	1265,64
839,14	1224,69
839,31	1255,40
839,48	1306,60
839,65	1265,64
839,82	1255,40
839,99	1245,16
840,16	1257,45
840,33	1279,98
840,50	1296,36
840,67	1366,00
840,84	1232,88
841,01	1255,40
841,18	1261,55
841,35	1322,99
841,52	1296,36
841,69	1288,17
841,86	1249,26
842,03	1288,17
842,20	1249,26
842,37	1185,77
842,54	1339,37
842,71	1263,60
842,88	1261,55
843,05	1279,98
843,22	1300,46
843,39	1288,17
843,56	1263,60
843,73	1302,51
843,90	1249,26
844,07	1204,21
844,24	1230,83
844,41	1322,99
844,58	1261,55
844,75	1282,03
844,92	1370,09
845,09	1222,64
845,26	1279,98
845,43	1261,55
845,60	1255,40
845,77	1224,69
845,94	1247,21
846,10	1251,31
846,27	1251,31
846,44	1230,83
846,61	1236,97
846,78	1320,94
846,95	1253,36
847,12	1261,55
847,29	1290,22
847,46	1302,51
847,63	1243,12
847,80	1296,36
847,97	1247,21
848,14	1357,80
848,31	1310,70
848,48	1284,08
848,65	1277,93
848,82	1253,36
848,98	1216,49
849,15	1284,08
849,32	1347,56
849,49	1286,12
849,66	1275,88
849,83	1308,65
850,00	1347,56
850,17	1298,41
850,34	1329,13
850,51	1245,16
850,68	1347,56
850,85	1361,90
851,01	1314,80
851,18	1232,88
851,35	1257,45
851,52	1183,73
851,69	1322,99
851,86	1279,98
852,03	1286,12
852,20	1296,36
852,37	1284,08
852,53	1300,46
852,70	1269,74
852,87	1263,60
853,04	1404,91
853,21	1263,60
853,38	1312,75
853,55	1286,12
853,72	1331,18
853,89	1220,59
854,05	1259,50
854,22	1288,17
854,39	1232,88
854,56	1288,17
854,73	1239,02
854,90	1282,03
855,07	1259,50
855,23	1241,07
855,40	1208,30
855,57	1222,64
855,74	1314,80
855,91	1263,60
856,08	1286,12
856,25	1249,26
856,41	1284,08
856,58	1271,79
856,75	1290,22
856,92	1228,78
857,09	1273,84
857,26	1296,36
857,42	1253,36
857,59	1290,22
857,76	1214,45
857,93	1234,93
858,10	1320,94
858,27	1308,65
858,43	1282,03
858,60	1288,17
858,77	1265,64
858,94	1308,65
859,11	1234,93
859,27	1300,46
859,44	1304,56
859,61	1222,64
859,78	1249,26
859,95	1275,88
860,12	1230,83
860,28	1239,02
860,45	1230,83
860,62	1220,59
860,79	1322,99
860,95	1255,40
861,12	1259,50
861,29	1310,70
861,46	1273,84
861,63	1304,56
861,79	1292,27
861,96	1286,12
862,13	1167,34
862,30	1312,75
862,47	1267,69
862,63	1286,12
862,80	1306,60
862,97	1230,83
863,14	1300,46
863,30	1241,07
863,47	1261,55
863,64	1234,93
863,81	1322,99
863,97	1335,28
864,14	1232,88
864,31	1247,21
864,48	1325,04
864,65	1255,40
864,81	1294,32
864,98	1279,98
865,15	1255,40
865,32	1300,46
865,48	1341,42
865,65	1269,74
865,82	1251,31
865,98	1214,45
866,15	1298,41
866,32	1294,32
866,49	1232,88
866,65	1282,03
866,82	1288,17
866,99	1290,22
867,16	1294,32
867,32	1337,32
867,49	1183,73
867,66	1251,31
867,83	1292,27
867,99	1267,69
868,16	1298,41
868,33	1288,17
868,49	1284,08
868,66	1279,98
868,83	1282,03
868,99	1306,60
869,16	1288,17
869,33	1279,98
869,50	1234,93
869,66	1261,55
869,83	1251,31
870,00	1271,79
870,16	1290,22
870,33	1271,79
870,50	1263,60
870,66	1245,16
870,83	1339,37
871,00	1325,04
871,17	1310,70
871,33	1288,17
871,50	1335,28
871,67	1236,97
871,83	1232,88
872,00	1251,31
872,17	1294,32
872,33	1288,17
872,50	1275,88
872,67	1286,12
872,83	1208,30
873,00	1302,51
873,17	1320,94
873,33	1275,88
873,50	1314,80
873,67	1316,84
873,83	1265,64
874,00	1316,84
874,16	1259,50
874,33	1275,88
874,50	1220,59
874,66	1212,40
874,83	1304,56
875,00	1251,31
875,16	1279,98
875,33	1241,07
875,50	1259,50
875,66	1335,28
875,83	1308,65
875,99	1275,88
876,16	1251,31
876,33	1269,74
876,49	1271,79
876,66	1265,64
876,83	1292,27
876,99	1286,12
877,16	1275,88
877,32	1279,98
877,49	1298,41
877,66	1302,51
877,82	1292,27
877,99	1409,00
878,15	1279,98
878,32	1273,84
878,49	1243,12
878,65	1314,80
878,82	1204,21
878,98	1292,27
879,15	1314,80
879,32	1259,50
879,48	1269,74
879,65	1216,49
879,81	1265,64
879,98	1273,84
880,15	1220,59
880,31	1239,02
880,48	1236,97
880,64	1261,55
880,81	1290,22
880,97	1273,84
881,14	1273,84
881,31	1206,25
881,47	1236,97
881,64	1239,02
881,80	1263,60
881,97	1226,73
882,13	1290,22
882,30	1255,40
882,47	1312,75
882,63	1279,98
882,80	1312,75
882,96	1325,04
883,13	1347,56
883,29	1273,84
883,46	1306,60
883,62	1271,79
883,79	1363,95
883,95	1353,71
884,12	1273,84
884,29	1255,40
884,45	1277,93
884,62	1279,98
884,78	1355,76
884,95	1165,29
885,11	1308,65
885,28	1224,69
885,44	1232,88
885,61	1257,45
885,77	1277,93
885,94	1251,31
886,10	1155,05
886,27	1306,60
886,43	1265,64
886,60	1290,22
886,76	1265,64
886,93	1271,79
887,09	1337,32
887,26	1300,46
887,42	1269,74
887,59	1208,30
887,75	1247,21
887,92	1327,08
888,08	1327,08
888,25	1269,74
888,41	1273,84
888,58	1177,58
888,74	1249,26
888,91	1236,97
>>>>>End Processed Spectral Data<<<<<
