SpectraSuite Data File
++++++++++++++++++++++++++++++++++++
Date: Sun Apr 03 14:42:34 CEST 2016
User: root
Dark Spectrum Present: No
Reference Spectrum Present: No
Number of Sampled Component Spectra: 1
Spectrometers: USB4C02835
Integration Time (usec): 10000 (USB4C02835)
Spectra Averaged: 1 (USB4C02835)
Boxcar Smoothing: 0 (USB4C02835)
Correct for Electrical Dark: No (USB4C02835)
Strobe/Lamp Enabled: No (USB4C02835)
Correct for Detector Non-linearity: No (USB4C02835)
Correct for Stray Light: No (USB4C02835)
Number of Pixels in Processed Spectrum: 3648
>>>>>Begin Processed Spectral Data<<<<<
177,47	1208,30
177,69	1208,30
177,91	1208,30
178,13	1294,32
178,36	1216,49
178,58	1320,94
178,80	1259,50
179,02	1263,60
179,24	1218,54
179,46	1273,84
179,68	1310,70
179,90	1236,97
180,13	1277,93
180,35	1302,51
180,57	1181,68
180,79	1241,07
181,01	1255,40
181,23	1310,70
181,45	1273,84
181,67	1359,85
181,90	1267,69
182,12	1230,83
182,34	1288,17
182,56	1247,21
182,78	1310,70
183,00	1259,50
183,22	1284,08
183,44	1253,36
183,66	1273,84
183,89	1230,83
184,11	1216,49
184,33	1265,64
184,55	1212,40
184,77	1247,21
184,99	1267,69
185,21	1331,18
185,43	1329,13
185,65	1249,26
185,87	1173,49
186,10	1261,55
186,32	1247,21
186,54	1239,02
186,76	1284,08
186,98	1245,16
187,20	1220,59
187,42	1316,84
187,64	1261,55
187,86	1294,32
188,08	1265,64
188,30	1224,69
188,52	1290,22
188,75	1241,07
188,97	1306,60
189,19	1234,93
189,41	1261,55
189,63	1232,88
189,85	1263,60
190,07	1277,93
190,29	1198,06
190,51	1343,47
190,73	1265,64
190,95	1277,93
191,17	1314,80
191,39	1304,56
191,61	1288,17
191,84	1224,69
192,06	1224,69
192,28	1224,69
192,50	1298,41
192,72	1273,84
192,94	1284,08
193,16	1327,08
193,38	1296,36
193,60	1247,21
193,82	1241,07
194,04	1300,46
194,26	1282,03
194,48	1261,55
194,70	1202,16
194,92	1271,79
195,14	1206,25
195,36	1286,12
195,58	1259,50
195,80	1255,40
196,02	1230,83
196,24	1320,94
196,46	1314,80
196,69	1302,51
196,91	1284,08
197,13	1349,61
197,35	1249,26
197,57	1271,79
197,79	1259,50
198,01	1224,69
198,23	1290,22
198,45	1265,64
198,67	1243,12
198,89	1243,12
199,11	1355,76
199,33	1279,98
199,55	1345,52
199,77	1216,49
199,99	1275,88
200,21	1239,02
200,43	1232,88
200,65	1249,26
200,87	1175,53
201,09	1226,73
201,31	1288,17
201,53	1249,26
201,75	1261,55
201,97	1322,99
202,19	1290,22
202,41	1366,00
202,63	1269,74
202,85	1318,89
203,07	1249,26
203,29	1198,06
203,51	1255,40
203,73	1325,04
203,95	1312,75
204,17	1308,65
204,39	1318,89
204,61	1273,84
204,83	1292,27
205,05	1218,54
205,27	1253,36
205,49	1322,99
205,71	1286,12
205,93	1183,73
206,15	1288,17
206,37	1228,78
206,59	1259,50
206,81	1279,98
207,03	1279,98
207,25	1263,60
207,47	1239,02
207,69	1265,64
207,91	1279,98
208,13	1239,02
208,34	1228,78
208,56	1249,26
208,78	1251,31
209,00	1263,60
209,22	1247,21
209,44	1196,01
209,66	1320,94
209,88	1196,01
210,10	1347,56
210,32	1269,74
210,54	1243,12
210,76	1286,12
210,98	1282,03
211,20	1261,55
211,42	1310,70
211,64	1232,88
211,86	1179,63
212,08	1320,94
212,30	1314,80
212,52	1290,22
212,74	1218,54
212,96	1296,36
213,17	1230,83
213,39	1316,84
213,61	1241,07
213,83	1226,73
214,05	1226,73
214,27	1251,31
214,49	1230,83
214,71	1222,64
214,93	1232,88
215,15	1286,12
215,37	1257,45
215,59	1322,99
215,81	1267,69
216,03	1337,32
216,24	1300,46
216,46	1314,80
216,68	1314,80
216,90	1322,99
217,12	1259,50
217,34	1277,93
217,56	1226,73
217,78	1241,07
218,00	1239,02
218,22	1253,36
218,44	1275,88
218,66	1275,88
218,87	1232,88
219,09	1222,64
219,31	1269,74
219,53	1228,78
219,75	1263,60
219,97	1220,59
220,19	1294,32
220,41	1269,74
220,63	1331,18
220,85	1239,02
221,06	1292,27
221,28	1345,52
221,50	1257,45
221,72	1308,65
221,94	1277,93
222,16	1269,74
222,38	1355,76
222,60	1322,99
222,82	1320,94
223,03	1300,46
223,25	1239,02
223,47	1214,45
223,69	1290,22
223,91	1241,07
224,13	1269,74
224,35	1265,64
224,57	1318,89
224,78	1284,08
225,00	1193,97
225,22	1259,50
225,44	1261,55
225,66	1259,50
225,88	1286,12
226,10	1347,56
226,32	1282,03
226,53	1269,74
226,75	1322,99
226,97	1230,83
227,19	1304,56
227,41	1245,16
227,63	1251,31
227,85	1216,49
228,06	1277,93
228,28	1298,41
228,50	1394,67
228,72	1253,36
228,94	1257,45
229,16	1224,69
229,37	1279,98
229,59	1214,45
229,81	1314,80
230,03	1325,04
230,25	1249,26
230,47	1329,13
230,69	1243,12
230,90	1314,80
231,12	1298,41
231,34	1292,27
231,56	1325,04
231,78	1226,73
232,00	1267,69
232,21	1290,22
232,43	1347,56
232,65	1236,97
232,87	1212,40
233,09	1275,88
233,30	1290,22
233,52	1286,12
233,74	1267,69
233,96	1226,73
234,18	1267,69
234,40	1249,26
234,61	1273,84
234,83	1220,59
235,05	1306,60
235,27	1282,03
235,49	1296,36
235,70	1243,12
235,92	1275,88
236,14	1298,41
236,36	1243,12
236,58	1263,60
236,79	1286,12
237,01	1167,34
237,23	1265,64
237,45	1320,94
237,67	1288,17
237,88	1230,83
238,10	1230,83
238,32	1271,79
238,54	1247,21
238,76	1259,50
238,97	1331,18
239,19	1298,41
239,41	1271,79
239,63	1267,69
239,85	1265,64
240,06	1277,93
240,28	1257,45
240,50	1290,22
240,72	1347,56
240,93	1275,88
241,15	1265,64
241,37	1292,27
241,59	1366,00
241,81	1306,60
242,02	1267,69
242,24	1200,11
242,46	1273,84
242,68	1320,94
242,89	1263,60
243,11	1282,03
243,33	1255,40
243,55	1290,22
243,76	1243,12
243,98	1267,69
244,20	1304,56
244,42	1243,12
244,64	1282,03
244,85	1273,84
245,07	1312,75
245,29	1222,64
245,51	1230,83
245,72	1206,25
245,94	1294,32
246,16	1243,12
246,38	1335,28
246,59	1271,79
246,81	1255,40
247,03	1331,18
247,24	1304,56
247,46	1239,02
247,68	1204,21
247,90	1300,46
248,11	1259,50
248,33	1325,04
248,55	1298,41
248,77	1312,75
248,98	1175,53
249,20	1286,12
249,42	1282,03
249,64	1255,40
249,85	1269,74
250,07	1269,74
250,29	1290,22
250,50	1320,94
250,72	1282,03
250,94	1265,64
251,16	1279,98
251,37	1267,69
251,59	1187,82
251,81	1314,80
252,02	1214,45
252,24	1255,40
252,46	1267,69
252,68	1302,51
252,89	1290,22
253,11	1230,83
253,33	1284,08
253,54	1316,84
253,76	1347,56
253,98	1267,69
254,20	1251,31
254,41	1273,84
254,63	1259,50
254,85	1284,08
255,06	1308,65
255,28	1290,22
255,50	1216,49
255,71	1275,88
255,93	1247,21
256,15	1316,84
256,36	1308,65
256,58	1263,60
256,80	1306,60
257,02	1239,02
257,23	1249,26
257,45	1282,03
257,67	1251,31
257,88	1300,46
258,10	1249,26
258,32	1239,02
258,53	1333,23
258,75	1247,21
258,97	1353,71
259,18	1325,04
259,40	1273,84
259,62	1253,36
259,83	1263,60
260,05	1341,42
260,27	1241,07
260,48	1206,25
260,70	1214,45
260,92	1234,93
261,13	1314,80
261,35	1253,36
261,57	1245,16
261,78	1269,74
262,00	1259,50
262,22	1296,36
262,43	1257,45
262,65	1282,03
262,86	1347,56
263,08	1298,41
263,30	1269,74
263,51	1273,84
263,73	1247,21
263,95	1263,60
264,16	1370,09
264,38	1214,45
264,60	1304,56
264,81	1269,74
265,03	1292,27
265,25	1277,93
265,46	1316,84
265,68	1210,35
265,89	1316,84
266,11	1282,03
266,33	1263,60
266,54	1271,79
266,76	1343,47
266,98	1298,41
267,19	1284,08
267,41	1257,45
267,62	1361,90
267,84	1292,27
268,06	1279,98
268,27	1206,25
268,49	1282,03
268,70	1212,40
268,92	1261,55
269,14	1228,78
269,35	1200,11
269,57	1304,56
269,79	1263,60
270,00	1259,50
270,22	1306,60
270,43	1286,12
270,65	1218,54
270,87	1228,78
271,08	1308,65
271,30	1335,28
271,51	1302,51
271,73	1269,74
271,95	1249,26
272,16	1306,60
272,38	1353,71
272,59	1279,98
272,81	1210,35
273,02	1191,92
273,24	1279,98
273,46	1275,88
273,67	1269,74
273,89	1257,45
274,10	1306,60
274,32	1257,45
274,54	1255,40
274,75	1257,45
274,97	1261,55
275,18	1294,32
275,40	1265,64
275,61	1245,16
275,83	1298,41
276,05	1284,08
276,26	1234,93
276,48	1255,40
276,69	1263,60
276,91	1257,45
277,12	1263,60
277,34	1220,59
277,55	1339,37
277,77	1322,99
277,99	1265,64
278,20	1347,56
278,42	1290,22
278,63	1263,60
278,85	1314,80
279,06	1245,16
279,28	1275,88
279,49	1267,69
279,71	1177,58
279,93	1179,63
280,14	1245,16
280,36	1241,07
280,57	1263,60
280,79	1257,45
281,00	1298,41
281,22	1251,31
281,43	1314,80
281,65	1255,40
281,86	1298,41
282,08	1282,03
282,29	1259,50
282,51	1224,69
282,73	1304,56
282,94	1279,98
283,16	1247,21
283,37	1224,69
283,59	1273,84
283,80	1286,12
284,02	1245,16
284,23	1316,84
284,45	1290,22
284,66	1249,26
284,88	1282,03
285,09	1282,03
285,31	1271,79
285,52	1306,60
285,74	1302,51
285,95	1304,56
286,17	1329,13
286,38	1349,61
286,60	1271,79
286,81	1216,49
287,03	1308,65
287,24	1265,64
287,46	1310,70
287,67	1251,31
287,89	1308,65
288,10	1259,50
288,32	1279,98
288,53	1275,88
288,75	1282,03
288,96	1259,50
289,18	1222,64
289,39	1271,79
289,61	1320,94
289,82	1304,56
290,04	1349,61
290,25	1206,25
290,47	1325,04
290,68	1308,65
290,90	1282,03
291,11	1271,79
291,33	1314,80
291,54	1267,69
291,76	1284,08
291,97	1204,21
292,18	1304,56
292,40	1290,22
292,61	1220,59
292,83	1277,93
293,04	1294,32
293,26	1294,32
293,47	1298,41
293,69	1208,30
293,90	1206,25
294,12	1226,73
294,33	1322,99
294,55	1234,93
294,76	1228,78
294,97	1206,25
295,19	1310,70
295,40	1251,31
295,62	1349,61
295,83	1173,49
296,05	1265,64
296,26	1249,26
296,48	1286,12
296,69	1310,70
296,90	1265,64
297,12	1349,61
297,33	1298,41
297,55	1210,35
297,76	1234,93
297,98	1247,21
298,19	1187,82
298,41	1234,93
298,62	1255,40
298,83	1261,55
299,05	1302,51
299,26	1302,51
299,48	1306,60
299,69	1251,31
299,90	1265,64
300,12	1255,40
300,33	1277,93
300,55	1247,21
300,76	1282,03
300,98	1290,22
301,19	1271,79
301,40	1302,51
301,62	1232,88
301,83	1294,32
302,05	1234,93
302,26	1320,94
302,47	1275,88
302,69	1271,79
302,90	1298,41
303,12	1224,69
303,33	1292,27
303,54	1247,21
303,76	1232,88
303,97	1275,88
304,19	1279,98
304,40	1279,98
304,61	1255,40
304,83	1279,98
305,04	1243,12
305,26	1296,36
305,47	1275,88
305,68	1277,93
305,90	1288,17
306,11	1351,66
306,33	1265,64
306,54	1343,47
306,75	1286,12
306,97	1243,12
307,18	1236,97
307,39	1310,70
307,61	1318,89
307,82	1331,18
308,04	1232,88
308,25	1263,60
308,46	1247,21
308,68	1277,93
308,89	1187,82
309,10	1253,36
309,32	1300,46
309,53	1236,97
309,74	1318,89
309,96	1263,60
310,17	1263,60
310,39	1257,45
310,60	1255,40
310,81	1214,45
311,03	1261,55
311,24	1243,12
311,45	1210,35
311,67	1265,64
311,88	1239,02
312,09	1288,17
312,31	1224,69
312,52	1234,93
312,73	1282,03
312,95	1314,80
313,16	1298,41
313,37	1279,98
313,59	1282,03
313,80	1265,64
314,01	1306,60
314,23	1196,01
314,44	1288,17
314,65	1302,51
314,87	1228,78
315,08	1271,79
315,29	1228,78
315,51	1202,16
315,72	1316,84
315,93	1320,94
316,15	1325,04
316,36	1228,78
316,57	1216,49
316,79	1216,49
317,00	1232,88
317,21	1343,47
317,43	1267,69
317,64	1241,07
317,85	1331,18
318,07	1320,94
318,28	1247,21
318,49	1243,12
318,70	1271,79
318,92	1273,84
319,13	1320,94
319,34	1279,98
319,56	1318,89
319,77	1314,80
319,98	1312,75
320,20	1259,50
320,41	1253,36
320,62	1255,40
320,83	1267,69
321,05	1310,70
321,26	1204,21
321,47	1275,88
321,69	1275,88
321,90	1277,93
322,11	1230,83
322,32	1284,08
322,54	1306,60
322,75	1253,36
322,96	1191,92
323,18	1255,40
323,39	1259,50
323,60	1279,98
323,81	1251,31
324,03	1179,63
324,24	1322,99
324,45	1298,41
324,66	1275,88
324,88	1255,40
325,09	1339,37
325,30	1284,08
325,52	1187,82
325,73	1310,70
325,94	1216,49
326,15	1234,93
326,37	1234,93
326,58	1298,41
326,79	1298,41
327,00	1214,45
327,22	1279,98
327,43	1210,35
327,64	1300,46
327,85	1273,84
328,07	1216,49
328,28	1269,74
328,49	1214,45
328,70	1241,07
328,92	1331,18
329,13	1288,17
329,34	1286,12
329,55	1232,88
329,76	1284,08
329,98	1230,83
330,19	1271,79
330,40	1232,88
330,61	1232,88
330,83	1265,64
331,04	1247,21
331,25	1224,69
331,46	1279,98
331,68	1267,69
331,89	1259,50
332,10	1247,21
332,31	1232,88
332,52	1298,41
332,74	1286,12
332,95	1308,65
333,16	1288,17
333,37	1239,02
333,58	1310,70
333,80	1329,13
334,01	1247,21
334,22	1251,31
334,43	1263,60
334,64	1259,50
334,86	1245,16
335,07	1257,45
335,28	1189,87
335,49	1273,84
335,70	1271,79
335,92	1249,26
336,13	1320,94
336,34	1212,40
336,55	1241,07
336,76	1212,40
336,98	1198,06
337,19	1255,40
337,40	1228,78
337,61	1247,21
337,82	1314,80
338,04	1247,21
338,25	1296,36
338,46	1232,88
338,67	1284,08
338,88	1304,56
339,09	1296,36
339,31	1224,69
339,52	1234,93
339,73	1202,16
339,94	1265,64
340,15	1243,12
340,36	1255,40
340,58	1187,82
340,79	1253,36
341,00	1220,59
341,21	1318,89
341,42	1304,56
341,63	1208,30
341,85	1333,23
342,06	1259,50
342,27	1290,22
342,48	1296,36
342,69	1273,84
342,90	1294,32
343,12	1269,74
343,33	1253,36
343,54	1265,64
343,75	1314,80
343,96	1261,55
344,17	1239,02
344,38	1249,26
344,60	1232,88
344,81	1296,36
345,02	1282,03
345,23	1255,40
345,44	1277,93
345,65	1177,58
345,86	1271,79
346,07	1290,22
346,29	1279,98
346,50	1286,12
346,71	1296,36
346,92	1251,31
347,13	1193,97
347,34	1247,21
347,55	1224,69
347,76	1345,52
347,98	1320,94
348,19	1290,22
348,40	1355,76
348,61	1273,84
348,82	1230,83
349,03	1333,23
349,24	1306,60
349,45	1292,27
349,66	1263,60
349,88	1261,55
350,09	1298,41
350,30	1325,04
350,51	1275,88
350,72	1269,74
350,93	1253,36
351,14	1304,56
351,35	1249,26
351,56	1302,51
351,77	1327,08
351,99	1202,16
352,20	1279,98
352,41	1302,51
352,62	1269,74
352,83	1290,22
353,04	1224,69
353,25	1273,84
353,46	1282,03
353,67	1253,36
353,88	1261,55
354,09	1245,16
354,30	1314,80
354,52	1290,22
354,73	1345,52
354,94	1341,42
355,15	1245,16
355,36	1322,99
355,57	1288,17
355,78	1265,64
355,99	1265,64
356,20	1241,07
356,41	1359,85
356,62	1286,12
356,83	1308,65
357,04	1322,99
357,25	1310,70
357,46	1247,21
357,68	1263,60
357,89	1322,99
358,10	1290,22
358,31	1302,51
358,52	1310,70
358,73	1282,03
358,94	1222,64
359,15	1257,45
359,36	1263,60
359,57	1253,36
359,78	1206,25
359,99	1245,16
360,20	1226,73
360,41	1290,22
360,62	1193,97
360,83	1302,51
361,04	1292,27
361,25	1173,49
361,46	1314,80
361,67	1247,21
361,88	1282,03
362,09	1322,99
362,30	1302,51
362,51	1329,13
362,72	1275,88
362,93	1282,03
363,14	1312,75
363,35	1294,32
363,56	1300,46
363,78	1249,26
363,99	1353,71
364,20	1275,88
364,41	1241,07
364,62	1234,93
364,83	1228,78
365,04	1286,12
365,25	1279,98
365,46	1325,04
365,67	1318,89
365,88	1185,77
366,09	1259,50
366,30	1265,64
366,51	1310,70
366,72	1296,36
366,93	1208,30
367,14	1339,37
367,35	1308,65
367,56	1294,32
367,77	1347,56
367,98	1327,08
368,18	1329,13
368,39	1265,64
368,60	1316,84
368,81	1320,94
369,02	1181,68
369,23	1245,16
369,44	1236,97
369,65	1265,64
369,86	1241,07
370,07	1284,08
370,28	1267,69
370,49	1247,21
370,70	1265,64
370,91	1222,64
371,12	1314,80
371,33	1263,60
371,54	1261,55
371,75	1286,12
371,96	1261,55
372,17	1296,36
372,38	1234,93
372,59	1279,98
372,80	1271,79
373,01	1298,41
373,22	1361,90
373,43	1269,74
373,64	1239,02
373,85	1279,98
374,06	1275,88
374,26	1282,03
374,47	1224,69
374,68	1208,30
374,89	1245,16
375,10	1290,22
375,31	1304,56
375,52	1257,45
375,73	1298,41
375,94	1329,13
376,15	1206,25
376,36	1267,69
376,57	1288,17
376,78	1320,94
376,99	1259,50
377,20	1243,12
377,40	1257,45
377,61	1327,08
377,82	1288,17
378,03	1320,94
378,24	1265,64
378,45	1261,55
378,66	1306,60
378,87	1263,60
379,08	1294,32
379,29	1236,97
379,50	1271,79
379,71	1269,74
379,91	1253,36
380,12	1279,98
380,33	1224,69
380,54	1277,93
380,75	1312,75
380,96	1234,93
381,17	1191,92
381,38	1345,52
381,59	1306,60
381,80	1333,23
382,00	1329,13
382,21	1257,45
382,42	1302,51
382,63	1331,18
382,84	1196,01
383,05	1304,56
383,26	1140,72
383,47	1261,55
383,68	1275,88
383,88	1286,12
384,09	1271,79
384,30	1224,69
384,51	1331,18
384,72	1263,60
384,93	1347,56
385,14	1230,83
385,35	1224,69
385,55	1169,39
385,76	1306,60
385,97	1239,02
386,18	1316,84
386,39	1234,93
386,60	1320,94
386,81	1247,21
387,02	1239,02
387,22	1267,69
387,43	1273,84
387,64	1245,16
387,85	1345,52
388,06	1177,58
388,27	1314,80
388,48	1198,06
388,68	1216,49
388,89	1234,93
389,10	1306,60
389,31	1347,56
389,52	1284,08
389,73	1312,75
389,93	1208,30
390,14	1296,36
390,35	1279,98
390,56	1249,26
390,77	1220,59
390,98	1251,31
391,18	1257,45
391,39	1294,32
391,60	1333,23
391,81	1310,70
392,02	1310,70
392,23	1288,17
392,43	1320,94
392,64	1236,97
392,85	1241,07
393,06	1261,55
393,27	1234,93
393,47	1343,47
393,68	1320,94
393,89	1277,93
394,10	1247,21
394,31	1284,08
394,52	1255,40
394,72	1210,35
394,93	1288,17
395,14	1275,88
395,35	1196,01
395,56	1218,54
395,76	1247,21
395,97	1304,56
396,18	1322,99
396,39	1230,83
396,60	1304,56
396,80	1318,89
397,01	1243,12
397,22	1202,16
397,43	1304,56
397,64	1279,98
397,84	1316,84
398,05	1269,74
398,26	1251,31
398,47	1249,26
398,67	1273,84
398,88	1290,22
399,09	1320,94
399,30	1316,84
399,51	1294,32
399,71	1251,31
399,92	1288,17
400,13	1316,84
400,34	1257,45
400,54	1175,53
400,75	1202,16
400,96	1263,60
401,17	1325,04
401,37	1277,93
401,58	1337,32
401,79	1257,45
402,00	1306,60
402,21	1282,03
402,41	1322,99
402,62	1327,08
402,83	1306,60
403,04	1218,54
403,24	1253,36
403,45	1265,64
403,66	1277,93
403,87	1343,47
404,07	1241,07
404,28	1189,87
404,49	1247,21
404,70	1267,69
404,90	1310,70
405,11	1331,18
405,32	1382,38
405,52	1265,64
405,73	1243,12
405,94	1282,03
406,15	1257,45
406,35	1245,16
406,56	1302,51
406,77	1290,22
406,98	1318,89
407,18	1282,03
407,39	1376,24
407,60	1308,65
407,80	1275,88
408,01	1288,17
408,22	1259,50
408,43	1277,93
408,63	1241,07
408,84	1277,93
409,05	1257,45
409,25	1267,69
409,46	1157,10
409,67	1171,44
409,88	1294,32
410,08	1236,97
410,29	1294,32
410,50	1273,84
410,70	1245,16
410,91	1253,36
411,12	1277,93
411,32	1316,84
411,53	1257,45
411,74	1304,56
411,95	1288,17
412,15	1355,76
412,36	1243,12
412,57	1259,50
412,77	1212,40
412,98	1370,09
413,19	1277,93
413,39	1267,69
413,60	1247,21
413,81	1308,65
414,01	1277,93
414,22	1269,74
414,43	1335,28
414,63	1349,61
414,84	1257,45
415,05	1185,77
415,25	1290,22
415,46	1376,24
415,67	1247,21
415,87	1265,64
416,08	1294,32
416,29	1304,56
416,49	1265,64
416,70	1247,21
416,91	1273,84
417,11	1277,93
417,32	1316,84
417,53	1220,59
417,73	1275,88
417,94	1294,32
418,15	1259,50
418,35	1331,18
418,56	1290,22
418,77	1306,60
418,97	1318,89
419,18	1226,73
419,38	1239,02
419,59	1249,26
419,80	1273,84
420,00	1284,08
420,21	1327,08
420,42	1275,88
420,62	1234,93
420,83	1236,97
421,04	1243,12
421,24	1255,40
421,45	1284,08
421,65	1359,85
421,86	1284,08
422,07	1269,74
422,27	1318,89
422,48	1279,98
422,69	1228,78
422,89	1239,02
423,10	1251,31
423,30	1265,64
423,51	1218,54
423,72	1290,22
423,92	1265,64
424,13	1204,21
424,33	1255,40
424,54	1279,98
424,75	1181,68
424,95	1273,84
425,16	1312,75
425,36	1310,70
425,57	1247,21
425,78	1327,08
425,98	1325,04
426,19	1236,97
426,39	1236,97
426,60	1253,36
426,81	1329,13
427,01	1318,89
427,22	1296,36
427,42	1292,27
427,63	1298,41
427,83	1306,60
428,04	1253,36
428,25	1187,82
428,45	1239,02
428,66	1255,40
428,86	1228,78
429,07	1298,41
429,28	1279,98
429,48	1331,18
429,69	1320,94
429,89	1279,98
430,10	1284,08
430,30	1267,69
430,51	1273,84
430,71	1298,41
430,92	1308,65
431,13	1306,60
431,33	1306,60
431,54	1185,77
431,74	1314,80
431,95	1265,64
432,15	1230,83
432,36	1236,97
432,56	1247,21
432,77	1273,84
432,98	1343,47
433,18	1206,25
433,39	1322,99
433,59	1263,60
433,80	1267,69
434,00	1275,88
434,21	1290,22
434,41	1257,45
434,62	1271,79
434,82	1310,70
435,03	1251,31
435,23	1247,21
435,44	1273,84
435,64	1304,56
435,85	1310,70
436,06	1269,74
436,26	1277,93
436,47	1239,02
436,67	1290,22
436,88	1282,03
437,08	1347,56
437,29	1288,17
437,49	1310,70
437,70	1318,89
437,90	1265,64
438,11	1243,12
438,31	1308,65
438,52	1290,22
438,72	1304,56
438,93	1234,93
439,13	1234,93
439,34	1296,36
439,54	1224,69
439,75	1327,08
439,95	1298,41
440,16	1241,07
440,36	1267,69
440,57	1249,26
440,77	1304,56
440,98	1202,16
441,18	1314,80
441,39	1191,92
441,59	1257,45
441,80	1357,80
442,00	1294,32
442,21	1331,18
442,41	1222,64
442,62	1226,73
442,82	1279,98
443,02	1265,64
443,23	1271,79
443,43	1263,60
443,64	1263,60
443,84	1247,21
444,05	1310,70
444,25	1241,07
444,46	1394,67
444,66	1271,79
444,87	1298,41
445,07	1220,59
445,28	1290,22
445,48	1239,02
445,69	1325,04
445,89	1261,55
446,09	1236,97
446,30	1304,56
446,50	1224,69
446,71	1304,56
446,91	1308,65
447,12	1210,35
447,32	1183,73
447,53	1306,60
447,73	1271,79
447,93	1218,54
448,14	1284,08
448,34	1290,22
448,55	1372,14
448,75	1265,64
448,96	1277,93
449,16	1265,64
449,36	1216,49
449,57	1300,46
449,77	1304,56
449,98	1275,88
450,18	1290,22
450,39	1306,60
450,59	1308,65
450,79	1277,93
451,00	1273,84
451,20	1271,79
451,41	1167,34
451,61	1304,56
451,81	1316,84
452,02	1234,93
452,22	1253,36
452,43	1318,89
452,63	1275,88
452,84	1306,60
453,04	1308,65
453,24	1263,60
453,45	1208,30
453,65	1191,92
453,86	1368,04
454,06	1284,08
454,26	1294,32
454,47	1279,98
454,67	1286,12
454,87	1273,84
455,08	1198,06
455,28	1282,03
455,49	1394,67
455,69	1253,36
455,89	1284,08
456,10	1255,40
456,30	1243,12
456,51	1228,78
456,71	1232,88
456,91	1308,65
457,12	1247,21
457,32	1304,56
457,52	1230,83
457,73	1273,84
457,93	1271,79
458,14	1245,16
458,34	1239,02
458,54	1239,02
458,75	1294,32
458,95	1200,11
459,15	1292,27
459,36	1224,69
459,56	1304,56
459,76	1288,17
459,97	1230,83
460,17	1320,94
460,37	1273,84
460,58	1253,36
460,78	1261,55
460,99	1273,84
461,19	1277,93
461,39	1275,88
461,60	1257,45
461,80	1245,16
462,00	1286,12
462,21	1196,01
462,41	1296,36
462,61	1218,54
462,82	1318,89
463,02	1257,45
463,22	1218,54
463,43	1204,21
463,63	1263,60
463,83	1243,12
464,04	1282,03
464,24	1234,93
464,44	1275,88
464,64	1288,17
464,85	1230,83
465,05	1290,22
465,25	1314,80
465,46	1253,36
465,66	1339,37
465,86	1253,36
466,07	1312,75
466,27	1333,23
466,47	1288,17
466,68	1249,26
466,88	1325,04
467,08	1273,84
467,29	1224,69
467,49	1257,45
467,69	1298,41
467,89	1245,16
468,10	1269,74
468,30	1210,35
468,50	1247,21
468,71	1261,55
468,91	1277,93
469,11	1253,36
469,31	1275,88
469,52	1267,69
469,72	1322,99
469,92	1224,69
470,13	1329,13
470,33	1226,73
470,53	1253,36
470,73	1263,60
470,94	1234,93
471,14	1310,70
471,34	1204,21
471,54	1257,45
471,75	1239,02
471,95	1366,00
472,15	1241,07
472,36	1261,55
472,56	1208,30
472,76	1251,31
472,96	1239,02
473,17	1331,18
473,37	1261,55
473,57	1265,64
473,77	1212,40
473,98	1335,28
474,18	1314,80
474,38	1220,59
474,58	1345,52
474,79	1341,42
474,99	1253,36
475,19	1239,02
475,39	1232,88
475,60	1183,73
475,80	1228,78
476,00	1277,93
476,20	1300,46
476,41	1298,41
476,61	1243,12
476,81	1257,45
477,01	1263,60
477,21	1271,79
477,42	1257,45
477,62	1214,45
477,82	1292,27
478,02	1335,28
478,23	1359,85
478,43	1296,36
478,63	1300,46
478,83	1296,36
479,03	1200,11
479,24	1296,36
479,44	1232,88
479,64	1214,45
479,84	1216,49
480,04	1234,93
480,25	1306,60
480,45	1273,84
480,65	1253,36
480,85	1308,65
481,06	1296,36
481,26	1226,73
481,46	1306,60
481,66	1267,69
481,86	1308,65
482,06	1288,17
482,27	1279,98
482,47	1318,89
482,67	1296,36
482,87	1259,50
483,07	1271,79
483,28	1282,03
483,48	1298,41
483,68	1218,54
483,88	1175,53
484,08	1236,97
484,29	1296,36
484,49	1298,41
484,69	1353,71
484,89	1333,23
485,09	1206,25
485,29	1302,51
485,50	1361,90
485,70	1241,07
485,90	1292,27
486,10	1273,84
486,30	1257,45
486,50	1222,64
486,71	1232,88
486,91	1261,55
487,11	1202,16
487,31	1247,21
487,51	1208,30
487,71	1282,03
487,91	1247,21
488,12	1167,34
488,32	1325,04
488,52	1302,51
488,72	1228,78
488,92	1314,80
489,12	1265,64
489,32	1265,64
489,53	1372,14
489,73	1290,22
489,93	1310,70
490,13	1234,93
490,33	1257,45
490,53	1249,26
490,73	1337,32
490,94	1257,45
491,14	1212,40
491,34	1249,26
491,54	1322,99
491,74	1300,46
491,94	1286,12
492,14	1294,32
492,34	1286,12
492,54	1308,65
492,75	1290,22
492,95	1267,69
493,15	1290,22
493,35	1286,12
493,55	1222,64
493,75	1214,45
493,95	1261,55
494,15	1200,11
494,35	1322,99
494,56	1232,88
494,76	1241,07
494,96	1306,60
495,16	1269,74
495,36	1220,59
495,56	1277,93
495,76	1300,46
495,96	1306,60
496,16	1245,16
496,36	1298,41
496,56	1286,12
496,77	1275,88
496,97	1273,84
497,17	1351,66
497,37	1267,69
497,57	1253,36
497,77	1320,94
497,97	1335,28
498,17	1265,64
498,37	1261,55
498,57	1279,98
498,77	1279,98
498,97	1230,83
499,17	1263,60
499,38	1236,97
499,58	1239,02
499,78	1322,99
499,98	1279,98
500,18	1253,36
500,38	1327,08
500,58	1253,36
500,78	1282,03
500,98	1150,96
501,18	1271,79
501,38	1320,94
501,58	1302,51
501,78	1249,26
501,98	1271,79
502,18	1312,75
502,38	1298,41
502,58	1347,56
502,78	1292,27
502,98	1329,13
503,18	1239,02
503,38	1310,70
503,59	1296,36
503,79	1171,44
503,99	1265,64
504,19	1230,83
504,39	1271,79
504,59	1253,36
504,79	1279,98
504,99	1286,12
505,19	1320,94
505,39	1226,73
505,59	1282,03
505,79	1279,98
505,99	1347,56
506,19	1376,24
506,39	1232,88
506,59	1306,60
506,79	1208,30
506,99	1226,73
507,19	1234,93
507,39	1337,32
507,59	1236,97
507,79	1255,40
507,99	1306,60
508,19	1259,50
508,39	1239,02
508,59	1275,88
508,79	1314,80
508,99	1267,69
509,19	1191,92
509,39	1277,93
509,59	1224,69
509,79	1234,93
509,99	1241,07
510,19	1288,17
510,39	1322,99
510,59	1200,11
510,79	1312,75
510,99	1198,06
511,19	1284,08
511,39	1286,12
511,59	1224,69
511,79	1333,23
511,99	1331,18
512,19	1286,12
512,38	1263,60
512,58	1308,65
512,78	1277,93
512,98	1279,98
513,18	1310,70
513,38	1247,21
513,58	1306,60
513,78	1267,69
513,98	1257,45
514,18	1351,66
514,38	1339,37
514,58	1249,26
514,78	1249,26
514,98	1288,17
515,18	1271,79
515,38	1216,49
515,58	1241,07
515,78	1243,12
515,98	1226,73
516,18	1263,60
516,38	1306,60
516,57	1257,45
516,77	1282,03
516,97	1243,12
517,17	1286,12
517,37	1290,22
517,57	1261,55
517,77	1277,93
517,97	1216,49
518,17	1222,64
518,37	1273,84
518,57	1265,64
518,77	1247,21
518,97	1263,60
519,16	1271,79
519,36	1249,26
519,56	1320,94
519,76	1318,89
519,96	1245,16
520,16	1325,04
520,36	1232,88
520,56	1273,84
520,76	1257,45
520,96	1216,49
521,16	1294,32
521,35	1302,51
521,55	1241,07
521,75	1165,29
521,95	1251,31
522,15	1282,03
522,35	1232,88
522,55	1243,12
522,75	1236,97
522,95	1261,55
523,14	1265,64
523,34	1263,60
523,54	1296,36
523,74	1286,12
523,94	1265,64
524,14	1210,35
524,34	1361,90
524,54	1277,93
524,73	1277,93
524,93	1253,36
525,13	1241,07
525,33	1185,77
525,53	1314,80
525,73	1253,36
525,93	1257,45
526,13	1189,87
526,32	1222,64
526,52	1273,84
526,72	1284,08
526,92	1230,83
527,12	1351,66
527,32	1249,26
527,52	1255,40
527,71	1277,93
527,91	1222,64
528,11	1304,56
528,31	1222,64
528,51	1275,88
528,71	1273,84
528,90	1333,23
529,10	1300,46
529,30	1241,07
529,50	1222,64
529,70	1322,99
529,90	1335,28
530,09	1177,58
530,29	1265,64
530,49	1245,16
530,69	1236,97
530,89	1261,55
531,09	1277,93
531,28	1296,36
531,48	1234,93
531,68	1181,68
531,88	1282,03
532,08	1251,31
532,28	1296,36
532,47	1290,22
532,67	1265,64
532,87	1267,69
533,07	1288,17
533,27	1288,17
533,46	1251,31
533,66	1302,51
533,86	1290,22
534,06	1257,45
534,26	1239,02
534,45	1277,93
534,65	1191,92
534,85	1253,36
535,05	1302,51
535,25	1282,03
535,44	1288,17
535,64	1228,78
535,84	1294,32
536,04	1198,06
536,24	1271,79
536,43	1255,40
536,63	1232,88
536,83	1234,93
537,03	1263,60
537,22	1349,61
537,42	1226,73
537,62	1212,40
537,82	1271,79
538,02	1261,55
538,21	1331,18
538,41	1257,45
538,61	1224,69
538,81	1300,46
539,00	1286,12
539,20	1228,78
539,40	1181,68
539,60	1331,18
539,79	1339,37
539,99	1275,88
540,19	1275,88
540,39	1245,16
540,58	1304,56
540,78	1236,97
540,98	1267,69
541,18	1257,45
541,37	1226,73
541,57	1294,32
541,77	1226,73
541,97	1232,88
542,16	1288,17
542,36	1222,64
542,56	1228,78
542,76	1353,71
542,95	1310,70
543,15	1189,87
543,35	1249,26
543,54	1261,55
543,74	1257,45
543,94	1228,78
544,14	1282,03
544,33	1308,65
544,53	1310,70
544,73	1171,44
544,93	1230,83
545,12	1247,21
545,32	1216,49
545,52	1224,69
545,71	1269,74
545,91	1265,64
546,11	1257,45
546,30	1308,65
546,50	1239,02
546,70	1236,97
546,90	1333,23
547,09	1273,84
547,29	1269,74
547,49	1257,45
547,68	1191,92
547,88	1292,27
548,08	1331,18
548,27	1318,89
548,47	1277,93
548,67	1234,93
548,87	1232,88
549,06	1245,16
549,26	1292,27
549,46	1247,21
549,65	1284,08
549,85	1271,79
550,05	1220,59
550,24	1267,69
550,44	1216,49
550,64	1228,78
550,83	1245,16
551,03	1251,31
551,23	1253,36
551,42	1296,36
551,62	1224,69
551,82	1257,45
552,01	1300,46
552,21	1302,51
552,41	1218,54
552,60	1351,66
552,80	1304,56
553,00	1218,54
553,19	1282,03
553,39	1251,31
553,59	1312,75
553,78	1349,61
553,98	1243,12
554,17	1277,93
554,37	1255,40
554,57	1243,12
554,76	1232,88
554,96	1189,87
555,16	1282,03
555,35	1263,60
555,55	1261,55
555,75	1224,69
555,94	1269,74
556,14	1181,68
556,33	1257,45
556,53	1241,07
556,73	1290,22
556,92	1302,51
557,12	1286,12
557,32	1200,11
557,51	1257,45
557,71	1318,89
557,90	1322,99
558,10	1292,27
558,30	1302,51
558,49	1310,70
558,69	1228,78
558,88	1187,82
559,08	1255,40
559,28	1241,07
559,47	1249,26
559,67	1263,60
559,86	1255,40
560,06	1296,36
560,26	1243,12
560,45	1282,03
560,65	1222,64
560,84	1271,79
561,04	1249,26
561,24	1232,88
561,43	1236,97
561,63	1271,79
561,82	1214,45
562,02	1243,12
562,22	1261,55
562,41	1310,70
562,61	1263,60
562,80	1253,36
563,00	1302,51
563,19	1253,36
563,39	1249,26
563,59	1277,93
563,78	1259,50
563,98	1253,36
564,17	1267,69
564,37	1277,93
564,56	1296,36
564,76	1212,40
564,96	1224,69
565,15	1255,40
565,35	1292,27
565,54	1234,93
565,74	1357,80
565,93	1239,02
566,13	1249,26
566,32	1312,75
566,52	1232,88
566,71	1216,49
566,91	1241,07
567,11	1189,87
567,30	1257,45
567,50	1273,84
567,69	1282,03
567,89	1234,93
568,08	1230,83
568,28	1234,93
568,47	1206,25
568,67	1269,74
568,86	1304,56
569,06	1279,98
569,25	1286,12
569,45	1271,79
569,64	1314,80
569,84	1267,69
570,04	1236,97
570,23	1331,18
570,43	1239,02
570,62	1257,45
570,82	1255,40
571,01	1296,36
571,21	1294,32
571,40	1320,94
571,60	1292,27
571,79	1263,60
571,99	1304,56
572,18	1261,55
572,38	1257,45
572,57	1275,88
572,77	1277,93
572,96	1269,74
573,16	1216,49
573,35	1232,88
573,55	1282,03
573,74	1249,26
573,94	1253,36
574,13	1298,41
574,33	1298,41
574,52	1251,31
574,71	1243,12
574,91	1263,60
575,10	1286,12
575,30	1249,26
575,49	1265,64
575,69	1259,50
575,88	1306,60
576,08	1257,45
576,27	1255,40
576,47	1322,99
576,66	1320,94
576,86	1247,21
577,05	1284,08
577,25	1261,55
577,44	1253,36
577,64	1292,27
577,83	1206,25
578,02	1259,50
578,22	1279,98
578,41	1290,22
578,61	1257,45
578,80	1267,69
579,00	1265,64
579,19	1216,49
579,39	1230,83
579,58	1251,31
579,77	1361,90
579,97	1316,84
580,16	1249,26
580,36	1236,97
580,55	1265,64
580,75	1327,08
580,94	1273,84
581,13	1300,46
581,33	1288,17
581,52	1202,16
581,72	1306,60
581,91	1318,89
582,11	1335,28
582,30	1263,60
582,49	1288,17
582,69	1224,69
582,88	1339,37
583,08	1325,04
583,27	1294,32
583,47	1343,47
583,66	1363,95
583,85	1239,02
584,05	1306,60
584,24	1249,26
584,44	1296,36
584,63	1275,88
584,82	1341,42
585,02	1318,89
585,21	1257,45
585,41	1327,08
585,60	1243,12
585,79	1298,41
585,99	1241,07
586,18	1241,07
586,37	1255,40
586,57	1316,84
586,76	1318,89
586,96	1284,08
587,15	1298,41
587,34	1316,84
587,54	1185,77
587,73	1247,21
587,93	1302,51
588,12	1298,41
588,31	1306,60
588,51	1277,93
588,70	1269,74
588,89	1257,45
589,09	1261,55
589,28	1296,36
589,47	1271,79
589,67	1292,27
589,86	1337,32
590,06	1261,55
590,25	1236,97
590,44	1306,60
590,64	1269,74
590,83	1314,80
591,02	1279,98
591,22	1302,51
591,41	1249,26
591,60	1282,03
591,80	1212,40
591,99	1300,46
592,18	1232,88
592,38	1226,73
592,57	1359,85
592,76	1251,31
592,96	1300,46
593,15	1253,36
593,34	1277,93
593,54	1216,49
593,73	1312,75
593,92	1259,50
594,12	1320,94
594,31	1292,27
594,50	1261,55
594,70	1183,73
594,89	1308,65
595,08	1263,60
595,28	1245,16
595,47	1191,92
595,66	1306,60
595,86	1249,26
596,05	1232,88
596,24	1255,40
596,43	1288,17
596,63	1245,16
596,82	1312,75
597,01	1302,51
597,21	1271,79
597,40	1241,07
597,59	1290,22
597,79	1308,65
597,98	1316,84
598,17	1259,50
598,36	1282,03
598,56	1212,40
598,75	1220,59
598,94	1232,88
599,14	1261,55
599,33	1298,41
599,52	1290,22
599,71	1277,93
599,91	1329,13
600,10	1212,40
600,29	1263,60
600,48	1216,49
600,68	1279,98
600,87	1255,40
601,06	1306,60
601,26	1261,55
601,45	1249,26
601,64	1284,08
601,83	1259,50
602,03	1206,25
602,22	1265,64
602,41	1322,99
602,60	1234,93
602,80	1288,17
602,99	1308,65
603,18	1310,70
603,37	1288,17
603,57	1337,32
603,76	1349,61
603,95	1370,09
604,14	1277,93
604,34	1200,11
604,53	1320,94
604,72	1322,99
604,91	1279,98
605,10	1202,16
605,30	1271,79
605,49	1261,55
605,68	1304,56
605,87	1232,88
606,07	1253,36
606,26	1236,97
606,45	1277,93
606,64	1292,27
606,84	1265,64
607,03	1191,92
607,22	1253,36
607,41	1253,36
607,60	1316,84
607,80	1337,32
607,99	1245,16
608,18	1269,74
608,37	1312,75
608,56	1269,74
608,76	1200,11
608,95	1200,11
609,14	1331,18
609,33	1259,50
609,52	1316,84
609,72	1286,12
609,91	1325,04
610,10	1267,69
610,29	1308,65
610,48	1290,22
610,68	1224,69
610,87	1298,41
611,06	1284,08
611,25	1308,65
611,44	1318,89
611,63	1251,31
611,83	1212,40
612,02	1224,69
612,21	1259,50
612,40	1314,80
612,59	1288,17
612,79	1228,78
612,98	1300,46
613,17	1322,99
613,36	1193,97
613,55	1261,55
613,74	1222,64
613,93	1277,93
614,13	1329,13
614,32	1222,64
614,51	1341,42
614,70	1183,73
614,89	1257,45
615,08	1226,73
615,28	1339,37
615,47	1273,84
615,66	1288,17
615,85	1296,36
616,04	1304,56
616,23	1284,08
616,42	1275,88
616,62	1224,69
616,81	1247,21
617,00	1292,27
617,19	1298,41
617,38	1267,69
617,57	1214,45
617,76	1261,55
617,95	1302,51
618,15	1267,69
618,34	1298,41
618,53	1222,64
618,72	1284,08
618,91	1243,12
619,10	1218,54
619,29	1202,16
619,48	1273,84
619,68	1245,16
619,87	1292,27
620,06	1241,07
620,25	1304,56
620,44	1308,65
620,63	1302,51
620,82	1294,32
621,01	1296,36
621,20	1290,22
621,39	1210,35
621,59	1296,36
621,78	1210,35
621,97	1255,40
622,16	1298,41
622,35	1282,03
622,54	1306,60
622,73	1298,41
622,92	1273,84
623,11	1288,17
623,30	1249,26
623,49	1230,83
623,68	1273,84
623,88	1267,69
624,07	1286,12
624,26	1214,45
624,45	1310,70
624,64	1302,51
624,83	1245,16
625,02	1241,07
625,21	1249,26
625,40	1331,18
625,59	1282,03
625,78	1224,69
625,97	1288,17
626,16	1265,64
626,35	1261,55
626,54	1304,56
626,74	1335,28
626,93	1228,78
627,12	1329,13
627,31	1259,50
627,50	1247,21
627,69	1292,27
627,88	1265,64
628,07	1353,71
628,26	1212,40
628,45	1298,41
628,64	1265,64
628,83	1300,46
629,02	1257,45
629,21	1333,23
629,40	1282,03
629,59	1243,12
629,78	1230,83
629,97	1370,09
630,16	1357,80
630,35	1296,36
630,54	1284,08
630,73	1306,60
630,92	1290,22
631,11	1325,04
631,30	1316,84
631,49	1306,60
631,68	1411,05
631,87	1628,14
632,06	2301,92
632,25	2009,06
632,44	2252,77
632,63	2265,05
632,82	2576,34
633,01	3985,35
633,20	6256,54
633,39	10393,44
633,58	14683,94
633,77	18042,60
633,96	18716,39
634,15	16172,81
634,34	11239,25
634,53	6485,92
634,72	3717,06
634,91	2461,66
635,10	2389,98
635,29	2265,05
635,48	2191,33
635,67	1986,53
635,86	1853,41
636,05	1828,84
636,24	1798,12
636,43	1638,38
636,62	1648,61
636,81	1595,37
637,00	1587,18
637,19	1509,35
637,38	1398,76
637,57	1363,95
637,76	1394,67
637,95	1329,13
638,14	1378,28
638,33	1359,85
638,52	1429,48
638,71	1300,46
638,89	1312,75
639,08	1286,12
639,27	1271,79
639,46	1308,65
639,65	1304,56
639,84	1361,90
640,03	1286,12
640,22	1296,36
640,41	1314,80
640,60	1312,75
640,79	1282,03
640,98	1314,80
641,17	1345,52
641,36	1214,45
641,55	1298,41
641,74	1271,79
641,92	1224,69
642,11	1286,12
642,30	1230,83
642,49	1273,84
642,68	1261,55
642,87	1300,46
643,06	1290,22
643,25	1210,35
643,44	1232,88
643,63	1298,41
643,82	1302,51
644,00	1228,78
644,19	1279,98
644,38	1239,02
644,57	1320,94
644,76	1325,04
644,95	1220,59
645,14	1288,17
645,33	1261,55
645,52	1226,73
645,71	1273,84
645,89	1236,97
646,08	1232,88
646,27	1134,57
646,46	1331,18
646,65	1292,27
646,84	1302,51
647,03	1327,08
647,22	1259,50
647,40	1216,49
647,59	1279,98
647,78	1214,45
647,97	1288,17
648,16	1247,21
648,35	1294,32
648,54	1312,75
648,73	1249,26
648,91	1314,80
649,10	1277,93
649,29	1341,42
649,48	1269,74
649,67	1234,93
649,86	1320,94
650,05	1245,16
650,23	1275,88
650,42	1296,36
650,61	1290,22
650,80	1265,64
650,99	1304,56
651,18	1271,79
651,36	1271,79
651,55	1224,69
651,74	1267,69
651,93	1353,71
652,12	1312,75
652,31	1249,26
652,49	1234,93
652,68	1267,69
652,87	1228,78
653,06	1243,12
653,25	1228,78
653,44	1247,21
653,62	1275,88
653,81	1251,31
654,00	1181,68
654,19	1247,21
654,38	1314,80
654,56	1241,07
654,75	1271,79
654,94	1259,50
655,13	1259,50
655,32	1226,73
655,51	1337,32
655,69	1228,78
655,88	1226,73
656,07	1304,56
656,26	1261,55
656,45	1257,45
656,63	1320,94
656,82	1282,03
657,01	1320,94
657,20	1263,60
657,38	1294,32
657,57	1247,21
657,76	1259,50
657,95	1290,22
658,14	1306,60
658,32	1243,12
658,51	1230,83
658,70	1257,45
658,89	1241,07
659,08	1255,40
659,26	1374,19
659,45	1210,35
659,64	1294,32
659,83	1288,17
660,01	1282,03
660,20	1191,92
660,39	1257,45
660,58	1247,21
660,76	1279,98
660,95	1261,55
661,14	1243,12
661,33	1310,70
661,51	1286,12
661,70	1363,95
661,89	1275,88
662,08	1232,88
662,26	1279,98
662,45	1308,65
662,64	1206,25
662,83	1245,16
663,01	1298,41
663,20	1290,22
663,39	1306,60
663,58	1257,45
663,76	1224,69
663,95	1212,40
664,14	1288,17
664,32	1247,21
664,51	1220,59
664,70	1327,08
664,89	1253,36
665,07	1331,18
665,26	1230,83
665,45	1247,21
665,64	1241,07
665,82	1312,75
666,01	1243,12
666,20	1216,49
666,38	1282,03
666,57	1175,53
666,76	1259,50
666,95	1261,55
667,13	1269,74
667,32	1288,17
667,51	1353,71
667,69	1269,74
667,88	1259,50
668,07	1314,80
668,25	1298,41
668,44	1310,70
668,63	1245,16
668,81	1228,78
669,00	1267,69
669,19	1347,56
669,38	1310,70
669,56	1210,35
669,75	1277,93
669,94	1234,93
670,12	1304,56
670,31	1275,88
670,50	1292,27
670,68	1277,93
670,87	1320,94
671,06	1191,92
671,24	1282,03
671,43	1218,54
671,62	1265,64
671,80	1273,84
671,99	1290,22
672,18	1312,75
672,36	1253,36
672,55	1286,12
672,74	1298,41
672,92	1212,40
673,11	1302,51
673,29	1249,26
673,48	1232,88
673,67	1259,50
673,85	1314,80
674,04	1218,54
674,23	1298,41
674,41	1290,22
674,60	1275,88
674,79	1241,07
674,97	1298,41
675,16	1224,69
675,34	1300,46
675,53	1249,26
675,72	1161,20
675,90	1298,41
676,09	1294,32
676,28	1269,74
676,46	1341,42
676,65	1234,93
676,83	1294,32
677,02	1339,37
677,21	1257,45
677,39	1234,93
677,58	1275,88
677,77	1290,22
677,95	1255,40
678,14	1261,55
678,32	1306,60
678,51	1296,36
678,70	1361,90
678,88	1308,65
679,07	1261,55
679,25	1208,30
679,44	1202,16
679,63	1236,97
679,81	1298,41
680,00	1191,92
680,18	1320,94
680,37	1255,40
680,55	1300,46
680,74	1306,60
680,93	1212,40
681,11	1290,22
681,30	1296,36
681,48	1275,88
681,67	1241,07
681,85	1271,79
682,04	1234,93
682,23	1265,64
682,41	1275,88
682,60	1316,84
682,78	1255,40
682,97	1298,41
683,15	1245,16
683,34	1247,21
683,53	1318,89
683,71	1286,12
683,90	1282,03
684,08	1277,93
684,27	1214,45
684,45	1275,88
684,64	1269,74
684,82	1251,31
685,01	1292,27
685,19	1331,18
685,38	1273,84
685,57	1253,36
685,75	1271,79
685,94	1157,10
686,12	1288,17
686,31	1286,12
686,49	1302,51
686,68	1269,74
686,86	1363,95
687,05	1243,12
687,23	1245,16
687,42	1275,88
687,60	1271,79
687,79	1296,36
687,97	1241,07
688,16	1339,37
688,34	1226,73
688,53	1259,50
688,71	1302,51
688,90	1257,45
689,08	1271,79
689,27	1261,55
689,45	1286,12
689,64	1277,93
689,82	1208,30
690,01	1277,93
690,19	1226,73
690,38	1232,88
690,56	1320,94
690,75	1234,93
690,93	1232,88
691,12	1234,93
691,30	1288,17
691,49	1300,46
691,67	1298,41
691,86	1296,36
692,04	1226,73
692,23	1265,64
692,41	1271,79
692,60	1277,93
692,78	1314,80
692,97	1331,18
693,15	1271,79
693,34	1325,04
693,52	1286,12
693,71	1282,03
693,89	1193,97
694,08	1257,45
694,26	1265,64
694,44	1239,02
694,63	1290,22
694,81	1298,41
695,00	1279,98
695,18	1286,12
695,37	1304,56
695,55	1220,59
695,74	1241,07
695,92	1294,32
696,10	1349,61
696,29	1286,12
696,47	1232,88
696,66	1267,69
696,84	1267,69
697,03	1245,16
697,21	1286,12
697,40	1302,51
697,58	1294,32
697,76	1277,93
697,95	1288,17
698,13	1316,84
698,32	1327,08
698,50	1314,80
698,68	1267,69
698,87	1292,27
699,05	1314,80
699,24	1251,31
699,42	1374,19
699,61	1302,51
699,79	1239,02
699,97	1312,75
700,16	1216,49
700,34	1226,73
700,53	1263,60
700,71	1257,45
700,89	1306,60
701,08	1269,74
701,26	1249,26
701,45	1263,60
701,63	1257,45
701,81	1251,31
702,00	1261,55
702,18	1273,84
702,37	1292,27
702,55	1265,64
702,73	1220,59
702,92	1245,16
703,10	1228,78
703,28	1308,65
703,47	1245,16
703,65	1245,16
703,84	1269,74
704,02	1339,37
704,20	1284,08
704,39	1304,56
704,57	1290,22
704,75	1294,32
704,94	1279,98
705,12	1359,85
705,30	1318,89
705,49	1269,74
705,67	1325,04
705,86	1337,32
706,04	1277,93
706,22	1273,84
706,41	1282,03
706,59	1245,16
706,77	1267,69
706,96	1263,60
707,14	1236,97
707,32	1277,93
707,51	1282,03
707,69	1140,72
707,87	1288,17
708,06	1282,03
708,24	1304,56
708,42	1292,27
708,61	1249,26
708,79	1273,84
708,97	1257,45
709,16	1247,21
709,34	1286,12
709,52	1232,88
709,71	1249,26
709,89	1298,41
710,07	1269,74
710,26	1247,21
710,44	1222,64
710,62	1206,25
710,80	1292,27
710,99	1265,64
711,17	1251,31
711,35	1241,07
711,54	1302,51
711,72	1249,26
711,90	1322,99
712,09	1183,73
712,27	1279,98
712,45	1269,74
712,63	1310,70
712,82	1269,74
713,00	1275,88
713,18	1304,56
713,37	1255,40
713,55	1241,07
713,73	1275,88
713,91	1269,74
714,10	1312,75
714,28	1320,94
714,46	1269,74
714,65	1279,98
714,83	1275,88
715,01	1327,08
715,19	1306,60
715,38	1267,69
715,56	1245,16
715,74	1196,01
715,92	1277,93
716,11	1196,01
716,29	1259,50
716,47	1245,16
716,65	1239,02
716,84	1241,07
717,02	1320,94
717,20	1224,69
717,38	1288,17
717,57	1271,79
717,75	1296,36
717,93	1183,73
718,11	1249,26
718,30	1212,40
718,48	1314,80
718,66	1265,64
718,84	1300,46
719,03	1361,90
719,21	1263,60
719,39	1216,49
719,57	1277,93
719,75	1298,41
719,94	1279,98
720,12	1202,16
720,30	1239,02
720,48	1277,93
720,67	1257,45
720,85	1232,88
721,03	1249,26
721,21	1220,59
721,39	1273,84
721,58	1304,56
721,76	1249,26
721,94	1251,31
722,12	1228,78
722,30	1312,75
722,49	1327,08
722,67	1259,50
722,85	1206,25
723,03	1216,49
723,21	1255,40
723,40	1247,21
723,58	1312,75
723,76	1277,93
723,94	1222,64
724,12	1253,36
724,30	1259,50
724,49	1374,19
724,67	1253,36
724,85	1359,85
725,03	1232,88
725,21	1255,40
725,40	1331,18
725,58	1241,07
725,76	1263,60
725,94	1286,12
726,12	1239,02
726,30	1331,18
726,49	1255,40
726,67	1331,18
726,85	1239,02
727,03	1263,60
727,21	1261,55
727,39	1318,89
727,57	1261,55
727,76	1247,21
727,94	1243,12
728,12	1304,56
728,30	1245,16
728,48	1255,40
728,66	1255,40
728,84	1286,12
729,03	1232,88
729,21	1265,64
729,39	1257,45
729,57	1247,21
729,75	1263,60
729,93	1259,50
730,11	1273,84
730,30	1325,04
730,48	1241,07
730,66	1263,60
730,84	1247,21
731,02	1302,51
731,20	1189,87
731,38	1327,08
731,56	1271,79
731,74	1288,17
731,93	1296,36
732,11	1267,69
732,29	1284,08
732,47	1349,61
732,65	1294,32
732,83	1261,55
733,01	1249,26
733,19	1257,45
733,37	1294,32
733,56	1206,25
733,74	1335,28
733,92	1249,26
734,10	1212,40
734,28	1230,83
734,46	1312,75
734,64	1333,23
734,82	1259,50
735,00	1298,41
735,18	1320,94
735,36	1214,45
735,54	1273,84
735,73	1308,65
735,91	1257,45
736,09	1275,88
736,27	1275,88
736,45	1343,47
736,63	1331,18
736,81	1245,16
736,99	1263,60
737,17	1312,75
737,35	1249,26
737,53	1279,98
737,71	1267,69
737,89	1339,37
738,07	1191,92
738,25	1259,50
738,43	1259,50
738,61	1312,75
738,80	1290,22
738,98	1208,30
739,16	1275,88
739,34	1314,80
739,52	1329,13
739,70	1329,13
739,88	1318,89
740,06	1267,69
740,24	1249,26
740,42	1257,45
740,60	1308,65
740,78	1286,12
740,96	1271,79
741,14	1277,93
741,32	1230,83
741,50	1249,26
741,68	1269,74
741,86	1325,04
742,04	1273,84
742,22	1271,79
742,40	1273,84
742,58	1267,69
742,76	1273,84
742,94	1245,16
743,12	1296,36
743,30	1279,98
743,48	1331,18
743,66	1273,84
743,84	1263,60
744,02	1247,21
744,20	1253,36
744,38	1275,88
744,56	1282,03
744,74	1286,12
744,92	1259,50
745,10	1267,69
745,28	1306,60
745,46	1263,60
745,64	1304,56
745,82	1171,44
746,00	1277,93
746,18	1284,08
746,36	1249,26
746,54	1216,49
746,72	1277,93
746,90	1310,70
747,08	1282,03
747,26	1271,79
747,44	1220,59
747,62	1216,49
747,80	1273,84
747,98	1310,70
748,15	1210,35
748,33	1279,98
748,51	1273,84
748,69	1337,32
748,87	1236,97
749,05	1284,08
749,23	1259,50
749,41	1243,12
749,59	1294,32
749,77	1241,07
749,95	1255,40
750,13	1253,36
750,31	1290,22
750,49	1259,50
750,67	1273,84
750,85	1249,26
751,03	1288,17
751,20	1286,12
751,38	1249,26
751,56	1327,08
751,74	1261,55
751,92	1255,40
752,10	1249,26
752,28	1294,32
752,46	1257,45
752,64	1318,89
752,82	1234,93
753,00	1245,16
753,18	1206,25
753,35	1271,79
753,53	1341,42
753,71	1282,03
753,89	1253,36
754,07	1296,36
754,25	1271,79
754,43	1230,83
754,61	1312,75
754,79	1228,78
754,97	1265,64
755,14	1300,46
755,32	1263,60
755,50	1273,84
755,68	1269,74
755,86	1243,12
756,04	1298,41
756,22	1282,03
756,40	1269,74
756,57	1200,11
756,75	1279,98
756,93	1243,12
757,11	1384,43
757,29	1333,23
757,47	1296,36
757,65	1259,50
757,82	1220,59
758,00	1236,97
758,18	1265,64
758,36	1261,55
758,54	1288,17
758,72	1232,88
758,90	1241,07
759,07	1273,84
759,25	1320,94
759,43	1255,40
759,61	1267,69
759,79	1318,89
759,97	1181,68
760,15	1277,93
760,32	1243,12
760,50	1234,93
760,68	1257,45
760,86	1298,41
761,04	1253,36
761,22	1335,28
761,39	1282,03
761,57	1302,51
761,75	1234,93
761,93	1273,84
762,11	1236,97
762,28	1261,55
762,46	1247,21
762,64	1370,09
762,82	1333,23
763,00	1320,94
763,18	1343,47
763,35	1236,97
763,53	1339,37
763,71	1222,64
763,89	1253,36
764,07	1294,32
764,24	1337,32
764,42	1245,16
764,60	1257,45
764,78	1169,39
764,96	1214,45
765,13	1306,60
765,31	1265,64
765,49	1255,40
765,67	1306,60
765,84	1251,31
766,02	1306,60
766,20	1212,40
766,38	1296,36
766,56	1265,64
766,73	1341,42
766,91	1290,22
767,09	1269,74
767,27	1355,76
767,44	1275,88
767,62	1183,73
767,80	1273,84
767,98	1257,45
768,15	1206,25
768,33	1279,98
768,51	1196,01
768,69	1208,30
768,87	1251,31
769,04	1277,93
769,22	1351,66
769,40	1335,28
769,58	1290,22
769,75	1327,08
769,93	1265,64
770,11	1257,45
770,28	1292,27
770,46	1296,36
770,64	1255,40
770,82	1177,58
770,99	1322,99
771,17	1277,93
771,35	1314,80
771,53	1290,22
771,70	1320,94
771,88	1243,12
772,06	1253,36
772,23	1226,73
772,41	1277,93
772,59	1220,59
772,77	1200,11
772,94	1226,73
773,12	1284,08
773,30	1236,97
773,47	1304,56
773,65	1263,60
773,83	1273,84
774,01	1257,45
774,18	1343,47
774,36	1275,88
774,54	1294,32
774,71	1255,40
774,89	1259,50
775,07	1247,21
775,24	1271,79
775,42	1277,93
775,60	1304,56
775,78	1298,41
775,95	1206,25
776,13	1249,26
776,31	1337,32
776,48	1271,79
776,66	1253,36
776,84	1263,60
777,01	1359,85
777,19	1249,26
777,37	1282,03
777,54	1239,02
777,72	1257,45
777,90	1322,99
778,07	1279,98
778,25	1294,32
778,43	1345,52
778,60	1333,23
778,78	1239,02
778,96	1286,12
779,13	1261,55
779,31	1288,17
779,49	1273,84
779,66	1259,50
779,84	1284,08
780,01	1216,49
780,19	1316,84
780,37	1296,36
780,54	1298,41
780,72	1257,45
780,90	1298,41
781,07	1191,92
781,25	1290,22
781,43	1251,31
781,60	1304,56
781,78	1230,83
781,95	1245,16
782,13	1306,60
782,31	1273,84
782,48	1261,55
782,66	1239,02
782,83	1241,07
783,01	1265,64
783,19	1218,54
783,36	1198,06
783,54	1294,32
783,72	1288,17
783,89	1277,93
784,07	1241,07
784,24	1286,12
784,42	1241,07
784,60	1292,27
784,77	1302,51
784,95	1363,95
785,12	1271,79
785,30	1300,46
785,47	1273,84
785,65	1261,55
785,83	1212,40
786,00	1224,69
786,18	1320,94
786,35	1210,35
786,53	1206,25
786,71	1220,59
786,88	1253,36
787,06	1216,49
787,23	1267,69
787,41	1210,35
787,58	1218,54
787,76	1230,83
787,94	1257,45
788,11	1228,78
788,29	1277,93
788,46	1255,40
788,64	1318,89
788,81	1312,75
788,99	1216,49
789,16	1236,97
789,34	1284,08
789,52	1263,60
789,69	1277,93
789,87	1257,45
790,04	1306,60
790,22	1269,74
790,39	1241,07
790,57	1351,66
790,74	1232,88
790,92	1298,41
791,09	1325,04
791,27	1294,32
791,44	1290,22
791,62	1310,70
791,79	1345,52
791,97	1234,93
792,15	1253,36
792,32	1335,28
792,50	1255,40
792,67	1290,22
792,85	1271,79
793,02	1271,79
793,20	1261,55
793,37	1318,89
793,55	1255,40
793,72	1277,93
793,90	1320,94
794,07	1304,56
794,25	1245,16
794,42	1277,93
794,60	1257,45
794,77	1322,99
794,95	1273,84
795,12	1273,84
795,30	1275,88
795,47	1232,88
795,65	1279,98
795,82	1282,03
796,00	1226,73
796,17	1251,31
796,34	1261,55
796,52	1226,73
796,69	1308,65
796,87	1290,22
797,04	1304,56
797,22	1253,36
797,39	1265,64
797,57	1257,45
797,74	1333,23
797,92	1224,69
798,09	1218,54
798,27	1220,59
798,44	1294,32
798,62	1327,08
798,79	1296,36
798,96	1314,80
799,14	1255,40
799,31	1259,50
799,49	1216,49
799,66	1189,87
799,84	1208,30
800,01	1259,50
800,19	1355,76
800,36	1267,69
800,53	1206,25
800,71	1208,30
800,88	1304,56
801,06	1269,74
801,23	1267,69
801,41	1255,40
801,58	1239,02
801,75	1267,69
801,93	1271,79
802,10	1261,55
802,28	1247,21
802,45	1290,22
802,63	1265,64
802,80	1196,01
802,97	1296,36
803,15	1335,28
803,32	1241,07
803,50	1196,01
803,67	1269,74
803,84	1273,84
804,02	1302,51
804,19	1308,65
804,37	1253,36
804,54	1232,88
804,71	1282,03
804,89	1267,69
805,06	1257,45
805,24	1282,03
805,41	1331,18
805,58	1249,26
805,76	1239,02
805,93	1267,69
806,10	1273,84
806,28	1228,78
806,45	1239,02
806,63	1267,69
806,80	1298,41
806,97	1327,08
807,15	1300,46
807,32	1253,36
807,49	1271,79
807,67	1314,80
807,84	1236,97
808,01	1306,60
808,19	1284,08
808,36	1232,88
808,54	1288,17
808,71	1255,40
808,88	1294,32
809,06	1306,60
809,23	1265,64
809,40	1222,64
809,58	1290,22
809,75	1187,82
809,92	1298,41
810,10	1308,65
810,27	1290,22
810,44	1273,84
810,62	1239,02
810,79	1257,45
810,96	1310,70
811,14	1230,83
811,31	1294,32
811,48	1282,03
811,66	1249,26
811,83	1282,03
812,00	1239,02
812,18	1255,40
812,35	1320,94
812,52	1286,12
812,69	1236,97
812,87	1255,40
813,04	1284,08
813,21	1339,37
813,39	1234,93
813,56	1345,52
813,73	1279,98
813,91	1202,16
814,08	1255,40
814,25	1253,36
814,42	1187,82
814,60	1286,12
814,77	1265,64
814,94	1269,74
815,12	1284,08
815,29	1296,36
815,46	1353,71
815,63	1284,08
815,81	1296,36
815,98	1322,99
816,15	1269,74
816,33	1222,64
816,50	1265,64
816,67	1253,36
816,84	1312,75
817,02	1218,54
817,19	1269,74
817,36	1308,65
817,53	1263,60
817,71	1316,84
817,88	1300,46
818,05	1210,35
818,22	1226,73
818,40	1288,17
818,57	1267,69
818,74	1279,98
818,91	1284,08
819,09	1322,99
819,26	1245,16
819,43	1261,55
819,60	1265,64
819,78	1273,84
819,95	1253,36
820,12	1218,54
820,29	1271,79
820,47	1290,22
820,64	1298,41
820,81	1167,34
820,98	1282,03
821,15	1255,40
821,33	1216,49
821,50	1230,83
821,67	1253,36
821,84	1290,22
822,02	1214,45
822,19	1343,47
822,36	1228,78
822,53	1318,89
822,70	1249,26
822,88	1337,32
823,05	1318,89
823,22	1294,32
823,39	1251,31
823,56	1304,56
823,74	1302,51
823,91	1368,04
824,08	1279,98
824,25	1241,07
824,42	1204,21
824,60	1294,32
824,77	1339,37
824,94	1218,54
825,11	1355,76
825,28	1300,46
825,45	1214,45
825,63	1325,04
825,80	1206,25
825,97	1243,12
826,14	1312,75
826,31	1216,49
826,48	1228,78
826,66	1216,49
826,83	1216,49
827,00	1310,70
827,17	1337,32
827,34	1286,12
827,51	1259,50
827,69	1259,50
827,86	1290,22
828,03	1304,56
828,20	1282,03
828,37	1300,46
828,54	1257,45
828,71	1294,32
828,89	1310,70
829,06	1282,03
829,23	1288,17
829,40	1241,07
829,57	1239,02
829,74	1208,30
829,91	1329,13
830,09	1304,56
830,26	1337,32
830,43	1322,99
830,60	1222,64
830,77	1302,51
830,94	1275,88
831,11	1249,26
831,28	1249,26
831,46	1249,26
831,63	1292,27
831,80	1296,36
831,97	1208,30
832,14	1271,79
832,31	1241,07
832,48	1193,97
832,65	1284,08
832,82	1349,61
832,99	1241,07
833,17	1308,65
833,34	1239,02
833,51	1300,46
833,68	1259,50
833,85	1239,02
834,02	1277,93
834,19	1275,88
834,36	1304,56
834,53	1318,89
834,70	1275,88
834,87	1245,16
835,04	1308,65
835,22	1204,21
835,39	1255,40
835,56	1261,55
835,73	1296,36
835,90	1253,36
836,07	1222,64
836,24	1339,37
836,41	1288,17
836,58	1257,45
836,75	1224,69
836,92	1284,08
837,09	1296,36
837,26	1290,22
837,43	1294,32
837,60	1261,55
837,77	1302,51
837,94	1308,65
838,12	1294,32
838,29	1335,28
838,46	1239,02
838,63	1177,58
838,80	1273,84
838,97	1239,02
839,14	1329,13
839,31	1288,17
839,48	1265,64
839,65	1320,94
839,82	1308,65
839,99	1261,55
840,16	1343,47
840,33	1298,41
840,50	1282,03
840,67	1208,30
840,84	1267,69
841,01	1222,64
841,18	1241,07
841,35	1241,07
841,52	1320,94
841,69	1273,84
841,86	1241,07
842,03	1230,83
842,20	1288,17
842,37	1277,93
842,54	1245,16
842,71	1224,69
842,88	1294,32
843,05	1265,64
843,22	1347,56
843,39	1259,50
843,56	1206,25
843,73	1232,88
843,90	1220,59
844,07	1341,42
844,24	1275,88
844,41	1255,40
844,58	1298,41
844,75	1314,80
844,92	1232,88
845,09	1284,08
845,26	1212,40
845,43	1230,83
845,60	1234,93
845,77	1220,59
845,94	1177,58
846,10	1226,73
846,27	1206,25
846,44	1222,64
846,61	1290,22
846,78	1306,60
846,95	1331,18
847,12	1212,40
847,29	1298,41
847,46	1259,50
847,63	1275,88
847,80	1267,69
847,97	1290,22
848,14	1322,99
848,31	1249,26
848,48	1253,36
848,65	1325,04
848,82	1292,27
848,98	1216,49
849,15	1335,28
849,32	1335,28
849,49	1234,93
849,66	1275,88
849,83	1314,80
850,00	1282,03
850,17	1230,83
850,34	1327,08
850,51	1277,93
850,68	1318,89
850,85	1253,36
851,01	1245,16
851,18	1284,08
851,35	1273,84
851,52	1300,46
851,69	1251,31
851,86	1226,73
852,03	1259,50
852,20	1304,56
852,37	1296,36
852,53	1269,74
852,70	1263,60
852,87	1267,69
853,04	1251,31
853,21	1265,64
853,38	1247,21
853,55	1222,64
853,72	1298,41
853,89	1234,93
854,05	1282,03
854,22	1251,31
854,39	1320,94
854,56	1341,42
854,73	1159,15
854,90	1300,46
855,07	1273,84
855,23	1314,80
855,40	1275,88
855,57	1220,59
855,74	1269,74
855,91	1243,12
856,08	1220,59
856,25	1312,75
856,41	1265,64
856,58	1230,83
856,75	1251,31
856,92	1306,60
857,09	1343,47
857,26	1241,07
857,42	1277,93
857,59	1308,65
857,76	1277,93
857,93	1212,40
858,10	1220,59
858,27	1265,64
858,43	1320,94
858,60	1222,64
858,77	1212,40
858,94	1243,12
859,11	1271,79
859,27	1335,28
859,44	1339,37
859,61	1329,13
859,78	1259,50
859,95	1300,46
860,12	1241,07
860,28	1277,93
860,45	1253,36
860,62	1286,12
860,79	1239,02
860,95	1267,69
861,12	1157,10
861,29	1255,40
861,46	1304,56
861,63	1298,41
861,79	1228,78
861,96	1302,51
862,13	1294,32
862,30	1341,42
862,47	1202,16
862,63	1277,93
862,80	1294,32
862,97	1210,35
863,14	1296,36
863,30	1259,50
863,47	1314,80
863,64	1288,17
863,81	1247,21
863,97	1288,17
864,14	1230,83
864,31	1286,12
864,48	1214,45
864,65	1306,60
864,81	1236,97
864,98	1288,17
865,15	1312,75
865,32	1312,75
865,48	1204,21
865,65	1273,84
865,82	1265,64
865,98	1236,97
866,15	1269,74
866,32	1245,16
866,49	1261,55
866,65	1343,47
866,82	1234,93
866,99	1273,84
867,16	1306,60
867,32	1249,26
867,49	1296,36
867,66	1333,23
867,83	1294,32
867,99	1296,36
868,16	1269,74
868,33	1253,36
868,49	1241,07
868,66	1292,27
868,83	1277,93
868,99	1230,83
869,16	1312,75
869,33	1288,17
869,50	1298,41
869,66	1339,37
869,83	1257,45
870,00	1220,59
870,16	1302,51
870,33	1251,31
870,50	1216,49
870,66	1204,21
870,83	1269,74
871,00	1220,59
871,17	1290,22
871,33	1267,69
871,50	1230,83
871,67	1267,69
871,83	1241,07
872,00	1275,88
872,17	1314,80
872,33	1265,64
872,50	1222,64
872,67	1269,74
872,83	1322,99
873,00	1310,70
873,17	1265,64
873,33	1265,64
873,50	1273,84
873,67	1230,83
873,83	1265,64
874,00	1247,21
874,16	1282,03
874,33	1261,55
874,50	1234,93
874,66	1322,99
874,83	1255,40
875,00	1206,25
875,16	1290,22
875,33	1263,60
875,50	1249,26
875,66	1296,36
875,83	1263,60
875,99	1288,17
876,16	1300,46
876,33	1327,08
876,49	1247,21
876,66	1243,12
876,83	1286,12
876,99	1282,03
877,16	1294,32
877,32	1294,32
877,49	1294,32
877,66	1263,60
877,82	1259,50
877,99	1290,22
878,15	1318,89
878,32	1288,17
878,49	1230,83
878,65	1275,88
878,82	1279,98
878,98	1277,93
879,15	1310,70
879,32	1269,74
879,48	1329,13
879,65	1230,83
879,81	1279,98
879,98	1265,64
880,15	1296,36
880,31	1187,82
880,48	1208,30
880,64	1288,17
880,81	1183,73
880,97	1286,12
881,14	1273,84
881,31	1277,93
881,47	1200,11
881,64	1241,07
881,80	1306,60
881,97	1179,63
882,13	1300,46
882,30	1193,97
882,47	1273,84
882,63	1269,74
882,80	1273,84
882,96	1296,36
883,13	1320,94
883,29	1341,42
883,46	1288,17
883,62	1261,55
883,79	1245,16
883,95	1193,97
884,12	1351,66
884,29	1347,56
884,45	1359,85
884,62	1271,79
884,78	1241,07
884,95	1247,21
885,11	1196,01
885,28	1314,80
885,44	1267,69
885,61	1255,40
885,77	1308,65
885,94	1226,73
886,10	1224,69
886,27	1243,12
886,43	1255,40
886,60	1230,83
886,76	1275,88
886,93	1286,12
887,09	1247,21
887,26	1308,65
887,42	1265,64
887,59	1208,30
887,75	1320,94
887,92	1275,88
888,08	1302,51
888,25	1193,97
888,41	1284,08
888,58	1370,09
888,74	1269,74
888,91	1329,13
>>>>>End Processed Spectral Data<<<<<
