SpectraSuite Data File
++++++++++++++++++++++++++++++++++++
Date: Sun Apr 03 16:43:34 CEST 2016
User: root
Dark Spectrum Present: No
Reference Spectrum Present: No
Number of Sampled Component Spectra: 1
Spectrometers: USB4C02835
Integration Time (usec): 10000 (USB4C02835)
Spectra Averaged: 1 (USB4C02835)
Boxcar Smoothing: 0 (USB4C02835)
Correct for Electrical Dark: No (USB4C02835)
Strobe/Lamp Enabled: No (USB4C02835)
Correct for Detector Non-linearity: No (USB4C02835)
Correct for Stray Light: No (USB4C02835)
Number of Pixels in Processed Spectrum: 3648
>>>>>Begin Processed Spectral Data<<<<<
177,47	1316,84
177,69	1316,84
177,91	1316,84
178,13	1261,55
178,36	1224,69
178,58	1243,12
178,80	1314,80
179,02	1230,83
179,24	1177,58
179,46	1292,27
179,68	1247,21
179,90	1263,60
180,13	1169,39
180,35	1277,93
180,57	1216,49
180,79	1292,27
181,01	1288,17
181,23	1298,41
181,45	1210,35
181,67	1249,26
181,90	1265,64
182,12	1202,16
182,34	1257,45
182,56	1269,74
182,78	1263,60
183,00	1236,97
183,22	1296,36
183,44	1322,99
183,66	1290,22
183,89	1300,46
184,11	1290,22
184,33	1183,73
184,55	1222,64
184,77	1298,41
184,99	1224,69
185,21	1271,79
185,43	1249,26
185,65	1251,31
185,87	1327,08
186,10	1298,41
186,32	1230,83
186,54	1216,49
186,76	1226,73
186,98	1273,84
187,20	1226,73
187,42	1259,50
187,64	1249,26
187,86	1239,02
188,08	1310,70
188,30	1322,99
188,52	1202,16
188,75	1331,18
188,97	1269,74
189,19	1335,28
189,41	1249,26
189,63	1279,98
189,85	1175,53
190,07	1253,36
190,29	1220,59
190,51	1331,18
190,73	1318,89
190,95	1230,83
191,17	1271,79
191,39	1212,40
191,61	1361,90
191,84	1255,40
192,06	1290,22
192,28	1185,77
192,50	1202,16
192,72	1251,31
192,94	1304,56
193,16	1196,01
193,38	1322,99
193,60	1253,36
193,82	1243,12
194,04	1204,21
194,26	1255,40
194,48	1247,21
194,70	1177,58
194,92	1255,40
195,14	1292,27
195,36	1214,45
195,58	1331,18
195,80	1216,49
196,02	1249,26
196,24	1296,36
196,46	1286,12
196,69	1288,17
196,91	1269,74
197,13	1261,55
197,35	1261,55
197,57	1253,36
197,79	1257,45
198,01	1204,21
198,23	1271,79
198,45	1261,55
198,67	1249,26
198,89	1257,45
199,11	1271,79
199,33	1292,27
199,55	1255,40
199,77	1247,21
199,99	1306,60
200,21	1320,94
200,43	1218,54
200,65	1261,55
200,87	1224,69
201,09	1228,78
201,31	1267,69
201,53	1300,46
201,75	1282,03
201,97	1331,18
202,19	1331,18
202,41	1212,40
202,63	1265,64
202,85	1245,16
203,07	1257,45
203,29	1261,55
203,51	1265,64
203,73	1255,40
203,95	1265,64
204,17	1269,74
204,39	1265,64
204,61	1257,45
204,83	1339,37
205,05	1282,03
205,27	1267,69
205,49	1261,55
205,71	1253,36
205,93	1329,13
206,15	1189,87
206,37	1296,36
206,59	1253,36
206,81	1249,26
207,03	1247,21
207,25	1282,03
207,47	1251,31
207,69	1249,26
207,91	1329,13
208,13	1372,14
208,34	1327,08
208,56	1239,02
208,78	1255,40
209,00	1226,73
209,22	1212,40
209,44	1288,17
209,66	1288,17
209,88	1306,60
210,10	1333,23
210,32	1279,98
210,54	1300,46
210,76	1189,87
210,98	1214,45
211,20	1282,03
211,42	1196,01
211,64	1216,49
211,86	1335,28
212,08	1267,69
212,30	1304,56
212,52	1216,49
212,74	1327,08
212,96	1265,64
213,17	1241,07
213,39	1245,16
213,61	1320,94
213,83	1310,70
214,05	1292,27
214,27	1296,36
214,49	1290,22
214,71	1298,41
214,93	1277,93
215,15	1310,70
215,37	1255,40
215,59	1253,36
215,81	1296,36
216,03	1265,64
216,24	1232,88
216,46	1343,47
216,68	1189,87
216,90	1259,50
217,12	1279,98
217,34	1290,22
217,56	1249,26
217,78	1267,69
218,00	1265,64
218,22	1257,45
218,44	1271,79
218,66	1290,22
218,87	1322,99
219,09	1275,88
219,31	1277,93
219,53	1251,31
219,75	1226,73
219,97	1310,70
220,19	1241,07
220,41	1265,64
220,63	1259,50
220,85	1320,94
221,06	1265,64
221,28	1253,36
221,50	1247,21
221,72	1202,16
221,94	1329,13
222,16	1308,65
222,38	1314,80
222,60	1269,74
222,82	1284,08
223,03	1296,36
223,25	1302,51
223,47	1296,36
223,69	1267,69
223,91	1290,22
224,13	1208,30
224,35	1261,55
224,57	1314,80
224,78	1247,21
225,00	1247,21
225,22	1239,02
225,44	1181,68
225,66	1273,84
225,88	1193,97
226,10	1214,45
226,32	1257,45
226,53	1255,40
226,75	1275,88
226,97	1265,64
227,19	1249,26
227,41	1320,94
227,63	1222,64
227,85	1226,73
228,06	1345,52
228,28	1216,49
228,50	1282,03
228,72	1202,16
228,94	1273,84
229,16	1220,59
229,37	1261,55
229,59	1320,94
229,81	1343,47
230,03	1267,69
230,25	1261,55
230,47	1263,60
230,69	1222,64
230,90	1251,31
231,12	1269,74
231,34	1310,70
231,56	1353,71
231,78	1247,21
232,00	1282,03
232,21	1253,36
232,43	1261,55
232,65	1284,08
232,87	1226,73
233,09	1337,32
233,30	1331,18
233,52	1331,18
233,74	1253,36
233,96	1245,16
234,18	1304,56
234,40	1343,47
234,61	1249,26
234,83	1269,74
235,05	1333,23
235,27	1212,40
235,49	1273,84
235,70	1302,51
235,92	1279,98
236,14	1230,83
236,36	1329,13
236,58	1241,07
236,79	1310,70
237,01	1273,84
237,23	1230,83
237,45	1269,74
237,67	1292,27
237,88	1271,79
238,10	1345,52
238,32	1226,73
238,54	1232,88
238,76	1261,55
238,97	1310,70
239,19	1359,85
239,41	1288,17
239,63	1265,64
239,85	1241,07
240,06	1316,84
240,28	1273,84
240,50	1279,98
240,72	1329,13
240,93	1245,16
241,15	1245,16
241,37	1206,25
241,59	1251,31
241,81	1267,69
242,02	1290,22
242,24	1288,17
242,46	1247,21
242,68	1204,21
242,89	1284,08
243,11	1255,40
243,33	1247,21
243,55	1253,36
243,76	1247,21
243,98	1232,88
244,20	1245,16
244,42	1318,89
244,64	1269,74
244,85	1181,68
245,07	1273,84
245,29	1253,36
245,51	1288,17
245,72	1386,47
245,94	1298,41
246,16	1212,40
246,38	1286,12
246,59	1269,74
246,81	1359,85
247,03	1286,12
247,24	1255,40
247,46	1288,17
247,68	1232,88
247,90	1275,88
248,11	1273,84
248,33	1302,51
248,55	1298,41
248,77	1253,36
248,98	1269,74
249,20	1259,50
249,42	1224,69
249,64	1304,56
249,85	1374,19
250,07	1245,16
250,29	1279,98
250,50	1224,69
250,72	1275,88
250,94	1251,31
251,16	1314,80
251,37	1302,51
251,59	1269,74
251,81	1302,51
252,02	1224,69
252,24	1277,93
252,46	1314,80
252,68	1230,83
252,89	1230,83
253,11	1263,60
253,33	1218,54
253,54	1263,60
253,76	1253,36
253,98	1204,21
254,20	1314,80
254,41	1314,80
254,63	1253,36
254,85	1302,51
255,06	1263,60
255,28	1284,08
255,50	1308,65
255,71	1265,64
255,93	1257,45
256,15	1179,63
256,36	1284,08
256,58	1259,50
256,80	1277,93
257,02	1171,44
257,23	1331,18
257,45	1306,60
257,67	1273,84
257,88	1300,46
258,10	1265,64
258,32	1273,84
258,53	1271,79
258,75	1228,78
258,97	1284,08
259,18	1265,64
259,40	1320,94
259,62	1253,36
259,83	1253,36
260,05	1263,60
260,27	1288,17
260,48	1249,26
260,70	1214,45
260,92	1296,36
261,13	1325,04
261,35	1249,26
261,57	1243,12
261,78	1230,83
262,00	1259,50
262,22	1316,84
262,43	1247,21
262,65	1286,12
262,86	1277,93
263,08	1247,21
263,30	1302,51
263,51	1302,51
263,73	1239,02
263,95	1216,49
264,16	1224,69
264,38	1224,69
264,60	1245,16
264,81	1234,93
265,03	1255,40
265,25	1243,12
265,46	1169,39
265,68	1298,41
265,89	1222,64
266,11	1267,69
266,33	1300,46
266,54	1249,26
266,76	1292,27
266,98	1357,80
267,19	1282,03
267,41	1282,03
267,62	1292,27
267,84	1308,65
268,06	1198,06
268,27	1320,94
268,49	1327,08
268,70	1318,89
268,92	1212,40
269,14	1210,35
269,35	1232,88
269,57	1271,79
269,79	1271,79
270,00	1318,89
270,22	1216,49
270,43	1241,07
270,65	1255,40
270,87	1216,49
271,08	1298,41
271,30	1261,55
271,51	1255,40
271,73	1239,02
271,95	1175,53
272,16	1239,02
272,38	1335,28
272,59	1261,55
272,81	1333,23
273,02	1263,60
273,24	1247,21
273,46	1230,83
273,67	1288,17
273,89	1261,55
274,10	1232,88
274,32	1275,88
274,54	1318,89
274,75	1251,31
274,97	1222,64
275,18	1329,13
275,40	1298,41
275,61	1265,64
275,83	1310,70
276,05	1228,78
276,26	1265,64
276,48	1234,93
276,69	1212,40
276,91	1290,22
277,12	1257,45
277,34	1255,40
277,55	1314,80
277,77	1263,60
277,99	1253,36
278,20	1298,41
278,42	1347,56
278,63	1230,83
278,85	1312,75
279,06	1290,22
279,28	1267,69
279,49	1312,75
279,71	1302,51
279,93	1241,07
280,14	1255,40
280,36	1320,94
280,57	1218,54
280,79	1269,74
281,00	1230,83
281,22	1177,58
281,43	1216,49
281,65	1253,36
281,86	1263,60
282,08	1329,13
282,29	1288,17
282,51	1279,98
282,73	1189,87
282,94	1196,01
283,16	1273,84
283,37	1255,40
283,59	1271,79
283,80	1277,93
284,02	1282,03
284,23	1247,21
284,45	1286,12
284,66	1255,40
284,88	1279,98
285,09	1286,12
285,31	1257,45
285,52	1275,88
285,74	1269,74
285,95	1245,16
286,17	1230,83
286,38	1181,68
286,60	1257,45
286,81	1226,73
287,03	1273,84
287,24	1251,31
287,46	1355,76
287,67	1269,74
287,89	1249,26
288,10	1247,21
288,32	1263,60
288,53	1277,93
288,75	1273,84
288,96	1243,12
289,18	1269,74
289,39	1273,84
289,61	1300,46
289,82	1257,45
290,04	1331,18
290,25	1259,50
290,47	1255,40
290,68	1259,50
290,90	1288,17
291,11	1232,88
291,33	1277,93
291,54	1267,69
291,76	1249,26
291,97	1314,80
292,18	1234,93
292,40	1265,64
292,61	1347,56
292,83	1329,13
293,04	1251,31
293,26	1230,83
293,47	1298,41
293,69	1239,02
293,90	1288,17
294,12	1292,27
294,33	1249,26
294,55	1269,74
294,76	1263,60
294,97	1187,82
295,19	1294,32
295,40	1247,21
295,62	1279,98
295,83	1243,12
296,05	1253,36
296,26	1226,73
296,48	1302,51
296,69	1239,02
296,90	1243,12
297,12	1261,55
297,33	1288,17
297,55	1265,64
297,76	1277,93
297,98	1263,60
298,19	1286,12
298,41	1265,64
298,62	1218,54
298,83	1306,60
299,05	1259,50
299,26	1265,64
299,48	1286,12
299,69	1198,06
299,90	1275,88
300,12	1243,12
300,33	1263,60
300,55	1245,16
300,76	1249,26
300,98	1196,01
301,19	1282,03
301,40	1282,03
301,62	1286,12
301,83	1304,56
302,05	1314,80
302,26	1212,40
302,47	1257,45
302,69	1167,34
302,90	1306,60
303,12	1257,45
303,33	1273,84
303,54	1243,12
303,76	1263,60
303,97	1267,69
304,19	1300,46
304,40	1249,26
304,61	1214,45
304,83	1282,03
305,04	1325,04
305,26	1232,88
305,47	1181,68
305,68	1189,87
305,90	1318,89
306,11	1325,04
306,33	1277,93
306,54	1245,16
306,75	1275,88
306,97	1247,21
307,18	1193,97
307,39	1206,25
307,61	1282,03
307,82	1214,45
308,04	1206,25
308,25	1273,84
308,46	1210,35
308,68	1265,64
308,89	1284,08
309,10	1241,07
309,32	1236,97
309,53	1298,41
309,74	1322,99
309,96	1298,41
310,17	1302,51
310,39	1273,84
310,60	1255,40
310,81	1261,55
311,03	1204,21
311,24	1249,26
311,45	1261,55
311,67	1310,70
311,88	1259,50
312,09	1185,77
312,31	1290,22
312,52	1200,11
312,73	1259,50
312,95	1228,78
313,16	1302,51
313,37	1300,46
313,59	1282,03
313,80	1298,41
314,01	1345,52
314,23	1232,88
314,44	1279,98
314,65	1363,95
314,87	1257,45
315,08	1300,46
315,29	1204,21
315,51	1257,45
315,72	1261,55
315,93	1271,79
316,15	1263,60
316,36	1216,49
316,57	1204,21
316,79	1202,16
317,00	1290,22
317,21	1216,49
317,43	1282,03
317,64	1245,16
317,85	1239,02
318,07	1247,21
318,28	1257,45
318,49	1257,45
318,70	1220,59
318,92	1308,65
319,13	1308,65
319,34	1308,65
319,56	1210,35
319,77	1279,98
319,98	1318,89
320,20	1257,45
320,41	1265,64
320,62	1273,84
320,83	1251,31
321,05	1294,32
321,26	1251,31
321,47	1251,31
321,69	1310,70
321,90	1294,32
322,11	1273,84
322,32	1316,84
322,54	1312,75
322,75	1308,65
322,96	1288,17
323,18	1265,64
323,39	1275,88
323,60	1263,60
323,81	1292,27
324,03	1310,70
324,24	1249,26
324,45	1218,54
324,66	1265,64
324,88	1290,22
325,09	1286,12
325,30	1191,92
325,52	1275,88
325,73	1196,01
325,94	1325,04
326,15	1204,21
326,37	1296,36
326,58	1312,75
326,79	1239,02
327,00	1181,68
327,22	1210,35
327,43	1230,83
327,64	1224,69
327,85	1286,12
328,07	1279,98
328,28	1275,88
328,49	1302,51
328,70	1347,56
328,92	1234,93
329,13	1224,69
329,34	1241,07
329,55	1318,89
329,76	1259,50
329,98	1277,93
330,19	1275,88
330,40	1300,46
330,61	1265,64
330,83	1269,74
331,04	1226,73
331,25	1296,36
331,46	1290,22
331,68	1279,98
331,89	1253,36
332,10	1300,46
332,31	1290,22
332,52	1241,07
332,74	1253,36
332,95	1329,13
333,16	1290,22
333,37	1269,74
333,58	1312,75
333,80	1273,84
334,01	1253,36
334,22	1300,46
334,43	1224,69
334,64	1202,16
334,86	1251,31
335,07	1259,50
335,28	1273,84
335,49	1267,69
335,70	1290,22
335,92	1308,65
336,13	1312,75
336,34	1345,52
336,55	1247,21
336,76	1271,79
336,98	1271,79
337,19	1220,59
337,40	1296,36
337,61	1261,55
337,82	1257,45
338,04	1265,64
338,25	1271,79
338,46	1310,70
338,67	1308,65
338,88	1236,97
339,09	1247,21
339,31	1269,74
339,52	1318,89
339,73	1218,54
339,94	1282,03
340,15	1249,26
340,36	1255,40
340,58	1318,89
340,79	1345,52
341,00	1294,32
341,21	1269,74
341,42	1265,64
341,63	1261,55
341,85	1302,51
342,06	1361,90
342,27	1236,97
342,48	1259,50
342,69	1312,75
342,90	1296,36
343,12	1284,08
343,33	1359,85
343,54	1310,70
343,75	1286,12
343,96	1282,03
344,17	1282,03
344,38	1230,83
344,60	1187,82
344,81	1271,79
345,02	1329,13
345,23	1218,54
345,44	1236,97
345,65	1335,28
345,86	1212,40
346,07	1302,51
346,29	1300,46
346,50	1251,31
346,71	1189,87
346,92	1243,12
347,13	1279,98
347,34	1300,46
347,55	1196,01
347,76	1212,40
347,98	1253,36
348,19	1288,17
348,40	1279,98
348,61	1198,06
348,82	1353,71
349,03	1286,12
349,24	1216,49
349,45	1351,66
349,66	1220,59
349,88	1296,36
350,09	1277,93
350,30	1308,65
350,51	1277,93
350,72	1236,97
350,93	1255,40
351,14	1286,12
351,35	1208,30
351,56	1302,51
351,77	1232,88
351,99	1302,51
352,20	1212,40
352,41	1265,64
352,62	1239,02
352,83	1302,51
353,04	1247,21
353,25	1249,26
353,46	1269,74
353,67	1304,56
353,88	1230,83
354,09	1257,45
354,30	1257,45
354,52	1251,31
354,73	1306,60
354,94	1232,88
355,15	1304,56
355,36	1257,45
355,57	1191,92
355,78	1290,22
355,99	1322,99
356,20	1316,84
356,41	1290,22
356,62	1341,42
356,83	1224,69
357,04	1337,32
357,25	1284,08
357,46	1263,60
357,68	1249,26
357,89	1296,36
358,10	1318,89
358,31	1202,16
358,52	1310,70
358,73	1259,50
358,94	1286,12
359,15	1249,26
359,36	1290,22
359,57	1208,30
359,78	1259,50
359,99	1294,32
360,20	1167,34
360,41	1290,22
360,62	1376,24
360,83	1331,18
361,04	1255,40
361,25	1232,88
361,46	1265,64
361,67	1292,27
361,88	1206,25
362,09	1298,41
362,30	1208,30
362,51	1230,83
362,72	1275,88
362,93	1153,01
363,14	1249,26
363,35	1329,13
363,56	1224,69
363,78	1275,88
363,99	1372,14
364,20	1222,64
364,41	1322,99
364,62	1322,99
364,83	1282,03
365,04	1318,89
365,25	1241,07
365,46	1220,59
365,67	1230,83
365,88	1261,55
366,09	1306,60
366,30	1265,64
366,51	1247,21
366,72	1239,02
366,93	1212,40
367,14	1273,84
367,35	1314,80
367,56	1239,02
367,77	1251,31
367,98	1327,08
368,18	1220,59
368,39	1300,46
368,60	1181,68
368,81	1294,32
369,02	1279,98
369,23	1308,65
369,44	1179,63
369,65	1247,21
369,86	1173,49
370,07	1304,56
370,28	1230,83
370,49	1245,16
370,70	1286,12
370,91	1236,97
371,12	1277,93
371,33	1167,34
371,54	1265,64
371,75	1329,13
371,96	1290,22
372,17	1271,79
372,38	1290,22
372,59	1339,37
372,80	1290,22
373,01	1277,93
373,22	1228,78
373,43	1359,85
373,64	1228,78
373,85	1257,45
374,06	1312,75
374,26	1269,74
374,47	1257,45
374,68	1263,60
374,89	1316,84
375,10	1294,32
375,31	1286,12
375,52	1265,64
375,73	1314,80
375,94	1247,21
376,15	1284,08
376,36	1226,73
376,57	1247,21
376,78	1310,70
376,99	1265,64
377,20	1290,22
377,40	1253,36
377,61	1380,33
377,82	1298,41
378,03	1329,13
378,24	1257,45
378,45	1251,31
378,66	1347,56
378,87	1255,40
379,08	1298,41
379,29	1232,88
379,50	1257,45
379,71	1253,36
379,91	1259,50
380,12	1275,88
380,33	1183,73
380,54	1286,12
380,75	1251,31
380,96	1228,78
381,17	1273,84
381,38	1245,16
381,59	1263,60
381,80	1247,21
382,00	1267,69
382,21	1286,12
382,42	1277,93
382,63	1263,60
382,84	1222,64
383,05	1312,75
383,26	1300,46
383,47	1316,84
383,68	1275,88
383,88	1243,12
384,09	1255,40
384,30	1277,93
384,51	1290,22
384,72	1279,98
384,93	1191,92
385,14	1251,31
385,35	1271,79
385,55	1183,73
385,76	1191,92
385,97	1255,40
386,18	1318,89
386,39	1261,55
386,60	1224,69
386,81	1265,64
387,02	1312,75
387,22	1241,07
387,43	1259,50
387,64	1226,73
387,85	1277,93
388,06	1271,79
388,27	1226,73
388,48	1296,36
388,68	1249,26
388,89	1220,59
389,10	1253,36
389,31	1279,98
389,52	1236,97
389,73	1251,31
389,93	1255,40
390,14	1243,12
390,35	1286,12
390,56	1269,74
390,77	1271,79
390,98	1279,98
391,18	1282,03
391,39	1306,60
391,60	1308,65
391,81	1322,99
392,02	1245,16
392,23	1267,69
392,43	1232,88
392,64	1230,83
392,85	1296,36
393,06	1202,16
393,27	1241,07
393,47	1257,45
393,68	1277,93
393,89	1296,36
394,10	1222,64
394,31	1255,40
394,52	1220,59
394,72	1286,12
394,93	1302,51
395,14	1277,93
395,35	1298,41
395,56	1271,79
395,76	1275,88
395,97	1339,37
396,18	1320,94
396,39	1261,55
396,60	1273,84
396,80	1302,51
397,01	1267,69
397,22	1306,60
397,43	1288,17
397,64	1265,64
397,84	1304,56
398,05	1243,12
398,26	1245,16
398,47	1259,50
398,67	1290,22
398,88	1290,22
399,09	1204,21
399,30	1257,45
399,51	1243,12
399,71	1288,17
399,92	1267,69
400,13	1263,60
400,34	1282,03
400,54	1214,45
400,75	1243,12
400,96	1220,59
401,17	1243,12
401,37	1271,79
401,58	1234,93
401,79	1277,93
402,00	1298,41
402,21	1218,54
402,41	1243,12
402,62	1185,77
402,83	1273,84
403,04	1296,36
403,24	1282,03
403,45	1249,26
403,66	1279,98
403,87	1310,70
404,07	1226,73
404,28	1249,26
404,49	1257,45
404,70	1265,64
404,90	1288,17
405,11	1282,03
405,32	1261,55
405,52	1290,22
405,73	1261,55
405,94	1257,45
406,15	1183,73
406,35	1245,16
406,56	1181,68
406,77	1273,84
406,98	1247,21
407,18	1269,74
407,39	1273,84
407,60	1286,12
407,80	1337,32
408,01	1306,60
408,22	1251,31
408,43	1253,36
408,63	1314,80
408,84	1241,07
409,05	1292,27
409,25	1214,45
409,46	1257,45
409,67	1302,51
409,88	1320,94
410,08	1220,59
410,29	1261,55
410,50	1286,12
410,70	1253,36
410,91	1259,50
411,12	1302,51
411,32	1269,74
411,53	1196,01
411,74	1298,41
411,95	1316,84
412,15	1306,60
412,36	1255,40
412,57	1267,69
412,77	1304,56
412,98	1243,12
413,19	1232,88
413,39	1259,50
413,60	1239,02
413,81	1245,16
414,01	1294,32
414,22	1247,21
414,43	1232,88
414,63	1288,17
414,84	1263,60
415,05	1245,16
415,25	1263,60
415,46	1261,55
415,67	1249,26
415,87	1327,08
416,08	1279,98
416,29	1202,16
416,49	1259,50
416,70	1286,12
416,91	1214,45
417,11	1265,64
417,32	1279,98
417,53	1273,84
417,73	1361,90
417,94	1290,22
418,15	1282,03
418,35	1230,83
418,56	1267,69
418,77	1257,45
418,97	1247,21
419,18	1308,65
419,38	1239,02
419,59	1210,35
419,80	1196,01
420,00	1255,40
420,21	1239,02
420,42	1247,21
420,62	1259,50
420,83	1265,64
421,04	1239,02
421,24	1234,93
421,45	1316,84
421,65	1353,71
421,86	1320,94
422,07	1245,16
422,27	1265,64
422,48	1220,59
422,69	1282,03
422,89	1310,70
423,10	1261,55
423,30	1249,26
423,51	1275,88
423,72	1175,53
423,92	1245,16
424,13	1273,84
424,33	1241,07
424,54	1294,32
424,75	1320,94
424,95	1257,45
425,16	1269,74
425,36	1286,12
425,57	1279,98
425,78	1251,31
425,98	1277,93
426,19	1296,36
426,39	1282,03
426,60	1290,22
426,81	1263,60
427,01	1335,28
427,22	1222,64
427,42	1288,17
427,63	1257,45
427,83	1337,32
428,04	1277,93
428,25	1265,64
428,45	1232,88
428,66	1239,02
428,86	1292,27
429,07	1251,31
429,28	1284,08
429,48	1320,94
429,69	1304,56
429,89	1277,93
430,10	1288,17
430,30	1226,73
430,51	1261,55
430,71	1202,16
430,92	1271,79
431,13	1273,84
431,33	1261,55
431,54	1236,97
431,74	1206,25
431,95	1335,28
432,15	1241,07
432,36	1255,40
432,56	1290,22
432,77	1261,55
432,98	1263,60
433,18	1241,07
433,39	1282,03
433,59	1249,26
433,80	1282,03
434,00	1269,74
434,21	1275,88
434,41	1230,83
434,62	1279,98
434,82	1275,88
435,03	1261,55
435,23	1253,36
435,44	1341,42
435,64	1261,55
435,85	1224,69
436,06	1216,49
436,26	1275,88
436,47	1361,90
436,67	1230,83
436,88	1251,31
437,08	1308,65
437,29	1294,32
437,49	1269,74
437,70	1230,83
437,90	1286,12
438,11	1286,12
438,31	1232,88
438,52	1290,22
438,72	1259,50
438,93	1314,80
439,13	1277,93
439,34	1236,97
439,54	1314,80
439,75	1341,42
439,95	1261,55
440,16	1257,45
440,36	1249,26
440,57	1298,41
440,77	1228,78
440,98	1304,56
441,18	1214,45
441,39	1206,25
441,59	1236,97
441,80	1230,83
442,00	1322,99
442,21	1261,55
442,41	1212,40
442,62	1239,02
442,82	1220,59
443,02	1273,84
443,23	1159,15
443,43	1226,73
443,64	1232,88
443,84	1232,88
444,05	1306,60
444,25	1247,21
444,46	1267,69
444,66	1222,64
444,87	1263,60
445,07	1206,25
445,28	1253,36
445,48	1212,40
445,69	1288,17
445,89	1306,60
446,09	1335,28
446,30	1318,89
446,50	1259,50
446,71	1255,40
446,91	1304,56
447,12	1224,69
447,32	1298,41
447,53	1239,02
447,73	1196,01
447,93	1204,21
448,14	1290,22
448,34	1284,08
448,55	1288,17
448,75	1327,08
448,96	1214,45
449,16	1284,08
449,36	1277,93
449,57	1257,45
449,77	1239,02
449,98	1259,50
450,18	1239,02
450,39	1245,16
450,59	1255,40
450,79	1302,51
451,00	1288,17
451,20	1218,54
451,41	1314,80
451,61	1304,56
451,81	1216,49
452,02	1355,76
452,22	1294,32
452,43	1171,44
452,63	1304,56
452,84	1273,84
453,04	1320,94
453,24	1275,88
453,45	1296,36
453,65	1241,07
453,86	1279,98
454,06	1243,12
454,26	1279,98
454,47	1220,59
454,67	1279,98
454,87	1288,17
455,08	1234,93
455,28	1220,59
455,49	1298,41
455,69	1296,36
455,89	1212,40
456,10	1312,75
456,30	1318,89
456,51	1273,84
456,71	1275,88
456,91	1198,06
457,12	1236,97
457,32	1239,02
457,52	1325,04
457,73	1210,35
457,93	1316,84
458,14	1241,07
458,34	1265,64
458,54	1310,70
458,75	1251,31
458,95	1294,32
459,15	1304,56
459,36	1247,21
459,56	1298,41
459,76	1198,06
459,97	1216,49
460,17	1312,75
460,37	1230,83
460,58	1255,40
460,78	1298,41
460,99	1275,88
461,19	1253,36
461,39	1267,69
461,60	1322,99
461,80	1257,45
462,00	1218,54
462,21	1226,73
462,41	1331,18
462,61	1218,54
462,82	1318,89
463,02	1282,03
463,22	1218,54
463,43	1263,60
463,63	1273,84
463,83	1275,88
464,04	1271,79
464,24	1320,94
464,44	1325,04
464,64	1257,45
464,85	1282,03
465,05	1325,04
465,25	1214,45
465,46	1228,78
465,66	1261,55
465,86	1239,02
466,07	1359,85
466,27	1224,69
466,47	1263,60
466,68	1257,45
466,88	1314,80
467,08	1282,03
467,29	1271,79
467,49	1310,70
467,69	1294,32
467,89	1273,84
468,10	1304,56
468,30	1243,12
468,50	1273,84
468,71	1331,18
468,91	1253,36
469,11	1251,31
469,31	1327,08
469,52	1247,21
469,72	1329,13
469,92	1218,54
470,13	1327,08
470,33	1345,52
470,53	1216,49
470,73	1259,50
470,94	1357,80
471,14	1247,21
471,34	1286,12
471,54	1279,98
471,75	1296,36
471,95	1267,69
472,15	1249,26
472,36	1341,42
472,56	1290,22
472,76	1308,65
472,96	1314,80
473,17	1251,31
473,37	1165,29
473,57	1232,88
473,77	1226,73
473,98	1302,51
474,18	1189,87
474,38	1282,03
474,58	1298,41
474,79	1218,54
474,99	1226,73
475,19	1327,08
475,39	1271,79
475,60	1269,74
475,80	1228,78
476,00	1290,22
476,20	1222,64
476,41	1253,36
476,61	1339,37
476,81	1226,73
477,01	1290,22
477,21	1304,56
477,42	1273,84
477,62	1275,88
477,82	1253,36
478,02	1290,22
478,23	1282,03
478,43	1267,69
478,63	1316,84
478,83	1220,59
479,03	1189,87
479,24	1306,60
479,44	1286,12
479,64	1312,75
479,84	1314,80
480,04	1228,78
480,25	1290,22
480,45	1300,46
480,65	1265,64
480,85	1308,65
481,06	1179,63
481,26	1185,77
481,46	1273,84
481,66	1245,16
481,86	1243,12
482,06	1220,59
482,27	1310,70
482,47	1265,64
482,67	1230,83
482,87	1296,36
483,07	1263,60
483,28	1302,51
483,48	1300,46
483,68	1251,31
483,88	1220,59
484,08	1253,36
484,29	1322,99
484,49	1251,31
484,69	1234,93
484,89	1282,03
485,09	1312,75
485,29	1308,65
485,50	1239,02
485,70	1210,35
485,90	1271,79
486,10	1230,83
486,30	1343,47
486,50	1290,22
486,71	1292,27
486,91	1271,79
487,11	1288,17
487,31	1269,74
487,51	1282,03
487,71	1243,12
487,91	1249,26
488,12	1298,41
488,32	1279,98
488,52	1296,36
488,72	1263,60
488,92	1300,46
489,12	1251,31
489,32	1228,78
489,53	1304,56
489,73	1191,92
489,93	1314,80
490,13	1224,69
490,33	1243,12
490,53	1284,08
490,73	1300,46
490,94	1271,79
491,14	1226,73
491,34	1290,22
491,54	1345,52
491,74	1279,98
491,94	1298,41
492,14	1302,51
492,34	1284,08
492,54	1372,14
492,75	1253,36
492,95	1290,22
493,15	1308,65
493,35	1298,41
493,55	1224,69
493,75	1277,93
493,95	1277,93
494,15	1275,88
494,35	1306,60
494,56	1312,75
494,76	1236,97
494,96	1255,40
495,16	1247,21
495,36	1210,35
495,56	1230,83
495,76	1312,75
495,96	1230,83
496,16	1320,94
496,36	1273,84
496,56	1294,32
496,77	1273,84
496,97	1220,59
497,17	1247,21
497,37	1267,69
497,57	1327,08
497,77	1282,03
497,97	1306,60
498,17	1204,21
498,37	1277,93
498,57	1243,12
498,77	1279,98
498,97	1241,07
499,17	1290,22
499,38	1247,21
499,58	1331,18
499,78	1183,73
499,98	1261,55
500,18	1277,93
500,38	1259,50
500,58	1232,88
500,78	1279,98
500,98	1212,40
501,18	1269,74
501,38	1290,22
501,58	1298,41
501,78	1267,69
501,98	1273,84
502,18	1220,59
502,38	1206,25
502,58	1318,89
502,78	1251,31
502,98	1267,69
503,18	1253,36
503,38	1273,84
503,59	1234,93
503,79	1312,75
503,99	1292,27
504,19	1306,60
504,39	1294,32
504,59	1251,31
504,79	1261,55
504,99	1241,07
505,19	1253,36
505,39	1308,65
505,59	1261,55
505,79	1288,17
505,99	1230,83
506,19	1175,53
506,39	1290,22
506,59	1284,08
506,79	1232,88
506,99	1304,56
507,19	1273,84
507,39	1245,16
507,59	1304,56
507,79	1218,54
507,99	1259,50
508,19	1191,92
508,39	1292,27
508,59	1306,60
508,79	1253,36
508,99	1329,13
509,19	1288,17
509,39	1316,84
509,59	1200,11
509,79	1316,84
509,99	1222,64
510,19	1216,49
510,39	1208,30
510,59	1210,35
510,79	1241,07
510,99	1265,64
511,19	1255,40
511,39	1302,51
511,59	1288,17
511,79	1314,80
511,99	1329,13
512,19	1208,30
512,38	1228,78
512,58	1318,89
512,78	1290,22
512,98	1173,49
513,18	1247,21
513,38	1230,83
513,58	1251,31
513,78	1196,01
513,98	1275,88
514,18	1320,94
514,38	1277,93
514,58	1306,60
514,78	1337,32
514,98	1290,22
515,18	1298,41
515,38	1224,69
515,58	1230,83
515,78	1273,84
515,98	1222,64
516,18	1296,36
516,38	1304,56
516,57	1290,22
516,77	1298,41
516,97	1228,78
517,17	1290,22
517,37	1273,84
517,57	1284,08
517,77	1161,20
517,97	1220,59
518,17	1218,54
518,37	1232,88
518,57	1255,40
518,77	1329,13
518,97	1279,98
519,16	1236,97
519,36	1257,45
519,56	1263,60
519,76	1232,88
519,96	1228,78
520,16	1327,08
520,36	1232,88
520,56	1308,65
520,76	1259,50
520,96	1286,12
521,16	1298,41
521,35	1261,55
521,55	1290,22
521,75	1290,22
521,95	1347,56
522,15	1275,88
522,35	1253,36
522,55	1288,17
522,75	1253,36
522,95	1273,84
523,14	1277,93
523,34	1243,12
523,54	1257,45
523,74	1294,32
523,94	1327,08
524,14	1302,51
524,34	1284,08
524,54	1259,50
524,73	1304,56
524,93	1292,27
525,13	1282,03
525,33	1296,36
525,53	1372,14
525,73	1210,35
525,93	1300,46
526,13	1251,31
526,32	1273,84
526,52	1271,79
526,72	1273,84
526,92	1249,26
527,12	1284,08
527,32	1261,55
527,52	1193,97
527,71	1298,41
527,91	1257,45
528,11	1359,85
528,31	1255,40
528,51	1331,18
528,71	1220,59
528,90	1265,64
529,10	1282,03
529,30	1277,93
529,50	1277,93
529,70	1269,74
529,90	1290,22
530,09	1292,27
530,29	1265,64
530,49	1269,74
530,69	1308,65
530,89	1341,42
531,09	1279,98
531,28	1206,25
531,48	1292,27
531,68	1331,18
531,88	1216,49
532,08	1251,31
532,28	1314,80
532,47	1257,45
532,67	1290,22
532,87	1243,12
533,07	1277,93
533,27	1273,84
533,46	1249,26
533,66	1288,17
533,86	1255,40
534,06	1322,99
534,26	1304,56
534,45	1314,80
534,65	1257,45
534,85	1243,12
535,05	1306,60
535,25	1322,99
535,44	1265,64
535,64	1232,88
535,84	1196,01
536,04	1218,54
536,24	1294,32
536,43	1210,35
536,63	1331,18
536,83	1236,97
537,03	1312,75
537,22	1257,45
537,42	1261,55
537,62	1275,88
537,82	1261,55
538,02	1253,36
538,21	1265,64
538,41	1196,01
538,61	1304,56
538,81	1314,80
539,00	1282,03
539,20	1300,46
539,40	1257,45
539,60	1273,84
539,79	1333,23
539,99	1290,22
540,19	1267,69
540,39	1300,46
540,58	1249,26
540,78	1312,75
540,98	1265,64
541,18	1290,22
541,37	1304,56
541,57	1345,52
541,77	1275,88
541,97	1286,12
542,16	1273,84
542,36	1286,12
542,56	1286,12
542,76	1255,40
542,95	1308,65
543,15	1249,26
543,35	1314,80
543,54	1292,27
543,74	1279,98
543,94	1273,84
544,14	1253,36
544,33	1302,51
544,53	1253,36
544,73	1253,36
544,93	1206,25
545,12	1259,50
545,32	1257,45
545,52	1222,64
545,71	1288,17
545,91	1224,69
546,11	1208,30
546,30	1243,12
546,50	1259,50
546,70	1267,69
546,90	1271,79
547,09	1212,40
547,29	1206,25
547,49	1333,23
547,68	1259,50
547,88	1284,08
548,08	1249,26
548,27	1286,12
548,47	1302,51
548,67	1257,45
548,87	1255,40
549,06	1279,98
549,26	1320,94
549,46	1255,40
549,65	1261,55
549,85	1282,03
550,05	1247,21
550,24	1259,50
550,44	1325,04
550,64	1304,56
550,83	1241,07
551,03	1208,30
551,23	1277,93
551,42	1249,26
551,62	1206,25
551,82	1247,21
552,01	1265,64
552,21	1239,02
552,41	1314,80
552,60	1251,31
552,80	1234,93
553,00	1239,02
553,19	1230,83
553,39	1316,84
553,59	1251,31
553,78	1263,60
553,98	1261,55
554,17	1185,77
554,37	1316,84
554,57	1226,73
554,76	1273,84
554,96	1312,75
555,16	1300,46
555,35	1267,69
555,55	1247,21
555,75	1257,45
555,94	1232,88
556,14	1290,22
556,33	1265,64
556,53	1228,78
556,73	1320,94
556,92	1306,60
557,12	1265,64
557,32	1320,94
557,51	1224,69
557,71	1239,02
557,90	1284,08
558,10	1273,84
558,30	1247,21
558,49	1265,64
558,69	1267,69
558,88	1243,12
559,08	1255,40
559,28	1304,56
559,47	1339,37
559,67	1236,97
559,86	1286,12
560,06	1277,93
560,26	1253,36
560,45	1277,93
560,65	1351,66
560,84	1325,04
561,04	1294,32
561,24	1288,17
561,43	1263,60
561,63	1357,80
561,82	1177,58
562,02	1224,69
562,22	1204,21
562,41	1267,69
562,61	1286,12
562,80	1308,65
563,00	1296,36
563,19	1257,45
563,39	1325,04
563,59	1290,22
563,78	1193,97
563,98	1294,32
564,17	1286,12
564,37	1247,21
564,56	1239,02
564,76	1269,74
564,96	1265,64
565,15	1257,45
565,35	1277,93
565,54	1261,55
565,74	1241,07
565,93	1296,36
566,13	1310,70
566,32	1275,88
566,52	1302,51
566,71	1259,50
566,91	1322,99
567,11	1218,54
567,30	1249,26
567,50	1220,59
567,69	1284,08
567,89	1298,41
568,08	1228,78
568,28	1251,31
568,47	1294,32
568,67	1251,31
568,86	1269,74
569,06	1275,88
569,25	1253,36
569,45	1224,69
569,64	1275,88
569,84	1290,22
570,04	1298,41
570,23	1296,36
570,43	1218,54
570,62	1298,41
570,82	1282,03
571,01	1269,74
571,21	1236,97
571,40	1339,37
571,60	1286,12
571,79	1187,82
571,99	1282,03
572,18	1286,12
572,38	1290,22
572,57	1191,92
572,77	1257,45
572,96	1228,78
573,16	1263,60
573,35	1271,79
573,55	1226,73
573,74	1273,84
573,94	1208,30
574,13	1300,46
574,33	1253,36
574,52	1329,13
574,71	1271,79
574,91	1282,03
575,10	1253,36
575,30	1269,74
575,49	1265,64
575,69	1329,13
575,88	1277,93
576,08	1273,84
576,27	1253,36
576,47	1234,93
576,66	1296,36
576,86	1236,97
577,05	1232,88
577,25	1294,32
577,44	1337,32
577,64	1267,69
577,83	1204,21
578,02	1232,88
578,22	1298,41
578,41	1294,32
578,61	1286,12
578,80	1263,60
579,00	1210,35
579,19	1208,30
579,39	1306,60
579,58	1337,32
579,77	1357,80
579,97	1298,41
580,16	1257,45
580,36	1249,26
580,55	1302,51
580,75	1202,16
580,94	1273,84
581,13	1312,75
581,33	1243,12
581,52	1269,74
581,72	1312,75
581,91	1318,89
582,11	1249,26
582,30	1212,40
582,49	1273,84
582,69	1239,02
582,88	1210,35
583,08	1259,50
583,27	1228,78
583,47	1269,74
583,66	1253,36
583,85	1228,78
584,05	1251,31
584,24	1296,36
584,44	1245,16
584,63	1288,17
584,82	1325,04
585,02	1279,98
585,21	1267,69
585,41	1284,08
585,60	1320,94
585,79	1286,12
585,99	1282,03
586,18	1179,63
586,37	1306,60
586,57	1296,36
586,76	1290,22
586,96	1296,36
587,15	1269,74
587,34	1224,69
587,54	1189,87
587,73	1294,32
587,93	1275,88
588,12	1310,70
588,31	1359,85
588,51	1243,12
588,70	1247,21
588,89	1247,21
589,09	1261,55
589,28	1218,54
589,47	1320,94
589,67	1247,21
589,86	1232,88
590,06	1394,67
590,25	1294,32
590,44	1294,32
590,64	1265,64
590,83	1277,93
591,02	1279,98
591,22	1216,49
591,41	1267,69
591,60	1275,88
591,80	1255,40
591,99	1286,12
592,18	1298,41
592,38	1239,02
592,57	1288,17
592,76	1249,26
592,96	1273,84
593,15	1230,83
593,34	1204,21
593,54	1273,84
593,73	1286,12
593,92	1265,64
594,12	1282,03
594,31	1327,08
594,50	1198,06
594,70	1296,36
594,89	1255,40
595,08	1206,25
595,28	1322,99
595,47	1273,84
595,66	1249,26
595,86	1269,74
596,05	1282,03
596,24	1302,51
596,43	1232,88
596,63	1273,84
596,82	1302,51
597,01	1327,08
597,21	1259,50
597,40	1173,49
597,59	1241,07
597,79	1298,41
597,98	1239,02
598,17	1282,03
598,36	1271,79
598,56	1282,03
598,75	1275,88
598,94	1282,03
599,14	1259,50
599,33	1271,79
599,52	1273,84
599,71	1302,51
599,91	1222,64
600,10	1261,55
600,29	1273,84
600,48	1259,50
600,68	1294,32
600,87	1257,45
601,06	1265,64
601,26	1341,42
601,45	1236,97
601,64	1243,12
601,83	1255,40
602,03	1290,22
602,22	1251,31
602,41	1234,93
602,60	1286,12
602,80	1253,36
602,99	1232,88
603,18	1249,26
603,37	1310,70
603,57	1296,36
603,76	1282,03
603,95	1251,31
604,14	1288,17
604,34	1222,64
604,53	1247,21
604,72	1259,50
604,91	1275,88
605,10	1290,22
605,30	1310,70
605,49	1304,56
605,68	1269,74
605,87	1290,22
606,07	1282,03
606,26	1257,45
606,45	1206,25
606,64	1273,84
606,84	1320,94
607,03	1279,98
607,22	1343,47
607,41	1290,22
607,60	1249,26
607,80	1312,75
607,99	1306,60
608,18	1284,08
608,37	1331,18
608,56	1316,84
608,76	1206,25
608,95	1316,84
609,14	1247,21
609,33	1224,69
609,52	1294,32
609,72	1251,31
609,91	1300,46
610,10	1265,64
610,29	1249,26
610,48	1243,12
610,68	1273,84
610,87	1255,40
611,06	1308,65
611,25	1208,30
611,44	1261,55
611,63	1241,07
611,83	1357,80
612,02	1300,46
612,21	1292,27
612,40	1302,51
612,59	1236,97
612,79	1218,54
612,98	1236,97
613,17	1224,69
613,36	1337,32
613,55	1310,70
613,74	1263,60
613,93	1236,97
614,13	1290,22
614,32	1255,40
614,51	1279,98
614,70	1261,55
614,89	1273,84
615,08	1257,45
615,28	1267,69
615,47	1339,37
615,66	1249,26
615,85	1263,60
616,04	1269,74
616,23	1271,79
616,42	1234,93
616,62	1318,89
616,81	1222,64
617,00	1282,03
617,19	1271,79
617,38	1271,79
617,57	1394,67
617,76	1318,89
617,95	1239,02
618,15	1282,03
618,34	1234,93
618,53	1261,55
618,72	1279,98
618,91	1277,93
619,10	1236,97
619,29	1341,42
619,48	1374,19
619,68	1337,32
619,87	1216,49
620,06	1277,93
620,25	1263,60
620,44	1310,70
620,63	1208,30
620,82	1193,97
621,01	1271,79
621,20	1230,83
621,39	1341,42
621,59	1288,17
621,78	1259,50
621,97	1204,21
622,16	1239,02
622,35	1243,12
622,54	1322,99
622,73	1257,45
622,92	1322,99
623,11	1263,60
623,30	1253,36
623,49	1322,99
623,68	1222,64
623,88	1261,55
624,07	1314,80
624,26	1282,03
624,45	1304,56
624,64	1249,26
624,83	1329,13
625,02	1292,27
625,21	1222,64
625,40	1249,26
625,59	1343,47
625,78	1282,03
625,97	1282,03
626,16	1351,66
626,35	1243,12
626,54	1234,93
626,74	1290,22
626,93	1236,97
627,12	1259,50
627,31	1273,84
627,50	1245,16
627,69	1302,51
627,88	1320,94
628,07	1314,80
628,26	1257,45
628,45	1232,88
628,64	1265,64
628,83	1306,60
629,02	1288,17
629,21	1261,55
629,40	1243,12
629,59	1239,02
629,78	1310,70
629,97	1279,98
630,16	1290,22
630,35	1189,87
630,54	1333,23
630,73	1249,26
630,92	1282,03
631,11	1271,79
631,30	1306,60
631,49	1345,52
631,68	1634,28
631,87	6461,34
632,06	22656,68
632,25	39888,29
632,44	62088,27
632,63	65535,00
632,82	60408,93
633,01	35804,64
633,20	14501,67
633,39	6641,56
633,58	3639,24
633,77	3160,02
633,96	2930,64
634,15	2461,66
634,34	2133,98
634,53	1931,23
634,72	1902,56
634,91	1789,92
635,10	1724,39
635,29	1679,33
635,48	1615,85
635,67	1628,14
635,86	1581,03
636,05	1568,74
636,24	1525,74
636,43	1505,26
636,62	1421,29
636,81	1402,86
637,00	1474,54
637,19	1376,24
637,38	1439,72
637,57	1390,57
637,76	1392,62
637,95	1296,36
638,14	1353,71
638,33	1306,60
638,52	1349,61
638,71	1308,65
638,89	1351,66
639,08	1325,04
639,27	1325,04
639,46	1277,93
639,65	1212,40
639,84	1269,74
640,03	1298,41
640,22	1304,56
640,41	1241,07
640,60	1236,97
640,79	1302,51
640,98	1245,16
641,17	1327,08
641,36	1239,02
641,55	1380,33
641,74	1265,64
641,92	1236,97
642,11	1322,99
642,30	1267,69
642,49	1322,99
642,68	1286,12
642,87	1253,36
643,06	1279,98
643,25	1282,03
643,44	1304,56
643,63	1230,83
643,82	1249,26
644,00	1290,22
644,19	1304,56
644,38	1400,81
644,57	1257,45
644,76	1249,26
644,95	1320,94
645,14	1298,41
645,33	1331,18
645,52	1236,97
645,71	1284,08
645,89	1247,21
646,08	1241,07
646,27	1243,12
646,46	1245,16
646,65	1286,12
646,84	1353,71
647,03	1218,54
647,22	1239,02
647,40	1296,36
647,59	1241,07
647,78	1275,88
647,97	1208,30
648,16	1306,60
648,35	1247,21
648,54	1267,69
648,73	1245,16
648,91	1196,01
649,10	1298,41
649,29	1292,27
649,48	1306,60
649,67	1245,16
649,86	1310,70
650,05	1273,84
650,23	1216,49
650,42	1302,51
650,61	1234,93
650,80	1249,26
650,99	1284,08
651,18	1306,60
651,36	1329,13
651,55	1339,37
651,74	1286,12
651,93	1249,26
652,12	1300,46
652,31	1177,58
652,49	1329,13
652,68	1279,98
652,87	1296,36
653,06	1273,84
653,25	1308,65
653,44	1284,08
653,62	1236,97
653,81	1275,88
654,00	1257,45
654,19	1310,70
654,38	1296,36
654,56	1228,78
654,75	1290,22
654,94	1341,42
655,13	1318,89
655,32	1273,84
655,51	1234,93
655,69	1230,83
655,88	1271,79
656,07	1265,64
656,26	1279,98
656,45	1288,17
656,63	1228,78
656,82	1232,88
657,01	1267,69
657,20	1275,88
657,38	1271,79
657,57	1273,84
657,76	1261,55
657,95	1236,97
658,14	1243,12
658,32	1239,02
658,51	1286,12
658,70	1251,31
658,89	1249,26
659,08	1304,56
659,26	1200,11
659,45	1312,75
659,64	1214,45
659,83	1273,84
660,01	1288,17
660,20	1257,45
660,39	1206,25
660,58	1251,31
660,76	1286,12
660,95	1277,93
661,14	1224,69
661,33	1257,45
661,51	1335,28
661,70	1286,12
661,89	1212,40
662,08	1204,21
662,26	1271,79
662,45	1208,30
662,64	1273,84
662,83	1300,46
663,01	1273,84
663,20	1294,32
663,39	1236,97
663,58	1310,70
663,76	1236,97
663,95	1163,25
664,14	1265,64
664,32	1314,80
664,51	1296,36
664,70	1251,31
664,89	1292,27
665,07	1273,84
665,26	1284,08
665,45	1249,26
665,64	1234,93
665,82	1300,46
666,01	1314,80
666,20	1198,06
666,38	1292,27
666,57	1282,03
666,76	1267,69
666,95	1310,70
667,13	1284,08
667,32	1290,22
667,51	1271,79
667,69	1232,88
667,88	1292,27
668,07	1339,37
668,25	1169,39
668,44	1232,88
668,63	1333,23
668,81	1292,27
669,00	1298,41
669,19	1251,31
669,38	1290,22
669,56	1290,22
669,75	1259,50
669,94	1189,87
670,12	1247,21
670,31	1224,69
670,50	1259,50
670,68	1216,49
670,87	1271,79
671,06	1277,93
671,24	1290,22
671,43	1245,16
671,62	1226,73
671,80	1228,78
671,99	1263,60
672,18	1265,64
672,36	1284,08
672,55	1189,87
672,74	1286,12
672,92	1232,88
673,11	1196,01
673,29	1296,36
673,48	1298,41
673,67	1239,02
673,85	1253,36
674,04	1228,78
674,23	1189,87
674,41	1300,46
674,60	1259,50
674,79	1212,40
674,97	1216,49
675,16	1204,21
675,34	1228,78
675,53	1243,12
675,72	1206,25
675,90	1245,16
676,09	1294,32
676,28	1216,49
676,46	1304,56
676,65	1277,93
676,83	1257,45
677,02	1282,03
677,21	1261,55
677,39	1294,32
677,58	1269,74
677,77	1212,40
677,95	1273,84
678,14	1308,65
678,32	1179,63
678,51	1310,70
678,70	1241,07
678,88	1300,46
679,07	1232,88
679,25	1243,12
679,44	1306,60
679,63	1253,36
679,81	1193,97
680,00	1249,26
680,18	1253,36
680,37	1228,78
680,55	1196,01
680,74	1187,82
680,93	1306,60
681,11	1277,93
681,30	1261,55
681,48	1322,99
681,67	1304,56
681,85	1275,88
682,04	1241,07
682,23	1292,27
682,41	1218,54
682,60	1327,08
682,78	1259,50
682,97	1236,97
683,15	1232,88
683,34	1230,83
683,53	1228,78
683,71	1241,07
683,90	1269,74
684,08	1251,31
684,27	1316,84
684,45	1230,83
684,64	1253,36
684,82	1251,31
685,01	1249,26
685,19	1263,60
685,38	1331,18
685,57	1345,52
685,75	1249,26
685,94	1290,22
686,12	1234,93
686,31	1298,41
686,49	1292,27
686,68	1271,79
686,86	1230,83
687,05	1318,89
687,23	1273,84
687,42	1204,21
687,60	1247,21
687,79	1288,17
687,97	1333,23
688,16	1271,79
688,34	1300,46
688,53	1355,76
688,71	1294,32
688,90	1378,28
689,08	1259,50
689,27	1296,36
689,45	1259,50
689,64	1290,22
689,82	1279,98
690,01	1255,40
690,19	1239,02
690,38	1261,55
690,56	1288,17
690,75	1245,16
690,93	1284,08
691,12	1275,88
691,30	1271,79
691,49	1261,55
691,67	1337,32
691,86	1298,41
692,04	1312,75
692,23	1249,26
692,41	1269,74
692,60	1251,31
692,78	1300,46
692,97	1302,51
693,15	1232,88
693,34	1294,32
693,52	1339,37
693,71	1216,49
693,89	1241,07
694,08	1167,34
694,26	1378,28
694,44	1288,17
694,63	1259,50
694,81	1345,52
695,00	1265,64
695,18	1284,08
695,37	1275,88
695,55	1265,64
695,74	1302,51
695,92	1249,26
696,10	1304,56
696,29	1282,03
696,47	1316,84
696,66	1275,88
696,84	1259,50
697,03	1277,93
697,21	1298,41
697,40	1341,42
697,58	1261,55
697,76	1234,93
697,95	1243,12
698,13	1304,56
698,32	1224,69
698,50	1271,79
698,68	1333,23
698,87	1216,49
699,05	1282,03
699,24	1218,54
699,42	1300,46
699,61	1275,88
699,79	1239,02
699,97	1255,40
700,16	1230,83
700,34	1218,54
700,53	1247,21
700,71	1245,16
700,89	1214,45
701,08	1222,64
701,26	1273,84
701,45	1296,36
701,63	1247,21
701,81	1265,64
702,00	1249,26
702,18	1343,47
702,37	1409,00
702,55	1253,36
702,73	1263,60
702,92	1318,89
703,10	1282,03
703,28	1212,40
703,47	1169,39
703,65	1329,13
703,84	1263,60
704,02	1247,21
704,20	1236,97
704,39	1271,79
704,57	1251,31
704,75	1298,41
704,94	1294,32
705,12	1257,45
705,30	1327,08
705,49	1255,40
705,67	1263,60
705,86	1302,51
706,04	1292,27
706,22	1284,08
706,41	1308,65
706,59	1175,53
706,77	1232,88
706,96	1230,83
707,14	1253,36
707,32	1290,22
707,51	1273,84
707,69	1271,79
707,87	1327,08
708,06	1290,22
708,24	1273,84
708,42	1247,21
708,61	1241,07
708,79	1222,64
708,97	1286,12
709,16	1241,07
709,34	1300,46
709,52	1216,49
709,71	1257,45
709,89	1241,07
710,07	1224,69
710,26	1286,12
710,44	1265,64
710,62	1318,89
710,80	1345,52
710,99	1290,22
711,17	1241,07
711,35	1191,92
711,54	1267,69
711,72	1275,88
711,90	1249,26
712,09	1310,70
712,27	1275,88
712,45	1218,54
712,63	1206,25
712,82	1331,18
713,00	1282,03
713,18	1265,64
713,37	1204,21
713,55	1189,87
713,73	1259,50
713,91	1261,55
714,10	1263,60
714,28	1271,79
714,46	1265,64
714,65	1275,88
714,83	1230,83
715,01	1275,88
715,19	1212,40
715,38	1243,12
715,56	1259,50
715,74	1249,26
715,92	1298,41
716,11	1220,59
716,29	1181,68
716,47	1310,70
716,65	1288,17
716,84	1271,79
717,02	1249,26
717,20	1230,83
717,38	1304,56
717,57	1253,36
717,75	1206,25
717,93	1175,53
718,11	1279,98
718,30	1267,69
718,48	1259,50
718,66	1294,32
718,84	1296,36
719,03	1224,69
719,21	1263,60
719,39	1279,98
719,57	1288,17
719,75	1236,97
719,94	1302,51
720,12	1245,16
720,30	1273,84
720,48	1263,60
720,67	1312,75
720,85	1255,40
721,03	1251,31
721,21	1239,02
721,39	1327,08
721,58	1243,12
721,76	1214,45
721,94	1290,22
722,12	1255,40
722,30	1255,40
722,49	1273,84
722,67	1239,02
722,85	1282,03
723,03	1300,46
723,21	1357,80
723,40	1261,55
723,58	1327,08
723,76	1259,50
723,94	1277,93
724,12	1224,69
724,30	1298,41
724,49	1167,34
724,67	1329,13
724,85	1226,73
725,03	1239,02
725,21	1298,41
725,40	1222,64
725,58	1257,45
725,76	1382,38
725,94	1267,69
726,12	1288,17
726,30	1282,03
726,49	1320,94
726,67	1234,93
726,85	1288,17
727,03	1310,70
727,21	1320,94
727,39	1257,45
727,57	1277,93
727,76	1208,30
727,94	1265,64
728,12	1327,08
728,30	1257,45
728,48	1243,12
728,66	1257,45
728,84	1312,75
729,03	1273,84
729,21	1271,79
729,39	1279,98
729,57	1243,12
729,75	1290,22
729,93	1296,36
730,11	1241,07
730,30	1243,12
730,48	1261,55
730,66	1228,78
730,84	1220,59
731,02	1218,54
731,20	1249,26
731,38	1290,22
731,56	1282,03
731,74	1245,16
731,93	1226,73
732,11	1236,97
732,29	1310,70
732,47	1271,79
732,65	1306,60
732,83	1286,12
733,01	1234,93
733,19	1236,97
733,37	1257,45
733,56	1292,27
733,74	1308,65
733,92	1228,78
734,10	1183,73
734,28	1236,97
734,46	1263,60
734,64	1273,84
734,82	1329,13
735,00	1304,56
735,18	1312,75
735,36	1277,93
735,54	1212,40
735,73	1253,36
735,91	1243,12
736,09	1298,41
736,27	1271,79
736,45	1298,41
736,63	1308,65
736,81	1224,69
736,99	1312,75
737,17	1312,75
737,35	1290,22
737,53	1298,41
737,71	1236,97
737,89	1259,50
738,07	1267,69
738,25	1300,46
738,43	1271,79
738,61	1216,49
738,80	1255,40
738,98	1214,45
739,16	1288,17
739,34	1236,97
739,52	1183,73
739,70	1228,78
739,88	1271,79
740,06	1294,32
740,24	1187,82
740,42	1302,51
740,60	1320,94
740,78	1296,36
740,96	1306,60
741,14	1222,64
741,32	1333,23
741,50	1288,17
741,68	1224,69
741,86	1294,32
742,04	1273,84
742,22	1294,32
742,40	1298,41
742,58	1327,08
742,76	1277,93
742,94	1200,11
743,12	1327,08
743,30	1320,94
743,48	1306,60
743,66	1284,08
743,84	1300,46
744,02	1247,21
744,20	1218,54
744,38	1247,21
744,56	1255,40
744,74	1279,98
744,92	1314,80
745,10	1257,45
745,28	1263,60
745,46	1339,37
745,64	1267,69
745,82	1282,03
746,00	1230,83
746,18	1294,32
746,36	1257,45
746,54	1239,02
746,72	1222,64
746,90	1302,51
747,08	1265,64
747,26	1216,49
747,44	1349,61
747,62	1271,79
747,80	1249,26
747,98	1298,41
748,15	1148,91
748,33	1251,31
748,51	1298,41
748,69	1234,93
748,87	1277,93
749,05	1318,89
749,23	1210,35
749,41	1316,84
749,59	1261,55
749,77	1239,02
749,95	1279,98
750,13	1228,78
750,31	1259,50
750,49	1255,40
750,67	1245,16
750,85	1249,26
751,03	1245,16
751,20	1230,83
751,38	1308,65
751,56	1325,04
751,74	1265,64
751,92	1232,88
752,10	1218,54
752,28	1241,07
752,46	1239,02
752,64	1255,40
752,82	1265,64
753,00	1294,32
753,18	1232,88
753,35	1294,32
753,53	1310,70
753,71	1257,45
753,89	1306,60
754,07	1257,45
754,25	1273,84
754,43	1298,41
754,61	1271,79
754,79	1269,74
754,97	1251,31
755,14	1310,70
755,32	1236,97
755,50	1265,64
755,68	1296,36
755,86	1185,77
756,04	1255,40
756,22	1271,79
756,40	1239,02
756,57	1189,87
756,75	1263,60
756,93	1279,98
757,11	1257,45
757,29	1269,74
757,47	1288,17
757,65	1296,36
757,82	1265,64
758,00	1251,31
758,18	1288,17
758,36	1247,21
758,54	1345,52
758,72	1212,40
758,90	1269,74
759,07	1279,98
759,25	1241,07
759,43	1320,94
759,61	1298,41
759,79	1251,31
759,97	1314,80
760,15	1239,02
760,32	1269,74
760,50	1251,31
760,68	1232,88
760,86	1300,46
761,04	1243,12
761,22	1277,93
761,39	1286,12
761,57	1343,47
761,75	1249,26
761,93	1284,08
762,11	1314,80
762,28	1331,18
762,46	1314,80
762,64	1249,26
762,82	1257,45
763,00	1214,45
763,18	1298,41
763,35	1292,27
763,53	1298,41
763,71	1218,54
763,89	1249,26
764,07	1267,69
764,24	1286,12
764,42	1273,84
764,60	1282,03
764,78	1214,45
764,96	1290,22
765,13	1298,41
765,31	1253,36
765,49	1191,92
765,67	1226,73
765,84	1263,60
766,02	1320,94
766,20	1341,42
766,38	1329,13
766,56	1290,22
766,73	1284,08
766,91	1234,93
767,09	1220,59
767,27	1265,64
767,44	1265,64
767,62	1310,70
767,80	1298,41
767,98	1193,97
768,15	1251,31
768,33	1288,17
768,51	1239,02
768,69	1261,55
768,87	1300,46
769,04	1236,97
769,22	1257,45
769,40	1257,45
769,58	1247,21
769,75	1292,27
769,93	1269,74
770,11	1337,32
770,28	1232,88
770,46	1275,88
770,64	1304,56
770,82	1255,40
770,99	1263,60
771,17	1232,88
771,35	1255,40
771,53	1245,16
771,70	1239,02
771,88	1255,40
772,06	1294,32
772,23	1286,12
772,41	1275,88
772,59	1304,56
772,77	1271,79
772,94	1257,45
773,12	1310,70
773,30	1316,84
773,47	1273,84
773,65	1187,82
773,83	1249,26
774,01	1171,44
774,18	1232,88
774,36	1228,78
774,54	1312,75
774,71	1232,88
774,89	1224,69
775,07	1218,54
775,24	1298,41
775,42	1329,13
775,60	1259,50
775,78	1310,70
775,95	1206,25
776,13	1193,97
776,31	1155,05
776,48	1259,50
776,66	1294,32
776,84	1282,03
777,01	1325,04
777,19	1282,03
777,37	1282,03
777,54	1292,27
777,72	1263,60
777,90	1273,84
778,07	1239,02
778,25	1290,22
778,43	1279,98
778,60	1275,88
778,78	1206,25
778,96	1316,84
779,13	1234,93
779,31	1234,93
779,49	1314,80
779,66	1325,04
779,84	1241,07
780,01	1263,60
780,19	1286,12
780,37	1253,36
780,54	1353,71
780,72	1251,31
780,90	1208,30
781,07	1249,26
781,25	1208,30
781,43	1302,51
781,60	1284,08
781,78	1228,78
781,95	1329,13
782,13	1253,36
782,31	1284,08
782,48	1220,59
782,66	1271,79
782,83	1257,45
783,01	1257,45
783,19	1294,32
783,36	1271,79
783,54	1302,51
783,72	1339,37
783,89	1284,08
784,07	1282,03
784,24	1277,93
784,42	1325,04
784,60	1247,21
784,77	1249,26
784,95	1261,55
785,12	1230,83
785,30	1222,64
785,47	1282,03
785,65	1275,88
785,83	1257,45
786,00	1413,10
786,18	1320,94
786,35	1245,16
786,53	1290,22
786,71	1255,40
786,88	1275,88
787,06	1302,51
787,23	1288,17
787,41	1232,88
787,58	1198,06
787,76	1275,88
787,94	1249,26
788,11	1222,64
788,29	1290,22
788,46	1175,53
788,64	1265,64
788,81	1267,69
788,99	1327,08
789,16	1265,64
789,34	1265,64
789,52	1304,56
789,69	1290,22
789,87	1282,03
790,04	1243,12
790,22	1263,60
790,39	1271,79
790,57	1304,56
790,74	1288,17
790,92	1267,69
791,09	1232,88
791,27	1224,69
791,44	1261,55
791,62	1255,40
791,79	1228,78
791,97	1210,35
792,15	1259,50
792,32	1294,32
792,50	1282,03
792,67	1300,46
792,85	1284,08
793,02	1308,65
793,20	1222,64
793,37	1228,78
793,55	1269,74
793,72	1230,83
793,90	1310,70
794,07	1193,97
794,25	1300,46
794,42	1214,45
794,60	1288,17
794,77	1277,93
794,95	1253,36
795,12	1230,83
795,30	1218,54
795,47	1282,03
795,65	1255,40
795,82	1249,26
796,00	1226,73
796,17	1271,79
796,34	1230,83
796,52	1308,65
796,69	1263,60
796,87	1216,49
797,04	1320,94
797,22	1265,64
797,39	1253,36
797,57	1202,16
797,74	1310,70
797,92	1284,08
798,09	1251,31
798,27	1232,88
798,44	1290,22
798,62	1304,56
798,79	1302,51
798,96	1320,94
799,14	1234,93
799,31	1271,79
799,49	1208,30
799,66	1257,45
799,84	1318,89
800,01	1249,26
800,19	1298,41
800,36	1314,80
800,53	1253,36
800,71	1232,88
800,88	1306,60
801,06	1214,45
801,23	1228,78
801,41	1308,65
801,58	1284,08
801,75	1265,64
801,93	1304,56
802,10	1286,12
802,28	1333,23
802,45	1232,88
802,63	1279,98
802,80	1273,84
802,97	1230,83
803,15	1257,45
803,32	1302,51
803,50	1241,07
803,67	1210,35
803,84	1288,17
804,02	1263,60
804,19	1249,26
804,37	1249,26
804,54	1288,17
804,71	1290,22
804,89	1257,45
805,06	1196,01
805,24	1243,12
805,41	1245,16
805,58	1275,88
805,76	1310,70
805,93	1335,28
806,10	1314,80
806,28	1282,03
806,45	1312,75
806,63	1249,26
806,80	1236,97
806,97	1232,88
807,15	1298,41
807,32	1228,78
807,49	1271,79
807,67	1232,88
807,84	1198,06
808,01	1243,12
808,19	1245,16
808,36	1216,49
808,54	1249,26
808,71	1279,98
808,88	1224,69
809,06	1277,93
809,23	1355,76
809,40	1316,84
809,58	1208,30
809,75	1316,84
809,92	1253,36
810,10	1234,93
810,27	1253,36
810,44	1265,64
810,62	1255,40
810,79	1253,36
810,96	1267,69
811,14	1327,08
811,31	1277,93
811,48	1259,50
811,66	1275,88
811,83	1249,26
812,00	1241,07
812,18	1290,22
812,35	1325,04
812,52	1243,12
812,69	1265,64
812,87	1187,82
813,04	1263,60
813,21	1320,94
813,39	1273,84
813,56	1243,12
813,73	1273,84
813,91	1277,93
814,08	1269,74
814,25	1210,35
814,42	1157,10
814,60	1290,22
814,77	1239,02
814,94	1253,36
815,12	1269,74
815,29	1290,22
815,46	1294,32
815,63	1282,03
815,81	1292,27
815,98	1304,56
816,15	1216,49
816,33	1212,40
816,50	1228,78
816,67	1216,49
816,84	1257,45
817,02	1243,12
817,19	1249,26
817,36	1255,40
817,53	1253,36
817,71	1226,73
817,88	1218,54
818,05	1234,93
818,22	1234,93
818,40	1277,93
818,57	1284,08
818,74	1288,17
818,91	1310,70
819,09	1232,88
819,26	1241,07
819,43	1224,69
819,60	1263,60
819,78	1247,21
819,95	1228,78
820,12	1294,32
820,29	1226,73
820,47	1312,75
820,64	1214,45
820,81	1218,54
820,98	1286,12
821,15	1314,80
821,33	1300,46
821,50	1282,03
821,67	1279,98
821,84	1251,31
822,02	1292,27
822,19	1222,64
822,36	1288,17
822,53	1277,93
822,70	1306,60
822,88	1228,78
823,05	1265,64
823,22	1320,94
823,39	1322,99
823,56	1294,32
823,74	1288,17
823,91	1253,36
824,08	1294,32
824,25	1269,74
824,42	1269,74
824,60	1196,01
824,77	1279,98
824,94	1325,04
825,11	1277,93
825,28	1230,83
825,45	1273,84
825,63	1284,08
825,80	1232,88
825,97	1204,21
826,14	1290,22
826,31	1257,45
826,48	1288,17
826,66	1173,49
826,83	1216,49
827,00	1312,75
827,17	1273,84
827,34	1357,80
827,51	1339,37
827,69	1175,53
827,86	1298,41
828,03	1284,08
828,20	1298,41
828,37	1279,98
828,54	1239,02
828,71	1257,45
828,89	1243,12
829,06	1267,69
829,23	1284,08
829,40	1224,69
829,57	1292,27
829,74	1277,93
829,91	1241,07
830,09	1275,88
830,26	1327,08
830,43	1196,01
830,60	1312,75
830,77	1208,30
830,94	1200,11
831,11	1257,45
831,28	1247,21
831,46	1257,45
831,63	1327,08
831,80	1353,71
831,97	1230,83
832,14	1263,60
832,31	1253,36
832,48	1257,45
832,65	1251,31
832,82	1316,84
832,99	1359,85
833,17	1228,78
833,34	1279,98
833,51	1230,83
833,68	1286,12
833,85	1282,03
834,02	1239,02
834,19	1253,36
834,36	1282,03
834,53	1300,46
834,70	1247,21
834,87	1304,56
835,04	1259,50
835,22	1298,41
835,39	1228,78
835,56	1331,18
835,73	1284,08
835,90	1349,61
836,07	1241,07
836,24	1302,51
836,41	1216,49
836,58	1224,69
836,75	1273,84
836,92	1304,56
837,09	1236,97
837,26	1286,12
837,43	1353,71
837,60	1259,50
837,77	1275,88
837,94	1216,49
838,12	1296,36
838,29	1300,46
838,46	1247,21
838,63	1339,37
838,80	1269,74
838,97	1255,40
839,14	1247,21
839,31	1247,21
839,48	1255,40
839,65	1271,79
839,82	1267,69
839,99	1282,03
840,16	1335,28
840,33	1277,93
840,50	1282,03
840,67	1191,92
840,84	1212,40
841,01	1308,65
841,18	1269,74
841,35	1282,03
841,52	1298,41
841,69	1300,46
841,86	1282,03
842,03	1304,56
842,20	1243,12
842,37	1257,45
842,54	1345,52
842,71	1255,40
842,88	1198,06
843,05	1220,59
843,22	1296,36
843,39	1232,88
843,56	1282,03
843,73	1290,22
843,90	1249,26
844,07	1253,36
844,24	1191,92
844,41	1275,88
844,58	1337,32
844,75	1290,22
844,92	1218,54
845,09	1173,49
845,26	1327,08
845,43	1284,08
845,60	1294,32
845,77	1284,08
845,94	1316,84
846,10	1331,18
846,27	1279,98
846,44	1292,27
846,61	1294,32
846,78	1288,17
846,95	1341,42
847,12	1212,40
847,29	1296,36
847,46	1318,89
847,63	1214,45
847,80	1294,32
847,97	1241,07
848,14	1273,84
848,31	1302,51
848,48	1177,58
848,65	1290,22
848,82	1261,55
848,98	1298,41
849,15	1224,69
849,32	1216,49
849,49	1232,88
849,66	1282,03
849,83	1273,84
850,00	1249,26
850,17	1208,30
850,34	1253,36
850,51	1253,36
850,68	1236,97
850,85	1193,97
851,01	1214,45
851,18	1312,75
851,35	1232,88
851,52	1243,12
851,69	1265,64
851,86	1257,45
852,03	1290,22
852,20	1298,41
852,37	1247,21
852,53	1177,58
852,70	1290,22
852,87	1232,88
853,04	1243,12
853,21	1230,83
853,38	1200,11
853,55	1249,26
853,72	1243,12
853,89	1302,51
854,05	1269,74
854,22	1243,12
854,39	1279,98
854,56	1304,56
854,73	1300,46
854,90	1271,79
855,07	1218,54
855,23	1294,32
855,40	1218,54
855,57	1294,32
855,74	1288,17
855,91	1263,60
856,08	1257,45
856,25	1308,65
856,41	1247,21
856,58	1277,93
856,75	1232,88
856,92	1236,97
857,09	1249,26
857,26	1175,53
857,42	1302,51
857,59	1290,22
857,76	1310,70
857,93	1208,30
858,10	1275,88
858,27	1247,21
858,43	1292,27
858,60	1273,84
858,77	1255,40
858,94	1159,15
859,11	1288,17
859,27	1286,12
859,44	1318,89
859,61	1314,80
859,78	1288,17
859,95	1253,36
860,12	1220,59
860,28	1220,59
860,45	1292,27
860,62	1320,94
860,79	1269,74
860,95	1251,31
861,12	1273,84
861,29	1282,03
861,46	1241,07
861,63	1243,12
861,79	1251,31
861,96	1247,21
862,13	1265,64
862,30	1290,22
862,47	1267,69
862,63	1298,41
862,80	1263,60
862,97	1239,02
863,14	1243,12
863,30	1320,94
863,47	1284,08
863,64	1228,78
863,81	1312,75
863,97	1196,01
864,14	1314,80
864,31	1263,60
864,48	1290,22
864,65	1187,82
864,81	1322,99
864,98	1288,17
865,15	1243,12
865,32	1282,03
865,48	1265,64
865,65	1310,70
865,82	1333,23
865,98	1251,31
866,15	1298,41
866,32	1253,36
866,49	1243,12
866,65	1290,22
866,82	1247,21
866,99	1269,74
867,16	1271,79
867,32	1239,02
867,49	1294,32
867,66	1243,12
867,83	1265,64
867,99	1345,52
868,16	1265,64
868,33	1277,93
868,49	1267,69
868,66	1239,02
868,83	1288,17
868,99	1239,02
869,16	1269,74
869,33	1292,27
869,50	1296,36
869,66	1282,03
869,83	1267,69
870,00	1220,59
870,16	1327,08
870,33	1314,80
870,50	1316,84
870,66	1261,55
870,83	1327,08
871,00	1204,21
871,17	1286,12
871,33	1236,97
871,50	1310,70
871,67	1232,88
871,83	1228,78
872,00	1224,69
872,17	1347,56
872,33	1239,02
872,50	1247,21
872,67	1202,16
872,83	1312,75
873,00	1273,84
873,17	1265,64
873,33	1255,40
873,50	1318,89
873,67	1247,21
873,83	1269,74
874,00	1224,69
874,16	1331,18
874,33	1257,45
874,50	1296,36
874,66	1282,03
874,83	1302,51
875,00	1230,83
875,16	1300,46
875,33	1265,64
875,50	1322,99
875,66	1239,02
875,83	1267,69
875,99	1294,32
876,16	1286,12
876,33	1196,01
876,49	1241,07
876,66	1232,88
876,83	1253,36
876,99	1282,03
877,16	1247,21
877,32	1314,80
877,49	1228,78
877,66	1251,31
877,82	1259,50
877,99	1210,35
878,15	1327,08
878,32	1277,93
878,49	1234,93
878,65	1269,74
878,82	1282,03
878,98	1296,36
879,15	1239,02
879,32	1216,49
879,48	1273,84
879,65	1296,36
879,81	1236,97
879,98	1181,68
880,15	1269,74
880,31	1300,46
880,48	1263,60
880,64	1263,60
880,81	1200,11
880,97	1255,40
881,14	1282,03
881,31	1161,20
881,47	1337,32
881,64	1290,22
881,80	1236,97
881,97	1202,16
882,13	1228,78
882,30	1318,89
882,47	1302,51
882,63	1329,13
882,80	1241,07
882,96	1228,78
883,13	1249,26
883,29	1187,82
883,46	1331,18
883,62	1218,54
883,79	1261,55
883,95	1298,41
884,12	1296,36
884,29	1300,46
884,45	1222,64
884,62	1284,08
884,78	1310,70
884,95	1325,04
885,11	1275,88
885,28	1325,04
885,44	1269,74
885,61	1282,03
885,77	1265,64
885,94	1294,32
886,10	1239,02
886,27	1218,54
886,43	1216,49
886,60	1222,64
886,76	1277,93
886,93	1279,98
887,09	1306,60
887,26	1271,79
887,42	1259,50
887,59	1267,69
887,75	1347,56
887,92	1239,02
888,08	1286,12
888,25	1286,12
888,41	1257,45
888,58	1247,21
888,74	1263,60
888,91	1243,12
>>>>>End Processed Spectral Data<<<<<
