SpectraSuite Data File
++++++++++++++++++++++++++++++++++++
Date: Sun Apr 03 15:17:34 CEST 2016
User: root
Dark Spectrum Present: No
Reference Spectrum Present: No
Number of Sampled Component Spectra: 1
Spectrometers: USB4C02835
Integration Time (usec): 10000 (USB4C02835)
Spectra Averaged: 1 (USB4C02835)
Boxcar Smoothing: 0 (USB4C02835)
Correct for Electrical Dark: No (USB4C02835)
Strobe/Lamp Enabled: No (USB4C02835)
Correct for Detector Non-linearity: No (USB4C02835)
Correct for Stray Light: No (USB4C02835)
Number of Pixels in Processed Spectrum: 3648
>>>>>Begin Processed Spectral Data<<<<<
177,47	1249,26
177,69	1249,26
177,91	1249,26
178,13	1320,94
178,36	1279,98
178,58	1163,25
178,80	1273,84
179,02	1271,79
179,24	1298,41
179,46	1310,70
179,68	1269,74
179,90	1239,02
180,13	1296,36
180,35	1218,54
180,57	1322,99
180,79	1245,16
181,01	1206,25
181,23	1279,98
181,45	1290,22
181,67	1241,07
181,90	1277,93
182,12	1232,88
182,34	1259,50
182,56	1208,30
182,78	1261,55
183,00	1320,94
183,22	1236,97
183,44	1314,80
183,66	1249,26
183,89	1298,41
184,11	1265,64
184,33	1257,45
184,55	1331,18
184,77	1271,79
184,99	1331,18
185,21	1288,17
185,43	1269,74
185,65	1257,45
185,87	1220,59
186,10	1290,22
186,32	1236,97
186,54	1265,64
186,76	1214,45
186,98	1298,41
187,20	1249,26
187,42	1226,73
187,64	1265,64
187,86	1273,84
188,08	1224,69
188,30	1265,64
188,52	1325,04
188,75	1267,69
188,97	1331,18
189,19	1304,56
189,41	1290,22
189,63	1277,93
189,85	1318,89
190,07	1363,95
190,29	1196,01
190,51	1331,18
190,73	1261,55
190,95	1329,13
191,17	1193,97
191,39	1239,02
191,61	1253,36
191,84	1173,49
192,06	1220,59
192,28	1267,69
192,50	1269,74
192,72	1204,21
192,94	1239,02
193,16	1314,80
193,38	1325,04
193,60	1265,64
193,82	1232,88
194,04	1277,93
194,26	1290,22
194,48	1212,40
194,70	1343,47
194,92	1286,12
195,14	1331,18
195,36	1359,85
195,58	1288,17
195,80	1294,32
196,02	1220,59
196,24	1316,84
196,46	1267,69
196,69	1224,69
196,91	1230,83
197,13	1347,56
197,35	1286,12
197,57	1202,16
197,79	1294,32
198,01	1271,79
198,23	1259,50
198,45	1286,12
198,67	1294,32
198,89	1214,45
199,11	1259,50
199,33	1273,84
199,55	1320,94
199,77	1247,21
199,99	1320,94
200,21	1378,28
200,43	1286,12
200,65	1294,32
200,87	1263,60
201,09	1228,78
201,31	1298,41
201,53	1284,08
201,75	1345,52
201,97	1173,49
202,19	1284,08
202,41	1275,88
202,63	1292,27
202,85	1286,12
203,07	1290,22
203,29	1222,64
203,51	1230,83
203,73	1273,84
203,95	1269,74
204,17	1286,12
204,39	1243,12
204,61	1292,27
204,83	1312,75
205,05	1298,41
205,27	1300,46
205,49	1355,76
205,71	1234,93
205,93	1228,78
206,15	1269,74
206,37	1282,03
206,59	1161,20
206,81	1308,65
207,03	1284,08
207,25	1279,98
207,47	1267,69
207,69	1247,21
207,91	1292,27
208,13	1279,98
208,34	1308,65
208,56	1366,00
208,78	1255,40
209,00	1298,41
209,22	1212,40
209,44	1230,83
209,66	1294,32
209,88	1279,98
210,10	1273,84
210,32	1277,93
210,54	1306,60
210,76	1339,37
210,98	1263,60
211,20	1296,36
211,42	1290,22
211,64	1255,40
211,86	1331,18
212,08	1263,60
212,30	1265,64
212,52	1253,36
212,74	1263,60
212,96	1265,64
213,17	1267,69
213,39	1298,41
213,61	1271,79
213,83	1286,12
214,05	1300,46
214,27	1337,32
214,49	1234,93
214,71	1298,41
214,93	1279,98
215,15	1294,32
215,37	1214,45
215,59	1306,60
215,81	1298,41
216,03	1257,45
216,24	1247,21
216,46	1284,08
216,68	1257,45
216,90	1251,31
217,12	1243,12
217,34	1279,98
217,56	1298,41
217,78	1349,61
218,00	1265,64
218,22	1259,50
218,44	1327,08
218,66	1322,99
218,87	1337,32
219,09	1257,45
219,31	1282,03
219,53	1236,97
219,75	1241,07
219,97	1251,31
220,19	1245,16
220,41	1322,99
220,63	1288,17
220,85	1253,36
221,06	1273,84
221,28	1265,64
221,50	1185,77
221,72	1275,88
221,94	1302,51
222,16	1236,97
222,38	1302,51
222,60	1294,32
222,82	1290,22
223,03	1277,93
223,25	1363,95
223,47	1216,49
223,69	1370,09
223,91	1359,85
224,13	1159,15
224,35	1269,74
224,57	1296,36
224,78	1241,07
225,00	1236,97
225,22	1337,32
225,44	1329,13
225,66	1292,27
225,88	1191,92
226,10	1234,93
226,32	1247,21
226,53	1218,54
226,75	1267,69
226,97	1216,49
227,19	1290,22
227,41	1275,88
227,63	1353,71
227,85	1273,84
228,06	1306,60
228,28	1279,98
228,50	1239,02
228,72	1290,22
228,94	1249,26
229,16	1316,84
229,37	1239,02
229,59	1247,21
229,81	1263,60
230,03	1322,99
230,25	1222,64
230,47	1228,78
230,69	1259,50
230,90	1286,12
231,12	1355,76
231,34	1296,36
231,56	1298,41
231,78	1232,88
232,00	1263,60
232,21	1249,26
232,43	1259,50
232,65	1296,36
232,87	1322,99
233,09	1265,64
233,30	1275,88
233,52	1210,35
233,74	1230,83
233,96	1320,94
234,18	1292,27
234,40	1261,55
234,61	1327,08
234,83	1165,29
235,05	1214,45
235,27	1251,31
235,49	1298,41
235,70	1261,55
235,92	1247,21
236,14	1185,77
236,36	1290,22
236,58	1259,50
236,79	1265,64
237,01	1318,89
237,23	1263,60
237,45	1345,52
237,67	1253,36
237,88	1251,31
238,10	1308,65
238,32	1222,64
238,54	1228,78
238,76	1284,08
238,97	1288,17
239,19	1150,96
239,41	1279,98
239,63	1396,71
239,85	1267,69
240,06	1337,32
240,28	1286,12
240,50	1306,60
240,72	1279,98
240,93	1241,07
241,15	1345,52
241,37	1304,56
241,59	1288,17
241,81	1318,89
242,02	1224,69
242,24	1261,55
242,46	1392,62
242,68	1284,08
242,89	1376,24
243,11	1241,07
243,33	1247,21
243,55	1298,41
243,76	1304,56
243,98	1236,97
244,20	1314,80
244,42	1279,98
244,64	1302,51
244,85	1239,02
245,07	1286,12
245,29	1212,40
245,51	1347,56
245,72	1210,35
245,94	1325,04
246,16	1310,70
246,38	1220,59
246,59	1284,08
246,81	1230,83
247,03	1226,73
247,24	1236,97
247,46	1230,83
247,68	1247,21
247,90	1331,18
248,11	1232,88
248,33	1271,79
248,55	1318,89
248,77	1263,60
248,98	1286,12
249,20	1308,65
249,42	1191,92
249,64	1314,80
249,85	1200,11
250,07	1259,50
250,29	1302,51
250,50	1290,22
250,72	1263,60
250,94	1243,12
251,16	1337,32
251,37	1298,41
251,59	1327,08
251,81	1239,02
252,02	1286,12
252,24	1269,74
252,46	1245,16
252,68	1353,71
252,89	1308,65
253,11	1243,12
253,33	1236,97
253,54	1255,40
253,76	1177,58
253,98	1279,98
254,20	1245,16
254,41	1216,49
254,63	1290,22
254,85	1245,16
255,06	1267,69
255,28	1220,59
255,50	1239,02
255,71	1273,84
255,93	1269,74
256,15	1228,78
256,36	1275,88
256,58	1300,46
256,80	1277,93
257,02	1275,88
257,23	1259,50
257,45	1228,78
257,67	1294,32
257,88	1208,30
258,10	1220,59
258,32	1200,11
258,53	1245,16
258,75	1275,88
258,97	1316,84
259,18	1279,98
259,40	1304,56
259,62	1185,77
259,83	1261,55
260,05	1286,12
260,27	1288,17
260,48	1247,21
260,70	1304,56
260,92	1292,27
261,13	1275,88
261,35	1288,17
261,57	1230,83
261,78	1228,78
262,00	1343,47
262,22	1294,32
262,43	1247,21
262,65	1312,75
262,86	1228,78
263,08	1314,80
263,30	1251,31
263,51	1257,45
263,73	1245,16
263,95	1304,56
264,16	1257,45
264,38	1273,84
264,60	1269,74
264,81	1290,22
265,03	1255,40
265,25	1261,55
265,46	1282,03
265,68	1345,52
265,89	1294,32
266,11	1296,36
266,33	1267,69
266,54	1277,93
266,76	1253,36
266,98	1290,22
267,19	1294,32
267,41	1316,84
267,62	1269,74
267,84	1224,69
268,06	1308,65
268,27	1230,83
268,49	1241,07
268,70	1232,88
268,92	1275,88
269,14	1267,69
269,35	1257,45
269,57	1345,52
269,79	1216,49
270,00	1234,93
270,22	1339,37
270,43	1333,23
270,65	1255,40
270,87	1265,64
271,08	1241,07
271,30	1282,03
271,51	1308,65
271,73	1247,21
271,95	1208,30
272,16	1259,50
272,38	1296,36
272,59	1279,98
272,81	1220,59
273,02	1296,36
273,24	1224,69
273,46	1228,78
273,67	1316,84
273,89	1306,60
274,10	1308,65
274,32	1251,31
274,54	1257,45
274,75	1282,03
274,97	1232,88
275,18	1212,40
275,40	1290,22
275,61	1224,69
275,83	1327,08
276,05	1226,73
276,26	1247,21
276,48	1294,32
276,69	1304,56
276,91	1261,55
277,12	1275,88
277,34	1259,50
277,55	1304,56
277,77	1300,46
277,99	1239,02
278,20	1267,69
278,42	1333,23
278,63	1226,73
278,85	1279,98
279,06	1193,97
279,28	1368,04
279,49	1255,40
279,71	1341,42
279,93	1222,64
280,14	1255,40
280,36	1239,02
280,57	1310,70
280,79	1228,78
281,00	1288,17
281,22	1257,45
281,43	1298,41
281,65	1304,56
281,86	1247,21
282,08	1339,37
282,29	1232,88
282,51	1265,64
282,73	1263,60
282,94	1249,26
283,16	1249,26
283,37	1247,21
283,59	1288,17
283,80	1263,60
284,02	1294,32
284,23	1308,65
284,45	1208,30
284,66	1304,56
284,88	1292,27
285,09	1284,08
285,31	1318,89
285,52	1261,55
285,74	1308,65
285,95	1306,60
286,17	1318,89
286,38	1327,08
286,60	1288,17
286,81	1298,41
287,03	1249,26
287,24	1310,70
287,46	1224,69
287,67	1253,36
287,89	1298,41
288,10	1279,98
288,32	1187,82
288,53	1271,79
288,75	1257,45
288,96	1208,30
289,18	1263,60
289,39	1265,64
289,61	1282,03
289,82	1243,12
290,04	1304,56
290,25	1247,21
290,47	1257,45
290,68	1302,51
290,90	1304,56
291,11	1249,26
291,33	1232,88
291,54	1251,31
291,76	1236,97
291,97	1339,37
292,18	1312,75
292,40	1265,64
292,61	1173,49
292,83	1306,60
293,04	1343,47
293,26	1269,74
293,47	1339,37
293,69	1294,32
293,90	1259,50
294,12	1247,21
294,33	1206,25
294,55	1255,40
294,76	1249,26
294,97	1286,12
295,19	1320,94
295,40	1253,36
295,62	1232,88
295,83	1269,74
296,05	1292,27
296,26	1282,03
296,48	1261,55
296,69	1284,08
296,90	1255,40
297,12	1206,25
297,33	1282,03
297,55	1325,04
297,76	1218,54
297,98	1222,64
298,19	1331,18
298,41	1316,84
298,62	1265,64
298,83	1247,21
299,05	1263,60
299,26	1232,88
299,48	1263,60
299,69	1218,54
299,90	1230,83
300,12	1220,59
300,33	1259,50
300,55	1245,16
300,76	1288,17
300,98	1275,88
301,19	1257,45
301,40	1273,84
301,62	1267,69
301,83	1230,83
302,05	1271,79
302,26	1296,36
302,47	1320,94
302,69	1277,93
302,90	1206,25
303,12	1259,50
303,33	1255,40
303,54	1255,40
303,76	1300,46
303,97	1230,83
304,19	1286,12
304,40	1263,60
304,61	1288,17
304,83	1310,70
305,04	1279,98
305,26	1210,35
305,47	1273,84
305,68	1161,20
305,90	1261,55
306,11	1279,98
306,33	1210,35
306,54	1312,75
306,75	1304,56
306,97	1232,88
307,18	1230,83
307,39	1249,26
307,61	1269,74
307,82	1271,79
308,04	1345,52
308,25	1253,36
308,46	1253,36
308,68	1263,60
308,89	1308,65
309,10	1314,80
309,32	1232,88
309,53	1325,04
309,74	1241,07
309,96	1261,55
310,17	1292,27
310,39	1302,51
310,60	1271,79
310,81	1288,17
311,03	1224,69
311,24	1327,08
311,45	1300,46
311,67	1306,60
311,88	1302,51
312,09	1181,68
312,31	1245,16
312,52	1282,03
312,73	1290,22
312,95	1271,79
313,16	1277,93
313,37	1220,59
313,59	1294,32
313,80	1228,78
314,01	1247,21
314,23	1325,04
314,44	1277,93
314,65	1236,97
314,87	1228,78
315,08	1312,75
315,29	1230,83
315,51	1298,41
315,72	1224,69
315,93	1247,21
316,15	1269,74
316,36	1239,02
316,57	1302,51
316,79	1286,12
317,00	1302,51
317,21	1304,56
317,43	1318,89
317,64	1353,71
317,85	1245,16
318,07	1273,84
318,28	1216,49
318,49	1191,92
318,70	1216,49
318,92	1298,41
319,13	1247,21
319,34	1185,77
319,56	1300,46
319,77	1304,56
319,98	1310,70
320,20	1222,64
320,41	1216,49
320,62	1263,60
320,83	1273,84
321,05	1302,51
321,26	1302,51
321,47	1222,64
321,69	1255,40
321,90	1265,64
322,11	1196,01
322,32	1269,74
322,54	1273,84
322,75	1257,45
322,96	1351,66
323,18	1241,07
323,39	1329,13
323,60	1204,21
323,81	1261,55
324,03	1343,47
324,24	1241,07
324,45	1277,93
324,66	1247,21
324,88	1208,30
325,09	1265,64
325,30	1292,27
325,52	1277,93
325,73	1269,74
325,94	1284,08
326,15	1253,36
326,37	1216,49
326,58	1255,40
326,79	1304,56
327,00	1304,56
327,22	1259,50
327,43	1251,31
327,64	1173,49
327,85	1316,84
328,07	1222,64
328,28	1243,12
328,49	1277,93
328,70	1206,25
328,92	1314,80
329,13	1263,60
329,34	1282,03
329,55	1277,93
329,76	1279,98
329,98	1255,40
330,19	1249,26
330,40	1273,84
330,61	1392,62
330,83	1255,40
331,04	1341,42
331,25	1259,50
331,46	1312,75
331,68	1239,02
331,89	1263,60
332,10	1273,84
332,31	1288,17
332,52	1224,69
332,74	1220,59
332,95	1236,97
333,16	1284,08
333,37	1181,68
333,58	1296,36
333,80	1302,51
334,01	1277,93
334,22	1292,27
334,43	1292,27
334,64	1247,21
334,86	1286,12
335,07	1228,78
335,28	1236,97
335,49	1185,77
335,70	1241,07
335,92	1290,22
336,13	1284,08
336,34	1329,13
336,55	1298,41
336,76	1230,83
336,98	1275,88
337,19	1241,07
337,40	1257,45
337,61	1300,46
337,82	1257,45
338,04	1366,00
338,25	1239,02
338,46	1214,45
338,67	1355,76
338,88	1284,08
339,09	1163,25
339,31	1267,69
339,52	1247,21
339,73	1282,03
339,94	1230,83
340,15	1339,37
340,36	1263,60
340,58	1269,74
340,79	1288,17
341,00	1261,55
341,21	1316,84
341,42	1306,60
341,63	1296,36
341,85	1255,40
342,06	1234,93
342,27	1302,51
342,48	1247,21
342,69	1320,94
342,90	1333,23
343,12	1253,36
343,33	1257,45
343,54	1343,47
343,75	1288,17
343,96	1247,21
344,17	1255,40
344,38	1333,23
344,60	1241,07
344,81	1290,22
345,02	1296,36
345,23	1366,00
345,44	1386,47
345,65	1296,36
345,86	1286,12
346,07	1271,79
346,29	1265,64
346,50	1269,74
346,71	1245,16
346,92	1187,82
347,13	1298,41
347,34	1249,26
347,55	1251,31
347,76	1282,03
347,98	1247,21
348,19	1263,60
348,40	1353,71
348,61	1288,17
348,82	1247,21
349,03	1210,35
349,24	1255,40
349,45	1300,46
349,66	1232,88
349,88	1198,06
350,09	1290,22
350,30	1257,45
350,51	1202,16
350,72	1179,63
350,93	1181,68
351,14	1310,70
351,35	1284,08
351,56	1253,36
351,77	1294,32
351,99	1253,36
352,20	1265,64
352,41	1292,27
352,62	1279,98
352,83	1265,64
353,04	1300,46
353,25	1265,64
353,46	1249,26
353,67	1339,37
353,88	1333,23
354,09	1247,21
354,30	1339,37
354,52	1292,27
354,73	1255,40
354,94	1230,83
355,15	1298,41
355,36	1253,36
355,57	1282,03
355,78	1247,21
355,99	1306,60
356,20	1267,69
356,41	1298,41
356,62	1212,40
356,83	1265,64
357,04	1251,31
357,25	1279,98
357,46	1232,88
357,68	1243,12
357,89	1218,54
358,10	1312,75
358,31	1185,77
358,52	1249,26
358,73	1279,98
358,94	1267,69
359,15	1218,54
359,36	1271,79
359,57	1269,74
359,78	1263,60
359,99	1230,83
360,20	1222,64
360,41	1226,73
360,62	1269,74
360,83	1333,23
361,04	1284,08
361,25	1249,26
361,46	1275,88
361,67	1255,40
361,88	1318,89
362,09	1263,60
362,30	1224,69
362,51	1275,88
362,72	1314,80
362,93	1224,69
363,14	1341,42
363,35	1255,40
363,56	1279,98
363,78	1259,50
363,99	1312,75
364,20	1267,69
364,41	1286,12
364,62	1284,08
364,83	1214,45
365,04	1320,94
365,25	1257,45
365,46	1290,22
365,67	1271,79
365,88	1216,49
366,09	1288,17
366,30	1259,50
366,51	1312,75
366,72	1335,28
366,93	1259,50
367,14	1255,40
367,35	1273,84
367,56	1239,02
367,77	1302,51
367,98	1249,26
368,18	1296,36
368,39	1322,99
368,60	1275,88
368,81	1261,55
369,02	1316,84
369,23	1261,55
369,44	1288,17
369,65	1370,09
369,86	1271,79
370,07	1234,93
370,28	1241,07
370,49	1282,03
370,70	1269,74
370,91	1322,99
371,12	1263,60
371,33	1224,69
371,54	1296,36
371,75	1327,08
371,96	1263,60
372,17	1294,32
372,38	1322,99
372,59	1249,26
372,80	1341,42
373,01	1359,85
373,22	1261,55
373,43	1284,08
373,64	1286,12
373,85	1286,12
374,06	1222,64
374,26	1269,74
374,47	1273,84
374,68	1271,79
374,89	1241,07
375,10	1275,88
375,31	1255,40
375,52	1243,12
375,73	1325,04
375,94	1275,88
376,15	1318,89
376,36	1234,93
376,57	1273,84
376,78	1204,21
376,99	1198,06
377,20	1265,64
377,40	1320,94
377,61	1316,84
377,82	1247,21
378,03	1341,42
378,24	1247,21
378,45	1265,64
378,66	1277,93
378,87	1216,49
379,08	1267,69
379,29	1245,16
379,50	1212,40
379,71	1220,59
379,91	1257,45
380,12	1284,08
380,33	1304,56
380,54	1277,93
380,75	1308,65
380,96	1308,65
381,17	1331,18
381,38	1300,46
381,59	1271,79
381,80	1239,02
382,00	1230,83
382,21	1255,40
382,42	1267,69
382,63	1230,83
382,84	1314,80
383,05	1378,28
383,26	1212,40
383,47	1286,12
383,68	1325,04
383,88	1265,64
384,09	1257,45
384,30	1290,22
384,51	1312,75
384,72	1275,88
384,93	1306,60
385,14	1202,16
385,35	1327,08
385,55	1310,70
385,76	1275,88
385,97	1271,79
386,18	1216,49
386,39	1302,51
386,60	1290,22
386,81	1282,03
387,02	1331,18
387,22	1269,74
387,43	1218,54
387,64	1294,32
387,85	1322,99
388,06	1308,65
388,27	1325,04
388,48	1310,70
388,68	1359,85
388,89	1261,55
389,10	1337,32
389,31	1234,93
389,52	1206,25
389,73	1331,18
389,93	1279,98
390,14	1288,17
390,35	1304,56
390,56	1300,46
390,77	1275,88
390,98	1277,93
391,18	1259,50
391,39	1306,60
391,60	1265,64
391,81	1251,31
392,02	1284,08
392,23	1335,28
392,43	1200,11
392,64	1290,22
392,85	1279,98
393,06	1267,69
393,27	1335,28
393,47	1245,16
393,68	1232,88
393,89	1286,12
394,10	1298,41
394,31	1296,36
394,52	1314,80
394,72	1282,03
394,93	1228,78
395,14	1245,16
395,35	1267,69
395,56	1298,41
395,76	1296,36
395,97	1298,41
396,18	1316,84
396,39	1187,82
396,60	1294,32
396,80	1308,65
397,01	1271,79
397,22	1249,26
397,43	1257,45
397,64	1298,41
397,84	1292,27
398,05	1302,51
398,26	1239,02
398,47	1325,04
398,67	1349,61
398,88	1290,22
399,09	1259,50
399,30	1271,79
399,51	1198,06
399,71	1251,31
399,92	1253,36
400,13	1253,36
400,34	1292,27
400,54	1212,40
400,75	1216,49
400,96	1222,64
401,17	1261,55
401,37	1253,36
401,58	1288,17
401,79	1230,83
402,00	1208,30
402,21	1263,60
402,41	1306,60
402,62	1275,88
402,83	1253,36
403,04	1249,26
403,24	1282,03
403,45	1251,31
403,66	1290,22
403,87	1267,69
404,07	1306,60
404,28	1302,51
404,49	1306,60
404,70	1282,03
404,90	1212,40
405,11	1218,54
405,32	1279,98
405,52	1232,88
405,73	1243,12
405,94	1263,60
406,15	1333,23
406,35	1259,50
406,56	1257,45
406,77	1234,93
406,98	1304,56
407,18	1220,59
407,39	1226,73
407,60	1196,01
407,80	1347,56
408,01	1292,27
408,22	1241,07
408,43	1251,31
408,63	1288,17
408,84	1259,50
409,05	1243,12
409,25	1216,49
409,46	1304,56
409,67	1187,82
409,88	1228,78
410,08	1245,16
410,29	1292,27
410,50	1271,79
410,70	1277,93
410,91	1218,54
411,12	1265,64
411,32	1265,64
411,53	1294,32
411,74	1294,32
411,95	1191,92
412,15	1298,41
412,36	1265,64
412,57	1247,21
412,77	1290,22
412,98	1294,32
413,19	1308,65
413,39	1296,36
413,60	1304,56
413,81	1318,89
414,01	1239,02
414,22	1333,23
414,43	1259,50
414,63	1320,94
414,84	1230,83
415,05	1288,17
415,25	1298,41
415,46	1298,41
415,67	1263,60
415,87	1271,79
416,08	1304,56
416,29	1275,88
416,49	1277,93
416,70	1239,02
416,91	1210,35
417,11	1232,88
417,32	1220,59
417,53	1263,60
417,73	1177,58
417,94	1257,45
418,15	1265,64
418,35	1290,22
418,56	1265,64
418,77	1310,70
418,97	1298,41
419,18	1265,64
419,38	1234,93
419,59	1249,26
419,80	1243,12
420,00	1230,83
420,21	1216,49
420,42	1228,78
420,62	1253,36
420,83	1312,75
421,04	1243,12
421,24	1339,37
421,45	1210,35
421,65	1288,17
421,86	1290,22
422,07	1239,02
422,27	1251,31
422,48	1234,93
422,69	1271,79
422,89	1261,55
423,10	1253,36
423,30	1185,77
423,51	1263,60
423,72	1257,45
423,92	1318,89
424,13	1286,12
424,33	1288,17
424,54	1294,32
424,75	1335,28
424,95	1347,56
425,16	1279,98
425,36	1306,60
425,57	1290,22
425,78	1263,60
425,98	1337,32
426,19	1265,64
426,39	1200,11
426,60	1257,45
426,81	1247,21
427,01	1267,69
427,22	1249,26
427,42	1241,07
427,63	1236,97
427,83	1300,46
428,04	1327,08
428,25	1202,16
428,45	1310,70
428,66	1341,42
428,86	1234,93
429,07	1290,22
429,28	1269,74
429,48	1269,74
429,69	1220,59
429,89	1255,40
430,10	1298,41
430,30	1241,07
430,51	1241,07
430,71	1187,82
430,92	1224,69
431,13	1271,79
431,33	1290,22
431,54	1202,16
431,74	1288,17
431,95	1245,16
432,15	1298,41
432,36	1228,78
432,56	1265,64
432,77	1314,80
432,98	1218,54
433,18	1267,69
433,39	1214,45
433,59	1261,55
433,80	1279,98
434,00	1359,85
434,21	1265,64
434,41	1310,70
434,62	1286,12
434,82	1300,46
435,03	1257,45
435,23	1257,45
435,44	1261,55
435,64	1263,60
435,85	1232,88
436,06	1265,64
436,26	1265,64
436,47	1259,50
436,67	1255,40
436,88	1220,59
437,08	1263,60
437,29	1261,55
437,49	1286,12
437,70	1363,95
437,90	1273,84
438,11	1261,55
438,31	1267,69
438,52	1261,55
438,72	1298,41
438,93	1275,88
439,13	1208,30
439,34	1206,25
439,54	1249,26
439,75	1253,36
439,95	1363,95
440,16	1257,45
440,36	1255,40
440,57	1314,80
440,77	1255,40
440,98	1329,13
441,18	1275,88
441,39	1267,69
441,59	1232,88
441,80	1255,40
442,00	1273,84
442,21	1214,45
442,41	1271,79
442,62	1304,56
442,82	1255,40
443,02	1220,59
443,23	1304,56
443,43	1312,75
443,64	1255,40
443,84	1271,79
444,05	1339,37
444,25	1294,32
444,46	1343,47
444,66	1329,13
444,87	1273,84
445,07	1341,42
445,28	1249,26
445,48	1265,64
445,69	1320,94
445,89	1241,07
446,09	1314,80
446,30	1228,78
446,50	1216,49
446,71	1230,83
446,91	1320,94
447,12	1327,08
447,32	1226,73
447,53	1271,79
447,73	1239,02
447,93	1243,12
448,14	1296,36
448,34	1253,36
448,55	1308,65
448,75	1230,83
448,96	1214,45
449,16	1312,75
449,36	1327,08
449,57	1290,22
449,77	1296,36
449,98	1300,46
450,18	1271,79
450,39	1302,51
450,59	1275,88
450,79	1290,22
451,00	1243,12
451,20	1247,21
451,41	1286,12
451,61	1253,36
451,81	1271,79
452,02	1257,45
452,22	1279,98
452,43	1312,75
452,63	1251,31
452,84	1296,36
453,04	1228,78
453,24	1214,45
453,45	1279,98
453,65	1212,40
453,86	1228,78
454,06	1261,55
454,26	1279,98
454,47	1302,51
454,67	1310,70
454,87	1279,98
455,08	1288,17
455,28	1306,60
455,49	1308,65
455,69	1290,22
455,89	1210,35
456,10	1253,36
456,30	1296,36
456,51	1261,55
456,71	1277,93
456,91	1269,74
457,12	1302,51
457,32	1204,21
457,52	1347,56
457,73	1230,83
457,93	1259,50
458,14	1290,22
458,34	1224,69
458,54	1269,74
458,75	1236,97
458,95	1275,88
459,15	1232,88
459,36	1247,21
459,56	1329,13
459,76	1275,88
459,97	1214,45
460,17	1243,12
460,37	1318,89
460,58	1259,50
460,78	1241,07
460,99	1193,97
461,19	1282,03
461,39	1269,74
461,60	1277,93
461,80	1284,08
462,00	1206,25
462,21	1259,50
462,41	1259,50
462,61	1234,93
462,82	1318,89
463,02	1243,12
463,22	1282,03
463,43	1202,16
463,63	1329,13
463,83	1239,02
464,04	1273,84
464,24	1263,60
464,44	1329,13
464,64	1236,97
464,85	1298,41
465,05	1255,40
465,25	1275,88
465,46	1302,51
465,66	1249,26
465,86	1247,21
466,07	1288,17
466,27	1333,23
466,47	1318,89
466,68	1257,45
466,88	1322,99
467,08	1290,22
467,29	1279,98
467,49	1300,46
467,69	1259,50
467,89	1286,12
468,10	1204,21
468,30	1224,69
468,50	1241,07
468,71	1306,60
468,91	1257,45
469,11	1300,46
469,31	1286,12
469,52	1314,80
469,72	1300,46
469,92	1298,41
470,13	1273,84
470,33	1243,12
470,53	1284,08
470,73	1271,79
470,94	1236,97
471,14	1259,50
471,34	1275,88
471,54	1212,40
471,75	1216,49
471,95	1218,54
472,15	1265,64
472,36	1318,89
472,56	1347,56
472,76	1247,21
472,96	1265,64
473,17	1200,11
473,37	1241,07
473,57	1286,12
473,77	1261,55
473,98	1288,17
474,18	1220,59
474,38	1257,45
474,58	1279,98
474,79	1239,02
474,99	1239,02
475,19	1261,55
475,39	1202,16
475,60	1363,95
475,80	1312,75
476,00	1265,64
476,20	1216,49
476,41	1200,11
476,61	1236,97
476,81	1234,93
477,01	1273,84
477,21	1329,13
477,42	1236,97
477,62	1265,64
477,82	1222,64
478,02	1282,03
478,23	1234,93
478,43	1331,18
478,63	1251,31
478,83	1220,59
479,03	1294,32
479,24	1269,74
479,44	1234,93
479,64	1277,93
479,84	1302,51
480,04	1255,40
480,25	1398,76
480,45	1220,59
480,65	1300,46
480,85	1253,36
481,06	1341,42
481,26	1257,45
481,46	1288,17
481,66	1286,12
481,86	1247,21
482,06	1259,50
482,27	1314,80
482,47	1144,81
482,67	1294,32
482,87	1234,93
483,07	1312,75
483,28	1249,26
483,48	1355,76
483,68	1351,66
483,88	1345,52
484,08	1253,36
484,29	1304,56
484,49	1298,41
484,69	1290,22
484,89	1273,84
485,09	1361,90
485,29	1284,08
485,50	1288,17
485,70	1265,64
485,90	1265,64
486,10	1249,26
486,30	1265,64
486,50	1220,59
486,71	1300,46
486,91	1269,74
487,11	1239,02
487,31	1271,79
487,51	1206,25
487,71	1230,83
487,91	1327,08
488,12	1282,03
488,32	1269,74
488,52	1304,56
488,72	1310,70
488,92	1294,32
489,12	1318,89
489,32	1339,37
489,53	1294,32
489,73	1239,02
489,93	1259,50
490,13	1271,79
490,33	1269,74
490,53	1257,45
490,73	1255,40
490,94	1261,55
491,14	1296,36
491,34	1226,73
491,54	1218,54
491,74	1255,40
491,94	1247,21
492,14	1257,45
492,34	1265,64
492,54	1169,39
492,75	1292,27
492,95	1210,35
493,15	1232,88
493,35	1290,22
493,55	1228,78
493,75	1232,88
493,95	1257,45
494,15	1212,40
494,35	1325,04
494,56	1259,50
494,76	1329,13
494,96	1247,21
495,16	1241,07
495,36	1302,51
495,56	1234,93
495,76	1247,21
495,96	1218,54
496,16	1329,13
496,36	1171,44
496,56	1314,80
496,77	1335,28
496,97	1214,45
497,17	1267,69
497,37	1249,26
497,57	1230,83
497,77	1310,70
497,97	1148,91
498,17	1267,69
498,37	1304,56
498,57	1275,88
498,77	1226,73
498,97	1339,37
499,17	1230,83
499,38	1212,40
499,58	1279,98
499,78	1236,97
499,98	1355,76
500,18	1288,17
500,38	1261,55
500,58	1290,22
500,78	1228,78
500,98	1288,17
501,18	1249,26
501,38	1232,88
501,58	1312,75
501,78	1210,35
501,98	1302,51
502,18	1224,69
502,38	1308,65
502,58	1191,92
502,78	1298,41
502,98	1241,07
503,18	1200,11
503,38	1322,99
503,59	1279,98
503,79	1275,88
503,99	1312,75
504,19	1204,21
504,39	1322,99
504,59	1216,49
504,79	1333,23
504,99	1300,46
505,19	1241,07
505,39	1265,64
505,59	1394,67
505,79	1331,18
505,99	1296,36
506,19	1267,69
506,39	1316,84
506,59	1230,83
506,79	1222,64
506,99	1275,88
507,19	1265,64
507,39	1228,78
507,59	1306,60
507,79	1290,22
507,99	1361,90
508,19	1284,08
508,39	1314,80
508,59	1275,88
508,79	1241,07
508,99	1263,60
509,19	1327,08
509,39	1302,51
509,59	1282,03
509,79	1312,75
509,99	1304,56
510,19	1306,60
510,39	1251,31
510,59	1298,41
510,79	1230,83
510,99	1232,88
511,19	1320,94
511,39	1282,03
511,59	1245,16
511,79	1265,64
511,99	1245,16
512,19	1183,73
512,38	1302,51
512,58	1253,36
512,78	1206,25
512,98	1265,64
513,18	1341,42
513,38	1212,40
513,58	1386,47
513,78	1247,21
513,98	1222,64
514,18	1259,50
514,38	1279,98
514,58	1279,98
514,78	1306,60
514,98	1269,74
515,18	1232,88
515,38	1290,22
515,58	1310,70
515,78	1308,65
515,98	1339,37
516,18	1265,64
516,38	1263,60
516,57	1286,12
516,77	1282,03
516,97	1316,84
517,17	1290,22
517,37	1253,36
517,57	1306,60
517,77	1277,93
517,97	1290,22
518,17	1259,50
518,37	1310,70
518,57	1249,26
518,77	1314,80
518,97	1206,25
519,16	1300,46
519,36	1378,28
519,56	1261,55
519,76	1243,12
519,96	1251,31
520,16	1282,03
520,36	1302,51
520,56	1310,70
520,76	1277,93
520,96	1239,02
521,16	1314,80
521,35	1284,08
521,55	1277,93
521,75	1275,88
521,95	1329,13
522,15	1347,56
522,35	1277,93
522,55	1241,07
522,75	1343,47
522,95	1267,69
523,14	1224,69
523,34	1300,46
523,54	1241,07
523,74	1253,36
523,94	1298,41
524,14	1271,79
524,34	1288,17
524,54	1255,40
524,73	1226,73
524,93	1320,94
525,13	1298,41
525,33	1232,88
525,53	1290,22
525,73	1236,97
525,93	1263,60
526,13	1314,80
526,32	1271,79
526,52	1300,46
526,72	1261,55
526,92	1290,22
527,12	1318,89
527,32	1320,94
527,52	1294,32
527,71	1284,08
527,91	1355,76
528,11	1288,17
528,31	1292,27
528,51	1236,97
528,71	1361,90
528,90	1214,45
529,10	1275,88
529,30	1302,51
529,50	1171,44
529,70	1271,79
529,90	1236,97
530,09	1302,51
530,29	1302,51
530,49	1282,03
530,69	1269,74
530,89	1251,31
531,09	1294,32
531,28	1296,36
531,48	1325,04
531,68	1243,12
531,88	1241,07
532,08	1296,36
532,28	1253,36
532,47	1265,64
532,67	1277,93
532,87	1271,79
533,07	1239,02
533,27	1288,17
533,46	1265,64
533,66	1247,21
533,86	1290,22
534,06	1320,94
534,26	1232,88
534,45	1316,84
534,65	1292,27
534,85	1290,22
535,05	1251,31
535,25	1322,99
535,44	1320,94
535,64	1300,46
535,84	1261,55
536,04	1273,84
536,24	1341,42
536,43	1263,60
536,63	1331,18
536,83	1279,98
537,03	1208,30
537,22	1261,55
537,42	1234,93
537,62	1261,55
537,82	1255,40
538,02	1187,82
538,21	1277,93
538,41	1228,78
538,61	1306,60
538,81	1279,98
539,00	1318,89
539,20	1243,12
539,40	1273,84
539,60	1239,02
539,79	1185,77
539,99	1243,12
540,19	1232,88
540,39	1232,88
540,58	1222,64
540,78	1257,45
540,98	1298,41
541,18	1263,60
541,37	1234,93
541,57	1284,08
541,77	1263,60
541,97	1198,06
542,16	1308,65
542,36	1327,08
542,56	1302,51
542,76	1269,74
542,95	1228,78
543,15	1255,40
543,35	1298,41
543,54	1294,32
543,74	1187,82
543,94	1320,94
544,14	1249,26
544,33	1296,36
544,53	1230,83
544,73	1267,69
544,93	1212,40
545,12	1259,50
545,32	1314,80
545,52	1290,22
545,71	1236,97
545,91	1277,93
546,11	1214,45
546,30	1259,50
546,50	1269,74
546,70	1265,64
546,90	1322,99
547,09	1277,93
547,29	1312,75
547,49	1267,69
547,68	1251,31
547,88	1290,22
548,08	1312,75
548,27	1243,12
548,47	1279,98
548,67	1216,49
548,87	1286,12
549,06	1277,93
549,26	1322,99
549,46	1198,06
549,65	1298,41
549,85	1318,89
550,05	1308,65
550,24	1275,88
550,44	1222,64
550,64	1253,36
550,83	1320,94
551,03	1304,56
551,23	1222,64
551,42	1249,26
551,62	1234,93
551,82	1306,60
552,01	1282,03
552,21	1273,84
552,41	1255,40
552,60	1255,40
552,80	1232,88
553,00	1294,32
553,19	1247,21
553,39	1347,56
553,59	1255,40
553,78	1267,69
553,98	1251,31
554,17	1265,64
554,37	1271,79
554,57	1320,94
554,76	1286,12
554,96	1257,45
555,16	1288,17
555,35	1290,22
555,55	1247,21
555,75	1286,12
555,94	1302,51
556,14	1193,97
556,33	1312,75
556,53	1247,21
556,73	1333,23
556,92	1275,88
557,12	1269,74
557,32	1290,22
557,51	1302,51
557,71	1269,74
557,90	1273,84
558,10	1236,97
558,30	1261,55
558,49	1304,56
558,69	1247,21
558,88	1265,64
559,08	1286,12
559,28	1310,70
559,47	1239,02
559,67	1255,40
559,86	1273,84
560,06	1320,94
560,26	1294,32
560,45	1212,40
560,65	1261,55
560,84	1273,84
561,04	1282,03
561,24	1218,54
561,43	1288,17
561,63	1320,94
561,82	1282,03
562,02	1214,45
562,22	1267,69
562,41	1349,61
562,61	1298,41
562,80	1284,08
563,00	1220,59
563,19	1284,08
563,39	1249,26
563,59	1302,51
563,78	1224,69
563,98	1335,28
564,17	1257,45
564,37	1253,36
564,56	1228,78
564,76	1286,12
564,96	1314,80
565,15	1327,08
565,35	1253,36
565,54	1275,88
565,74	1261,55
565,93	1243,12
566,13	1253,36
566,32	1286,12
566,52	1282,03
566,71	1208,30
566,91	1279,98
567,11	1236,97
567,30	1343,47
567,50	1325,04
567,69	1294,32
567,89	1286,12
568,08	1282,03
568,28	1273,84
568,47	1292,27
568,67	1282,03
568,86	1251,31
569,06	1243,12
569,25	1202,16
569,45	1298,41
569,64	1271,79
569,84	1228,78
570,04	1255,40
570,23	1296,36
570,43	1232,88
570,62	1318,89
570,82	1294,32
571,01	1273,84
571,21	1230,83
571,40	1308,65
571,60	1279,98
571,79	1265,64
571,99	1308,65
572,18	1204,21
572,38	1306,60
572,57	1236,97
572,77	1214,45
572,96	1361,90
573,16	1247,21
573,35	1335,28
573,55	1310,70
573,74	1277,93
573,94	1269,74
574,13	1169,39
574,33	1224,69
574,52	1282,03
574,71	1298,41
574,91	1255,40
575,10	1333,23
575,30	1216,49
575,49	1259,50
575,69	1304,56
575,88	1302,51
576,08	1243,12
576,27	1318,89
576,47	1159,15
576,66	1292,27
576,86	1263,60
577,05	1257,45
577,25	1230,83
577,44	1261,55
577,64	1259,50
577,83	1236,97
578,02	1279,98
578,22	1257,45
578,41	1290,22
578,61	1251,31
578,80	1308,65
579,00	1253,36
579,19	1288,17
579,39	1185,77
579,58	1306,60
579,77	1300,46
579,97	1302,51
580,16	1251,31
580,36	1345,52
580,55	1298,41
580,75	1279,98
580,94	1263,60
581,13	1290,22
581,33	1277,93
581,52	1245,16
581,72	1349,61
581,91	1304,56
582,11	1224,69
582,30	1306,60
582,49	1239,02
582,69	1224,69
582,88	1243,12
583,08	1267,69
583,27	1325,04
583,47	1232,88
583,66	1245,16
583,85	1302,51
584,05	1292,27
584,24	1294,32
584,44	1208,30
584,63	1216,49
584,82	1314,80
585,02	1243,12
585,21	1304,56
585,41	1310,70
585,60	1288,17
585,79	1273,84
585,99	1253,36
586,18	1263,60
586,37	1269,74
586,57	1337,32
586,76	1247,21
586,96	1308,65
587,15	1269,74
587,34	1284,08
587,54	1232,88
587,73	1290,22
587,93	1275,88
588,12	1208,30
588,31	1265,64
588,51	1282,03
588,70	1296,36
588,89	1224,69
589,09	1214,45
589,28	1251,31
589,47	1261,55
589,67	1255,40
589,86	1273,84
590,06	1249,26
590,25	1241,07
590,44	1304,56
590,64	1257,45
590,83	1200,11
591,02	1230,83
591,22	1306,60
591,41	1318,89
591,60	1198,06
591,80	1337,32
591,99	1169,39
592,18	1271,79
592,38	1261,55
592,57	1331,18
592,76	1275,88
592,96	1267,69
593,15	1279,98
593,34	1196,01
593,54	1247,21
593,73	1247,21
593,92	1245,16
594,12	1292,27
594,31	1284,08
594,50	1349,61
594,70	1263,60
594,89	1304,56
595,08	1255,40
595,28	1282,03
595,47	1230,83
595,66	1249,26
595,86	1236,97
596,05	1271,79
596,24	1286,12
596,43	1294,32
596,63	1361,90
596,82	1255,40
597,01	1159,15
597,21	1333,23
597,40	1232,88
597,59	1136,62
597,79	1204,21
597,98	1251,31
598,17	1316,84
598,36	1228,78
598,56	1191,92
598,75	1267,69
598,94	1292,27
599,14	1320,94
599,33	1228,78
599,52	1230,83
599,71	1241,07
599,91	1265,64
600,10	1349,61
600,29	1245,16
600,48	1302,51
600,68	1273,84
600,87	1204,21
601,06	1286,12
601,26	1279,98
601,45	1236,97
601,64	1249,26
601,83	1271,79
602,03	1251,31
602,22	1277,93
602,41	1269,74
602,60	1325,04
602,80	1241,07
602,99	1259,50
603,18	1253,36
603,37	1265,64
603,57	1279,98
603,76	1279,98
603,95	1232,88
604,14	1318,89
604,34	1263,60
604,53	1210,35
604,72	1284,08
604,91	1259,50
605,10	1239,02
605,30	1261,55
605,49	1286,12
605,68	1181,68
605,87	1234,93
606,07	1298,41
606,26	1288,17
606,45	1269,74
606,64	1302,51
606,84	1251,31
607,03	1191,92
607,22	1222,64
607,41	1282,03
607,60	1267,69
607,80	1271,79
607,99	1327,08
608,18	1265,64
608,37	1300,46
608,56	1249,26
608,76	1269,74
608,95	1257,45
609,14	1249,26
609,33	1241,07
609,52	1263,60
609,72	1259,50
609,91	1204,21
610,10	1273,84
610,29	1322,99
610,48	1335,28
610,68	1271,79
610,87	1241,07
611,06	1200,11
611,25	1273,84
611,44	1267,69
611,63	1331,18
611,83	1249,26
612,02	1208,30
612,21	1249,26
612,40	1269,74
612,59	1296,36
612,79	1159,15
612,98	1247,21
613,17	1249,26
613,36	1255,40
613,55	1206,25
613,74	1245,16
613,93	1279,98
614,13	1322,99
614,32	1282,03
614,51	1230,83
614,70	1304,56
614,89	1232,88
615,08	1247,21
615,28	1296,36
615,47	1331,18
615,66	1232,88
615,85	1191,92
616,04	1284,08
616,23	1269,74
616,42	1306,60
616,62	1269,74
616,81	1228,78
617,00	1257,45
617,19	1247,21
617,38	1263,60
617,57	1261,55
617,76	1253,36
617,95	1288,17
618,15	1245,16
618,34	1347,56
618,53	1234,93
618,72	1322,99
618,91	1308,65
619,10	1241,07
619,29	1232,88
619,48	1312,75
619,68	1286,12
619,87	1304,56
620,06	1212,40
620,25	1222,64
620,44	1269,74
620,63	1320,94
620,82	1290,22
621,01	1304,56
621,20	1239,02
621,39	1277,93
621,59	1259,50
621,78	1222,64
621,97	1273,84
622,16	1261,55
622,35	1259,50
622,54	1273,84
622,73	1351,66
622,92	1257,45
623,11	1216,49
623,30	1279,98
623,49	1294,32
623,68	1275,88
623,88	1230,83
624,07	1232,88
624,26	1294,32
624,45	1232,88
624,64	1243,12
624,83	1288,17
625,02	1226,73
625,21	1327,08
625,40	1275,88
625,59	1310,70
625,78	1249,26
625,97	1292,27
626,16	1325,04
626,35	1288,17
626,54	1269,74
626,74	1273,84
626,93	1269,74
627,12	1269,74
627,31	1251,31
627,50	1271,79
627,69	1304,56
627,88	1314,80
628,07	1247,21
628,26	1255,40
628,45	1294,32
628,64	1271,79
628,83	1212,40
629,02	1286,12
629,21	1279,98
629,40	1310,70
629,59	1316,84
629,78	1218,54
629,97	1216,49
630,16	1193,97
630,35	1249,26
630,54	1310,70
630,73	1337,32
630,92	1306,60
631,11	1314,80
631,30	1345,52
631,49	1370,09
631,68	1511,40
631,87	2699,22
632,06	7339,92
632,25	14143,27
632,44	11198,29
632,63	7663,50
632,82	5250,99
633,01	2889,68
633,20	2254,81
633,39	1959,91
633,58	1890,28
633,77	1746,92
633,96	1751,01
634,15	1689,57
634,34	1699,81
634,53	1617,90
634,72	1560,55
634,91	1574,89
635,10	1480,68
635,29	1505,26
635,48	1527,78
635,67	1523,69
635,86	1501,16
636,05	1425,39
636,24	1363,95
636,43	1327,08
636,62	1411,05
636,81	1329,13
637,00	1331,18
637,19	1247,21
637,38	1236,97
637,57	1267,69
637,76	1368,04
637,95	1239,02
638,14	1312,75
638,33	1294,32
638,52	1370,09
638,71	1286,12
638,89	1247,21
639,08	1331,18
639,27	1284,08
639,46	1216,49
639,65	1265,64
639,84	1261,55
640,03	1308,65
640,22	1267,69
640,41	1284,08
640,60	1279,98
640,79	1249,26
640,98	1300,46
641,17	1239,02
641,36	1230,83
641,55	1214,45
641,74	1277,93
641,92	1290,22
642,11	1226,73
642,30	1249,26
642,49	1306,60
642,68	1214,45
642,87	1288,17
643,06	1216,49
643,25	1220,59
643,44	1257,45
643,63	1269,74
643,82	1251,31
644,00	1255,40
644,19	1245,16
644,38	1247,21
644,57	1306,60
644,76	1288,17
644,95	1230,83
645,14	1269,74
645,33	1282,03
645,52	1204,21
645,71	1245,16
645,89	1241,07
646,08	1222,64
646,27	1269,74
646,46	1239,02
646,65	1290,22
646,84	1243,12
647,03	1322,99
647,22	1292,27
647,40	1224,69
647,59	1304,56
647,78	1239,02
647,97	1279,98
648,16	1269,74
648,35	1275,88
648,54	1234,93
648,73	1253,36
648,91	1292,27
649,10	1290,22
649,29	1290,22
649,48	1286,12
649,67	1343,47
649,86	1275,88
650,05	1257,45
650,23	1306,60
650,42	1279,98
650,61	1357,80
650,80	1282,03
650,99	1286,12
651,18	1269,74
651,36	1312,75
651,55	1241,07
651,74	1322,99
651,93	1310,70
652,12	1230,83
652,31	1335,28
652,49	1249,26
652,68	1286,12
652,87	1273,84
653,06	1239,02
653,25	1175,53
653,44	1284,08
653,62	1198,06
653,81	1247,21
654,00	1200,11
654,19	1247,21
654,38	1286,12
654,56	1243,12
654,75	1349,61
654,94	1257,45
655,13	1290,22
655,32	1288,17
655,51	1320,94
655,69	1302,51
655,88	1288,17
656,07	1232,88
656,26	1282,03
656,45	1294,32
656,63	1337,32
656,82	1245,16
657,01	1322,99
657,20	1249,26
657,38	1292,27
657,57	1253,36
657,76	1337,32
657,95	1271,79
658,14	1320,94
658,32	1208,30
658,51	1198,06
658,70	1245,16
658,89	1234,93
659,08	1269,74
659,26	1189,87
659,45	1292,27
659,64	1259,50
659,83	1247,21
660,01	1302,51
660,20	1308,65
660,39	1249,26
660,58	1284,08
660,76	1251,31
660,95	1277,93
661,14	1206,25
661,33	1249,26
661,51	1222,64
661,70	1243,12
661,89	1255,40
662,08	1277,93
662,26	1269,74
662,45	1306,60
662,64	1335,28
662,83	1284,08
663,01	1263,60
663,20	1316,84
663,39	1298,41
663,58	1222,64
663,76	1279,98
663,95	1327,08
664,14	1224,69
664,32	1253,36
664,51	1241,07
664,70	1341,42
664,89	1234,93
665,07	1275,88
665,26	1261,55
665,45	1183,73
665,64	1239,02
665,82	1220,59
666,01	1271,79
666,20	1216,49
666,38	1286,12
666,57	1290,22
666,76	1273,84
666,95	1275,88
667,13	1290,22
667,32	1224,69
667,51	1259,50
667,69	1271,79
667,88	1232,88
668,07	1255,40
668,25	1253,36
668,44	1222,64
668,63	1277,93
668,81	1259,50
669,00	1277,93
669,19	1284,08
669,38	1308,65
669,56	1302,51
669,75	1265,64
669,94	1261,55
670,12	1284,08
670,31	1236,97
670,50	1273,84
670,68	1243,12
670,87	1261,55
671,06	1216,49
671,24	1224,69
671,43	1259,50
671,62	1314,80
671,80	1314,80
671,99	1286,12
672,18	1228,78
672,36	1269,74
672,55	1294,32
672,74	1271,79
672,92	1189,87
673,11	1314,80
673,29	1230,83
673,48	1306,60
673,67	1337,32
673,85	1327,08
674,04	1257,45
674,23	1269,74
674,41	1261,55
674,60	1271,79
674,79	1265,64
674,97	1314,80
675,16	1290,22
675,34	1236,97
675,53	1273,84
675,72	1277,93
675,90	1282,03
676,09	1243,12
676,28	1310,70
676,46	1234,93
676,65	1325,04
676,83	1290,22
677,02	1290,22
677,21	1234,93
677,39	1269,74
677,58	1310,70
677,77	1267,69
677,95	1325,04
678,14	1343,47
678,32	1339,37
678,51	1308,65
678,70	1241,07
678,88	1263,60
679,07	1333,23
679,25	1279,98
679,44	1249,26
679,63	1245,16
679,81	1298,41
680,00	1282,03
680,18	1202,16
680,37	1279,98
680,55	1368,04
680,74	1255,40
680,93	1230,83
681,11	1257,45
681,30	1292,27
681,48	1263,60
681,67	1306,60
681,85	1296,36
682,04	1251,31
682,23	1261,55
682,41	1230,83
682,60	1234,93
682,78	1249,26
682,97	1282,03
683,15	1288,17
683,34	1296,36
683,53	1253,36
683,71	1320,94
683,90	1210,35
684,08	1349,61
684,27	1245,16
684,45	1236,97
684,64	1361,90
684,82	1290,22
685,01	1329,13
685,19	1271,79
685,38	1257,45
685,57	1271,79
685,75	1245,16
685,94	1239,02
686,12	1241,07
686,31	1275,88
686,49	1279,98
686,68	1255,40
686,86	1208,30
687,05	1263,60
687,23	1251,31
687,42	1224,69
687,60	1263,60
687,79	1288,17
687,97	1296,36
688,16	1249,26
688,34	1290,22
688,53	1284,08
688,71	1224,69
688,90	1306,60
689,08	1325,04
689,27	1337,32
689,45	1347,56
689,64	1325,04
689,82	1243,12
690,01	1212,40
690,19	1288,17
690,38	1210,35
690,56	1325,04
690,75	1239,02
690,93	1277,93
691,12	1279,98
691,30	1282,03
691,49	1277,93
691,67	1241,07
691,86	1316,84
692,04	1337,32
692,23	1253,36
692,41	1302,51
692,60	1298,41
692,78	1335,28
692,97	1255,40
693,15	1329,13
693,34	1331,18
693,52	1230,83
693,71	1218,54
693,89	1265,64
694,08	1331,18
694,26	1284,08
694,44	1234,93
694,63	1335,28
694,81	1216,49
695,00	1216,49
695,18	1290,22
695,37	1277,93
695,55	1257,45
695,74	1314,80
695,92	1312,75
696,10	1275,88
696,29	1308,65
696,47	1265,64
696,66	1245,16
696,84	1292,27
697,03	1277,93
697,21	1286,12
697,40	1306,60
697,58	1279,98
697,76	1179,63
697,95	1269,74
698,13	1261,55
698,32	1314,80
698,50	1310,70
698,68	1226,73
698,87	1286,12
699,05	1312,75
699,24	1288,17
699,42	1247,21
699,61	1165,29
699,79	1269,74
699,97	1298,41
700,16	1286,12
700,34	1314,80
700,53	1185,77
700,71	1239,02
700,89	1267,69
701,08	1243,12
701,26	1275,88
701,45	1279,98
701,63	1247,21
701,81	1216,49
702,00	1247,21
702,18	1294,32
702,37	1222,64
702,55	1259,50
702,73	1286,12
702,92	1236,97
703,10	1265,64
703,28	1294,32
703,47	1288,17
703,65	1257,45
703,84	1247,21
704,02	1232,88
704,20	1302,51
704,39	1253,36
704,57	1331,18
704,75	1269,74
704,94	1329,13
705,12	1308,65
705,30	1187,82
705,49	1251,31
705,67	1259,50
705,86	1316,84
706,04	1222,64
706,22	1263,60
706,41	1284,08
706,59	1239,02
706,77	1241,07
706,96	1290,22
707,14	1327,08
707,32	1234,93
707,51	1267,69
707,69	1359,85
707,87	1193,97
708,06	1341,42
708,24	1296,36
708,42	1226,73
708,61	1288,17
708,79	1255,40
708,97	1288,17
709,16	1296,36
709,34	1292,27
709,52	1271,79
709,71	1257,45
709,89	1191,92
710,07	1257,45
710,26	1300,46
710,44	1300,46
710,62	1236,97
710,80	1239,02
710,99	1286,12
711,17	1167,34
711,35	1249,26
711,54	1296,36
711,72	1290,22
711,90	1296,36
712,09	1302,51
712,27	1308,65
712,45	1253,36
712,63	1312,75
712,82	1218,54
713,00	1214,45
713,18	1220,59
713,37	1218,54
713,55	1325,04
713,73	1245,16
713,91	1279,98
714,10	1314,80
714,28	1247,21
714,46	1310,70
714,65	1271,79
714,83	1204,21
715,01	1230,83
715,19	1273,84
715,38	1275,88
715,56	1279,98
715,74	1273,84
715,92	1269,74
716,11	1230,83
716,29	1261,55
716,47	1255,40
716,65	1273,84
716,84	1284,08
717,02	1234,93
717,20	1226,73
717,38	1308,65
717,57	1239,02
717,75	1267,69
717,93	1357,80
718,11	1257,45
718,30	1245,16
718,48	1277,93
718,66	1292,27
718,84	1273,84
719,03	1265,64
719,21	1300,46
719,39	1200,11
719,57	1310,70
719,75	1269,74
719,94	1292,27
720,12	1259,50
720,30	1255,40
720,48	1239,02
720,67	1236,97
720,85	1322,99
721,03	1284,08
721,21	1265,64
721,39	1257,45
721,58	1279,98
721,76	1351,66
721,94	1306,60
722,12	1247,21
722,30	1290,22
722,49	1306,60
722,67	1273,84
722,85	1359,85
723,03	1294,32
723,21	1277,93
723,40	1312,75
723,58	1206,25
723,76	1216,49
723,94	1277,93
724,12	1296,36
724,30	1380,33
724,49	1286,12
724,67	1251,31
724,85	1269,74
725,03	1290,22
725,21	1239,02
725,40	1327,08
725,58	1179,63
725,76	1312,75
725,94	1302,51
726,12	1249,26
726,30	1320,94
726,49	1247,21
726,67	1200,11
726,85	1267,69
727,03	1282,03
727,21	1208,30
727,39	1253,36
727,57	1255,40
727,76	1296,36
727,94	1320,94
728,12	1236,97
728,30	1245,16
728,48	1310,70
728,66	1228,78
728,84	1314,80
729,03	1241,07
729,21	1261,55
729,39	1294,32
729,57	1271,79
729,75	1226,73
729,93	1282,03
730,11	1308,65
730,30	1155,05
730,48	1288,17
730,66	1191,92
730,84	1239,02
731,02	1277,93
731,20	1265,64
731,38	1234,93
731,56	1255,40
731,74	1243,12
731,93	1343,47
732,11	1222,64
732,29	1253,36
732,47	1351,66
732,65	1314,80
732,83	1236,97
733,01	1236,97
733,19	1239,02
733,37	1347,56
733,56	1208,30
733,74	1236,97
733,92	1298,41
734,10	1304,56
734,28	1177,58
734,46	1312,75
734,64	1257,45
734,82	1306,60
735,00	1224,69
735,18	1269,74
735,36	1333,23
735,54	1259,50
735,73	1255,40
735,91	1251,31
736,09	1282,03
736,27	1271,79
736,45	1304,56
736,63	1265,64
736,81	1165,29
736,99	1226,73
737,17	1310,70
737,35	1322,99
737,53	1288,17
737,71	1216,49
737,89	1306,60
738,07	1239,02
738,25	1257,45
738,43	1294,32
738,61	1312,75
738,80	1245,16
738,98	1296,36
739,16	1277,93
739,34	1265,64
739,52	1222,64
739,70	1310,70
739,88	1298,41
740,06	1351,66
740,24	1175,53
740,42	1316,84
740,60	1279,98
740,78	1243,12
740,96	1288,17
741,14	1273,84
741,32	1247,21
741,50	1322,99
741,68	1257,45
741,86	1275,88
742,04	1298,41
742,22	1284,08
742,40	1341,42
742,58	1300,46
742,76	1249,26
742,94	1288,17
743,12	1224,69
743,30	1277,93
743,48	1302,51
743,66	1232,88
743,84	1255,40
744,02	1275,88
744,20	1269,74
744,38	1259,50
744,56	1331,18
744,74	1277,93
744,92	1271,79
745,10	1198,06
745,28	1306,60
745,46	1241,07
745,64	1316,84
745,82	1284,08
746,00	1335,28
746,18	1251,31
746,36	1249,26
746,54	1322,99
746,72	1296,36
746,90	1255,40
747,08	1275,88
747,26	1236,97
747,44	1294,32
747,62	1208,30
747,80	1263,60
747,98	1263,60
748,15	1249,26
748,33	1249,26
748,51	1196,01
748,69	1329,13
748,87	1279,98
749,05	1275,88
749,23	1290,22
749,41	1208,30
749,59	1277,93
749,77	1259,50
749,95	1302,51
750,13	1310,70
750,31	1220,59
750,49	1282,03
750,67	1226,73
750,85	1226,73
751,03	1314,80
751,20	1239,02
751,38	1341,42
751,56	1269,74
751,74	1290,22
751,92	1208,30
752,10	1341,42
752,28	1312,75
752,46	1290,22
752,64	1288,17
752,82	1251,31
753,00	1210,35
753,18	1247,21
753,35	1284,08
753,53	1247,21
753,71	1243,12
753,89	1214,45
754,07	1269,74
754,25	1261,55
754,43	1316,84
754,61	1271,79
754,79	1226,73
754,97	1236,97
755,14	1288,17
755,32	1284,08
755,50	1284,08
755,68	1251,31
755,86	1236,97
756,04	1228,78
756,22	1361,90
756,40	1208,30
756,57	1298,41
756,75	1208,30
756,93	1269,74
757,11	1355,76
757,29	1249,26
757,47	1298,41
757,65	1255,40
757,82	1337,32
758,00	1357,80
758,18	1277,93
758,36	1322,99
758,54	1277,93
758,72	1288,17
758,90	1298,41
759,07	1269,74
759,25	1247,21
759,43	1265,64
759,61	1239,02
759,79	1351,66
759,97	1308,65
760,15	1267,69
760,32	1284,08
760,50	1275,88
760,68	1335,28
760,86	1275,88
761,04	1253,36
761,22	1275,88
761,39	1302,51
761,57	1253,36
761,75	1292,27
761,93	1226,73
762,11	1265,64
762,28	1239,02
762,46	1335,28
762,64	1263,60
762,82	1243,12
763,00	1275,88
763,18	1253,36
763,35	1314,80
763,53	1200,11
763,71	1290,22
763,89	1290,22
764,07	1222,64
764,24	1220,59
764,42	1282,03
764,60	1214,45
764,78	1249,26
764,96	1277,93
765,13	1282,03
765,31	1333,23
765,49	1191,92
765,67	1210,35
765,84	1179,63
766,02	1259,50
766,20	1251,31
766,38	1216,49
766,56	1320,94
766,73	1210,35
766,91	1224,69
767,09	1349,61
767,27	1249,26
767,44	1247,21
767,62	1265,64
767,80	1316,84
767,98	1290,22
768,15	1314,80
768,33	1236,97
768,51	1216,49
768,69	1269,74
768,87	1298,41
769,04	1277,93
769,22	1294,32
769,40	1331,18
769,58	1296,36
769,75	1275,88
769,93	1288,17
770,11	1265,64
770,28	1247,21
770,46	1210,35
770,64	1234,93
770,82	1239,02
770,99	1312,75
771,17	1308,65
771,35	1277,93
771,53	1284,08
771,70	1341,42
771,88	1171,44
772,06	1263,60
772,23	1208,30
772,41	1251,31
772,59	1253,36
772,77	1271,79
772,94	1312,75
773,12	1249,26
773,30	1234,93
773,47	1171,44
773,65	1318,89
773,83	1228,78
774,01	1314,80
774,18	1306,60
774,36	1228,78
774,54	1292,27
774,71	1267,69
774,89	1290,22
775,07	1261,55
775,24	1255,40
775,42	1310,70
775,60	1271,79
775,78	1255,40
775,95	1265,64
776,13	1370,09
776,31	1218,54
776,48	1284,08
776,66	1279,98
776,84	1267,69
777,01	1318,89
777,19	1302,51
777,37	1292,27
777,54	1259,50
777,72	1243,12
777,90	1241,07
778,07	1273,84
778,25	1261,55
778,43	1239,02
778,60	1273,84
778,78	1234,93
778,96	1263,60
779,13	1302,51
779,31	1263,60
779,49	1245,16
779,66	1249,26
779,84	1329,13
780,01	1294,32
780,19	1320,94
780,37	1191,92
780,54	1284,08
780,72	1241,07
780,90	1269,74
781,07	1290,22
781,25	1296,36
781,43	1302,51
781,60	1269,74
781,78	1232,88
781,95	1208,30
782,13	1251,31
782,31	1282,03
782,48	1259,50
782,66	1222,64
782,83	1292,27
783,01	1282,03
783,19	1214,45
783,36	1320,94
783,54	1263,60
783,72	1394,67
783,89	1279,98
784,07	1284,08
784,24	1269,74
784,42	1302,51
784,60	1200,11
784,77	1286,12
784,95	1257,45
785,12	1208,30
785,30	1239,02
785,47	1273,84
785,65	1159,15
785,83	1245,16
786,00	1265,64
786,18	1247,21
786,35	1232,88
786,53	1198,06
786,71	1298,41
786,88	1204,21
787,06	1247,21
787,23	1232,88
787,41	1243,12
787,58	1261,55
787,76	1255,40
787,94	1239,02
788,11	1245,16
788,29	1316,84
788,46	1232,88
788,64	1241,07
788,81	1271,79
788,99	1284,08
789,16	1253,36
789,34	1282,03
789,52	1279,98
789,69	1267,69
789,87	1257,45
790,04	1275,88
790,22	1279,98
790,39	1251,31
790,57	1239,02
790,74	1232,88
790,92	1216,49
791,09	1163,25
791,27	1298,41
791,44	1257,45
791,62	1259,50
791,79	1249,26
791,97	1316,84
792,15	1288,17
792,32	1239,02
792,50	1325,04
792,67	1210,35
792,85	1357,80
793,02	1253,36
793,20	1191,92
793,37	1230,83
793,55	1275,88
793,72	1279,98
793,90	1351,66
794,07	1206,25
794,25	1239,02
794,42	1214,45
794,60	1181,68
794,77	1193,97
794,95	1294,32
795,12	1279,98
795,30	1337,32
795,47	1310,70
795,65	1312,75
795,82	1265,64
796,00	1214,45
796,17	1304,56
796,34	1265,64
796,52	1335,28
796,69	1253,36
796,87	1247,21
797,04	1216,49
797,22	1353,71
797,39	1275,88
797,57	1290,22
797,74	1251,31
797,92	1263,60
798,09	1296,36
798,27	1243,12
798,44	1308,65
798,62	1253,36
798,79	1306,60
798,96	1366,00
799,14	1279,98
799,31	1314,80
799,49	1243,12
799,66	1265,64
799,84	1189,87
800,01	1304,56
800,19	1214,45
800,36	1249,26
800,53	1259,50
800,71	1335,28
800,88	1282,03
801,06	1273,84
801,23	1290,22
801,41	1279,98
801,58	1331,18
801,75	1214,45
801,93	1247,21
802,10	1310,70
802,28	1345,52
802,45	1273,84
802,63	1277,93
802,80	1286,12
802,97	1257,45
803,15	1271,79
803,32	1277,93
803,50	1232,88
803,67	1255,40
803,84	1337,32
804,02	1249,26
804,19	1273,84
804,37	1245,16
804,54	1247,21
804,71	1241,07
804,89	1245,16
805,06	1216,49
805,24	1302,51
805,41	1251,31
805,58	1259,50
805,76	1300,46
805,93	1245,16
806,10	1236,97
806,28	1253,36
806,45	1271,79
806,63	1255,40
806,80	1355,76
806,97	1286,12
807,15	1214,45
807,32	1210,35
807,49	1316,84
807,67	1279,98
807,84	1273,84
808,01	1298,41
808,19	1296,36
808,36	1282,03
808,54	1290,22
808,71	1267,69
808,88	1228,78
809,06	1325,04
809,23	1282,03
809,40	1300,46
809,58	1257,45
809,75	1314,80
809,92	1337,32
810,10	1335,28
810,27	1218,54
810,44	1296,36
810,62	1331,18
810,79	1212,40
810,96	1279,98
811,14	1331,18
811,31	1251,31
811,48	1212,40
811,66	1273,84
811,83	1279,98
812,00	1249,26
812,18	1294,32
812,35	1241,07
812,52	1241,07
812,69	1282,03
812,87	1263,60
813,04	1275,88
813,21	1249,26
813,39	1306,60
813,56	1345,52
813,73	1261,55
813,91	1282,03
814,08	1245,16
814,25	1267,69
814,42	1234,93
814,60	1267,69
814,77	1228,78
814,94	1275,88
815,12	1279,98
815,29	1318,89
815,46	1296,36
815,63	1273,84
815,81	1234,93
815,98	1312,75
816,15	1210,35
816,33	1325,04
816,50	1263,60
816,67	1232,88
816,84	1245,16
817,02	1253,36
817,19	1325,04
817,36	1304,56
817,53	1236,97
817,71	1257,45
817,88	1222,64
818,05	1245,16
818,22	1286,12
818,40	1296,36
818,57	1222,64
818,74	1247,21
818,91	1271,79
819,09	1267,69
819,26	1292,27
819,43	1279,98
819,60	1243,12
819,78	1269,74
819,95	1273,84
820,12	1255,40
820,29	1277,93
820,47	1265,64
820,64	1271,79
820,81	1222,64
820,98	1304,56
821,15	1316,84
821,33	1247,21
821,50	1220,59
821,67	1288,17
821,84	1251,31
822,02	1255,40
822,19	1290,22
822,36	1310,70
822,53	1230,83
822,70	1306,60
822,88	1271,79
823,05	1271,79
823,22	1273,84
823,39	1212,40
823,56	1288,17
823,74	1275,88
823,91	1239,02
824,08	1189,87
824,25	1306,60
824,42	1329,13
824,60	1296,36
824,77	1275,88
824,94	1196,01
825,11	1191,92
825,28	1271,79
825,45	1277,93
825,63	1331,18
825,80	1290,22
825,97	1331,18
826,14	1265,64
826,31	1275,88
826,48	1333,23
826,66	1288,17
826,83	1232,88
827,00	1298,41
827,17	1294,32
827,34	1191,92
827,51	1288,17
827,69	1290,22
827,86	1208,30
828,03	1234,93
828,20	1327,08
828,37	1277,93
828,54	1267,69
828,71	1253,36
828,89	1247,21
829,06	1251,31
829,23	1296,36
829,40	1267,69
829,57	1214,45
829,74	1232,88
829,91	1234,93
830,09	1232,88
830,26	1257,45
830,43	1300,46
830,60	1265,64
830,77	1312,75
830,94	1288,17
831,11	1269,74
831,28	1314,80
831,46	1261,55
831,63	1265,64
831,80	1314,80
831,97	1222,64
832,14	1236,97
832,31	1282,03
832,48	1302,51
832,65	1245,16
832,82	1263,60
832,99	1294,32
833,17	1257,45
833,34	1265,64
833,51	1249,26
833,68	1228,78
833,85	1218,54
834,02	1269,74
834,19	1302,51
834,36	1251,31
834,53	1243,12
834,70	1337,32
834,87	1196,01
835,04	1286,12
835,22	1226,73
835,39	1212,40
835,56	1271,79
835,73	1263,60
835,90	1251,31
836,07	1269,74
836,24	1275,88
836,41	1288,17
836,58	1304,56
836,75	1304,56
836,92	1251,31
837,09	1251,31
837,26	1349,61
837,43	1261,55
837,60	1200,11
837,77	1265,64
837,94	1245,16
838,12	1368,04
838,29	1312,75
838,46	1294,32
838,63	1226,73
838,80	1247,21
838,97	1253,36
839,14	1263,60
839,31	1288,17
839,48	1271,79
839,65	1341,42
839,82	1314,80
839,99	1316,84
840,16	1249,26
840,33	1247,21
840,50	1310,70
840,67	1279,98
840,84	1243,12
841,01	1226,73
841,18	1212,40
841,35	1275,88
841,52	1329,13
841,69	1263,60
841,86	1279,98
842,03	1284,08
842,20	1279,98
842,37	1273,84
842,54	1243,12
842,71	1325,04
842,88	1304,56
843,05	1306,60
843,22	1251,31
843,39	1255,40
843,56	1296,36
843,73	1279,98
843,90	1245,16
844,07	1300,46
844,24	1314,80
844,41	1288,17
844,58	1230,83
844,75	1228,78
844,92	1212,40
845,09	1341,42
845,26	1269,74
845,43	1200,11
845,60	1343,47
845,77	1247,21
845,94	1189,87
846,10	1314,80
846,27	1267,69
846,44	1210,35
846,61	1282,03
846,78	1277,93
846,95	1271,79
847,12	1251,31
847,29	1265,64
847,46	1245,16
847,63	1222,64
847,80	1282,03
847,97	1279,98
848,14	1249,26
848,31	1279,98
848,48	1259,50
848,65	1288,17
848,82	1204,21
848,98	1298,41
849,15	1279,98
849,32	1288,17
849,49	1292,27
849,66	1325,04
849,83	1245,16
850,00	1265,64
850,17	1279,98
850,34	1279,98
850,51	1302,51
850,68	1222,64
850,85	1333,23
851,01	1241,07
851,18	1275,88
851,35	1275,88
851,52	1279,98
851,69	1273,84
851,86	1310,70
852,03	1279,98
852,20	1316,84
852,37	1267,69
852,53	1314,80
852,70	1320,94
852,87	1273,84
853,04	1265,64
853,21	1220,59
853,38	1277,93
853,55	1300,46
853,72	1308,65
853,89	1329,13
854,05	1302,51
854,22	1269,74
854,39	1292,27
854,56	1296,36
854,73	1298,41
854,90	1290,22
855,07	1284,08
855,23	1257,45
855,40	1312,75
855,57	1269,74
855,74	1224,69
855,91	1308,65
856,08	1214,45
856,25	1263,60
856,41	1224,69
856,58	1224,69
856,75	1236,97
856,92	1302,51
857,09	1290,22
857,26	1255,40
857,42	1249,26
857,59	1255,40
857,76	1241,07
857,93	1212,40
858,10	1310,70
858,27	1228,78
858,43	1206,25
858,60	1308,65
858,77	1273,84
858,94	1193,97
859,11	1267,69
859,27	1161,20
859,44	1273,84
859,61	1239,02
859,78	1224,69
859,95	1222,64
860,12	1230,83
860,28	1271,79
860,45	1255,40
860,62	1327,08
860,79	1277,93
860,95	1249,26
861,12	1298,41
861,29	1269,74
861,46	1269,74
861,63	1286,12
861,79	1300,46
861,96	1234,93
862,13	1236,97
862,30	1257,45
862,47	1241,07
862,63	1335,28
862,80	1314,80
862,97	1310,70
863,14	1255,40
863,30	1224,69
863,47	1294,32
863,64	1314,80
863,81	1247,21
863,97	1271,79
864,14	1376,24
864,31	1273,84
864,48	1294,32
864,65	1341,42
864,81	1290,22
864,98	1265,64
865,15	1322,99
865,32	1200,11
865,48	1220,59
865,65	1273,84
865,82	1228,78
865,98	1216,49
866,15	1282,03
866,32	1275,88
866,49	1275,88
866,65	1298,41
866,82	1318,89
866,99	1294,32
867,16	1175,53
867,32	1320,94
867,49	1304,56
867,66	1286,12
867,83	1265,64
867,99	1273,84
868,16	1224,69
868,33	1296,36
868,49	1249,26
868,66	1208,30
868,83	1290,22
868,99	1208,30
869,16	1200,11
869,33	1294,32
869,50	1253,36
869,66	1273,84
869,83	1312,75
870,00	1290,22
870,16	1261,55
870,33	1216,49
870,50	1241,07
870,66	1304,56
870,83	1302,51
871,00	1279,98
871,17	1292,27
871,33	1294,32
871,50	1257,45
871,67	1263,60
871,83	1245,16
872,00	1267,69
872,17	1306,60
872,33	1282,03
872,50	1253,36
872,67	1218,54
872,83	1306,60
873,00	1273,84
873,17	1286,12
873,33	1286,12
873,50	1222,64
873,67	1241,07
873,83	1187,82
874,00	1306,60
874,16	1296,36
874,33	1249,26
874,50	1290,22
874,66	1243,12
874,83	1282,03
875,00	1232,88
875,16	1339,37
875,33	1300,46
875,50	1212,40
875,66	1265,64
875,83	1263,60
875,99	1304,56
876,16	1265,64
876,33	1296,36
876,49	1273,84
876,66	1247,21
876,83	1267,69
876,99	1271,79
877,16	1273,84
877,32	1255,40
877,49	1306,60
877,66	1335,28
877,82	1261,55
877,99	1247,21
878,15	1310,70
878,32	1273,84
878,49	1245,16
878,65	1243,12
878,82	1224,69
878,98	1206,25
879,15	1265,64
879,32	1290,22
879,48	1255,40
879,65	1239,02
879,81	1318,89
879,98	1306,60
880,15	1314,80
880,31	1251,31
880,48	1220,59
880,64	1232,88
880,81	1347,56
880,97	1249,26
881,14	1306,60
881,31	1316,84
881,47	1312,75
881,64	1269,74
881,80	1290,22
881,97	1230,83
882,13	1193,97
882,30	1316,84
882,47	1298,41
882,63	1318,89
882,80	1228,78
882,96	1245,16
883,13	1296,36
883,29	1269,74
883,46	1310,70
883,62	1263,60
883,79	1277,93
883,95	1314,80
884,12	1247,21
884,29	1232,88
884,45	1265,64
884,62	1245,16
884,78	1239,02
884,95	1277,93
885,11	1255,40
885,28	1318,89
885,44	1261,55
885,61	1236,97
885,77	1232,88
885,94	1245,16
886,10	1310,70
886,27	1265,64
886,43	1282,03
886,60	1206,25
886,76	1347,56
886,93	1286,12
887,09	1255,40
887,26	1230,83
887,42	1259,50
887,59	1359,85
887,75	1366,00
887,92	1253,36
888,08	1239,02
888,25	1249,26
888,41	1232,88
888,58	1316,84
888,74	1314,80
888,91	1251,31
>>>>>End Processed Spectral Data<<<<<
