SpectraSuite Data File
++++++++++++++++++++++++++++++++++++
Date: Sun Apr 03 18:45:04 CEST 2016
User: root
Dark Spectrum Present: No
Reference Spectrum Present: No
Number of Sampled Component Spectra: 1
Spectrometers: USB4C02835
Integration Time (usec): 10000 (USB4C02835)
Spectra Averaged: 1 (USB4C02835)
Boxcar Smoothing: 0 (USB4C02835)
Correct for Electrical Dark: No (USB4C02835)
Strobe/Lamp Enabled: No (USB4C02835)
Correct for Detector Non-linearity: No (USB4C02835)
Correct for Stray Light: No (USB4C02835)
Number of Pixels in Processed Spectrum: 3648
>>>>>Begin Processed Spectral Data<<<<<
177,47	1210,35
177,69	1210,35
177,91	1210,35
178,13	1177,58
178,36	1189,87
178,58	1222,64
178,80	1218,54
179,02	1257,45
179,24	1302,51
179,46	1187,82
179,68	1294,32
179,90	1316,84
180,13	1325,04
180,35	1241,07
180,57	1269,74
180,79	1275,88
181,01	1333,23
181,23	1277,93
181,45	1286,12
181,67	1300,46
181,90	1269,74
182,12	1275,88
182,34	1232,88
182,56	1284,08
182,78	1234,93
183,00	1263,60
183,22	1296,36
183,44	1267,69
183,66	1288,17
183,89	1294,32
184,11	1271,79
184,33	1239,02
184,55	1282,03
184,77	1288,17
184,99	1249,26
185,21	1226,73
185,43	1322,99
185,65	1239,02
185,87	1290,22
186,10	1218,54
186,32	1243,12
186,54	1265,64
186,76	1273,84
186,98	1202,16
187,20	1249,26
187,42	1279,98
187,64	1304,56
187,86	1210,35
188,08	1181,68
188,30	1218,54
188,52	1208,30
188,75	1216,49
188,97	1202,16
189,19	1230,83
189,41	1265,64
189,63	1267,69
189,85	1292,27
190,07	1191,92
190,29	1198,06
190,51	1372,14
190,73	1216,49
190,95	1208,30
191,17	1216,49
191,39	1310,70
191,61	1306,60
191,84	1333,23
192,06	1249,26
192,28	1337,32
192,50	1322,99
192,72	1288,17
192,94	1298,41
193,16	1345,52
193,38	1296,36
193,60	1185,77
193,82	1263,60
194,04	1288,17
194,26	1277,93
194,48	1265,64
194,70	1279,98
194,92	1331,18
195,14	1247,21
195,36	1275,88
195,58	1273,84
195,80	1320,94
196,02	1222,64
196,24	1269,74
196,46	1232,88
196,69	1265,64
196,91	1271,79
197,13	1204,21
197,35	1193,97
197,57	1271,79
197,79	1253,36
198,01	1275,88
198,23	1202,16
198,45	1249,26
198,67	1294,32
198,89	1169,39
199,11	1279,98
199,33	1222,64
199,55	1290,22
199,77	1265,64
199,99	1257,45
200,21	1212,40
200,43	1316,84
200,65	1253,36
200,87	1226,73
201,09	1257,45
201,31	1312,75
201,53	1273,84
201,75	1239,02
201,97	1226,73
202,19	1337,32
202,41	1253,36
202,63	1261,55
202,85	1284,08
203,07	1308,65
203,29	1241,07
203,51	1347,56
203,73	1318,89
203,95	1263,60
204,17	1296,36
204,39	1241,07
204,61	1239,02
204,83	1284,08
205,05	1363,95
205,27	1271,79
205,49	1288,17
205,71	1245,16
205,93	1275,88
206,15	1247,21
206,37	1247,21
206,59	1296,36
206,81	1216,49
207,03	1253,36
207,25	1251,31
207,47	1298,41
207,69	1271,79
207,91	1200,11
208,13	1239,02
208,34	1292,27
208,56	1271,79
208,78	1259,50
209,00	1234,93
209,22	1245,16
209,44	1222,64
209,66	1290,22
209,88	1142,77
210,10	1298,41
210,32	1251,31
210,54	1302,51
210,76	1302,51
210,98	1314,80
211,20	1306,60
211,42	1271,79
211,64	1224,69
211,86	1286,12
212,08	1271,79
212,30	1376,24
212,52	1294,32
212,74	1267,69
212,96	1298,41
213,17	1239,02
213,39	1316,84
213,61	1200,11
213,83	1333,23
214,05	1253,36
214,27	1257,45
214,49	1224,69
214,71	1208,30
214,93	1218,54
215,15	1322,99
215,37	1300,46
215,59	1261,55
215,81	1325,04
216,03	1300,46
216,24	1284,08
216,46	1226,73
216,68	1308,65
216,90	1306,60
217,12	1228,78
217,34	1257,45
217,56	1331,18
217,78	1314,80
218,00	1245,16
218,22	1269,74
218,44	1251,31
218,66	1329,13
218,87	1310,70
219,09	1245,16
219,31	1288,17
219,53	1269,74
219,75	1193,97
219,97	1255,40
220,19	1312,75
220,41	1204,21
220,63	1265,64
220,85	1167,34
221,06	1249,26
221,28	1230,83
221,50	1325,04
221,72	1329,13
221,94	1335,28
222,16	1304,56
222,38	1298,41
222,60	1284,08
222,82	1257,45
223,03	1271,79
223,25	1202,16
223,47	1320,94
223,69	1243,12
223,91	1318,89
224,13	1292,27
224,35	1208,30
224,57	1288,17
224,78	1304,56
225,00	1265,64
225,22	1236,97
225,44	1210,35
225,66	1236,97
225,88	1198,06
226,10	1251,31
226,32	1288,17
226,53	1273,84
226,75	1341,42
226,97	1214,45
227,19	1320,94
227,41	1220,59
227,63	1298,41
227,85	1322,99
228,06	1306,60
228,28	1347,56
228,50	1265,64
228,72	1265,64
228,94	1253,36
229,16	1290,22
229,37	1232,88
229,59	1306,60
229,81	1355,76
230,03	1265,64
230,25	1222,64
230,47	1255,40
230,69	1284,08
230,90	1224,69
231,12	1257,45
231,34	1296,36
231,56	1216,49
231,78	1251,31
232,00	1269,74
232,21	1243,12
232,43	1261,55
232,65	1206,25
232,87	1257,45
233,09	1243,12
233,30	1263,60
233,52	1300,46
233,74	1261,55
233,96	1222,64
234,18	1273,84
234,40	1251,31
234,61	1277,93
234,83	1267,69
235,05	1273,84
235,27	1304,56
235,49	1277,93
235,70	1253,36
235,92	1245,16
236,14	1247,21
236,36	1189,87
236,58	1230,83
236,79	1226,73
237,01	1259,50
237,23	1333,23
237,45	1339,37
237,67	1249,26
237,88	1243,12
238,10	1255,40
238,32	1181,68
238,54	1269,74
238,76	1269,74
238,97	1322,99
239,19	1279,98
239,41	1247,21
239,63	1183,73
239,85	1263,60
240,06	1308,65
240,28	1298,41
240,50	1290,22
240,72	1241,07
240,93	1216,49
241,15	1312,75
241,37	1255,40
241,59	1292,27
241,81	1325,04
242,02	1298,41
242,24	1175,53
242,46	1300,46
242,68	1265,64
242,89	1261,55
243,11	1251,31
243,33	1257,45
243,55	1198,06
243,76	1331,18
243,98	1271,79
244,20	1245,16
244,42	1206,25
244,64	1247,21
244,85	1210,35
245,07	1304,56
245,29	1267,69
245,51	1249,26
245,72	1232,88
245,94	1183,73
246,16	1347,56
246,38	1320,94
246,59	1247,21
246,81	1212,40
247,03	1249,26
247,24	1318,89
247,46	1243,12
247,68	1314,80
247,90	1314,80
248,11	1300,46
248,33	1286,12
248,55	1314,80
248,77	1322,99
248,98	1347,56
249,20	1267,69
249,42	1228,78
249,64	1329,13
249,85	1279,98
250,07	1273,84
250,29	1308,65
250,50	1230,83
250,72	1296,36
250,94	1345,52
251,16	1263,60
251,37	1247,21
251,59	1230,83
251,81	1359,85
252,02	1249,26
252,24	1273,84
252,46	1251,31
252,68	1310,70
252,89	1241,07
253,11	1202,16
253,33	1322,99
253,54	1273,84
253,76	1306,60
253,98	1169,39
254,20	1325,04
254,41	1302,51
254,63	1318,89
254,85	1263,60
255,06	1277,93
255,28	1290,22
255,50	1234,93
255,71	1265,64
255,93	1210,35
256,15	1255,40
256,36	1232,88
256,58	1265,64
256,80	1243,12
257,02	1259,50
257,23	1271,79
257,45	1306,60
257,67	1322,99
257,88	1239,02
258,10	1312,75
258,32	1220,59
258,53	1312,75
258,75	1245,16
258,97	1261,55
259,18	1236,97
259,40	1273,84
259,62	1277,93
259,83	1288,17
260,05	1269,74
260,27	1282,03
260,48	1275,88
260,70	1247,21
260,92	1210,35
261,13	1253,36
261,35	1298,41
261,57	1173,49
261,78	1216,49
262,00	1247,21
262,22	1290,22
262,43	1277,93
262,65	1341,42
262,86	1265,64
263,08	1261,55
263,30	1314,80
263,51	1284,08
263,73	1290,22
263,95	1218,54
264,16	1224,69
264,38	1208,30
264,60	1314,80
264,81	1196,01
265,03	1310,70
265,25	1236,97
265,46	1265,64
265,68	1322,99
265,89	1273,84
266,11	1306,60
266,33	1267,69
266,54	1314,80
266,76	1282,03
266,98	1322,99
267,19	1253,36
267,41	1251,31
267,62	1308,65
267,84	1306,60
268,06	1261,55
268,27	1210,35
268,49	1339,37
268,70	1316,84
268,92	1306,60
269,14	1271,79
269,35	1257,45
269,57	1226,73
269,79	1263,60
270,00	1208,30
270,22	1290,22
270,43	1318,89
270,65	1185,77
270,87	1306,60
271,08	1255,40
271,30	1220,59
271,51	1220,59
271,73	1282,03
271,95	1232,88
272,16	1249,26
272,38	1257,45
272,59	1304,56
272,81	1200,11
273,02	1245,16
273,24	1298,41
273,46	1230,83
273,67	1208,30
273,89	1239,02
274,10	1210,35
274,32	1277,93
274,54	1314,80
274,75	1269,74
274,97	1292,27
275,18	1169,39
275,40	1282,03
275,61	1157,10
275,83	1337,32
276,05	1210,35
276,26	1265,64
276,48	1316,84
276,69	1206,25
276,91	1228,78
277,12	1241,07
277,34	1226,73
277,55	1277,93
277,77	1277,93
277,99	1232,88
278,20	1239,02
278,42	1286,12
278,63	1187,82
278,85	1249,26
279,06	1236,97
279,28	1310,70
279,49	1257,45
279,71	1312,75
279,93	1312,75
280,14	1230,83
280,36	1298,41
280,57	1239,02
280,79	1300,46
281,00	1265,64
281,22	1208,30
281,43	1306,60
281,65	1257,45
281,86	1259,50
282,08	1245,16
282,29	1277,93
282,51	1316,84
282,73	1261,55
282,94	1257,45
283,16	1284,08
283,37	1271,79
283,59	1292,27
283,80	1243,12
284,02	1288,17
284,23	1224,69
284,45	1265,64
284,66	1216,49
284,88	1226,73
285,09	1261,55
285,31	1279,98
285,52	1224,69
285,74	1271,79
285,95	1255,40
286,17	1159,15
286,38	1308,65
286,60	1306,60
286,81	1216,49
287,03	1241,07
287,24	1214,45
287,46	1259,50
287,67	1265,64
287,89	1247,21
288,10	1245,16
288,32	1357,80
288,53	1300,46
288,75	1245,16
288,96	1292,27
289,18	1236,97
289,39	1210,35
289,61	1271,79
289,82	1269,74
290,04	1228,78
290,25	1245,16
290,47	1279,98
290,68	1296,36
290,90	1263,60
291,11	1232,88
291,33	1249,26
291,54	1304,56
291,76	1306,60
291,97	1257,45
292,18	1343,47
292,40	1241,07
292,61	1327,08
292,83	1300,46
293,04	1290,22
293,26	1220,59
293,47	1306,60
293,69	1269,74
293,90	1275,88
294,12	1251,31
294,33	1304,56
294,55	1275,88
294,76	1265,64
294,97	1249,26
295,19	1253,36
295,40	1222,64
295,62	1300,46
295,83	1306,60
296,05	1232,88
296,26	1282,03
296,48	1200,11
296,69	1284,08
296,90	1208,30
297,12	1251,31
297,33	1273,84
297,55	1284,08
297,76	1275,88
297,98	1300,46
298,19	1304,56
298,41	1292,27
298,62	1286,12
298,83	1265,64
299,05	1263,60
299,26	1286,12
299,48	1290,22
299,69	1302,51
299,90	1314,80
300,12	1259,50
300,33	1339,37
300,55	1226,73
300,76	1263,60
300,98	1245,16
301,19	1216,49
301,40	1312,75
301,62	1286,12
301,83	1247,21
302,05	1314,80
302,26	1191,92
302,47	1255,40
302,69	1228,78
302,90	1267,69
303,12	1189,87
303,33	1255,40
303,54	1300,46
303,76	1345,52
303,97	1249,26
304,19	1265,64
304,40	1243,12
304,61	1275,88
304,83	1314,80
305,04	1269,74
305,26	1273,84
305,47	1269,74
305,68	1239,02
305,90	1232,88
306,11	1245,16
306,33	1232,88
306,54	1202,16
306,75	1325,04
306,97	1239,02
307,18	1296,36
307,39	1269,74
307,61	1239,02
307,82	1232,88
308,04	1241,07
308,25	1322,99
308,46	1265,64
308,68	1228,78
308,89	1282,03
309,10	1298,41
309,32	1259,50
309,53	1265,64
309,74	1306,60
309,96	1243,12
310,17	1296,36
310,39	1286,12
310,60	1275,88
310,81	1196,01
311,03	1232,88
311,24	1251,31
311,45	1271,79
311,67	1310,70
311,88	1284,08
312,09	1228,78
312,31	1269,74
312,52	1216,49
312,73	1341,42
312,95	1241,07
313,16	1304,56
313,37	1226,73
313,59	1304,56
313,80	1300,46
314,01	1232,88
314,23	1290,22
314,44	1300,46
314,65	1177,58
314,87	1196,01
315,08	1257,45
315,29	1251,31
315,51	1234,93
315,72	1288,17
315,93	1251,31
316,15	1318,89
316,36	1206,25
316,57	1310,70
316,79	1243,12
317,00	1263,60
317,21	1267,69
317,43	1302,51
317,64	1302,51
317,85	1279,98
318,07	1273,84
318,28	1302,51
318,49	1267,69
318,70	1251,31
318,92	1214,45
319,13	1263,60
319,34	1267,69
319,56	1255,40
319,77	1220,59
319,98	1275,88
320,20	1271,79
320,41	1273,84
320,62	1322,99
320,83	1265,64
321,05	1294,32
321,26	1306,60
321,47	1310,70
321,69	1284,08
321,90	1271,79
322,11	1265,64
322,32	1294,32
322,54	1267,69
322,75	1277,93
322,96	1337,32
323,18	1255,40
323,39	1243,12
323,60	1288,17
323,81	1255,40
324,03	1284,08
324,24	1290,22
324,45	1230,83
324,66	1269,74
324,88	1232,88
325,09	1261,55
325,30	1327,08
325,52	1224,69
325,73	1279,98
325,94	1320,94
326,15	1279,98
326,37	1204,21
326,58	1251,31
326,79	1243,12
327,00	1257,45
327,22	1236,97
327,43	1234,93
327,64	1277,93
327,85	1263,60
328,07	1312,75
328,28	1214,45
328,49	1273,84
328,70	1247,21
328,92	1183,73
329,13	1290,22
329,34	1107,95
329,55	1329,13
329,76	1318,89
329,98	1337,32
330,19	1257,45
330,40	1245,16
330,61	1241,07
330,83	1267,69
331,04	1245,16
331,25	1249,26
331,46	1216,49
331,68	1253,36
331,89	1218,54
332,10	1310,70
332,31	1265,64
332,52	1214,45
332,74	1228,78
332,95	1286,12
333,16	1230,83
333,37	1282,03
333,58	1363,95
333,80	1288,17
334,01	1224,69
334,22	1247,21
334,43	1312,75
334,64	1236,97
334,86	1271,79
335,07	1210,35
335,28	1247,21
335,49	1265,64
335,70	1304,56
335,92	1224,69
336,13	1372,14
336,34	1277,93
336,55	1314,80
336,76	1257,45
336,98	1304,56
337,19	1269,74
337,40	1277,93
337,61	1253,36
337,82	1300,46
338,04	1202,16
338,25	1191,92
338,46	1247,21
338,67	1224,69
338,88	1265,64
339,09	1243,12
339,31	1206,25
339,52	1298,41
339,73	1216,49
339,94	1314,80
340,15	1265,64
340,36	1257,45
340,58	1273,84
340,79	1273,84
341,00	1204,21
341,21	1292,27
341,42	1347,56
341,63	1273,84
341,85	1265,64
342,06	1222,64
342,27	1320,94
342,48	1249,26
342,69	1273,84
342,90	1368,04
343,12	1249,26
343,33	1286,12
343,54	1290,22
343,75	1247,21
343,96	1329,13
344,17	1253,36
344,38	1222,64
344,60	1286,12
344,81	1302,51
345,02	1282,03
345,23	1275,88
345,44	1284,08
345,65	1249,26
345,86	1255,40
346,07	1292,27
346,29	1222,64
346,50	1320,94
346,71	1232,88
346,92	1251,31
347,13	1224,69
347,34	1277,93
347,55	1200,11
347,76	1165,29
347,98	1314,80
348,19	1269,74
348,40	1265,64
348,61	1185,77
348,82	1306,60
349,03	1232,88
349,24	1292,27
349,45	1241,07
349,66	1314,80
349,88	1226,73
350,09	1253,36
350,30	1224,69
350,51	1210,35
350,72	1277,93
350,93	1269,74
351,14	1282,03
351,35	1310,70
351,56	1288,17
351,77	1288,17
351,99	1263,60
352,20	1267,69
352,41	1318,89
352,62	1327,08
352,83	1247,21
353,04	1232,88
353,25	1298,41
353,46	1286,12
353,67	1224,69
353,88	1255,40
354,09	1286,12
354,30	1267,69
354,52	1251,31
354,73	1290,22
354,94	1239,02
355,15	1296,36
355,36	1288,17
355,57	1273,84
355,78	1234,93
355,99	1239,02
356,20	1222,64
356,41	1290,22
356,62	1271,79
356,83	1271,79
357,04	1230,83
357,25	1312,75
357,46	1273,84
357,68	1216,49
357,89	1200,11
358,10	1271,79
358,31	1234,93
358,52	1271,79
358,73	1265,64
358,94	1265,64
359,15	1320,94
359,36	1298,41
359,57	1290,22
359,78	1335,28
359,99	1257,45
360,20	1222,64
360,41	1320,94
360,62	1282,03
360,83	1204,21
361,04	1327,08
361,25	1269,74
361,46	1249,26
361,67	1298,41
361,88	1265,64
362,09	1306,60
362,30	1300,46
362,51	1277,93
362,72	1335,28
362,93	1359,85
363,14	1298,41
363,35	1263,60
363,56	1251,31
363,78	1267,69
363,99	1284,08
364,20	1257,45
364,41	1259,50
364,62	1277,93
364,83	1296,36
365,04	1255,40
365,25	1290,22
365,46	1224,69
365,67	1290,22
365,88	1318,89
366,09	1249,26
366,30	1247,21
366,51	1251,31
366,72	1241,07
366,93	1296,36
367,14	1312,75
367,35	1329,13
367,56	1239,02
367,77	1239,02
367,98	1306,60
368,18	1265,64
368,39	1279,98
368,60	1230,83
368,81	1224,69
369,02	1306,60
369,23	1251,31
369,44	1257,45
369,65	1277,93
369,86	1214,45
370,07	1286,12
370,28	1290,22
370,49	1198,06
370,70	1173,49
370,91	1296,36
371,12	1247,21
371,33	1255,40
371,54	1261,55
371,75	1243,12
371,96	1286,12
372,17	1257,45
372,38	1275,88
372,59	1335,28
372,80	1337,32
373,01	1257,45
373,22	1206,25
373,43	1284,08
373,64	1263,60
373,85	1294,32
374,06	1306,60
374,26	1298,41
374,47	1265,64
374,68	1279,98
374,89	1325,04
375,10	1232,88
375,31	1200,11
375,52	1239,02
375,73	1259,50
375,94	1241,07
376,15	1306,60
376,36	1247,21
376,57	1277,93
376,78	1234,93
376,99	1243,12
377,20	1290,22
377,40	1337,32
377,61	1327,08
377,82	1275,88
378,03	1312,75
378,24	1296,36
378,45	1314,80
378,66	1269,74
378,87	1314,80
379,08	1249,26
379,29	1333,23
379,50	1230,83
379,71	1222,64
379,91	1230,83
380,12	1282,03
380,33	1333,23
380,54	1198,06
380,75	1277,93
380,96	1253,36
381,17	1249,26
381,38	1234,93
381,59	1228,78
381,80	1304,56
382,00	1343,47
382,21	1265,64
382,42	1226,73
382,63	1241,07
382,84	1314,80
383,05	1196,01
383,26	1249,26
383,47	1273,84
383,68	1306,60
383,88	1255,40
384,09	1310,70
384,30	1271,79
384,51	1275,88
384,72	1273,84
384,93	1253,36
385,14	1277,93
385,35	1222,64
385,55	1273,84
385,76	1277,93
385,97	1251,31
386,18	1271,79
386,39	1265,64
386,60	1306,60
386,81	1224,69
387,02	1228,78
387,22	1308,65
387,43	1251,31
387,64	1290,22
387,85	1226,73
388,06	1347,56
388,27	1277,93
388,48	1304,56
388,68	1212,40
388,89	1255,40
389,10	1269,74
389,31	1204,21
389,52	1241,07
389,73	1277,93
389,93	1241,07
390,14	1284,08
390,35	1290,22
390,56	1331,18
390,77	1239,02
390,98	1226,73
391,18	1308,65
391,39	1279,98
391,60	1243,12
391,81	1259,50
392,02	1232,88
392,23	1236,97
392,43	1206,25
392,64	1267,69
392,85	1273,84
393,06	1239,02
393,27	1265,64
393,47	1259,50
393,68	1275,88
393,89	1284,08
394,10	1257,45
394,31	1325,04
394,52	1222,64
394,72	1265,64
394,93	1230,83
395,14	1202,16
395,35	1226,73
395,56	1245,16
395,76	1249,26
395,97	1222,64
396,18	1298,41
396,39	1277,93
396,60	1341,42
396,80	1257,45
397,01	1236,97
397,22	1267,69
397,43	1273,84
397,64	1255,40
397,84	1247,21
398,05	1239,02
398,26	1245,16
398,47	1257,45
398,67	1296,36
398,88	1282,03
399,09	1269,74
399,30	1298,41
399,51	1298,41
399,71	1212,40
399,92	1236,97
400,13	1189,87
400,34	1257,45
400,54	1183,73
400,75	1224,69
400,96	1236,97
401,17	1331,18
401,37	1261,55
401,58	1279,98
401,79	1214,45
402,00	1232,88
402,21	1271,79
402,41	1230,83
402,62	1253,36
402,83	1243,12
403,04	1249,26
403,24	1363,95
403,45	1214,45
403,66	1243,12
403,87	1206,25
404,07	1251,31
404,28	1245,16
404,49	1259,50
404,70	1255,40
404,90	1216,49
405,11	1277,93
405,32	1327,08
405,52	1261,55
405,73	1282,03
405,94	1275,88
406,15	1271,79
406,35	1286,12
406,56	1243,12
406,77	1269,74
406,98	1226,73
407,18	1249,26
407,39	1288,17
407,60	1306,60
407,80	1322,99
408,01	1206,25
408,22	1288,17
408,43	1304,56
408,63	1263,60
408,84	1261,55
409,05	1273,84
409,25	1212,40
409,46	1263,60
409,67	1234,93
409,88	1290,22
410,08	1255,40
410,29	1263,60
410,50	1327,08
410,70	1247,21
410,91	1251,31
411,12	1269,74
411,32	1257,45
411,53	1234,93
411,74	1224,69
411,95	1267,69
412,15	1243,12
412,36	1351,66
412,57	1261,55
412,77	1306,60
412,98	1265,64
413,19	1347,56
413,39	1196,01
413,60	1249,26
413,81	1239,02
414,01	1339,37
414,22	1302,51
414,43	1247,21
414,63	1232,88
414,84	1255,40
415,05	1243,12
415,25	1296,36
415,46	1279,98
415,67	1232,88
415,87	1288,17
416,08	1243,12
416,29	1247,21
416,49	1230,83
416,70	1232,88
416,91	1335,28
417,11	1300,46
417,32	1300,46
417,53	1304,56
417,73	1310,70
417,94	1284,08
418,15	1259,50
418,35	1294,32
418,56	1263,60
418,77	1298,41
418,97	1284,08
419,18	1263,60
419,38	1257,45
419,59	1243,12
419,80	1265,64
420,00	1310,70
420,21	1320,94
420,42	1206,25
420,62	1257,45
420,83	1196,01
421,04	1316,84
421,24	1306,60
421,45	1275,88
421,65	1259,50
421,86	1234,93
422,07	1193,97
422,27	1331,18
422,48	1257,45
422,69	1265,64
422,89	1284,08
423,10	1322,99
423,30	1271,79
423,51	1214,45
423,72	1243,12
423,92	1271,79
424,13	1275,88
424,33	1306,60
424,54	1286,12
424,75	1261,55
424,95	1247,21
425,16	1279,98
425,36	1263,60
425,57	1292,27
425,78	1236,97
425,98	1282,03
426,19	1304,56
426,39	1267,69
426,60	1314,80
426,81	1236,97
427,01	1253,36
427,22	1261,55
427,42	1294,32
427,63	1253,36
427,83	1335,28
428,04	1361,90
428,25	1245,16
428,45	1218,54
428,66	1279,98
428,86	1271,79
429,07	1372,14
429,28	1267,69
429,48	1249,26
429,69	1267,69
429,89	1320,94
430,10	1325,04
430,30	1228,78
430,51	1271,79
430,71	1257,45
430,92	1265,64
431,13	1253,36
431,33	1241,07
431,54	1191,92
431,74	1279,98
431,95	1222,64
432,15	1310,70
432,36	1320,94
432,56	1261,55
432,77	1193,97
432,98	1257,45
433,18	1335,28
433,39	1312,75
433,59	1298,41
433,80	1257,45
434,00	1292,27
434,21	1286,12
434,41	1273,84
434,62	1304,56
434,82	1263,60
435,03	1263,60
435,23	1279,98
435,44	1241,07
435,64	1372,14
435,85	1265,64
436,06	1292,27
436,26	1292,27
436,47	1216,49
436,67	1181,68
436,88	1249,26
437,08	1294,32
437,29	1216,49
437,49	1277,93
437,70	1228,78
437,90	1333,23
438,11	1218,54
438,31	1191,92
438,52	1208,30
438,72	1314,80
438,93	1329,13
439,13	1202,16
439,34	1279,98
439,54	1220,59
439,75	1298,41
439,95	1261,55
440,16	1279,98
440,36	1241,07
440,57	1314,80
440,77	1288,17
440,98	1239,02
441,18	1376,24
441,39	1247,21
441,59	1255,40
441,80	1245,16
442,00	1253,36
442,21	1271,79
442,41	1255,40
442,62	1243,12
442,82	1339,37
443,02	1267,69
443,23	1316,84
443,43	1206,25
443,64	1314,80
443,84	1271,79
444,05	1236,97
444,25	1255,40
444,46	1222,64
444,66	1220,59
444,87	1296,36
445,07	1212,40
445,28	1275,88
445,48	1198,06
445,69	1226,73
445,89	1310,70
446,09	1333,23
446,30	1255,40
446,50	1232,88
446,71	1298,41
446,91	1316,84
447,12	1263,60
447,32	1185,77
447,53	1251,31
447,73	1243,12
447,93	1196,01
448,14	1269,74
448,34	1200,11
448,55	1312,75
448,75	1284,08
448,96	1290,22
449,16	1228,78
449,36	1333,23
449,57	1347,56
449,77	1271,79
449,98	1208,30
450,18	1253,36
450,39	1251,31
450,59	1298,41
450,79	1257,45
451,00	1243,12
451,20	1261,55
451,41	1234,93
451,61	1257,45
451,81	1222,64
452,02	1206,25
452,22	1255,40
452,43	1193,97
452,63	1261,55
452,84	1224,69
453,04	1302,51
453,24	1247,21
453,45	1282,03
453,65	1300,46
453,86	1216,49
454,06	1267,69
454,26	1241,07
454,47	1253,36
454,67	1329,13
454,87	1290,22
455,08	1273,84
455,28	1331,18
455,49	1255,40
455,69	1245,16
455,89	1265,64
456,10	1286,12
456,30	1277,93
456,51	1282,03
456,71	1314,80
456,91	1267,69
457,12	1312,75
457,32	1226,73
457,52	1292,27
457,73	1212,40
457,93	1306,60
458,14	1290,22
458,34	1322,99
458,54	1196,01
458,75	1218,54
458,95	1327,08
459,15	1241,07
459,36	1273,84
459,56	1337,32
459,76	1267,69
459,97	1269,74
460,17	1277,93
460,37	1183,73
460,58	1243,12
460,78	1284,08
460,99	1298,41
461,19	1284,08
461,39	1243,12
461,60	1296,36
461,80	1249,26
462,00	1290,22
462,21	1279,98
462,41	1335,28
462,61	1286,12
462,82	1255,40
463,02	1220,59
463,22	1277,93
463,43	1290,22
463,63	1296,36
463,83	1271,79
464,04	1204,21
464,24	1290,22
464,44	1228,78
464,64	1329,13
464,85	1302,51
465,05	1279,98
465,25	1290,22
465,46	1239,02
465,66	1247,21
465,86	1296,36
466,07	1370,09
466,27	1294,32
466,47	1263,60
466,68	1310,70
466,88	1249,26
467,08	1312,75
467,29	1241,07
467,49	1220,59
467,69	1269,74
467,89	1320,94
468,10	1198,06
468,30	1269,74
468,50	1290,22
468,71	1224,69
468,91	1245,16
469,11	1241,07
469,31	1249,26
469,52	1347,56
469,72	1218,54
469,92	1204,21
470,13	1308,65
470,33	1279,98
470,53	1284,08
470,73	1314,80
470,94	1263,60
471,14	1253,36
471,34	1206,25
471,54	1236,97
471,75	1353,71
471,95	1304,56
472,15	1230,83
472,36	1228,78
472,56	1265,64
472,76	1249,26
472,96	1286,12
473,17	1263,60
473,37	1253,36
473,57	1298,41
473,77	1241,07
473,98	1261,55
474,18	1273,84
474,38	1304,56
474,58	1216,49
474,79	1189,87
474,99	1255,40
475,19	1292,27
475,39	1288,17
475,60	1314,80
475,80	1204,21
476,00	1257,45
476,20	1228,78
476,41	1267,69
476,61	1335,28
476,81	1273,84
477,01	1275,88
477,21	1320,94
477,42	1208,30
477,62	1267,69
477,82	1234,93
478,02	1234,93
478,23	1253,36
478,43	1253,36
478,63	1320,94
478,83	1253,36
479,03	1282,03
479,24	1269,74
479,44	1277,93
479,64	1310,70
479,84	1277,93
480,04	1259,50
480,25	1198,06
480,45	1259,50
480,65	1271,79
480,85	1320,94
481,06	1253,36
481,26	1257,45
481,46	1226,73
481,66	1277,93
481,86	1286,12
482,06	1241,07
482,27	1261,55
482,47	1247,21
482,67	1214,45
482,87	1210,35
483,07	1296,36
483,28	1292,27
483,48	1216,49
483,68	1255,40
483,88	1253,36
484,08	1222,64
484,29	1300,46
484,49	1234,93
484,69	1335,28
484,89	1253,36
485,09	1257,45
485,29	1310,70
485,50	1286,12
485,70	1290,22
485,90	1333,23
486,10	1255,40
486,30	1267,69
486,50	1320,94
486,71	1261,55
486,91	1294,32
487,11	1202,16
487,31	1241,07
487,51	1214,45
487,71	1177,58
487,91	1292,27
488,12	1251,31
488,32	1255,40
488,52	1241,07
488,72	1224,69
488,92	1265,64
489,12	1265,64
489,32	1314,80
489,53	1298,41
489,73	1269,74
489,93	1255,40
490,13	1224,69
490,33	1155,05
490,53	1302,51
490,73	1220,59
490,94	1294,32
491,14	1214,45
491,34	1251,31
491,54	1206,25
491,74	1236,97
491,94	1325,04
492,14	1210,35
492,34	1214,45
492,54	1318,89
492,75	1284,08
492,95	1294,32
493,15	1279,98
493,35	1257,45
493,55	1288,17
493,75	1282,03
493,95	1226,73
494,15	1259,50
494,35	1286,12
494,56	1253,36
494,76	1263,60
494,96	1279,98
495,16	1239,02
495,36	1277,93
495,56	1249,26
495,76	1208,30
495,96	1271,79
496,16	1198,06
496,36	1300,46
496,56	1245,16
496,77	1275,88
496,97	1337,32
497,17	1333,23
497,37	1267,69
497,57	1243,12
497,77	1275,88
497,97	1290,22
498,17	1259,50
498,37	1236,97
498,57	1275,88
498,77	1304,56
498,97	1224,69
499,17	1282,03
499,38	1239,02
499,58	1222,64
499,78	1279,98
499,98	1222,64
500,18	1259,50
500,38	1288,17
500,58	1282,03
500,78	1296,36
500,98	1294,32
501,18	1196,01
501,38	1191,92
501,58	1234,93
501,78	1245,16
501,98	1271,79
502,18	1308,65
502,38	1261,55
502,58	1232,88
502,78	1249,26
502,98	1275,88
503,18	1282,03
503,38	1271,79
503,59	1236,97
503,79	1302,51
503,99	1277,93
504,19	1210,35
504,39	1245,16
504,59	1308,65
504,79	1314,80
504,99	1308,65
505,19	1306,60
505,39	1191,92
505,59	1243,12
505,79	1316,84
505,99	1271,79
506,19	1310,70
506,39	1255,40
506,59	1257,45
506,79	1255,40
506,99	1302,51
507,19	1279,98
507,39	1298,41
507,59	1200,11
507,79	1247,21
507,99	1316,84
508,19	1255,40
508,39	1345,52
508,59	1177,58
508,79	1245,16
508,99	1236,97
509,19	1304,56
509,39	1275,88
509,59	1265,64
509,79	1263,60
509,99	1316,84
510,19	1251,31
510,39	1263,60
510,59	1253,36
510,79	1308,65
510,99	1286,12
511,19	1249,26
511,39	1196,01
511,59	1290,22
511,79	1216,49
511,99	1271,79
512,19	1290,22
512,38	1298,41
512,58	1302,51
512,78	1294,32
512,98	1259,50
513,18	1292,27
513,38	1335,28
513,58	1249,26
513,78	1271,79
513,98	1241,07
514,18	1241,07
514,38	1220,59
514,58	1159,15
514,78	1286,12
514,98	1273,84
515,18	1279,98
515,38	1296,36
515,58	1259,50
515,78	1284,08
515,98	1216,49
516,18	1247,21
516,38	1206,25
516,57	1273,84
516,77	1206,25
516,97	1277,93
517,17	1275,88
517,37	1296,36
517,57	1271,79
517,77	1255,40
517,97	1183,73
518,17	1212,40
518,37	1257,45
518,57	1247,21
518,77	1212,40
518,97	1290,22
519,16	1284,08
519,36	1257,45
519,56	1269,74
519,76	1345,52
519,96	1290,22
520,16	1245,16
520,36	1300,46
520,56	1304,56
520,76	1325,04
520,96	1286,12
521,16	1208,30
521,35	1255,40
521,55	1273,84
521,75	1247,21
521,95	1267,69
522,15	1296,36
522,35	1359,85
522,55	1230,83
522,75	1282,03
522,95	1214,45
523,14	1271,79
523,34	1236,97
523,54	1247,21
523,74	1200,11
523,94	1277,93
524,14	1288,17
524,34	1206,25
524,54	1249,26
524,73	1333,23
524,93	1327,08
525,13	1320,94
525,33	1296,36
525,53	1263,60
525,73	1265,64
525,93	1169,39
526,13	1339,37
526,32	1296,36
526,52	1257,45
526,72	1239,02
526,92	1273,84
527,12	1261,55
527,32	1204,21
527,52	1267,69
527,71	1193,97
527,91	1314,80
528,11	1243,12
528,31	1320,94
528,51	1257,45
528,71	1234,93
528,90	1234,93
529,10	1298,41
529,30	1261,55
529,50	1296,36
529,70	1294,32
529,90	1267,69
530,09	1251,31
530,29	1247,21
530,49	1251,31
530,69	1296,36
530,89	1277,93
531,09	1273,84
531,28	1212,40
531,48	1308,65
531,68	1290,22
531,88	1220,59
532,08	1267,69
532,28	1255,40
532,47	1232,88
532,67	1357,80
532,87	1286,12
533,07	1290,22
533,27	1245,16
533,46	1298,41
533,66	1222,64
533,86	1308,65
534,06	1214,45
534,26	1286,12
534,45	1218,54
534,65	1329,13
534,85	1232,88
535,05	1230,83
535,25	1265,64
535,44	1345,52
535,64	1220,59
535,84	1273,84
536,04	1259,50
536,24	1226,73
536,43	1304,56
536,63	1259,50
536,83	1316,84
537,03	1282,03
537,22	1243,12
537,42	1269,74
537,62	1257,45
537,82	1251,31
538,02	1304,56
538,21	1265,64
538,41	1255,40
538,61	1318,89
538,81	1226,73
539,00	1318,89
539,20	1286,12
539,40	1288,17
539,60	1261,55
539,79	1222,64
539,99	1284,08
540,19	1222,64
540,39	1230,83
540,58	1239,02
540,78	1241,07
540,98	1265,64
541,18	1294,32
541,37	1236,97
541,57	1261,55
541,77	1310,70
541,97	1277,93
542,16	1308,65
542,36	1251,31
542,56	1228,78
542,76	1306,60
542,95	1239,02
543,15	1282,03
543,35	1267,69
543,54	1259,50
543,74	1243,12
543,94	1279,98
544,14	1216,49
544,33	1298,41
544,53	1222,64
544,73	1226,73
544,93	1179,63
545,12	1271,79
545,32	1290,22
545,52	1282,03
545,71	1279,98
545,91	1236,97
546,11	1294,32
546,30	1290,22
546,50	1200,11
546,70	1234,93
546,90	1298,41
547,09	1218,54
547,29	1282,03
547,49	1241,07
547,68	1226,73
547,88	1277,93
548,08	1261,55
548,27	1290,22
548,47	1247,21
548,67	1255,40
548,87	1265,64
549,06	1232,88
549,26	1251,31
549,46	1263,60
549,65	1239,02
549,85	1277,93
550,05	1236,97
550,24	1230,83
550,44	1337,32
550,64	1253,36
550,83	1329,13
551,03	1294,32
551,23	1296,36
551,42	1220,59
551,62	1288,17
551,82	1234,93
552,01	1294,32
552,21	1282,03
552,41	1327,08
552,60	1286,12
552,80	1271,79
553,00	1236,97
553,19	1290,22
553,39	1339,37
553,59	1257,45
553,78	1282,03
553,98	1247,21
554,17	1335,28
554,37	1259,50
554,57	1277,93
554,76	1279,98
554,96	1191,92
555,16	1329,13
555,35	1271,79
555,55	1310,70
555,75	1314,80
555,94	1269,74
556,14	1218,54
556,33	1200,11
556,53	1224,69
556,73	1265,64
556,92	1198,06
557,12	1193,97
557,32	1351,66
557,51	1279,98
557,71	1302,51
557,90	1322,99
558,10	1314,80
558,30	1200,11
558,49	1304,56
558,69	1282,03
558,88	1288,17
559,08	1284,08
559,28	1279,98
559,47	1277,93
559,67	1322,99
559,86	1267,69
560,06	1327,08
560,26	1234,93
560,45	1234,93
560,65	1232,88
560,84	1277,93
561,04	1269,74
561,24	1257,45
561,43	1306,60
561,63	1308,65
561,82	1239,02
562,02	1255,40
562,22	1329,13
562,41	1208,30
562,61	1302,51
562,80	1273,84
563,00	1277,93
563,19	1255,40
563,39	1249,26
563,59	1333,23
563,78	1224,69
563,98	1245,16
564,17	1243,12
564,37	1265,64
564,56	1263,60
564,76	1322,99
564,96	1271,79
565,15	1275,88
565,35	1337,32
565,54	1228,78
565,74	1273,84
565,93	1265,64
566,13	1251,31
566,32	1277,93
566,52	1249,26
566,71	1302,51
566,91	1230,83
567,11	1304,56
567,30	1214,45
567,50	1288,17
567,69	1245,16
567,89	1232,88
568,08	1214,45
568,28	1300,46
568,47	1155,05
568,67	1282,03
568,86	1345,52
569,06	1265,64
569,25	1218,54
569,45	1339,37
569,64	1320,94
569,84	1257,45
570,04	1255,40
570,23	1249,26
570,43	1253,36
570,62	1273,84
570,82	1232,88
571,01	1216,49
571,21	1322,99
571,40	1216,49
571,60	1208,30
571,79	1316,84
571,99	1245,16
572,18	1275,88
572,38	1310,70
572,57	1263,60
572,77	1245,16
572,96	1239,02
573,16	1214,45
573,35	1243,12
573,55	1279,98
573,74	1241,07
573,94	1310,70
574,13	1249,26
574,33	1265,64
574,52	1286,12
574,71	1265,64
574,91	1185,77
575,10	1296,36
575,30	1210,35
575,49	1263,60
575,69	1259,50
575,88	1265,64
576,08	1228,78
576,27	1249,26
576,47	1259,50
576,66	1279,98
576,86	1265,64
577,05	1322,99
577,25	1271,79
577,44	1234,93
577,64	1241,07
577,83	1296,36
578,02	1286,12
578,22	1314,80
578,41	1232,88
578,61	1265,64
578,80	1339,37
579,00	1265,64
579,19	1327,08
579,39	1273,84
579,58	1296,36
579,77	1249,26
579,97	1253,36
580,16	1314,80
580,36	1214,45
580,55	1286,12
580,75	1253,36
580,94	1306,60
581,13	1277,93
581,33	1298,41
581,52	1247,21
581,72	1290,22
581,91	1298,41
582,11	1298,41
582,30	1267,69
582,49	1230,83
582,69	1245,16
582,88	1257,45
583,08	1261,55
583,27	1265,64
583,47	1249,26
583,66	1251,31
583,85	1267,69
584,05	1263,60
584,24	1310,70
584,44	1206,25
584,63	1228,78
584,82	1200,11
585,02	1206,25
585,21	1249,26
585,41	1249,26
585,60	1259,50
585,79	1236,97
585,99	1275,88
586,18	1210,35
586,37	1286,12
586,57	1286,12
586,76	1302,51
586,96	1265,64
587,15	1296,36
587,34	1345,52
587,54	1331,18
587,73	1259,50
587,93	1232,88
588,12	1302,51
588,31	1261,55
588,51	1253,36
588,70	1337,32
588,89	1269,74
589,09	1234,93
589,28	1253,36
589,47	1273,84
589,67	1236,97
589,86	1308,65
590,06	1282,03
590,25	1245,16
590,44	1361,90
590,64	1269,74
590,83	1329,13
591,02	1277,93
591,22	1204,21
591,41	1320,94
591,60	1327,08
591,80	1277,93
591,99	1275,88
592,18	1329,13
592,38	1271,79
592,57	1193,97
592,76	1286,12
592,96	1224,69
593,15	1357,80
593,34	1269,74
593,54	1263,60
593,73	1241,07
593,92	1216,49
594,12	1290,22
594,31	1279,98
594,50	1300,46
594,70	1232,88
594,89	1249,26
595,08	1322,99
595,28	1329,13
595,47	1222,64
595,66	1271,79
595,86	1253,36
596,05	1277,93
596,24	1245,16
596,43	1277,93
596,63	1253,36
596,82	1292,27
597,01	1232,88
597,21	1366,00
597,40	1257,45
597,59	1322,99
597,79	1275,88
597,98	1249,26
598,17	1388,52
598,36	1304,56
598,56	1253,36
598,75	1239,02
598,94	1257,45
599,14	1265,64
599,33	1292,27
599,52	1275,88
599,71	1224,69
599,91	1300,46
600,10	1222,64
600,29	1310,70
600,48	1318,89
600,68	1265,64
600,87	1277,93
601,06	1284,08
601,26	1216,49
601,45	1335,28
601,64	1271,79
601,83	1267,69
602,03	1222,64
602,22	1331,18
602,41	1255,40
602,60	1241,07
602,80	1282,03
602,99	1273,84
603,18	1322,99
603,37	1273,84
603,57	1275,88
603,76	1304,56
603,95	1310,70
604,14	1271,79
604,34	1249,26
604,53	1210,35
604,72	1249,26
604,91	1263,60
605,10	1222,64
605,30	1275,88
605,49	1259,50
605,68	1279,98
605,87	1363,95
606,07	1267,69
606,26	1277,93
606,45	1222,64
606,64	1341,42
606,84	1341,42
607,03	1314,80
607,22	1320,94
607,41	1302,51
607,60	1261,55
607,80	1335,28
607,99	1241,07
608,18	1230,83
608,37	1290,22
608,56	1261,55
608,76	1271,79
608,95	1290,22
609,14	1267,69
609,33	1257,45
609,52	1284,08
609,72	1322,99
609,91	1253,36
610,10	1318,89
610,29	1310,70
610,48	1239,02
610,68	1282,03
610,87	1327,08
611,06	1277,93
611,25	1380,33
611,44	1296,36
611,63	1200,11
611,83	1292,27
612,02	1247,21
612,21	1267,69
612,40	1263,60
612,59	1314,80
612,79	1302,51
612,98	1253,36
613,17	1257,45
613,36	1259,50
613,55	1267,69
613,74	1232,88
613,93	1259,50
614,13	1296,36
614,32	1296,36
614,51	1279,98
614,70	1288,17
614,89	1245,16
615,08	1220,59
615,28	1298,41
615,47	1253,36
615,66	1247,21
615,85	1304,56
616,04	1247,21
616,23	1318,89
616,42	1282,03
616,62	1241,07
616,81	1236,97
617,00	1267,69
617,19	1257,45
617,38	1269,74
617,57	1245,16
617,76	1228,78
617,95	1273,84
618,15	1265,64
618,34	1325,04
618,53	1261,55
618,72	1198,06
618,91	1255,40
619,10	1347,56
619,29	1247,21
619,48	1249,26
619,68	1271,79
619,87	1265,64
620,06	1271,79
620,25	1259,50
620,44	1275,88
620,63	1294,32
620,82	1202,16
621,01	1216,49
621,20	1304,56
621,39	1316,84
621,59	1241,07
621,78	1222,64
621,97	1288,17
622,16	1271,79
622,35	1290,22
622,54	1273,84
622,73	1253,36
622,92	1253,36
623,11	1279,98
623,30	1302,51
623,49	1181,68
623,68	1253,36
623,88	1312,75
624,07	1279,98
624,26	1318,89
624,45	1314,80
624,64	1259,50
624,83	1298,41
625,02	1206,25
625,21	1196,01
625,40	1339,37
625,59	1318,89
625,78	1208,30
625,97	1228,78
626,16	1269,74
626,35	1310,70
626,54	1204,21
626,74	1396,71
626,93	1320,94
627,12	1349,61
627,31	1239,02
627,50	1306,60
627,69	1302,51
627,88	1230,83
628,07	1259,50
628,26	1214,45
628,45	1239,02
628,64	1275,88
628,83	1286,12
629,02	1263,60
629,21	1308,65
629,40	1349,61
629,59	1275,88
629,78	1310,70
629,97	1320,94
630,16	1302,51
630,35	1284,08
630,54	1380,33
630,73	1249,26
630,92	1347,56
631,11	1292,27
631,30	1310,70
631,49	1341,42
631,68	1298,41
631,87	1544,17
632,06	1933,28
632,25	1554,41
632,44	1699,81
632,63	1976,29
632,82	2244,57
633,01	5599,15
633,20	5038,00
633,39	3700,68
633,58	1961,95
633,77	3014,61
633,96	6068,13
634,15	6946,71
634,34	5636,01
634,53	4009,92
634,72	2705,37
634,91	2076,64
635,10	1699,81
635,29	1597,42
635,48	1599,46
635,67	1535,98
635,86	1515,50
636,05	1439,72
636,24	1298,41
636,43	1427,43
636,62	1345,52
636,81	1310,70
637,00	1296,36
637,19	1370,09
637,38	1282,03
637,57	1302,51
637,76	1335,28
637,95	1288,17
638,14	1331,18
638,33	1275,88
638,52	1314,80
638,71	1320,94
638,89	1279,98
639,08	1347,56
639,27	1320,94
639,46	1284,08
639,65	1302,51
639,84	1269,74
640,03	1349,61
640,22	1261,55
640,41	1284,08
640,60	1247,21
640,79	1314,80
640,98	1218,54
641,17	1312,75
641,36	1298,41
641,55	1314,80
641,74	1247,21
641,92	1241,07
642,11	1228,78
642,30	1255,40
642,49	1273,84
642,68	1279,98
642,87	1298,41
643,06	1257,45
643,25	1269,74
643,44	1232,88
643,63	1261,55
643,82	1255,40
644,00	1302,51
644,19	1298,41
644,38	1173,49
644,57	1325,04
644,76	1257,45
644,95	1294,32
645,14	1259,50
645,33	1288,17
645,52	1234,93
645,71	1261,55
645,89	1257,45
646,08	1218,54
646,27	1253,36
646,46	1296,36
646,65	1234,93
646,84	1304,56
647,03	1228,78
647,22	1257,45
647,40	1257,45
647,59	1331,18
647,78	1200,11
647,97	1263,60
648,16	1302,51
648,35	1282,03
648,54	1312,75
648,73	1255,40
648,91	1320,94
649,10	1275,88
649,29	1290,22
649,48	1368,04
649,67	1253,36
649,86	1347,56
650,05	1251,31
650,23	1288,17
650,42	1277,93
650,61	1265,64
650,80	1226,73
650,99	1265,64
651,18	1234,93
651,36	1269,74
651,55	1294,32
651,74	1273,84
651,93	1331,18
652,12	1228,78
652,31	1247,21
652,49	1249,26
652,68	1282,03
652,87	1288,17
653,06	1236,97
653,25	1304,56
653,44	1263,60
653,62	1230,83
653,81	1302,51
654,00	1230,83
654,19	1302,51
654,38	1159,15
654,56	1232,88
654,75	1210,35
654,94	1257,45
655,13	1290,22
655,32	1230,83
655,51	1290,22
655,69	1267,69
655,88	1257,45
656,07	1267,69
656,26	1202,16
656,45	1245,16
656,63	1261,55
656,82	1294,32
657,01	1322,99
657,20	1257,45
657,38	1361,90
657,57	1253,36
657,76	1236,97
657,95	1271,79
658,14	1288,17
658,32	1288,17
658,51	1228,78
658,70	1249,26
658,89	1206,25
659,08	1288,17
659,26	1263,60
659,45	1292,27
659,64	1232,88
659,83	1269,74
660,01	1296,36
660,20	1216,49
660,39	1290,22
660,58	1249,26
660,76	1296,36
660,95	1316,84
661,14	1175,53
661,33	1296,36
661,51	1232,88
661,70	1218,54
661,89	1316,84
662,08	1263,60
662,26	1298,41
662,45	1239,02
662,64	1279,98
662,83	1265,64
663,01	1300,46
663,20	1306,60
663,39	1331,18
663,58	1220,59
663,76	1247,21
663,95	1255,40
664,14	1216,49
664,32	1218,54
664,51	1257,45
664,70	1249,26
664,89	1245,16
665,07	1247,21
665,26	1241,07
665,45	1351,66
665,64	1290,22
665,82	1241,07
666,01	1265,64
666,20	1230,83
666,38	1236,97
666,57	1322,99
666,76	1249,26
666,95	1226,73
667,13	1239,02
667,32	1275,88
667,51	1277,93
667,69	1279,98
667,88	1312,75
668,07	1306,60
668,25	1263,60
668,44	1322,99
668,63	1261,55
668,81	1275,88
669,00	1239,02
669,19	1271,79
669,38	1198,06
669,56	1226,73
669,75	1318,89
669,94	1327,08
670,12	1222,64
670,31	1224,69
670,50	1269,74
670,68	1300,46
670,87	1245,16
671,06	1255,40
671,24	1255,40
671,43	1286,12
671,62	1279,98
671,80	1267,69
671,99	1255,40
672,18	1251,31
672,36	1296,36
672,55	1210,35
672,74	1294,32
672,92	1277,93
673,11	1255,40
673,29	1300,46
673,48	1257,45
673,67	1298,41
673,85	1376,24
674,04	1290,22
674,23	1290,22
674,41	1263,60
674,60	1214,45
674,79	1271,79
674,97	1275,88
675,16	1257,45
675,34	1210,35
675,53	1245,16
675,72	1224,69
675,90	1269,74
676,09	1265,64
676,28	1279,98
676,46	1165,29
676,65	1218,54
676,83	1226,73
677,02	1286,12
677,21	1296,36
677,39	1269,74
677,58	1322,99
677,77	1286,12
677,95	1286,12
678,14	1288,17
678,32	1247,21
678,51	1306,60
678,70	1253,36
678,88	1243,12
679,07	1265,64
679,25	1249,26
679,44	1306,60
679,63	1208,30
679,81	1282,03
680,00	1279,98
680,18	1279,98
680,37	1255,40
680,55	1212,40
680,74	1241,07
680,93	1327,08
681,11	1322,99
681,30	1261,55
681,48	1355,76
681,67	1271,79
681,85	1255,40
682,04	1257,45
682,23	1277,93
682,41	1159,15
682,60	1255,40
682,78	1267,69
682,97	1222,64
683,15	1288,17
683,34	1230,83
683,53	1318,89
683,71	1220,59
683,90	1269,74
684,08	1214,45
684,27	1300,46
684,45	1234,93
684,64	1298,41
684,82	1239,02
685,01	1247,21
685,19	1269,74
685,38	1298,41
685,57	1314,80
685,75	1288,17
685,94	1220,59
686,12	1286,12
686,31	1269,74
686,49	1249,26
686,68	1302,51
686,86	1302,51
687,05	1200,11
687,23	1265,64
687,42	1257,45
687,60	1306,60
687,79	1206,25
687,97	1253,36
688,16	1271,79
688,34	1312,75
688,53	1167,34
688,71	1230,83
688,90	1216,49
689,08	1273,84
689,27	1292,27
689,45	1204,21
689,64	1312,75
689,82	1277,93
690,01	1251,31
690,19	1351,66
690,38	1273,84
690,56	1259,50
690,75	1273,84
690,93	1275,88
691,12	1261,55
691,30	1329,13
691,49	1183,73
691,67	1243,12
691,86	1216,49
692,04	1220,59
692,23	1298,41
692,41	1236,97
692,60	1282,03
692,78	1230,83
692,97	1292,27
693,15	1363,95
693,34	1284,08
693,52	1230,83
693,71	1312,75
693,89	1228,78
694,08	1210,35
694,26	1282,03
694,44	1277,93
694,63	1239,02
694,81	1267,69
695,00	1249,26
695,18	1239,02
695,37	1314,80
695,55	1175,53
695,74	1277,93
695,92	1269,74
696,10	1318,89
696,29	1282,03
696,47	1308,65
696,66	1341,42
696,84	1288,17
697,03	1255,40
697,21	1292,27
697,40	1247,21
697,58	1269,74
697,76	1228,78
697,95	1261,55
698,13	1243,12
698,32	1226,73
698,50	1327,08
698,68	1255,40
698,87	1261,55
699,05	1279,98
699,24	1288,17
699,42	1216,49
699,61	1251,31
699,79	1243,12
699,97	1271,79
700,16	1277,93
700,34	1304,56
700,53	1322,99
700,71	1275,88
700,89	1302,51
701,08	1239,02
701,26	1294,32
701,45	1232,88
701,63	1318,89
701,81	1239,02
702,00	1241,07
702,18	1210,35
702,37	1241,07
702,55	1228,78
702,73	1241,07
702,92	1208,30
703,10	1271,79
703,28	1335,28
703,47	1296,36
703,65	1253,36
703,84	1294,32
704,02	1247,21
704,20	1282,03
704,39	1279,98
704,57	1304,56
704,75	1230,83
704,94	1308,65
705,12	1259,50
705,30	1300,46
705,49	1273,84
705,67	1333,23
705,86	1279,98
706,04	1243,12
706,22	1265,64
706,41	1277,93
706,59	1304,56
706,77	1296,36
706,96	1261,55
707,14	1232,88
707,32	1251,31
707,51	1247,21
707,69	1179,63
707,87	1298,41
708,06	1292,27
708,24	1267,69
708,42	1277,93
708,61	1288,17
708,79	1255,40
708,97	1366,00
709,16	1286,12
709,34	1286,12
709,52	1306,60
709,71	1282,03
709,89	1288,17
710,07	1265,64
710,26	1208,30
710,44	1296,36
710,62	1308,65
710,80	1249,26
710,99	1279,98
711,17	1298,41
711,35	1236,97
711,54	1310,70
711,72	1124,33
711,90	1216,49
712,09	1290,22
712,27	1224,69
712,45	1218,54
712,63	1232,88
712,82	1263,60
713,00	1234,93
713,18	1318,89
713,37	1273,84
713,55	1316,84
713,73	1226,73
713,91	1204,21
714,10	1216,49
714,28	1193,97
714,46	1318,89
714,65	1288,17
714,83	1277,93
715,01	1183,73
715,19	1273,84
715,38	1284,08
715,56	1312,75
715,74	1322,99
715,92	1255,40
716,11	1372,14
716,29	1337,32
716,47	1224,69
716,65	1236,97
716,84	1249,26
717,02	1271,79
717,20	1261,55
717,38	1275,88
717,57	1214,45
717,75	1322,99
717,93	1288,17
718,11	1277,93
718,30	1273,84
718,48	1310,70
718,66	1271,79
718,84	1273,84
719,03	1255,40
719,21	1318,89
719,39	1380,33
719,57	1249,26
719,75	1263,60
719,94	1290,22
720,12	1234,93
720,30	1304,56
720,48	1241,07
720,67	1353,71
720,85	1245,16
721,03	1286,12
721,21	1257,45
721,39	1322,99
721,58	1255,40
721,76	1214,45
721,94	1372,14
722,12	1345,52
722,30	1265,64
722,49	1318,89
722,67	1306,60
722,85	1265,64
723,03	1241,07
723,21	1257,45
723,40	1230,83
723,58	1282,03
723,76	1259,50
723,94	1239,02
724,12	1279,98
724,30	1361,90
724,49	1224,69
724,67	1253,36
724,85	1173,49
725,03	1284,08
725,21	1288,17
725,40	1310,70
725,58	1298,41
725,76	1290,22
725,94	1290,22
726,12	1224,69
726,30	1234,93
726,49	1243,12
726,67	1206,25
726,85	1251,31
727,03	1204,21
727,21	1222,64
727,39	1294,32
727,57	1284,08
727,76	1327,08
727,94	1236,97
728,12	1294,32
728,30	1245,16
728,48	1273,84
728,66	1259,50
728,84	1331,18
729,03	1300,46
729,21	1282,03
729,39	1294,32
729,57	1304,56
729,75	1267,69
729,93	1261,55
730,11	1234,93
730,30	1212,40
730,48	1288,17
730,66	1267,69
730,84	1243,12
731,02	1269,74
731,20	1318,89
731,38	1271,79
731,56	1214,45
731,74	1222,64
731,93	1269,74
732,11	1314,80
732,29	1286,12
732,47	1343,47
732,65	1241,07
732,83	1286,12
733,01	1288,17
733,19	1333,23
733,37	1259,50
733,56	1279,98
733,74	1189,87
733,92	1318,89
734,10	1271,79
734,28	1265,64
734,46	1200,11
734,64	1261,55
734,82	1298,41
735,00	1269,74
735,18	1286,12
735,36	1314,80
735,54	1239,02
735,73	1296,36
735,91	1273,84
736,09	1245,16
736,27	1341,42
736,45	1216,49
736,63	1243,12
736,81	1320,94
736,99	1239,02
737,17	1257,45
737,35	1232,88
737,53	1271,79
737,71	1302,51
737,89	1232,88
738,07	1249,26
738,25	1236,97
738,43	1241,07
738,61	1222,64
738,80	1296,36
738,98	1282,03
739,16	1269,74
739,34	1261,55
739,52	1286,12
739,70	1304,56
739,88	1245,16
740,06	1220,59
740,24	1232,88
740,42	1146,86
740,60	1273,84
740,78	1191,92
740,96	1255,40
741,14	1253,36
741,32	1198,06
741,50	1357,80
741,68	1306,60
741,86	1214,45
742,04	1263,60
742,22	1220,59
742,40	1226,73
742,58	1263,60
742,76	1269,74
742,94	1263,60
743,12	1251,31
743,30	1290,22
743,48	1261,55
743,66	1306,60
743,84	1241,07
744,02	1300,46
744,20	1241,07
744,38	1290,22
744,56	1302,51
744,74	1239,02
744,92	1228,78
745,10	1249,26
745,28	1222,64
745,46	1349,61
745,64	1243,12
745,82	1318,89
746,00	1263,60
746,18	1331,18
746,36	1290,22
746,54	1292,27
746,72	1241,07
746,90	1245,16
747,08	1314,80
747,26	1251,31
747,44	1333,23
747,62	1347,56
747,80	1310,70
747,98	1208,30
748,15	1288,17
748,33	1296,36
748,51	1282,03
748,69	1298,41
748,87	1187,82
749,05	1286,12
749,23	1269,74
749,41	1282,03
749,59	1189,87
749,77	1269,74
749,95	1249,26
750,13	1273,84
750,31	1261,55
750,49	1247,21
750,67	1325,04
750,85	1257,45
751,03	1300,46
751,20	1257,45
751,38	1304,56
751,56	1234,93
751,74	1269,74
751,92	1169,39
752,10	1210,35
752,28	1228,78
752,46	1314,80
752,64	1310,70
752,82	1333,23
753,00	1259,50
753,18	1224,69
753,35	1222,64
753,53	1241,07
753,71	1296,36
753,89	1333,23
754,07	1206,25
754,25	1282,03
754,43	1257,45
754,61	1216,49
754,79	1282,03
754,97	1273,84
755,14	1290,22
755,32	1234,93
755,50	1286,12
755,68	1253,36
755,86	1245,16
756,04	1329,13
756,22	1288,17
756,40	1226,73
756,57	1249,26
756,75	1232,88
756,93	1304,56
757,11	1284,08
757,29	1249,26
757,47	1243,12
757,65	1255,40
757,82	1245,16
758,00	1228,78
758,18	1288,17
758,36	1251,31
758,54	1286,12
758,72	1257,45
758,90	1230,83
759,07	1214,45
759,25	1335,28
759,43	1273,84
759,61	1320,94
759,79	1314,80
759,97	1226,73
760,15	1247,21
760,32	1312,75
760,50	1224,69
760,68	1212,40
760,86	1187,82
761,04	1314,80
761,22	1249,26
761,39	1302,51
761,57	1234,93
761,75	1296,36
761,93	1269,74
762,11	1351,66
762,28	1249,26
762,46	1220,59
762,64	1265,64
762,82	1312,75
763,00	1241,07
763,18	1282,03
763,35	1234,93
763,53	1243,12
763,71	1230,83
763,89	1257,45
764,07	1277,93
764,24	1232,88
764,42	1275,88
764,60	1236,97
764,78	1288,17
764,96	1318,89
765,13	1241,07
765,31	1347,56
765,49	1294,32
765,67	1259,50
765,84	1296,36
766,02	1292,27
766,20	1265,64
766,38	1298,41
766,56	1255,40
766,73	1284,08
766,91	1310,70
767,09	1282,03
767,27	1318,89
767,44	1374,19
767,62	1181,68
767,80	1279,98
767,98	1259,50
768,15	1318,89
768,33	1187,82
768,51	1296,36
768,69	1267,69
768,87	1255,40
769,04	1302,51
769,22	1275,88
769,40	1290,22
769,58	1282,03
769,75	1232,88
769,93	1277,93
770,11	1249,26
770,28	1279,98
770,46	1316,84
770,64	1239,02
770,82	1239,02
770,99	1232,88
771,17	1261,55
771,35	1222,64
771,53	1277,93
771,70	1269,74
771,88	1310,70
772,06	1282,03
772,23	1351,66
772,41	1251,31
772,59	1290,22
772,77	1275,88
772,94	1314,80
773,12	1253,36
773,30	1198,06
773,47	1286,12
773,65	1232,88
773,83	1269,74
774,01	1230,83
774,18	1257,45
774,36	1312,75
774,54	1224,69
774,71	1298,41
774,89	1325,04
775,07	1335,28
775,24	1306,60
775,42	1214,45
775,60	1282,03
775,78	1261,55
775,95	1271,79
776,13	1210,35
776,31	1230,83
776,48	1255,40
776,66	1279,98
776,84	1275,88
777,01	1193,97
777,19	1263,60
777,37	1304,56
777,54	1222,64
777,72	1232,88
777,90	1366,00
778,07	1206,25
778,25	1245,16
778,43	1294,32
778,60	1253,36
778,78	1273,84
778,96	1243,12
779,13	1271,79
779,31	1253,36
779,49	1409,00
779,66	1368,04
779,84	1284,08
780,01	1226,73
780,19	1232,88
780,37	1232,88
780,54	1290,22
780,72	1253,36
780,90	1255,40
781,07	1247,21
781,25	1208,30
781,43	1249,26
781,60	1306,60
781,78	1243,12
781,95	1255,40
782,13	1263,60
782,31	1290,22
782,48	1224,69
782,66	1232,88
782,83	1320,94
783,01	1218,54
783,19	1263,60
783,36	1277,93
783,54	1255,40
783,72	1261,55
783,89	1253,36
784,07	1277,93
784,24	1236,97
784,42	1177,58
784,60	1282,03
784,77	1259,50
784,95	1304,56
785,12	1226,73
785,30	1267,69
785,47	1226,73
785,65	1214,45
785,83	1232,88
786,00	1212,40
786,18	1271,79
786,35	1263,60
786,53	1269,74
786,71	1183,73
786,88	1239,02
787,06	1271,79
787,23	1187,82
787,41	1236,97
787,58	1241,07
787,76	1130,48
787,94	1222,64
788,11	1322,99
788,29	1251,31
788,46	1212,40
788,64	1300,46
788,81	1302,51
788,99	1263,60
789,16	1282,03
789,34	1320,94
789,52	1222,64
789,69	1288,17
789,87	1226,73
790,04	1288,17
790,22	1277,93
790,39	1224,69
790,57	1322,99
790,74	1265,64
790,92	1265,64
791,09	1314,80
791,27	1265,64
791,44	1298,41
791,62	1255,40
791,79	1179,63
791,97	1290,22
792,15	1247,21
792,32	1236,97
792,50	1245,16
792,67	1337,32
792,85	1314,80
793,02	1275,88
793,20	1241,07
793,37	1263,60
793,55	1210,35
793,72	1327,08
793,90	1312,75
794,07	1241,07
794,25	1241,07
794,42	1275,88
794,60	1306,60
794,77	1230,83
794,95	1261,55
795,12	1220,59
795,30	1304,56
795,47	1189,87
795,65	1288,17
795,82	1218,54
796,00	1212,40
796,17	1208,30
796,34	1327,08
796,52	1304,56
796,69	1296,36
796,87	1249,26
797,04	1234,93
797,22	1290,22
797,39	1210,35
797,57	1259,50
797,74	1363,95
797,92	1265,64
798,09	1261,55
798,27	1216,49
798,44	1236,97
798,62	1267,69
798,79	1273,84
798,96	1171,44
799,14	1312,75
799,31	1277,93
799,49	1269,74
799,66	1363,95
799,84	1271,79
800,01	1251,31
800,19	1263,60
800,36	1292,27
800,53	1257,45
800,71	1302,51
800,88	1267,69
801,06	1241,07
801,23	1329,13
801,41	1282,03
801,58	1196,01
801,75	1253,36
801,93	1279,98
802,10	1247,21
802,28	1249,26
802,45	1204,21
802,63	1308,65
802,80	1263,60
802,97	1284,08
803,15	1273,84
803,32	1206,25
803,50	1284,08
803,67	1245,16
803,84	1232,88
804,02	1167,34
804,19	1314,80
804,37	1279,98
804,54	1208,30
804,71	1269,74
804,89	1304,56
805,06	1202,16
805,24	1310,70
805,41	1329,13
805,58	1302,51
805,76	1273,84
805,93	1267,69
806,10	1265,64
806,28	1302,51
806,45	1196,01
806,63	1247,21
806,80	1298,41
806,97	1232,88
807,15	1275,88
807,32	1282,03
807,49	1286,12
807,67	1294,32
807,84	1214,45
808,01	1232,88
808,19	1232,88
808,36	1263,60
808,54	1263,60
808,71	1288,17
808,88	1275,88
809,06	1308,65
809,23	1277,93
809,40	1206,25
809,58	1243,12
809,75	1273,84
809,92	1298,41
810,10	1267,69
810,27	1257,45
810,44	1255,40
810,62	1216,49
810,79	1249,26
810,96	1314,80
811,14	1234,93
811,31	1257,45
811,48	1290,22
811,66	1239,02
811,83	1277,93
812,00	1239,02
812,18	1224,69
812,35	1273,84
812,52	1247,21
812,69	1290,22
812,87	1294,32
813,04	1308,65
813,21	1298,41
813,39	1290,22
813,56	1288,17
813,73	1216,49
813,91	1232,88
814,08	1279,98
814,25	1322,99
814,42	1263,60
814,60	1300,46
814,77	1216,49
814,94	1275,88
815,12	1247,21
815,29	1241,07
815,46	1232,88
815,63	1265,64
815,81	1265,64
815,98	1306,60
816,15	1275,88
816,33	1193,97
816,50	1306,60
816,67	1249,26
816,84	1277,93
817,02	1251,31
817,19	1300,46
817,36	1210,35
817,53	1249,26
817,71	1327,08
817,88	1257,45
818,05	1245,16
818,22	1236,97
818,40	1202,16
818,57	1220,59
818,74	1275,88
818,91	1253,36
819,09	1386,47
819,26	1255,40
819,43	1318,89
819,60	1251,31
819,78	1275,88
819,95	1298,41
820,12	1261,55
820,29	1316,84
820,47	1292,27
820,64	1284,08
820,81	1290,22
820,98	1249,26
821,15	1234,93
821,33	1292,27
821,50	1308,65
821,67	1202,16
821,84	1245,16
822,02	1239,02
822,19	1200,11
822,36	1239,02
822,53	1230,83
822,70	1322,99
822,88	1327,08
823,05	1236,97
823,22	1290,22
823,39	1202,16
823,56	1214,45
823,74	1265,64
823,91	1284,08
824,08	1187,82
824,25	1271,79
824,42	1269,74
824,60	1224,69
824,77	1277,93
824,94	1335,28
825,11	1204,21
825,28	1277,93
825,45	1292,27
825,63	1249,26
825,80	1279,98
825,97	1292,27
826,14	1232,88
826,31	1310,70
826,48	1290,22
826,66	1189,87
826,83	1216,49
827,00	1288,17
827,17	1234,93
827,34	1257,45
827,51	1222,64
827,69	1255,40
827,86	1214,45
828,03	1257,45
828,20	1296,36
828,37	1267,69
828,54	1275,88
828,71	1214,45
828,89	1239,02
829,06	1265,64
829,23	1247,21
829,40	1277,93
829,57	1288,17
829,74	1261,55
829,91	1265,64
830,09	1294,32
830,26	1241,07
830,43	1267,69
830,60	1232,88
830,77	1239,02
830,94	1196,01
831,11	1288,17
831,28	1265,64
831,46	1345,52
831,63	1234,93
831,80	1265,64
831,97	1193,97
832,14	1239,02
832,31	1257,45
832,48	1282,03
832,65	1255,40
832,82	1282,03
832,99	1273,84
833,17	1251,31
833,34	1257,45
833,51	1224,69
833,68	1185,77
833,85	1302,51
834,02	1247,21
834,19	1316,84
834,36	1220,59
834,53	1273,84
834,70	1335,28
834,87	1236,97
835,04	1284,08
835,22	1249,26
835,39	1175,53
835,56	1273,84
835,73	1214,45
835,90	1267,69
836,07	1263,60
836,24	1251,31
836,41	1181,68
836,58	1277,93
836,75	1259,50
836,92	1234,93
837,09	1251,31
837,26	1282,03
837,43	1273,84
837,60	1306,60
837,77	1257,45
837,94	1310,70
838,12	1292,27
838,29	1263,60
838,46	1298,41
838,63	1325,04
838,80	1271,79
838,97	1232,88
839,14	1294,32
839,31	1255,40
839,48	1214,45
839,65	1306,60
839,82	1202,16
839,99	1282,03
840,16	1277,93
840,33	1249,26
840,50	1320,94
840,67	1306,60
840,84	1253,36
841,01	1288,17
841,18	1234,93
841,35	1263,60
841,52	1275,88
841,69	1296,36
841,86	1300,46
842,03	1236,97
842,20	1290,22
842,37	1292,27
842,54	1220,59
842,71	1322,99
842,88	1269,74
843,05	1253,36
843,22	1247,21
843,39	1265,64
843,56	1239,02
843,73	1212,40
843,90	1298,41
844,07	1261,55
844,24	1198,06
844,41	1265,64
844,58	1298,41
844,75	1304,56
844,92	1261,55
845,09	1228,78
845,26	1271,79
845,43	1226,73
845,60	1249,26
845,77	1253,36
845,94	1261,55
846,10	1216,49
846,27	1372,14
846,44	1257,45
846,61	1275,88
846,78	1282,03
846,95	1282,03
847,12	1228,78
847,29	1247,21
847,46	1228,78
847,63	1202,16
847,80	1306,60
847,97	1271,79
848,14	1318,89
848,31	1288,17
848,48	1251,31
848,65	1298,41
848,82	1222,64
848,98	1279,98
849,15	1275,88
849,32	1255,40
849,49	1210,35
849,66	1271,79
849,83	1222,64
850,00	1259,50
850,17	1345,52
850,34	1261,55
850,51	1249,26
850,68	1261,55
850,85	1239,02
851,01	1290,22
851,18	1243,12
851,35	1290,22
851,52	1249,26
851,69	1267,69
851,86	1247,21
852,03	1230,83
852,20	1230,83
852,37	1269,74
852,53	1265,64
852,70	1265,64
852,87	1232,88
853,04	1218,54
853,21	1249,26
853,38	1325,04
853,55	1253,36
853,72	1312,75
853,89	1232,88
854,05	1245,16
854,22	1179,63
854,39	1271,79
854,56	1232,88
854,73	1230,83
854,90	1316,84
855,07	1374,19
855,23	1234,93
855,40	1271,79
855,57	1318,89
855,74	1241,07
855,91	1259,50
856,08	1191,92
856,25	1282,03
856,41	1241,07
856,58	1236,97
856,75	1228,78
856,92	1312,75
857,09	1261,55
857,26	1239,02
857,42	1241,07
857,59	1228,78
857,76	1273,84
857,93	1261,55
858,10	1265,64
858,27	1269,74
858,43	1208,30
858,60	1310,70
858,77	1230,83
858,94	1234,93
859,11	1228,78
859,27	1222,64
859,44	1308,65
859,61	1265,64
859,78	1257,45
859,95	1261,55
860,12	1193,97
860,28	1261,55
860,45	1288,17
860,62	1163,25
860,79	1265,64
860,95	1241,07
861,12	1249,26
861,29	1302,51
861,46	1343,47
861,63	1271,79
861,79	1247,21
861,96	1239,02
862,13	1236,97
862,30	1253,36
862,47	1316,84
862,63	1290,22
862,80	1228,78
862,97	1322,99
863,14	1327,08
863,30	1247,21
863,47	1259,50
863,64	1298,41
863,81	1255,40
863,97	1265,64
864,14	1284,08
864,31	1263,60
864,48	1241,07
864,65	1277,93
864,81	1241,07
864,98	1331,18
865,15	1273,84
865,32	1259,50
865,48	1239,02
865,65	1286,12
865,82	1288,17
865,98	1314,80
866,15	1269,74
866,32	1304,56
866,49	1288,17
866,65	1261,55
866,82	1308,65
866,99	1257,45
867,16	1257,45
867,32	1275,88
867,49	1265,64
867,66	1198,06
867,83	1298,41
867,99	1222,64
868,16	1298,41
868,33	1171,44
868,49	1284,08
868,66	1269,74
868,83	1329,13
868,99	1288,17
869,16	1296,36
869,33	1247,21
869,50	1277,93
869,66	1257,45
869,83	1284,08
870,00	1271,79
870,16	1247,21
870,33	1306,60
870,50	1273,84
870,66	1294,32
870,83	1263,60
871,00	1249,26
871,17	1277,93
871,33	1298,41
871,50	1277,93
871,67	1222,64
871,83	1271,79
872,00	1261,55
872,17	1271,79
872,33	1241,07
872,50	1288,17
872,67	1286,12
872,83	1234,93
873,00	1275,88
873,17	1222,64
873,33	1224,69
873,50	1208,30
873,67	1218,54
873,83	1226,73
874,00	1290,22
874,16	1296,36
874,33	1265,64
874,50	1308,65
874,66	1249,26
874,83	1267,69
875,00	1290,22
875,16	1302,51
875,33	1236,97
875,50	1286,12
875,66	1290,22
875,83	1261,55
875,99	1298,41
876,16	1224,69
876,33	1298,41
876,49	1310,70
876,66	1222,64
876,83	1255,40
876,99	1214,45
877,16	1286,12
877,32	1234,93
877,49	1226,73
877,66	1206,25
877,82	1241,07
877,99	1368,04
878,15	1253,36
878,32	1271,79
878,49	1243,12
878,65	1208,30
878,82	1325,04
878,98	1232,88
879,15	1335,28
879,32	1220,59
879,48	1300,46
879,65	1316,84
879,81	1265,64
879,98	1314,80
880,15	1241,07
880,31	1341,42
880,48	1296,36
880,64	1159,15
880,81	1288,17
880,97	1316,84
881,14	1380,33
881,31	1343,47
881,47	1282,03
881,64	1232,88
881,80	1239,02
881,97	1304,56
882,13	1243,12
882,30	1304,56
882,47	1236,97
882,63	1282,03
882,80	1359,85
882,96	1222,64
883,13	1265,64
883,29	1259,50
883,46	1320,94
883,62	1265,64
883,79	1296,36
883,95	1277,93
884,12	1202,16
884,29	1318,89
884,45	1247,21
884,62	1183,73
884,78	1302,51
884,95	1224,69
885,11	1298,41
885,28	1327,08
885,44	1284,08
885,61	1241,07
885,77	1234,93
885,94	1300,46
886,10	1253,36
886,27	1269,74
886,43	1232,88
886,60	1269,74
886,76	1234,93
886,93	1277,93
887,09	1247,21
887,26	1255,40
887,42	1292,27
887,59	1351,66
887,75	1310,70
887,92	1243,12
888,08	1206,25
888,25	1300,46
888,41	1310,70
888,58	1261,55
888,74	1265,64
888,91	1312,75
>>>>>End Processed Spectral Data<<<<<
