SpectraSuite Data File
++++++++++++++++++++++++++++++++++++
Date: Sun Apr 03 14:59:04 CEST 2016
User: root
Dark Spectrum Present: No
Reference Spectrum Present: No
Number of Sampled Component Spectra: 1
Spectrometers: USB4C02835
Integration Time (usec): 10000 (USB4C02835)
Spectra Averaged: 1 (USB4C02835)
Boxcar Smoothing: 0 (USB4C02835)
Correct for Electrical Dark: No (USB4C02835)
Strobe/Lamp Enabled: No (USB4C02835)
Correct for Detector Non-linearity: No (USB4C02835)
Correct for Stray Light: No (USB4C02835)
Number of Pixels in Processed Spectrum: 3648
>>>>>Begin Processed Spectral Data<<<<<
177,47	1169,39
177,69	1169,39
177,91	1169,39
178,13	1239,02
178,36	1224,69
178,58	1322,99
178,80	1345,52
179,02	1243,12
179,24	1273,84
179,46	1316,84
179,68	1271,79
179,90	1243,12
180,13	1236,97
180,35	1239,02
180,57	1279,98
180,79	1288,17
181,01	1255,40
181,23	1263,60
181,45	1255,40
181,67	1251,31
181,90	1247,21
182,12	1232,88
182,34	1253,36
182,56	1286,12
182,78	1232,88
183,00	1282,03
183,22	1263,60
183,44	1222,64
183,66	1318,89
183,89	1222,64
184,11	1181,68
184,33	1179,63
184,55	1282,03
184,77	1300,46
184,99	1239,02
185,21	1286,12
185,43	1294,32
185,65	1236,97
185,87	1333,23
186,10	1179,63
186,32	1292,27
186,54	1335,28
186,76	1210,35
186,98	1339,37
187,20	1370,09
187,42	1232,88
187,64	1300,46
187,86	1290,22
188,08	1347,56
188,30	1302,51
188,52	1226,73
188,75	1294,32
188,97	1286,12
189,19	1335,28
189,41	1255,40
189,63	1253,36
189,85	1277,93
190,07	1282,03
190,29	1249,26
190,51	1349,61
190,73	1255,40
190,95	1312,75
191,17	1322,99
191,39	1310,70
191,61	1216,49
191,84	1222,64
192,06	1265,64
192,28	1247,21
192,50	1339,37
192,72	1294,32
192,94	1210,35
193,16	1228,78
193,38	1265,64
193,60	1279,98
193,82	1331,18
194,04	1224,69
194,26	1286,12
194,48	1255,40
194,70	1236,97
194,92	1286,12
195,14	1224,69
195,36	1292,27
195,58	1296,36
195,80	1200,11
196,02	1314,80
196,24	1179,63
196,46	1241,07
196,69	1265,64
196,91	1271,79
197,13	1265,64
197,35	1232,88
197,57	1255,40
197,79	1318,89
198,01	1322,99
198,23	1269,74
198,45	1335,28
198,67	1265,64
198,89	1212,40
199,11	1314,80
199,33	1302,51
199,55	1312,75
199,77	1337,32
199,99	1224,69
200,21	1247,21
200,43	1259,50
200,65	1255,40
200,87	1257,45
201,09	1339,37
201,31	1236,97
201,53	1304,56
201,75	1306,60
201,97	1212,40
202,19	1298,41
202,41	1292,27
202,63	1271,79
202,85	1333,23
203,07	1273,84
203,29	1277,93
203,51	1216,49
203,73	1245,16
203,95	1318,89
204,17	1308,65
204,39	1329,13
204,61	1273,84
204,83	1249,26
205,05	1228,78
205,27	1279,98
205,49	1257,45
205,71	1241,07
205,93	1234,93
206,15	1314,80
206,37	1257,45
206,59	1271,79
206,81	1245,16
207,03	1277,93
207,25	1269,74
207,47	1214,45
207,69	1316,84
207,91	1302,51
208,13	1288,17
208,34	1212,40
208,56	1251,31
208,78	1273,84
209,00	1239,02
209,22	1251,31
209,44	1245,16
209,66	1316,84
209,88	1312,75
210,10	1318,89
210,32	1279,98
210,54	1316,84
210,76	1288,17
210,98	1269,74
211,20	1271,79
211,42	1202,16
211,64	1224,69
211,86	1267,69
212,08	1363,95
212,30	1245,16
212,52	1300,46
212,74	1322,99
212,96	1251,31
213,17	1251,31
213,39	1230,83
213,61	1292,27
213,83	1253,36
214,05	1267,69
214,27	1171,44
214,49	1241,07
214,71	1304,56
214,93	1343,47
215,15	1257,45
215,37	1204,21
215,59	1312,75
215,81	1259,50
216,03	1269,74
216,24	1249,26
216,46	1245,16
216,68	1310,70
216,90	1193,97
217,12	1236,97
217,34	1261,55
217,56	1247,21
217,78	1232,88
218,00	1261,55
218,22	1241,07
218,44	1282,03
218,66	1226,73
218,87	1275,88
219,09	1249,26
219,31	1286,12
219,53	1292,27
219,75	1253,36
219,97	1292,27
220,19	1245,16
220,41	1316,84
220,63	1327,08
220,85	1265,64
221,06	1277,93
221,28	1259,50
221,50	1277,93
221,72	1214,45
221,94	1267,69
222,16	1148,91
222,38	1296,36
222,60	1318,89
222,82	1306,60
223,03	1257,45
223,25	1329,13
223,47	1247,21
223,69	1322,99
223,91	1277,93
224,13	1224,69
224,35	1314,80
224,57	1304,56
224,78	1337,32
225,00	1257,45
225,22	1331,18
225,44	1263,60
225,66	1277,93
225,88	1251,31
226,10	1261,55
226,32	1279,98
226,53	1230,83
226,75	1294,32
226,97	1327,08
227,19	1236,97
227,41	1243,12
227,63	1236,97
227,85	1288,17
228,06	1236,97
228,28	1314,80
228,50	1261,55
228,72	1263,60
228,94	1234,93
229,16	1257,45
229,37	1247,21
229,59	1210,35
229,81	1210,35
230,03	1191,92
230,25	1208,30
230,47	1253,36
230,69	1249,26
230,90	1239,02
231,12	1310,70
231,34	1298,41
231,56	1296,36
231,78	1267,69
232,00	1257,45
232,21	1275,88
232,43	1290,22
232,65	1294,32
232,87	1294,32
233,09	1308,65
233,30	1261,55
233,52	1308,65
233,74	1308,65
233,96	1224,69
234,18	1302,51
234,40	1230,83
234,61	1325,04
234,83	1290,22
235,05	1298,41
235,27	1253,36
235,49	1294,32
235,70	1228,78
235,92	1253,36
236,14	1296,36
236,36	1331,18
236,58	1265,64
236,79	1265,64
237,01	1296,36
237,23	1259,50
237,45	1306,60
237,67	1277,93
237,88	1249,26
238,10	1277,93
238,32	1300,46
238,54	1286,12
238,76	1218,54
238,97	1339,37
239,19	1222,64
239,41	1261,55
239,63	1236,97
239,85	1224,69
240,06	1253,36
240,28	1325,04
240,50	1230,83
240,72	1251,31
240,93	1290,22
241,15	1318,89
241,37	1327,08
241,59	1286,12
241,81	1279,98
242,02	1257,45
242,24	1306,60
242,46	1245,16
242,68	1243,12
242,89	1259,50
243,11	1239,02
243,33	1218,54
243,55	1271,79
243,76	1230,83
243,98	1286,12
244,20	1329,13
244,42	1335,28
244,64	1279,98
244,85	1308,65
245,07	1310,70
245,29	1329,13
245,51	1300,46
245,72	1243,12
245,94	1226,73
246,16	1275,88
246,38	1286,12
246,59	1257,45
246,81	1255,40
247,03	1236,97
247,24	1249,26
247,46	1228,78
247,68	1255,40
247,90	1310,70
248,11	1333,23
248,33	1310,70
248,55	1296,36
248,77	1310,70
248,98	1302,51
249,20	1275,88
249,42	1288,17
249,64	1294,32
249,85	1304,56
250,07	1269,74
250,29	1302,51
250,50	1267,69
250,72	1222,64
250,94	1271,79
251,16	1220,59
251,37	1275,88
251,59	1224,69
251,81	1253,36
252,02	1284,08
252,24	1200,11
252,46	1282,03
252,68	1220,59
252,89	1271,79
253,11	1298,41
253,33	1320,94
253,54	1314,80
253,76	1308,65
253,98	1259,50
254,20	1263,60
254,41	1325,04
254,63	1267,69
254,85	1320,94
255,06	1298,41
255,28	1310,70
255,50	1286,12
255,71	1284,08
255,93	1288,17
256,15	1239,02
256,36	1226,73
256,58	1220,59
256,80	1288,17
257,02	1296,36
257,23	1263,60
257,45	1267,69
257,67	1218,54
257,88	1273,84
258,10	1236,97
258,32	1288,17
258,53	1292,27
258,75	1255,40
258,97	1251,31
259,18	1304,56
259,40	1247,21
259,62	1310,70
259,83	1333,23
260,05	1269,74
260,27	1275,88
260,48	1241,07
260,70	1318,89
260,92	1310,70
261,13	1249,26
261,35	1282,03
261,57	1325,04
261,78	1306,60
262,00	1312,75
262,22	1300,46
262,43	1198,06
262,65	1302,51
262,86	1279,98
263,08	1243,12
263,30	1284,08
263,51	1234,93
263,73	1310,70
263,95	1234,93
264,16	1251,31
264,38	1294,32
264,60	1239,02
264,81	1267,69
265,03	1269,74
265,25	1308,65
265,46	1294,32
265,68	1322,99
265,89	1271,79
266,11	1277,93
266,33	1249,26
266,54	1253,36
266,76	1249,26
266,98	1318,89
267,19	1304,56
267,41	1191,92
267,62	1271,79
267,84	1247,21
268,06	1308,65
268,27	1288,17
268,49	1279,98
268,70	1349,61
268,92	1255,40
269,14	1243,12
269,35	1353,71
269,57	1247,21
269,79	1226,73
270,00	1263,60
270,22	1304,56
270,43	1251,31
270,65	1241,07
270,87	1226,73
271,08	1261,55
271,30	1345,52
271,51	1232,88
271,73	1331,18
271,95	1216,49
272,16	1206,25
272,38	1290,22
272,59	1247,21
272,81	1331,18
273,02	1279,98
273,24	1255,40
273,46	1259,50
273,67	1333,23
273,89	1212,40
274,10	1232,88
274,32	1236,97
274,54	1249,26
274,75	1247,21
274,97	1220,59
275,18	1218,54
275,40	1236,97
275,61	1239,02
275,83	1273,84
276,05	1255,40
276,26	1275,88
276,48	1290,22
276,69	1224,69
276,91	1257,45
277,12	1282,03
277,34	1212,40
277,55	1249,26
277,77	1255,40
277,99	1271,79
278,20	1253,36
278,42	1257,45
278,63	1216,49
278,85	1282,03
279,06	1269,74
279,28	1359,85
279,49	1314,80
279,71	1239,02
279,93	1298,41
280,14	1306,60
280,36	1253,36
280,57	1247,21
280,79	1153,01
281,00	1273,84
281,22	1300,46
281,43	1312,75
281,65	1298,41
281,86	1292,27
282,08	1247,21
282,29	1302,51
282,51	1232,88
282,73	1243,12
282,94	1322,99
283,16	1316,84
283,37	1288,17
283,59	1239,02
283,80	1214,45
284,02	1210,35
284,23	1257,45
284,45	1232,88
284,66	1308,65
284,88	1273,84
285,09	1282,03
285,31	1222,64
285,52	1253,36
285,74	1257,45
285,95	1249,26
286,17	1263,60
286,38	1220,59
286,60	1318,89
286,81	1341,42
287,03	1298,41
287,24	1308,65
287,46	1316,84
287,67	1343,47
287,89	1298,41
288,10	1335,28
288,32	1267,69
288,53	1239,02
288,75	1329,13
288,96	1261,55
289,18	1216,49
289,39	1279,98
289,61	1316,84
289,82	1320,94
290,04	1267,69
290,25	1265,64
290,47	1298,41
290,68	1257,45
290,90	1191,92
291,11	1279,98
291,33	1271,79
291,54	1210,35
291,76	1275,88
291,97	1286,12
292,18	1288,17
292,40	1331,18
292,61	1320,94
292,83	1249,26
293,04	1288,17
293,26	1294,32
293,47	1331,18
293,69	1255,40
293,90	1245,16
294,12	1267,69
294,33	1257,45
294,55	1288,17
294,76	1296,36
294,97	1271,79
295,19	1288,17
295,40	1202,16
295,62	1298,41
295,83	1251,31
296,05	1241,07
296,26	1200,11
296,48	1282,03
296,69	1304,56
296,90	1261,55
297,12	1261,55
297,33	1228,78
297,55	1220,59
297,76	1335,28
297,98	1249,26
298,19	1228,78
298,41	1279,98
298,62	1288,17
298,83	1316,84
299,05	1329,13
299,26	1249,26
299,48	1316,84
299,69	1243,12
299,90	1282,03
300,12	1314,80
300,33	1298,41
300,55	1216,49
300,76	1284,08
300,98	1234,93
301,19	1255,40
301,40	1292,27
301,62	1290,22
301,83	1304,56
302,05	1304,56
302,26	1269,74
302,47	1337,32
302,69	1261,55
302,90	1359,85
303,12	1294,32
303,33	1269,74
303,54	1298,41
303,76	1277,93
303,97	1234,93
304,19	1269,74
304,40	1214,45
304,61	1185,77
304,83	1226,73
305,04	1228,78
305,26	1267,69
305,47	1257,45
305,68	1288,17
305,90	1236,97
306,11	1243,12
306,33	1294,32
306,54	1247,21
306,75	1253,36
306,97	1243,12
307,18	1259,50
307,39	1214,45
307,61	1263,60
307,82	1259,50
308,04	1263,60
308,25	1189,87
308,46	1265,64
308,68	1251,31
308,89	1282,03
309,10	1300,46
309,32	1243,12
309,53	1284,08
309,74	1310,70
309,96	1288,17
310,17	1269,74
310,39	1257,45
310,60	1243,12
310,81	1255,40
311,03	1318,89
311,24	1286,12
311,45	1302,51
311,67	1259,50
311,88	1322,99
312,09	1228,78
312,31	1263,60
312,52	1327,08
312,73	1263,60
312,95	1249,26
313,16	1239,02
313,37	1271,79
313,59	1296,36
313,80	1282,03
314,01	1353,71
314,23	1292,27
314,44	1261,55
314,65	1267,69
314,87	1300,46
315,08	1224,69
315,29	1277,93
315,51	1292,27
315,72	1277,93
315,93	1316,84
316,15	1290,22
316,36	1269,74
316,57	1310,70
316,79	1361,90
317,00	1267,69
317,21	1263,60
317,43	1259,50
317,64	1202,16
317,85	1236,97
318,07	1245,16
318,28	1257,45
318,49	1306,60
318,70	1304,56
318,92	1255,40
319,13	1284,08
319,34	1263,60
319,56	1273,84
319,77	1210,35
319,98	1226,73
320,20	1253,36
320,41	1273,84
320,62	1290,22
320,83	1282,03
321,05	1253,36
321,26	1247,21
321,47	1290,22
321,69	1290,22
321,90	1245,16
322,11	1304,56
322,32	1243,12
322,54	1138,67
322,75	1255,40
322,96	1296,36
323,18	1290,22
323,39	1298,41
323,60	1196,01
323,81	1265,64
324,03	1347,56
324,24	1329,13
324,45	1269,74
324,66	1279,98
324,88	1327,08
325,09	1325,04
325,30	1308,65
325,52	1282,03
325,73	1169,39
325,94	1241,07
326,15	1300,46
326,37	1316,84
326,58	1314,80
326,79	1255,40
327,00	1234,93
327,22	1273,84
327,43	1296,36
327,64	1343,47
327,85	1304,56
328,07	1247,21
328,28	1253,36
328,49	1232,88
328,70	1284,08
328,92	1286,12
329,13	1304,56
329,34	1312,75
329,55	1292,27
329,76	1236,97
329,98	1216,49
330,19	1263,60
330,40	1236,97
330,61	1271,79
330,83	1245,16
331,04	1312,75
331,25	1302,51
331,46	1312,75
331,68	1247,21
331,89	1271,79
332,10	1202,16
332,31	1253,36
332,52	1210,35
332,74	1322,99
332,95	1333,23
333,16	1279,98
333,37	1329,13
333,58	1275,88
333,80	1265,64
334,01	1257,45
334,22	1314,80
334,43	1284,08
334,64	1204,21
334,86	1269,74
335,07	1308,65
335,28	1306,60
335,49	1191,92
335,70	1316,84
335,92	1322,99
336,13	1265,64
336,34	1318,89
336,55	1273,84
336,76	1236,97
336,98	1257,45
337,19	1298,41
337,40	1251,31
337,61	1288,17
337,82	1263,60
338,04	1265,64
338,25	1224,69
338,46	1298,41
338,67	1249,26
338,88	1316,84
339,09	1337,32
339,31	1341,42
339,52	1282,03
339,73	1245,16
339,94	1331,18
340,15	1288,17
340,36	1284,08
340,58	1206,25
340,79	1286,12
341,00	1214,45
341,21	1304,56
341,42	1294,32
341,63	1284,08
341,85	1249,26
342,06	1298,41
342,27	1239,02
342,48	1314,80
342,69	1271,79
342,90	1275,88
343,12	1224,69
343,33	1292,27
343,54	1255,40
343,75	1298,41
343,96	1288,17
344,17	1282,03
344,38	1290,22
344,60	1288,17
344,81	1304,56
345,02	1257,45
345,23	1230,83
345,44	1308,65
345,65	1230,83
345,86	1241,07
346,07	1282,03
346,29	1282,03
346,50	1306,60
346,71	1198,06
346,92	1239,02
347,13	1312,75
347,34	1320,94
347,55	1241,07
347,76	1253,36
347,98	1318,89
348,19	1329,13
348,40	1316,84
348,61	1253,36
348,82	1304,56
349,03	1314,80
349,24	1296,36
349,45	1282,03
349,66	1208,30
349,88	1257,45
350,09	1279,98
350,30	1294,32
350,51	1284,08
350,72	1251,31
350,93	1263,60
351,14	1245,16
351,35	1300,46
351,56	1302,51
351,77	1308,65
351,99	1316,84
352,20	1300,46
352,41	1320,94
352,62	1196,01
352,83	1302,51
353,04	1257,45
353,25	1292,27
353,46	1279,98
353,67	1318,89
353,88	1257,45
354,09	1286,12
354,30	1249,26
354,52	1206,25
354,73	1273,84
354,94	1306,60
355,15	1175,53
355,36	1351,66
355,57	1271,79
355,78	1175,53
355,99	1243,12
356,20	1247,21
356,41	1292,27
356,62	1228,78
356,83	1185,77
357,04	1245,16
357,25	1245,16
357,46	1316,84
357,68	1165,29
357,89	1271,79
358,10	1339,37
358,31	1277,93
358,52	1206,25
358,73	1286,12
358,94	1245,16
359,15	1259,50
359,36	1232,88
359,57	1300,46
359,78	1241,07
359,99	1296,36
360,20	1251,31
360,41	1320,94
360,62	1222,64
360,83	1300,46
361,04	1261,55
361,25	1259,50
361,46	1310,70
361,67	1322,99
361,88	1275,88
362,09	1214,45
362,30	1351,66
362,51	1316,84
362,72	1267,69
362,93	1366,00
363,14	1322,99
363,35	1261,55
363,56	1284,08
363,78	1282,03
363,99	1298,41
364,20	1236,97
364,41	1249,26
364,62	1257,45
364,83	1298,41
365,04	1304,56
365,25	1298,41
365,46	1286,12
365,67	1239,02
365,88	1292,27
366,09	1253,36
366,30	1247,21
366,51	1196,01
366,72	1288,17
366,93	1277,93
367,14	1269,74
367,35	1241,07
367,56	1212,40
367,77	1392,62
367,98	1253,36
368,18	1269,74
368,39	1284,08
368,60	1277,93
368,81	1292,27
369,02	1208,30
369,23	1243,12
369,44	1271,79
369,65	1294,32
369,86	1290,22
370,07	1253,36
370,28	1339,37
370,49	1216,49
370,70	1255,40
370,91	1167,34
371,12	1241,07
371,33	1247,21
371,54	1296,36
371,75	1210,35
371,96	1239,02
372,17	1232,88
372,38	1277,93
372,59	1189,87
372,80	1232,88
373,01	1234,93
373,22	1345,52
373,43	1259,50
373,64	1241,07
373,85	1234,93
374,06	1282,03
374,26	1257,45
374,47	1259,50
374,68	1366,00
374,89	1284,08
375,10	1300,46
375,31	1310,70
375,52	1300,46
375,73	1353,71
375,94	1243,12
376,15	1304,56
376,36	1271,79
376,57	1239,02
376,78	1273,84
376,99	1286,12
377,20	1286,12
377,40	1284,08
377,61	1230,83
377,82	1277,93
378,03	1255,40
378,24	1349,61
378,45	1304,56
378,66	1255,40
378,87	1257,45
379,08	1228,78
379,29	1269,74
379,50	1249,26
379,71	1247,21
379,91	1284,08
380,12	1269,74
380,33	1304,56
380,54	1279,98
380,75	1273,84
380,96	1339,37
381,17	1241,07
381,38	1241,07
381,59	1239,02
381,80	1251,31
382,00	1302,51
382,21	1275,88
382,42	1290,22
382,63	1251,31
382,84	1224,69
383,05	1284,08
383,26	1292,27
383,47	1335,28
383,68	1198,06
383,88	1275,88
384,09	1322,99
384,30	1243,12
384,51	1325,04
384,72	1296,36
384,93	1234,93
385,14	1243,12
385,35	1302,51
385,55	1245,16
385,76	1306,60
385,97	1292,27
386,18	1279,98
386,39	1208,30
386,60	1290,22
386,81	1210,35
387,02	1216,49
387,22	1353,71
387,43	1325,04
387,64	1292,27
387,85	1263,60
388,06	1273,84
388,27	1282,03
388,48	1271,79
388,68	1286,12
388,89	1275,88
389,10	1222,64
389,31	1251,31
389,52	1216,49
389,73	1292,27
389,93	1310,70
390,14	1298,41
390,35	1257,45
390,56	1331,18
390,77	1298,41
390,98	1245,16
391,18	1353,71
391,39	1263,60
391,60	1259,50
391,81	1222,64
392,02	1232,88
392,23	1318,89
392,43	1310,70
392,64	1282,03
392,85	1286,12
393,06	1286,12
393,27	1308,65
393,47	1300,46
393,68	1226,73
393,89	1277,93
394,10	1267,69
394,31	1234,93
394,52	1249,26
394,72	1284,08
394,93	1282,03
395,14	1314,80
395,35	1322,99
395,56	1247,21
395,76	1226,73
395,97	1253,36
396,18	1206,25
396,39	1261,55
396,60	1224,69
396,80	1255,40
397,01	1259,50
397,22	1261,55
397,43	1263,60
397,64	1312,75
397,84	1273,84
398,05	1284,08
398,26	1316,84
398,47	1275,88
398,67	1345,52
398,88	1263,60
399,09	1316,84
399,30	1226,73
399,51	1314,80
399,71	1292,27
399,92	1277,93
400,13	1286,12
400,34	1222,64
400,54	1247,21
400,75	1265,64
400,96	1230,83
401,17	1302,51
401,37	1273,84
401,58	1253,36
401,79	1263,60
402,00	1269,74
402,21	1245,16
402,41	1265,64
402,62	1290,22
402,83	1273,84
403,04	1218,54
403,24	1241,07
403,45	1257,45
403,66	1249,26
403,87	1255,40
404,07	1284,08
404,28	1261,55
404,49	1265,64
404,70	1310,70
404,90	1263,60
405,11	1263,60
405,32	1298,41
405,52	1241,07
405,73	1294,32
405,94	1296,36
406,15	1261,55
406,35	1273,84
406,56	1230,83
406,77	1329,13
406,98	1308,65
407,18	1210,35
407,39	1261,55
407,60	1269,74
407,80	1226,73
408,01	1204,21
408,22	1273,84
408,43	1290,22
408,63	1351,66
408,84	1202,16
409,05	1279,98
409,25	1288,17
409,46	1353,71
409,67	1220,59
409,88	1273,84
410,08	1271,79
410,29	1370,09
410,50	1275,88
410,70	1243,12
410,91	1247,21
411,12	1290,22
411,32	1306,60
411,53	1220,59
411,74	1300,46
411,95	1327,08
412,15	1212,40
412,36	1230,83
412,57	1196,01
412,77	1236,97
412,98	1331,18
413,19	1249,26
413,39	1277,93
413,60	1265,64
413,81	1255,40
414,01	1304,56
414,22	1228,78
414,43	1349,61
414,63	1302,51
414,84	1261,55
415,05	1222,64
415,25	1251,31
415,46	1220,59
415,67	1247,21
415,87	1253,36
416,08	1220,59
416,29	1316,84
416,49	1294,32
416,70	1232,88
416,91	1357,80
417,11	1210,35
417,32	1236,97
417,53	1259,50
417,73	1329,13
417,94	1241,07
418,15	1259,50
418,35	1300,46
418,56	1257,45
418,77	1273,84
418,97	1282,03
419,18	1292,27
419,38	1282,03
419,59	1322,99
419,80	1275,88
420,00	1275,88
420,21	1304,56
420,42	1286,12
420,62	1308,65
420,83	1249,26
421,04	1255,40
421,24	1296,36
421,45	1265,64
421,65	1212,40
421,86	1271,79
422,07	1220,59
422,27	1267,69
422,48	1263,60
422,69	1277,93
422,89	1247,21
423,10	1259,50
423,30	1245,16
423,51	1263,60
423,72	1294,32
423,92	1257,45
424,13	1304,56
424,33	1243,12
424,54	1245,16
424,75	1275,88
424,95	1325,04
425,16	1322,99
425,36	1292,27
425,57	1275,88
425,78	1271,79
425,98	1273,84
426,19	1277,93
426,39	1284,08
426,60	1265,64
426,81	1310,70
427,01	1220,59
427,22	1267,69
427,42	1288,17
427,63	1277,93
427,83	1206,25
428,04	1263,60
428,25	1241,07
428,45	1327,08
428,66	1314,80
428,86	1292,27
429,07	1275,88
429,28	1230,83
429,48	1253,36
429,69	1294,32
429,89	1275,88
430,10	1294,32
430,30	1251,31
430,51	1279,98
430,71	1236,97
430,92	1249,26
431,13	1228,78
431,33	1370,09
431,54	1304,56
431,74	1261,55
431,95	1265,64
432,15	1218,54
432,36	1306,60
432,56	1314,80
432,77	1282,03
432,98	1212,40
433,18	1333,23
433,39	1282,03
433,59	1261,55
433,80	1312,75
434,00	1259,50
434,21	1306,60
434,41	1265,64
434,62	1300,46
434,82	1222,64
435,03	1224,69
435,23	1214,45
435,44	1306,60
435,64	1226,73
435,85	1249,26
436,06	1282,03
436,26	1284,08
436,47	1302,51
436,67	1302,51
436,88	1284,08
437,08	1302,51
437,29	1286,12
437,49	1284,08
437,70	1282,03
437,90	1206,25
438,11	1206,25
438,31	1269,74
438,52	1222,64
438,72	1288,17
438,93	1279,98
439,13	1300,46
439,34	1290,22
439,54	1245,16
439,75	1265,64
439,95	1267,69
440,16	1224,69
440,36	1296,36
440,57	1226,73
440,77	1259,50
440,98	1236,97
441,18	1320,94
441,39	1300,46
441,59	1236,97
441,80	1271,79
442,00	1245,16
442,21	1314,80
442,41	1273,84
442,62	1337,32
442,82	1273,84
443,02	1200,11
443,23	1263,60
443,43	1290,22
443,64	1304,56
443,84	1302,51
444,05	1288,17
444,25	1343,47
444,46	1255,40
444,66	1243,12
444,87	1249,26
445,07	1226,73
445,28	1263,60
445,48	1357,80
445,69	1284,08
445,89	1263,60
446,09	1312,75
446,30	1277,93
446,50	1286,12
446,71	1222,64
446,91	1306,60
447,12	1208,30
447,32	1265,64
447,53	1269,74
447,73	1245,16
447,93	1304,56
448,14	1259,50
448,34	1310,70
448,55	1269,74
448,75	1259,50
448,96	1304,56
449,16	1261,55
449,36	1322,99
449,57	1220,59
449,77	1275,88
449,98	1263,60
450,18	1236,97
450,39	1261,55
450,59	1249,26
450,79	1279,98
451,00	1249,26
451,20	1290,22
451,41	1255,40
451,61	1218,54
451,81	1241,07
452,02	1247,21
452,22	1271,79
452,43	1261,55
452,63	1286,12
452,84	1267,69
453,04	1296,36
453,24	1265,64
453,45	1212,40
453,65	1232,88
453,86	1269,74
454,06	1347,56
454,26	1290,22
454,47	1275,88
454,67	1222,64
454,87	1306,60
455,08	1241,07
455,28	1322,99
455,49	1239,02
455,69	1196,01
455,89	1275,88
456,10	1226,73
456,30	1230,83
456,51	1251,31
456,71	1265,64
456,91	1304,56
457,12	1212,40
457,32	1271,79
457,52	1249,26
457,73	1210,35
457,93	1277,93
458,14	1253,36
458,34	1228,78
458,54	1247,21
458,75	1267,69
458,95	1241,07
459,15	1296,36
459,36	1206,25
459,56	1267,69
459,76	1255,40
459,97	1329,13
460,17	1275,88
460,37	1245,16
460,58	1273,84
460,78	1273,84
460,99	1351,66
461,19	1290,22
461,39	1204,21
461,60	1308,65
461,80	1236,97
462,00	1351,66
462,21	1202,16
462,41	1308,65
462,61	1222,64
462,82	1273,84
463,02	1314,80
463,22	1257,45
463,43	1290,22
463,63	1269,74
463,83	1290,22
464,04	1263,60
464,24	1204,21
464,44	1329,13
464,64	1249,26
464,85	1255,40
465,05	1275,88
465,25	1325,04
465,46	1243,12
465,66	1241,07
465,86	1286,12
466,07	1243,12
466,27	1265,64
466,47	1275,88
466,68	1298,41
466,88	1327,08
467,08	1210,35
467,29	1228,78
467,49	1271,79
467,69	1302,51
467,89	1286,12
468,10	1269,74
468,30	1247,21
468,50	1263,60
468,71	1239,02
468,91	1288,17
469,11	1241,07
469,31	1308,65
469,52	1349,61
469,72	1275,88
469,92	1282,03
470,13	1314,80
470,33	1208,30
470,53	1259,50
470,73	1261,55
470,94	1179,63
471,14	1179,63
471,34	1327,08
471,54	1269,74
471,75	1325,04
471,95	1257,45
472,15	1316,84
472,36	1290,22
472,56	1284,08
472,76	1263,60
472,96	1277,93
473,17	1263,60
473,37	1267,69
473,57	1292,27
473,77	1314,80
473,98	1372,14
474,18	1279,98
474,38	1265,64
474,58	1363,95
474,79	1263,60
474,99	1275,88
475,19	1249,26
475,39	1257,45
475,60	1318,89
475,80	1273,84
476,00	1279,98
476,20	1306,60
476,41	1247,21
476,61	1212,40
476,81	1312,75
477,01	1267,69
477,21	1241,07
477,42	1292,27
477,62	1292,27
477,82	1325,04
478,02	1322,99
478,23	1253,36
478,43	1216,49
478,63	1314,80
478,83	1255,40
479,03	1243,12
479,24	1200,11
479,44	1271,79
479,64	1263,60
479,84	1230,83
480,04	1261,55
480,25	1269,74
480,45	1271,79
480,65	1288,17
480,85	1202,16
481,06	1296,36
481,26	1275,88
481,46	1259,50
481,66	1314,80
481,86	1271,79
482,06	1294,32
482,27	1318,89
482,47	1236,97
482,67	1288,17
482,87	1298,41
483,07	1279,98
483,28	1224,69
483,48	1269,74
483,68	1314,80
483,88	1191,92
484,08	1273,84
484,29	1253,36
484,49	1310,70
484,69	1288,17
484,89	1335,28
485,09	1271,79
485,29	1290,22
485,50	1208,30
485,70	1273,84
485,90	1288,17
486,10	1300,46
486,30	1271,79
486,50	1251,31
486,71	1261,55
486,91	1331,18
487,11	1318,89
487,31	1220,59
487,51	1320,94
487,71	1304,56
487,91	1355,76
488,12	1257,45
488,32	1265,64
488,52	1200,11
488,72	1290,22
488,92	1212,40
489,12	1294,32
489,32	1251,31
489,53	1273,84
489,73	1294,32
489,93	1374,19
490,13	1294,32
490,33	1279,98
490,53	1279,98
490,73	1286,12
490,94	1292,27
491,14	1322,99
491,34	1304,56
491,54	1255,40
491,74	1251,31
491,94	1273,84
492,14	1253,36
492,34	1271,79
492,54	1247,21
492,75	1302,51
492,95	1294,32
493,15	1300,46
493,35	1292,27
493,55	1267,69
493,75	1253,36
493,95	1329,13
494,15	1298,41
494,35	1308,65
494,56	1288,17
494,76	1275,88
494,96	1294,32
495,16	1271,79
495,36	1298,41
495,56	1259,50
495,76	1239,02
495,96	1298,41
496,16	1277,93
496,36	1290,22
496,56	1220,59
496,77	1269,74
496,97	1325,04
497,17	1230,83
497,37	1322,99
497,57	1263,60
497,77	1257,45
497,97	1198,06
498,17	1300,46
498,37	1320,94
498,57	1234,93
498,77	1282,03
498,97	1228,78
499,17	1265,64
499,38	1196,01
499,58	1318,89
499,78	1253,36
499,98	1286,12
500,18	1257,45
500,38	1216,49
500,58	1290,22
500,78	1302,51
500,98	1294,32
501,18	1345,52
501,38	1282,03
501,58	1325,04
501,78	1273,84
501,98	1296,36
502,18	1277,93
502,38	1331,18
502,58	1218,54
502,78	1236,97
502,98	1300,46
503,18	1251,31
503,38	1277,93
503,59	1267,69
503,79	1304,56
503,99	1296,36
504,19	1230,83
504,39	1265,64
504,59	1286,12
504,79	1290,22
504,99	1269,74
505,19	1251,31
505,39	1198,06
505,59	1308,65
505,79	1236,97
505,99	1306,60
506,19	1261,55
506,39	1288,17
506,59	1236,97
506,79	1239,02
506,99	1187,82
507,19	1288,17
507,39	1298,41
507,59	1257,45
507,79	1277,93
507,99	1279,98
508,19	1306,60
508,39	1355,76
508,59	1236,97
508,79	1282,03
508,99	1247,21
509,19	1271,79
509,39	1198,06
509,59	1298,41
509,79	1345,52
509,99	1347,56
510,19	1247,21
510,39	1357,80
510,59	1232,88
510,79	1257,45
510,99	1273,84
511,19	1359,85
511,39	1263,60
511,59	1277,93
511,79	1290,22
511,99	1290,22
512,19	1253,36
512,38	1261,55
512,58	1312,75
512,78	1277,93
512,98	1273,84
513,18	1302,51
513,38	1279,98
513,58	1292,27
513,78	1259,50
513,98	1218,54
514,18	1249,26
514,38	1333,23
514,58	1298,41
514,78	1294,32
514,98	1302,51
515,18	1294,32
515,38	1310,70
515,58	1271,79
515,78	1312,75
515,98	1228,78
516,18	1294,32
516,38	1271,79
516,57	1273,84
516,77	1259,50
516,97	1251,31
517,17	1304,56
517,37	1255,40
517,57	1277,93
517,77	1232,88
517,97	1282,03
518,17	1265,64
518,37	1271,79
518,57	1271,79
518,77	1261,55
518,97	1273,84
519,16	1259,50
519,36	1277,93
519,56	1234,93
519,76	1247,21
519,96	1288,17
520,16	1275,88
520,36	1251,31
520,56	1200,11
520,76	1265,64
520,96	1230,83
521,16	1294,32
521,35	1181,68
521,55	1279,98
521,75	1304,56
521,95	1257,45
522,15	1282,03
522,35	1236,97
522,55	1200,11
522,75	1259,50
522,95	1267,69
523,14	1216,49
523,34	1380,33
523,54	1337,32
523,74	1269,74
523,94	1296,36
524,14	1200,11
524,34	1271,79
524,54	1286,12
524,73	1306,60
524,93	1241,07
525,13	1263,60
525,33	1249,26
525,53	1282,03
525,73	1337,32
525,93	1308,65
526,13	1282,03
526,32	1275,88
526,52	1275,88
526,72	1263,60
526,92	1257,45
527,12	1273,84
527,32	1263,60
527,52	1288,17
527,71	1191,92
527,91	1296,36
528,11	1232,88
528,31	1327,08
528,51	1228,78
528,71	1363,95
528,90	1228,78
529,10	1286,12
529,30	1275,88
529,50	1222,64
529,70	1284,08
529,90	1279,98
530,09	1382,38
530,29	1208,30
530,49	1232,88
530,69	1251,31
530,89	1282,03
531,09	1325,04
531,28	1304,56
531,48	1304,56
531,68	1269,74
531,88	1327,08
532,08	1241,07
532,28	1325,04
532,47	1234,93
532,67	1290,22
532,87	1214,45
533,07	1320,94
533,27	1255,40
533,46	1253,36
533,66	1230,83
533,86	1273,84
534,06	1263,60
534,26	1232,88
534,45	1216,49
534,65	1249,26
534,85	1277,93
535,05	1282,03
535,25	1269,74
535,44	1343,47
535,64	1271,79
535,84	1224,69
536,04	1353,71
536,24	1239,02
536,43	1273,84
536,63	1296,36
536,83	1261,55
537,03	1322,99
537,22	1144,81
537,42	1243,12
537,62	1271,79
537,82	1277,93
538,02	1261,55
538,21	1241,07
538,41	1318,89
538,61	1277,93
538,81	1286,12
539,00	1220,59
539,20	1277,93
539,40	1265,64
539,60	1302,51
539,79	1257,45
539,99	1275,88
540,19	1232,88
540,39	1312,75
540,58	1173,49
540,78	1239,02
540,98	1306,60
541,18	1198,06
541,37	1294,32
541,57	1245,16
541,77	1220,59
541,97	1239,02
542,16	1146,86
542,36	1243,12
542,56	1279,98
542,76	1171,44
542,95	1290,22
543,15	1234,93
543,35	1284,08
543,54	1216,49
543,74	1236,97
543,94	1249,26
544,14	1306,60
544,33	1263,60
544,53	1267,69
544,73	1247,21
544,93	1257,45
545,12	1333,23
545,32	1255,40
545,52	1253,36
545,71	1224,69
545,91	1257,45
546,11	1265,64
546,30	1228,78
546,50	1327,08
546,70	1239,02
546,90	1198,06
547,09	1224,69
547,29	1247,21
547,49	1282,03
547,68	1343,47
547,88	1236,97
548,08	1230,83
548,27	1236,97
548,47	1234,93
548,67	1226,73
548,87	1279,98
549,06	1310,70
549,26	1206,25
549,46	1277,93
549,65	1265,64
549,85	1271,79
550,05	1357,80
550,24	1200,11
550,44	1253,36
550,64	1241,07
550,83	1255,40
551,03	1288,17
551,23	1249,26
551,42	1239,02
551,62	1226,73
551,82	1277,93
552,01	1306,60
552,21	1216,49
552,41	1196,01
552,60	1269,74
552,80	1294,32
553,00	1292,27
553,19	1316,84
553,39	1335,28
553,59	1245,16
553,78	1271,79
553,98	1292,27
554,17	1269,74
554,37	1265,64
554,57	1288,17
554,76	1247,21
554,96	1206,25
555,16	1269,74
555,35	1302,51
555,55	1263,60
555,75	1302,51
555,94	1228,78
556,14	1306,60
556,33	1279,98
556,53	1247,21
556,73	1308,65
556,92	1322,99
557,12	1308,65
557,32	1284,08
557,51	1277,93
557,71	1261,55
557,90	1257,45
558,10	1210,35
558,30	1263,60
558,49	1202,16
558,69	1189,87
558,88	1294,32
559,08	1243,12
559,28	1263,60
559,47	1277,93
559,67	1198,06
559,86	1290,22
560,06	1216,49
560,26	1232,88
560,45	1234,93
560,65	1294,32
560,84	1288,17
561,04	1273,84
561,24	1208,30
561,43	1255,40
561,63	1263,60
561,82	1341,42
562,02	1277,93
562,22	1300,46
562,41	1253,36
562,61	1241,07
562,80	1253,36
563,00	1304,56
563,19	1296,36
563,39	1181,68
563,59	1286,12
563,78	1257,45
563,98	1316,84
564,17	1249,26
564,37	1355,76
564,56	1255,40
564,76	1247,21
564,96	1284,08
565,15	1224,69
565,35	1292,27
565,54	1191,92
565,74	1282,03
565,93	1298,41
566,13	1265,64
566,32	1239,02
566,52	1284,08
566,71	1263,60
566,91	1239,02
567,11	1265,64
567,30	1277,93
567,50	1245,16
567,69	1275,88
567,89	1316,84
568,08	1228,78
568,28	1212,40
568,47	1314,80
568,67	1286,12
568,86	1263,60
569,06	1288,17
569,25	1243,12
569,45	1296,36
569,64	1331,18
569,84	1298,41
570,04	1304,56
570,23	1322,99
570,43	1255,40
570,62	1284,08
570,82	1292,27
571,01	1284,08
571,21	1318,89
571,40	1388,52
571,60	1277,93
571,79	1296,36
571,99	1288,17
572,18	1247,21
572,38	1347,56
572,57	1234,93
572,77	1249,26
572,96	1310,70
573,16	1230,83
573,35	1320,94
573,55	1347,56
573,74	1318,89
573,94	1216,49
574,13	1284,08
574,33	1236,97
574,52	1279,98
574,71	1290,22
574,91	1269,74
575,10	1294,32
575,30	1245,16
575,49	1304,56
575,69	1347,56
575,88	1232,88
576,08	1263,60
576,27	1275,88
576,47	1296,36
576,66	1300,46
576,86	1339,37
577,05	1261,55
577,25	1249,26
577,44	1263,60
577,64	1257,45
577,83	1247,21
578,02	1302,51
578,22	1241,07
578,41	1214,45
578,61	1216,49
578,80	1255,40
579,00	1243,12
579,19	1271,79
579,39	1314,80
579,58	1284,08
579,77	1331,18
579,97	1232,88
580,16	1202,16
580,36	1259,50
580,55	1222,64
580,75	1263,60
580,94	1251,31
581,13	1322,99
581,33	1228,78
581,52	1290,22
581,72	1267,69
581,91	1206,25
582,11	1306,60
582,30	1318,89
582,49	1320,94
582,69	1261,55
582,88	1325,04
583,08	1298,41
583,27	1253,36
583,47	1210,35
583,66	1265,64
583,85	1218,54
584,05	1230,83
584,24	1218,54
584,44	1239,02
584,63	1265,64
584,82	1300,46
585,02	1251,31
585,21	1322,99
585,41	1314,80
585,60	1273,84
585,79	1218,54
585,99	1298,41
586,18	1253,36
586,37	1292,27
586,57	1275,88
586,76	1312,75
586,96	1208,30
587,15	1230,83
587,34	1296,36
587,54	1216,49
587,73	1253,36
587,93	1251,31
588,12	1292,27
588,31	1320,94
588,51	1298,41
588,70	1290,22
588,89	1271,79
589,09	1265,64
589,28	1228,78
589,47	1267,69
589,67	1284,08
589,86	1282,03
590,06	1292,27
590,25	1253,36
590,44	1257,45
590,64	1220,59
590,83	1269,74
591,02	1232,88
591,22	1294,32
591,41	1286,12
591,60	1282,03
591,80	1370,09
591,99	1312,75
592,18	1243,12
592,38	1222,64
592,57	1204,21
592,76	1232,88
592,96	1257,45
593,15	1228,78
593,34	1208,30
593,54	1302,51
593,73	1277,93
593,92	1234,93
594,12	1312,75
594,31	1322,99
594,50	1253,36
594,70	1204,21
594,89	1279,98
595,08	1312,75
595,28	1282,03
595,47	1253,36
595,66	1251,31
595,86	1271,79
596,05	1269,74
596,24	1265,64
596,43	1339,37
596,63	1282,03
596,82	1224,69
597,01	1234,93
597,21	1282,03
597,40	1351,66
597,59	1183,73
597,79	1206,25
597,98	1265,64
598,17	1300,46
598,36	1239,02
598,56	1220,59
598,75	1284,08
598,94	1257,45
599,14	1234,93
599,33	1198,06
599,52	1249,26
599,71	1290,22
599,91	1239,02
600,10	1196,01
600,29	1316,84
600,48	1243,12
600,68	1269,74
600,87	1230,83
601,06	1247,21
601,26	1265,64
601,45	1298,41
601,64	1216,49
601,83	1191,92
602,03	1292,27
602,22	1279,98
602,41	1220,59
602,60	1292,27
602,80	1187,82
602,99	1290,22
603,18	1288,17
603,37	1316,84
603,57	1296,36
603,76	1339,37
603,95	1388,52
604,14	1263,60
604,34	1275,88
604,53	1292,27
604,72	1298,41
604,91	1153,01
605,10	1251,31
605,30	1318,89
605,49	1286,12
605,68	1269,74
605,87	1300,46
606,07	1314,80
606,26	1282,03
606,45	1239,02
606,64	1302,51
606,84	1304,56
607,03	1294,32
607,22	1304,56
607,41	1243,12
607,60	1259,50
607,80	1177,58
607,99	1249,26
608,18	1224,69
608,37	1249,26
608,56	1300,46
608,76	1308,65
608,95	1222,64
609,14	1298,41
609,33	1239,02
609,52	1226,73
609,72	1259,50
609,91	1277,93
610,10	1224,69
610,29	1253,36
610,48	1331,18
610,68	1296,36
610,87	1239,02
611,06	1306,60
611,25	1277,93
611,44	1202,16
611,63	1263,60
611,83	1331,18
612,02	1234,93
612,21	1241,07
612,40	1265,64
612,59	1306,60
612,79	1312,75
612,98	1300,46
613,17	1212,40
613,36	1249,26
613,55	1218,54
613,74	1257,45
613,93	1177,58
614,13	1232,88
614,32	1253,36
614,51	1304,56
614,70	1226,73
614,89	1236,97
615,08	1185,77
615,28	1339,37
615,47	1216,49
615,66	1277,93
615,85	1310,70
616,04	1214,45
616,23	1314,80
616,42	1232,88
616,62	1282,03
616,81	1165,29
617,00	1308,65
617,19	1296,36
617,38	1214,45
617,57	1212,40
617,76	1277,93
617,95	1314,80
618,15	1271,79
618,34	1206,25
618,53	1275,88
618,72	1322,99
618,91	1331,18
619,10	1236,97
619,29	1257,45
619,48	1267,69
619,68	1247,21
619,87	1277,93
620,06	1224,69
620,25	1247,21
620,44	1251,31
620,63	1243,12
620,82	1249,26
621,01	1277,93
621,20	1282,03
621,39	1312,75
621,59	1316,84
621,78	1157,10
621,97	1279,98
622,16	1255,40
622,35	1316,84
622,54	1261,55
622,73	1167,34
622,92	1224,69
623,11	1288,17
623,30	1282,03
623,49	1286,12
623,68	1257,45
623,88	1361,90
624,07	1300,46
624,26	1232,88
624,45	1277,93
624,64	1284,08
624,83	1286,12
625,02	1171,44
625,21	1277,93
625,40	1306,60
625,59	1193,97
625,78	1257,45
625,97	1245,16
626,16	1220,59
626,35	1279,98
626,54	1253,36
626,74	1314,80
626,93	1277,93
627,12	1282,03
627,31	1320,94
627,50	1318,89
627,69	1308,65
627,88	1259,50
628,07	1298,41
628,26	1241,07
628,45	1308,65
628,64	1273,84
628,83	1273,84
629,02	1322,99
629,21	1290,22
629,40	1239,02
629,59	1255,40
629,78	1284,08
629,97	1239,02
630,16	1312,75
630,35	1304,56
630,54	1265,64
630,73	1284,08
630,92	1347,56
631,11	1351,66
631,30	1325,04
631,49	1363,95
631,68	1374,19
631,87	1626,09
632,06	1695,72
632,25	1583,08
632,44	1658,85
632,63	1562,60
632,82	1599,46
633,01	1611,75
633,20	1654,76
633,39	1591,27
633,58	1660,90
633,77	1634,28
633,96	1722,34
634,15	1708,01
634,34	1734,63
634,53	1744,87
634,72	1712,10
634,91	1691,62
635,10	1767,40
635,29	1746,92
635,48	1759,21
635,67	1683,43
635,86	1757,16
636,05	1697,77
636,24	1689,57
636,43	1636,33
636,62	1679,33
636,81	1531,88
637,00	1490,92
637,19	1402,86
637,38	1372,14
637,57	1409,00
637,76	1370,09
637,95	1363,95
638,14	1245,16
638,33	1368,04
638,52	1294,32
638,71	1302,51
638,89	1267,69
639,08	1279,98
639,27	1265,64
639,46	1329,13
639,65	1343,47
639,84	1222,64
640,03	1296,36
640,22	1228,78
640,41	1322,99
640,60	1228,78
640,79	1271,79
640,98	1208,30
641,17	1251,31
641,36	1277,93
641,55	1300,46
641,74	1275,88
641,92	1327,08
642,11	1208,30
642,30	1265,64
642,49	1304,56
642,68	1200,11
642,87	1308,65
643,06	1255,40
643,25	1257,45
643,44	1331,18
643,63	1247,21
643,82	1290,22
644,00	1263,60
644,19	1298,41
644,38	1302,51
644,57	1265,64
644,76	1253,36
644,95	1257,45
645,14	1304,56
645,33	1310,70
645,52	1316,84
645,71	1206,25
645,89	1249,26
646,08	1263,60
646,27	1267,69
646,46	1304,56
646,65	1282,03
646,84	1277,93
647,03	1298,41
647,22	1249,26
647,40	1312,75
647,59	1318,89
647,78	1220,59
647,97	1294,32
648,16	1279,98
648,35	1298,41
648,54	1247,21
648,73	1249,26
648,91	1198,06
649,10	1212,40
649,29	1216,49
649,48	1277,93
649,67	1275,88
649,86	1245,16
650,05	1335,28
650,23	1236,97
650,42	1282,03
650,61	1302,51
650,80	1267,69
650,99	1187,82
651,18	1265,64
651,36	1318,89
651,55	1243,12
651,74	1202,16
651,93	1265,64
652,12	1292,27
652,31	1257,45
652,49	1327,08
652,68	1216,49
652,87	1306,60
653,06	1288,17
653,25	1269,74
653,44	1245,16
653,62	1277,93
653,81	1239,02
654,00	1257,45
654,19	1333,23
654,38	1282,03
654,56	1191,92
654,75	1341,42
654,94	1300,46
655,13	1271,79
655,32	1298,41
655,51	1249,26
655,69	1232,88
655,88	1232,88
656,07	1290,22
656,26	1255,40
656,45	1275,88
656,63	1241,07
656,82	1273,84
657,01	1273,84
657,20	1265,64
657,38	1288,17
657,57	1206,25
657,76	1226,73
657,95	1241,07
658,14	1277,93
658,32	1322,99
658,51	1210,35
658,70	1333,23
658,89	1265,64
659,08	1255,40
659,26	1247,21
659,45	1241,07
659,64	1249,26
659,83	1183,73
660,01	1320,94
660,20	1241,07
660,39	1257,45
660,58	1261,55
660,76	1347,56
660,95	1290,22
661,14	1163,25
661,33	1327,08
661,51	1273,84
661,70	1298,41
661,89	1277,93
662,08	1308,65
662,26	1273,84
662,45	1198,06
662,64	1312,75
662,83	1282,03
663,01	1257,45
663,20	1261,55
663,39	1304,56
663,58	1265,64
663,76	1206,25
663,95	1310,70
664,14	1261,55
664,32	1290,22
664,51	1265,64
664,70	1312,75
664,89	1298,41
665,07	1236,97
665,26	1212,40
665,45	1259,50
665,64	1288,17
665,82	1187,82
666,01	1298,41
666,20	1249,26
666,38	1273,84
666,57	1243,12
666,76	1271,79
666,95	1314,80
667,13	1288,17
667,32	1228,78
667,51	1247,21
667,69	1216,49
667,88	1265,64
668,07	1306,60
668,25	1247,21
668,44	1314,80
668,63	1296,36
668,81	1282,03
669,00	1308,65
669,19	1282,03
669,38	1296,36
669,56	1267,69
669,75	1269,74
669,94	1275,88
670,12	1265,64
670,31	1255,40
670,50	1298,41
670,68	1275,88
670,87	1357,80
671,06	1253,36
671,24	1267,69
671,43	1302,51
671,62	1279,98
671,80	1273,84
671,99	1279,98
672,18	1302,51
672,36	1251,31
672,55	1329,13
672,74	1288,17
672,92	1277,93
673,11	1304,56
673,29	1251,31
673,48	1275,88
673,67	1302,51
673,85	1298,41
674,04	1271,79
674,23	1284,08
674,41	1241,07
674,60	1273,84
674,79	1208,30
674,97	1257,45
675,16	1286,12
675,34	1308,65
675,53	1316,84
675,72	1232,88
675,90	1249,26
676,09	1300,46
676,28	1318,89
676,46	1212,40
676,65	1282,03
676,83	1300,46
677,02	1208,30
677,21	1284,08
677,39	1196,01
677,58	1327,08
677,77	1308,65
677,95	1288,17
678,14	1265,64
678,32	1251,31
678,51	1282,03
678,70	1275,88
678,88	1308,65
679,07	1214,45
679,25	1183,73
679,44	1294,32
679,63	1271,79
679,81	1222,64
680,00	1212,40
680,18	1320,94
680,37	1265,64
680,55	1236,97
680,74	1189,87
680,93	1259,50
681,11	1257,45
681,30	1271,79
681,48	1228,78
681,67	1327,08
681,85	1236,97
682,04	1234,93
682,23	1298,41
682,41	1271,79
682,60	1255,40
682,78	1265,64
682,97	1275,88
683,15	1239,02
683,34	1290,22
683,53	1292,27
683,71	1300,46
683,90	1320,94
684,08	1243,12
684,27	1181,68
684,45	1245,16
684,64	1298,41
684,82	1294,32
685,01	1265,64
685,19	1267,69
685,38	1290,22
685,57	1275,88
685,75	1263,60
685,94	1253,36
686,12	1241,07
686,31	1239,02
686,49	1302,51
686,68	1275,88
686,86	1239,02
687,05	1286,12
687,23	1271,79
687,42	1284,08
687,60	1198,06
687,79	1234,93
687,97	1294,32
688,16	1277,93
688,34	1292,27
688,53	1296,36
688,71	1269,74
688,90	1234,93
689,08	1320,94
689,27	1241,07
689,45	1271,79
689,64	1298,41
689,82	1265,64
690,01	1253,36
690,19	1294,32
690,38	1181,68
690,56	1263,60
690,75	1222,64
690,93	1304,56
691,12	1265,64
691,30	1239,02
691,49	1259,50
691,67	1241,07
691,86	1282,03
692,04	1273,84
692,23	1271,79
692,41	1341,42
692,60	1298,41
692,78	1251,31
692,97	1253,36
693,15	1265,64
693,34	1236,97
693,52	1263,60
693,71	1228,78
693,89	1378,28
694,08	1269,74
694,26	1273,84
694,44	1271,79
694,63	1320,94
694,81	1232,88
695,00	1243,12
695,18	1265,64
695,37	1284,08
695,55	1300,46
695,74	1230,83
695,92	1261,55
696,10	1288,17
696,29	1306,60
696,47	1198,06
696,66	1308,65
696,84	1265,64
697,03	1265,64
697,21	1257,45
697,40	1282,03
697,58	1292,27
697,76	1265,64
697,95	1263,60
698,13	1261,55
698,32	1261,55
698,50	1265,64
698,68	1282,03
698,87	1275,88
699,05	1171,44
699,24	1249,26
699,42	1277,93
699,61	1236,97
699,79	1312,75
699,97	1255,40
700,16	1265,64
700,34	1224,69
700,53	1247,21
700,71	1259,50
700,89	1275,88
701,08	1261,55
701,26	1304,56
701,45	1290,22
701,63	1302,51
701,81	1318,89
702,00	1275,88
702,18	1228,78
702,37	1275,88
702,55	1271,79
702,73	1263,60
702,92	1316,84
703,10	1239,02
703,28	1222,64
703,47	1312,75
703,65	1239,02
703,84	1306,60
704,02	1243,12
704,20	1279,98
704,39	1294,32
704,57	1259,50
704,75	1232,88
704,94	1273,84
705,12	1312,75
705,30	1286,12
705,49	1322,99
705,67	1294,32
705,86	1247,21
706,04	1241,07
706,22	1277,93
706,41	1288,17
706,59	1286,12
706,77	1275,88
706,96	1279,98
707,14	1251,31
707,32	1214,45
707,51	1284,08
707,69	1282,03
707,87	1314,80
708,06	1265,64
708,24	1257,45
708,42	1286,12
708,61	1310,70
708,79	1159,15
708,97	1269,74
709,16	1226,73
709,34	1263,60
709,52	1306,60
709,71	1300,46
709,89	1222,64
710,07	1239,02
710,26	1243,12
710,44	1255,40
710,62	1130,48
710,80	1304,56
710,99	1273,84
711,17	1253,36
711,35	1222,64
711,54	1259,50
711,72	1216,49
711,90	1290,22
712,09	1239,02
712,27	1265,64
712,45	1257,45
712,63	1304,56
712,82	1316,84
713,00	1286,12
713,18	1337,32
713,37	1271,79
713,55	1251,31
713,73	1247,21
713,91	1259,50
714,10	1220,59
714,28	1322,99
714,46	1232,88
714,65	1341,42
714,83	1296,36
715,01	1263,60
715,19	1302,51
715,38	1267,69
715,56	1251,31
715,74	1302,51
715,92	1222,64
716,11	1255,40
716,29	1193,97
716,47	1232,88
716,65	1318,89
716,84	1292,27
717,02	1322,99
717,20	1337,32
717,38	1210,35
717,57	1234,93
717,75	1341,42
717,93	1279,98
718,11	1216,49
718,30	1243,12
718,48	1255,40
718,66	1345,52
718,84	1232,88
719,03	1206,25
719,21	1279,98
719,39	1374,19
719,57	1296,36
719,75	1214,45
719,94	1263,60
720,12	1325,04
720,30	1325,04
720,48	1279,98
720,67	1261,55
720,85	1206,25
721,03	1273,84
721,21	1284,08
721,39	1302,51
721,58	1269,74
721,76	1245,16
721,94	1279,98
722,12	1210,35
722,30	1310,70
722,49	1239,02
722,67	1314,80
722,85	1275,88
723,03	1302,51
723,21	1273,84
723,40	1279,98
723,58	1234,93
723,76	1296,36
723,94	1275,88
724,12	1384,43
724,30	1255,40
724,49	1265,64
724,67	1245,16
724,85	1277,93
725,03	1259,50
725,21	1273,84
725,40	1253,36
725,58	1294,32
725,76	1253,36
725,94	1259,50
726,12	1232,88
726,30	1200,11
726,49	1271,79
726,67	1298,41
726,85	1298,41
727,03	1284,08
727,21	1341,42
727,39	1277,93
727,57	1249,26
727,76	1288,17
727,94	1230,83
728,12	1355,76
728,30	1241,07
728,48	1310,70
728,66	1349,61
728,84	1110,00
729,03	1271,79
729,21	1232,88
729,39	1286,12
729,57	1241,07
729,75	1222,64
729,93	1331,18
730,11	1243,12
730,30	1304,56
730,48	1257,45
730,66	1208,30
730,84	1279,98
731,02	1255,40
731,20	1263,60
731,38	1284,08
731,56	1257,45
731,74	1329,13
731,93	1261,55
732,11	1212,40
732,29	1273,84
732,47	1273,84
732,65	1292,27
732,83	1279,98
733,01	1329,13
733,19	1265,64
733,37	1257,45
733,56	1253,36
733,74	1230,83
733,92	1298,41
734,10	1255,40
734,28	1181,68
734,46	1193,97
734,64	1173,49
734,82	1263,60
735,00	1212,40
735,18	1290,22
735,36	1234,93
735,54	1353,71
735,73	1185,77
735,91	1218,54
736,09	1286,12
736,27	1306,60
736,45	1208,30
736,63	1208,30
736,81	1251,31
736,99	1329,13
737,17	1290,22
737,35	1261,55
737,53	1292,27
737,71	1331,18
737,89	1343,47
738,07	1349,61
738,25	1282,03
738,43	1267,69
738,61	1306,60
738,80	1269,74
738,98	1306,60
739,16	1275,88
739,34	1300,46
739,52	1255,40
739,70	1236,97
739,88	1257,45
740,06	1243,12
740,24	1247,21
740,42	1271,79
740,60	1210,35
740,78	1210,35
740,96	1273,84
741,14	1234,93
741,32	1306,60
741,50	1296,36
741,68	1279,98
741,86	1318,89
742,04	1259,50
742,22	1286,12
742,40	1300,46
742,58	1269,74
742,76	1298,41
742,94	1259,50
743,12	1255,40
743,30	1263,60
743,48	1236,97
743,66	1234,93
743,84	1202,16
744,02	1206,25
744,20	1288,17
744,38	1245,16
744,56	1298,41
744,74	1267,69
744,92	1263,60
745,10	1218,54
745,28	1366,00
745,46	1241,07
745,64	1214,45
745,82	1230,83
746,00	1241,07
746,18	1236,97
746,36	1261,55
746,54	1255,40
746,72	1232,88
746,90	1277,93
747,08	1325,04
747,26	1245,16
747,44	1259,50
747,62	1273,84
747,80	1306,60
747,98	1226,73
748,15	1312,75
748,33	1257,45
748,51	1251,31
748,69	1277,93
748,87	1322,99
749,05	1269,74
749,23	1261,55
749,41	1296,36
749,59	1265,64
749,77	1230,83
749,95	1253,36
750,13	1312,75
750,31	1253,36
750,49	1253,36
750,67	1269,74
750,85	1292,27
751,03	1282,03
751,20	1230,83
751,38	1257,45
751,56	1245,16
751,74	1265,64
751,92	1236,97
752,10	1257,45
752,28	1236,97
752,46	1329,13
752,64	1327,08
752,82	1277,93
753,00	1255,40
753,18	1290,22
753,35	1325,04
753,53	1318,89
753,71	1241,07
753,89	1277,93
754,07	1265,64
754,25	1259,50
754,43	1277,93
754,61	1282,03
754,79	1208,30
754,97	1220,59
755,14	1263,60
755,32	1228,78
755,50	1325,04
755,68	1259,50
755,86	1273,84
756,04	1273,84
756,22	1220,59
756,40	1245,16
756,57	1306,60
756,75	1265,64
756,93	1271,79
757,11	1265,64
757,29	1296,36
757,47	1234,93
757,65	1286,12
757,82	1257,45
758,00	1318,89
758,18	1314,80
758,36	1232,88
758,54	1286,12
758,72	1269,74
758,90	1296,36
759,07	1200,11
759,25	1226,73
759,43	1224,69
759,61	1273,84
759,79	1363,95
759,97	1271,79
760,15	1288,17
760,32	1226,73
760,50	1302,51
760,68	1253,36
760,86	1251,31
761,04	1267,69
761,22	1296,36
761,39	1263,60
761,57	1249,26
761,75	1298,41
761,93	1255,40
762,11	1247,21
762,28	1241,07
762,46	1288,17
762,64	1249,26
762,82	1327,08
763,00	1318,89
763,18	1249,26
763,35	1269,74
763,53	1226,73
763,71	1196,01
763,89	1318,89
764,07	1208,30
764,24	1269,74
764,42	1347,56
764,60	1316,84
764,78	1204,21
764,96	1349,61
765,13	1282,03
765,31	1232,88
765,49	1286,12
765,67	1284,08
765,84	1216,49
766,02	1271,79
766,20	1193,97
766,38	1312,75
766,56	1275,88
766,73	1312,75
766,91	1243,12
767,09	1243,12
767,27	1249,26
767,44	1312,75
767,62	1236,97
767,80	1292,27
767,98	1257,45
768,15	1224,69
768,33	1243,12
768,51	1234,93
768,69	1327,08
768,87	1290,22
769,04	1275,88
769,22	1288,17
769,40	1316,84
769,58	1261,55
769,75	1298,41
769,93	1320,94
770,11	1210,35
770,28	1288,17
770,46	1257,45
770,64	1275,88
770,82	1298,41
770,99	1263,60
771,17	1265,64
771,35	1269,74
771,53	1294,32
771,70	1282,03
771,88	1234,93
772,06	1322,99
772,23	1294,32
772,41	1204,21
772,59	1273,84
772,77	1277,93
772,94	1243,12
773,12	1310,70
773,30	1224,69
773,47	1265,64
773,65	1243,12
773,83	1224,69
774,01	1279,98
774,18	1306,60
774,36	1232,88
774,54	1271,79
774,71	1279,98
774,89	1216,49
775,07	1290,22
775,24	1239,02
775,42	1200,11
775,60	1345,52
775,78	1253,36
775,95	1179,63
776,13	1200,11
776,31	1310,70
776,48	1245,16
776,66	1286,12
776,84	1306,60
777,01	1210,35
777,19	1255,40
777,37	1208,30
777,54	1220,59
777,72	1279,98
777,90	1304,56
778,07	1257,45
778,25	1347,56
778,43	1290,22
778,60	1282,03
778,78	1335,28
778,96	1284,08
779,13	1279,98
779,31	1271,79
779,49	1359,85
779,66	1296,36
779,84	1314,80
780,01	1226,73
780,19	1294,32
780,37	1265,64
780,54	1220,59
780,72	1218,54
780,90	1308,65
781,07	1257,45
781,25	1249,26
781,43	1273,84
781,60	1284,08
781,78	1322,99
781,95	1247,21
782,13	1298,41
782,31	1318,89
782,48	1316,84
782,66	1302,51
782,83	1337,32
783,01	1316,84
783,19	1257,45
783,36	1292,27
783,54	1279,98
783,72	1241,07
783,89	1294,32
784,07	1277,93
784,24	1306,60
784,42	1241,07
784,60	1329,13
784,77	1298,41
784,95	1292,27
785,12	1363,95
785,30	1310,70
785,47	1322,99
785,65	1265,64
785,83	1228,78
786,00	1196,01
786,18	1273,84
786,35	1241,07
786,53	1345,52
786,71	1312,75
786,88	1277,93
787,06	1232,88
787,23	1267,69
787,41	1241,07
787,58	1306,60
787,76	1175,53
787,94	1329,13
788,11	1376,24
788,29	1236,97
788,46	1220,59
788,64	1302,51
788,81	1255,40
788,99	1249,26
789,16	1284,08
789,34	1273,84
789,52	1218,54
789,69	1259,50
789,87	1325,04
790,04	1267,69
790,22	1210,35
790,39	1329,13
790,57	1308,65
790,74	1273,84
790,92	1216,49
791,09	1249,26
791,27	1292,27
791,44	1273,84
791,62	1249,26
791,79	1241,07
791,97	1325,04
792,15	1255,40
792,32	1282,03
792,50	1273,84
792,67	1275,88
792,85	1265,64
793,02	1302,51
793,20	1230,83
793,37	1247,21
793,55	1363,95
793,72	1308,65
793,90	1239,02
794,07	1288,17
794,25	1288,17
794,42	1173,49
794,60	1228,78
794,77	1325,04
794,95	1208,30
795,12	1347,56
795,30	1320,94
795,47	1247,21
795,65	1286,12
795,82	1208,30
796,00	1312,75
796,17	1230,83
796,34	1275,88
796,52	1239,02
796,69	1376,24
796,87	1296,36
797,04	1284,08
797,22	1187,82
797,39	1249,26
797,57	1234,93
797,74	1263,60
797,92	1273,84
798,09	1245,16
798,27	1267,69
798,44	1228,78
798,62	1294,32
798,79	1292,27
798,96	1214,45
799,14	1208,30
799,31	1234,93
799,49	1265,64
799,66	1200,11
799,84	1273,84
800,01	1277,93
800,19	1222,64
800,36	1202,16
800,53	1269,74
800,71	1294,32
800,88	1296,36
801,06	1263,60
801,23	1255,40
801,41	1327,08
801,58	1241,07
801,75	1234,93
801,93	1275,88
802,10	1292,27
802,28	1257,45
802,45	1282,03
802,63	1277,93
802,80	1308,65
802,97	1210,35
803,15	1306,60
803,32	1214,45
803,50	1218,54
803,67	1290,22
803,84	1279,98
804,02	1259,50
804,19	1259,50
804,37	1275,88
804,54	1292,27
804,71	1251,31
804,89	1275,88
805,06	1269,74
805,24	1220,59
805,41	1296,36
805,58	1269,74
805,76	1255,40
805,93	1255,40
806,10	1296,36
806,28	1312,75
806,45	1296,36
806,63	1263,60
806,80	1322,99
806,97	1255,40
807,15	1265,64
807,32	1210,35
807,49	1251,31
807,67	1269,74
807,84	1275,88
808,01	1210,35
808,19	1230,83
808,36	1279,98
808,54	1366,00
808,71	1267,69
808,88	1243,12
809,06	1265,64
809,23	1282,03
809,40	1257,45
809,58	1259,50
809,75	1259,50
809,92	1265,64
810,10	1245,16
810,27	1267,69
810,44	1282,03
810,62	1341,42
810,79	1239,02
810,96	1273,84
811,14	1232,88
811,31	1255,40
811,48	1257,45
811,66	1310,70
811,83	1255,40
812,00	1269,74
812,18	1306,60
812,35	1329,13
812,52	1208,30
812,69	1273,84
812,87	1189,87
813,04	1251,31
813,21	1322,99
813,39	1257,45
813,56	1239,02
813,73	1249,26
813,91	1224,69
814,08	1267,69
814,25	1302,51
814,42	1228,78
814,60	1243,12
814,77	1271,79
814,94	1212,40
815,12	1279,98
815,29	1196,01
815,46	1296,36
815,63	1312,75
815,81	1279,98
815,98	1304,56
816,15	1218,54
816,33	1220,59
816,50	1241,07
816,67	1206,25
816,84	1308,65
817,02	1185,77
817,19	1333,23
817,36	1327,08
817,53	1236,97
817,71	1216,49
817,88	1257,45
818,05	1243,12
818,22	1236,97
818,40	1259,50
818,57	1245,16
818,74	1304,56
818,91	1322,99
819,09	1251,31
819,26	1351,66
819,43	1251,31
819,60	1261,55
819,78	1329,13
819,95	1263,60
820,12	1200,11
820,29	1271,79
820,47	1333,23
820,64	1318,89
820,81	1314,80
820,98	1275,88
821,15	1304,56
821,33	1255,40
821,50	1294,32
821,67	1329,13
821,84	1222,64
822,02	1243,12
822,19	1296,36
822,36	1320,94
822,53	1312,75
822,70	1265,64
822,88	1312,75
823,05	1312,75
823,22	1345,52
823,39	1214,45
823,56	1265,64
823,74	1241,07
823,91	1353,71
824,08	1286,12
824,25	1275,88
824,42	1316,84
824,60	1284,08
824,77	1247,21
824,94	1314,80
825,11	1310,70
825,28	1181,68
825,45	1296,36
825,63	1318,89
825,80	1239,02
825,97	1284,08
826,14	1230,83
826,31	1304,56
826,48	1290,22
826,66	1273,84
826,83	1298,41
827,00	1239,02
827,17	1300,46
827,34	1282,03
827,51	1279,98
827,69	1282,03
827,86	1210,35
828,03	1284,08
828,20	1325,04
828,37	1282,03
828,54	1208,30
828,71	1277,93
828,89	1273,84
829,06	1294,32
829,23	1284,08
829,40	1339,37
829,57	1206,25
829,74	1298,41
829,91	1277,93
830,09	1275,88
830,26	1320,94
830,43	1261,55
830,60	1230,83
830,77	1208,30
830,94	1322,99
831,11	1269,74
831,28	1325,04
831,46	1290,22
831,63	1292,27
831,80	1232,88
831,97	1255,40
832,14	1222,64
832,31	1343,47
832,48	1230,83
832,65	1255,40
832,82	1247,21
832,99	1294,32
833,17	1165,29
833,34	1284,08
833,51	1290,22
833,68	1261,55
833,85	1316,84
834,02	1253,36
834,19	1175,53
834,36	1253,36
834,53	1218,54
834,70	1273,84
834,87	1253,36
835,04	1277,93
835,22	1351,66
835,39	1290,22
835,56	1282,03
835,73	1243,12
835,90	1245,16
836,07	1239,02
836,24	1277,93
836,41	1282,03
836,58	1290,22
836,75	1265,64
836,92	1318,89
837,09	1271,79
837,26	1224,69
837,43	1292,27
837,60	1271,79
837,77	1275,88
837,94	1337,32
838,12	1298,41
838,29	1298,41
838,46	1296,36
838,63	1284,08
838,80	1271,79
838,97	1230,83
839,14	1277,93
839,31	1228,78
839,48	1292,27
839,65	1185,77
839,82	1232,88
839,99	1249,26
840,16	1253,36
840,33	1267,69
840,50	1286,12
840,67	1245,16
840,84	1341,42
841,01	1298,41
841,18	1236,97
841,35	1343,47
841,52	1277,93
841,69	1347,56
841,86	1294,32
842,03	1265,64
842,20	1286,12
842,37	1320,94
842,54	1234,93
842,71	1216,49
842,88	1306,60
843,05	1314,80
843,22	1302,51
843,39	1275,88
843,56	1230,83
843,73	1312,75
843,90	1361,90
844,07	1343,47
844,24	1290,22
844,41	1241,07
844,58	1318,89
844,75	1298,41
844,92	1267,69
845,09	1187,82
845,26	1249,26
845,43	1236,97
845,60	1279,98
845,77	1279,98
845,94	1228,78
846,10	1273,84
846,27	1288,17
846,44	1269,74
846,61	1189,87
846,78	1234,93
846,95	1282,03
847,12	1298,41
847,29	1300,46
847,46	1259,50
847,63	1296,36
847,80	1296,36
847,97	1236,97
848,14	1320,94
848,31	1232,88
848,48	1282,03
848,65	1318,89
848,82	1187,82
848,98	1249,26
849,15	1277,93
849,32	1302,51
849,49	1232,88
849,66	1216,49
849,83	1292,27
850,00	1310,70
850,17	1329,13
850,34	1273,84
850,51	1257,45
850,68	1265,64
850,85	1257,45
851,01	1335,28
851,18	1290,22
851,35	1265,64
851,52	1247,21
851,69	1228,78
851,86	1243,12
852,03	1261,55
852,20	1257,45
852,37	1306,60
852,53	1282,03
852,70	1300,46
852,87	1302,51
853,04	1273,84
853,21	1245,16
853,38	1239,02
853,55	1279,98
853,72	1279,98
853,89	1269,74
854,05	1333,23
854,22	1232,88
854,39	1318,89
854,56	1325,04
854,73	1241,07
854,90	1304,56
855,07	1259,50
855,23	1253,36
855,40	1316,84
855,57	1230,83
855,74	1279,98
855,91	1329,13
856,08	1210,35
856,25	1327,08
856,41	1320,94
856,58	1236,97
856,75	1255,40
856,92	1341,42
857,09	1325,04
857,26	1263,60
857,42	1310,70
857,59	1255,40
857,76	1226,73
857,93	1314,80
858,10	1288,17
858,27	1255,40
858,43	1249,26
858,60	1222,64
858,77	1353,71
858,94	1300,46
859,11	1318,89
859,27	1273,84
859,44	1363,95
859,61	1312,75
859,78	1284,08
859,95	1261,55
860,12	1347,56
860,28	1306,60
860,45	1228,78
860,62	1279,98
860,79	1191,92
860,95	1257,45
861,12	1279,98
861,29	1265,64
861,46	1273,84
861,63	1292,27
861,79	1239,02
861,96	1226,73
862,13	1298,41
862,30	1261,55
862,47	1236,97
862,63	1236,97
862,80	1273,84
862,97	1290,22
863,14	1314,80
863,30	1368,04
863,47	1261,55
863,64	1361,90
863,81	1208,30
863,97	1304,56
864,14	1247,21
864,31	1265,64
864,48	1304,56
864,65	1275,88
864,81	1273,84
864,98	1220,59
865,15	1290,22
865,32	1361,90
865,48	1331,18
865,65	1251,31
865,82	1259,50
865,98	1232,88
866,15	1271,79
866,32	1249,26
866,49	1247,21
866,65	1296,36
866,82	1224,69
866,99	1316,84
867,16	1271,79
867,32	1304,56
867,49	1259,50
867,66	1304,56
867,83	1339,37
867,99	1306,60
868,16	1251,31
868,33	1239,02
868,49	1218,54
868,66	1230,83
868,83	1249,26
868,99	1279,98
869,16	1290,22
869,33	1273,84
869,50	1314,80
869,66	1224,69
869,83	1308,65
870,00	1304,56
870,16	1245,16
870,33	1294,32
870,50	1271,79
870,66	1259,50
870,83	1331,18
871,00	1232,88
871,17	1275,88
871,33	1310,70
871,50	1236,97
871,67	1251,31
871,83	1294,32
872,00	1196,01
872,17	1236,97
872,33	1310,70
872,50	1282,03
872,67	1275,88
872,83	1228,78
873,00	1228,78
873,17	1351,66
873,33	1277,93
873,50	1273,84
873,67	1298,41
873,83	1267,69
874,00	1314,80
874,16	1359,85
874,33	1191,92
874,50	1263,60
874,66	1306,60
874,83	1304,56
875,00	1312,75
875,16	1349,61
875,33	1298,41
875,50	1279,98
875,66	1222,64
875,83	1359,85
875,99	1282,03
876,16	1273,84
876,33	1316,84
876,49	1349,61
876,66	1312,75
876,83	1226,73
876,99	1247,21
877,16	1275,88
877,32	1230,83
877,49	1261,55
877,66	1308,65
877,82	1261,55
877,99	1275,88
878,15	1249,26
878,32	1275,88
878,49	1224,69
878,65	1277,93
878,82	1349,61
878,98	1259,50
879,15	1359,85
879,32	1269,74
879,48	1218,54
879,65	1257,45
879,81	1265,64
879,98	1259,50
880,15	1247,21
880,31	1234,93
880,48	1339,37
880,64	1312,75
880,81	1239,02
880,97	1269,74
881,14	1288,17
881,31	1247,21
881,47	1349,61
881,64	1294,32
881,80	1286,12
881,97	1239,02
882,13	1271,79
882,30	1282,03
882,47	1253,36
882,63	1298,41
882,80	1179,63
882,96	1251,31
883,13	1292,27
883,29	1243,12
883,46	1284,08
883,62	1212,40
883,79	1259,50
883,95	1228,78
884,12	1263,60
884,29	1267,69
884,45	1308,65
884,62	1355,76
884,78	1292,27
884,95	1302,51
885,11	1232,88
885,28	1155,05
885,44	1306,60
885,61	1247,21
885,77	1284,08
885,94	1306,60
886,10	1267,69
886,27	1271,79
886,43	1265,64
886,60	1288,17
886,76	1292,27
886,93	1331,18
887,09	1255,40
887,26	1322,99
887,42	1269,74
887,59	1314,80
887,75	1275,88
887,92	1239,02
888,08	1310,70
888,25	1249,26
888,41	1251,31
888,58	1296,36
888,74	1189,87
888,91	1224,69
>>>>>End Processed Spectral Data<<<<<
