SpectraSuite Data File
++++++++++++++++++++++++++++++++++++
Date: Sun Apr 03 16:15:34 CEST 2016
User: root
Dark Spectrum Present: No
Reference Spectrum Present: No
Number of Sampled Component Spectra: 1
Spectrometers: USB4C02835
Integration Time (usec): 10000 (USB4C02835)
Spectra Averaged: 1 (USB4C02835)
Boxcar Smoothing: 0 (USB4C02835)
Correct for Electrical Dark: No (USB4C02835)
Strobe/Lamp Enabled: No (USB4C02835)
Correct for Detector Non-linearity: No (USB4C02835)
Correct for Stray Light: No (USB4C02835)
Number of Pixels in Processed Spectrum: 3648
>>>>>Begin Processed Spectral Data<<<<<
177,47	1198,06
177,69	1198,06
177,91	1198,06
178,13	1232,88
178,36	1261,55
178,58	1304,56
178,80	1234,93
179,02	1316,84
179,24	1337,32
179,46	1316,84
179,68	1275,88
179,90	1239,02
180,13	1263,60
180,35	1298,41
180,57	1241,07
180,79	1267,69
181,01	1302,51
181,23	1290,22
181,45	1286,12
181,67	1275,88
181,90	1310,70
182,12	1275,88
182,34	1273,84
182,56	1269,74
182,78	1288,17
183,00	1236,97
183,22	1312,75
183,44	1257,45
183,66	1353,71
183,89	1286,12
184,11	1234,93
184,33	1249,26
184,55	1234,93
184,77	1366,00
184,99	1279,98
185,21	1318,89
185,43	1200,11
185,65	1230,83
185,87	1257,45
186,10	1228,78
186,32	1273,84
186,54	1288,17
186,76	1208,30
186,98	1236,97
187,20	1216,49
187,42	1255,40
187,64	1298,41
187,86	1234,93
188,08	1234,93
188,30	1253,36
188,52	1306,60
188,75	1286,12
188,97	1241,07
189,19	1267,69
189,41	1290,22
189,63	1216,49
189,85	1245,16
190,07	1265,64
190,29	1296,36
190,51	1267,69
190,73	1284,08
190,95	1288,17
191,17	1273,84
191,39	1345,52
191,61	1286,12
191,84	1259,50
192,06	1304,56
192,28	1241,07
192,50	1261,55
192,72	1277,93
192,94	1296,36
193,16	1228,78
193,38	1265,64
193,60	1288,17
193,82	1257,45
194,04	1257,45
194,26	1322,99
194,48	1259,50
194,70	1292,27
194,92	1236,97
195,14	1298,41
195,36	1316,84
195,58	1294,32
195,80	1263,60
196,02	1290,22
196,24	1322,99
196,46	1310,70
196,69	1226,73
196,91	1275,88
197,13	1306,60
197,35	1310,70
197,57	1230,83
197,79	1236,97
198,01	1206,25
198,23	1294,32
198,45	1288,17
198,67	1255,40
198,89	1236,97
199,11	1322,99
199,33	1320,94
199,55	1290,22
199,77	1247,21
199,99	1255,40
200,21	1279,98
200,43	1249,26
200,65	1282,03
200,87	1259,50
201,09	1261,55
201,31	1284,08
201,53	1234,93
201,75	1325,04
201,97	1300,46
202,19	1198,06
202,41	1243,12
202,63	1288,17
202,85	1261,55
203,07	1290,22
203,29	1208,30
203,51	1271,79
203,73	1263,60
203,95	1273,84
204,17	1294,32
204,39	1263,60
204,61	1228,78
204,83	1249,26
205,05	1261,55
205,27	1327,08
205,49	1239,02
205,71	1222,64
205,93	1325,04
206,15	1366,00
206,37	1284,08
206,59	1275,88
206,81	1286,12
207,03	1290,22
207,25	1193,97
207,47	1263,60
207,69	1275,88
207,91	1310,70
208,13	1234,93
208,34	1286,12
208,56	1271,79
208,78	1249,26
209,00	1294,32
209,22	1253,36
209,44	1259,50
209,66	1261,55
209,88	1259,50
210,10	1232,88
210,32	1261,55
210,54	1308,65
210,76	1265,64
210,98	1294,32
211,20	1353,71
211,42	1282,03
211,64	1212,40
211,86	1296,36
212,08	1298,41
212,30	1230,83
212,52	1308,65
212,74	1314,80
212,96	1341,42
213,17	1255,40
213,39	1234,93
213,61	1275,88
213,83	1200,11
214,05	1363,95
214,27	1279,98
214,49	1239,02
214,71	1275,88
214,93	1329,13
215,15	1255,40
215,37	1329,13
215,59	1261,55
215,81	1290,22
216,03	1259,50
216,24	1265,64
216,46	1304,56
216,68	1318,89
216,90	1273,84
217,12	1265,64
217,34	1345,52
217,56	1249,26
217,78	1298,41
218,00	1331,18
218,22	1232,88
218,44	1228,78
218,66	1269,74
218,87	1308,65
219,09	1310,70
219,31	1222,64
219,53	1251,31
219,75	1249,26
219,97	1251,31
220,19	1343,47
220,41	1263,60
220,63	1296,36
220,85	1222,64
221,06	1259,50
221,28	1271,79
221,50	1275,88
221,72	1218,54
221,94	1310,70
222,16	1222,64
222,38	1271,79
222,60	1222,64
222,82	1255,40
223,03	1316,84
223,25	1200,11
223,47	1277,93
223,69	1245,16
223,91	1230,83
224,13	1318,89
224,35	1212,40
224,57	1304,56
224,78	1329,13
225,00	1230,83
225,22	1269,74
225,44	1253,36
225,66	1259,50
225,88	1277,93
226,10	1284,08
226,32	1265,64
226,53	1236,97
226,75	1271,79
226,97	1263,60
227,19	1298,41
227,41	1312,75
227,63	1259,50
227,85	1273,84
228,06	1286,12
228,28	1263,60
228,50	1327,08
228,72	1308,65
228,94	1292,27
229,16	1269,74
229,37	1279,98
229,59	1290,22
229,81	1234,93
230,03	1236,97
230,25	1284,08
230,47	1263,60
230,69	1279,98
230,90	1331,18
231,12	1282,03
231,34	1259,50
231,56	1333,23
231,78	1310,70
232,00	1282,03
232,21	1284,08
232,43	1288,17
232,65	1306,60
232,87	1282,03
233,09	1273,84
233,30	1347,56
233,52	1239,02
233,74	1343,47
233,96	1263,60
234,18	1257,45
234,40	1288,17
234,61	1312,75
234,83	1271,79
235,05	1243,12
235,27	1279,98
235,49	1325,04
235,70	1296,36
235,92	1286,12
236,14	1261,55
236,36	1253,36
236,58	1220,59
236,79	1243,12
237,01	1275,88
237,23	1218,54
237,45	1279,98
237,67	1273,84
237,88	1339,37
238,10	1306,60
238,32	1261,55
238,54	1337,32
238,76	1290,22
238,97	1331,18
239,19	1271,79
239,41	1261,55
239,63	1306,60
239,85	1210,35
240,06	1236,97
240,28	1298,41
240,50	1243,12
240,72	1279,98
240,93	1212,40
241,15	1269,74
241,37	1335,28
241,59	1214,45
241,81	1331,18
242,02	1255,40
242,24	1218,54
242,46	1320,94
242,68	1277,93
242,89	1259,50
243,11	1273,84
243,33	1290,22
243,55	1234,93
243,76	1347,56
243,98	1273,84
244,20	1308,65
244,42	1286,12
244,64	1279,98
244,85	1282,03
245,07	1282,03
245,29	1210,35
245,51	1310,70
245,72	1261,55
245,94	1320,94
246,16	1259,50
246,38	1241,07
246,59	1257,45
246,81	1245,16
247,03	1204,21
247,24	1310,70
247,46	1214,45
247,68	1310,70
247,90	1288,17
248,11	1269,74
248,33	1329,13
248,55	1230,83
248,77	1290,22
248,98	1284,08
249,20	1257,45
249,42	1241,07
249,64	1206,25
249,85	1261,55
250,07	1257,45
250,29	1249,26
250,50	1228,78
250,72	1294,32
250,94	1286,12
251,16	1329,13
251,37	1361,90
251,59	1292,27
251,81	1245,16
252,02	1259,50
252,24	1277,93
252,46	1275,88
252,68	1226,73
252,89	1249,26
253,11	1245,16
253,33	1288,17
253,54	1368,04
253,76	1378,28
253,98	1296,36
254,20	1294,32
254,41	1249,26
254,63	1282,03
254,85	1253,36
255,06	1241,07
255,28	1316,84
255,50	1279,98
255,71	1239,02
255,93	1296,36
256,15	1275,88
256,36	1288,17
256,58	1245,16
256,80	1279,98
257,02	1253,36
257,23	1284,08
257,45	1308,65
257,67	1290,22
257,88	1241,07
258,10	1292,27
258,32	1306,60
258,53	1279,98
258,75	1245,16
258,97	1298,41
259,18	1275,88
259,40	1247,21
259,62	1208,30
259,83	1257,45
260,05	1267,69
260,27	1257,45
260,48	1277,93
260,70	1275,88
260,92	1271,79
261,13	1343,47
261,35	1273,84
261,57	1310,70
261,78	1216,49
262,00	1253,36
262,22	1279,98
262,43	1306,60
262,65	1273,84
262,86	1245,16
263,08	1273,84
263,30	1347,56
263,51	1200,11
263,73	1290,22
263,95	1253,36
264,16	1259,50
264,38	1236,97
264,60	1304,56
264,81	1273,84
265,03	1239,02
265,25	1236,97
265,46	1251,31
265,68	1253,36
265,89	1325,04
266,11	1269,74
266,33	1218,54
266,54	1298,41
266,76	1241,07
266,98	1222,64
267,19	1288,17
267,41	1261,55
267,62	1314,80
267,84	1292,27
268,06	1275,88
268,27	1267,69
268,49	1226,73
268,70	1224,69
268,92	1228,78
269,14	1228,78
269,35	1292,27
269,57	1308,65
269,79	1269,74
270,00	1273,84
270,22	1316,84
270,43	1259,50
270,65	1335,28
270,87	1241,07
271,08	1322,99
271,30	1343,47
271,51	1282,03
271,73	1304,56
271,95	1251,31
272,16	1253,36
272,38	1212,40
272,59	1251,31
272,81	1325,04
273,02	1320,94
273,24	1241,07
273,46	1257,45
273,67	1288,17
273,89	1275,88
274,10	1279,98
274,32	1234,93
274,54	1294,32
274,75	1265,64
274,97	1232,88
275,18	1306,60
275,40	1228,78
275,61	1290,22
275,83	1298,41
276,05	1241,07
276,26	1318,89
276,48	1196,01
276,69	1249,26
276,91	1243,12
277,12	1286,12
277,34	1255,40
277,55	1308,65
277,77	1226,73
277,99	1288,17
278,20	1282,03
278,42	1322,99
278,63	1316,84
278,85	1282,03
279,06	1224,69
279,28	1304,56
279,49	1347,56
279,71	1241,07
279,93	1290,22
280,14	1271,79
280,36	1232,88
280,57	1228,78
280,79	1312,75
281,00	1232,88
281,22	1249,26
281,43	1296,36
281,65	1320,94
281,86	1277,93
282,08	1265,64
282,29	1267,69
282,51	1331,18
282,73	1318,89
282,94	1290,22
283,16	1236,97
283,37	1331,18
283,59	1310,70
283,80	1243,12
284,02	1200,11
284,23	1253,36
284,45	1302,51
284,66	1286,12
284,88	1257,45
285,09	1161,20
285,31	1196,01
285,52	1277,93
285,74	1181,68
285,95	1236,97
286,17	1263,60
286,38	1140,72
286,60	1279,98
286,81	1335,28
287,03	1290,22
287,24	1263,60
287,46	1302,51
287,67	1277,93
287,89	1247,21
288,10	1265,64
288,32	1279,98
288,53	1308,65
288,75	1183,73
288,96	1202,16
289,18	1228,78
289,39	1308,65
289,61	1230,83
289,82	1261,55
290,04	1241,07
290,25	1292,27
290,47	1279,98
290,68	1239,02
290,90	1279,98
291,11	1239,02
291,33	1353,71
291,54	1230,83
291,76	1263,60
291,97	1245,16
292,18	1253,36
292,40	1236,97
292,61	1267,69
292,83	1275,88
293,04	1339,37
293,26	1331,18
293,47	1298,41
293,69	1306,60
293,90	1327,08
294,12	1304,56
294,33	1267,69
294,55	1318,89
294,76	1298,41
294,97	1279,98
295,19	1245,16
295,40	1312,75
295,62	1277,93
295,83	1308,65
296,05	1253,36
296,26	1279,98
296,48	1275,88
296,69	1273,84
296,90	1247,21
297,12	1245,16
297,33	1239,02
297,55	1253,36
297,76	1329,13
297,98	1327,08
298,19	1222,64
298,41	1255,40
298,62	1292,27
298,83	1277,93
299,05	1345,52
299,26	1253,36
299,48	1247,21
299,69	1271,79
299,90	1239,02
300,12	1327,08
300,33	1284,08
300,55	1284,08
300,76	1249,26
300,98	1255,40
301,19	1310,70
301,40	1386,47
301,62	1216,49
301,83	1355,76
302,05	1206,25
302,26	1290,22
302,47	1322,99
302,69	1331,18
302,90	1282,03
303,12	1269,74
303,33	1314,80
303,54	1261,55
303,76	1259,50
303,97	1312,75
304,19	1308,65
304,40	1318,89
304,61	1169,39
304,83	1212,40
305,04	1257,45
305,26	1247,21
305,47	1277,93
305,68	1325,04
305,90	1241,07
306,11	1302,51
306,33	1204,21
306,54	1310,70
306,75	1288,17
306,97	1220,59
307,18	1322,99
307,39	1259,50
307,61	1290,22
307,82	1294,32
308,04	1222,64
308,25	1322,99
308,46	1349,61
308,68	1306,60
308,89	1300,46
309,10	1236,97
309,32	1263,60
309,53	1259,50
309,74	1302,51
309,96	1239,02
310,17	1320,94
310,39	1310,70
310,60	1277,93
310,81	1298,41
311,03	1234,93
311,24	1257,45
311,45	1386,47
311,67	1216,49
311,88	1308,65
312,09	1386,47
312,31	1230,83
312,52	1263,60
312,73	1230,83
312,95	1304,56
313,16	1241,07
313,37	1259,50
313,59	1243,12
313,80	1322,99
314,01	1347,56
314,23	1253,36
314,44	1277,93
314,65	1234,93
314,87	1245,16
315,08	1282,03
315,29	1220,59
315,51	1245,16
315,72	1202,16
315,93	1298,41
316,15	1241,07
316,36	1179,63
316,57	1263,60
316,79	1357,80
317,00	1351,66
317,21	1294,32
317,43	1226,73
317,64	1271,79
317,85	1286,12
318,07	1255,40
318,28	1202,16
318,49	1329,13
318,70	1306,60
318,92	1292,27
319,13	1304,56
319,34	1277,93
319,56	1339,37
319,77	1284,08
319,98	1308,65
320,20	1302,51
320,41	1265,64
320,62	1247,21
320,83	1230,83
321,05	1275,88
321,26	1267,69
321,47	1275,88
321,69	1294,32
321,90	1259,50
322,11	1273,84
322,32	1236,97
322,54	1314,80
322,75	1263,60
322,96	1267,69
323,18	1288,17
323,39	1267,69
323,60	1300,46
323,81	1263,60
324,03	1288,17
324,24	1343,47
324,45	1292,27
324,66	1265,64
324,88	1286,12
325,09	1286,12
325,30	1302,51
325,52	1292,27
325,73	1236,97
325,94	1251,31
326,15	1335,28
326,37	1255,40
326,58	1279,98
326,79	1300,46
327,00	1275,88
327,22	1353,71
327,43	1243,12
327,64	1294,32
327,85	1320,94
328,07	1255,40
328,28	1327,08
328,49	1202,16
328,70	1300,46
328,92	1265,64
329,13	1261,55
329,34	1312,75
329,55	1296,36
329,76	1193,97
329,98	1296,36
330,19	1191,92
330,40	1239,02
330,61	1275,88
330,83	1288,17
331,04	1206,25
331,25	1263,60
331,46	1290,22
331,68	1232,88
331,89	1298,41
332,10	1245,16
332,31	1284,08
332,52	1165,29
332,74	1241,07
332,95	1218,54
333,16	1341,42
333,37	1314,80
333,58	1228,78
333,80	1314,80
334,01	1286,12
334,22	1273,84
334,43	1298,41
334,64	1277,93
334,86	1298,41
335,07	1224,69
335,28	1314,80
335,49	1269,74
335,70	1259,50
335,92	1247,21
336,13	1306,60
336,34	1341,42
336,55	1259,50
336,76	1239,02
336,98	1214,45
337,19	1239,02
337,40	1269,74
337,61	1312,75
337,82	1298,41
338,04	1245,16
338,25	1282,03
338,46	1257,45
338,67	1353,71
338,88	1255,40
339,09	1292,27
339,31	1322,99
339,52	1271,79
339,73	1298,41
339,94	1232,88
340,15	1322,99
340,36	1335,28
340,58	1191,92
340,79	1325,04
341,00	1298,41
341,21	1236,97
341,42	1251,31
341,63	1269,74
341,85	1251,31
342,06	1277,93
342,27	1265,64
342,48	1253,36
342,69	1275,88
342,90	1327,08
343,12	1265,64
343,33	1282,03
343,54	1322,99
343,75	1286,12
343,96	1249,26
344,17	1312,75
344,38	1290,22
344,60	1347,56
344,81	1245,16
345,02	1261,55
345,23	1267,69
345,44	1261,55
345,65	1277,93
345,86	1282,03
346,07	1300,46
346,29	1298,41
346,50	1302,51
346,71	1296,36
346,92	1255,40
347,13	1325,04
347,34	1290,22
347,55	1304,56
347,76	1271,79
347,98	1216,49
348,19	1267,69
348,40	1267,69
348,61	1249,26
348,82	1284,08
349,03	1296,36
349,24	1218,54
349,45	1279,98
349,66	1294,32
349,88	1243,12
350,09	1310,70
350,30	1236,97
350,51	1298,41
350,72	1327,08
350,93	1288,17
351,14	1308,65
351,35	1316,84
351,56	1282,03
351,77	1312,75
351,99	1212,40
352,20	1329,13
352,41	1331,18
352,62	1271,79
352,83	1267,69
353,04	1298,41
353,25	1294,32
353,46	1320,94
353,67	1308,65
353,88	1300,46
354,09	1243,12
354,30	1263,60
354,52	1331,18
354,73	1292,27
354,94	1259,50
355,15	1273,84
355,36	1316,84
355,57	1249,26
355,78	1251,31
355,99	1198,06
356,20	1288,17
356,41	1302,51
356,62	1300,46
356,83	1312,75
357,04	1249,26
357,25	1234,93
357,46	1214,45
357,68	1284,08
357,89	1245,16
358,10	1300,46
358,31	1261,55
358,52	1312,75
358,73	1269,74
358,94	1306,60
359,15	1243,12
359,36	1310,70
359,57	1249,26
359,78	1298,41
359,99	1273,84
360,20	1271,79
360,41	1230,83
360,62	1257,45
360,83	1267,69
361,04	1286,12
361,25	1269,74
361,46	1294,32
361,67	1320,94
361,88	1239,02
362,09	1322,99
362,30	1294,32
362,51	1337,32
362,72	1239,02
362,93	1355,76
363,14	1284,08
363,35	1245,16
363,56	1232,88
363,78	1331,18
363,99	1193,97
364,20	1218,54
364,41	1292,27
364,62	1304,56
364,83	1249,26
365,04	1304,56
365,25	1247,21
365,46	1296,36
365,67	1212,40
365,88	1228,78
366,09	1224,69
366,30	1298,41
366,51	1288,17
366,72	1298,41
366,93	1241,07
367,14	1259,50
367,35	1312,75
367,56	1267,69
367,77	1234,93
367,98	1282,03
368,18	1298,41
368,39	1308,65
368,60	1226,73
368,81	1224,69
369,02	1345,52
369,23	1290,22
369,44	1202,16
369,65	1257,45
369,86	1351,66
370,07	1253,36
370,28	1216,49
370,49	1232,88
370,70	1230,83
370,91	1284,08
371,12	1308,65
371,33	1294,32
371,54	1312,75
371,75	1202,16
371,96	1310,70
372,17	1247,21
372,38	1236,97
372,59	1230,83
372,80	1316,84
373,01	1349,61
373,22	1310,70
373,43	1263,60
373,64	1322,99
373,85	1271,79
374,06	1290,22
374,26	1241,07
374,47	1308,65
374,68	1261,55
374,89	1325,04
375,10	1257,45
375,31	1302,51
375,52	1265,64
375,73	1290,22
375,94	1243,12
376,15	1239,02
376,36	1335,28
376,57	1224,69
376,78	1286,12
376,99	1232,88
377,20	1292,27
377,40	1290,22
377,61	1277,93
377,82	1286,12
378,03	1259,50
378,24	1265,64
378,45	1271,79
378,66	1269,74
378,87	1222,64
379,08	1257,45
379,29	1212,40
379,50	1286,12
379,71	1284,08
379,91	1298,41
380,12	1294,32
380,33	1224,69
380,54	1320,94
380,75	1271,79
380,96	1236,97
381,17	1253,36
381,38	1302,51
381,59	1259,50
381,80	1216,49
382,00	1329,13
382,21	1343,47
382,42	1214,45
382,63	1259,50
382,84	1306,60
383,05	1243,12
383,26	1224,69
383,47	1308,65
383,68	1214,45
383,88	1294,32
384,09	1279,98
384,30	1185,77
384,51	1314,80
384,72	1294,32
384,93	1253,36
385,14	1245,16
385,35	1232,88
385,55	1236,97
385,76	1341,42
385,97	1269,74
386,18	1200,11
386,39	1183,73
386,60	1253,36
386,81	1245,16
387,02	1257,45
387,22	1304,56
387,43	1253,36
387,64	1253,36
387,85	1247,21
388,06	1267,69
388,27	1226,73
388,48	1261,55
388,68	1349,61
388,89	1267,69
389,10	1202,16
389,31	1163,25
389,52	1232,88
389,73	1241,07
389,93	1230,83
390,14	1206,25
390,35	1343,47
390,56	1273,84
390,77	1261,55
390,98	1275,88
391,18	1236,97
391,39	1212,40
391,60	1325,04
391,81	1308,65
392,02	1294,32
392,23	1275,88
392,43	1239,02
392,64	1265,64
392,85	1273,84
393,06	1366,00
393,27	1222,64
393,47	1282,03
393,68	1200,11
393,89	1322,99
394,10	1314,80
394,31	1265,64
394,52	1251,31
394,72	1312,75
394,93	1249,26
395,14	1245,16
395,35	1271,79
395,56	1175,53
395,76	1232,88
395,97	1341,42
396,18	1298,41
396,39	1220,59
396,60	1306,60
396,80	1318,89
397,01	1269,74
397,22	1212,40
397,43	1378,28
397,64	1234,93
397,84	1234,93
398,05	1290,22
398,26	1230,83
398,47	1249,26
398,67	1282,03
398,88	1257,45
399,09	1228,78
399,30	1243,12
399,51	1232,88
399,71	1265,64
399,92	1230,83
400,13	1255,40
400,34	1290,22
400,54	1277,93
400,75	1267,69
400,96	1267,69
401,17	1275,88
401,37	1226,73
401,58	1298,41
401,79	1275,88
402,00	1249,26
402,21	1304,56
402,41	1224,69
402,62	1265,64
402,83	1325,04
403,04	1273,84
403,24	1300,46
403,45	1279,98
403,66	1318,89
403,87	1271,79
404,07	1230,83
404,28	1239,02
404,49	1232,88
404,70	1265,64
404,90	1257,45
405,11	1187,82
405,32	1271,79
405,52	1290,22
405,73	1263,60
405,94	1249,26
406,15	1271,79
406,35	1279,98
406,56	1292,27
406,77	1255,40
406,98	1294,32
407,18	1261,55
407,39	1294,32
407,60	1294,32
407,80	1269,74
408,01	1236,97
408,22	1279,98
408,43	1273,84
408,63	1288,17
408,84	1286,12
409,05	1292,27
409,25	1193,97
409,46	1284,08
409,67	1277,93
409,88	1318,89
410,08	1284,08
410,29	1282,03
410,50	1314,80
410,70	1298,41
410,91	1273,84
411,12	1251,31
411,32	1316,84
411,53	1255,40
411,74	1359,85
411,95	1263,60
412,15	1269,74
412,36	1216,49
412,57	1253,36
412,77	1239,02
412,98	1277,93
413,19	1296,36
413,39	1294,32
413,60	1300,46
413,81	1245,16
414,01	1296,36
414,22	1232,88
414,43	1294,32
414,63	1249,26
414,84	1263,60
415,05	1282,03
415,25	1247,21
415,46	1202,16
415,67	1286,12
415,87	1245,16
416,08	1304,56
416,29	1302,51
416,49	1312,75
416,70	1296,36
416,91	1259,50
417,11	1282,03
417,32	1284,08
417,53	1243,12
417,73	1212,40
417,94	1232,88
418,15	1337,32
418,35	1300,46
418,56	1275,88
418,77	1210,35
418,97	1277,93
419,18	1226,73
419,38	1275,88
419,59	1222,64
419,80	1314,80
420,00	1304,56
420,21	1206,25
420,42	1312,75
420,62	1273,84
420,83	1232,88
421,04	1314,80
421,24	1269,74
421,45	1259,50
421,65	1349,61
421,86	1265,64
422,07	1232,88
422,27	1267,69
422,48	1257,45
422,69	1306,60
422,89	1257,45
423,10	1333,23
423,30	1269,74
423,51	1300,46
423,72	1286,12
423,92	1253,36
424,13	1249,26
424,33	1282,03
424,54	1249,26
424,75	1322,99
424,95	1310,70
425,16	1304,56
425,36	1374,19
425,57	1206,25
425,78	1331,18
425,98	1335,28
426,19	1226,73
426,39	1243,12
426,60	1290,22
426,81	1267,69
427,01	1251,31
427,22	1337,32
427,42	1316,84
427,63	1257,45
427,83	1259,50
428,04	1261,55
428,25	1282,03
428,45	1247,21
428,66	1359,85
428,86	1267,69
429,07	1263,60
429,28	1271,79
429,48	1216,49
429,69	1277,93
429,89	1228,78
430,10	1341,42
430,30	1329,13
430,51	1277,93
430,71	1279,98
430,92	1292,27
431,13	1208,30
431,33	1224,69
431,54	1267,69
431,74	1183,73
431,95	1261,55
432,15	1236,97
432,36	1259,50
432,56	1255,40
432,77	1273,84
432,98	1284,08
433,18	1300,46
433,39	1302,51
433,59	1236,97
433,80	1298,41
434,00	1312,75
434,21	1314,80
434,41	1220,59
434,62	1257,45
434,82	1234,93
435,03	1224,69
435,23	1226,73
435,44	1239,02
435,64	1189,87
435,85	1284,08
436,06	1370,09
436,26	1273,84
436,47	1261,55
436,67	1294,32
436,88	1314,80
437,08	1288,17
437,29	1269,74
437,49	1314,80
437,70	1255,40
437,90	1247,21
438,11	1245,16
438,31	1243,12
438,52	1259,50
438,72	1241,07
438,93	1282,03
439,13	1308,65
439,34	1335,28
439,54	1218,54
439,75	1265,64
439,95	1288,17
440,16	1271,79
440,36	1269,74
440,57	1202,16
440,77	1204,21
440,98	1320,94
441,18	1282,03
441,39	1290,22
441,59	1322,99
441,80	1312,75
442,00	1210,35
442,21	1241,07
442,41	1259,50
442,62	1267,69
442,82	1275,88
443,02	1263,60
443,23	1224,69
443,43	1294,32
443,64	1243,12
443,84	1284,08
444,05	1304,56
444,25	1275,88
444,46	1255,40
444,66	1312,75
444,87	1185,77
445,07	1241,07
445,28	1290,22
445,48	1318,89
445,69	1306,60
445,89	1312,75
446,09	1232,88
446,30	1286,12
446,50	1288,17
446,71	1279,98
446,91	1282,03
447,12	1271,79
447,32	1298,41
447,53	1202,16
447,73	1306,60
447,93	1288,17
448,14	1267,69
448,34	1261,55
448,55	1296,36
448,75	1341,42
448,96	1249,26
449,16	1318,89
449,36	1241,07
449,57	1232,88
449,77	1267,69
449,98	1294,32
450,18	1288,17
450,39	1322,99
450,59	1282,03
450,79	1302,51
451,00	1222,64
451,20	1300,46
451,41	1288,17
451,61	1257,45
451,81	1263,60
452,02	1263,60
452,22	1337,32
452,43	1181,68
452,63	1255,40
452,84	1329,13
453,04	1265,64
453,24	1230,83
453,45	1259,50
453,65	1236,97
453,86	1245,16
454,06	1208,30
454,26	1296,36
454,47	1275,88
454,67	1239,02
454,87	1257,45
455,08	1153,01
455,28	1353,71
455,49	1290,22
455,69	1292,27
455,89	1222,64
456,10	1206,25
456,30	1251,31
456,51	1275,88
456,71	1220,59
456,91	1208,30
457,12	1322,99
457,32	1277,93
457,52	1187,82
457,73	1267,69
457,93	1294,32
458,14	1298,41
458,34	1271,79
458,54	1288,17
458,75	1267,69
458,95	1239,02
459,15	1327,08
459,36	1251,31
459,56	1253,36
459,76	1257,45
459,97	1234,93
460,17	1259,50
460,37	1232,88
460,58	1228,78
460,78	1327,08
460,99	1253,36
461,19	1282,03
461,39	1241,07
461,60	1232,88
461,80	1277,93
462,00	1271,79
462,21	1331,18
462,41	1329,13
462,61	1271,79
462,82	1351,66
463,02	1286,12
463,22	1216,49
463,43	1290,22
463,63	1259,50
463,83	1292,27
464,04	1345,52
464,24	1288,17
464,44	1288,17
464,64	1255,40
464,85	1257,45
465,05	1241,07
465,25	1234,93
465,46	1253,36
465,66	1279,98
465,86	1304,56
466,07	1263,60
466,27	1279,98
466,47	1222,64
466,68	1320,94
466,88	1255,40
467,08	1275,88
467,29	1257,45
467,49	1271,79
467,69	1279,98
467,89	1294,32
468,10	1232,88
468,30	1257,45
468,50	1318,89
468,71	1220,59
468,91	1259,50
469,11	1269,74
469,31	1214,45
469,52	1316,84
469,72	1173,49
469,92	1189,87
470,13	1304,56
470,33	1277,93
470,53	1329,13
470,73	1298,41
470,94	1300,46
471,14	1251,31
471,34	1298,41
471,54	1232,88
471,75	1222,64
471,95	1216,49
472,15	1312,75
472,36	1220,59
472,56	1282,03
472,76	1327,08
472,96	1218,54
473,17	1210,35
473,37	1265,64
473,57	1232,88
473,77	1273,84
473,98	1224,69
474,18	1296,36
474,38	1245,16
474,58	1224,69
474,79	1318,89
474,99	1271,79
475,19	1290,22
475,39	1220,59
475,60	1294,32
475,80	1222,64
476,00	1269,74
476,20	1296,36
476,41	1253,36
476,61	1286,12
476,81	1316,84
477,01	1267,69
477,21	1306,60
477,42	1273,84
477,62	1308,65
477,82	1300,46
478,02	1247,21
478,23	1218,54
478,43	1261,55
478,63	1296,36
478,83	1290,22
479,03	1230,83
479,24	1333,23
479,44	1282,03
479,64	1247,21
479,84	1288,17
480,04	1257,45
480,25	1288,17
480,45	1230,83
480,65	1232,88
480,85	1308,65
481,06	1187,82
481,26	1198,06
481,46	1249,26
481,66	1247,21
481,86	1216,49
482,06	1279,98
482,27	1226,73
482,47	1314,80
482,67	1232,88
482,87	1257,45
483,07	1343,47
483,28	1277,93
483,48	1251,31
483,68	1185,77
483,88	1259,50
484,08	1251,31
484,29	1257,45
484,49	1255,40
484,69	1239,02
484,89	1239,02
485,09	1359,85
485,29	1269,74
485,50	1169,39
485,70	1296,36
485,90	1267,69
486,10	1277,93
486,30	1292,27
486,50	1234,93
486,71	1265,64
486,91	1380,33
487,11	1312,75
487,31	1261,55
487,51	1322,99
487,71	1243,12
487,91	1222,64
488,12	1232,88
488,32	1300,46
488,52	1290,22
488,72	1234,93
488,92	1267,69
489,12	1306,60
489,32	1296,36
489,53	1314,80
489,73	1296,36
489,93	1339,37
490,13	1183,73
490,33	1347,56
490,53	1279,98
490,73	1320,94
490,94	1253,36
491,14	1273,84
491,34	1292,27
491,54	1253,36
491,74	1173,49
491,94	1329,13
492,14	1306,60
492,34	1273,84
492,54	1230,83
492,75	1290,22
492,95	1320,94
493,15	1212,40
493,35	1232,88
493,55	1212,40
493,75	1298,41
493,95	1279,98
494,15	1245,16
494,35	1218,54
494,56	1214,45
494,76	1224,69
494,96	1355,76
495,16	1224,69
495,36	1249,26
495,56	1331,18
495,76	1288,17
495,96	1259,50
496,16	1232,88
496,36	1286,12
496,56	1241,07
496,77	1273,84
496,97	1296,36
497,17	1249,26
497,37	1292,27
497,57	1351,66
497,77	1245,16
497,97	1279,98
498,17	1269,74
498,37	1239,02
498,57	1271,79
498,77	1314,80
498,97	1284,08
499,17	1320,94
499,38	1249,26
499,58	1220,59
499,78	1196,01
499,98	1239,02
500,18	1300,46
500,38	1286,12
500,58	1271,79
500,78	1222,64
500,98	1288,17
501,18	1288,17
501,38	1249,26
501,58	1247,21
501,78	1249,26
501,98	1212,40
502,18	1296,36
502,38	1331,18
502,58	1302,51
502,78	1292,27
502,98	1325,04
503,18	1333,23
503,38	1210,35
503,59	1288,17
503,79	1255,40
503,99	1269,74
504,19	1245,16
504,39	1263,60
504,59	1243,12
504,79	1314,80
504,99	1220,59
505,19	1257,45
505,39	1245,16
505,59	1263,60
505,79	1331,18
505,99	1249,26
506,19	1298,41
506,39	1292,27
506,59	1329,13
506,79	1243,12
506,99	1284,08
507,19	1290,22
507,39	1320,94
507,59	1232,88
507,79	1333,23
507,99	1257,45
508,19	1294,32
508,39	1255,40
508,59	1292,27
508,79	1241,07
508,99	1329,13
509,19	1212,40
509,39	1214,45
509,59	1243,12
509,79	1271,79
509,99	1302,51
510,19	1308,65
510,39	1286,12
510,59	1284,08
510,79	1230,83
510,99	1353,71
511,19	1269,74
511,39	1286,12
511,59	1320,94
511,79	1269,74
511,99	1277,93
512,19	1302,51
512,38	1308,65
512,58	1269,74
512,78	1312,75
512,98	1271,79
513,18	1216,49
513,38	1298,41
513,58	1331,18
513,78	1275,88
513,98	1265,64
514,18	1202,16
514,38	1245,16
514,58	1200,11
514,78	1288,17
514,98	1232,88
515,18	1261,55
515,38	1265,64
515,58	1284,08
515,78	1296,36
515,98	1198,06
516,18	1230,83
516,38	1210,35
516,57	1208,30
516,77	1239,02
516,97	1263,60
517,17	1251,31
517,37	1286,12
517,57	1279,98
517,77	1216,49
517,97	1300,46
518,17	1290,22
518,37	1322,99
518,57	1212,40
518,77	1263,60
518,97	1181,68
519,16	1267,69
519,36	1314,80
519,56	1279,98
519,76	1259,50
519,96	1236,97
520,16	1271,79
520,36	1320,94
520,56	1296,36
520,76	1218,54
520,96	1265,64
521,16	1273,84
521,35	1282,03
521,55	1275,88
521,75	1210,35
521,95	1306,60
522,15	1310,70
522,35	1351,66
522,55	1208,30
522,75	1271,79
522,95	1284,08
523,14	1218,54
523,34	1206,25
523,54	1263,60
523,74	1318,89
523,94	1286,12
524,14	1208,30
524,34	1288,17
524,54	1232,88
524,73	1337,32
524,93	1214,45
525,13	1284,08
525,33	1253,36
525,53	1282,03
525,73	1308,65
525,93	1298,41
526,13	1277,93
526,32	1241,07
526,52	1236,97
526,72	1275,88
526,92	1232,88
527,12	1322,99
527,32	1296,36
527,52	1320,94
527,71	1290,22
527,91	1267,69
528,11	1249,26
528,31	1226,73
528,51	1331,18
528,71	1282,03
528,90	1241,07
529,10	1310,70
529,30	1257,45
529,50	1343,47
529,70	1318,89
529,90	1361,90
530,09	1298,41
530,29	1239,02
530,49	1228,78
530,69	1208,30
530,89	1267,69
531,09	1312,75
531,28	1234,93
531,48	1251,31
531,68	1216,49
531,88	1247,21
532,08	1236,97
532,28	1245,16
532,47	1277,93
532,67	1202,16
532,87	1241,07
533,07	1331,18
533,27	1273,84
533,46	1247,21
533,66	1294,32
533,86	1261,55
534,06	1282,03
534,26	1277,93
534,45	1282,03
534,65	1296,36
534,85	1316,84
535,05	1286,12
535,25	1257,45
535,44	1230,83
535,64	1275,88
535,84	1292,27
536,04	1255,40
536,24	1245,16
536,43	1185,77
536,63	1249,26
536,83	1234,93
537,03	1222,64
537,22	1298,41
537,42	1282,03
537,62	1261,55
537,82	1277,93
538,02	1261,55
538,21	1255,40
538,41	1265,64
538,61	1284,08
538,81	1282,03
539,00	1271,79
539,20	1265,64
539,40	1249,26
539,60	1277,93
539,79	1255,40
539,99	1251,31
540,19	1329,13
540,39	1263,60
540,58	1273,84
540,78	1245,16
540,98	1284,08
541,18	1284,08
541,37	1216,49
541,57	1239,02
541,77	1273,84
541,97	1273,84
542,16	1265,64
542,36	1302,51
542,56	1239,02
542,76	1245,16
542,95	1247,21
543,15	1277,93
543,35	1263,60
543,54	1267,69
543,74	1282,03
543,94	1277,93
544,14	1210,35
544,33	1204,21
544,53	1269,74
544,73	1239,02
544,93	1267,69
545,12	1230,83
545,32	1329,13
545,52	1216,49
545,71	1300,46
545,91	1243,12
546,11	1214,45
546,30	1269,74
546,50	1322,99
546,70	1236,97
546,90	1224,69
547,09	1255,40
547,29	1279,98
547,49	1302,51
547,68	1261,55
547,88	1222,64
548,08	1257,45
548,27	1247,21
548,47	1251,31
548,67	1183,73
548,87	1366,00
549,06	1243,12
549,26	1331,18
549,46	1341,42
549,65	1249,26
549,85	1372,14
550,05	1275,88
550,24	1290,22
550,44	1226,73
550,64	1322,99
550,83	1296,36
551,03	1304,56
551,23	1302,51
551,42	1261,55
551,62	1245,16
551,82	1230,83
552,01	1247,21
552,21	1228,78
552,41	1290,22
552,60	1273,84
552,80	1306,60
553,00	1273,84
553,19	1294,32
553,39	1288,17
553,59	1218,54
553,78	1193,97
553,98	1267,69
554,17	1294,32
554,37	1200,11
554,57	1257,45
554,76	1241,07
554,96	1279,98
555,16	1322,99
555,35	1316,84
555,55	1263,60
555,75	1349,61
555,94	1236,97
556,14	1318,89
556,33	1279,98
556,53	1255,40
556,73	1273,84
556,92	1304,56
557,12	1275,88
557,32	1257,45
557,51	1298,41
557,71	1206,25
557,90	1322,99
558,10	1189,87
558,30	1234,93
558,49	1193,97
558,69	1239,02
558,88	1318,89
559,08	1290,22
559,28	1226,73
559,47	1218,54
559,67	1314,80
559,86	1308,65
560,06	1290,22
560,26	1247,21
560,45	1232,88
560,65	1284,08
560,84	1269,74
561,04	1239,02
561,24	1251,31
561,43	1294,32
561,63	1273,84
561,82	1282,03
562,02	1224,69
562,22	1327,08
562,41	1230,83
562,61	1284,08
562,80	1306,60
563,00	1232,88
563,19	1290,22
563,39	1247,21
563,59	1294,32
563,78	1275,88
563,98	1331,18
564,17	1247,21
564,37	1261,55
564,56	1294,32
564,76	1234,93
564,96	1232,88
565,15	1271,79
565,35	1345,52
565,54	1279,98
565,74	1286,12
565,93	1222,64
566,13	1341,42
566,32	1284,08
566,52	1222,64
566,71	1310,70
566,91	1361,90
567,11	1259,50
567,30	1224,69
567,50	1265,64
567,69	1353,71
567,89	1269,74
568,08	1310,70
568,28	1310,70
568,47	1312,75
568,67	1241,07
568,86	1306,60
569,06	1322,99
569,25	1308,65
569,45	1218,54
569,64	1222,64
569,84	1286,12
570,04	1308,65
570,23	1273,84
570,43	1304,56
570,62	1296,36
570,82	1318,89
571,01	1216,49
571,21	1292,27
571,40	1245,16
571,60	1234,93
571,79	1290,22
571,99	1273,84
572,18	1363,95
572,38	1218,54
572,57	1288,17
572,77	1210,35
572,96	1396,71
573,16	1288,17
573,35	1247,21
573,55	1300,46
573,74	1261,55
573,94	1236,97
574,13	1200,11
574,33	1290,22
574,52	1331,18
574,71	1251,31
574,91	1292,27
575,10	1255,40
575,30	1247,21
575,49	1206,25
575,69	1286,12
575,88	1331,18
576,08	1318,89
576,27	1259,50
576,47	1275,88
576,66	1273,84
576,86	1253,36
577,05	1329,13
577,25	1277,93
577,44	1320,94
577,64	1322,99
577,83	1249,26
578,02	1253,36
578,22	1245,16
578,41	1292,27
578,61	1292,27
578,80	1261,55
579,00	1245,16
579,19	1273,84
579,39	1345,52
579,58	1228,78
579,77	1273,84
579,97	1265,64
580,16	1253,36
580,36	1290,22
580,55	1347,56
580,75	1275,88
580,94	1279,98
581,13	1286,12
581,33	1275,88
581,52	1308,65
581,72	1296,36
581,91	1232,88
582,11	1275,88
582,30	1236,97
582,49	1347,56
582,69	1267,69
582,88	1304,56
583,08	1318,89
583,27	1243,12
583,47	1247,21
583,66	1267,69
583,85	1249,26
584,05	1292,27
584,24	1302,51
584,44	1312,75
584,63	1187,82
584,82	1208,30
585,02	1298,41
585,21	1239,02
585,41	1298,41
585,60	1296,36
585,79	1245,16
585,99	1347,56
586,18	1347,56
586,37	1296,36
586,57	1286,12
586,76	1279,98
586,96	1236,97
587,15	1329,13
587,34	1284,08
587,54	1273,84
587,73	1296,36
587,93	1228,78
588,12	1228,78
588,31	1275,88
588,51	1316,84
588,70	1296,36
588,89	1224,69
589,09	1312,75
589,28	1257,45
589,47	1228,78
589,67	1232,88
589,86	1224,69
590,06	1269,74
590,25	1267,69
590,44	1304,56
590,64	1290,22
590,83	1189,87
591,02	1269,74
591,22	1220,59
591,41	1265,64
591,60	1292,27
591,80	1257,45
591,99	1189,87
592,18	1279,98
592,38	1206,25
592,57	1298,41
592,76	1216,49
592,96	1292,27
593,15	1275,88
593,34	1255,40
593,54	1288,17
593,73	1228,78
593,92	1245,16
594,12	1220,59
594,31	1208,30
594,50	1239,02
594,70	1335,28
594,89	1255,40
595,08	1239,02
595,28	1288,17
595,47	1255,40
595,66	1306,60
595,86	1296,36
596,05	1312,75
596,24	1177,58
596,43	1232,88
596,63	1230,83
596,82	1269,74
597,01	1279,98
597,21	1277,93
597,40	1249,26
597,59	1351,66
597,79	1316,84
597,98	1236,97
598,17	1234,93
598,36	1206,25
598,56	1243,12
598,75	1327,08
598,94	1273,84
599,14	1269,74
599,33	1282,03
599,52	1288,17
599,71	1353,71
599,91	1288,17
600,10	1208,30
600,29	1314,80
600,48	1269,74
600,68	1222,64
600,87	1320,94
601,06	1257,45
601,26	1259,50
601,45	1269,74
601,64	1306,60
601,83	1241,07
602,03	1279,98
602,22	1257,45
602,41	1232,88
602,60	1320,94
602,80	1245,16
602,99	1294,32
603,18	1275,88
603,37	1325,04
603,57	1298,41
603,76	1279,98
603,95	1224,69
604,14	1236,97
604,34	1245,16
604,53	1261,55
604,72	1245,16
604,91	1273,84
605,10	1304,56
605,30	1234,93
605,49	1263,60
605,68	1282,03
605,87	1224,69
606,07	1253,36
606,26	1298,41
606,45	1245,16
606,64	1189,87
606,84	1232,88
607,03	1218,54
607,22	1191,92
607,41	1267,69
607,60	1282,03
607,80	1265,64
607,99	1275,88
608,18	1255,40
608,37	1259,50
608,56	1361,90
608,76	1298,41
608,95	1245,16
609,14	1304,56
609,33	1251,31
609,52	1282,03
609,72	1245,16
609,91	1292,27
610,10	1212,40
610,29	1228,78
610,48	1366,00
610,68	1343,47
610,87	1329,13
611,06	1251,31
611,25	1269,74
611,44	1261,55
611,63	1206,25
611,83	1239,02
612,02	1294,32
612,21	1239,02
612,40	1208,30
612,59	1269,74
612,79	1255,40
612,98	1267,69
613,17	1224,69
613,36	1251,31
613,55	1329,13
613,74	1306,60
613,93	1286,12
614,13	1292,27
614,32	1243,12
614,51	1263,60
614,70	1282,03
614,89	1273,84
615,08	1286,12
615,28	1288,17
615,47	1314,80
615,66	1304,56
615,85	1255,40
616,04	1304,56
616,23	1273,84
616,42	1271,79
616,62	1255,40
616,81	1232,88
617,00	1290,22
617,19	1306,60
617,38	1269,74
617,57	1314,80
617,76	1245,16
617,95	1224,69
618,15	1312,75
618,34	1325,04
618,53	1208,30
618,72	1312,75
618,91	1290,22
619,10	1318,89
619,29	1220,59
619,48	1204,21
619,68	1247,21
619,87	1306,60
620,06	1318,89
620,25	1239,02
620,44	1277,93
620,63	1286,12
620,82	1214,45
621,01	1259,50
621,20	1226,73
621,39	1253,36
621,59	1296,36
621,78	1294,32
621,97	1282,03
622,16	1236,97
622,35	1239,02
622,54	1257,45
622,73	1284,08
622,92	1308,65
623,11	1243,12
623,30	1298,41
623,49	1232,88
623,68	1269,74
623,88	1284,08
624,07	1337,32
624,26	1222,64
624,45	1230,83
624,64	1247,21
624,83	1263,60
625,02	1216,49
625,21	1269,74
625,40	1359,85
625,59	1249,26
625,78	1306,60
625,97	1277,93
626,16	1353,71
626,35	1193,97
626,54	1271,79
626,74	1288,17
626,93	1312,75
627,12	1314,80
627,31	1337,32
627,50	1288,17
627,69	1306,60
627,88	1298,41
628,07	1337,32
628,26	1271,79
628,45	1265,64
628,64	1290,22
628,83	1284,08
629,02	1286,12
629,21	1257,45
629,40	1325,04
629,59	1335,28
629,78	1296,36
629,97	1314,80
630,16	1349,61
630,35	1218,54
630,54	1343,47
630,73	1249,26
630,92	1263,60
631,11	1294,32
631,30	1318,89
631,49	1353,71
631,68	1429,48
631,87	1587,18
632,06	1798,12
632,25	1632,23
632,44	1695,72
632,63	1767,40
632,82	2133,98
633,01	2590,68
633,20	2410,46
633,39	2514,91
633,58	2312,16
633,77	2074,59
633,96	2271,20
634,15	2531,29
634,34	2754,52
634,53	2478,04
634,72	2217,95
634,91	1896,42
635,10	1861,60
635,29	1794,02
635,48	1787,88
635,67	1732,58
635,86	1677,29
636,05	1535,98
636,24	1495,02
636,43	1441,77
636,62	1378,28
636,81	1302,51
637,00	1431,53
637,19	1372,14
637,38	1333,23
637,57	1331,18
637,76	1355,76
637,95	1322,99
638,14	1294,32
638,33	1312,75
638,52	1239,02
638,71	1267,69
638,89	1216,49
639,08	1345,52
639,27	1361,90
639,46	1349,61
639,65	1308,65
639,84	1269,74
640,03	1374,19
640,22	1234,93
640,41	1345,52
640,60	1275,88
640,79	1277,93
640,98	1298,41
641,17	1273,84
641,36	1288,17
641,55	1271,79
641,74	1196,01
641,92	1314,80
642,11	1286,12
642,30	1316,84
642,49	1320,94
642,68	1239,02
642,87	1277,93
643,06	1284,08
643,25	1232,88
643,44	1222,64
643,63	1302,51
643,82	1288,17
644,00	1282,03
644,19	1298,41
644,38	1284,08
644,57	1286,12
644,76	1204,21
644,95	1296,36
645,14	1277,93
645,33	1222,64
645,52	1255,40
645,71	1232,88
645,89	1263,60
646,08	1392,62
646,27	1292,27
646,46	1337,32
646,65	1322,99
646,84	1271,79
647,03	1218,54
647,22	1290,22
647,40	1259,50
647,59	1247,21
647,78	1314,80
647,97	1222,64
648,16	1245,16
648,35	1341,42
648,54	1251,31
648,73	1226,73
648,91	1249,26
649,10	1318,89
649,29	1234,93
649,48	1363,95
649,67	1290,22
649,86	1234,93
650,05	1210,35
650,23	1234,93
650,42	1302,51
650,61	1224,69
650,80	1257,45
650,99	1304,56
651,18	1273,84
651,36	1292,27
651,55	1216,49
651,74	1314,80
651,93	1271,79
652,12	1241,07
652,31	1245,16
652,49	1286,12
652,68	1226,73
652,87	1271,79
653,06	1355,76
653,25	1263,60
653,44	1284,08
653,62	1316,84
653,81	1296,36
654,00	1294,32
654,19	1302,51
654,38	1294,32
654,56	1312,75
654,75	1294,32
654,94	1236,97
655,13	1304,56
655,32	1208,30
655,51	1232,88
655,69	1249,26
655,88	1239,02
656,07	1284,08
656,26	1265,64
656,45	1224,69
656,63	1265,64
656,82	1288,17
657,01	1300,46
657,20	1279,98
657,38	1232,88
657,57	1255,40
657,76	1294,32
657,95	1292,27
658,14	1191,92
658,32	1212,40
658,51	1294,32
658,70	1312,75
658,89	1306,60
659,08	1222,64
659,26	1267,69
659,45	1290,22
659,64	1380,33
659,83	1275,88
660,01	1284,08
660,20	1292,27
660,39	1249,26
660,58	1183,73
660,76	1216,49
660,95	1179,63
661,14	1239,02
661,33	1284,08
661,51	1232,88
661,70	1312,75
661,89	1347,56
662,08	1331,18
662,26	1296,36
662,45	1257,45
662,64	1325,04
662,83	1273,84
663,01	1218,54
663,20	1271,79
663,39	1271,79
663,58	1284,08
663,76	1288,17
663,95	1279,98
664,14	1269,74
664,32	1181,68
664,51	1314,80
664,70	1179,63
664,89	1306,60
665,07	1312,75
665,26	1331,18
665,45	1290,22
665,64	1302,51
665,82	1304,56
666,01	1269,74
666,20	1236,97
666,38	1189,87
666,57	1302,51
666,76	1261,55
666,95	1277,93
667,13	1294,32
667,32	1226,73
667,51	1265,64
667,69	1302,51
667,88	1277,93
668,07	1282,03
668,25	1261,55
668,44	1298,41
668,63	1253,36
668,81	1327,08
669,00	1288,17
669,19	1271,79
669,38	1275,88
669,56	1191,92
669,75	1302,51
669,94	1171,44
670,12	1241,07
670,31	1298,41
670,50	1306,60
670,68	1286,12
670,87	1292,27
671,06	1339,37
671,24	1224,69
671,43	1279,98
671,62	1366,00
671,80	1255,40
671,99	1282,03
672,18	1279,98
672,36	1288,17
672,55	1241,07
672,74	1306,60
672,92	1245,16
673,11	1292,27
673,29	1296,36
673,48	1294,32
673,67	1228,78
673,85	1267,69
674,04	1277,93
674,23	1273,84
674,41	1261,55
674,60	1298,41
674,79	1230,83
674,97	1232,88
675,16	1298,41
675,34	1216,49
675,53	1267,69
675,72	1226,73
675,90	1316,84
676,09	1273,84
676,28	1191,92
676,46	1279,98
676,65	1245,16
676,83	1245,16
677,02	1271,79
677,21	1200,11
677,39	1265,64
677,58	1273,84
677,77	1277,93
677,95	1312,75
678,14	1222,64
678,32	1204,21
678,51	1312,75
678,70	1230,83
678,88	1251,31
679,07	1261,55
679,25	1271,79
679,44	1288,17
679,63	1300,46
679,81	1259,50
680,00	1247,21
680,18	1175,53
680,37	1298,41
680,55	1292,27
680,74	1275,88
680,93	1216,49
681,11	1298,41
681,30	1232,88
681,48	1275,88
681,67	1288,17
681,85	1298,41
682,04	1263,60
682,23	1265,64
682,41	1253,36
682,60	1314,80
682,78	1349,61
682,97	1259,50
683,15	1298,41
683,34	1222,64
683,53	1320,94
683,71	1169,39
683,90	1249,26
684,08	1239,02
684,27	1187,82
684,45	1359,85
684,64	1296,36
684,82	1294,32
685,01	1306,60
685,19	1288,17
685,38	1294,32
685,57	1300,46
685,75	1296,36
685,94	1294,32
686,12	1224,69
686,31	1236,97
686,49	1265,64
686,68	1253,36
686,86	1261,55
687,05	1308,65
687,23	1343,47
687,42	1306,60
687,60	1292,27
687,79	1331,18
687,97	1230,83
688,16	1327,08
688,34	1259,50
688,53	1261,55
688,71	1261,55
688,90	1259,50
689,08	1236,97
689,27	1226,73
689,45	1259,50
689,64	1247,21
689,82	1249,26
690,01	1253,36
690,19	1337,32
690,38	1265,64
690,56	1255,40
690,75	1226,73
690,93	1265,64
691,12	1273,84
691,30	1273,84
691,49	1290,22
691,67	1296,36
691,86	1277,93
692,04	1292,27
692,23	1179,63
692,41	1261,55
692,60	1261,55
692,78	1222,64
692,97	1261,55
693,15	1259,50
693,34	1331,18
693,52	1298,41
693,71	1288,17
693,89	1312,75
694,08	1239,02
694,26	1292,27
694,44	1294,32
694,63	1290,22
694,81	1275,88
695,00	1249,26
695,18	1245,16
695,37	1314,80
695,55	1236,97
695,74	1296,36
695,92	1198,06
696,10	1325,04
696,29	1206,25
696,47	1314,80
696,66	1273,84
696,84	1234,93
697,03	1273,84
697,21	1316,84
697,40	1243,12
697,58	1265,64
697,76	1257,45
697,95	1279,98
698,13	1318,89
698,32	1296,36
698,50	1277,93
698,68	1239,02
698,87	1290,22
699,05	1296,36
699,24	1296,36
699,42	1312,75
699,61	1230,83
699,79	1232,88
699,97	1251,31
700,16	1210,35
700,34	1286,12
700,53	1325,04
700,71	1259,50
700,89	1286,12
701,08	1308,65
701,26	1265,64
701,45	1277,93
701,63	1273,84
701,81	1224,69
702,00	1267,69
702,18	1220,59
702,37	1259,50
702,55	1382,38
702,73	1245,16
702,92	1234,93
703,10	1271,79
703,28	1318,89
703,47	1241,07
703,65	1228,78
703,84	1282,03
704,02	1193,97
704,20	1292,27
704,39	1261,55
704,57	1298,41
704,75	1253,36
704,94	1312,75
705,12	1273,84
705,30	1343,47
705,49	1234,93
705,67	1339,37
705,86	1259,50
706,04	1265,64
706,22	1306,60
706,41	1200,11
706,59	1290,22
706,77	1241,07
706,96	1224,69
707,14	1341,42
707,32	1275,88
707,51	1224,69
707,69	1298,41
707,87	1253,36
708,06	1253,36
708,24	1290,22
708,42	1249,26
708,61	1331,18
708,79	1277,93
708,97	1294,32
709,16	1202,16
709,34	1243,12
709,52	1310,70
709,71	1179,63
709,89	1251,31
710,07	1275,88
710,26	1282,03
710,44	1245,16
710,62	1247,21
710,80	1290,22
710,99	1277,93
711,17	1290,22
711,35	1269,74
711,54	1263,60
711,72	1304,56
711,90	1265,64
712,09	1204,21
712,27	1251,31
712,45	1257,45
712,63	1275,88
712,82	1306,60
713,00	1318,89
713,18	1245,16
713,37	1279,98
713,55	1261,55
713,73	1286,12
713,91	1255,40
714,10	1325,04
714,28	1261,55
714,46	1269,74
714,65	1255,40
714,83	1273,84
715,01	1196,01
715,19	1271,79
715,38	1308,65
715,56	1284,08
715,74	1222,64
715,92	1279,98
716,11	1236,97
716,29	1259,50
716,47	1251,31
716,65	1325,04
716,84	1239,02
717,02	1320,94
717,20	1234,93
717,38	1308,65
717,57	1271,79
717,75	1273,84
717,93	1241,07
718,11	1294,32
718,30	1251,31
718,48	1279,98
718,66	1269,74
718,84	1265,64
719,03	1290,22
719,21	1273,84
719,39	1239,02
719,57	1247,21
719,75	1316,84
719,94	1257,45
720,12	1261,55
720,30	1306,60
720,48	1296,36
720,67	1191,92
720,85	1298,41
721,03	1206,25
721,21	1224,69
721,39	1308,65
721,58	1241,07
721,76	1249,26
721,94	1271,79
722,12	1279,98
722,30	1277,93
722,49	1236,97
722,67	1286,12
722,85	1271,79
723,03	1288,17
723,21	1277,93
723,40	1249,26
723,58	1181,68
723,76	1193,97
723,94	1286,12
724,12	1245,16
724,30	1277,93
724,49	1228,78
724,67	1353,71
724,85	1320,94
725,03	1306,60
725,21	1267,69
725,40	1230,83
725,58	1296,36
725,76	1296,36
725,94	1306,60
726,12	1306,60
726,30	1257,45
726,49	1257,45
726,67	1212,40
726,85	1306,60
727,03	1259,50
727,21	1265,64
727,39	1271,79
727,57	1331,18
727,76	1243,12
727,94	1230,83
728,12	1318,89
728,30	1294,32
728,48	1222,64
728,66	1296,36
728,84	1314,80
729,03	1310,70
729,21	1298,41
729,39	1222,64
729,57	1234,93
729,75	1212,40
729,93	1277,93
730,11	1230,83
730,30	1249,26
730,48	1249,26
730,66	1277,93
730,84	1263,60
731,02	1206,25
731,20	1296,36
731,38	1241,07
731,56	1318,89
731,74	1310,70
731,93	1314,80
732,11	1265,64
732,29	1279,98
732,47	1196,01
732,65	1288,17
732,83	1204,21
733,01	1253,36
733,19	1263,60
733,37	1300,46
733,56	1286,12
733,74	1259,50
733,92	1314,80
734,10	1232,88
734,28	1257,45
734,46	1282,03
734,64	1247,21
734,82	1320,94
735,00	1306,60
735,18	1286,12
735,36	1327,08
735,54	1255,40
735,73	1286,12
735,91	1275,88
736,09	1322,99
736,27	1253,36
736,45	1261,55
736,63	1312,75
736,81	1269,74
736,99	1265,64
737,17	1265,64
737,35	1249,26
737,53	1232,88
737,71	1263,60
737,89	1333,23
738,07	1261,55
738,25	1253,36
738,43	1265,64
738,61	1265,64
738,80	1232,88
738,98	1208,30
739,16	1253,36
739,34	1218,54
739,52	1265,64
739,70	1251,31
739,88	1265,64
740,06	1316,84
740,24	1241,07
740,42	1277,93
740,60	1185,77
740,78	1282,03
740,96	1312,75
741,14	1226,73
741,32	1279,98
741,50	1265,64
741,68	1304,56
741,86	1226,73
742,04	1292,27
742,22	1239,02
742,40	1212,40
742,58	1189,87
742,76	1257,45
742,94	1308,65
743,12	1220,59
743,30	1202,16
743,48	1251,31
743,66	1286,12
743,84	1329,13
744,02	1279,98
744,20	1286,12
744,38	1200,11
744,56	1284,08
744,74	1249,26
744,92	1288,17
745,10	1298,41
745,28	1339,37
745,46	1259,50
745,64	1357,80
745,82	1243,12
746,00	1251,31
746,18	1259,50
746,36	1218,54
746,54	1298,41
746,72	1204,21
746,90	1230,83
747,08	1210,35
747,26	1230,83
747,44	1247,21
747,62	1249,26
747,80	1282,03
747,98	1273,84
748,15	1304,56
748,33	1218,54
748,51	1208,30
748,69	1290,22
748,87	1288,17
749,05	1206,25
749,23	1302,51
749,41	1284,08
749,59	1259,50
749,77	1288,17
749,95	1236,97
750,13	1302,51
750,31	1279,98
750,49	1325,04
750,67	1318,89
750,85	1249,26
751,03	1259,50
751,20	1257,45
751,38	1247,21
751,56	1290,22
751,74	1341,42
751,92	1271,79
752,10	1263,60
752,28	1218,54
752,46	1286,12
752,64	1304,56
752,82	1273,84
753,00	1314,80
753,18	1290,22
753,35	1265,64
753,53	1214,45
753,71	1282,03
753,89	1234,93
754,07	1284,08
754,25	1265,64
754,43	1216,49
754,61	1257,45
754,79	1302,51
754,97	1277,93
755,14	1279,98
755,32	1312,75
755,50	1224,69
755,68	1347,56
755,86	1249,26
756,04	1271,79
756,22	1206,25
756,40	1355,76
756,57	1171,44
756,75	1263,60
756,93	1220,59
757,11	1214,45
757,29	1292,27
757,47	1230,83
757,65	1253,36
757,82	1294,32
758,00	1335,28
758,18	1216,49
758,36	1325,04
758,54	1261,55
758,72	1296,36
758,90	1265,64
759,07	1212,40
759,25	1279,98
759,43	1286,12
759,61	1306,60
759,79	1277,93
759,97	1331,18
760,15	1247,21
760,32	1255,40
760,50	1286,12
760,68	1292,27
760,86	1177,58
761,04	1236,97
761,22	1263,60
761,39	1216,49
761,57	1220,59
761,75	1249,26
761,93	1269,74
762,11	1222,64
762,28	1226,73
762,46	1216,49
762,64	1335,28
762,82	1318,89
763,00	1357,80
763,18	1267,69
763,35	1288,17
763,53	1257,45
763,71	1290,22
763,89	1236,97
764,07	1243,12
764,24	1361,90
764,42	1316,84
764,60	1312,75
764,78	1275,88
764,96	1265,64
765,13	1269,74
765,31	1290,22
765,49	1257,45
765,67	1232,88
765,84	1253,36
766,02	1265,64
766,20	1249,26
766,38	1357,80
766,56	1322,99
766,73	1251,31
766,91	1314,80
767,09	1212,40
767,27	1279,98
767,44	1282,03
767,62	1353,71
767,80	1226,73
767,98	1298,41
768,15	1290,22
768,33	1249,26
768,51	1318,89
768,69	1220,59
768,87	1314,80
769,04	1316,84
769,22	1294,32
769,40	1247,21
769,58	1251,31
769,75	1327,08
769,93	1294,32
770,11	1271,79
770,28	1282,03
770,46	1202,16
770,64	1214,45
770,82	1335,28
770,99	1273,84
771,17	1286,12
771,35	1263,60
771,53	1251,31
771,70	1251,31
771,88	1222,64
772,06	1333,23
772,23	1267,69
772,41	1273,84
772,59	1196,01
772,77	1265,64
772,94	1296,36
773,12	1298,41
773,30	1277,93
773,47	1255,40
773,65	1277,93
773,83	1230,83
774,01	1279,98
774,18	1234,93
774,36	1337,32
774,54	1304,56
774,71	1255,40
774,89	1286,12
775,07	1355,76
775,24	1261,55
775,42	1253,36
775,60	1308,65
775,78	1245,16
775,95	1232,88
776,13	1249,26
776,31	1320,94
776,48	1198,06
776,66	1304,56
776,84	1259,50
777,01	1288,17
777,19	1228,78
777,37	1304,56
777,54	1253,36
777,72	1314,80
777,90	1355,76
778,07	1247,21
778,25	1333,23
778,43	1294,32
778,60	1208,30
778,78	1282,03
778,96	1253,36
779,13	1247,21
779,31	1282,03
779,49	1322,99
779,66	1226,73
779,84	1249,26
780,01	1218,54
780,19	1206,25
780,37	1292,27
780,54	1249,26
780,72	1230,83
780,90	1288,17
781,07	1230,83
781,25	1243,12
781,43	1236,97
781,60	1298,41
781,78	1282,03
781,95	1230,83
782,13	1232,88
782,31	1241,07
782,48	1224,69
782,66	1245,16
782,83	1224,69
783,01	1218,54
783,19	1294,32
783,36	1273,84
783,54	1239,02
783,72	1212,40
783,89	1298,41
784,07	1318,89
784,24	1224,69
784,42	1249,26
784,60	1206,25
784,77	1255,40
784,95	1232,88
785,12	1275,88
785,30	1314,80
785,47	1333,23
785,65	1208,30
785,83	1341,42
786,00	1259,50
786,18	1355,76
786,35	1296,36
786,53	1316,84
786,71	1234,93
786,88	1255,40
787,06	1341,42
787,23	1308,65
787,41	1257,45
787,58	1273,84
787,76	1265,64
787,94	1263,60
788,11	1265,64
788,29	1232,88
788,46	1220,59
788,64	1255,40
788,81	1169,39
788,99	1241,07
789,16	1245,16
789,34	1273,84
789,52	1273,84
789,69	1290,22
789,87	1296,36
790,04	1247,21
790,22	1312,75
790,39	1300,46
790,57	1267,69
790,74	1329,13
790,92	1308,65
791,09	1318,89
791,27	1265,64
791,44	1290,22
791,62	1294,32
791,79	1212,40
791,97	1312,75
792,15	1320,94
792,32	1196,01
792,50	1314,80
792,67	1269,74
792,85	1282,03
793,02	1298,41
793,20	1312,75
793,37	1277,93
793,55	1300,46
793,72	1179,63
793,90	1277,93
794,07	1239,02
794,25	1239,02
794,42	1327,08
794,60	1292,27
794,77	1325,04
794,95	1292,27
795,12	1232,88
795,30	1304,56
795,47	1222,64
795,65	1271,79
795,82	1210,35
796,00	1200,11
796,17	1282,03
796,34	1267,69
796,52	1191,92
796,69	1269,74
796,87	1288,17
797,04	1263,60
797,22	1259,50
797,39	1241,07
797,57	1259,50
797,74	1286,12
797,92	1296,36
798,09	1282,03
798,27	1222,64
798,44	1226,73
798,62	1290,22
798,79	1292,27
798,96	1191,92
799,14	1249,26
799,31	1277,93
799,49	1236,97
799,66	1243,12
799,84	1218,54
800,01	1208,30
800,19	1312,75
800,36	1310,70
800,53	1308,65
800,71	1265,64
800,88	1277,93
801,06	1296,36
801,23	1232,88
801,41	1183,73
801,58	1290,22
801,75	1302,51
801,93	1282,03
802,10	1275,88
802,28	1259,50
802,45	1247,21
802,63	1265,64
802,80	1279,98
802,97	1255,40
803,15	1222,64
803,32	1288,17
803,50	1263,60
803,67	1259,50
803,84	1265,64
804,02	1255,40
804,19	1261,55
804,37	1347,56
804,54	1157,10
804,71	1304,56
804,89	1288,17
805,06	1306,60
805,24	1294,32
805,41	1245,16
805,58	1282,03
805,76	1288,17
805,93	1243,12
806,10	1271,79
806,28	1187,82
806,45	1288,17
806,63	1222,64
806,80	1290,22
806,97	1249,26
807,15	1271,79
807,32	1265,64
807,49	1277,93
807,67	1277,93
807,84	1347,56
808,01	1357,80
808,19	1236,97
808,36	1314,80
808,54	1292,27
808,71	1288,17
808,88	1277,93
809,06	1241,07
809,23	1273,84
809,40	1292,27
809,58	1247,21
809,75	1210,35
809,92	1251,31
810,10	1267,69
810,27	1265,64
810,44	1288,17
810,62	1306,60
810,79	1322,99
810,96	1204,21
811,14	1271,79
811,31	1247,21
811,48	1306,60
811,66	1294,32
811,83	1331,18
812,00	1259,50
812,18	1302,51
812,35	1220,59
812,52	1257,45
812,69	1253,36
812,87	1271,79
813,04	1310,70
813,21	1216,49
813,39	1318,89
813,56	1290,22
813,73	1257,45
813,91	1267,69
814,08	1265,64
814,25	1288,17
814,42	1282,03
814,60	1253,36
814,77	1241,07
814,94	1220,59
815,12	1206,25
815,29	1243,12
815,46	1200,11
815,63	1279,98
815,81	1292,27
815,98	1267,69
816,15	1259,50
816,33	1253,36
816,50	1300,46
816,67	1220,59
816,84	1226,73
817,02	1175,53
817,19	1282,03
817,36	1304,56
817,53	1294,32
817,71	1251,31
817,88	1279,98
818,05	1179,63
818,22	1236,97
818,40	1247,21
818,57	1300,46
818,74	1349,61
818,91	1230,83
819,09	1273,84
819,26	1253,36
819,43	1251,31
819,60	1228,78
819,78	1255,40
819,95	1173,49
820,12	1337,32
820,29	1279,98
820,47	1269,74
820,64	1308,65
820,81	1210,35
820,98	1189,87
821,15	1239,02
821,33	1167,34
821,50	1271,79
821,67	1345,52
821,84	1181,68
822,02	1189,87
822,19	1282,03
822,36	1224,69
822,53	1210,35
822,70	1267,69
822,88	1245,16
823,05	1216,49
823,22	1314,80
823,39	1249,26
823,56	1302,51
823,74	1322,99
823,91	1228,78
824,08	1310,70
824,25	1206,25
824,42	1267,69
824,60	1214,45
824,77	1253,36
824,94	1241,07
825,11	1290,22
825,28	1249,26
825,45	1306,60
825,63	1263,60
825,80	1282,03
825,97	1198,06
826,14	1302,51
826,31	1247,21
826,48	1220,59
826,66	1243,12
826,83	1308,65
827,00	1267,69
827,17	1265,64
827,34	1255,40
827,51	1183,73
827,69	1275,88
827,86	1257,45
828,03	1282,03
828,20	1224,69
828,37	1288,17
828,54	1249,26
828,71	1298,41
828,89	1314,80
829,06	1232,88
829,23	1259,50
829,40	1189,87
829,57	1253,36
829,74	1312,75
829,91	1218,54
830,09	1226,73
830,26	1265,64
830,43	1318,89
830,60	1263,60
830,77	1218,54
830,94	1292,27
831,11	1226,73
831,28	1263,60
831,46	1279,98
831,63	1216,49
831,80	1308,65
831,97	1286,12
832,14	1243,12
832,31	1196,01
832,48	1320,94
832,65	1325,04
832,82	1275,88
832,99	1271,79
833,17	1239,02
833,34	1290,22
833,51	1257,45
833,68	1322,99
833,85	1282,03
834,02	1239,02
834,19	1234,93
834,36	1253,36
834,53	1327,08
834,70	1290,22
834,87	1286,12
835,04	1294,32
835,22	1329,13
835,39	1212,40
835,56	1220,59
835,73	1370,09
835,90	1249,26
836,07	1290,22
836,24	1234,93
836,41	1288,17
836,58	1343,47
836,75	1234,93
836,92	1263,60
837,09	1247,21
837,26	1306,60
837,43	1226,73
837,60	1255,40
837,77	1312,75
837,94	1218,54
838,12	1179,63
838,29	1257,45
838,46	1249,26
838,63	1341,42
838,80	1216,49
838,97	1300,46
839,14	1226,73
839,31	1265,64
839,48	1312,75
839,65	1288,17
839,82	1251,31
839,99	1214,45
840,16	1286,12
840,33	1304,56
840,50	1279,98
840,67	1255,40
840,84	1275,88
841,01	1302,51
841,18	1290,22
841,35	1222,64
841,52	1304,56
841,69	1282,03
841,86	1257,45
842,03	1284,08
842,20	1314,80
842,37	1353,71
842,54	1245,16
842,71	1245,16
842,88	1257,45
843,05	1269,74
843,22	1279,98
843,39	1292,27
843,56	1239,02
843,73	1298,41
843,90	1355,76
844,07	1259,50
844,24	1222,64
844,41	1239,02
844,58	1361,90
844,75	1257,45
844,92	1396,71
845,09	1269,74
845,26	1216,49
845,43	1230,83
845,60	1308,65
845,77	1265,64
845,94	1241,07
846,10	1310,70
846,27	1224,69
846,44	1263,60
846,61	1331,18
846,78	1353,71
846,95	1288,17
847,12	1249,26
847,29	1226,73
847,46	1279,98
847,63	1294,32
847,80	1304,56
847,97	1226,73
848,14	1253,36
848,31	1306,60
848,48	1232,88
848,65	1255,40
848,82	1335,28
848,98	1290,22
849,15	1273,84
849,32	1355,76
849,49	1228,78
849,66	1282,03
849,83	1269,74
850,00	1353,71
850,17	1290,22
850,34	1232,88
850,51	1271,79
850,68	1341,42
850,85	1286,12
851,01	1347,56
851,18	1282,03
851,35	1286,12
851,52	1220,59
851,69	1275,88
851,86	1224,69
852,03	1228,78
852,20	1279,98
852,37	1304,56
852,53	1261,55
852,70	1339,37
852,87	1308,65
853,04	1224,69
853,21	1368,04
853,38	1263,60
853,55	1249,26
853,72	1286,12
853,89	1302,51
854,05	1306,60
854,22	1220,59
854,39	1236,97
854,56	1255,40
854,73	1263,60
854,90	1275,88
855,07	1239,02
855,23	1269,74
855,40	1308,65
855,57	1196,01
855,74	1277,93
855,91	1318,89
856,08	1279,98
856,25	1214,45
856,41	1273,84
856,58	1257,45
856,75	1284,08
856,92	1273,84
857,09	1304,56
857,26	1302,51
857,42	1200,11
857,59	1296,36
857,76	1218,54
857,93	1300,46
858,10	1232,88
858,27	1216,49
858,43	1257,45
858,60	1302,51
858,77	1236,97
858,94	1298,41
859,11	1210,35
859,27	1306,60
859,44	1327,08
859,61	1232,88
859,78	1288,17
859,95	1277,93
860,12	1279,98
860,28	1263,60
860,45	1290,22
860,62	1273,84
860,79	1214,45
860,95	1257,45
861,12	1241,07
861,29	1241,07
861,46	1355,76
861,63	1251,31
861,79	1247,21
861,96	1279,98
862,13	1333,23
862,30	1247,21
862,47	1298,41
862,63	1329,13
862,80	1269,74
862,97	1329,13
863,14	1298,41
863,30	1275,88
863,47	1275,88
863,64	1257,45
863,81	1290,22
863,97	1267,69
864,14	1224,69
864,31	1288,17
864,48	1247,21
864,65	1275,88
864,81	1265,64
864,98	1331,18
865,15	1271,79
865,32	1290,22
865,48	1312,75
865,65	1294,32
865,82	1267,69
865,98	1255,40
866,15	1331,18
866,32	1257,45
866,49	1284,08
866,65	1247,21
866,82	1224,69
866,99	1230,83
867,16	1232,88
867,32	1335,28
867,49	1241,07
867,66	1273,84
867,83	1275,88
867,99	1279,98
868,16	1282,03
868,33	1286,12
868,49	1232,88
868,66	1345,52
868,83	1288,17
868,99	1214,45
869,16	1325,04
869,33	1253,36
869,50	1302,51
869,66	1277,93
869,83	1259,50
870,00	1304,56
870,16	1275,88
870,33	1318,89
870,50	1290,22
870,66	1255,40
870,83	1279,98
871,00	1224,69
871,17	1282,03
871,33	1206,25
871,50	1249,26
871,67	1310,70
871,83	1200,11
872,00	1247,21
872,17	1306,60
872,33	1253,36
872,50	1216,49
872,67	1267,69
872,83	1181,68
873,00	1204,21
873,17	1200,11
873,33	1282,03
873,50	1234,93
873,67	1257,45
873,83	1306,60
874,00	1286,12
874,16	1273,84
874,33	1200,11
874,50	1273,84
874,66	1243,12
874,83	1308,65
875,00	1220,59
875,16	1310,70
875,33	1304,56
875,50	1306,60
875,66	1288,17
875,83	1304,56
875,99	1282,03
876,16	1273,84
876,33	1327,08
876,49	1261,55
876,66	1284,08
876,83	1255,40
876,99	1277,93
877,16	1294,32
877,32	1255,40
877,49	1259,50
877,66	1279,98
877,82	1224,69
877,99	1310,70
878,15	1282,03
878,32	1335,28
878,49	1298,41
878,65	1255,40
878,82	1273,84
878,98	1284,08
879,15	1304,56
879,32	1322,99
879,48	1269,74
879,65	1304,56
879,81	1273,84
879,98	1271,79
880,15	1306,60
880,31	1228,78
880,48	1210,35
880,64	1241,07
880,81	1228,78
880,97	1241,07
881,14	1236,97
881,31	1269,74
881,47	1243,12
881,64	1206,25
881,80	1226,73
881,97	1239,02
882,13	1230,83
882,30	1249,26
882,47	1251,31
882,63	1234,93
882,80	1261,55
882,96	1267,69
883,13	1279,98
883,29	1284,08
883,46	1204,21
883,62	1232,88
883,79	1292,27
883,95	1255,40
884,12	1259,50
884,29	1302,51
884,45	1290,22
884,62	1318,89
884,78	1247,21
884,95	1314,80
885,11	1363,95
885,28	1196,01
885,44	1366,00
885,61	1218,54
885,77	1292,27
885,94	1322,99
886,10	1304,56
886,27	1298,41
886,43	1290,22
886,60	1265,64
886,76	1320,94
886,93	1263,60
887,09	1275,88
887,26	1314,80
887,42	1331,18
887,59	1265,64
887,75	1314,80
887,92	1200,11
888,08	1292,27
888,25	1241,07
888,41	1267,69
888,58	1179,63
888,74	1210,35
888,91	1259,50
>>>>>End Processed Spectral Data<<<<<
