SpectraSuite Data File
++++++++++++++++++++++++++++++++++++
Date: Sun Apr 03 17:52:04 CEST 2016
User: root
Dark Spectrum Present: No
Reference Spectrum Present: No
Number of Sampled Component Spectra: 1
Spectrometers: USB4C02835
Integration Time (usec): 10000 (USB4C02835)
Spectra Averaged: 1 (USB4C02835)
Boxcar Smoothing: 0 (USB4C02835)
Correct for Electrical Dark: No (USB4C02835)
Strobe/Lamp Enabled: No (USB4C02835)
Correct for Detector Non-linearity: No (USB4C02835)
Correct for Stray Light: No (USB4C02835)
Number of Pixels in Processed Spectrum: 3648
>>>>>Begin Processed Spectral Data<<<<<
177,47	1279,98
177,69	1279,98
177,91	1279,98
178,13	1222,64
178,36	1247,21
178,58	1271,79
178,80	1271,79
179,02	1290,22
179,24	1325,04
179,46	1277,93
179,68	1296,36
179,90	1267,69
180,13	1257,45
180,35	1302,51
180,57	1214,45
180,79	1292,27
181,01	1214,45
181,23	1253,36
181,45	1298,41
181,67	1241,07
181,90	1345,52
182,12	1300,46
182,34	1232,88
182,56	1206,25
182,78	1294,32
183,00	1310,70
183,22	1249,26
183,44	1302,51
183,66	1296,36
183,89	1292,27
184,11	1284,08
184,33	1267,69
184,55	1288,17
184,77	1214,45
184,99	1249,26
185,21	1347,56
185,43	1271,79
185,65	1296,36
185,87	1286,12
186,10	1296,36
186,32	1273,84
186,54	1318,89
186,76	1306,60
186,98	1288,17
187,20	1241,07
187,42	1273,84
187,64	1296,36
187,86	1261,55
188,08	1234,93
188,30	1310,70
188,52	1228,78
188,75	1218,54
188,97	1253,36
189,19	1290,22
189,41	1251,31
189,63	1257,45
189,85	1290,22
190,07	1222,64
190,29	1243,12
190,51	1257,45
190,73	1257,45
190,95	1267,69
191,17	1296,36
191,39	1267,69
191,61	1253,36
191,84	1265,64
192,06	1294,32
192,28	1273,84
192,50	1232,88
192,72	1302,51
192,94	1304,56
193,16	1234,93
193,38	1202,16
193,60	1234,93
193,82	1210,35
194,04	1325,04
194,26	1290,22
194,48	1193,97
194,70	1236,97
194,92	1296,36
195,14	1267,69
195,36	1224,69
195,58	1275,88
195,80	1322,99
196,02	1329,13
196,24	1359,85
196,46	1286,12
196,69	1204,21
196,91	1292,27
197,13	1263,60
197,35	1249,26
197,57	1261,55
197,79	1222,64
198,01	1343,47
198,23	1222,64
198,45	1257,45
198,67	1320,94
198,89	1277,93
199,11	1302,51
199,33	1292,27
199,55	1198,06
199,77	1294,32
199,99	1259,50
200,21	1286,12
200,43	1208,30
200,65	1239,02
200,87	1245,16
201,09	1208,30
201,31	1261,55
201,53	1165,29
201,75	1226,73
201,97	1202,16
202,19	1261,55
202,41	1251,31
202,63	1279,98
202,85	1204,21
203,07	1259,50
203,29	1277,93
203,51	1304,56
203,73	1314,80
203,95	1257,45
204,17	1310,70
204,39	1220,59
204,61	1222,64
204,83	1265,64
205,05	1294,32
205,27	1253,36
205,49	1245,16
205,71	1263,60
205,93	1230,83
206,15	1282,03
206,37	1312,75
206,59	1296,36
206,81	1218,54
207,03	1247,21
207,25	1296,36
207,47	1249,26
207,69	1247,21
207,91	1187,82
208,13	1236,97
208,34	1267,69
208,56	1212,40
208,78	1331,18
209,00	1208,30
209,22	1349,61
209,44	1257,45
209,66	1247,21
209,88	1290,22
210,10	1243,12
210,32	1271,79
210,54	1255,40
210,76	1312,75
210,98	1300,46
211,20	1314,80
211,42	1216,49
211,64	1294,32
211,86	1263,60
212,08	1267,69
212,30	1271,79
212,52	1335,28
212,74	1306,60
212,96	1306,60
213,17	1314,80
213,39	1279,98
213,61	1304,56
213,83	1241,07
214,05	1202,16
214,27	1247,21
214,49	1239,02
214,71	1249,26
214,93	1275,88
215,15	1271,79
215,37	1265,64
215,59	1284,08
215,81	1271,79
216,03	1236,97
216,24	1230,83
216,46	1279,98
216,68	1249,26
216,90	1247,21
217,12	1257,45
217,34	1275,88
217,56	1300,46
217,78	1329,13
218,00	1269,74
218,22	1290,22
218,44	1282,03
218,66	1337,32
218,87	1234,93
219,09	1277,93
219,31	1415,15
219,53	1277,93
219,75	1308,65
219,97	1269,74
220,19	1212,40
220,41	1220,59
220,63	1290,22
220,85	1288,17
221,06	1296,36
221,28	1265,64
221,50	1239,02
221,72	1271,79
221,94	1228,78
222,16	1290,22
222,38	1253,36
222,60	1351,66
222,82	1204,21
223,03	1304,56
223,25	1284,08
223,47	1206,25
223,69	1226,73
223,91	1236,97
224,13	1296,36
224,35	1267,69
224,57	1269,74
224,78	1288,17
225,00	1298,41
225,22	1263,60
225,44	1273,84
225,66	1335,28
225,88	1230,83
226,10	1263,60
226,32	1273,84
226,53	1314,80
226,75	1234,93
226,97	1226,73
227,19	1232,88
227,41	1263,60
227,63	1224,69
227,85	1361,90
228,06	1200,11
228,28	1273,84
228,50	1279,98
228,72	1212,40
228,94	1259,50
229,16	1308,65
229,37	1282,03
229,59	1282,03
229,81	1247,21
230,03	1269,74
230,25	1329,13
230,47	1234,93
230,69	1216,49
230,90	1292,27
231,12	1292,27
231,34	1261,55
231,56	1363,95
231,78	1312,75
232,00	1261,55
232,21	1275,88
232,43	1290,22
232,65	1312,75
232,87	1198,06
233,09	1331,18
233,30	1302,51
233,52	1331,18
233,74	1314,80
233,96	1279,98
234,18	1263,60
234,40	1343,47
234,61	1249,26
234,83	1243,12
235,05	1327,08
235,27	1187,82
235,49	1224,69
235,70	1269,74
235,92	1271,79
236,14	1312,75
236,36	1298,41
236,58	1312,75
236,79	1253,36
237,01	1265,64
237,23	1232,88
237,45	1304,56
237,67	1253,36
237,88	1339,37
238,10	1284,08
238,32	1261,55
238,54	1288,17
238,76	1316,84
238,97	1189,87
239,19	1300,46
239,41	1296,36
239,63	1259,50
239,85	1273,84
240,06	1288,17
240,28	1308,65
240,50	1382,38
240,72	1245,16
240,93	1249,26
241,15	1263,60
241,37	1224,69
241,59	1298,41
241,81	1263,60
242,02	1267,69
242,24	1257,45
242,46	1286,12
242,68	1249,26
242,89	1247,21
243,11	1251,31
243,33	1296,36
243,55	1277,93
243,76	1306,60
243,98	1202,16
244,20	1318,89
244,42	1271,79
244,64	1265,64
244,85	1228,78
245,07	1296,36
245,29	1245,16
245,51	1271,79
245,72	1308,65
245,94	1298,41
246,16	1294,32
246,38	1279,98
246,59	1253,36
246,81	1249,26
247,03	1263,60
247,24	1249,26
247,46	1245,16
247,68	1265,64
247,90	1249,26
248,11	1230,83
248,33	1325,04
248,55	1265,64
248,77	1259,50
248,98	1263,60
249,20	1257,45
249,42	1224,69
249,64	1253,36
249,85	1193,97
250,07	1284,08
250,29	1288,17
250,50	1298,41
250,72	1249,26
250,94	1255,40
251,16	1290,22
251,37	1318,89
251,59	1288,17
251,81	1261,55
252,02	1294,32
252,24	1212,40
252,46	1271,79
252,68	1255,40
252,89	1351,66
253,11	1288,17
253,33	1273,84
253,54	1322,99
253,76	1247,21
253,98	1241,07
254,20	1290,22
254,41	1292,27
254,63	1220,59
254,85	1200,11
255,06	1298,41
255,28	1275,88
255,50	1224,69
255,71	1198,06
255,93	1277,93
256,15	1220,59
256,36	1322,99
256,58	1245,16
256,80	1206,25
257,02	1314,80
257,23	1255,40
257,45	1275,88
257,67	1318,89
257,88	1204,21
258,10	1247,21
258,32	1234,93
258,53	1302,51
258,75	1282,03
258,97	1306,60
259,18	1288,17
259,40	1253,36
259,62	1224,69
259,83	1277,93
260,05	1288,17
260,27	1320,94
260,48	1318,89
260,70	1271,79
260,92	1247,21
261,13	1232,88
261,35	1273,84
261,57	1265,64
261,78	1222,64
262,00	1228,78
262,22	1308,65
262,43	1279,98
262,65	1316,84
262,86	1310,70
263,08	1282,03
263,30	1363,95
263,51	1320,94
263,73	1304,56
263,95	1277,93
264,16	1185,77
264,38	1253,36
264,60	1247,21
264,81	1234,93
265,03	1249,26
265,25	1284,08
265,46	1239,02
265,68	1279,98
265,89	1241,07
266,11	1263,60
266,33	1302,51
266,54	1271,79
266,76	1200,11
266,98	1232,88
267,19	1218,54
267,41	1255,40
267,62	1236,97
267,84	1261,55
268,06	1226,73
268,27	1273,84
268,49	1343,47
268,70	1202,16
268,92	1247,21
269,14	1296,36
269,35	1296,36
269,57	1279,98
269,79	1349,61
270,00	1159,15
270,22	1249,26
270,43	1228,78
270,65	1269,74
270,87	1253,36
271,08	1226,73
271,30	1216,49
271,51	1351,66
271,73	1255,40
271,95	1296,36
272,16	1257,45
272,38	1273,84
272,59	1286,12
272,81	1226,73
273,02	1253,36
273,24	1228,78
273,46	1279,98
273,67	1273,84
273,89	1298,41
274,10	1234,93
274,32	1322,99
274,54	1265,64
274,75	1257,45
274,97	1298,41
275,18	1269,74
275,40	1337,32
275,61	1161,20
275,83	1300,46
276,05	1292,27
276,26	1277,93
276,48	1282,03
276,69	1282,03
276,91	1232,88
277,12	1257,45
277,34	1239,02
277,55	1239,02
277,77	1253,36
277,99	1259,50
278,20	1255,40
278,42	1255,40
278,63	1298,41
278,85	1249,26
279,06	1265,64
279,28	1341,42
279,49	1241,07
279,71	1304,56
279,93	1267,69
280,14	1247,21
280,36	1310,70
280,57	1279,98
280,79	1232,88
281,00	1247,21
281,22	1275,88
281,43	1316,84
281,65	1275,88
281,86	1144,81
282,08	1259,50
282,29	1327,08
282,51	1320,94
282,73	1275,88
282,94	1294,32
283,16	1331,18
283,37	1284,08
283,59	1267,69
283,80	1243,12
284,02	1208,30
284,23	1255,40
284,45	1206,25
284,66	1196,01
284,88	1343,47
285,09	1187,82
285,31	1273,84
285,52	1261,55
285,74	1271,79
285,95	1302,51
286,17	1232,88
286,38	1265,64
286,60	1236,97
286,81	1322,99
287,03	1320,94
287,24	1245,16
287,46	1290,22
287,67	1284,08
287,89	1306,60
288,10	1298,41
288,32	1224,69
288,53	1331,18
288,75	1302,51
288,96	1288,17
289,18	1292,27
289,39	1255,40
289,61	1347,56
289,82	1255,40
290,04	1298,41
290,25	1279,98
290,47	1316,84
290,68	1286,12
290,90	1271,79
291,11	1202,16
291,33	1208,30
291,54	1253,36
291,76	1216,49
291,97	1196,01
292,18	1226,73
292,40	1210,35
292,61	1239,02
292,83	1271,79
293,04	1255,40
293,26	1249,26
293,47	1279,98
293,69	1286,12
293,90	1312,75
294,12	1275,88
294,33	1226,73
294,55	1331,18
294,76	1296,36
294,97	1261,55
295,19	1265,64
295,40	1341,42
295,62	1286,12
295,83	1261,55
296,05	1247,21
296,26	1224,69
296,48	1269,74
296,69	1204,21
296,90	1277,93
297,12	1253,36
297,33	1277,93
297,55	1239,02
297,76	1208,30
297,98	1306,60
298,19	1198,06
298,41	1275,88
298,62	1251,31
298,83	1288,17
299,05	1257,45
299,26	1185,77
299,48	1279,98
299,69	1279,98
299,90	1249,26
300,12	1359,85
300,33	1230,83
300,55	1304,56
300,76	1257,45
300,98	1232,88
301,19	1220,59
301,40	1212,40
301,62	1222,64
301,83	1300,46
302,05	1273,84
302,26	1234,93
302,47	1275,88
302,69	1298,41
302,90	1265,64
303,12	1234,93
303,33	1292,27
303,54	1216,49
303,76	1282,03
303,97	1277,93
304,19	1261,55
304,40	1220,59
304,61	1228,78
304,83	1290,22
305,04	1300,46
305,26	1273,84
305,47	1296,36
305,68	1247,21
305,90	1312,75
306,11	1255,40
306,33	1286,12
306,54	1259,50
306,75	1288,17
306,97	1349,61
307,18	1236,97
307,39	1247,21
307,61	1257,45
307,82	1277,93
308,04	1249,26
308,25	1236,97
308,46	1294,32
308,68	1247,21
308,89	1210,35
309,10	1249,26
309,32	1181,68
309,53	1292,27
309,74	1245,16
309,96	1284,08
310,17	1249,26
310,39	1255,40
310,60	1263,60
310,81	1226,73
311,03	1263,60
311,24	1294,32
311,45	1345,52
311,67	1234,93
311,88	1343,47
312,09	1290,22
312,31	1251,31
312,52	1236,97
312,73	1253,36
312,95	1204,21
313,16	1214,45
313,37	1222,64
313,59	1288,17
313,80	1208,30
314,01	1265,64
314,23	1175,53
314,44	1404,91
314,65	1198,06
314,87	1294,32
315,08	1253,36
315,29	1294,32
315,51	1228,78
315,72	1290,22
315,93	1296,36
316,15	1271,79
316,36	1243,12
316,57	1312,75
316,79	1282,03
317,00	1253,36
317,21	1269,74
317,43	1275,88
317,64	1277,93
317,85	1345,52
318,07	1222,64
318,28	1265,64
318,49	1169,39
318,70	1257,45
318,92	1259,50
319,13	1204,21
319,34	1296,36
319,56	1193,97
319,77	1255,40
319,98	1245,16
320,20	1279,98
320,41	1316,84
320,62	1185,77
320,83	1292,27
321,05	1200,11
321,26	1378,28
321,47	1304,56
321,69	1345,52
321,90	1257,45
322,11	1226,73
322,32	1257,45
322,54	1300,46
322,75	1273,84
322,96	1308,65
323,18	1253,36
323,39	1355,76
323,60	1212,40
323,81	1267,69
324,03	1230,83
324,24	1286,12
324,45	1259,50
324,66	1261,55
324,88	1212,40
325,09	1214,45
325,30	1257,45
325,52	1322,99
325,73	1275,88
325,94	1347,56
326,15	1277,93
326,37	1214,45
326,58	1273,84
326,79	1327,08
327,00	1257,45
327,22	1279,98
327,43	1245,16
327,64	1279,98
327,85	1206,25
328,07	1277,93
328,28	1259,50
328,49	1222,64
328,70	1282,03
328,92	1247,21
329,13	1228,78
329,34	1320,94
329,55	1255,40
329,76	1226,73
329,98	1314,80
330,19	1314,80
330,40	1302,51
330,61	1265,64
330,83	1263,60
331,04	1273,84
331,25	1236,97
331,46	1269,74
331,68	1290,22
331,89	1308,65
332,10	1341,42
332,31	1279,98
332,52	1318,89
332,74	1234,93
332,95	1179,63
333,16	1273,84
333,37	1310,70
333,58	1214,45
333,80	1251,31
334,01	1292,27
334,22	1261,55
334,43	1232,88
334,64	1234,93
334,86	1304,56
335,07	1279,98
335,28	1271,79
335,49	1253,36
335,70	1267,69
335,92	1249,26
336,13	1273,84
336,34	1259,50
336,55	1200,11
336,76	1228,78
336,98	1368,04
337,19	1247,21
337,40	1275,88
337,61	1198,06
337,82	1257,45
338,04	1296,36
338,25	1234,93
338,46	1269,74
338,67	1320,94
338,88	1255,40
339,09	1296,36
339,31	1214,45
339,52	1230,83
339,73	1372,14
339,94	1304,56
340,15	1269,74
340,36	1204,21
340,58	1265,64
340,79	1304,56
341,00	1245,16
341,21	1298,41
341,42	1271,79
341,63	1277,93
341,85	1282,03
342,06	1251,31
342,27	1310,70
342,48	1333,23
342,69	1257,45
342,90	1347,56
343,12	1310,70
343,33	1277,93
343,54	1308,65
343,75	1331,18
343,96	1255,40
344,17	1165,29
344,38	1263,60
344,60	1251,31
344,81	1232,88
345,02	1241,07
345,23	1310,70
345,44	1255,40
345,65	1286,12
345,86	1265,64
346,07	1296,36
346,29	1218,54
346,50	1271,79
346,71	1224,69
346,92	1296,36
347,13	1298,41
347,34	1325,04
347,55	1208,30
347,76	1216,49
347,98	1239,02
348,19	1339,37
348,40	1228,78
348,61	1232,88
348,82	1347,56
349,03	1314,80
349,24	1255,40
349,45	1298,41
349,66	1208,30
349,88	1259,50
350,09	1243,12
350,30	1259,50
350,51	1245,16
350,72	1251,31
350,93	1245,16
351,14	1200,11
351,35	1290,22
351,56	1329,13
351,77	1263,60
351,99	1245,16
352,20	1232,88
352,41	1265,64
352,62	1232,88
352,83	1245,16
353,04	1269,74
353,25	1343,47
353,46	1337,32
353,67	1204,21
353,88	1263,60
354,09	1273,84
354,30	1302,51
354,52	1304,56
354,73	1288,17
354,94	1198,06
355,15	1241,07
355,36	1216,49
355,57	1263,60
355,78	1200,11
355,99	1259,50
356,20	1222,64
356,41	1183,73
356,62	1275,88
356,83	1314,80
357,04	1282,03
357,25	1290,22
357,46	1230,83
357,68	1255,40
357,89	1249,26
358,10	1310,70
358,31	1304,56
358,52	1265,64
358,73	1300,46
358,94	1282,03
359,15	1249,26
359,36	1329,13
359,57	1296,36
359,78	1253,36
359,99	1222,64
360,20	1282,03
360,41	1228,78
360,62	1275,88
360,83	1232,88
361,04	1292,27
361,25	1259,50
361,46	1269,74
361,67	1222,64
361,88	1267,69
362,09	1247,21
362,30	1294,32
362,51	1243,12
362,72	1267,69
362,93	1341,42
363,14	1282,03
363,35	1304,56
363,56	1308,65
363,78	1253,36
363,99	1263,60
364,20	1269,74
364,41	1210,35
364,62	1296,36
364,83	1257,45
365,04	1265,64
365,25	1304,56
365,46	1333,23
365,67	1232,88
365,88	1284,08
366,09	1259,50
366,30	1294,32
366,51	1251,31
366,72	1308,65
366,93	1236,97
367,14	1279,98
367,35	1243,12
367,56	1265,64
367,77	1261,55
367,98	1261,55
368,18	1263,60
368,39	1292,27
368,60	1232,88
368,81	1279,98
369,02	1226,73
369,23	1322,99
369,44	1216,49
369,65	1200,11
369,86	1296,36
370,07	1284,08
370,28	1357,80
370,49	1208,30
370,70	1347,56
370,91	1279,98
371,12	1241,07
371,33	1259,50
371,54	1265,64
371,75	1273,84
371,96	1284,08
372,17	1284,08
372,38	1253,36
372,59	1245,16
372,80	1316,84
373,01	1329,13
373,22	1279,98
373,43	1245,16
373,64	1288,17
373,85	1257,45
374,06	1286,12
374,26	1269,74
374,47	1220,59
374,68	1320,94
374,89	1357,80
375,10	1302,51
375,31	1239,02
375,52	1306,60
375,73	1359,85
375,94	1224,69
376,15	1322,99
376,36	1263,60
376,57	1394,67
376,78	1253,36
376,99	1239,02
377,20	1261,55
377,40	1267,69
377,61	1245,16
377,82	1290,22
378,03	1253,36
378,24	1302,51
378,45	1198,06
378,66	1288,17
378,87	1212,40
379,08	1271,79
379,29	1257,45
379,50	1216,49
379,71	1239,02
379,91	1265,64
380,12	1245,16
380,33	1277,93
380,54	1216,49
380,75	1279,98
380,96	1331,18
381,17	1261,55
381,38	1261,55
381,59	1247,21
381,80	1259,50
382,00	1273,84
382,21	1263,60
382,42	1247,21
382,63	1273,84
382,84	1224,69
383,05	1279,98
383,26	1304,56
383,47	1206,25
383,68	1320,94
383,88	1277,93
384,09	1300,46
384,30	1202,16
384,51	1220,59
384,72	1282,03
384,93	1247,21
385,14	1292,27
385,35	1292,27
385,55	1261,55
385,76	1247,21
385,97	1294,32
386,18	1343,47
386,39	1310,70
386,60	1259,50
386,81	1232,88
387,02	1273,84
387,22	1300,46
387,43	1214,45
387,64	1329,13
387,85	1206,25
388,06	1216,49
388,27	1232,88
388,48	1292,27
388,68	1224,69
388,89	1290,22
389,10	1191,92
389,31	1253,36
389,52	1279,98
389,73	1277,93
389,93	1279,98
390,14	1288,17
390,35	1249,26
390,56	1329,13
390,77	1247,21
390,98	1277,93
391,18	1284,08
391,39	1216,49
391,60	1284,08
391,81	1284,08
392,02	1228,78
392,23	1241,07
392,43	1224,69
392,64	1234,93
392,85	1198,06
393,06	1347,56
393,27	1314,80
393,47	1249,26
393,68	1245,16
393,89	1271,79
394,10	1208,30
394,31	1232,88
394,52	1247,21
394,72	1239,02
394,93	1294,32
395,14	1273,84
395,35	1337,32
395,56	1310,70
395,76	1310,70
395,97	1273,84
396,18	1191,92
396,39	1273,84
396,60	1265,64
396,80	1269,74
397,01	1288,17
397,22	1282,03
397,43	1282,03
397,64	1263,60
397,84	1253,36
398,05	1282,03
398,26	1212,40
398,47	1239,02
398,67	1259,50
398,88	1202,16
399,09	1288,17
399,30	1220,59
399,51	1271,79
399,71	1239,02
399,92	1255,40
400,13	1259,50
400,34	1212,40
400,54	1271,79
400,75	1247,21
400,96	1218,54
401,17	1296,36
401,37	1202,16
401,58	1249,26
401,79	1306,60
402,00	1316,84
402,21	1304,56
402,41	1277,93
402,62	1279,98
402,83	1265,64
403,04	1298,41
403,24	1257,45
403,45	1245,16
403,66	1296,36
403,87	1251,31
404,07	1224,69
404,28	1247,21
404,49	1271,79
404,70	1267,69
404,90	1282,03
405,11	1288,17
405,32	1218,54
405,52	1327,08
405,73	1327,08
405,94	1277,93
406,15	1296,36
406,35	1267,69
406,56	1310,70
406,77	1345,52
406,98	1216,49
407,18	1298,41
407,39	1253,36
407,60	1220,59
407,80	1265,64
408,01	1222,64
408,22	1222,64
408,43	1331,18
408,63	1290,22
408,84	1275,88
409,05	1279,98
409,25	1253,36
409,46	1253,36
409,67	1271,79
409,88	1232,88
410,08	1298,41
410,29	1275,88
410,50	1224,69
410,70	1312,75
410,91	1228,78
411,12	1288,17
411,32	1282,03
411,53	1247,21
411,74	1294,32
411,95	1306,60
412,15	1292,27
412,36	1232,88
412,57	1259,50
412,77	1304,56
412,98	1308,65
413,19	1277,93
413,39	1230,83
413,60	1286,12
413,81	1232,88
414,01	1261,55
414,22	1216,49
414,43	1277,93
414,63	1239,02
414,84	1265,64
415,05	1249,26
415,25	1247,21
415,46	1249,26
415,67	1267,69
415,87	1185,77
416,08	1341,42
416,29	1206,25
416,49	1279,98
416,70	1269,74
416,91	1288,17
417,11	1251,31
417,32	1275,88
417,53	1265,64
417,73	1308,65
417,94	1331,18
418,15	1314,80
418,35	1257,45
418,56	1312,75
418,77	1202,16
418,97	1306,60
419,18	1249,26
419,38	1206,25
419,59	1263,60
419,80	1312,75
420,00	1218,54
420,21	1277,93
420,42	1232,88
420,62	1294,32
420,83	1294,32
421,04	1335,28
421,24	1292,27
421,45	1316,84
421,65	1257,45
421,86	1202,16
422,07	1312,75
422,27	1286,12
422,48	1363,95
422,69	1282,03
422,89	1294,32
423,10	1271,79
423,30	1259,50
423,51	1415,15
423,72	1251,31
423,92	1261,55
424,13	1310,70
424,33	1257,45
424,54	1267,69
424,75	1314,80
424,95	1273,84
425,16	1327,08
425,36	1304,56
425,57	1320,94
425,78	1251,31
425,98	1245,16
426,19	1388,52
426,39	1282,03
426,60	1249,26
426,81	1322,99
427,01	1241,07
427,22	1290,22
427,42	1271,79
427,63	1224,69
427,83	1204,21
428,04	1273,84
428,25	1234,93
428,45	1267,69
428,66	1265,64
428,86	1236,97
429,07	1226,73
429,28	1249,26
429,48	1177,58
429,69	1239,02
429,89	1316,84
430,10	1271,79
430,30	1271,79
430,51	1261,55
430,71	1292,27
430,92	1294,32
431,13	1347,56
431,33	1183,73
431,54	1290,22
431,74	1273,84
431,95	1216,49
432,15	1294,32
432,36	1257,45
432,56	1187,82
432,77	1325,04
432,98	1185,77
433,18	1331,18
433,39	1312,75
433,59	1255,40
433,80	1249,26
434,00	1314,80
434,21	1290,22
434,41	1263,60
434,62	1337,32
434,82	1236,97
435,03	1243,12
435,23	1202,16
435,44	1216,49
435,64	1300,46
435,85	1271,79
436,06	1275,88
436,26	1247,21
436,47	1257,45
436,67	1261,55
436,88	1173,49
437,08	1282,03
437,29	1265,64
437,49	1345,52
437,70	1292,27
437,90	1271,79
438,11	1296,36
438,31	1316,84
438,52	1265,64
438,72	1255,40
438,93	1257,45
439,13	1189,87
439,34	1251,31
439,54	1234,93
439,75	1300,46
439,95	1230,83
440,16	1257,45
440,36	1284,08
440,57	1335,28
440,77	1265,64
440,98	1232,88
441,18	1353,71
441,39	1339,37
441,59	1286,12
441,80	1322,99
442,00	1230,83
442,21	1251,31
442,41	1236,97
442,62	1198,06
442,82	1300,46
443,02	1312,75
443,23	1220,59
443,43	1286,12
443,64	1247,21
443,84	1308,65
444,05	1300,46
444,25	1255,40
444,46	1288,17
444,66	1275,88
444,87	1247,21
445,07	1275,88
445,28	1212,40
445,48	1241,07
445,69	1224,69
445,89	1247,21
446,09	1261,55
446,30	1220,59
446,50	1249,26
446,71	1257,45
446,91	1331,18
447,12	1220,59
447,32	1243,12
447,53	1202,16
447,73	1228,78
447,93	1288,17
448,14	1204,21
448,34	1300,46
448,55	1288,17
448,75	1312,75
448,96	1255,40
449,16	1331,18
449,36	1230,83
449,57	1218,54
449,77	1312,75
449,98	1273,84
450,18	1318,89
450,39	1282,03
450,59	1288,17
450,79	1243,12
451,00	1267,69
451,20	1251,31
451,41	1265,64
451,61	1261,55
451,81	1347,56
452,02	1316,84
452,22	1286,12
452,43	1236,97
452,63	1239,02
452,84	1208,30
453,04	1247,21
453,24	1218,54
453,45	1196,01
453,65	1296,36
453,86	1224,69
454,06	1259,50
454,26	1249,26
454,47	1349,61
454,67	1322,99
454,87	1263,60
455,08	1292,27
455,28	1247,21
455,49	1249,26
455,69	1292,27
455,89	1245,16
456,10	1277,93
456,30	1255,40
456,51	1206,25
456,71	1253,36
456,91	1304,56
457,12	1273,84
457,32	1230,83
457,52	1277,93
457,73	1228,78
457,93	1304,56
458,14	1216,49
458,34	1265,64
458,54	1232,88
458,75	1273,84
458,95	1245,16
459,15	1241,07
459,36	1247,21
459,56	1290,22
459,76	1284,08
459,97	1345,52
460,17	1234,93
460,37	1226,73
460,58	1253,36
460,78	1267,69
460,99	1187,82
461,19	1222,64
461,39	1253,36
461,60	1263,60
461,80	1232,88
462,00	1261,55
462,21	1255,40
462,41	1277,93
462,61	1349,61
462,82	1304,56
463,02	1239,02
463,22	1241,07
463,43	1257,45
463,63	1257,45
463,83	1290,22
464,04	1210,35
464,24	1218,54
464,44	1255,40
464,64	1263,60
464,85	1318,89
465,05	1320,94
465,25	1247,21
465,46	1320,94
465,66	1234,93
465,86	1273,84
466,07	1271,79
466,27	1263,60
466,47	1261,55
466,68	1249,26
466,88	1353,71
467,08	1263,60
467,29	1333,23
467,49	1230,83
467,69	1263,60
467,89	1206,25
468,10	1243,12
468,30	1228,78
468,50	1204,21
468,71	1322,99
468,91	1239,02
469,11	1329,13
469,31	1263,60
469,52	1257,45
469,72	1322,99
469,92	1284,08
470,13	1302,51
470,33	1241,07
470,53	1234,93
470,73	1216,49
470,94	1222,64
471,14	1234,93
471,34	1308,65
471,54	1214,45
471,75	1212,40
471,95	1288,17
472,15	1296,36
472,36	1302,51
472,56	1304,56
472,76	1312,75
472,96	1320,94
473,17	1191,92
473,37	1331,18
473,57	1210,35
473,77	1275,88
473,98	1288,17
474,18	1239,02
474,38	1284,08
474,58	1329,13
474,79	1230,83
474,99	1257,45
475,19	1251,31
475,39	1255,40
475,60	1232,88
475,80	1298,41
476,00	1193,97
476,20	1298,41
476,41	1277,93
476,61	1271,79
476,81	1304,56
477,01	1296,36
477,21	1282,03
477,42	1208,30
477,62	1263,60
477,82	1310,70
478,02	1286,12
478,23	1337,32
478,43	1208,30
478,63	1282,03
478,83	1314,80
479,03	1259,50
479,24	1271,79
479,44	1275,88
479,64	1239,02
479,84	1236,97
480,04	1183,73
480,25	1296,36
480,45	1234,93
480,65	1220,59
480,85	1273,84
481,06	1294,32
481,26	1189,87
481,46	1314,80
481,66	1288,17
481,86	1263,60
482,06	1239,02
482,27	1249,26
482,47	1214,45
482,67	1269,74
482,87	1245,16
483,07	1302,51
483,28	1271,79
483,48	1241,07
483,68	1208,30
483,88	1228,78
484,08	1259,50
484,29	1265,64
484,49	1308,65
484,69	1226,73
484,89	1404,91
485,09	1282,03
485,29	1322,99
485,50	1286,12
485,70	1173,49
485,90	1298,41
486,10	1267,69
486,30	1308,65
486,50	1286,12
486,71	1290,22
486,91	1277,93
487,11	1275,88
487,31	1224,69
487,51	1271,79
487,71	1273,84
487,91	1247,21
488,12	1257,45
488,32	1304,56
488,52	1210,35
488,72	1247,21
488,92	1288,17
489,12	1220,59
489,32	1232,88
489,53	1294,32
489,73	1273,84
489,93	1253,36
490,13	1294,32
490,33	1292,27
490,53	1236,97
490,73	1236,97
490,94	1185,77
491,14	1263,60
491,34	1210,35
491,54	1247,21
491,74	1318,89
491,94	1257,45
492,14	1241,07
492,34	1216,49
492,54	1290,22
492,75	1255,40
492,95	1288,17
493,15	1306,60
493,35	1243,12
493,55	1247,21
493,75	1308,65
493,95	1245,16
494,15	1269,74
494,35	1230,83
494,56	1284,08
494,76	1286,12
494,96	1296,36
495,16	1257,45
495,36	1204,21
495,56	1251,31
495,76	1230,83
495,96	1277,93
496,16	1327,08
496,36	1265,64
496,56	1247,21
496,77	1251,31
496,97	1284,08
497,17	1294,32
497,37	1290,22
497,57	1241,07
497,77	1337,32
497,97	1296,36
498,17	1263,60
498,37	1269,74
498,57	1292,27
498,77	1304,56
498,97	1411,05
499,17	1273,84
499,38	1214,45
499,58	1275,88
499,78	1189,87
499,98	1239,02
500,18	1263,60
500,38	1251,31
500,58	1263,60
500,78	1259,50
500,98	1236,97
501,18	1288,17
501,38	1251,31
501,58	1265,64
501,78	1243,12
501,98	1243,12
502,18	1218,54
502,38	1267,69
502,58	1261,55
502,78	1191,92
502,98	1277,93
503,18	1234,93
503,38	1294,32
503,59	1282,03
503,79	1204,21
503,99	1331,18
504,19	1200,11
504,39	1255,40
504,59	1298,41
504,79	1249,26
504,99	1361,90
505,19	1232,88
505,39	1222,64
505,59	1275,88
505,79	1239,02
505,99	1316,84
506,19	1282,03
506,39	1298,41
506,59	1304,56
506,79	1316,84
506,99	1302,51
507,19	1255,40
507,39	1230,83
507,59	1277,93
507,79	1232,88
507,99	1222,64
508,19	1322,99
508,39	1263,60
508,59	1200,11
508,79	1214,45
508,99	1239,02
509,19	1351,66
509,39	1304,56
509,59	1249,26
509,79	1275,88
509,99	1239,02
510,19	1269,74
510,39	1273,84
510,59	1212,40
510,79	1277,93
510,99	1187,82
511,19	1306,60
511,39	1208,30
511,59	1312,75
511,79	1236,97
511,99	1308,65
512,19	1316,84
512,38	1290,22
512,58	1275,88
512,78	1290,22
512,98	1306,60
513,18	1347,56
513,38	1267,69
513,58	1251,31
513,78	1241,07
513,98	1290,22
514,18	1296,36
514,38	1298,41
514,58	1261,55
514,78	1306,60
514,98	1243,12
515,18	1306,60
515,38	1302,51
515,58	1288,17
515,78	1239,02
515,98	1232,88
516,18	1193,97
516,38	1277,93
516,57	1304,56
516,77	1249,26
516,97	1273,84
517,17	1247,21
517,37	1310,70
517,57	1296,36
517,77	1253,36
517,97	1224,69
518,17	1300,46
518,37	1294,32
518,57	1253,36
518,77	1261,55
518,97	1249,26
519,16	1204,21
519,36	1273,84
519,56	1263,60
519,76	1308,65
519,96	1308,65
520,16	1226,73
520,36	1282,03
520,56	1245,16
520,76	1282,03
520,96	1208,30
521,16	1325,04
521,35	1271,79
521,55	1304,56
521,75	1228,78
521,95	1288,17
522,15	1191,92
522,35	1288,17
522,55	1259,50
522,75	1183,73
522,95	1282,03
523,14	1265,64
523,34	1259,50
523,54	1210,35
523,74	1302,51
523,94	1255,40
524,14	1263,60
524,34	1239,02
524,54	1333,23
524,73	1279,98
524,93	1232,88
525,13	1255,40
525,33	1243,12
525,53	1292,27
525,73	1261,55
525,93	1275,88
526,13	1282,03
526,32	1189,87
526,52	1294,32
526,72	1208,30
526,92	1222,64
527,12	1234,93
527,32	1232,88
527,52	1304,56
527,71	1212,40
527,91	1210,35
528,11	1269,74
528,31	1234,93
528,51	1282,03
528,71	1247,21
528,90	1222,64
529,10	1277,93
529,30	1290,22
529,50	1202,16
529,70	1212,40
529,90	1273,84
530,09	1247,21
530,29	1247,21
530,49	1271,79
530,69	1349,61
530,89	1224,69
531,09	1308,65
531,28	1245,16
531,48	1292,27
531,68	1308,65
531,88	1292,27
532,08	1288,17
532,28	1259,50
532,47	1212,40
532,67	1249,26
532,87	1177,58
533,07	1243,12
533,27	1279,98
533,46	1314,80
533,66	1279,98
533,86	1314,80
534,06	1239,02
534,26	1271,79
534,45	1267,69
534,65	1239,02
534,85	1339,37
535,05	1273,84
535,25	1286,12
535,44	1269,74
535,64	1290,22
535,84	1304,56
536,04	1249,26
536,24	1298,41
536,43	1294,32
536,63	1263,60
536,83	1210,35
537,03	1306,60
537,22	1265,64
537,42	1259,50
537,62	1232,88
537,82	1251,31
538,02	1267,69
538,21	1320,94
538,41	1236,97
538,61	1228,78
538,81	1243,12
539,00	1294,32
539,20	1282,03
539,40	1212,40
539,60	1259,50
539,79	1255,40
539,99	1269,74
540,19	1300,46
540,39	1200,11
540,58	1224,69
540,78	1304,56
540,98	1226,73
541,18	1300,46
541,37	1257,45
541,57	1275,88
541,77	1241,07
541,97	1339,37
542,16	1273,84
542,36	1269,74
542,56	1370,09
542,76	1302,51
542,95	1198,06
543,15	1267,69
543,35	1230,83
543,54	1239,02
543,74	1298,41
543,94	1255,40
544,14	1271,79
544,33	1236,97
544,53	1234,93
544,73	1267,69
544,93	1306,60
545,12	1325,04
545,32	1257,45
545,52	1212,40
545,71	1271,79
545,91	1267,69
546,11	1257,45
546,30	1245,16
546,50	1288,17
546,70	1288,17
546,90	1327,08
547,09	1366,00
547,29	1306,60
547,49	1273,84
547,68	1269,74
547,88	1277,93
548,08	1327,08
548,27	1310,70
548,47	1167,34
548,67	1243,12
548,87	1255,40
549,06	1249,26
549,26	1290,22
549,46	1263,60
549,65	1218,54
549,85	1298,41
550,05	1251,31
550,24	1255,40
550,44	1329,13
550,64	1275,88
550,83	1298,41
551,03	1298,41
551,23	1275,88
551,42	1271,79
551,62	1300,46
551,82	1304,56
552,01	1378,28
552,21	1261,55
552,41	1226,73
552,60	1265,64
552,80	1284,08
553,00	1322,99
553,19	1284,08
553,39	1292,27
553,59	1228,78
553,78	1245,16
553,98	1329,13
554,17	1271,79
554,37	1277,93
554,57	1226,73
554,76	1220,59
554,96	1228,78
555,16	1226,73
555,35	1243,12
555,55	1208,30
555,75	1228,78
555,94	1230,83
556,14	1267,69
556,33	1302,51
556,53	1232,88
556,73	1222,64
556,92	1296,36
557,12	1265,64
557,32	1249,26
557,51	1288,17
557,71	1314,80
557,90	1302,51
558,10	1247,21
558,30	1316,84
558,49	1200,11
558,69	1296,36
558,88	1275,88
559,08	1275,88
559,28	1257,45
559,47	1232,88
559,67	1232,88
559,86	1306,60
560,06	1300,46
560,26	1265,64
560,45	1282,03
560,65	1279,98
560,84	1218,54
561,04	1267,69
561,24	1214,45
561,43	1282,03
561,63	1198,06
561,82	1312,75
562,02	1290,22
562,22	1310,70
562,41	1234,93
562,61	1310,70
562,80	1337,32
563,00	1345,52
563,19	1265,64
563,39	1228,78
563,59	1275,88
563,78	1232,88
563,98	1226,73
564,17	1230,83
564,37	1271,79
564,56	1290,22
564,76	1282,03
564,96	1271,79
565,15	1222,64
565,35	1259,50
565,54	1200,11
565,74	1234,93
565,93	1282,03
566,13	1267,69
566,32	1320,94
566,52	1251,31
566,71	1265,64
566,91	1296,36
567,11	1343,47
567,30	1271,79
567,50	1314,80
567,69	1234,93
567,89	1206,25
568,08	1275,88
568,28	1275,88
568,47	1239,02
568,67	1294,32
568,86	1322,99
569,06	1210,35
569,25	1265,64
569,45	1245,16
569,64	1243,12
569,84	1279,98
570,04	1200,11
570,23	1245,16
570,43	1345,52
570,62	1251,31
570,82	1284,08
571,01	1269,74
571,21	1224,69
571,40	1253,36
571,60	1273,84
571,79	1230,83
571,99	1241,07
572,18	1294,32
572,38	1288,17
572,57	1273,84
572,77	1341,42
572,96	1218,54
573,16	1273,84
573,35	1267,69
573,55	1277,93
573,74	1241,07
573,94	1306,60
574,13	1271,79
574,33	1273,84
574,52	1206,25
574,71	1208,30
574,91	1282,03
575,10	1249,26
575,30	1320,94
575,49	1310,70
575,69	1261,55
575,88	1308,65
576,08	1245,16
576,27	1257,45
576,47	1277,93
576,66	1327,08
576,86	1327,08
577,05	1271,79
577,25	1357,80
577,44	1253,36
577,64	1222,64
577,83	1300,46
578,02	1255,40
578,22	1286,12
578,41	1265,64
578,61	1255,40
578,80	1306,60
579,00	1288,17
579,19	1284,08
579,39	1259,50
579,58	1265,64
579,77	1384,43
579,97	1239,02
580,16	1210,35
580,36	1314,80
580,55	1298,41
580,75	1296,36
580,94	1263,60
581,13	1282,03
581,33	1259,50
581,52	1159,15
581,72	1202,16
581,91	1265,64
582,11	1304,56
582,30	1255,40
582,49	1232,88
582,69	1243,12
582,88	1243,12
583,08	1294,32
583,27	1304,56
583,47	1329,13
583,66	1316,84
583,85	1193,97
584,05	1298,41
584,24	1247,21
584,44	1245,16
584,63	1290,22
584,82	1290,22
585,02	1308,65
585,21	1241,07
585,41	1226,73
585,60	1200,11
585,79	1269,74
585,99	1308,65
586,18	1261,55
586,37	1292,27
586,57	1265,64
586,76	1282,03
586,96	1320,94
587,15	1277,93
587,34	1263,60
587,54	1296,36
587,73	1263,60
587,93	1230,83
588,12	1253,36
588,31	1236,97
588,51	1208,30
588,70	1243,12
588,89	1228,78
589,09	1263,60
589,28	1294,32
589,47	1282,03
589,67	1263,60
589,86	1187,82
590,06	1288,17
590,25	1187,82
590,44	1277,93
590,64	1241,07
590,83	1284,08
591,02	1245,16
591,22	1275,88
591,41	1271,79
591,60	1277,93
591,80	1302,51
591,99	1255,40
592,18	1236,97
592,38	1253,36
592,57	1296,36
592,76	1241,07
592,96	1265,64
593,15	1300,46
593,34	1267,69
593,54	1212,40
593,73	1308,65
593,92	1255,40
594,12	1222,64
594,31	1261,55
594,50	1257,45
594,70	1300,46
594,89	1302,51
595,08	1247,21
595,28	1234,93
595,47	1218,54
595,66	1191,92
595,86	1230,83
596,05	1265,64
596,24	1359,85
596,43	1265,64
596,63	1249,26
596,82	1255,40
597,01	1300,46
597,21	1320,94
597,40	1210,35
597,59	1271,79
597,79	1230,83
597,98	1298,41
598,17	1243,12
598,36	1216,49
598,56	1279,98
598,75	1273,84
598,94	1189,87
599,14	1273,84
599,33	1298,41
599,52	1368,04
599,71	1232,88
599,91	1214,45
600,10	1206,25
600,29	1216,49
600,48	1257,45
600,68	1202,16
600,87	1230,83
601,06	1241,07
601,26	1243,12
601,45	1318,89
601,64	1282,03
601,83	1357,80
602,03	1179,63
602,22	1255,40
602,41	1302,51
602,60	1306,60
602,80	1314,80
602,99	1290,22
603,18	1255,40
603,37	1265,64
603,57	1208,30
603,76	1259,50
603,95	1259,50
604,14	1212,40
604,34	1314,80
604,53	1228,78
604,72	1275,88
604,91	1175,53
605,10	1308,65
605,30	1222,64
605,49	1357,80
605,68	1431,53
605,87	1261,55
606,07	1263,60
606,26	1253,36
606,45	1288,17
606,64	1363,95
606,84	1282,03
607,03	1247,21
607,22	1267,69
607,41	1277,93
607,60	1263,60
607,80	1335,28
607,99	1255,40
608,18	1253,36
608,37	1255,40
608,56	1308,65
608,76	1265,64
608,95	1249,26
609,14	1257,45
609,33	1279,98
609,52	1320,94
609,72	1257,45
609,91	1288,17
610,10	1241,07
610,29	1292,27
610,48	1288,17
610,68	1224,69
610,87	1261,55
611,06	1331,18
611,25	1249,26
611,44	1282,03
611,63	1269,74
611,83	1271,79
612,02	1275,88
612,21	1329,13
612,40	1228,78
612,59	1288,17
612,79	1245,16
612,98	1191,92
613,17	1243,12
613,36	1284,08
613,55	1341,42
613,74	1284,08
613,93	1288,17
614,13	1171,44
614,32	1325,04
614,51	1253,36
614,70	1212,40
614,89	1271,79
615,08	1216,49
615,28	1286,12
615,47	1253,36
615,66	1306,60
615,85	1322,99
616,04	1267,69
616,23	1191,92
616,42	1239,02
616,62	1239,02
616,81	1366,00
617,00	1241,07
617,19	1282,03
617,38	1343,47
617,57	1300,46
617,76	1236,97
617,95	1273,84
618,15	1282,03
618,34	1314,80
618,53	1273,84
618,72	1300,46
618,91	1204,21
619,10	1284,08
619,29	1241,07
619,48	1284,08
619,68	1234,93
619,87	1224,69
620,06	1243,12
620,25	1288,17
620,44	1255,40
620,63	1282,03
620,82	1263,60
621,01	1337,32
621,20	1234,93
621,39	1322,99
621,59	1234,93
621,78	1314,80
621,97	1345,52
622,16	1327,08
622,35	1222,64
622,54	1288,17
622,73	1230,83
622,92	1296,36
623,11	1279,98
623,30	1253,36
623,49	1249,26
623,68	1318,89
623,88	1251,31
624,07	1204,21
624,26	1212,40
624,45	1318,89
624,64	1253,36
624,83	1265,64
625,02	1312,75
625,21	1286,12
625,40	1239,02
625,59	1251,31
625,78	1349,61
625,97	1316,84
626,16	1341,42
626,35	1300,46
626,54	1155,05
626,74	1312,75
626,93	1265,64
627,12	1304,56
627,31	1290,22
627,50	1249,26
627,69	1277,93
627,88	1304,56
628,07	1269,74
628,26	1284,08
628,45	1247,21
628,64	1374,19
628,83	1329,13
629,02	1234,93
629,21	1294,32
629,40	1193,97
629,59	1286,12
629,78	1411,05
629,97	1267,69
630,16	1247,21
630,35	1359,85
630,54	1230,83
630,73	1243,12
630,92	1265,64
631,11	1331,18
631,30	1359,85
631,49	1284,08
631,68	1419,24
631,87	1411,05
632,06	1519,59
632,25	1449,96
632,44	1443,82
632,63	1449,96
632,82	1644,52
633,01	2095,07
633,20	1611,75
633,39	1587,18
633,58	1671,14
633,77	1738,73
633,96	1708,01
634,15	1597,42
634,34	1677,29
634,53	1585,13
634,72	1564,65
634,91	1505,26
635,10	1527,78
635,29	1433,58
635,48	1478,63
635,67	1474,54
635,86	1476,59
636,05	1433,58
636,24	1363,95
636,43	1427,43
636,62	1228,78
636,81	1290,22
637,00	1333,23
637,19	1294,32
637,38	1282,03
637,57	1282,03
637,76	1243,12
637,95	1302,51
638,14	1304,56
638,33	1372,14
638,52	1306,60
638,71	1267,69
638,89	1279,98
639,08	1388,52
639,27	1251,31
639,46	1294,32
639,65	1282,03
639,84	1284,08
640,03	1271,79
640,22	1230,83
640,41	1216,49
640,60	1257,45
640,79	1327,08
640,98	1312,75
641,17	1298,41
641,36	1241,07
641,55	1304,56
641,74	1282,03
641,92	1296,36
642,11	1234,93
642,30	1269,74
642,49	1302,51
642,68	1273,84
642,87	1310,70
643,06	1230,83
643,25	1232,88
643,44	1322,99
643,63	1218,54
643,82	1347,56
644,00	1261,55
644,19	1187,82
644,38	1282,03
644,57	1200,11
644,76	1273,84
644,95	1251,31
645,14	1265,64
645,33	1273,84
645,52	1273,84
645,71	1232,88
645,89	1320,94
646,08	1282,03
646,27	1224,69
646,46	1232,88
646,65	1216,49
646,84	1282,03
647,03	1245,16
647,22	1243,12
647,40	1271,79
647,59	1320,94
647,78	1202,16
647,97	1296,36
648,16	1245,16
648,35	1277,93
648,54	1206,25
648,73	1253,36
648,91	1234,93
649,10	1286,12
649,29	1320,94
649,48	1294,32
649,67	1279,98
649,86	1279,98
650,05	1288,17
650,23	1271,79
650,42	1288,17
650,61	1335,28
650,80	1261,55
650,99	1230,83
651,18	1239,02
651,36	1208,30
651,55	1314,80
651,74	1337,32
651,93	1296,36
652,12	1304,56
652,31	1228,78
652,49	1263,60
652,68	1257,45
652,87	1322,99
653,06	1327,08
653,25	1279,98
653,44	1304,56
653,62	1236,97
653,81	1263,60
654,00	1320,94
654,19	1232,88
654,38	1316,84
654,56	1259,50
654,75	1308,65
654,94	1224,69
655,13	1339,37
655,32	1345,52
655,51	1265,64
655,69	1304,56
655,88	1298,41
656,07	1212,40
656,26	1288,17
656,45	1249,26
656,63	1265,64
656,82	1216,49
657,01	1327,08
657,20	1284,08
657,38	1306,60
657,57	1247,21
657,76	1279,98
657,95	1261,55
658,14	1275,88
658,32	1288,17
658,51	1355,76
658,70	1191,92
658,89	1282,03
659,08	1269,74
659,26	1228,78
659,45	1230,83
659,64	1320,94
659,83	1284,08
660,01	1314,80
660,20	1282,03
660,39	1306,60
660,58	1249,26
660,76	1269,74
660,95	1181,68
661,14	1245,16
661,33	1329,13
661,51	1236,97
661,70	1304,56
661,89	1282,03
662,08	1247,21
662,26	1236,97
662,45	1249,26
662,64	1273,84
662,83	1265,64
663,01	1318,89
663,20	1185,77
663,39	1191,92
663,58	1275,88
663,76	1204,21
663,95	1243,12
664,14	1247,21
664,32	1279,98
664,51	1232,88
664,70	1239,02
664,89	1288,17
665,07	1196,01
665,26	1232,88
665,45	1259,50
665,64	1298,41
665,82	1247,21
666,01	1271,79
666,20	1239,02
666,38	1331,18
666,57	1220,59
666,76	1302,51
666,95	1212,40
667,13	1261,55
667,32	1282,03
667,51	1187,82
667,69	1183,73
667,88	1228,78
668,07	1161,20
668,25	1216,49
668,44	1316,84
668,63	1316,84
668,81	1261,55
669,00	1245,16
669,19	1253,36
669,38	1251,31
669,56	1210,35
669,75	1216,49
669,94	1298,41
670,12	1284,08
670,31	1312,75
670,50	1263,60
670,68	1263,60
670,87	1282,03
671,06	1171,44
671,24	1230,83
671,43	1269,74
671,62	1341,42
671,80	1232,88
671,99	1329,13
672,18	1286,12
672,36	1296,36
672,55	1277,93
672,74	1353,71
672,92	1218,54
673,11	1241,07
673,29	1241,07
673,48	1251,31
673,67	1322,99
673,85	1286,12
674,04	1193,97
674,23	1200,11
674,41	1267,69
674,60	1273,84
674,79	1277,93
674,97	1249,26
675,16	1288,17
675,34	1282,03
675,53	1286,12
675,72	1255,40
675,90	1271,79
676,09	1288,17
676,28	1200,11
676,46	1232,88
676,65	1279,98
676,83	1257,45
677,02	1232,88
677,21	1243,12
677,39	1226,73
677,58	1267,69
677,77	1232,88
677,95	1191,92
678,14	1269,74
678,32	1257,45
678,51	1181,68
678,70	1214,45
678,88	1251,31
679,07	1255,40
679,25	1259,50
679,44	1253,36
679,63	1265,64
679,81	1271,79
680,00	1284,08
680,18	1288,17
680,37	1265,64
680,55	1245,16
680,74	1292,27
680,93	1302,51
681,11	1300,46
681,30	1331,18
681,48	1249,26
681,67	1251,31
681,85	1241,07
682,04	1271,79
682,23	1279,98
682,41	1263,60
682,60	1228,78
682,78	1259,50
682,97	1294,32
683,15	1208,30
683,34	1212,40
683,53	1318,89
683,71	1320,94
683,90	1204,21
684,08	1298,41
684,27	1255,40
684,45	1308,65
684,64	1189,87
684,82	1282,03
685,01	1253,36
685,19	1322,99
685,38	1239,02
685,57	1322,99
685,75	1279,98
685,94	1230,83
686,12	1216,49
686,31	1277,93
686,49	1273,84
686,68	1206,25
686,86	1253,36
687,05	1241,07
687,23	1181,68
687,42	1234,93
687,60	1308,65
687,79	1273,84
687,97	1339,37
688,16	1302,51
688,34	1230,83
688,53	1306,60
688,71	1282,03
688,90	1257,45
689,08	1263,60
689,27	1277,93
689,45	1333,23
689,64	1255,40
689,82	1282,03
690,01	1275,88
690,19	1265,64
690,38	1292,27
690,56	1325,04
690,75	1263,60
690,93	1206,25
691,12	1257,45
691,30	1282,03
691,49	1224,69
691,67	1286,12
691,86	1310,70
692,04	1257,45
692,23	1322,99
692,41	1300,46
692,60	1243,12
692,78	1331,18
692,97	1275,88
693,15	1255,40
693,34	1189,87
693,52	1245,16
693,71	1273,84
693,89	1284,08
694,08	1245,16
694,26	1214,45
694,44	1257,45
694,63	1232,88
694,81	1255,40
695,00	1318,89
695,18	1239,02
695,37	1275,88
695,55	1241,07
695,74	1290,22
695,92	1230,83
696,10	1282,03
696,29	1284,08
696,47	1193,97
696,66	1234,93
696,84	1282,03
697,03	1290,22
697,21	1359,85
697,40	1363,95
697,58	1312,75
697,76	1241,07
697,95	1259,50
698,13	1288,17
698,32	1253,36
698,50	1341,42
698,68	1253,36
698,87	1247,21
699,05	1279,98
699,24	1267,69
699,42	1288,17
699,61	1230,83
699,79	1273,84
699,97	1331,18
700,16	1288,17
700,34	1255,40
700,53	1298,41
700,71	1267,69
700,89	1243,12
701,08	1220,59
701,26	1273,84
701,45	1335,28
701,63	1296,36
701,81	1286,12
702,00	1290,22
702,18	1241,07
702,37	1239,02
702,55	1265,64
702,73	1265,64
702,92	1275,88
703,10	1347,56
703,28	1261,55
703,47	1273,84
703,65	1320,94
703,84	1220,59
704,02	1333,23
704,20	1261,55
704,39	1275,88
704,57	1204,21
704,75	1322,99
704,94	1314,80
705,12	1329,13
705,30	1249,26
705,49	1212,40
705,67	1253,36
705,86	1277,93
706,04	1271,79
706,22	1261,55
706,41	1261,55
706,59	1251,31
706,77	1294,32
706,96	1222,64
707,14	1230,83
707,32	1204,21
707,51	1273,84
707,69	1298,41
707,87	1320,94
708,06	1359,85
708,24	1306,60
708,42	1245,16
708,61	1275,88
708,79	1228,78
708,97	1249,26
709,16	1277,93
709,34	1259,50
709,52	1282,03
709,71	1288,17
709,89	1300,46
710,07	1214,45
710,26	1206,25
710,44	1259,50
710,62	1290,22
710,80	1292,27
710,99	1230,83
711,17	1239,02
711,35	1265,64
711,54	1359,85
711,72	1275,88
711,90	1265,64
712,09	1310,70
712,27	1290,22
712,45	1329,13
712,63	1275,88
712,82	1302,51
713,00	1239,02
713,18	1294,32
713,37	1282,03
713,55	1322,99
713,73	1318,89
713,91	1298,41
714,10	1265,64
714,28	1333,23
714,46	1312,75
714,65	1261,55
714,83	1243,12
715,01	1394,67
715,19	1271,79
715,38	1298,41
715,56	1150,96
715,74	1212,40
715,92	1312,75
716,11	1263,60
716,29	1271,79
716,47	1245,16
716,65	1222,64
716,84	1243,12
717,02	1249,26
717,20	1224,69
717,38	1304,56
717,57	1273,84
717,75	1255,40
717,93	1259,50
718,11	1226,73
718,30	1265,64
718,48	1259,50
718,66	1310,70
718,84	1271,79
719,03	1298,41
719,21	1236,97
719,39	1230,83
719,57	1288,17
719,75	1249,26
719,94	1228,78
720,12	1306,60
720,30	1259,50
720,48	1347,56
720,67	1251,31
720,85	1333,23
721,03	1257,45
721,21	1232,88
721,39	1239,02
721,58	1259,50
721,76	1222,64
721,94	1257,45
722,12	1257,45
722,30	1271,79
722,49	1273,84
722,67	1243,12
722,85	1263,60
723,03	1241,07
723,21	1259,50
723,40	1304,56
723,58	1308,65
723,76	1236,97
723,94	1310,70
724,12	1288,17
724,30	1271,79
724,49	1255,40
724,67	1249,26
724,85	1226,73
725,03	1249,26
725,21	1191,92
725,40	1212,40
725,58	1230,83
725,76	1247,21
725,94	1308,65
726,12	1255,40
726,30	1198,06
726,49	1216,49
726,67	1304,56
726,85	1239,02
727,03	1294,32
727,21	1173,49
727,39	1279,98
727,57	1269,74
727,76	1204,21
727,94	1292,27
728,12	1265,64
728,30	1232,88
728,48	1224,69
728,66	1202,16
728,84	1275,88
729,03	1253,36
729,21	1255,40
729,39	1265,64
729,57	1327,08
729,75	1308,65
729,93	1329,13
730,11	1284,08
730,30	1196,01
730,48	1247,21
730,66	1259,50
730,84	1255,40
731,02	1322,99
731,20	1314,80
731,38	1224,69
731,56	1257,45
731,74	1228,78
731,93	1306,60
732,11	1257,45
732,29	1228,78
732,47	1286,12
732,65	1239,02
732,83	1314,80
733,01	1236,97
733,19	1218,54
733,37	1312,75
733,56	1241,07
733,74	1189,87
733,92	1243,12
734,10	1239,02
734,28	1218,54
734,46	1282,03
734,64	1298,41
734,82	1249,26
735,00	1230,83
735,18	1273,84
735,36	1294,32
735,54	1273,84
735,73	1210,35
735,91	1300,46
736,09	1261,55
736,27	1220,59
736,45	1314,80
736,63	1322,99
736,81	1282,03
736,99	1337,32
737,17	1312,75
737,35	1325,04
737,53	1329,13
737,71	1292,27
737,89	1271,79
738,07	1265,64
738,25	1261,55
738,43	1296,36
738,61	1179,63
738,80	1232,88
738,98	1208,30
739,16	1347,56
739,34	1327,08
739,52	1316,84
739,70	1306,60
739,88	1318,89
740,06	1251,31
740,24	1224,69
740,42	1292,27
740,60	1245,16
740,78	1288,17
740,96	1296,36
741,14	1198,06
741,32	1257,45
741,50	1234,93
741,68	1265,64
741,86	1267,69
742,04	1267,69
742,22	1294,32
742,40	1275,88
742,58	1333,23
742,76	1294,32
742,94	1245,16
743,12	1226,73
743,30	1279,98
743,48	1232,88
743,66	1279,98
743,84	1230,83
744,02	1243,12
744,20	1263,60
744,38	1230,83
744,56	1275,88
744,74	1263,60
744,92	1331,18
745,10	1212,40
745,28	1265,64
745,46	1210,35
745,64	1282,03
745,82	1316,84
746,00	1212,40
746,18	1236,97
746,36	1261,55
746,54	1257,45
746,72	1206,25
746,90	1275,88
747,08	1277,93
747,26	1202,16
747,44	1310,70
747,62	1290,22
747,80	1253,36
747,98	1322,99
748,15	1331,18
748,33	1273,84
748,51	1298,41
748,69	1273,84
748,87	1312,75
749,05	1212,40
749,23	1298,41
749,41	1335,28
749,59	1263,60
749,77	1271,79
749,95	1245,16
750,13	1269,74
750,31	1290,22
750,49	1226,73
750,67	1202,16
750,85	1302,51
751,03	1247,21
751,20	1277,93
751,38	1255,40
751,56	1177,58
751,74	1239,02
751,92	1251,31
752,10	1282,03
752,28	1226,73
752,46	1263,60
752,64	1279,98
752,82	1288,17
753,00	1241,07
753,18	1243,12
753,35	1230,83
753,53	1308,65
753,71	1216,49
753,89	1263,60
754,07	1212,40
754,25	1198,06
754,43	1253,36
754,61	1286,12
754,79	1269,74
754,97	1161,20
755,14	1232,88
755,32	1257,45
755,50	1208,30
755,68	1320,94
755,86	1226,73
756,04	1273,84
756,22	1282,03
756,40	1294,32
756,57	1265,64
756,75	1198,06
756,93	1247,21
757,11	1243,12
757,29	1241,07
757,47	1267,69
757,65	1243,12
757,82	1288,17
758,00	1247,21
758,18	1220,59
758,36	1261,55
758,54	1232,88
758,72	1306,60
758,90	1204,21
759,07	1298,41
759,25	1259,50
759,43	1241,07
759,61	1224,69
759,79	1355,76
759,97	1292,27
760,15	1290,22
760,32	1302,51
760,50	1249,26
760,68	1310,70
760,86	1308,65
761,04	1290,22
761,22	1325,04
761,39	1239,02
761,57	1290,22
761,75	1345,52
761,93	1273,84
762,11	1271,79
762,28	1275,88
762,46	1298,41
762,64	1251,31
762,82	1318,89
763,00	1224,69
763,18	1222,64
763,35	1271,79
763,53	1253,36
763,71	1245,16
763,89	1212,40
764,07	1271,79
764,24	1290,22
764,42	1292,27
764,60	1275,88
764,78	1263,60
764,96	1189,87
765,13	1318,89
765,31	1265,64
765,49	1253,36
765,67	1204,21
765,84	1220,59
766,02	1288,17
766,20	1271,79
766,38	1218,54
766,56	1251,31
766,73	1277,93
766,91	1325,04
767,09	1288,17
767,27	1372,14
767,44	1265,64
767,62	1279,98
767,80	1337,32
767,98	1294,32
768,15	1286,12
768,33	1284,08
768,51	1257,45
768,69	1224,69
768,87	1288,17
769,04	1253,36
769,22	1249,26
769,40	1314,80
769,58	1300,46
769,75	1339,37
769,93	1282,03
770,11	1271,79
770,28	1263,60
770,46	1296,36
770,64	1296,36
770,82	1253,36
770,99	1294,32
771,17	1288,17
771,35	1304,56
771,53	1245,16
771,70	1216,49
771,88	1292,27
772,06	1216,49
772,23	1263,60
772,41	1333,23
772,59	1247,21
772,77	1208,30
772,94	1279,98
773,12	1261,55
773,30	1253,36
773,47	1249,26
773,65	1226,73
773,83	1249,26
774,01	1273,84
774,18	1277,93
774,36	1306,60
774,54	1273,84
774,71	1298,41
774,89	1239,02
775,07	1257,45
775,24	1269,74
775,42	1322,99
775,60	1339,37
775,78	1239,02
775,95	1204,21
776,13	1220,59
776,31	1196,01
776,48	1273,84
776,66	1347,56
776,84	1298,41
777,01	1308,65
777,19	1206,25
777,37	1245,16
777,54	1294,32
777,72	1236,97
777,90	1255,40
778,07	1208,30
778,25	1261,55
778,43	1314,80
778,60	1224,69
778,78	1292,27
778,96	1230,83
779,13	1277,93
779,31	1245,16
779,49	1241,07
779,66	1304,56
779,84	1298,41
780,01	1239,02
780,19	1230,83
780,37	1259,50
780,54	1265,64
780,72	1249,26
780,90	1232,88
781,07	1294,32
781,25	1234,93
781,43	1331,18
781,60	1325,04
781,78	1282,03
781,95	1279,98
782,13	1191,92
782,31	1298,41
782,48	1308,65
782,66	1314,80
782,83	1220,59
783,01	1282,03
783,19	1267,69
783,36	1263,60
783,54	1316,84
783,72	1232,88
783,89	1282,03
784,07	1296,36
784,24	1267,69
784,42	1243,12
784,60	1202,16
784,77	1230,83
784,95	1241,07
785,12	1193,97
785,30	1308,65
785,47	1222,64
785,65	1255,40
785,83	1271,79
786,00	1224,69
786,18	1167,34
786,35	1257,45
786,53	1167,34
786,71	1200,11
786,88	1277,93
787,06	1269,74
787,23	1320,94
787,41	1251,31
787,58	1288,17
787,76	1290,22
787,94	1290,22
788,11	1314,80
788,29	1271,79
788,46	1239,02
788,64	1202,16
788,81	1325,04
788,99	1261,55
789,16	1253,36
789,34	1273,84
789,52	1234,93
789,69	1214,45
789,87	1196,01
790,04	1218,54
790,22	1310,70
790,39	1318,89
790,57	1261,55
790,74	1271,79
790,92	1210,35
791,09	1271,79
791,27	1245,16
791,44	1204,21
791,62	1212,40
791,79	1306,60
791,97	1224,69
792,15	1304,56
792,32	1251,31
792,50	1288,17
792,67	1259,50
792,85	1300,46
793,02	1251,31
793,20	1259,50
793,37	1253,36
793,55	1255,40
793,72	1212,40
793,90	1298,41
794,07	1216,49
794,25	1228,78
794,42	1236,97
794,60	1290,22
794,77	1208,30
794,95	1267,69
795,12	1255,40
795,30	1259,50
795,47	1306,60
795,65	1255,40
795,82	1271,79
796,00	1232,88
796,17	1173,49
796,34	1304,56
796,52	1253,36
796,69	1218,54
796,87	1202,16
797,04	1294,32
797,22	1312,75
797,39	1245,16
797,57	1279,98
797,74	1331,18
797,92	1294,32
798,09	1320,94
798,27	1269,74
798,44	1232,88
798,62	1200,11
798,79	1226,73
798,96	1265,64
799,14	1288,17
799,31	1310,70
799,49	1257,45
799,66	1226,73
799,84	1230,83
800,01	1304,56
800,19	1200,11
800,36	1234,93
800,53	1277,93
800,71	1263,60
800,88	1277,93
801,06	1222,64
801,23	1275,88
801,41	1265,64
801,58	1279,98
801,75	1230,83
801,93	1282,03
802,10	1331,18
802,28	1329,13
802,45	1239,02
802,63	1304,56
802,80	1259,50
802,97	1247,21
803,15	1290,22
803,32	1329,13
803,50	1222,64
803,67	1302,51
803,84	1279,98
804,02	1331,18
804,19	1333,23
804,37	1265,64
804,54	1226,73
804,71	1304,56
804,89	1296,36
805,06	1216,49
805,24	1282,03
805,41	1298,41
805,58	1224,69
805,76	1300,46
805,93	1245,16
806,10	1296,36
806,28	1159,15
806,45	1175,53
806,63	1279,98
806,80	1343,47
806,97	1267,69
807,15	1257,45
807,32	1218,54
807,49	1263,60
807,67	1279,98
807,84	1298,41
808,01	1286,12
808,19	1255,40
808,36	1329,13
808,54	1275,88
808,71	1300,46
808,88	1198,06
809,06	1310,70
809,23	1312,75
809,40	1261,55
809,58	1300,46
809,75	1302,51
809,92	1239,02
810,10	1216,49
810,27	1265,64
810,44	1245,16
810,62	1265,64
810,79	1230,83
810,96	1279,98
811,14	1257,45
811,31	1286,12
811,48	1279,98
811,66	1247,21
811,83	1284,08
812,00	1253,36
812,18	1286,12
812,35	1306,60
812,52	1216,49
812,69	1249,26
812,87	1279,98
813,04	1271,79
813,21	1191,92
813,39	1286,12
813,56	1232,88
813,73	1232,88
813,91	1306,60
814,08	1327,08
814,25	1212,40
814,42	1267,69
814,60	1243,12
814,77	1290,22
814,94	1261,55
815,12	1275,88
815,29	1255,40
815,46	1296,36
815,63	1259,50
815,81	1290,22
815,98	1230,83
816,15	1261,55
816,33	1282,03
816,50	1183,73
816,67	1249,26
816,84	1290,22
817,02	1277,93
817,19	1296,36
817,36	1179,63
817,53	1269,74
817,71	1230,83
817,88	1296,36
818,05	1275,88
818,22	1239,02
818,40	1290,22
818,57	1265,64
818,74	1249,26
818,91	1294,32
819,09	1298,41
819,26	1327,08
819,43	1300,46
819,60	1284,08
819,78	1243,12
819,95	1245,16
820,12	1181,68
820,29	1294,32
820,47	1241,07
820,64	1267,69
820,81	1294,32
820,98	1257,45
821,15	1224,69
821,33	1243,12
821,50	1277,93
821,67	1290,22
821,84	1279,98
822,02	1249,26
822,19	1298,41
822,36	1249,26
822,53	1208,30
822,70	1247,21
822,88	1249,26
823,05	1363,95
823,22	1212,40
823,39	1204,21
823,56	1302,51
823,74	1224,69
823,91	1202,16
824,08	1222,64
824,25	1306,60
824,42	1214,45
824,60	1275,88
824,77	1243,12
824,94	1288,17
825,11	1279,98
825,28	1296,36
825,45	1259,50
825,63	1261,55
825,80	1230,83
825,97	1261,55
826,14	1243,12
826,31	1265,64
826,48	1181,68
826,66	1263,60
826,83	1275,88
827,00	1308,65
827,17	1327,08
827,34	1284,08
827,51	1314,80
827,69	1279,98
827,86	1220,59
828,03	1259,50
828,20	1296,36
828,37	1222,64
828,54	1380,33
828,71	1228,78
828,89	1212,40
829,06	1220,59
829,23	1228,78
829,40	1290,22
829,57	1259,50
829,74	1212,40
829,91	1241,07
830,09	1255,40
830,26	1296,36
830,43	1259,50
830,60	1251,31
830,77	1222,64
830,94	1230,83
831,11	1206,25
831,28	1314,80
831,46	1308,65
831,63	1261,55
831,80	1363,95
831,97	1232,88
832,14	1251,31
832,31	1247,21
832,48	1263,60
832,65	1265,64
832,82	1290,22
832,99	1257,45
833,17	1294,32
833,34	1247,21
833,51	1261,55
833,68	1279,98
833,85	1243,12
834,02	1345,52
834,19	1269,74
834,36	1275,88
834,53	1263,60
834,70	1294,32
834,87	1224,69
835,04	1216,49
835,22	1296,36
835,39	1284,08
835,56	1282,03
835,73	1288,17
835,90	1259,50
836,07	1228,78
836,24	1243,12
836,41	1204,21
836,58	1290,22
836,75	1261,55
836,92	1224,69
837,09	1257,45
837,26	1245,16
837,43	1220,59
837,60	1318,89
837,77	1294,32
837,94	1341,42
838,12	1239,02
838,29	1267,69
838,46	1269,74
838,63	1224,69
838,80	1284,08
838,97	1249,26
839,14	1249,26
839,31	1318,89
839,48	1286,12
839,65	1333,23
839,82	1282,03
839,99	1329,13
840,16	1243,12
840,33	1267,69
840,50	1271,79
840,67	1232,88
840,84	1212,40
841,01	1224,69
841,18	1298,41
841,35	1224,69
841,52	1224,69
841,69	1236,97
841,86	1253,36
842,03	1290,22
842,20	1282,03
842,37	1181,68
842,54	1230,83
842,71	1304,56
842,88	1279,98
843,05	1312,75
843,22	1222,64
843,39	1204,21
843,56	1265,64
843,73	1251,31
843,90	1206,25
844,07	1275,88
844,24	1243,12
844,41	1257,45
844,58	1298,41
844,75	1241,07
844,92	1298,41
845,09	1255,40
845,26	1247,21
845,43	1234,93
845,60	1302,51
845,77	1265,64
845,94	1214,45
846,10	1222,64
846,27	1300,46
846,44	1236,97
846,61	1329,13
846,78	1286,12
846,95	1249,26
847,12	1257,45
847,29	1288,17
847,46	1302,51
847,63	1337,32
847,80	1234,93
847,97	1306,60
848,14	1263,60
848,31	1241,07
848,48	1292,27
848,65	1314,80
848,82	1288,17
848,98	1261,55
849,15	1230,83
849,32	1286,12
849,49	1290,22
849,66	1279,98
849,83	1236,97
850,00	1220,59
850,17	1277,93
850,34	1277,93
850,51	1294,32
850,68	1271,79
850,85	1257,45
851,01	1208,30
851,18	1265,64
851,35	1224,69
851,52	1251,31
851,69	1269,74
851,86	1243,12
852,03	1322,99
852,20	1245,16
852,37	1245,16
852,53	1228,78
852,70	1288,17
852,87	1243,12
853,04	1230,83
853,21	1302,51
853,38	1331,18
853,55	1286,12
853,72	1318,89
853,89	1271,79
854,05	1298,41
854,22	1245,16
854,39	1265,64
854,56	1222,64
854,73	1253,36
854,90	1314,80
855,07	1265,64
855,23	1243,12
855,40	1302,51
855,57	1204,21
855,74	1325,04
855,91	1234,93
856,08	1200,11
856,25	1294,32
856,41	1226,73
856,58	1196,01
856,75	1222,64
856,92	1269,74
857,09	1322,99
857,26	1255,40
857,42	1298,41
857,59	1312,75
857,76	1239,02
857,93	1253,36
858,10	1259,50
858,27	1204,21
858,43	1202,16
858,60	1222,64
858,77	1249,26
858,94	1200,11
859,11	1191,92
859,27	1212,40
859,44	1206,25
859,61	1343,47
859,78	1263,60
859,95	1286,12
860,12	1263,60
860,28	1243,12
860,45	1296,36
860,62	1181,68
860,79	1306,60
860,95	1298,41
861,12	1187,82
861,29	1318,89
861,46	1232,88
861,63	1312,75
861,79	1236,97
861,96	1226,73
862,13	1243,12
862,30	1259,50
862,47	1273,84
862,63	1310,70
862,80	1261,55
862,97	1275,88
863,14	1241,07
863,30	1241,07
863,47	1249,26
863,64	1220,59
863,81	1290,22
863,97	1232,88
864,14	1286,12
864,31	1177,58
864,48	1296,36
864,65	1271,79
864,81	1212,40
864,98	1355,76
865,15	1331,18
865,32	1255,40
865,48	1302,51
865,65	1222,64
865,82	1204,21
865,98	1298,41
866,15	1204,21
866,32	1294,32
866,49	1298,41
866,65	1206,25
866,82	1380,33
866,99	1245,16
867,16	1290,22
867,32	1212,40
867,49	1169,39
867,66	1234,93
867,83	1261,55
867,99	1249,26
868,16	1216,49
868,33	1298,41
868,49	1298,41
868,66	1271,79
868,83	1232,88
868,99	1247,21
869,16	1282,03
869,33	1308,65
869,50	1290,22
869,66	1232,88
869,83	1294,32
870,00	1282,03
870,16	1232,88
870,33	1251,31
870,50	1271,79
870,66	1198,06
870,83	1380,33
871,00	1234,93
871,17	1265,64
871,33	1282,03
871,50	1296,36
871,67	1329,13
871,83	1200,11
872,00	1304,56
872,17	1347,56
872,33	1347,56
872,50	1277,93
872,67	1331,18
872,83	1230,83
873,00	1314,80
873,17	1296,36
873,33	1257,45
873,50	1277,93
873,67	1331,18
873,83	1206,25
874,00	1282,03
874,16	1384,43
874,33	1343,47
874,50	1249,26
874,66	1265,64
874,83	1304,56
875,00	1265,64
875,16	1263,60
875,33	1214,45
875,50	1239,02
875,66	1255,40
875,83	1200,11
875,99	1263,60
876,16	1222,64
876,33	1277,93
876,49	1187,82
876,66	1277,93
876,83	1214,45
876,99	1304,56
877,16	1286,12
877,32	1259,50
877,49	1308,65
877,66	1273,84
877,82	1257,45
877,99	1255,40
878,15	1277,93
878,32	1267,69
878,49	1390,57
878,65	1255,40
878,82	1267,69
878,98	1306,60
879,15	1294,32
879,32	1243,12
879,48	1290,22
879,65	1234,93
879,81	1247,21
879,98	1198,06
880,15	1241,07
880,31	1247,21
880,48	1318,89
880,64	1232,88
880,81	1222,64
880,97	1253,36
881,14	1169,39
881,31	1230,83
881,47	1255,40
881,64	1251,31
881,80	1284,08
881,97	1257,45
882,13	1286,12
882,30	1273,84
882,47	1335,28
882,63	1275,88
882,80	1243,12
882,96	1273,84
883,13	1271,79
883,29	1282,03
883,46	1265,64
883,62	1220,59
883,79	1310,70
883,95	1257,45
884,12	1296,36
884,29	1318,89
884,45	1312,75
884,62	1239,02
884,78	1335,28
884,95	1277,93
885,11	1232,88
885,28	1243,12
885,44	1282,03
885,61	1302,51
885,77	1226,73
885,94	1273,84
886,10	1241,07
886,27	1306,60
886,43	1232,88
886,60	1249,26
886,76	1181,68
886,93	1241,07
887,09	1265,64
887,26	1259,50
887,42	1214,45
887,59	1286,12
887,75	1216,49
887,92	1296,36
888,08	1322,99
888,25	1267,69
888,41	1271,79
888,58	1318,89
888,74	1345,52
888,91	1320,94
>>>>>End Processed Spectral Data<<<<<
