SpectraSuite Data File
++++++++++++++++++++++++++++++++++++
Date: Sun Apr 03 15:35:04 CEST 2016
User: root
Dark Spectrum Present: No
Reference Spectrum Present: No
Number of Sampled Component Spectra: 1
Spectrometers: USB4C02835
Integration Time (usec): 10000 (USB4C02835)
Spectra Averaged: 1 (USB4C02835)
Boxcar Smoothing: 0 (USB4C02835)
Correct for Electrical Dark: No (USB4C02835)
Strobe/Lamp Enabled: No (USB4C02835)
Correct for Detector Non-linearity: No (USB4C02835)
Correct for Stray Light: No (USB4C02835)
Number of Pixels in Processed Spectrum: 3648
>>>>>Begin Processed Spectral Data<<<<<
177,47	1228,78
177,69	1228,78
177,91	1228,78
178,13	1249,26
178,36	1337,32
178,58	1347,56
178,80	1282,03
179,02	1230,83
179,24	1241,07
179,46	1282,03
179,68	1257,45
179,90	1249,26
180,13	1255,40
180,35	1251,31
180,57	1314,80
180,79	1249,26
181,01	1253,36
181,23	1245,16
181,45	1245,16
181,67	1257,45
181,90	1282,03
182,12	1277,93
182,34	1157,10
182,56	1347,56
182,78	1310,70
183,00	1247,21
183,22	1288,17
183,44	1271,79
183,66	1277,93
183,89	1298,41
184,11	1290,22
184,33	1312,75
184,55	1269,74
184,77	1339,37
184,99	1302,51
185,21	1257,45
185,43	1257,45
185,65	1263,60
185,87	1239,02
186,10	1232,88
186,32	1312,75
186,54	1292,27
186,76	1361,90
186,98	1284,08
187,20	1196,01
187,42	1265,64
187,64	1271,79
187,86	1308,65
188,08	1239,02
188,30	1230,83
188,52	1241,07
188,75	1257,45
188,97	1204,21
189,19	1282,03
189,41	1331,18
189,63	1277,93
189,85	1325,04
190,07	1284,08
190,29	1208,30
190,51	1333,23
190,73	1259,50
190,95	1329,13
191,17	1216,49
191,39	1304,56
191,61	1247,21
191,84	1312,75
192,06	1292,27
192,28	1220,59
192,50	1204,21
192,72	1249,26
192,94	1331,18
193,16	1286,12
193,38	1279,98
193,60	1232,88
193,82	1204,21
194,04	1279,98
194,26	1239,02
194,48	1198,06
194,70	1337,32
194,92	1320,94
195,14	1363,95
195,36	1300,46
195,58	1310,70
195,80	1294,32
196,02	1255,40
196,24	1314,80
196,46	1296,36
196,69	1292,27
196,91	1253,36
197,13	1312,75
197,35	1298,41
197,57	1230,83
197,79	1222,64
198,01	1304,56
198,23	1298,41
198,45	1249,26
198,67	1230,83
198,89	1177,58
199,11	1230,83
199,33	1322,99
199,55	1261,55
199,77	1249,26
199,99	1335,28
200,21	1282,03
200,43	1234,93
200,65	1222,64
200,87	1300,46
201,09	1269,74
201,31	1327,08
201,53	1226,73
201,75	1245,16
201,97	1331,18
202,19	1236,97
202,41	1378,28
202,63	1269,74
202,85	1316,84
203,07	1331,18
203,29	1335,28
203,51	1282,03
203,73	1243,12
203,95	1351,66
204,17	1245,16
204,39	1286,12
204,61	1316,84
204,83	1206,25
205,05	1255,40
205,27	1239,02
205,49	1298,41
205,71	1329,13
205,93	1271,79
206,15	1288,17
206,37	1288,17
206,59	1193,97
206,81	1243,12
207,03	1200,11
207,25	1187,82
207,47	1331,18
207,69	1288,17
207,91	1306,60
208,13	1279,98
208,34	1290,22
208,56	1247,21
208,78	1265,64
209,00	1222,64
209,22	1230,83
209,44	1284,08
209,66	1277,93
209,88	1269,74
210,10	1310,70
210,32	1220,59
210,54	1306,60
210,76	1224,69
210,98	1284,08
211,20	1259,50
211,42	1294,32
211,64	1277,93
211,86	1310,70
212,08	1294,32
212,30	1245,16
212,52	1257,45
212,74	1212,40
212,96	1282,03
213,17	1249,26
213,39	1273,84
213,61	1282,03
213,83	1304,56
214,05	1329,13
214,27	1241,07
214,49	1282,03
214,71	1296,36
214,93	1298,41
215,15	1290,22
215,37	1288,17
215,59	1284,08
215,81	1290,22
216,03	1234,93
216,24	1261,55
216,46	1282,03
216,68	1253,36
216,90	1298,41
217,12	1290,22
217,34	1298,41
217,56	1239,02
217,78	1322,99
218,00	1210,35
218,22	1200,11
218,44	1337,32
218,66	1255,40
218,87	1316,84
219,09	1275,88
219,31	1189,87
219,53	1304,56
219,75	1339,37
219,97	1292,27
220,19	1286,12
220,41	1200,11
220,63	1345,52
220,85	1257,45
221,06	1296,36
221,28	1230,83
221,50	1288,17
221,72	1304,56
221,94	1228,78
222,16	1288,17
222,38	1243,12
222,60	1298,41
222,82	1206,25
223,03	1292,27
223,25	1259,50
223,47	1329,13
223,69	1273,84
223,91	1224,69
224,13	1288,17
224,35	1273,84
224,57	1265,64
224,78	1310,70
225,00	1273,84
225,22	1239,02
225,44	1314,80
225,66	1308,65
225,88	1310,70
226,10	1239,02
226,32	1259,50
226,53	1288,17
226,75	1259,50
226,97	1347,56
227,19	1261,55
227,41	1255,40
227,63	1193,97
227,85	1253,36
228,06	1288,17
228,28	1288,17
228,50	1288,17
228,72	1284,08
228,94	1282,03
229,16	1329,13
229,37	1216,49
229,59	1243,12
229,81	1263,60
230,03	1251,31
230,25	1263,60
230,47	1304,56
230,69	1191,92
230,90	1290,22
231,12	1269,74
231,34	1216,49
231,56	1282,03
231,78	1267,69
232,00	1259,50
232,21	1191,92
232,43	1241,07
232,65	1239,02
232,87	1308,65
233,09	1279,98
233,30	1232,88
233,52	1247,21
233,74	1222,64
233,96	1304,56
234,18	1335,28
234,40	1296,36
234,61	1265,64
234,83	1255,40
235,05	1382,38
235,27	1236,97
235,49	1312,75
235,70	1183,73
235,92	1245,16
236,14	1251,31
236,36	1249,26
236,58	1310,70
236,79	1265,64
237,01	1273,84
237,23	1325,04
237,45	1202,16
237,67	1255,40
237,88	1267,69
238,10	1279,98
238,32	1239,02
238,54	1232,88
238,76	1257,45
238,97	1300,46
239,19	1308,65
239,41	1310,70
239,63	1275,88
239,85	1366,00
240,06	1286,12
240,28	1277,93
240,50	1318,89
240,72	1284,08
240,93	1257,45
241,15	1320,94
241,37	1331,18
241,59	1261,55
241,81	1204,21
242,02	1226,73
242,24	1271,79
242,46	1230,83
242,68	1249,26
242,89	1230,83
243,11	1230,83
243,33	1302,51
243,55	1275,88
243,76	1247,21
243,98	1341,42
244,20	1249,26
244,42	1220,59
244,64	1269,74
244,85	1253,36
245,07	1302,51
245,29	1306,60
245,51	1236,97
245,72	1273,84
245,94	1318,89
246,16	1294,32
246,38	1288,17
246,59	1261,55
246,81	1296,36
247,03	1208,30
247,24	1222,64
247,46	1277,93
247,68	1331,18
247,90	1275,88
248,11	1304,56
248,33	1306,60
248,55	1310,70
248,77	1236,97
248,98	1322,99
249,20	1241,07
249,42	1259,50
249,64	1298,41
249,85	1306,60
250,07	1284,08
250,29	1355,76
250,50	1269,74
250,72	1255,40
250,94	1298,41
251,16	1302,51
251,37	1298,41
251,59	1304,56
251,81	1249,26
252,02	1333,23
252,24	1247,21
252,46	1288,17
252,68	1208,30
252,89	1263,60
253,11	1230,83
253,33	1279,98
253,54	1257,45
253,76	1220,59
253,98	1267,69
254,20	1322,99
254,41	1275,88
254,63	1279,98
254,85	1247,21
255,06	1271,79
255,28	1292,27
255,50	1298,41
255,71	1345,52
255,93	1241,07
256,15	1302,51
256,36	1335,28
256,58	1271,79
256,80	1282,03
257,02	1245,16
257,23	1316,84
257,45	1226,73
257,67	1288,17
257,88	1312,75
258,10	1230,83
258,32	1312,75
258,53	1224,69
258,75	1267,69
258,97	1322,99
259,18	1271,79
259,40	1308,65
259,62	1232,88
259,83	1292,27
260,05	1218,54
260,27	1372,14
260,48	1308,65
260,70	1306,60
260,92	1345,52
261,13	1239,02
261,35	1312,75
261,57	1230,83
261,78	1271,79
262,00	1241,07
262,22	1316,84
262,43	1263,60
262,65	1294,32
262,86	1337,32
263,08	1277,93
263,30	1245,16
263,51	1200,11
263,73	1304,56
263,95	1277,93
264,16	1298,41
264,38	1208,30
264,60	1298,41
264,81	1249,26
265,03	1236,97
265,25	1304,56
265,46	1224,69
265,68	1259,50
265,89	1263,60
266,11	1257,45
266,33	1273,84
266,54	1306,60
266,76	1261,55
266,98	1284,08
267,19	1226,73
267,41	1206,25
267,62	1228,78
267,84	1277,93
268,06	1290,22
268,27	1300,46
268,49	1300,46
268,70	1257,45
268,92	1316,84
269,14	1304,56
269,35	1310,70
269,57	1261,55
269,79	1290,22
270,00	1224,69
270,22	1329,13
270,43	1288,17
270,65	1265,64
270,87	1273,84
271,08	1298,41
271,30	1296,36
271,51	1306,60
271,73	1255,40
271,95	1249,26
272,16	1255,40
272,38	1228,78
272,59	1282,03
272,81	1234,93
273,02	1261,55
273,24	1316,84
273,46	1277,93
273,67	1265,64
273,89	1316,84
274,10	1191,92
274,32	1318,89
274,54	1325,04
274,75	1218,54
274,97	1247,21
275,18	1296,36
275,40	1239,02
275,61	1259,50
275,83	1306,60
276,05	1290,22
276,26	1255,40
276,48	1243,12
276,69	1243,12
276,91	1355,76
277,12	1304,56
277,34	1239,02
277,55	1222,64
277,77	1337,32
277,99	1265,64
278,20	1265,64
278,42	1271,79
278,63	1302,51
278,85	1316,84
279,06	1230,83
279,28	1261,55
279,49	1269,74
279,71	1189,87
279,93	1193,97
280,14	1247,21
280,36	1249,26
280,57	1265,64
280,79	1198,06
281,00	1173,49
281,22	1308,65
281,43	1318,89
281,65	1296,36
281,86	1218,54
282,08	1275,88
282,29	1300,46
282,51	1251,31
282,73	1267,69
282,94	1236,97
283,16	1232,88
283,37	1247,21
283,59	1296,36
283,80	1279,98
284,02	1298,41
284,23	1214,45
284,45	1318,89
284,66	1245,16
284,88	1249,26
285,09	1224,69
285,31	1232,88
285,52	1282,03
285,74	1224,69
285,95	1298,41
286,17	1226,73
286,38	1290,22
286,60	1230,83
286,81	1298,41
287,03	1304,56
287,24	1261,55
287,46	1277,93
287,67	1327,08
287,89	1345,52
288,10	1286,12
288,32	1294,32
288,53	1312,75
288,75	1230,83
288,96	1275,88
289,18	1282,03
289,39	1232,88
289,61	1308,65
289,82	1298,41
290,04	1329,13
290,25	1259,50
290,47	1279,98
290,68	1263,60
290,90	1277,93
291,11	1245,16
291,33	1271,79
291,54	1277,93
291,76	1249,26
291,97	1277,93
292,18	1314,80
292,40	1273,84
292,61	1327,08
292,83	1259,50
293,04	1224,69
293,26	1224,69
293,47	1249,26
293,69	1216,49
293,90	1290,22
294,12	1261,55
294,33	1298,41
294,55	1236,97
294,76	1255,40
294,97	1269,74
295,19	1234,93
295,40	1249,26
295,62	1284,08
295,83	1288,17
296,05	1298,41
296,26	1308,65
296,48	1296,36
296,69	1255,40
296,90	1286,12
297,12	1226,73
297,33	1294,32
297,55	1298,41
297,76	1333,23
297,98	1290,22
298,19	1275,88
298,41	1361,90
298,62	1253,36
298,83	1320,94
299,05	1279,98
299,26	1349,61
299,48	1261,55
299,69	1212,40
299,90	1239,02
300,12	1320,94
300,33	1245,16
300,55	1243,12
300,76	1341,42
300,98	1308,65
301,19	1249,26
301,40	1253,36
301,62	1261,55
301,83	1271,79
302,05	1261,55
302,26	1296,36
302,47	1259,50
302,69	1234,93
302,90	1265,64
303,12	1298,41
303,33	1288,17
303,54	1286,12
303,76	1269,74
303,97	1234,93
304,19	1271,79
304,40	1261,55
304,61	1263,60
304,83	1339,37
305,04	1327,08
305,26	1275,88
305,47	1255,40
305,68	1230,83
305,90	1269,74
306,11	1267,69
306,33	1224,69
306,54	1253,36
306,75	1304,56
306,97	1273,84
307,18	1273,84
307,39	1253,36
307,61	1308,65
307,82	1294,32
308,04	1206,25
308,25	1253,36
308,46	1292,27
308,68	1206,25
308,89	1308,65
309,10	1308,65
309,32	1286,12
309,53	1306,60
309,74	1298,41
309,96	1279,98
310,17	1304,56
310,39	1230,83
310,60	1267,69
310,81	1275,88
311,03	1253,36
311,24	1314,80
311,45	1275,88
311,67	1220,59
311,88	1325,04
312,09	1320,94
312,31	1294,32
312,52	1296,36
312,73	1277,93
312,95	1222,64
313,16	1230,83
313,37	1185,77
313,59	1329,13
313,80	1273,84
314,01	1284,08
314,23	1290,22
314,44	1320,94
314,65	1236,97
314,87	1253,36
315,08	1226,73
315,29	1288,17
315,51	1251,31
315,72	1267,69
315,93	1304,56
316,15	1351,66
316,36	1222,64
316,57	1312,75
316,79	1210,35
317,00	1261,55
317,21	1286,12
317,43	1206,25
317,64	1243,12
317,85	1243,12
318,07	1320,94
318,28	1216,49
318,49	1279,98
318,70	1306,60
318,92	1243,12
319,13	1234,93
319,34	1265,64
319,56	1335,28
319,77	1269,74
319,98	1279,98
320,20	1202,16
320,41	1327,08
320,62	1220,59
320,83	1310,70
321,05	1271,79
321,26	1286,12
321,47	1322,99
321,69	1304,56
321,90	1310,70
322,11	1312,75
322,32	1279,98
322,54	1312,75
322,75	1296,36
322,96	1228,78
323,18	1288,17
323,39	1296,36
323,60	1247,21
323,81	1314,80
324,03	1241,07
324,24	1271,79
324,45	1322,99
324,66	1241,07
324,88	1288,17
325,09	1282,03
325,30	1331,18
325,52	1261,55
325,73	1322,99
325,94	1320,94
326,15	1230,83
326,37	1232,88
326,58	1300,46
326,79	1363,95
327,00	1277,93
327,22	1306,60
327,43	1292,27
327,64	1306,60
327,85	1212,40
328,07	1259,50
328,28	1261,55
328,49	1245,16
328,70	1255,40
328,92	1222,64
329,13	1296,36
329,34	1288,17
329,55	1198,06
329,76	1198,06
329,98	1226,73
330,19	1296,36
330,40	1220,59
330,61	1269,74
330,83	1226,73
331,04	1277,93
331,25	1191,92
331,46	1228,78
331,68	1298,41
331,89	1320,94
332,10	1304,56
332,31	1322,99
332,52	1263,60
332,74	1273,84
332,95	1232,88
333,16	1253,36
333,37	1247,21
333,58	1224,69
333,80	1304,56
334,01	1236,97
334,22	1251,31
334,43	1277,93
334,64	1269,74
334,86	1214,45
335,07	1234,93
335,28	1296,36
335,49	1224,69
335,70	1290,22
335,92	1241,07
336,13	1245,16
336,34	1230,83
336,55	1249,26
336,76	1345,52
336,98	1202,16
337,19	1228,78
337,40	1245,16
337,61	1310,70
337,82	1222,64
338,04	1267,69
338,25	1273,84
338,46	1273,84
338,67	1300,46
338,88	1294,32
339,09	1224,69
339,31	1228,78
339,52	1277,93
339,73	1335,28
339,94	1247,21
340,15	1243,12
340,36	1277,93
340,58	1302,51
340,79	1208,30
341,00	1286,12
341,21	1230,83
341,42	1273,84
341,63	1265,64
341,85	1318,89
342,06	1288,17
342,27	1277,93
342,48	1255,40
342,69	1253,36
342,90	1337,32
343,12	1249,26
343,33	1284,08
343,54	1257,45
343,75	1320,94
343,96	1257,45
344,17	1296,36
344,38	1310,70
344,60	1220,59
344,81	1312,75
345,02	1298,41
345,23	1320,94
345,44	1294,32
345,65	1294,32
345,86	1263,60
346,07	1265,64
346,29	1292,27
346,50	1310,70
346,71	1241,07
346,92	1263,60
347,13	1386,47
347,34	1275,88
347,55	1249,26
347,76	1200,11
347,98	1275,88
348,19	1261,55
348,40	1224,69
348,61	1200,11
348,82	1255,40
349,03	1347,56
349,24	1298,41
349,45	1222,64
349,66	1249,26
349,88	1308,65
350,09	1316,84
350,30	1230,83
350,51	1298,41
350,72	1275,88
350,93	1288,17
351,14	1347,56
351,35	1228,78
351,56	1298,41
351,77	1310,70
351,99	1298,41
352,20	1200,11
352,41	1269,74
352,62	1206,25
352,83	1290,22
353,04	1263,60
353,25	1257,45
353,46	1298,41
353,67	1339,37
353,88	1220,59
354,09	1286,12
354,30	1312,75
354,52	1294,32
354,73	1290,22
354,94	1308,65
355,15	1218,54
355,36	1273,84
355,57	1257,45
355,78	1310,70
355,99	1259,50
356,20	1271,79
356,41	1255,40
356,62	1282,03
356,83	1279,98
357,04	1249,26
357,25	1230,83
357,46	1257,45
357,68	1282,03
357,89	1206,25
358,10	1269,74
358,31	1288,17
358,52	1202,16
358,73	1259,50
358,94	1277,93
359,15	1232,88
359,36	1300,46
359,57	1345,52
359,78	1265,64
359,99	1267,69
360,20	1333,23
360,41	1245,16
360,62	1310,70
360,83	1263,60
361,04	1282,03
361,25	1267,69
361,46	1329,13
361,67	1312,75
361,88	1230,83
362,09	1306,60
362,30	1251,31
362,51	1306,60
362,72	1320,94
362,93	1271,79
363,14	1290,22
363,35	1259,50
363,56	1273,84
363,78	1318,89
363,99	1333,23
364,20	1277,93
364,41	1290,22
364,62	1290,22
364,83	1296,36
365,04	1271,79
365,25	1314,80
365,46	1294,32
365,67	1239,02
365,88	1353,71
366,09	1271,79
366,30	1236,97
366,51	1335,28
366,72	1224,69
366,93	1249,26
367,14	1341,42
367,35	1245,16
367,56	1212,40
367,77	1275,88
367,98	1261,55
368,18	1275,88
368,39	1193,97
368,60	1353,71
368,81	1277,93
369,02	1232,88
369,23	1286,12
369,44	1269,74
369,65	1167,34
369,86	1267,69
370,07	1253,36
370,28	1226,73
370,49	1241,07
370,70	1216,49
370,91	1294,32
371,12	1241,07
371,33	1243,12
371,54	1316,84
371,75	1245,16
371,96	1220,59
372,17	1187,82
372,38	1245,16
372,59	1298,41
372,80	1277,93
373,01	1318,89
373,22	1263,60
373,43	1308,65
373,64	1263,60
373,85	1286,12
374,06	1294,32
374,26	1249,26
374,47	1265,64
374,68	1277,93
374,89	1275,88
375,10	1255,40
375,31	1263,60
375,52	1249,26
375,73	1257,45
375,94	1214,45
376,15	1261,55
376,36	1265,64
376,57	1236,97
376,78	1226,73
376,99	1269,74
377,20	1306,60
377,40	1265,64
377,61	1333,23
377,82	1249,26
378,03	1333,23
378,24	1277,93
378,45	1265,64
378,66	1249,26
378,87	1167,34
379,08	1286,12
379,29	1224,69
379,50	1277,93
379,71	1351,66
379,91	1241,07
380,12	1312,75
380,33	1275,88
380,54	1253,36
380,75	1320,94
380,96	1306,60
381,17	1282,03
381,38	1277,93
381,59	1265,64
381,80	1275,88
382,00	1224,69
382,21	1198,06
382,42	1255,40
382,63	1286,12
382,84	1292,27
383,05	1226,73
383,26	1355,76
383,47	1271,79
383,68	1198,06
383,88	1247,21
384,09	1327,08
384,30	1353,71
384,51	1251,31
384,72	1286,12
384,93	1259,50
385,14	1232,88
385,35	1292,27
385,55	1282,03
385,76	1277,93
385,97	1261,55
386,18	1241,07
386,39	1271,79
386,60	1279,98
386,81	1251,31
387,02	1222,64
387,22	1183,73
387,43	1253,36
387,64	1224,69
387,85	1251,31
388,06	1234,93
388,27	1286,12
388,48	1322,99
388,68	1349,61
388,89	1288,17
389,10	1300,46
389,31	1271,79
389,52	1337,32
389,73	1204,21
389,93	1339,37
390,14	1290,22
390,35	1255,40
390,56	1208,30
390,77	1257,45
390,98	1169,39
391,18	1286,12
391,39	1290,22
391,60	1261,55
391,81	1312,75
392,02	1232,88
392,23	1234,93
392,43	1206,25
392,64	1366,00
392,85	1302,51
393,06	1253,36
393,27	1255,40
393,47	1273,84
393,68	1288,17
393,89	1253,36
394,10	1243,12
394,31	1271,79
394,52	1187,82
394,72	1298,41
394,93	1259,50
395,14	1282,03
395,35	1302,51
395,56	1208,30
395,76	1282,03
395,97	1306,60
396,18	1161,20
396,39	1269,74
396,60	1255,40
396,80	1290,22
397,01	1275,88
397,22	1273,84
397,43	1263,60
397,64	1261,55
397,84	1245,16
398,05	1273,84
398,26	1310,70
398,47	1351,66
398,67	1230,83
398,88	1304,56
399,09	1296,36
399,30	1306,60
399,51	1304,56
399,71	1310,70
399,92	1298,41
400,13	1251,31
400,34	1273,84
400,54	1243,12
400,75	1273,84
400,96	1298,41
401,17	1277,93
401,37	1284,08
401,58	1232,88
401,79	1345,52
402,00	1282,03
402,21	1288,17
402,41	1249,26
402,62	1298,41
402,83	1294,32
403,04	1286,12
403,24	1273,84
403,45	1257,45
403,66	1241,07
403,87	1253,36
404,07	1204,21
404,28	1255,40
404,49	1181,68
404,70	1277,93
404,90	1255,40
405,11	1200,11
405,32	1322,99
405,52	1259,50
405,73	1273,84
405,94	1284,08
406,15	1208,30
406,35	1263,60
406,56	1312,75
406,77	1267,69
406,98	1253,36
407,18	1206,25
407,39	1294,32
407,60	1304,56
407,80	1267,69
408,01	1310,70
408,22	1271,79
408,43	1298,41
408,63	1273,84
408,84	1296,36
409,05	1271,79
409,25	1214,45
409,46	1257,45
409,67	1202,16
409,88	1296,36
410,08	1308,65
410,29	1257,45
410,50	1261,55
410,70	1286,12
410,91	1245,16
411,12	1310,70
411,32	1286,12
411,53	1247,21
411,74	1191,92
411,95	1290,22
412,15	1271,79
412,36	1329,13
412,57	1214,45
412,77	1241,07
412,98	1267,69
413,19	1271,79
413,39	1284,08
413,60	1253,36
413,81	1308,65
414,01	1212,40
414,22	1327,08
414,43	1206,25
414,63	1269,74
414,84	1286,12
415,05	1282,03
415,25	1263,60
415,46	1232,88
415,67	1247,21
415,87	1255,40
416,08	1304,56
416,29	1292,27
416,49	1279,98
416,70	1282,03
416,91	1265,64
417,11	1316,84
417,32	1249,26
417,53	1257,45
417,73	1284,08
417,94	1302,51
418,15	1298,41
418,35	1241,07
418,56	1302,51
418,77	1261,55
418,97	1255,40
419,18	1261,55
419,38	1279,98
419,59	1308,65
419,80	1296,36
420,00	1286,12
420,21	1265,64
420,42	1245,16
420,62	1275,88
420,83	1275,88
421,04	1267,69
421,24	1284,08
421,45	1241,07
421,65	1200,11
421,86	1259,50
422,07	1177,58
422,27	1271,79
422,48	1259,50
422,69	1232,88
422,89	1347,56
423,10	1191,92
423,30	1279,98
423,51	1263,60
423,72	1206,25
423,92	1290,22
424,13	1265,64
424,33	1294,32
424,54	1218,54
424,75	1314,80
424,95	1302,51
425,16	1345,52
425,36	1277,93
425,57	1277,93
425,78	1271,79
425,98	1253,36
426,19	1249,26
426,39	1245,16
426,60	1277,93
426,81	1243,12
427,01	1171,44
427,22	1230,83
427,42	1232,88
427,63	1257,45
427,83	1257,45
428,04	1302,51
428,25	1243,12
428,45	1292,27
428,66	1220,59
428,86	1366,00
429,07	1290,22
429,28	1286,12
429,48	1222,64
429,69	1255,40
429,89	1269,74
430,10	1204,21
430,30	1316,84
430,51	1290,22
430,71	1288,17
430,92	1288,17
431,13	1294,32
431,33	1308,65
431,54	1312,75
431,74	1312,75
431,95	1322,99
432,15	1236,97
432,36	1253,36
432,56	1269,74
432,77	1314,80
432,98	1361,90
433,18	1265,64
433,39	1288,17
433,59	1282,03
433,80	1286,12
434,00	1279,98
434,21	1312,75
434,41	1222,64
434,62	1239,02
434,82	1259,50
435,03	1214,45
435,23	1259,50
435,44	1261,55
435,64	1251,31
435,85	1302,51
436,06	1312,75
436,26	1314,80
436,47	1288,17
436,67	1282,03
436,88	1251,31
437,08	1224,69
437,29	1245,16
437,49	1282,03
437,70	1265,64
437,90	1247,21
438,11	1273,84
438,31	1308,65
438,52	1273,84
438,72	1263,60
438,93	1286,12
439,13	1271,79
439,34	1232,88
439,54	1312,75
439,75	1245,16
439,95	1312,75
440,16	1333,23
440,36	1275,88
440,57	1284,08
440,77	1265,64
440,98	1314,80
441,18	1298,41
441,39	1290,22
441,59	1279,98
441,80	1335,28
442,00	1232,88
442,21	1253,36
442,41	1232,88
442,62	1314,80
442,82	1169,39
443,02	1304,56
443,23	1277,93
443,43	1298,41
443,64	1290,22
443,84	1208,30
444,05	1302,51
444,25	1243,12
444,46	1294,32
444,66	1296,36
444,87	1284,08
445,07	1245,16
445,28	1271,79
445,48	1308,65
445,69	1249,26
445,89	1220,59
446,09	1292,27
446,30	1322,99
446,50	1282,03
446,71	1212,40
446,91	1339,37
447,12	1277,93
447,32	1308,65
447,53	1259,50
447,73	1302,51
447,93	1300,46
448,14	1261,55
448,34	1189,87
448,55	1286,12
448,75	1327,08
448,96	1265,64
449,16	1220,59
449,36	1267,69
449,57	1218,54
449,77	1245,16
449,98	1343,47
450,18	1298,41
450,39	1298,41
450,59	1261,55
450,79	1284,08
451,00	1224,69
451,20	1275,88
451,41	1277,93
451,61	1220,59
451,81	1300,46
452,02	1304,56
452,22	1265,64
452,43	1269,74
452,63	1187,82
452,84	1255,40
453,04	1251,31
453,24	1320,94
453,45	1286,12
453,65	1310,70
453,86	1232,88
454,06	1284,08
454,26	1284,08
454,47	1236,97
454,67	1329,13
454,87	1267,69
455,08	1259,50
455,28	1265,64
455,49	1230,83
455,69	1322,99
455,89	1263,60
456,10	1275,88
456,30	1228,78
456,51	1214,45
456,71	1288,17
456,91	1284,08
457,12	1316,84
457,32	1257,45
457,52	1263,60
457,73	1253,36
457,93	1298,41
458,14	1232,88
458,34	1269,74
458,54	1159,15
458,75	1279,98
458,95	1236,97
459,15	1247,21
459,36	1327,08
459,56	1232,88
459,76	1247,21
459,97	1290,22
460,17	1220,59
460,37	1290,22
460,58	1286,12
460,78	1228,78
460,99	1257,45
461,19	1251,31
461,39	1302,51
461,60	1374,19
461,80	1290,22
462,00	1251,31
462,21	1353,71
462,41	1296,36
462,61	1290,22
462,82	1341,42
463,02	1298,41
463,22	1292,27
463,43	1208,30
463,63	1251,31
463,83	1226,73
464,04	1308,65
464,24	1273,84
464,44	1294,32
464,64	1286,12
464,85	1239,02
465,05	1298,41
465,25	1355,76
465,46	1271,79
465,66	1241,07
465,86	1286,12
466,07	1286,12
466,27	1380,33
466,47	1269,74
466,68	1290,22
466,88	1368,04
467,08	1288,17
467,29	1214,45
467,49	1290,22
467,69	1275,88
467,89	1255,40
468,10	1232,88
468,30	1204,21
468,50	1314,80
468,71	1316,84
468,91	1286,12
469,11	1208,30
469,31	1314,80
469,52	1284,08
469,72	1265,64
469,92	1277,93
470,13	1290,22
470,33	1267,69
470,53	1314,80
470,73	1255,40
470,94	1249,26
471,14	1216,49
471,34	1312,75
471,54	1204,21
471,75	1290,22
471,95	1314,80
472,15	1347,56
472,36	1255,40
472,56	1337,32
472,76	1241,07
472,96	1298,41
473,17	1298,41
473,37	1265,64
473,57	1314,80
473,77	1302,51
473,98	1331,18
474,18	1263,60
474,38	1286,12
474,58	1310,70
474,79	1261,55
474,99	1306,60
475,19	1308,65
475,39	1279,98
475,60	1304,56
475,80	1312,75
476,00	1269,74
476,20	1349,61
476,41	1265,64
476,61	1314,80
476,81	1263,60
477,01	1214,45
477,21	1304,56
477,42	1275,88
477,62	1234,93
477,82	1245,16
478,02	1304,56
478,23	1265,64
478,43	1212,40
478,63	1257,45
478,83	1273,84
479,03	1308,65
479,24	1302,51
479,44	1304,56
479,64	1300,46
479,84	1253,36
480,04	1310,70
480,25	1294,32
480,45	1181,68
480,65	1359,85
480,85	1298,41
481,06	1251,31
481,26	1286,12
481,46	1337,32
481,66	1232,88
481,86	1290,22
482,06	1241,07
482,27	1273,84
482,47	1316,84
482,67	1302,51
482,87	1257,45
483,07	1300,46
483,28	1263,60
483,48	1282,03
483,68	1294,32
483,88	1345,52
484,08	1372,14
484,29	1196,01
484,49	1269,74
484,69	1337,32
484,89	1322,99
485,09	1275,88
485,29	1249,26
485,50	1320,94
485,70	1400,81
485,90	1269,74
486,10	1282,03
486,30	1339,37
486,50	1245,16
486,71	1320,94
486,91	1304,56
487,11	1298,41
487,31	1241,07
487,51	1218,54
487,71	1261,55
487,91	1167,34
488,12	1230,83
488,32	1239,02
488,52	1216,49
488,72	1239,02
488,92	1279,98
489,12	1286,12
489,32	1255,40
489,53	1218,54
489,73	1210,35
489,93	1271,79
490,13	1236,97
490,33	1257,45
490,53	1357,80
490,73	1333,23
490,94	1329,13
491,14	1335,28
491,34	1181,68
491,54	1273,84
491,74	1339,37
491,94	1282,03
492,14	1259,50
492,34	1232,88
492,54	1200,11
492,75	1353,71
492,95	1196,01
493,15	1277,93
493,35	1253,36
493,55	1275,88
493,75	1316,84
493,95	1320,94
494,15	1247,21
494,35	1212,40
494,56	1273,84
494,76	1228,78
494,96	1267,69
495,16	1296,36
495,36	1204,21
495,56	1232,88
495,76	1275,88
495,96	1255,40
496,16	1187,82
496,36	1320,94
496,56	1261,55
496,77	1277,93
496,97	1257,45
497,17	1298,41
497,37	1284,08
497,57	1216,49
497,77	1202,16
497,97	1298,41
498,17	1204,21
498,37	1339,37
498,57	1267,69
498,77	1271,79
498,97	1312,75
499,17	1257,45
499,38	1181,68
499,58	1279,98
499,78	1322,99
499,98	1255,40
500,18	1210,35
500,38	1247,21
500,58	1220,59
500,78	1239,02
500,98	1294,32
501,18	1269,74
501,38	1279,98
501,58	1318,89
501,78	1275,88
501,98	1275,88
502,18	1296,36
502,38	1316,84
502,58	1327,08
502,78	1300,46
502,98	1327,08
503,18	1253,36
503,38	1271,79
503,59	1228,78
503,79	1245,16
503,99	1234,93
504,19	1183,73
504,39	1255,40
504,59	1273,84
504,79	1220,59
504,99	1253,36
505,19	1259,50
505,39	1204,21
505,59	1279,98
505,79	1255,40
505,99	1259,50
506,19	1255,40
506,39	1279,98
506,59	1286,12
506,79	1257,45
506,99	1335,28
507,19	1232,88
507,39	1339,37
507,59	1269,74
507,79	1230,83
507,99	1261,55
508,19	1208,30
508,39	1306,60
508,59	1298,41
508,79	1286,12
508,99	1288,17
509,19	1316,84
509,39	1275,88
509,59	1300,46
509,79	1269,74
509,99	1210,35
510,19	1277,93
510,39	1290,22
510,59	1271,79
510,79	1220,59
510,99	1349,61
511,19	1277,93
511,39	1282,03
511,59	1232,88
511,79	1232,88
511,99	1263,60
512,19	1314,80
512,38	1292,27
512,58	1273,84
512,78	1284,08
512,98	1298,41
513,18	1296,36
513,38	1224,69
513,58	1239,02
513,78	1333,23
513,98	1200,11
514,18	1279,98
514,38	1230,83
514,58	1204,21
514,78	1269,74
514,98	1230,83
515,18	1290,22
515,38	1269,74
515,58	1249,26
515,78	1187,82
515,98	1271,79
516,18	1275,88
516,38	1267,69
516,57	1249,26
516,77	1302,51
516,97	1308,65
517,17	1267,69
517,37	1208,30
517,57	1243,12
517,77	1212,40
517,97	1286,12
518,17	1290,22
518,37	1265,64
518,57	1243,12
518,77	1329,13
518,97	1255,40
519,16	1316,84
519,36	1288,17
519,56	1253,36
519,76	1286,12
519,96	1290,22
520,16	1322,99
520,36	1243,12
520,56	1249,26
520,76	1296,36
520,96	1265,64
521,16	1271,79
521,35	1220,59
521,55	1282,03
521,75	1243,12
521,95	1208,30
522,15	1265,64
522,35	1263,60
522,55	1296,36
522,75	1265,64
522,95	1198,06
523,14	1230,83
523,34	1214,45
523,54	1265,64
523,74	1224,69
523,94	1306,60
524,14	1228,78
524,34	1257,45
524,54	1316,84
524,73	1247,21
524,93	1263,60
525,13	1245,16
525,33	1347,56
525,53	1282,03
525,73	1290,22
525,93	1325,04
526,13	1277,93
526,32	1200,11
526,52	1374,19
526,72	1331,18
526,92	1308,65
527,12	1269,74
527,32	1228,78
527,52	1239,02
527,71	1245,16
527,91	1265,64
528,11	1267,69
528,31	1271,79
528,51	1282,03
528,71	1318,89
528,90	1259,50
529,10	1292,27
529,30	1318,89
529,50	1214,45
529,70	1286,12
529,90	1185,77
530,09	1302,51
530,29	1239,02
530,49	1286,12
530,69	1304,56
530,89	1263,60
531,09	1325,04
531,28	1261,55
531,48	1218,54
531,68	1288,17
531,88	1232,88
532,08	1259,50
532,28	1302,51
532,47	1216,49
532,67	1298,41
532,87	1265,64
533,07	1216,49
533,27	1271,79
533,46	1255,40
533,66	1206,25
533,86	1333,23
534,06	1273,84
534,26	1259,50
534,45	1282,03
534,65	1212,40
534,85	1261,55
535,05	1300,46
535,25	1292,27
535,44	1206,25
535,64	1255,40
535,84	1341,42
536,04	1249,26
536,24	1261,55
536,43	1224,69
536,63	1345,52
536,83	1318,89
537,03	1261,55
537,22	1251,31
537,42	1218,54
537,62	1226,73
537,82	1294,32
538,02	1292,27
538,21	1222,64
538,41	1296,36
538,61	1259,50
538,81	1243,12
539,00	1241,07
539,20	1368,04
539,40	1304,56
539,60	1331,18
539,79	1259,50
539,99	1249,26
540,19	1306,60
540,39	1255,40
540,58	1275,88
540,78	1316,84
540,98	1329,13
541,18	1193,97
541,37	1263,60
541,57	1298,41
541,77	1300,46
541,97	1206,25
542,16	1253,36
542,36	1245,16
542,56	1320,94
542,76	1234,93
542,95	1206,25
543,15	1259,50
543,35	1357,80
543,54	1345,52
543,74	1206,25
543,94	1265,64
544,14	1294,32
544,33	1277,93
544,53	1306,60
544,73	1202,16
544,93	1273,84
545,12	1304,56
545,32	1239,02
545,52	1259,50
545,71	1325,04
545,91	1187,82
546,11	1196,01
546,30	1179,63
546,50	1259,50
546,70	1263,60
546,90	1322,99
547,09	1294,32
547,29	1400,81
547,49	1189,87
547,68	1269,74
547,88	1234,93
548,08	1284,08
548,27	1335,28
548,47	1193,97
548,67	1216,49
548,87	1196,01
549,06	1269,74
549,26	1265,64
549,46	1212,40
549,65	1290,22
549,85	1284,08
550,05	1288,17
550,24	1298,41
550,44	1261,55
550,64	1255,40
550,83	1226,73
551,03	1208,30
551,23	1284,08
551,42	1265,64
551,62	1296,36
551,82	1222,64
552,01	1210,35
552,21	1263,60
552,41	1253,36
552,60	1273,84
552,80	1228,78
553,00	1204,21
553,19	1216,49
553,39	1279,98
553,59	1245,16
553,78	1275,88
553,98	1279,98
554,17	1286,12
554,37	1271,79
554,57	1214,45
554,76	1196,01
554,96	1300,46
555,16	1273,84
555,35	1337,32
555,55	1230,83
555,75	1243,12
555,94	1294,32
556,14	1269,74
556,33	1245,16
556,53	1282,03
556,73	1236,97
556,92	1286,12
557,12	1343,47
557,32	1236,97
557,51	1277,93
557,71	1316,84
557,90	1282,03
558,10	1241,07
558,30	1259,50
558,49	1234,93
558,69	1236,97
558,88	1230,83
559,08	1255,40
559,28	1284,08
559,47	1316,84
559,67	1300,46
559,86	1220,59
560,06	1267,69
560,26	1236,97
560,45	1247,21
560,65	1265,64
560,84	1245,16
561,04	1288,17
561,24	1269,74
561,43	1275,88
561,63	1298,41
561,82	1230,83
562,02	1325,04
562,22	1230,83
562,41	1228,78
562,61	1304,56
562,80	1230,83
563,00	1329,13
563,19	1300,46
563,39	1226,73
563,59	1255,40
563,78	1236,97
563,98	1292,27
564,17	1271,79
564,37	1298,41
564,56	1265,64
564,76	1257,45
564,96	1337,32
565,15	1261,55
565,35	1288,17
565,54	1296,36
565,74	1316,84
565,93	1259,50
566,13	1304,56
566,32	1220,59
566,52	1212,40
566,71	1216,49
566,91	1265,64
567,11	1302,51
567,30	1263,60
567,50	1312,75
567,69	1277,93
567,89	1320,94
568,08	1279,98
568,28	1279,98
568,47	1241,07
568,67	1214,45
568,86	1300,46
569,06	1269,74
569,25	1298,41
569,45	1187,82
569,64	1202,16
569,84	1290,22
570,04	1234,93
570,23	1282,03
570,43	1222,64
570,62	1265,64
570,82	1251,31
571,01	1294,32
571,21	1288,17
571,40	1257,45
571,60	1249,26
571,79	1316,84
571,99	1265,64
572,18	1290,22
572,38	1325,04
572,57	1255,40
572,77	1261,55
572,96	1251,31
573,16	1218,54
573,35	1298,41
573,55	1310,70
573,74	1314,80
573,94	1214,45
574,13	1265,64
574,33	1265,64
574,52	1304,56
574,71	1271,79
574,91	1263,60
575,10	1286,12
575,30	1247,21
575,49	1327,08
575,69	1245,16
575,88	1310,70
576,08	1249,26
576,27	1198,06
576,47	1279,98
576,66	1314,80
576,86	1212,40
577,05	1241,07
577,25	1259,50
577,44	1249,26
577,64	1308,65
577,83	1255,40
578,02	1298,41
578,22	1265,64
578,41	1300,46
578,61	1271,79
578,80	1308,65
579,00	1306,60
579,19	1224,69
579,39	1257,45
579,58	1204,21
579,77	1263,60
579,97	1294,32
580,16	1269,74
580,36	1290,22
580,55	1271,79
580,75	1275,88
580,94	1312,75
581,13	1259,50
581,33	1331,18
581,52	1257,45
581,72	1308,65
581,91	1226,73
582,11	1261,55
582,30	1263,60
582,49	1290,22
582,69	1255,40
582,88	1298,41
583,08	1314,80
583,27	1253,36
583,47	1294,32
583,66	1257,45
583,85	1271,79
584,05	1306,60
584,24	1241,07
584,44	1202,16
584,63	1234,93
584,82	1261,55
585,02	1253,36
585,21	1304,56
585,41	1308,65
585,60	1286,12
585,79	1284,08
585,99	1261,55
586,18	1279,98
586,37	1296,36
586,57	1279,98
586,76	1331,18
586,96	1290,22
587,15	1310,70
587,34	1279,98
587,54	1241,07
587,73	1234,93
587,93	1288,17
588,12	1292,27
588,31	1273,84
588,51	1230,83
588,70	1292,27
588,89	1269,74
589,09	1251,31
589,28	1294,32
589,47	1259,50
589,67	1220,59
589,86	1284,08
590,06	1314,80
590,25	1275,88
590,44	1277,93
590,64	1247,21
590,83	1218,54
591,02	1282,03
591,22	1296,36
591,41	1261,55
591,60	1308,65
591,80	1218,54
591,99	1265,64
592,18	1271,79
592,38	1279,98
592,57	1245,16
592,76	1304,56
592,96	1282,03
593,15	1220,59
593,34	1245,16
593,54	1271,79
593,73	1269,74
593,92	1251,31
594,12	1249,26
594,31	1257,45
594,50	1224,69
594,70	1210,35
594,89	1265,64
595,08	1263,60
595,28	1284,08
595,47	1245,16
595,66	1347,56
595,86	1243,12
596,05	1275,88
596,24	1306,60
596,43	1263,60
596,63	1236,97
596,82	1302,51
597,01	1286,12
597,21	1224,69
597,40	1279,98
597,59	1239,02
597,79	1255,40
597,98	1341,42
598,17	1304,56
598,36	1210,35
598,56	1257,45
598,75	1316,84
598,94	1300,46
599,14	1243,12
599,33	1265,64
599,52	1206,25
599,71	1310,70
599,91	1261,55
600,10	1277,93
600,29	1265,64
600,48	1251,31
600,68	1267,69
600,87	1267,69
601,06	1277,93
601,26	1331,18
601,45	1261,55
601,64	1239,02
601,83	1273,84
602,03	1294,32
602,22	1234,93
602,41	1318,89
602,60	1308,65
602,80	1214,45
602,99	1329,13
603,18	1308,65
603,37	1296,36
603,57	1228,78
603,76	1273,84
603,95	1300,46
604,14	1265,64
604,34	1269,74
604,53	1243,12
604,72	1228,78
604,91	1290,22
605,10	1249,26
605,30	1255,40
605,49	1267,69
605,68	1290,22
605,87	1273,84
606,07	1329,13
606,26	1322,99
606,45	1257,45
606,64	1284,08
606,84	1284,08
607,03	1222,64
607,22	1284,08
607,41	1189,87
607,60	1216,49
607,80	1292,27
607,99	1298,41
608,18	1267,69
608,37	1306,60
608,56	1193,97
608,76	1290,22
608,95	1189,87
609,14	1269,74
609,33	1292,27
609,52	1269,74
609,72	1275,88
609,91	1251,31
610,10	1318,89
610,29	1279,98
610,48	1208,30
610,68	1257,45
610,87	1253,36
611,06	1316,84
611,25	1206,25
611,44	1236,97
611,63	1210,35
611,83	1239,02
612,02	1265,64
612,21	1222,64
612,40	1234,93
612,59	1298,41
612,79	1243,12
612,98	1331,18
613,17	1241,07
613,36	1267,69
613,55	1304,56
613,74	1218,54
613,93	1202,16
614,13	1327,08
614,32	1247,21
614,51	1292,27
614,70	1310,70
614,89	1224,69
615,08	1302,51
615,28	1288,17
615,47	1325,04
615,66	1273,84
615,85	1320,94
616,04	1282,03
616,23	1243,12
616,42	1306,60
616,62	1273,84
616,81	1302,51
617,00	1290,22
617,19	1187,82
617,38	1251,31
617,57	1302,51
617,76	1294,32
617,95	1243,12
618,15	1257,45
618,34	1267,69
618,53	1230,83
618,72	1263,60
618,91	1243,12
619,10	1265,64
619,29	1214,45
619,48	1204,21
619,68	1316,84
619,87	1282,03
620,06	1282,03
620,25	1335,28
620,44	1226,73
620,63	1241,07
620,82	1247,21
621,01	1224,69
621,20	1236,97
621,39	1337,32
621,59	1257,45
621,78	1298,41
621,97	1257,45
622,16	1234,93
622,35	1302,51
622,54	1314,80
622,73	1214,45
622,92	1292,27
623,11	1263,60
623,30	1261,55
623,49	1320,94
623,68	1339,37
623,88	1267,69
624,07	1271,79
624,26	1236,97
624,45	1267,69
624,64	1296,36
624,83	1294,32
625,02	1251,31
625,21	1269,74
625,40	1277,93
625,59	1343,47
625,78	1327,08
625,97	1277,93
626,16	1277,93
626,35	1333,23
626,54	1265,64
626,74	1239,02
626,93	1345,52
627,12	1267,69
627,31	1320,94
627,50	1355,76
627,69	1290,22
627,88	1245,16
628,07	1347,56
628,26	1269,74
628,45	1314,80
628,64	1380,33
628,83	1243,12
629,02	1292,27
629,21	1255,40
629,40	1286,12
629,59	1273,84
629,78	1306,60
629,97	1312,75
630,16	1200,11
630,35	1329,13
630,54	1275,88
630,73	1325,04
630,92	1337,32
631,11	1251,31
631,30	1304,56
631,49	1282,03
631,68	1388,52
631,87	1421,29
632,06	1437,67
632,25	1370,09
632,44	1517,54
632,63	1429,48
632,82	1437,67
633,01	1464,30
633,20	1417,19
633,39	1452,01
633,58	1388,52
633,77	1439,72
633,96	1501,16
634,15	1441,77
634,34	1519,59
634,53	1474,54
634,72	1449,96
634,91	1400,81
635,10	1486,83
635,29	1478,63
635,48	1495,02
635,67	1452,01
635,86	1370,09
636,05	1433,58
636,24	1304,56
636,43	1396,71
636,62	1409,00
636,81	1368,04
637,00	1396,71
637,19	1400,81
637,38	1380,33
637,57	1322,99
637,76	1359,85
637,95	1251,31
638,14	1337,32
638,33	1347,56
638,52	1349,61
638,71	1263,60
638,89	1275,88
639,08	1269,74
639,27	1306,60
639,46	1200,11
639,65	1247,21
639,84	1251,31
640,03	1243,12
640,22	1279,98
640,41	1304,56
640,60	1239,02
640,79	1308,65
640,98	1302,51
641,17	1282,03
641,36	1208,30
641,55	1341,42
641,74	1241,07
641,92	1249,26
642,11	1245,16
642,30	1279,98
642,49	1304,56
642,68	1325,04
642,87	1286,12
643,06	1269,74
643,25	1282,03
643,44	1243,12
643,63	1288,17
643,82	1368,04
644,00	1279,98
644,19	1322,99
644,38	1290,22
644,57	1224,69
644,76	1257,45
644,95	1185,77
645,14	1316,84
645,33	1308,65
645,52	1331,18
645,71	1382,38
645,89	1267,69
646,08	1279,98
646,27	1275,88
646,46	1251,31
646,65	1269,74
646,84	1226,73
647,03	1249,26
647,22	1290,22
647,40	1339,37
647,59	1261,55
647,78	1222,64
647,97	1294,32
648,16	1193,97
648,35	1216,49
648,54	1333,23
648,73	1282,03
648,91	1241,07
649,10	1273,84
649,29	1312,75
649,48	1298,41
649,67	1206,25
649,86	1267,69
650,05	1318,89
650,23	1327,08
650,42	1257,45
650,61	1288,17
650,80	1366,00
650,99	1363,95
651,18	1279,98
651,36	1265,64
651,55	1257,45
651,74	1310,70
651,93	1198,06
652,12	1241,07
652,31	1298,41
652,49	1241,07
652,68	1261,55
652,87	1269,74
653,06	1193,97
653,25	1339,37
653,44	1308,65
653,62	1265,64
653,81	1271,79
654,00	1282,03
654,19	1236,97
654,38	1304,56
654,56	1261,55
654,75	1286,12
654,94	1294,32
655,13	1288,17
655,32	1265,64
655,51	1273,84
655,69	1345,52
655,88	1314,80
656,07	1318,89
656,26	1290,22
656,45	1288,17
656,63	1296,36
656,82	1263,60
657,01	1271,79
657,20	1224,69
657,38	1265,64
657,57	1234,93
657,76	1312,75
657,95	1337,32
658,14	1263,60
658,32	1286,12
658,51	1341,42
658,70	1265,64
658,89	1257,45
659,08	1251,31
659,26	1277,93
659,45	1241,07
659,64	1198,06
659,83	1296,36
660,01	1282,03
660,20	1232,88
660,39	1212,40
660,58	1267,69
660,76	1288,17
660,95	1241,07
661,14	1234,93
661,33	1298,41
661,51	1193,97
661,70	1259,50
661,89	1279,98
662,08	1349,61
662,26	1206,25
662,45	1306,60
662,64	1249,26
662,83	1257,45
663,01	1230,83
663,20	1228,78
663,39	1224,69
663,58	1298,41
663,76	1257,45
663,95	1343,47
664,14	1210,35
664,32	1331,18
664,51	1200,11
664,70	1249,26
664,89	1331,18
665,07	1249,26
665,26	1318,89
665,45	1259,50
665,64	1347,56
665,82	1267,69
666,01	1310,70
666,20	1273,84
666,38	1290,22
666,57	1241,07
666,76	1253,36
666,95	1282,03
667,13	1304,56
667,32	1191,92
667,51	1298,41
667,69	1271,79
667,88	1306,60
668,07	1269,74
668,25	1363,95
668,44	1314,80
668,63	1210,35
668,81	1216,49
669,00	1271,79
669,19	1286,12
669,38	1220,59
669,56	1257,45
669,75	1255,40
669,94	1273,84
670,12	1263,60
670,31	1269,74
670,50	1288,17
670,68	1239,02
670,87	1210,35
671,06	1183,73
671,24	1226,73
671,43	1224,69
671,62	1337,32
671,80	1234,93
671,99	1284,08
672,18	1290,22
672,36	1224,69
672,55	1275,88
672,74	1279,98
672,92	1279,98
673,11	1279,98
673,29	1339,37
673,48	1271,79
673,67	1177,58
673,85	1189,87
674,04	1267,69
674,23	1241,07
674,41	1312,75
674,60	1261,55
674,79	1249,26
674,97	1335,28
675,16	1234,93
675,34	1232,88
675,53	1263,60
675,72	1275,88
675,90	1253,36
676,09	1277,93
676,28	1202,16
676,46	1220,59
676,65	1290,22
676,83	1267,69
677,02	1241,07
677,21	1279,98
677,39	1314,80
677,58	1337,32
677,77	1286,12
677,95	1275,88
678,14	1210,35
678,32	1343,47
678,51	1308,65
678,70	1345,52
678,88	1245,16
679,07	1290,22
679,25	1265,64
679,44	1292,27
679,63	1228,78
679,81	1232,88
680,00	1292,27
680,18	1265,64
680,37	1345,52
680,55	1308,65
680,74	1185,77
680,93	1318,89
681,11	1298,41
681,30	1218,54
681,48	1282,03
681,67	1314,80
681,85	1288,17
682,04	1249,26
682,23	1257,45
682,41	1261,55
682,60	1275,88
682,78	1359,85
682,97	1300,46
683,15	1312,75
683,34	1253,36
683,53	1241,07
683,71	1202,16
683,90	1269,74
684,08	1230,83
684,27	1298,41
684,45	1290,22
684,64	1322,99
684,82	1263,60
685,01	1277,93
685,19	1269,74
685,38	1273,84
685,57	1249,26
685,75	1257,45
685,94	1259,50
686,12	1230,83
686,31	1292,27
686,49	1282,03
686,68	1234,93
686,86	1282,03
687,05	1320,94
687,23	1304,56
687,42	1243,12
687,60	1255,40
687,79	1277,93
687,97	1312,75
688,16	1286,12
688,34	1271,79
688,53	1290,22
688,71	1189,87
688,90	1302,51
689,08	1288,17
689,27	1263,60
689,45	1265,64
689,64	1271,79
689,82	1214,45
690,01	1298,41
690,19	1294,32
690,38	1249,26
690,56	1236,97
690,75	1232,88
690,93	1214,45
691,12	1279,98
691,30	1320,94
691,49	1292,27
691,67	1249,26
691,86	1302,51
692,04	1341,42
692,23	1243,12
692,41	1288,17
692,60	1232,88
692,78	1259,50
692,97	1220,59
693,15	1228,78
693,34	1206,25
693,52	1222,64
693,71	1269,74
693,89	1279,98
694,08	1245,16
694,26	1216,49
694,44	1282,03
694,63	1331,18
694,81	1222,64
695,00	1351,66
695,18	1267,69
695,37	1345,52
695,55	1325,04
695,74	1224,69
695,92	1208,30
696,10	1251,31
696,29	1183,73
696,47	1261,55
696,66	1224,69
696,84	1239,02
697,03	1310,70
697,21	1306,60
697,40	1351,66
697,58	1325,04
697,76	1277,93
697,95	1212,40
698,13	1279,98
698,32	1302,51
698,50	1282,03
698,68	1298,41
698,87	1288,17
699,05	1232,88
699,24	1271,79
699,42	1212,40
699,61	1253,36
699,79	1271,79
699,97	1353,71
700,16	1251,31
700,34	1261,55
700,53	1273,84
700,71	1290,22
700,89	1259,50
701,08	1236,97
701,26	1214,45
701,45	1304,56
701,63	1298,41
701,81	1292,27
702,00	1257,45
702,18	1275,88
702,37	1259,50
702,55	1284,08
702,73	1286,12
702,92	1269,74
703,10	1251,31
703,28	1261,55
703,47	1222,64
703,65	1245,16
703,84	1320,94
704,02	1243,12
704,20	1265,64
704,39	1265,64
704,57	1284,08
704,75	1359,85
704,94	1265,64
705,12	1243,12
705,30	1239,02
705,49	1257,45
705,67	1341,42
705,86	1288,17
706,04	1267,69
706,22	1249,26
706,41	1298,41
706,59	1220,59
706,77	1310,70
706,96	1253,36
707,14	1361,90
707,32	1298,41
707,51	1372,14
707,69	1298,41
707,87	1333,23
708,06	1310,70
708,24	1277,93
708,42	1292,27
708,61	1210,35
708,79	1345,52
708,97	1290,22
709,16	1277,93
709,34	1191,92
709,52	1302,51
709,71	1200,11
709,89	1249,26
710,07	1273,84
710,26	1253,36
710,44	1310,70
710,62	1282,03
710,80	1226,73
710,99	1193,97
711,17	1292,27
711,35	1210,35
711,54	1249,26
711,72	1273,84
711,90	1331,18
712,09	1271,79
712,27	1325,04
712,45	1239,02
712,63	1308,65
712,82	1224,69
713,00	1314,80
713,18	1273,84
713,37	1273,84
713,55	1271,79
713,73	1257,45
713,91	1339,37
714,10	1290,22
714,28	1249,26
714,46	1269,74
714,65	1261,55
714,83	1339,37
715,01	1282,03
715,19	1234,93
715,38	1234,93
715,56	1259,50
715,74	1288,17
715,92	1228,78
716,11	1298,41
716,29	1314,80
716,47	1351,66
716,65	1245,16
716,84	1316,84
717,02	1312,75
717,20	1282,03
717,38	1292,27
717,57	1296,36
717,75	1302,51
717,93	1191,92
718,11	1325,04
718,30	1267,69
718,48	1179,63
718,66	1271,79
718,84	1265,64
719,03	1306,60
719,21	1212,40
719,39	1196,01
719,57	1253,36
719,75	1275,88
719,94	1265,64
720,12	1247,21
720,30	1343,47
720,48	1279,98
720,67	1312,75
720,85	1247,21
721,03	1312,75
721,21	1202,16
721,39	1269,74
721,58	1271,79
721,76	1372,14
721,94	1216,49
722,12	1144,81
722,30	1312,75
722,49	1343,47
722,67	1261,55
722,85	1224,69
723,03	1279,98
723,21	1271,79
723,40	1275,88
723,58	1255,40
723,76	1267,69
723,94	1271,79
724,12	1257,45
724,30	1327,08
724,49	1284,08
724,67	1320,94
724,85	1286,12
725,03	1257,45
725,21	1265,64
725,40	1284,08
725,58	1300,46
725,76	1241,07
725,94	1296,36
726,12	1318,89
726,30	1349,61
726,49	1226,73
726,67	1202,16
726,85	1273,84
727,03	1247,21
727,21	1261,55
727,39	1306,60
727,57	1249,26
727,76	1257,45
727,94	1366,00
728,12	1263,60
728,30	1296,36
728,48	1284,08
728,66	1263,60
728,84	1230,83
729,03	1249,26
729,21	1206,25
729,39	1257,45
729,57	1271,79
729,75	1337,32
729,93	1247,21
730,11	1226,73
730,30	1263,60
730,48	1198,06
730,66	1353,71
730,84	1339,37
731,02	1232,88
731,20	1286,12
731,38	1253,36
731,56	1236,97
731,74	1294,32
731,93	1290,22
732,11	1345,52
732,29	1230,83
732,47	1288,17
732,65	1275,88
732,83	1327,08
733,01	1273,84
733,19	1298,41
733,37	1198,06
733,56	1282,03
733,74	1322,99
733,92	1290,22
734,10	1198,06
734,28	1296,36
734,46	1249,26
734,64	1183,73
734,82	1413,10
735,00	1222,64
735,18	1265,64
735,36	1245,16
735,54	1327,08
735,73	1277,93
735,91	1228,78
736,09	1298,41
736,27	1327,08
736,45	1273,84
736,63	1247,21
736,81	1220,59
736,99	1304,56
737,17	1277,93
737,35	1241,07
737,53	1329,13
737,71	1273,84
737,89	1222,64
738,07	1282,03
738,25	1224,69
738,43	1296,36
738,61	1253,36
738,80	1331,18
738,98	1271,79
739,16	1253,36
739,34	1212,40
739,52	1312,75
739,70	1259,50
739,88	1228,78
740,06	1267,69
740,24	1253,36
740,42	1314,80
740,60	1325,04
740,78	1255,40
740,96	1288,17
741,14	1294,32
741,32	1265,64
741,50	1300,46
741,68	1228,78
741,86	1222,64
742,04	1271,79
742,22	1251,31
742,40	1265,64
742,58	1331,18
742,76	1265,64
742,94	1300,46
743,12	1292,27
743,30	1245,16
743,48	1286,12
743,66	1183,73
743,84	1296,36
744,02	1298,41
744,20	1322,99
744,38	1251,31
744,56	1208,30
744,74	1247,21
744,92	1263,60
745,10	1331,18
745,28	1271,79
745,46	1325,04
745,64	1288,17
745,82	1220,59
746,00	1312,75
746,18	1275,88
746,36	1339,37
746,54	1249,26
746,72	1267,69
746,90	1243,12
747,08	1253,36
747,26	1216,49
747,44	1271,79
747,62	1214,45
747,80	1222,64
747,98	1257,45
748,15	1234,93
748,33	1300,46
748,51	1318,89
748,69	1226,73
748,87	1224,69
749,05	1351,66
749,23	1300,46
749,41	1335,28
749,59	1277,93
749,77	1245,16
749,95	1251,31
750,13	1318,89
750,31	1214,45
750,49	1251,31
750,67	1257,45
750,85	1251,31
751,03	1243,12
751,20	1265,64
751,38	1282,03
751,56	1312,75
751,74	1253,36
751,92	1320,94
752,10	1253,36
752,28	1329,13
752,46	1265,64
752,64	1189,87
752,82	1304,56
753,00	1263,60
753,18	1284,08
753,35	1294,32
753,53	1296,36
753,71	1228,78
753,89	1316,84
754,07	1202,16
754,25	1304,56
754,43	1261,55
754,61	1228,78
754,79	1282,03
754,97	1249,26
755,14	1310,70
755,32	1200,11
755,50	1284,08
755,68	1208,30
755,86	1232,88
756,04	1296,36
756,22	1298,41
756,40	1275,88
756,57	1261,55
756,75	1271,79
756,93	1277,93
757,11	1214,45
757,29	1308,65
757,47	1296,36
757,65	1288,17
757,82	1181,68
758,00	1251,31
758,18	1257,45
758,36	1196,01
758,54	1259,50
758,72	1277,93
758,90	1333,23
759,07	1257,45
759,25	1196,01
759,43	1286,12
759,61	1273,84
759,79	1282,03
759,97	1265,64
760,15	1294,32
760,32	1265,64
760,50	1322,99
760,68	1222,64
760,86	1226,73
761,04	1288,17
761,22	1357,80
761,39	1269,74
761,57	1290,22
761,75	1247,21
761,93	1267,69
762,11	1253,36
762,28	1236,97
762,46	1322,99
762,64	1294,32
762,82	1267,69
763,00	1284,08
763,18	1294,32
763,35	1245,16
763,53	1300,46
763,71	1273,84
763,89	1308,65
764,07	1308,65
764,24	1212,40
764,42	1198,06
764,60	1265,64
764,78	1243,12
764,96	1226,73
765,13	1259,50
765,31	1245,16
765,49	1298,41
765,67	1312,75
765,84	1247,21
766,02	1282,03
766,20	1271,79
766,38	1271,79
766,56	1232,88
766,73	1282,03
766,91	1282,03
767,09	1282,03
767,27	1298,41
767,44	1310,70
767,62	1271,79
767,80	1245,16
767,98	1220,59
768,15	1296,36
768,33	1320,94
768,51	1294,32
768,69	1267,69
768,87	1230,83
769,04	1204,21
769,22	1275,88
769,40	1265,64
769,58	1269,74
769,75	1282,03
769,93	1284,08
770,11	1243,12
770,28	1212,40
770,46	1292,27
770,64	1288,17
770,82	1234,93
770,99	1232,88
771,17	1302,51
771,35	1292,27
771,53	1265,64
771,70	1298,41
771,88	1388,52
772,06	1214,45
772,23	1247,21
772,41	1257,45
772,59	1284,08
772,77	1286,12
772,94	1243,12
773,12	1230,83
773,30	1245,16
773,47	1220,59
773,65	1249,26
773,83	1200,11
774,01	1222,64
774,18	1296,36
774,36	1232,88
774,54	1263,60
774,71	1335,28
774,89	1314,80
775,07	1255,40
775,24	1314,80
775,42	1249,26
775,60	1251,31
775,78	1322,99
775,95	1314,80
776,13	1282,03
776,31	1263,60
776,48	1247,21
776,66	1318,89
776,84	1206,25
777,01	1271,79
777,19	1273,84
777,37	1257,45
777,54	1318,89
777,72	1308,65
777,90	1206,25
778,07	1292,27
778,25	1277,93
778,43	1263,60
778,60	1263,60
778,78	1331,18
778,96	1222,64
779,13	1265,64
779,31	1249,26
779,49	1292,27
779,66	1288,17
779,84	1257,45
780,01	1310,70
780,19	1271,79
780,37	1220,59
780,54	1222,64
780,72	1282,03
780,90	1249,26
781,07	1273,84
781,25	1306,60
781,43	1302,51
781,60	1355,76
781,78	1275,88
781,95	1343,47
782,13	1263,60
782,31	1277,93
782,48	1341,42
782,66	1349,61
782,83	1355,76
783,01	1257,45
783,19	1234,93
783,36	1286,12
783,54	1198,06
783,72	1279,98
783,89	1284,08
784,07	1243,12
784,24	1282,03
784,42	1193,97
784,60	1249,26
784,77	1296,36
784,95	1239,02
785,12	1236,97
785,30	1347,56
785,47	1325,04
785,65	1239,02
785,83	1249,26
786,00	1241,07
786,18	1275,88
786,35	1320,94
786,53	1234,93
786,71	1298,41
786,88	1300,46
787,06	1314,80
787,23	1304,56
787,41	1279,98
787,58	1292,27
787,76	1255,40
787,94	1298,41
788,11	1259,50
788,29	1286,12
788,46	1263,60
788,64	1247,21
788,81	1255,40
788,99	1267,69
789,16	1277,93
789,34	1302,51
789,52	1284,08
789,69	1312,75
789,87	1263,60
790,04	1243,12
790,22	1275,88
790,39	1251,31
790,57	1245,16
790,74	1296,36
790,92	1277,93
791,09	1261,55
791,27	1259,50
791,44	1261,55
791,62	1265,64
791,79	1249,26
791,97	1277,93
792,15	1284,08
792,32	1300,46
792,50	1286,12
792,67	1263,60
792,85	1294,32
793,02	1290,22
793,20	1210,35
793,37	1318,89
793,55	1230,83
793,72	1292,27
793,90	1230,83
794,07	1239,02
794,25	1220,59
794,42	1341,42
794,60	1169,39
794,77	1230,83
794,95	1263,60
795,12	1159,15
795,30	1294,32
795,47	1312,75
795,65	1253,36
795,82	1322,99
796,00	1230,83
796,17	1308,65
796,34	1232,88
796,52	1226,73
796,69	1286,12
796,87	1306,60
797,04	1257,45
797,22	1284,08
797,39	1288,17
797,57	1263,60
797,74	1271,79
797,92	1261,55
798,09	1265,64
798,27	1302,51
798,44	1318,89
798,62	1232,88
798,79	1265,64
798,96	1290,22
799,14	1243,12
799,31	1310,70
799,49	1234,93
799,66	1257,45
799,84	1277,93
800,01	1257,45
800,19	1273,84
800,36	1265,64
800,53	1298,41
800,71	1275,88
800,88	1179,63
801,06	1241,07
801,23	1298,41
801,41	1265,64
801,58	1271,79
801,75	1322,99
801,93	1214,45
802,10	1239,02
802,28	1318,89
802,45	1251,31
802,63	1286,12
802,80	1306,60
802,97	1345,52
803,15	1327,08
803,32	1263,60
803,50	1296,36
803,67	1277,93
803,84	1284,08
804,02	1337,32
804,19	1277,93
804,37	1284,08
804,54	1263,60
804,71	1273,84
804,89	1267,69
805,06	1232,88
805,24	1206,25
805,41	1306,60
805,58	1224,69
805,76	1230,83
805,93	1208,30
806,10	1273,84
806,28	1259,50
806,45	1304,56
806,63	1224,69
806,80	1347,56
806,97	1253,36
807,15	1286,12
807,32	1290,22
807,49	1273,84
807,67	1273,84
807,84	1306,60
808,01	1308,65
808,19	1214,45
808,36	1279,98
808,54	1277,93
808,71	1247,21
808,88	1220,59
809,06	1312,75
809,23	1302,51
809,40	1282,03
809,58	1286,12
809,75	1298,41
809,92	1322,99
810,10	1257,45
810,27	1224,69
810,44	1284,08
810,62	1359,85
810,79	1261,55
810,96	1241,07
811,14	1300,46
811,31	1249,26
811,48	1310,70
811,66	1290,22
811,83	1271,79
812,00	1202,16
812,18	1292,27
812,35	1265,64
812,52	1308,65
812,69	1361,90
812,87	1267,69
813,04	1212,40
813,21	1224,69
813,39	1290,22
813,56	1193,97
813,73	1282,03
813,91	1288,17
814,08	1236,97
814,25	1232,88
814,42	1265,64
814,60	1312,75
814,77	1282,03
814,94	1273,84
815,12	1251,31
815,29	1298,41
815,46	1347,56
815,63	1273,84
815,81	1325,04
815,98	1357,80
816,15	1294,32
816,33	1185,77
816,50	1337,32
816,67	1265,64
816,84	1253,36
817,02	1269,74
817,19	1230,83
817,36	1308,65
817,53	1222,64
817,71	1279,98
817,88	1218,54
818,05	1249,26
818,22	1257,45
818,40	1253,36
818,57	1267,69
818,74	1239,02
818,91	1298,41
819,09	1236,97
819,26	1239,02
819,43	1243,12
819,60	1261,55
819,78	1241,07
819,95	1335,28
820,12	1222,64
820,29	1259,50
820,47	1353,71
820,64	1337,32
820,81	1306,60
820,98	1259,50
821,15	1273,84
821,33	1277,93
821,50	1247,21
821,67	1288,17
821,84	1251,31
822,02	1249,26
822,19	1310,70
822,36	1275,88
822,53	1202,16
822,70	1271,79
822,88	1320,94
823,05	1222,64
823,22	1222,64
823,39	1304,56
823,56	1253,36
823,74	1318,89
823,91	1265,64
824,08	1167,34
824,25	1243,12
824,42	1249,26
824,60	1259,50
824,77	1273,84
824,94	1322,99
825,11	1259,50
825,28	1298,41
825,45	1331,18
825,63	1267,69
825,80	1222,64
825,97	1247,21
826,14	1320,94
826,31	1249,26
826,48	1267,69
826,66	1204,21
826,83	1318,89
827,00	1263,60
827,17	1241,07
827,34	1284,08
827,51	1345,52
827,69	1228,78
827,86	1198,06
828,03	1353,71
828,20	1282,03
828,37	1292,27
828,54	1247,21
828,71	1269,74
828,89	1257,45
829,06	1255,40
829,23	1269,74
829,40	1263,60
829,57	1275,88
829,74	1222,64
829,91	1286,12
830,09	1247,21
830,26	1351,66
830,43	1322,99
830,60	1298,41
830,77	1226,73
830,94	1243,12
831,11	1265,64
831,28	1349,61
831,46	1232,88
831,63	1314,80
831,80	1228,78
831,97	1218,54
832,14	1322,99
832,31	1296,36
832,48	1308,65
832,65	1298,41
832,82	1241,07
832,99	1257,45
833,17	1232,88
833,34	1282,03
833,51	1306,60
833,68	1302,51
833,85	1249,26
834,02	1259,50
834,19	1265,64
834,36	1296,36
834,53	1236,97
834,70	1308,65
834,87	1243,12
835,04	1273,84
835,22	1243,12
835,39	1263,60
835,56	1187,82
835,73	1241,07
835,90	1255,40
836,07	1286,12
836,24	1251,31
836,41	1345,52
836,58	1275,88
836,75	1298,41
836,92	1265,64
837,09	1357,80
837,26	1294,32
837,43	1275,88
837,60	1249,26
837,77	1210,35
837,94	1304,56
838,12	1296,36
838,29	1284,08
838,46	1259,50
838,63	1292,27
838,80	1273,84
838,97	1286,12
839,14	1290,22
839,31	1273,84
839,48	1259,50
839,65	1286,12
839,82	1232,88
839,99	1214,45
840,16	1255,40
840,33	1241,07
840,50	1314,80
840,67	1284,08
840,84	1251,31
841,01	1269,74
841,18	1292,27
841,35	1325,04
841,52	1243,12
841,69	1243,12
841,86	1222,64
842,03	1292,27
842,20	1214,45
842,37	1247,21
842,54	1363,95
842,71	1370,09
842,88	1202,16
843,05	1241,07
843,22	1222,64
843,39	1224,69
843,56	1318,89
843,73	1294,32
843,90	1222,64
844,07	1255,40
844,24	1292,27
844,41	1320,94
844,58	1214,45
844,75	1245,16
844,92	1271,79
845,09	1251,31
845,26	1316,84
845,43	1224,69
845,60	1322,99
845,77	1277,93
845,94	1277,93
846,10	1226,73
846,27	1259,50
846,44	1220,59
846,61	1320,94
846,78	1245,16
846,95	1290,22
847,12	1245,16
847,29	1327,08
847,46	1273,84
847,63	1294,32
847,80	1277,93
847,97	1214,45
848,14	1218,54
848,31	1230,83
848,48	1247,21
848,65	1298,41
848,82	1329,13
848,98	1261,55
849,15	1273,84
849,32	1234,93
849,49	1222,64
849,66	1314,80
849,83	1304,56
850,00	1185,77
850,17	1282,03
850,34	1249,26
850,51	1255,40
850,68	1206,25
850,85	1196,01
851,01	1286,12
851,18	1257,45
851,35	1243,12
851,52	1247,21
851,69	1327,08
851,86	1247,21
852,03	1265,64
852,20	1265,64
852,37	1296,36
852,53	1222,64
852,70	1273,84
852,87	1290,22
853,04	1183,73
853,21	1318,89
853,38	1292,27
853,55	1247,21
853,72	1286,12
853,89	1286,12
854,05	1292,27
854,22	1298,41
854,39	1259,50
854,56	1322,99
854,73	1269,74
854,90	1318,89
855,07	1232,88
855,23	1306,60
855,40	1241,07
855,57	1363,95
855,74	1277,93
855,91	1243,12
856,08	1277,93
856,25	1249,26
856,41	1312,75
856,58	1216,49
856,75	1202,16
856,92	1333,23
857,09	1306,60
857,26	1241,07
857,42	1316,84
857,59	1343,47
857,76	1296,36
857,93	1243,12
858,10	1189,87
858,27	1296,36
858,43	1290,22
858,60	1245,16
858,77	1259,50
858,94	1241,07
859,11	1255,40
859,27	1206,25
859,44	1249,26
859,61	1275,88
859,78	1259,50
859,95	1251,31
860,12	1290,22
860,28	1249,26
860,45	1263,60
860,62	1275,88
860,79	1259,50
860,95	1249,26
861,12	1261,55
861,29	1257,45
861,46	1310,70
861,63	1210,35
861,79	1253,36
861,96	1288,17
862,13	1310,70
862,30	1224,69
862,47	1210,35
862,63	1226,73
862,80	1275,88
862,97	1288,17
863,14	1327,08
863,30	1277,93
863,47	1279,98
863,64	1290,22
863,81	1177,58
863,97	1236,97
864,14	1241,07
864,31	1265,64
864,48	1241,07
864,65	1236,97
864,81	1286,12
864,98	1275,88
865,15	1267,69
865,32	1275,88
865,48	1331,18
865,65	1241,07
865,82	1267,69
865,98	1232,88
866,15	1269,74
866,32	1253,36
866,49	1337,32
866,65	1230,83
866,82	1310,70
866,99	1310,70
867,16	1316,84
867,32	1314,80
867,49	1249,26
867,66	1247,21
867,83	1279,98
867,99	1294,32
868,16	1320,94
868,33	1310,70
868,49	1265,64
868,66	1251,31
868,83	1200,11
868,99	1300,46
869,16	1208,30
869,33	1290,22
869,50	1263,60
869,66	1259,50
869,83	1337,32
870,00	1241,07
870,16	1175,53
870,33	1239,02
870,50	1232,88
870,66	1298,41
870,83	1198,06
871,00	1243,12
871,17	1267,69
871,33	1290,22
871,50	1327,08
871,67	1361,90
871,83	1234,93
872,00	1243,12
872,17	1222,64
872,33	1298,41
872,50	1300,46
872,67	1228,78
872,83	1241,07
873,00	1236,97
873,17	1335,28
873,33	1222,64
873,50	1288,17
873,67	1308,65
873,83	1304,56
874,00	1271,79
874,16	1288,17
874,33	1236,97
874,50	1265,64
874,66	1320,94
874,83	1265,64
875,00	1275,88
875,16	1228,78
875,33	1290,22
875,50	1259,50
875,66	1241,07
875,83	1267,69
875,99	1255,40
876,16	1253,36
876,33	1214,45
876,49	1257,45
876,66	1284,08
876,83	1327,08
876,99	1304,56
877,16	1271,79
877,32	1228,78
877,49	1312,75
877,66	1304,56
877,82	1282,03
877,99	1269,74
878,15	1239,02
878,32	1261,55
878,49	1345,52
878,65	1306,60
878,82	1230,83
878,98	1273,84
879,15	1310,70
879,32	1271,79
879,48	1298,41
879,65	1345,52
879,81	1288,17
879,98	1333,23
880,15	1329,13
880,31	1261,55
880,48	1277,93
880,64	1259,50
880,81	1249,26
880,97	1318,89
881,14	1331,18
881,31	1243,12
881,47	1257,45
881,64	1243,12
881,80	1230,83
881,97	1247,21
882,13	1259,50
882,30	1357,80
882,47	1314,80
882,63	1253,36
882,80	1273,84
882,96	1189,87
883,13	1351,66
883,29	1253,36
883,46	1320,94
883,62	1304,56
883,79	1320,94
883,95	1302,51
884,12	1322,99
884,29	1257,45
884,45	1247,21
884,62	1269,74
884,78	1294,32
884,95	1298,41
885,11	1372,14
885,28	1212,40
885,44	1253,36
885,61	1296,36
885,77	1320,94
885,94	1263,60
886,10	1247,21
886,27	1320,94
886,43	1327,08
886,60	1255,40
886,76	1304,56
886,93	1267,69
887,09	1298,41
887,26	1316,84
887,42	1222,64
887,59	1245,16
887,75	1316,84
887,92	1298,41
888,08	1259,50
888,25	1290,22
888,41	1300,46
888,58	1185,77
888,74	1273,84
888,91	1271,79
>>>>>End Processed Spectral Data<<<<<
