SpectraSuite Data File
++++++++++++++++++++++++++++++++++++
Date: Sun Apr 03 19:24:04 CEST 2016
User: root
Dark Spectrum Present: No
Reference Spectrum Present: No
Number of Sampled Component Spectra: 1
Spectrometers: USB4C02835
Integration Time (usec): 10000 (USB4C02835)
Spectra Averaged: 1 (USB4C02835)
Boxcar Smoothing: 0 (USB4C02835)
Correct for Electrical Dark: No (USB4C02835)
Strobe/Lamp Enabled: No (USB4C02835)
Correct for Detector Non-linearity: No (USB4C02835)
Correct for Stray Light: No (USB4C02835)
Number of Pixels in Processed Spectrum: 3648
>>>>>Begin Processed Spectral Data<<<<<
177,47	1306,60
177,69	1306,60
177,91	1306,60
178,13	1253,36
178,36	1214,45
178,58	1200,11
178,80	1320,94
179,02	1271,79
179,24	1247,21
179,46	1267,69
179,68	1214,45
179,90	1271,79
180,13	1230,83
180,35	1259,50
180,57	1265,64
180,79	1249,26
181,01	1234,93
181,23	1247,21
181,45	1216,49
181,67	1327,08
181,90	1200,11
182,12	1243,12
182,34	1273,84
182,56	1294,32
182,78	1241,07
183,00	1245,16
183,22	1247,21
183,44	1271,79
183,66	1206,25
183,89	1269,74
184,11	1331,18
184,33	1214,45
184,55	1322,99
184,77	1236,97
184,99	1284,08
185,21	1214,45
185,43	1304,56
185,65	1239,02
185,87	1316,84
186,10	1277,93
186,32	1249,26
186,54	1279,98
186,76	1202,16
186,98	1239,02
187,20	1271,79
187,42	1277,93
187,64	1249,26
187,86	1249,26
188,08	1230,83
188,30	1286,12
188,52	1234,93
188,75	1277,93
188,97	1208,30
189,19	1261,55
189,41	1298,41
189,63	1314,80
189,85	1204,21
190,07	1290,22
190,29	1265,64
190,51	1243,12
190,73	1249,26
190,95	1306,60
191,17	1222,64
191,39	1273,84
191,61	1306,60
191,84	1271,79
192,06	1296,36
192,28	1241,07
192,50	1327,08
192,72	1214,45
192,94	1267,69
193,16	1234,93
193,38	1292,27
193,60	1312,75
193,82	1224,69
194,04	1267,69
194,26	1210,35
194,48	1259,50
194,70	1310,70
194,92	1253,36
195,14	1230,83
195,36	1251,31
195,58	1286,12
195,80	1265,64
196,02	1265,64
196,24	1312,75
196,46	1271,79
196,69	1286,12
196,91	1284,08
197,13	1245,16
197,35	1327,08
197,57	1306,60
197,79	1249,26
198,01	1271,79
198,23	1224,69
198,45	1251,31
198,67	1265,64
198,89	1247,21
199,11	1247,21
199,33	1257,45
199,55	1310,70
199,77	1236,97
199,99	1191,92
200,21	1314,80
200,43	1261,55
200,65	1222,64
200,87	1275,88
201,09	1310,70
201,31	1239,02
201,53	1210,35
201,75	1236,97
201,97	1259,50
202,19	1284,08
202,41	1261,55
202,63	1263,60
202,85	1267,69
203,07	1314,80
203,29	1329,13
203,51	1275,88
203,73	1322,99
203,95	1310,70
204,17	1206,25
204,39	1236,97
204,61	1292,27
204,83	1294,32
205,05	1253,36
205,27	1247,21
205,49	1282,03
205,71	1302,51
205,93	1241,07
206,15	1279,98
206,37	1329,13
206,59	1335,28
206,81	1239,02
207,03	1234,93
207,25	1206,25
207,47	1273,84
207,69	1271,79
207,91	1351,66
208,13	1341,42
208,34	1220,59
208,56	1263,60
208,78	1263,60
209,00	1236,97
209,22	1259,50
209,44	1286,12
209,66	1308,65
209,88	1236,97
210,10	1271,79
210,32	1282,03
210,54	1290,22
210,76	1314,80
210,98	1243,12
211,20	1277,93
211,42	1249,26
211,64	1304,56
211,86	1259,50
212,08	1341,42
212,30	1372,14
212,52	1339,37
212,74	1265,64
212,96	1253,36
213,17	1288,17
213,39	1265,64
213,61	1236,97
213,83	1271,79
214,05	1222,64
214,27	1228,78
214,49	1267,69
214,71	1302,51
214,93	1206,25
215,15	1267,69
215,37	1292,27
215,59	1247,21
215,81	1232,88
216,03	1253,36
216,24	1245,16
216,46	1261,55
216,68	1269,74
216,90	1302,51
217,12	1325,04
217,34	1277,93
217,56	1339,37
217,78	1253,36
218,00	1196,01
218,22	1304,56
218,44	1282,03
218,66	1185,77
218,87	1218,54
219,09	1290,22
219,31	1220,59
219,53	1349,61
219,75	1187,82
219,97	1261,55
220,19	1302,51
220,41	1253,36
220,63	1271,79
220,85	1335,28
221,06	1245,16
221,28	1210,35
221,50	1286,12
221,72	1202,16
221,94	1265,64
222,16	1292,27
222,38	1294,32
222,60	1275,88
222,82	1185,77
223,03	1298,41
223,25	1269,74
223,47	1275,88
223,69	1290,22
223,91	1236,97
224,13	1327,08
224,35	1296,36
224,57	1255,40
224,78	1245,16
225,00	1273,84
225,22	1257,45
225,44	1157,10
225,66	1290,22
225,88	1298,41
226,10	1253,36
226,32	1222,64
226,53	1304,56
226,75	1226,73
226,97	1261,55
227,19	1247,21
227,41	1290,22
227,63	1286,12
227,85	1271,79
228,06	1226,73
228,28	1294,32
228,50	1288,17
228,72	1239,02
228,94	1286,12
229,16	1249,26
229,37	1243,12
229,59	1292,27
229,81	1288,17
230,03	1173,49
230,25	1224,69
230,47	1257,45
230,69	1224,69
230,90	1232,88
231,12	1273,84
231,34	1212,40
231,56	1288,17
231,78	1171,44
232,00	1292,27
232,21	1241,07
232,43	1341,42
232,65	1249,26
232,87	1296,36
233,09	1284,08
233,30	1208,30
233,52	1261,55
233,74	1277,93
233,96	1243,12
234,18	1306,60
234,40	1224,69
234,61	1314,80
234,83	1282,03
235,05	1288,17
235,27	1322,99
235,49	1279,98
235,70	1271,79
235,92	1302,51
236,14	1282,03
236,36	1247,21
236,58	1230,83
236,79	1318,89
237,01	1261,55
237,23	1253,36
237,45	1249,26
237,67	1298,41
237,88	1222,64
238,10	1253,36
238,32	1204,21
238,54	1249,26
238,76	1239,02
238,97	1288,17
239,19	1314,80
239,41	1314,80
239,63	1200,11
239,85	1347,56
240,06	1216,49
240,28	1257,45
240,50	1251,31
240,72	1253,36
240,93	1329,13
241,15	1304,56
241,37	1286,12
241,59	1257,45
241,81	1198,06
242,02	1331,18
242,24	1232,88
242,46	1234,93
242,68	1259,50
242,89	1259,50
243,11	1294,32
243,33	1247,21
243,55	1275,88
243,76	1261,55
243,98	1247,21
244,20	1279,98
244,42	1208,30
244,64	1241,07
244,85	1232,88
245,07	1198,06
245,29	1263,60
245,51	1296,36
245,72	1191,92
245,94	1286,12
246,16	1306,60
246,38	1216,49
246,59	1173,49
246,81	1218,54
247,03	1277,93
247,24	1273,84
247,46	1226,73
247,68	1318,89
247,90	1193,97
248,11	1267,69
248,33	1239,02
248,55	1327,08
248,77	1245,16
248,98	1214,45
249,20	1284,08
249,42	1294,32
249,64	1318,89
249,85	1253,36
250,07	1339,37
250,29	1269,74
250,50	1239,02
250,72	1316,84
250,94	1200,11
251,16	1263,60
251,37	1302,51
251,59	1216,49
251,81	1282,03
252,02	1314,80
252,24	1284,08
252,46	1329,13
252,68	1220,59
252,89	1251,31
253,11	1200,11
253,33	1226,73
253,54	1212,40
253,76	1265,64
253,98	1302,51
254,20	1347,56
254,41	1257,45
254,63	1208,30
254,85	1286,12
255,06	1275,88
255,28	1206,25
255,50	1345,52
255,71	1275,88
255,93	1189,87
256,15	1300,46
256,36	1265,64
256,58	1212,40
256,80	1288,17
257,02	1279,98
257,23	1255,40
257,45	1286,12
257,67	1279,98
257,88	1212,40
258,10	1263,60
258,32	1357,80
258,53	1255,40
258,75	1320,94
258,97	1212,40
259,18	1185,77
259,40	1259,50
259,62	1236,97
259,83	1230,83
260,05	1288,17
260,27	1286,12
260,48	1314,80
260,70	1314,80
260,92	1273,84
261,13	1216,49
261,35	1232,88
261,57	1290,22
261,78	1282,03
262,00	1329,13
262,22	1304,56
262,43	1269,74
262,65	1325,04
262,86	1292,27
263,08	1177,58
263,30	1320,94
263,51	1187,82
263,73	1226,73
263,95	1282,03
264,16	1239,02
264,38	1232,88
264,60	1267,69
264,81	1220,59
265,03	1200,11
265,25	1222,64
265,46	1320,94
265,68	1302,51
265,89	1257,45
266,11	1302,51
266,33	1257,45
266,54	1282,03
266,76	1239,02
266,98	1279,98
267,19	1333,23
267,41	1290,22
267,62	1245,16
267,84	1304,56
268,06	1267,69
268,27	1292,27
268,49	1255,40
268,70	1218,54
268,92	1257,45
269,14	1290,22
269,35	1286,12
269,57	1298,41
269,79	1296,36
270,00	1298,41
270,22	1279,98
270,43	1243,12
270,65	1265,64
270,87	1284,08
271,08	1325,04
271,30	1187,82
271,51	1169,39
271,73	1261,55
271,95	1257,45
272,16	1294,32
272,38	1249,26
272,59	1284,08
272,81	1288,17
273,02	1292,27
273,24	1202,16
273,46	1284,08
273,67	1269,74
273,89	1210,35
274,10	1241,07
274,32	1269,74
274,54	1232,88
274,75	1282,03
274,97	1214,45
275,18	1259,50
275,40	1239,02
275,61	1271,79
275,83	1286,12
276,05	1308,65
276,26	1298,41
276,48	1261,55
276,69	1292,27
276,91	1275,88
277,12	1290,22
277,34	1247,21
277,55	1271,79
277,77	1275,88
277,99	1239,02
278,20	1320,94
278,42	1275,88
278,63	1232,88
278,85	1292,27
279,06	1249,26
279,28	1290,22
279,49	1296,36
279,71	1312,75
279,93	1198,06
280,14	1265,64
280,36	1228,78
280,57	1253,36
280,79	1239,02
281,00	1265,64
281,22	1255,40
281,43	1257,45
281,65	1255,40
281,86	1251,31
282,08	1257,45
282,29	1286,12
282,51	1284,08
282,73	1224,69
282,94	1191,92
283,16	1218,54
283,37	1214,45
283,59	1202,16
283,80	1277,93
284,02	1236,97
284,23	1263,60
284,45	1253,36
284,66	1298,41
284,88	1259,50
285,09	1255,40
285,31	1202,16
285,52	1310,70
285,74	1269,74
285,95	1267,69
286,17	1296,36
286,38	1247,21
286,60	1200,11
286,81	1253,36
287,03	1353,71
287,24	1273,84
287,46	1290,22
287,67	1279,98
287,89	1220,59
288,10	1253,36
288,32	1312,75
288,53	1288,17
288,75	1265,64
288,96	1273,84
289,18	1191,92
289,39	1316,84
289,61	1339,37
289,82	1298,41
290,04	1290,22
290,25	1167,34
290,47	1306,60
290,68	1236,97
290,90	1298,41
291,11	1259,50
291,33	1320,94
291,54	1288,17
291,76	1251,31
291,97	1247,21
292,18	1306,60
292,40	1277,93
292,61	1286,12
292,83	1306,60
293,04	1273,84
293,26	1337,32
293,47	1228,78
293,69	1253,36
293,90	1253,36
294,12	1163,25
294,33	1224,69
294,55	1239,02
294,76	1263,60
294,97	1288,17
295,19	1257,45
295,40	1198,06
295,62	1290,22
295,83	1234,93
296,05	1304,56
296,26	1261,55
296,48	1243,12
296,69	1265,64
296,90	1257,45
297,12	1277,93
297,33	1314,80
297,55	1304,56
297,76	1193,97
297,98	1247,21
298,19	1196,01
298,41	1279,98
298,62	1378,28
298,83	1241,07
299,05	1290,22
299,26	1277,93
299,48	1210,35
299,69	1310,70
299,90	1263,60
300,12	1204,21
300,33	1316,84
300,55	1247,21
300,76	1265,64
300,98	1333,23
301,19	1314,80
301,40	1267,69
301,62	1232,88
301,83	1265,64
302,05	1294,32
302,26	1189,87
302,47	1232,88
302,69	1343,47
302,90	1331,18
303,12	1265,64
303,33	1218,54
303,54	1251,31
303,76	1263,60
303,97	1241,07
304,19	1337,32
304,40	1234,93
304,61	1220,59
304,83	1374,19
305,04	1236,97
305,26	1255,40
305,47	1198,06
305,68	1277,93
305,90	1257,45
306,11	1200,11
306,33	1228,78
306,54	1261,55
306,75	1257,45
306,97	1314,80
307,18	1216,49
307,39	1263,60
307,61	1294,32
307,82	1288,17
308,04	1271,79
308,25	1284,08
308,46	1239,02
308,68	1247,21
308,89	1236,97
309,10	1218,54
309,32	1306,60
309,53	1198,06
309,74	1224,69
309,96	1282,03
310,17	1255,40
310,39	1263,60
310,60	1212,40
310,81	1265,64
311,03	1226,73
311,24	1290,22
311,45	1286,12
311,67	1269,74
311,88	1288,17
312,09	1294,32
312,31	1267,69
312,52	1247,21
312,73	1267,69
312,95	1228,78
313,16	1347,56
313,37	1265,64
313,59	1275,88
313,80	1214,45
314,01	1298,41
314,23	1282,03
314,44	1257,45
314,65	1263,60
314,87	1232,88
315,08	1226,73
315,29	1228,78
315,51	1298,41
315,72	1189,87
315,93	1236,97
316,15	1259,50
316,36	1304,56
316,57	1169,39
316,79	1282,03
317,00	1282,03
317,21	1288,17
317,43	1294,32
317,64	1290,22
317,85	1257,45
318,07	1234,93
318,28	1318,89
318,49	1316,84
318,70	1279,98
318,92	1200,11
319,13	1232,88
319,34	1234,93
319,56	1298,41
319,77	1316,84
319,98	1269,74
320,20	1226,73
320,41	1290,22
320,62	1284,08
320,83	1206,25
321,05	1263,60
321,26	1191,92
321,47	1226,73
321,69	1304,56
321,90	1239,02
322,11	1288,17
322,32	1343,47
322,54	1277,93
322,75	1310,70
322,96	1318,89
323,18	1232,88
323,39	1300,46
323,60	1277,93
323,81	1337,32
324,03	1267,69
324,24	1271,79
324,45	1239,02
324,66	1200,11
324,88	1241,07
325,09	1247,21
325,30	1273,84
325,52	1302,51
325,73	1255,40
325,94	1282,03
326,15	1247,21
326,37	1310,70
326,58	1251,31
326,79	1308,65
327,00	1314,80
327,22	1306,60
327,43	1189,87
327,64	1318,89
327,85	1282,03
328,07	1310,70
328,28	1216,49
328,49	1183,73
328,70	1247,21
328,92	1249,26
329,13	1290,22
329,34	1357,80
329,55	1288,17
329,76	1267,69
329,98	1277,93
330,19	1234,93
330,40	1243,12
330,61	1224,69
330,83	1261,55
331,04	1304,56
331,25	1263,60
331,46	1282,03
331,68	1171,44
331,89	1249,26
332,10	1247,21
332,31	1251,31
332,52	1361,90
332,74	1230,83
332,95	1284,08
333,16	1255,40
333,37	1298,41
333,58	1247,21
333,80	1236,97
334,01	1220,59
334,22	1222,64
334,43	1236,97
334,64	1259,50
334,86	1247,21
335,07	1232,88
335,28	1294,32
335,49	1312,75
335,70	1288,17
335,92	1277,93
336,13	1304,56
336,34	1257,45
336,55	1320,94
336,76	1247,21
336,98	1191,92
337,19	1251,31
337,40	1259,50
337,61	1257,45
337,82	1296,36
338,04	1318,89
338,25	1316,84
338,46	1292,27
338,67	1243,12
338,88	1325,04
339,09	1320,94
339,31	1224,69
339,52	1298,41
339,73	1282,03
339,94	1265,64
340,15	1236,97
340,36	1249,26
340,58	1222,64
340,79	1300,46
341,00	1288,17
341,21	1296,36
341,42	1345,52
341,63	1183,73
341,85	1327,08
342,06	1284,08
342,27	1310,70
342,48	1300,46
342,69	1294,32
342,90	1273,84
343,12	1214,45
343,33	1275,88
343,54	1302,51
343,75	1282,03
343,96	1243,12
344,17	1288,17
344,38	1322,99
344,60	1292,27
344,81	1251,31
345,02	1230,83
345,23	1251,31
345,44	1294,32
345,65	1265,64
345,86	1232,88
346,07	1316,84
346,29	1320,94
346,50	1288,17
346,71	1314,80
346,92	1288,17
347,13	1255,40
347,34	1245,16
347,55	1263,60
347,76	1216,49
347,98	1267,69
348,19	1277,93
348,40	1165,29
348,61	1253,36
348,82	1290,22
349,03	1279,98
349,24	1314,80
349,45	1261,55
349,66	1286,12
349,88	1261,55
350,09	1294,32
350,30	1265,64
350,51	1257,45
350,72	1302,51
350,93	1306,60
351,14	1243,12
351,35	1302,51
351,56	1275,88
351,77	1261,55
351,99	1257,45
352,20	1222,64
352,41	1286,12
352,62	1304,56
352,83	1331,18
353,04	1282,03
353,25	1249,26
353,46	1275,88
353,67	1241,07
353,88	1286,12
354,09	1269,74
354,30	1318,89
354,52	1202,16
354,73	1251,31
354,94	1265,64
355,15	1255,40
355,36	1187,82
355,57	1212,40
355,78	1304,56
355,99	1296,36
356,20	1261,55
356,41	1325,04
356,62	1279,98
356,83	1294,32
357,04	1296,36
357,25	1228,78
357,46	1255,40
357,68	1331,18
357,89	1257,45
358,10	1290,22
358,31	1327,08
358,52	1247,21
358,73	1239,02
358,94	1335,28
359,15	1339,37
359,36	1255,40
359,57	1202,16
359,78	1271,79
359,99	1279,98
360,20	1243,12
360,41	1236,97
360,62	1277,93
360,83	1261,55
361,04	1320,94
361,25	1298,41
361,46	1271,79
361,67	1241,07
361,88	1286,12
362,09	1290,22
362,30	1271,79
362,51	1191,92
362,72	1245,16
362,93	1204,21
363,14	1302,51
363,35	1292,27
363,56	1249,26
363,78	1210,35
363,99	1284,08
364,20	1245,16
364,41	1196,01
364,62	1218,54
364,83	1204,21
365,04	1286,12
365,25	1337,32
365,46	1273,84
365,67	1271,79
365,88	1288,17
366,09	1230,83
366,30	1296,36
366,51	1206,25
366,72	1239,02
366,93	1294,32
367,14	1265,64
367,35	1288,17
367,56	1279,98
367,77	1255,40
367,98	1245,16
368,18	1273,84
368,39	1253,36
368,60	1304,56
368,81	1286,12
369,02	1232,88
369,23	1273,84
369,44	1251,31
369,65	1255,40
369,86	1263,60
370,07	1202,16
370,28	1296,36
370,49	1265,64
370,70	1239,02
370,91	1236,97
371,12	1271,79
371,33	1255,40
371,54	1257,45
371,75	1308,65
371,96	1224,69
372,17	1245,16
372,38	1224,69
372,59	1263,60
372,80	1304,56
373,01	1290,22
373,22	1331,18
373,43	1320,94
373,64	1210,35
373,85	1277,93
374,06	1249,26
374,26	1263,60
374,47	1294,32
374,68	1282,03
374,89	1253,36
375,10	1247,21
375,31	1314,80
375,52	1279,98
375,73	1255,40
375,94	1292,27
376,15	1200,11
376,36	1243,12
376,57	1310,70
376,78	1306,60
376,99	1341,42
377,20	1239,02
377,40	1277,93
377,61	1310,70
377,82	1245,16
378,03	1212,40
378,24	1306,60
378,45	1236,97
378,66	1163,25
378,87	1249,26
379,08	1255,40
379,29	1271,79
379,50	1312,75
379,71	1318,89
379,91	1271,79
380,12	1179,63
380,33	1304,56
380,54	1322,99
380,75	1271,79
380,96	1218,54
381,17	1304,56
381,38	1298,41
381,59	1318,89
381,80	1298,41
382,00	1290,22
382,21	1294,32
382,42	1290,22
382,63	1310,70
382,84	1249,26
383,05	1224,69
383,26	1265,64
383,47	1279,98
383,68	1284,08
383,88	1282,03
384,09	1232,88
384,30	1300,46
384,51	1269,74
384,72	1265,64
384,93	1257,45
385,14	1191,92
385,35	1198,06
385,55	1208,30
385,76	1271,79
385,97	1290,22
386,18	1288,17
386,39	1279,98
386,60	1265,64
386,81	1304,56
387,02	1212,40
387,22	1247,21
387,43	1267,69
387,64	1292,27
387,85	1226,73
388,06	1247,21
388,27	1279,98
388,48	1316,84
388,68	1206,25
388,89	1271,79
389,10	1243,12
389,31	1202,16
389,52	1245,16
389,73	1224,69
389,93	1273,84
390,14	1306,60
390,35	1275,88
390,56	1247,21
390,77	1277,93
390,98	1282,03
391,18	1224,69
391,39	1282,03
391,60	1302,51
391,81	1318,89
392,02	1277,93
392,23	1243,12
392,43	1322,99
392,64	1255,40
392,85	1290,22
393,06	1310,70
393,27	1265,64
393,47	1226,73
393,68	1310,70
393,89	1325,04
394,10	1245,16
394,31	1251,31
394,52	1269,74
394,72	1273,84
394,93	1267,69
395,14	1191,92
395,35	1302,51
395,56	1277,93
395,76	1374,19
395,97	1314,80
396,18	1265,64
396,39	1322,99
396,60	1298,41
396,80	1157,10
397,01	1302,51
397,22	1208,30
397,43	1277,93
397,64	1306,60
397,84	1296,36
398,05	1220,59
398,26	1298,41
398,47	1279,98
398,67	1271,79
398,88	1279,98
399,09	1320,94
399,30	1212,40
399,51	1239,02
399,71	1279,98
399,92	1206,25
400,13	1228,78
400,34	1298,41
400,54	1275,88
400,75	1236,97
400,96	1304,56
401,17	1251,31
401,37	1234,93
401,58	1288,17
401,79	1202,16
402,00	1284,08
402,21	1302,51
402,41	1265,64
402,62	1189,87
402,83	1314,80
403,04	1310,70
403,24	1279,98
403,45	1261,55
403,66	1273,84
403,87	1284,08
404,07	1267,69
404,28	1232,88
404,49	1245,16
404,70	1296,36
404,90	1267,69
405,11	1261,55
405,32	1241,07
405,52	1298,41
405,73	1267,69
405,94	1253,36
406,15	1327,08
406,35	1247,21
406,56	1261,55
406,77	1267,69
406,98	1292,27
407,18	1257,45
407,39	1302,51
407,60	1202,16
407,80	1302,51
408,01	1208,30
408,22	1273,84
408,43	1273,84
408,63	1294,32
408,84	1277,93
409,05	1259,50
409,25	1249,26
409,46	1232,88
409,67	1249,26
409,88	1210,35
410,08	1228,78
410,29	1322,99
410,50	1255,40
410,70	1263,60
410,91	1239,02
411,12	1304,56
411,32	1275,88
411,53	1286,12
411,74	1331,18
411,95	1228,78
412,15	1288,17
412,36	1269,74
412,57	1316,84
412,77	1251,31
412,98	1257,45
413,19	1265,64
413,39	1263,60
413,60	1200,11
413,81	1243,12
414,01	1255,40
414,22	1230,83
414,43	1247,21
414,63	1228,78
414,84	1218,54
415,05	1296,36
415,25	1275,88
415,46	1228,78
415,67	1341,42
415,87	1267,69
416,08	1245,16
416,29	1255,40
416,49	1251,31
416,70	1341,42
416,91	1310,70
417,11	1288,17
417,32	1253,36
417,53	1253,36
417,73	1277,93
417,94	1206,25
418,15	1327,08
418,35	1153,01
418,56	1327,08
418,77	1279,98
418,97	1204,21
419,18	1273,84
419,38	1308,65
419,59	1236,97
419,80	1230,83
420,00	1304,56
420,21	1255,40
420,42	1230,83
420,62	1208,30
420,83	1263,60
421,04	1325,04
421,24	1269,74
421,45	1277,93
421,65	1222,64
421,86	1294,32
422,07	1261,55
422,27	1320,94
422,48	1282,03
422,69	1253,36
422,89	1193,97
423,10	1234,93
423,30	1220,59
423,51	1189,87
423,72	1255,40
423,92	1294,32
424,13	1206,25
424,33	1331,18
424,54	1261,55
424,75	1290,22
424,95	1275,88
425,16	1265,64
425,36	1275,88
425,57	1253,36
425,78	1288,17
425,98	1263,60
426,19	1269,74
426,39	1279,98
426,60	1312,75
426,81	1329,13
427,01	1294,32
427,22	1273,84
427,42	1247,21
427,63	1288,17
427,83	1302,51
428,04	1347,56
428,25	1294,32
428,45	1257,45
428,66	1312,75
428,86	1253,36
429,07	1239,02
429,28	1263,60
429,48	1290,22
429,69	1257,45
429,89	1316,84
430,10	1273,84
430,30	1251,31
430,51	1259,50
430,71	1255,40
430,92	1273,84
431,13	1261,55
431,33	1277,93
431,54	1316,84
431,74	1259,50
431,95	1200,11
432,15	1302,51
432,36	1296,36
432,56	1284,08
432,77	1261,55
432,98	1171,44
433,18	1253,36
433,39	1325,04
433,59	1306,60
433,80	1265,64
434,00	1265,64
434,21	1249,26
434,41	1290,22
434,62	1239,02
434,82	1214,45
435,03	1163,25
435,23	1341,42
435,44	1214,45
435,64	1318,89
435,85	1290,22
436,06	1304,56
436,26	1282,03
436,47	1251,31
436,67	1300,46
436,88	1212,40
437,08	1263,60
437,29	1314,80
437,49	1241,07
437,70	1269,74
437,90	1294,32
438,11	1239,02
438,31	1245,16
438,52	1228,78
438,72	1265,64
438,93	1271,79
439,13	1265,64
439,34	1263,60
439,54	1337,32
439,75	1267,69
439,95	1185,77
440,16	1282,03
440,36	1288,17
440,57	1226,73
440,77	1228,78
440,98	1216,49
441,18	1286,12
441,39	1314,80
441,59	1249,26
441,80	1284,08
442,00	1265,64
442,21	1273,84
442,41	1308,65
442,62	1257,45
442,82	1267,69
443,02	1249,26
443,23	1277,93
443,43	1222,64
443,64	1249,26
443,84	1202,16
444,05	1312,75
444,25	1210,35
444,46	1275,88
444,66	1306,60
444,87	1282,03
445,07	1232,88
445,28	1224,69
445,48	1343,47
445,69	1284,08
445,89	1259,50
446,09	1236,97
446,30	1232,88
446,50	1320,94
446,71	1226,73
446,91	1259,50
447,12	1265,64
447,32	1271,79
447,53	1247,21
447,73	1271,79
447,93	1337,32
448,14	1267,69
448,34	1314,80
448,55	1251,31
448,75	1329,13
448,96	1216,49
449,16	1232,88
449,36	1277,93
449,57	1220,59
449,77	1247,21
449,98	1298,41
450,18	1273,84
450,39	1329,13
450,59	1245,16
450,79	1249,26
451,00	1224,69
451,20	1335,28
451,41	1251,31
451,61	1302,51
451,81	1249,26
452,02	1312,75
452,22	1247,21
452,43	1241,07
452,63	1230,83
452,84	1271,79
453,04	1265,64
453,24	1253,36
453,45	1257,45
453,65	1288,17
453,86	1251,31
454,06	1261,55
454,26	1259,50
454,47	1234,93
454,67	1284,08
454,87	1275,88
455,08	1263,60
455,28	1234,93
455,49	1228,78
455,69	1265,64
455,89	1257,45
456,10	1183,73
456,30	1302,51
456,51	1253,36
456,71	1288,17
456,91	1222,64
457,12	1302,51
457,32	1204,21
457,52	1261,55
457,73	1302,51
457,93	1257,45
458,14	1277,93
458,34	1228,78
458,54	1271,79
458,75	1314,80
458,95	1212,40
459,15	1271,79
459,36	1318,89
459,56	1191,92
459,76	1255,40
459,97	1198,06
460,17	1273,84
460,37	1282,03
460,58	1327,08
460,78	1304,56
460,99	1269,74
461,19	1277,93
461,39	1310,70
461,60	1222,64
461,80	1228,78
462,00	1249,26
462,21	1234,93
462,41	1259,50
462,61	1245,16
462,82	1255,40
463,02	1243,12
463,22	1228,78
463,43	1251,31
463,63	1302,51
463,83	1314,80
464,04	1308,65
464,24	1247,21
464,44	1249,26
464,64	1255,40
464,85	1292,27
465,05	1257,45
465,25	1288,17
465,46	1277,93
465,66	1329,13
465,86	1216,49
466,07	1245,16
466,27	1267,69
466,47	1273,84
466,68	1255,40
466,88	1327,08
467,08	1210,35
467,29	1226,73
467,49	1251,31
467,69	1214,45
467,89	1316,84
468,10	1292,27
468,30	1243,12
468,50	1290,22
468,71	1271,79
468,91	1286,12
469,11	1282,03
469,31	1253,36
469,52	1265,64
469,72	1331,18
469,92	1279,98
470,13	1320,94
470,33	1290,22
470,53	1316,84
470,73	1263,60
470,94	1298,41
471,14	1216,49
471,34	1218,54
471,54	1202,16
471,75	1218,54
471,95	1234,93
472,15	1251,31
472,36	1193,97
472,56	1345,52
472,76	1275,88
472,96	1304,56
473,17	1306,60
473,37	1296,36
473,57	1267,69
473,77	1322,99
473,98	1337,32
474,18	1304,56
474,38	1284,08
474,58	1370,09
474,79	1210,35
474,99	1277,93
475,19	1232,88
475,39	1329,13
475,60	1275,88
475,80	1296,36
476,00	1255,40
476,20	1265,64
476,41	1263,60
476,61	1220,59
476,81	1277,93
477,01	1241,07
477,21	1333,23
477,42	1228,78
477,62	1273,84
477,82	1273,84
478,02	1251,31
478,23	1292,27
478,43	1206,25
478,63	1302,51
478,83	1210,35
479,03	1294,32
479,24	1273,84
479,44	1284,08
479,64	1247,21
479,84	1290,22
480,04	1232,88
480,25	1314,80
480,45	1230,83
480,65	1269,74
480,85	1226,73
481,06	1247,21
481,26	1263,60
481,46	1325,04
481,66	1251,31
481,86	1292,27
482,06	1302,51
482,27	1290,22
482,47	1265,64
482,67	1226,73
482,87	1290,22
483,07	1282,03
483,28	1265,64
483,48	1294,32
483,68	1261,55
483,88	1245,16
484,08	1253,36
484,29	1232,88
484,49	1206,25
484,69	1216,49
484,89	1284,08
485,09	1322,99
485,29	1257,45
485,50	1204,21
485,70	1284,08
485,90	1261,55
486,10	1208,30
486,30	1275,88
486,50	1294,32
486,71	1279,98
486,91	1335,28
487,11	1269,74
487,31	1337,32
487,51	1337,32
487,71	1206,25
487,91	1263,60
488,12	1259,50
488,32	1304,56
488,52	1302,51
488,72	1220,59
488,92	1169,39
489,12	1341,42
489,32	1331,18
489,53	1271,79
489,73	1228,78
489,93	1214,45
490,13	1257,45
490,33	1241,07
490,53	1255,40
490,73	1347,56
490,94	1263,60
491,14	1304,56
491,34	1292,27
491,54	1220,59
491,74	1320,94
491,94	1191,92
492,14	1208,30
492,34	1181,68
492,54	1271,79
492,75	1232,88
492,95	1216,49
493,15	1245,16
493,35	1318,89
493,55	1243,12
493,75	1247,21
493,95	1327,08
494,15	1271,79
494,35	1224,69
494,56	1228,78
494,76	1279,98
494,96	1286,12
495,16	1214,45
495,36	1290,22
495,56	1273,84
495,76	1236,97
495,96	1249,26
496,16	1312,75
496,36	1265,64
496,56	1265,64
496,77	1185,77
496,97	1265,64
497,17	1288,17
497,37	1239,02
497,57	1284,08
497,77	1286,12
497,97	1239,02
498,17	1220,59
498,37	1282,03
498,57	1355,76
498,77	1275,88
498,97	1255,40
499,17	1249,26
499,38	1236,97
499,58	1292,27
499,78	1228,78
499,98	1206,25
500,18	1306,60
500,38	1316,84
500,58	1210,35
500,78	1245,16
500,98	1253,36
501,18	1226,73
501,38	1181,68
501,58	1273,84
501,78	1357,80
501,98	1239,02
502,18	1288,17
502,38	1277,93
502,58	1220,59
502,78	1226,73
502,98	1232,88
503,18	1288,17
503,38	1271,79
503,59	1261,55
503,79	1200,11
503,99	1265,64
504,19	1232,88
504,39	1288,17
504,59	1312,75
504,79	1183,73
504,99	1290,22
505,19	1267,69
505,39	1302,51
505,59	1236,97
505,79	1265,64
505,99	1226,73
506,19	1294,32
506,39	1310,70
506,59	1243,12
506,79	1320,94
506,99	1236,97
507,19	1273,84
507,39	1243,12
507,59	1263,60
507,79	1275,88
507,99	1228,78
508,19	1265,64
508,39	1251,31
508,59	1269,74
508,79	1202,16
508,99	1261,55
509,19	1339,37
509,39	1312,75
509,59	1282,03
509,79	1239,02
509,99	1206,25
510,19	1269,74
510,39	1279,98
510,59	1224,69
510,79	1288,17
510,99	1234,93
511,19	1273,84
511,39	1288,17
511,59	1349,61
511,79	1183,73
511,99	1269,74
512,19	1306,60
512,38	1251,31
512,58	1212,40
512,78	1320,94
512,98	1300,46
513,18	1241,07
513,38	1187,82
513,58	1304,56
513,78	1286,12
513,98	1263,60
514,18	1279,98
514,38	1239,02
514,58	1220,59
514,78	1232,88
514,98	1282,03
515,18	1312,75
515,38	1298,41
515,58	1206,25
515,78	1247,21
515,98	1204,21
516,18	1236,97
516,38	1308,65
516,57	1290,22
516,77	1296,36
516,97	1251,31
517,17	1296,36
517,37	1304,56
517,57	1304,56
517,77	1171,44
517,97	1273,84
518,17	1261,55
518,37	1265,64
518,57	1236,97
518,77	1243,12
518,97	1300,46
519,16	1259,50
519,36	1232,88
519,56	1294,32
519,76	1169,39
519,96	1267,69
520,16	1298,41
520,36	1294,32
520,56	1275,88
520,76	1296,36
520,96	1220,59
521,16	1294,32
521,35	1314,80
521,55	1275,88
521,75	1273,84
521,95	1208,30
522,15	1257,45
522,35	1187,82
522,55	1257,45
522,75	1224,69
522,95	1179,63
523,14	1259,50
523,34	1247,21
523,54	1167,34
523,74	1325,04
523,94	1251,31
524,14	1204,21
524,34	1288,17
524,54	1198,06
524,73	1306,60
524,93	1228,78
525,13	1277,93
525,33	1275,88
525,53	1249,26
525,73	1253,36
525,93	1263,60
526,13	1253,36
526,32	1234,93
526,52	1286,12
526,72	1214,45
526,92	1239,02
527,12	1325,04
527,32	1230,83
527,52	1290,22
527,71	1239,02
527,91	1251,31
528,11	1290,22
528,31	1222,64
528,51	1271,79
528,71	1273,84
528,90	1325,04
529,10	1241,07
529,30	1249,26
529,50	1312,75
529,70	1267,69
529,90	1245,16
530,09	1329,13
530,29	1245,16
530,49	1232,88
530,69	1284,08
530,89	1251,31
531,09	1306,60
531,28	1247,21
531,48	1310,70
531,68	1216,49
531,88	1241,07
532,08	1316,84
532,28	1208,30
532,47	1284,08
532,67	1296,36
532,87	1288,17
533,07	1306,60
533,27	1257,45
533,46	1249,26
533,66	1261,55
533,86	1284,08
534,06	1331,18
534,26	1271,79
534,45	1308,65
534,65	1261,55
534,85	1271,79
535,05	1243,12
535,25	1279,98
535,44	1275,88
535,64	1216,49
535,84	1265,64
536,04	1253,36
536,24	1253,36
536,43	1300,46
536,63	1312,75
536,83	1298,41
537,03	1269,74
537,22	1277,93
537,42	1288,17
537,62	1230,83
537,82	1292,27
538,02	1257,45
538,21	1300,46
538,41	1320,94
538,61	1261,55
538,81	1247,21
539,00	1245,16
539,20	1273,84
539,40	1253,36
539,60	1234,93
539,79	1263,60
539,99	1257,45
540,19	1265,64
540,39	1239,02
540,58	1269,74
540,78	1294,32
540,98	1273,84
541,18	1234,93
541,37	1202,16
541,57	1253,36
541,77	1286,12
541,97	1236,97
542,16	1298,41
542,36	1253,36
542,56	1296,36
542,76	1290,22
542,95	1247,21
543,15	1265,64
543,35	1259,50
543,54	1243,12
543,74	1294,32
543,94	1212,40
544,14	1279,98
544,33	1210,35
544,53	1279,98
544,73	1239,02
544,93	1208,30
545,12	1232,88
545,32	1341,42
545,52	1261,55
545,71	1261,55
545,91	1230,83
546,11	1265,64
546,30	1249,26
546,50	1236,97
546,70	1226,73
546,90	1245,16
547,09	1310,70
547,29	1275,88
547,49	1255,40
547,68	1304,56
547,88	1279,98
548,08	1273,84
548,27	1286,12
548,47	1290,22
548,67	1284,08
548,87	1296,36
549,06	1320,94
549,26	1329,13
549,46	1282,03
549,65	1314,80
549,85	1337,32
550,05	1247,21
550,24	1269,74
550,44	1279,98
550,64	1290,22
550,83	1310,70
551,03	1290,22
551,23	1234,93
551,42	1314,80
551,62	1224,69
551,82	1245,16
552,01	1249,26
552,21	1310,70
552,41	1294,32
552,60	1249,26
552,80	1245,16
553,00	1310,70
553,19	1226,73
553,39	1212,40
553,59	1198,06
553,78	1271,79
553,98	1222,64
554,17	1234,93
554,37	1212,40
554,57	1222,64
554,76	1257,45
554,96	1249,26
555,16	1259,50
555,35	1216,49
555,55	1230,83
555,75	1214,45
555,94	1304,56
556,14	1140,72
556,33	1316,84
556,53	1298,41
556,73	1263,60
556,92	1214,45
557,12	1271,79
557,32	1269,74
557,51	1273,84
557,71	1277,93
557,90	1339,37
558,10	1335,28
558,30	1310,70
558,49	1290,22
558,69	1308,65
558,88	1204,21
559,08	1214,45
559,28	1292,27
559,47	1292,27
559,67	1282,03
559,86	1267,69
560,06	1269,74
560,26	1257,45
560,45	1282,03
560,65	1327,08
560,84	1255,40
561,04	1261,55
561,24	1298,41
561,43	1275,88
561,63	1206,25
561,82	1308,65
562,02	1343,47
562,22	1273,84
562,41	1275,88
562,61	1210,35
562,80	1249,26
563,00	1292,27
563,19	1228,78
563,39	1234,93
563,59	1222,64
563,78	1290,22
563,98	1255,40
564,17	1251,31
564,37	1257,45
564,56	1259,50
564,76	1253,36
564,96	1255,40
565,15	1261,55
565,35	1218,54
565,54	1228,78
565,74	1257,45
565,93	1218,54
566,13	1277,93
566,32	1300,46
566,52	1249,26
566,71	1341,42
566,91	1265,64
567,11	1302,51
567,30	1290,22
567,50	1222,64
567,69	1290,22
567,89	1294,32
568,08	1181,68
568,28	1253,36
568,47	1304,56
568,67	1322,99
568,86	1286,12
569,06	1269,74
569,25	1282,03
569,45	1249,26
569,64	1247,21
569,84	1191,92
570,04	1255,40
570,23	1294,32
570,43	1290,22
570,62	1230,83
570,82	1320,94
571,01	1214,45
571,21	1210,35
571,40	1218,54
571,60	1349,61
571,79	1304,56
571,99	1243,12
572,18	1314,80
572,38	1251,31
572,57	1273,84
572,77	1327,08
572,96	1257,45
573,16	1310,70
573,35	1234,93
573,55	1279,98
573,74	1275,88
573,94	1302,51
574,13	1183,73
574,33	1314,80
574,52	1257,45
574,71	1245,16
574,91	1263,60
575,10	1241,07
575,30	1232,88
575,49	1292,27
575,69	1214,45
575,88	1339,37
576,08	1275,88
576,27	1222,64
576,47	1329,13
576,66	1245,16
576,86	1261,55
577,05	1253,36
577,25	1263,60
577,44	1224,69
577,64	1214,45
577,83	1290,22
578,02	1275,88
578,22	1298,41
578,41	1304,56
578,61	1216,49
578,80	1263,60
579,00	1208,30
579,19	1284,08
579,39	1241,07
579,58	1329,13
579,77	1148,91
579,97	1251,31
580,16	1177,58
580,36	1288,17
580,55	1263,60
580,75	1286,12
580,94	1267,69
581,13	1279,98
581,33	1292,27
581,52	1296,36
581,72	1316,84
581,91	1232,88
582,11	1282,03
582,30	1292,27
582,49	1286,12
582,69	1257,45
582,88	1292,27
583,08	1282,03
583,27	1290,22
583,47	1284,08
583,66	1155,05
583,85	1284,08
584,05	1310,70
584,24	1220,59
584,44	1261,55
584,63	1306,60
584,82	1273,84
585,02	1312,75
585,21	1325,04
585,41	1388,52
585,60	1304,56
585,79	1265,64
585,99	1261,55
586,18	1228,78
586,37	1339,37
586,57	1290,22
586,76	1208,30
586,96	1275,88
587,15	1220,59
587,34	1269,74
587,54	1214,45
587,73	1318,89
587,93	1271,79
588,12	1275,88
588,31	1239,02
588,51	1206,25
588,70	1282,03
588,89	1275,88
589,09	1245,16
589,28	1249,26
589,47	1243,12
589,67	1214,45
589,86	1314,80
590,06	1230,83
590,25	1298,41
590,44	1232,88
590,64	1282,03
590,83	1232,88
591,02	1239,02
591,22	1187,82
591,41	1257,45
591,60	1255,40
591,80	1282,03
591,99	1243,12
592,18	1202,16
592,38	1306,60
592,57	1228,78
592,76	1322,99
592,96	1318,89
593,15	1243,12
593,34	1292,27
593,54	1243,12
593,73	1318,89
593,92	1263,60
594,12	1220,59
594,31	1306,60
594,50	1212,40
594,70	1251,31
594,89	1308,65
595,08	1187,82
595,28	1279,98
595,47	1298,41
595,66	1292,27
595,86	1284,08
596,05	1273,84
596,24	1257,45
596,43	1277,93
596,63	1183,73
596,82	1265,64
597,01	1320,94
597,21	1234,93
597,40	1298,41
597,59	1279,98
597,79	1320,94
597,98	1263,60
598,17	1267,69
598,36	1300,46
598,56	1296,36
598,75	1288,17
598,94	1329,13
599,14	1290,22
599,33	1267,69
599,52	1202,16
599,71	1286,12
599,91	1208,30
600,10	1292,27
600,29	1267,69
600,48	1249,26
600,68	1271,79
600,87	1284,08
601,06	1241,07
601,26	1257,45
601,45	1286,12
601,64	1234,93
601,83	1288,17
602,03	1257,45
602,22	1331,18
602,41	1239,02
602,60	1322,99
602,80	1329,13
602,99	1261,55
603,18	1251,31
603,37	1249,26
603,57	1316,84
603,76	1226,73
603,95	1249,26
604,14	1253,36
604,34	1239,02
604,53	1312,75
604,72	1306,60
604,91	1302,51
605,10	1265,64
605,30	1267,69
605,49	1316,84
605,68	1279,98
605,87	1300,46
606,07	1302,51
606,26	1277,93
606,45	1304,56
606,64	1286,12
606,84	1212,40
607,03	1226,73
607,22	1247,21
607,41	1243,12
607,60	1279,98
607,80	1239,02
607,99	1286,12
608,18	1200,11
608,37	1277,93
608,56	1290,22
608,76	1216,49
608,95	1263,60
609,14	1255,40
609,33	1322,99
609,52	1251,31
609,72	1314,80
609,91	1273,84
610,10	1318,89
610,29	1259,50
610,48	1271,79
610,68	1185,77
610,87	1265,64
611,06	1290,22
611,25	1239,02
611,44	1216,49
611,63	1208,30
611,83	1314,80
612,02	1251,31
612,21	1224,69
612,40	1353,71
612,59	1312,75
612,79	1318,89
612,98	1245,16
613,17	1236,97
613,36	1335,28
613,55	1275,88
613,74	1204,21
613,93	1300,46
614,13	1255,40
614,32	1361,90
614,51	1198,06
614,70	1212,40
614,89	1249,26
615,08	1300,46
615,28	1337,32
615,47	1382,38
615,66	1210,35
615,85	1255,40
616,04	1241,07
616,23	1308,65
616,42	1267,69
616,62	1308,65
616,81	1306,60
617,00	1241,07
617,19	1333,23
617,38	1230,83
617,57	1236,97
617,76	1304,56
617,95	1339,37
618,15	1302,51
618,34	1284,08
618,53	1290,22
618,72	1273,84
618,91	1273,84
619,10	1263,60
619,29	1363,95
619,48	1288,17
619,68	1275,88
619,87	1288,17
620,06	1259,50
620,25	1218,54
620,44	1236,97
620,63	1202,16
620,82	1306,60
621,01	1216,49
621,20	1236,97
621,39	1282,03
621,59	1288,17
621,78	1288,17
621,97	1257,45
622,16	1327,08
622,35	1230,83
622,54	1357,80
622,73	1255,40
622,92	1312,75
623,11	1236,97
623,30	1308,65
623,49	1273,84
623,68	1212,40
623,88	1222,64
624,07	1310,70
624,26	1275,88
624,45	1230,83
624,64	1251,31
624,83	1261,55
625,02	1273,84
625,21	1222,64
625,40	1239,02
625,59	1302,51
625,78	1314,80
625,97	1327,08
626,16	1286,12
626,35	1245,16
626,54	1253,36
626,74	1337,32
626,93	1249,26
627,12	1253,36
627,31	1312,75
627,50	1312,75
627,69	1269,74
627,88	1329,13
628,07	1300,46
628,26	1245,16
628,45	1232,88
628,64	1253,36
628,83	1228,78
629,02	1331,18
629,21	1294,32
629,40	1296,36
629,59	1253,36
629,78	1273,84
629,97	1267,69
630,16	1312,75
630,35	1325,04
630,54	1331,18
630,73	1374,19
630,92	1232,88
631,11	1353,71
631,30	1279,98
631,49	1277,93
631,68	1353,71
631,87	1646,57
632,06	2191,33
632,25	1789,92
632,44	1931,23
632,63	1705,96
632,82	1783,78
633,01	2301,92
633,20	2070,50
633,39	2936,79
633,58	3293,13
633,77	3223,50
633,96	5314,48
634,15	11175,77
634,34	18714,34
634,53	23389,85
634,72	22888,10
634,91	18947,81
635,10	13887,28
635,29	9213,81
635,48	5943,21
635,67	3837,89
635,86	2998,23
636,05	2451,42
636,24	2179,04
636,43	1961,95
636,62	1918,95
636,81	1894,37
637,00	1626,09
637,19	1501,16
637,38	1564,65
637,57	1601,51
637,76	1460,20
637,95	1409,00
638,14	1378,28
638,33	1290,22
638,52	1415,15
638,71	1296,36
638,89	1241,07
639,08	1366,00
639,27	1255,40
639,46	1279,98
639,65	1325,04
639,84	1259,50
640,03	1267,69
640,22	1249,26
640,41	1249,26
640,60	1241,07
640,79	1290,22
640,98	1279,98
641,17	1335,28
641,36	1322,99
641,55	1310,70
641,74	1267,69
641,92	1329,13
642,11	1253,36
642,30	1288,17
642,49	1265,64
642,68	1277,93
642,87	1277,93
643,06	1150,96
643,25	1261,55
643,44	1269,74
643,63	1310,70
643,82	1296,36
644,00	1249,26
644,19	1339,37
644,38	1296,36
644,57	1302,51
644,76	1232,88
644,95	1296,36
645,14	1300,46
645,33	1241,07
645,52	1255,40
645,71	1300,46
645,89	1282,03
646,08	1279,98
646,27	1267,69
646,46	1316,84
646,65	1318,89
646,84	1273,84
647,03	1232,88
647,22	1271,79
647,40	1271,79
647,59	1218,54
647,78	1290,22
647,97	1300,46
648,16	1357,80
648,35	1253,36
648,54	1288,17
648,73	1241,07
648,91	1265,64
649,10	1320,94
649,29	1228,78
649,48	1222,64
649,67	1249,26
649,86	1220,59
650,05	1243,12
650,23	1298,41
650,42	1249,26
650,61	1329,13
650,80	1269,74
650,99	1306,60
651,18	1294,32
651,36	1187,82
651,55	1191,92
651,74	1345,52
651,93	1247,21
652,12	1245,16
652,31	1251,31
652,49	1243,12
652,68	1277,93
652,87	1294,32
653,06	1288,17
653,25	1298,41
653,44	1279,98
653,62	1355,76
653,81	1282,03
654,00	1263,60
654,19	1214,45
654,38	1355,76
654,56	1269,74
654,75	1271,79
654,94	1300,46
655,13	1263,60
655,32	1204,21
655,51	1222,64
655,69	1220,59
655,88	1230,83
656,07	1267,69
656,26	1363,95
656,45	1224,69
656,63	1255,40
656,82	1253,36
657,01	1294,32
657,20	1245,16
657,38	1314,80
657,57	1322,99
657,76	1277,93
657,95	1312,75
658,14	1251,31
658,32	1265,64
658,51	1273,84
658,70	1331,18
658,89	1277,93
659,08	1224,69
659,26	1279,98
659,45	1222,64
659,64	1325,04
659,83	1294,32
660,01	1296,36
660,20	1267,69
660,39	1239,02
660,58	1255,40
660,76	1234,93
660,95	1230,83
661,14	1325,04
661,33	1284,08
661,51	1257,45
661,70	1226,73
661,89	1187,82
662,08	1249,26
662,26	1230,83
662,45	1208,30
662,64	1304,56
662,83	1228,78
663,01	1269,74
663,20	1277,93
663,39	1292,27
663,58	1222,64
663,76	1290,22
663,95	1304,56
664,14	1284,08
664,32	1234,93
664,51	1294,32
664,70	1198,06
664,89	1273,84
665,07	1298,41
665,26	1306,60
665,45	1275,88
665,64	1232,88
665,82	1306,60
666,01	1290,22
666,20	1175,53
666,38	1304,56
666,57	1234,93
666,76	1155,05
666,95	1279,98
667,13	1259,50
667,32	1216,49
667,51	1247,21
667,69	1296,36
667,88	1263,60
668,07	1208,30
668,25	1306,60
668,44	1316,84
668,63	1236,97
668,81	1267,69
669,00	1243,12
669,19	1271,79
669,38	1290,22
669,56	1294,32
669,75	1228,78
669,94	1200,11
670,12	1189,87
670,31	1288,17
670,50	1259,50
670,68	1310,70
670,87	1261,55
671,06	1261,55
671,24	1273,84
671,43	1230,83
671,62	1273,84
671,80	1212,40
671,99	1265,64
672,18	1277,93
672,36	1257,45
672,55	1191,92
672,74	1263,60
672,92	1353,71
673,11	1273,84
673,29	1308,65
673,48	1230,83
673,67	1273,84
673,85	1349,61
674,04	1263,60
674,23	1314,80
674,41	1271,79
674,60	1314,80
674,79	1206,25
674,97	1282,03
675,16	1279,98
675,34	1255,40
675,53	1251,31
675,72	1282,03
675,90	1232,88
676,09	1273,84
676,28	1257,45
676,46	1222,64
676,65	1239,02
676,83	1236,97
677,02	1294,32
677,21	1277,93
677,39	1294,32
677,58	1261,55
677,77	1265,64
677,95	1304,56
678,14	1200,11
678,32	1255,40
678,51	1279,98
678,70	1271,79
678,88	1269,74
679,07	1320,94
679,25	1249,26
679,44	1290,22
679,63	1300,46
679,81	1200,11
680,00	1273,84
680,18	1271,79
680,37	1325,04
680,55	1212,40
680,74	1257,45
680,93	1329,13
681,11	1183,73
681,30	1243,12
681,48	1284,08
681,67	1218,54
681,85	1265,64
682,04	1279,98
682,23	1228,78
682,41	1234,93
682,60	1261,55
682,78	1247,21
682,97	1245,16
683,15	1294,32
683,34	1296,36
683,53	1322,99
683,71	1206,25
683,90	1247,21
684,08	1284,08
684,27	1279,98
684,45	1263,60
684,64	1216,49
684,82	1267,69
685,01	1232,88
685,19	1234,93
685,38	1232,88
685,57	1261,55
685,75	1296,36
685,94	1294,32
686,12	1220,59
686,31	1191,92
686,49	1314,80
686,68	1214,45
686,86	1288,17
687,05	1279,98
687,23	1247,21
687,42	1261,55
687,60	1210,35
687,79	1318,89
687,97	1253,36
688,16	1312,75
688,34	1288,17
688,53	1255,40
688,71	1312,75
688,90	1271,79
689,08	1325,04
689,27	1282,03
689,45	1304,56
689,64	1255,40
689,82	1234,93
690,01	1251,31
690,19	1255,40
690,38	1247,21
690,56	1271,79
690,75	1265,64
690,93	1308,65
691,12	1247,21
691,30	1312,75
691,49	1228,78
691,67	1298,41
691,86	1241,07
692,04	1208,30
692,23	1290,22
692,41	1322,99
692,60	1298,41
692,78	1198,06
692,97	1236,97
693,15	1296,36
693,34	1269,74
693,52	1284,08
693,71	1173,49
693,89	1191,92
694,08	1200,11
694,26	1230,83
694,44	1216,49
694,63	1261,55
694,81	1241,07
695,00	1165,29
695,18	1196,01
695,37	1269,74
695,55	1277,93
695,74	1310,70
695,92	1359,85
696,10	1265,64
696,29	1314,80
696,47	1249,26
696,66	1159,15
696,84	1286,12
697,03	1189,87
697,21	1339,37
697,40	1329,13
697,58	1222,64
697,76	1218,54
697,95	1228,78
698,13	1257,45
698,32	1259,50
698,50	1380,33
698,68	1210,35
698,87	1279,98
699,05	1253,36
699,24	1304,56
699,42	1261,55
699,61	1267,69
699,79	1277,93
699,97	1277,93
700,16	1290,22
700,34	1290,22
700,53	1294,32
700,71	1290,22
700,89	1300,46
701,08	1218,54
701,26	1220,59
701,45	1329,13
701,63	1261,55
701,81	1245,16
702,00	1302,51
702,18	1345,52
702,37	1243,12
702,55	1232,88
702,73	1239,02
702,92	1230,83
703,10	1277,93
703,28	1288,17
703,47	1224,69
703,65	1214,45
703,84	1294,32
704,02	1286,12
704,20	1279,98
704,39	1290,22
704,57	1236,97
704,75	1325,04
704,94	1222,64
705,12	1267,69
705,30	1333,23
705,49	1230,83
705,67	1302,51
705,86	1265,64
706,04	1312,75
706,22	1232,88
706,41	1230,83
706,59	1265,64
706,77	1314,80
706,96	1279,98
707,14	1228,78
707,32	1220,59
707,51	1298,41
707,69	1279,98
707,87	1183,73
708,06	1277,93
708,24	1329,13
708,42	1241,07
708,61	1196,01
708,79	1359,85
708,97	1191,92
709,16	1320,94
709,34	1312,75
709,52	1232,88
709,71	1259,50
709,89	1335,28
710,07	1296,36
710,26	1230,83
710,44	1277,93
710,62	1273,84
710,80	1249,26
710,99	1196,01
711,17	1255,40
711,35	1261,55
711,54	1243,12
711,72	1249,26
711,90	1189,87
712,09	1302,51
712,27	1204,21
712,45	1189,87
712,63	1253,36
712,82	1286,12
713,00	1267,69
713,18	1220,59
713,37	1269,74
713,55	1263,60
713,73	1200,11
713,91	1290,22
714,10	1200,11
714,28	1271,79
714,46	1226,73
714,65	1234,93
714,83	1245,16
715,01	1312,75
715,19	1245,16
715,38	1288,17
715,56	1277,93
715,74	1210,35
715,92	1255,40
716,11	1267,69
716,29	1216,49
716,47	1275,88
716,65	1288,17
716,84	1247,21
717,02	1273,84
717,20	1228,78
717,38	1304,56
717,57	1251,31
717,75	1277,93
717,93	1222,64
718,11	1290,22
718,30	1232,88
718,48	1259,50
718,66	1316,84
718,84	1204,21
719,03	1185,77
719,21	1220,59
719,39	1343,47
719,57	1245,16
719,75	1257,45
719,94	1277,93
720,12	1273,84
720,30	1327,08
720,48	1239,02
720,67	1322,99
720,85	1302,51
721,03	1302,51
721,21	1275,88
721,39	1261,55
721,58	1282,03
721,76	1255,40
721,94	1290,22
722,12	1263,60
722,30	1257,45
722,49	1310,70
722,67	1232,88
722,85	1277,93
723,03	1269,74
723,21	1277,93
723,40	1288,17
723,58	1316,84
723,76	1241,07
723,94	1236,97
724,12	1243,12
724,30	1265,64
724,49	1331,18
724,67	1265,64
724,85	1337,32
725,03	1206,25
725,21	1241,07
725,40	1271,79
725,58	1261,55
725,76	1351,66
725,94	1282,03
726,12	1275,88
726,30	1290,22
726,49	1226,73
726,67	1230,83
726,85	1234,93
727,03	1271,79
727,21	1222,64
727,39	1249,26
727,57	1286,12
727,76	1245,16
727,94	1284,08
728,12	1275,88
728,30	1236,97
728,48	1257,45
728,66	1243,12
728,84	1271,79
729,03	1271,79
729,21	1271,79
729,39	1228,78
729,57	1275,88
729,75	1298,41
729,93	1232,88
730,11	1255,40
730,30	1327,08
730,48	1320,94
730,66	1314,80
730,84	1290,22
731,02	1216,49
731,20	1245,16
731,38	1273,84
731,56	1253,36
731,74	1257,45
731,93	1257,45
732,11	1286,12
732,29	1286,12
732,47	1282,03
732,65	1220,59
732,83	1267,69
733,01	1251,31
733,19	1224,69
733,37	1306,60
733,56	1212,40
733,74	1210,35
733,92	1222,64
734,10	1296,36
734,28	1249,26
734,46	1232,88
734,64	1257,45
734,82	1230,83
735,00	1271,79
735,18	1226,73
735,36	1224,69
735,54	1241,07
735,73	1245,16
735,91	1257,45
736,09	1247,21
736,27	1255,40
736,45	1351,66
736,63	1306,60
736,81	1247,21
736,99	1275,88
737,17	1181,68
737,35	1308,65
737,53	1243,12
737,71	1290,22
737,89	1271,79
738,07	1298,41
738,25	1224,69
738,43	1277,93
738,61	1222,64
738,80	1232,88
738,98	1243,12
739,16	1239,02
739,34	1322,99
739,52	1230,83
739,70	1236,97
739,88	1251,31
740,06	1298,41
740,24	1259,50
740,42	1228,78
740,60	1259,50
740,78	1322,99
740,96	1255,40
741,14	1290,22
741,32	1298,41
741,50	1267,69
741,68	1239,02
741,86	1279,98
742,04	1341,42
742,22	1261,55
742,40	1255,40
742,58	1218,54
742,76	1300,46
742,94	1255,40
743,12	1288,17
743,30	1218,54
743,48	1273,84
743,66	1216,49
743,84	1269,74
744,02	1335,28
744,20	1298,41
744,38	1261,55
744,56	1284,08
744,74	1259,50
744,92	1288,17
745,10	1259,50
745,28	1294,32
745,46	1243,12
745,64	1187,82
745,82	1177,58
746,00	1298,41
746,18	1245,16
746,36	1329,13
746,54	1202,16
746,72	1288,17
746,90	1273,84
747,08	1224,69
747,26	1216,49
747,44	1347,56
747,62	1202,16
747,80	1288,17
747,98	1294,32
748,15	1300,46
748,33	1249,26
748,51	1316,84
748,69	1277,93
748,87	1257,45
749,05	1247,21
749,23	1298,41
749,41	1234,93
749,59	1255,40
749,77	1267,69
749,95	1241,07
750,13	1185,77
750,31	1224,69
750,49	1249,26
750,67	1325,04
750,85	1261,55
751,03	1265,64
751,20	1294,32
751,38	1232,88
751,56	1249,26
751,74	1212,40
751,92	1282,03
752,10	1253,36
752,28	1345,52
752,46	1196,01
752,64	1206,25
752,82	1249,26
753,00	1265,64
753,18	1292,27
753,35	1269,74
753,53	1218,54
753,71	1269,74
753,89	1302,51
754,07	1320,94
754,25	1265,64
754,43	1179,63
754,61	1279,98
754,79	1169,39
754,97	1271,79
755,14	1284,08
755,32	1224,69
755,50	1300,46
755,68	1284,08
755,86	1253,36
756,04	1294,32
756,22	1273,84
756,40	1239,02
756,57	1286,12
756,75	1288,17
756,93	1327,08
757,11	1220,59
757,29	1253,36
757,47	1296,36
757,65	1171,44
757,82	1314,80
758,00	1284,08
758,18	1308,65
758,36	1269,74
758,54	1290,22
758,72	1302,51
758,90	1273,84
759,07	1255,40
759,25	1325,04
759,43	1239,02
759,61	1224,69
759,79	1216,49
759,97	1288,17
760,15	1257,45
760,32	1218,54
760,50	1294,32
760,68	1216,49
760,86	1243,12
761,04	1331,18
761,22	1239,02
761,39	1273,84
761,57	1222,64
761,75	1261,55
761,93	1220,59
762,11	1306,60
762,28	1224,69
762,46	1306,60
762,64	1261,55
762,82	1226,73
763,00	1292,27
763,18	1312,75
763,35	1249,26
763,53	1255,40
763,71	1312,75
763,89	1265,64
764,07	1257,45
764,24	1312,75
764,42	1230,83
764,60	1253,36
764,78	1247,21
764,96	1239,02
765,13	1228,78
765,31	1314,80
765,49	1372,14
765,67	1290,22
765,84	1279,98
766,02	1286,12
766,20	1253,36
766,38	1318,89
766,56	1298,41
766,73	1273,84
766,91	1296,36
767,09	1279,98
767,27	1210,35
767,44	1212,40
767,62	1263,60
767,80	1200,11
767,98	1239,02
768,15	1269,74
768,33	1222,64
768,51	1339,37
768,69	1290,22
768,87	1298,41
769,04	1273,84
769,22	1290,22
769,40	1226,73
769,58	1255,40
769,75	1245,16
769,93	1335,28
770,11	1339,37
770,28	1290,22
770,46	1234,93
770,64	1253,36
770,82	1249,26
770,99	1292,27
771,17	1218,54
771,35	1243,12
771,53	1318,89
771,70	1318,89
771,88	1165,29
772,06	1292,27
772,23	1286,12
772,41	1216,49
772,59	1226,73
772,77	1286,12
772,94	1306,60
773,12	1255,40
773,30	1282,03
773,47	1275,88
773,65	1222,64
773,83	1236,97
774,01	1230,83
774,18	1286,12
774,36	1271,79
774,54	1273,84
774,71	1167,34
774,89	1255,40
775,07	1273,84
775,24	1187,82
775,42	1298,41
775,60	1269,74
775,78	1218,54
775,95	1335,28
776,13	1265,64
776,31	1277,93
776,48	1257,45
776,66	1257,45
776,84	1243,12
777,01	1236,97
777,19	1279,98
777,37	1273,84
777,54	1259,50
777,72	1265,64
777,90	1257,45
778,07	1265,64
778,25	1265,64
778,43	1277,93
778,60	1279,98
778,78	1312,75
778,96	1304,56
779,13	1261,55
779,31	1294,32
779,49	1302,51
779,66	1239,02
779,84	1275,88
780,01	1210,35
780,19	1245,16
780,37	1273,84
780,54	1263,60
780,72	1249,26
780,90	1218,54
781,07	1308,65
781,25	1230,83
781,43	1247,21
781,60	1249,26
781,78	1312,75
781,95	1243,12
782,13	1261,55
782,31	1245,16
782,48	1200,11
782,66	1259,50
782,83	1259,50
783,01	1273,84
783,19	1343,47
783,36	1288,17
783,54	1290,22
783,72	1267,69
783,89	1224,69
784,07	1308,65
784,24	1314,80
784,42	1265,64
784,60	1327,08
784,77	1298,41
784,95	1263,60
785,12	1261,55
785,30	1288,17
785,47	1222,64
785,65	1241,07
785,83	1339,37
786,00	1277,93
786,18	1265,64
786,35	1267,69
786,53	1202,16
786,71	1298,41
786,88	1198,06
787,06	1265,64
787,23	1251,31
787,41	1253,36
787,58	1257,45
787,76	1226,73
787,94	1349,61
788,11	1269,74
788,29	1284,08
788,46	1308,65
788,64	1267,69
788,81	1282,03
788,99	1345,52
789,16	1208,30
789,34	1222,64
789,52	1249,26
789,69	1245,16
789,87	1253,36
790,04	1320,94
790,22	1257,45
790,39	1320,94
790,57	1277,93
790,74	1320,94
790,92	1249,26
791,09	1259,50
791,27	1224,69
791,44	1368,04
791,62	1275,88
791,79	1208,30
791,97	1304,56
792,15	1271,79
792,32	1265,64
792,50	1339,37
792,67	1271,79
792,85	1267,69
793,02	1273,84
793,20	1306,60
793,37	1161,20
793,55	1306,60
793,72	1232,88
793,90	1325,04
794,07	1290,22
794,25	1214,45
794,42	1226,73
794,60	1259,50
794,77	1177,58
794,95	1265,64
795,12	1312,75
795,30	1259,50
795,47	1253,36
795,65	1306,60
795,82	1224,69
796,00	1249,26
796,17	1284,08
796,34	1288,17
796,52	1218,54
796,69	1304,56
796,87	1257,45
797,04	1337,32
797,22	1232,88
797,39	1355,76
797,57	1277,93
797,74	1183,73
797,92	1300,46
798,09	1273,84
798,27	1284,08
798,44	1226,73
798,62	1247,21
798,79	1279,98
798,96	1210,35
799,14	1228,78
799,31	1247,21
799,49	1292,27
799,66	1269,74
799,84	1212,40
800,01	1232,88
800,19	1284,08
800,36	1327,08
800,53	1230,83
800,71	1329,13
800,88	1267,69
801,06	1325,04
801,23	1282,03
801,41	1204,21
801,58	1294,32
801,75	1322,99
801,93	1337,32
802,10	1228,78
802,28	1210,35
802,45	1290,22
802,63	1277,93
802,80	1234,93
802,97	1304,56
803,15	1261,55
803,32	1220,59
803,50	1243,12
803,67	1275,88
803,84	1261,55
804,02	1245,16
804,19	1183,73
804,37	1183,73
804,54	1286,12
804,71	1296,36
804,89	1257,45
805,06	1241,07
805,24	1306,60
805,41	1249,26
805,58	1236,97
805,76	1273,84
805,93	1308,65
806,10	1296,36
806,28	1253,36
806,45	1234,93
806,63	1253,36
806,80	1265,64
806,97	1204,21
807,15	1288,17
807,32	1273,84
807,49	1257,45
807,67	1255,40
807,84	1282,03
808,01	1277,93
808,19	1228,78
808,36	1269,74
808,54	1228,78
808,71	1273,84
808,88	1333,23
809,06	1236,97
809,23	1267,69
809,40	1329,13
809,58	1308,65
809,75	1228,78
809,92	1247,21
810,10	1277,93
810,27	1351,66
810,44	1241,07
810,62	1222,64
810,79	1253,36
810,96	1279,98
811,14	1261,55
811,31	1253,36
811,48	1271,79
811,66	1239,02
811,83	1243,12
812,00	1304,56
812,18	1249,26
812,35	1286,12
812,52	1251,31
812,69	1298,41
812,87	1228,78
813,04	1318,89
813,21	1257,45
813,39	1206,25
813,56	1300,46
813,73	1257,45
813,91	1243,12
814,08	1286,12
814,25	1329,13
814,42	1337,32
814,60	1247,21
814,77	1312,75
814,94	1204,21
815,12	1265,64
815,29	1314,80
815,46	1298,41
815,63	1290,22
815,81	1273,84
815,98	1214,45
816,15	1339,37
816,33	1343,47
816,50	1241,07
816,67	1314,80
816,84	1269,74
817,02	1257,45
817,19	1269,74
817,36	1273,84
817,53	1316,84
817,71	1320,94
817,88	1259,50
818,05	1210,35
818,22	1263,60
818,40	1267,69
818,57	1263,60
818,74	1294,32
818,91	1200,11
819,09	1200,11
819,26	1267,69
819,43	1251,31
819,60	1290,22
819,78	1286,12
819,95	1304,56
820,12	1306,60
820,29	1339,37
820,47	1230,83
820,64	1304,56
820,81	1206,25
820,98	1286,12
821,15	1288,17
821,33	1296,36
821,50	1316,84
821,67	1200,11
821,84	1232,88
822,02	1341,42
822,19	1222,64
822,36	1265,64
822,53	1253,36
822,70	1269,74
822,88	1296,36
823,05	1304,56
823,22	1310,70
823,39	1302,51
823,56	1220,59
823,74	1249,26
823,91	1300,46
824,08	1310,70
824,25	1310,70
824,42	1216,49
824,60	1345,52
824,77	1331,18
824,94	1241,07
825,11	1216,49
825,28	1189,87
825,45	1249,26
825,63	1243,12
825,80	1253,36
825,97	1249,26
826,14	1255,40
826,31	1273,84
826,48	1286,12
826,66	1218,54
826,83	1322,99
827,00	1290,22
827,17	1251,31
827,34	1255,40
827,51	1224,69
827,69	1296,36
827,86	1224,69
828,03	1290,22
828,20	1314,80
828,37	1222,64
828,54	1294,32
828,71	1218,54
828,89	1269,74
829,06	1216,49
829,23	1259,50
829,40	1267,69
829,57	1282,03
829,74	1239,02
829,91	1261,55
830,09	1253,36
830,26	1308,65
830,43	1294,32
830,60	1220,59
830,77	1220,59
830,94	1251,31
831,11	1302,51
831,28	1292,27
831,46	1202,16
831,63	1150,96
831,80	1263,60
831,97	1306,60
832,14	1249,26
832,31	1245,16
832,48	1230,83
832,65	1230,83
832,82	1275,88
832,99	1286,12
833,17	1265,64
833,34	1312,75
833,51	1296,36
833,68	1275,88
833,85	1198,06
834,02	1224,69
834,19	1269,74
834,36	1212,40
834,53	1298,41
834,70	1294,32
834,87	1224,69
835,04	1236,97
835,22	1284,08
835,39	1269,74
835,56	1247,21
835,73	1200,11
835,90	1271,79
836,07	1255,40
836,24	1294,32
836,41	1277,93
836,58	1224,69
836,75	1288,17
836,92	1269,74
837,09	1259,50
837,26	1279,98
837,43	1320,94
837,60	1267,69
837,77	1335,28
837,94	1218,54
838,12	1310,70
838,29	1296,36
838,46	1282,03
838,63	1275,88
838,80	1267,69
838,97	1290,22
839,14	1286,12
839,31	1214,45
839,48	1257,45
839,65	1296,36
839,82	1247,21
839,99	1243,12
840,16	1232,88
840,33	1253,36
840,50	1284,08
840,67	1310,70
840,84	1216,49
841,01	1236,97
841,18	1210,35
841,35	1310,70
841,52	1292,27
841,69	1257,45
841,86	1300,46
842,03	1220,59
842,20	1284,08
842,37	1304,56
842,54	1271,79
842,71	1247,21
842,88	1251,31
843,05	1183,73
843,22	1245,16
843,39	1351,66
843,56	1259,50
843,73	1222,64
843,90	1296,36
844,07	1292,27
844,24	1282,03
844,41	1372,14
844,58	1292,27
844,75	1198,06
844,92	1314,80
845,09	1218,54
845,26	1255,40
845,43	1269,74
845,60	1204,21
845,77	1243,12
845,94	1282,03
846,10	1349,61
846,27	1308,65
846,44	1286,12
846,61	1239,02
846,78	1265,64
846,95	1259,50
847,12	1234,93
847,29	1306,60
847,46	1265,64
847,63	1255,40
847,80	1290,22
847,97	1247,21
848,14	1312,75
848,31	1259,50
848,48	1257,45
848,65	1298,41
848,82	1300,46
848,98	1298,41
849,15	1288,17
849,32	1304,56
849,49	1318,89
849,66	1273,84
849,83	1288,17
850,00	1232,88
850,17	1277,93
850,34	1218,54
850,51	1275,88
850,68	1267,69
850,85	1292,27
851,01	1155,05
851,18	1310,70
851,35	1247,21
851,52	1253,36
851,69	1247,21
851,86	1310,70
852,03	1284,08
852,20	1318,89
852,37	1286,12
852,53	1275,88
852,70	1222,64
852,87	1298,41
853,04	1286,12
853,21	1226,73
853,38	1294,32
853,55	1314,80
853,72	1265,64
853,89	1243,12
854,05	1265,64
854,22	1255,40
854,39	1286,12
854,56	1275,88
854,73	1304,56
854,90	1220,59
855,07	1290,22
855,23	1200,11
855,40	1200,11
855,57	1329,13
855,74	1204,21
855,91	1261,55
856,08	1220,59
856,25	1298,41
856,41	1271,79
856,58	1249,26
856,75	1279,98
856,92	1273,84
857,09	1273,84
857,26	1210,35
857,42	1271,79
857,59	1290,22
857,76	1306,60
857,93	1228,78
858,10	1249,26
858,27	1302,51
858,43	1200,11
858,60	1222,64
858,77	1216,49
858,94	1251,31
859,11	1259,50
859,27	1259,50
859,44	1249,26
859,61	1275,88
859,78	1269,74
859,95	1230,83
860,12	1304,56
860,28	1239,02
860,45	1265,64
860,62	1366,00
860,79	1259,50
860,95	1304,56
861,12	1343,47
861,29	1239,02
861,46	1290,22
861,63	1204,21
861,79	1269,74
861,96	1249,26
862,13	1267,69
862,30	1218,54
862,47	1243,12
862,63	1171,44
862,80	1265,64
862,97	1273,84
863,14	1298,41
863,30	1284,08
863,47	1259,50
863,64	1243,12
863,81	1275,88
863,97	1216,49
864,14	1279,98
864,31	1273,84
864,48	1286,12
864,65	1288,17
864,81	1314,80
864,98	1296,36
865,15	1265,64
865,32	1239,02
865,48	1282,03
865,65	1245,16
865,82	1335,28
865,98	1212,40
866,15	1322,99
866,32	1255,40
866,49	1263,60
866,65	1261,55
866,82	1290,22
866,99	1243,12
867,16	1249,26
867,32	1228,78
867,49	1263,60
867,66	1236,97
867,83	1267,69
867,99	1232,88
868,16	1279,98
868,33	1357,80
868,49	1220,59
868,66	1259,50
868,83	1337,32
868,99	1267,69
869,16	1277,93
869,33	1259,50
869,50	1234,93
869,66	1234,93
869,83	1370,09
870,00	1245,16
870,16	1247,21
870,33	1239,02
870,50	1314,80
870,66	1292,27
870,83	1292,27
871,00	1218,54
871,17	1204,21
871,33	1269,74
871,50	1318,89
871,67	1212,40
871,83	1339,37
872,00	1271,79
872,17	1296,36
872,33	1269,74
872,50	1214,45
872,67	1191,92
872,83	1306,60
873,00	1245,16
873,17	1236,97
873,33	1351,66
873,50	1259,50
873,67	1228,78
873,83	1255,40
874,00	1253,36
874,16	1304,56
874,33	1255,40
874,50	1216,49
874,66	1232,88
874,83	1222,64
875,00	1241,07
875,16	1265,64
875,33	1294,32
875,50	1255,40
875,66	1257,45
875,83	1220,59
875,99	1189,87
876,16	1259,50
876,33	1220,59
876,49	1222,64
876,66	1228,78
876,83	1220,59
876,99	1310,70
877,16	1163,25
877,32	1191,92
877,49	1214,45
877,66	1279,98
877,82	1175,53
877,99	1329,13
878,15	1288,17
878,32	1308,65
878,49	1253,36
878,65	1241,07
878,82	1259,50
878,98	1290,22
879,15	1290,22
879,32	1253,36
879,48	1316,84
879,65	1265,64
879,81	1316,84
879,98	1234,93
880,15	1218,54
880,31	1290,22
880,48	1236,97
880,64	1275,88
880,81	1259,50
880,97	1249,26
881,14	1318,89
881,31	1253,36
881,47	1261,55
881,64	1277,93
881,80	1263,60
881,97	1214,45
882,13	1286,12
882,30	1257,45
882,47	1300,46
882,63	1296,36
882,80	1245,16
882,96	1288,17
883,13	1320,94
883,29	1253,36
883,46	1329,13
883,62	1261,55
883,79	1279,98
883,95	1216,49
884,12	1214,45
884,29	1343,47
884,45	1251,31
884,62	1267,69
884,78	1245,16
884,95	1265,64
885,11	1224,69
885,28	1296,36
885,44	1273,84
885,61	1284,08
885,77	1292,27
885,94	1286,12
886,10	1259,50
886,27	1275,88
886,43	1243,12
886,60	1200,11
886,76	1265,64
886,93	1208,30
887,09	1316,84
887,26	1241,07
887,42	1341,42
887,59	1259,50
887,75	1282,03
887,92	1257,45
888,08	1273,84
888,25	1191,92
888,41	1306,60
888,58	1294,32
888,74	1273,84
888,91	1226,73
>>>>>End Processed Spectral Data<<<<<
