SpectraSuite Data File
++++++++++++++++++++++++++++++++++++
Date: Sun Apr 03 15:19:04 CEST 2016
User: root
Dark Spectrum Present: No
Reference Spectrum Present: No
Number of Sampled Component Spectra: 1
Spectrometers: USB4C02835
Integration Time (usec): 10000 (USB4C02835)
Spectra Averaged: 1 (USB4C02835)
Boxcar Smoothing: 0 (USB4C02835)
Correct for Electrical Dark: No (USB4C02835)
Strobe/Lamp Enabled: No (USB4C02835)
Correct for Detector Non-linearity: No (USB4C02835)
Correct for Stray Light: No (USB4C02835)
Number of Pixels in Processed Spectrum: 3648
>>>>>Begin Processed Spectral Data<<<<<
177,47	1253,36
177,69	1253,36
177,91	1253,36
178,13	1232,88
178,36	1226,73
178,58	1204,21
178,80	1257,45
179,02	1241,07
179,24	1304,56
179,46	1247,21
179,68	1304,56
179,90	1269,74
180,13	1302,51
180,35	1230,83
180,57	1218,54
180,79	1181,68
181,01	1222,64
181,23	1251,31
181,45	1308,65
181,67	1245,16
181,90	1284,08
182,12	1300,46
182,34	1331,18
182,56	1296,36
182,78	1292,27
183,00	1261,55
183,22	1271,79
183,44	1255,40
183,66	1267,69
183,89	1263,60
184,11	1286,12
184,33	1239,02
184,55	1286,12
184,77	1234,93
184,99	1331,18
185,21	1232,88
185,43	1249,26
185,65	1288,17
185,87	1290,22
186,10	1239,02
186,32	1257,45
186,54	1245,16
186,76	1239,02
186,98	1279,98
187,20	1234,93
187,42	1292,27
187,64	1230,83
187,86	1261,55
188,08	1275,88
188,30	1218,54
188,52	1255,40
188,75	1243,12
188,97	1314,80
189,19	1261,55
189,41	1249,26
189,63	1265,64
189,85	1214,45
190,07	1298,41
190,29	1226,73
190,51	1296,36
190,73	1333,23
190,95	1273,84
191,17	1277,93
191,39	1263,60
191,61	1290,22
191,84	1234,93
192,06	1271,79
192,28	1302,51
192,50	1290,22
192,72	1234,93
192,94	1249,26
193,16	1271,79
193,38	1302,51
193,60	1298,41
193,82	1241,07
194,04	1183,73
194,26	1239,02
194,48	1265,64
194,70	1312,75
194,92	1341,42
195,14	1310,70
195,36	1284,08
195,58	1286,12
195,80	1228,78
196,02	1284,08
196,24	1277,93
196,46	1275,88
196,69	1251,31
196,91	1308,65
197,13	1241,07
197,35	1325,04
197,57	1300,46
197,79	1259,50
198,01	1232,88
198,23	1300,46
198,45	1318,89
198,67	1273,84
198,89	1239,02
199,11	1241,07
199,33	1329,13
199,55	1298,41
199,77	1296,36
199,99	1241,07
200,21	1249,26
200,43	1257,45
200,65	1296,36
200,87	1220,59
201,09	1282,03
201,31	1277,93
201,53	1282,03
201,75	1318,89
201,97	1277,93
202,19	1284,08
202,41	1212,40
202,63	1282,03
202,85	1290,22
203,07	1277,93
203,29	1329,13
203,51	1265,64
203,73	1265,64
203,95	1349,61
204,17	1331,18
204,39	1282,03
204,61	1269,74
204,83	1228,78
205,05	1351,66
205,27	1200,11
205,49	1247,21
205,71	1306,60
205,93	1206,25
206,15	1331,18
206,37	1239,02
206,59	1279,98
206,81	1282,03
207,03	1333,23
207,25	1253,36
207,47	1308,65
207,69	1224,69
207,91	1253,36
208,13	1298,41
208,34	1349,61
208,56	1251,31
208,78	1286,12
209,00	1179,63
209,22	1257,45
209,44	1347,56
209,66	1320,94
209,88	1245,16
210,10	1251,31
210,32	1294,32
210,54	1314,80
210,76	1232,88
210,98	1247,21
211,20	1208,30
211,42	1210,35
211,64	1259,50
211,86	1308,65
212,08	1175,53
212,30	1316,84
212,52	1273,84
212,74	1273,84
212,96	1318,89
213,17	1331,18
213,39	1259,50
213,61	1304,56
213,83	1351,66
214,05	1253,36
214,27	1288,17
214,49	1214,45
214,71	1232,88
214,93	1286,12
215,15	1232,88
215,37	1189,87
215,59	1290,22
215,81	1304,56
216,03	1243,12
216,24	1312,75
216,46	1204,21
216,68	1269,74
216,90	1290,22
217,12	1318,89
217,34	1220,59
217,56	1290,22
217,78	1245,16
218,00	1271,79
218,22	1265,64
218,44	1312,75
218,66	1282,03
218,87	1255,40
219,09	1251,31
219,31	1320,94
219,53	1251,31
219,75	1306,60
219,97	1288,17
220,19	1331,18
220,41	1255,40
220,63	1267,69
220,85	1232,88
221,06	1216,49
221,28	1296,36
221,50	1228,78
221,72	1353,71
221,94	1279,98
222,16	1363,95
222,38	1255,40
222,60	1294,32
222,82	1259,50
223,03	1294,32
223,25	1277,93
223,47	1273,84
223,69	1275,88
223,91	1349,61
224,13	1314,80
224,35	1249,26
224,57	1271,79
224,78	1255,40
225,00	1282,03
225,22	1257,45
225,44	1247,21
225,66	1376,24
225,88	1263,60
226,10	1357,80
226,32	1267,69
226,53	1273,84
226,75	1312,75
226,97	1249,26
227,19	1273,84
227,41	1300,46
227,63	1282,03
227,85	1243,12
228,06	1234,93
228,28	1249,26
228,50	1298,41
228,72	1167,34
228,94	1249,26
229,16	1290,22
229,37	1318,89
229,59	1271,79
229,81	1296,36
230,03	1267,69
230,25	1333,23
230,47	1212,40
230,69	1294,32
230,90	1267,69
231,12	1261,55
231,34	1290,22
231,56	1216,49
231,78	1273,84
232,00	1355,76
232,21	1253,36
232,43	1267,69
232,65	1298,41
232,87	1288,17
233,09	1368,04
233,30	1318,89
233,52	1277,93
233,74	1277,93
233,96	1198,06
234,18	1331,18
234,40	1198,06
234,61	1277,93
234,83	1241,07
235,05	1210,35
235,27	1261,55
235,49	1314,80
235,70	1269,74
235,92	1337,32
236,14	1267,69
236,36	1333,23
236,58	1261,55
236,79	1257,45
237,01	1232,88
237,23	1236,97
237,45	1320,94
237,67	1261,55
237,88	1275,88
238,10	1273,84
238,32	1228,78
238,54	1241,07
238,76	1275,88
238,97	1273,84
239,19	1290,22
239,41	1314,80
239,63	1247,21
239,85	1224,69
240,06	1255,40
240,28	1282,03
240,50	1366,00
240,72	1304,56
240,93	1259,50
241,15	1224,69
241,37	1245,16
241,59	1290,22
241,81	1198,06
242,02	1337,32
242,24	1282,03
242,46	1273,84
242,68	1273,84
242,89	1257,45
243,11	1202,16
243,33	1300,46
243,55	1230,83
243,76	1306,60
243,98	1265,64
244,20	1261,55
244,42	1292,27
244,64	1327,08
244,85	1298,41
245,07	1294,32
245,29	1271,79
245,51	1257,45
245,72	1273,84
245,94	1173,49
246,16	1230,83
246,38	1239,02
246,59	1300,46
246,81	1314,80
247,03	1232,88
247,24	1232,88
247,46	1298,41
247,68	1257,45
247,90	1296,36
248,11	1234,93
248,33	1218,54
248,55	1316,84
248,77	1273,84
248,98	1241,07
249,20	1304,56
249,42	1253,36
249,64	1335,28
249,85	1214,45
250,07	1253,36
250,29	1241,07
250,50	1292,27
250,72	1241,07
250,94	1224,69
251,16	1339,37
251,37	1241,07
251,59	1265,64
251,81	1308,65
252,02	1269,74
252,24	1234,93
252,46	1267,69
252,68	1290,22
252,89	1320,94
253,11	1298,41
253,33	1296,36
253,54	1253,36
253,76	1181,68
253,98	1247,21
254,20	1251,31
254,41	1292,27
254,63	1288,17
254,85	1212,40
255,06	1290,22
255,28	1302,51
255,50	1265,64
255,71	1265,64
255,93	1288,17
256,15	1263,60
256,36	1302,51
256,58	1300,46
256,80	1331,18
257,02	1236,97
257,23	1245,16
257,45	1304,56
257,67	1228,78
257,88	1294,32
258,10	1247,21
258,32	1331,18
258,53	1310,70
258,75	1216,49
258,97	1298,41
259,18	1298,41
259,40	1243,12
259,62	1273,84
259,83	1265,64
260,05	1279,98
260,27	1261,55
260,48	1398,76
260,70	1241,07
260,92	1294,32
261,13	1226,73
261,35	1277,93
261,57	1263,60
261,78	1228,78
262,00	1273,84
262,22	1265,64
262,43	1318,89
262,65	1251,31
262,86	1249,26
263,08	1325,04
263,30	1261,55
263,51	1224,69
263,73	1253,36
263,95	1261,55
264,16	1288,17
264,38	1349,61
264,60	1247,21
264,81	1306,60
265,03	1226,73
265,25	1341,42
265,46	1265,64
265,68	1253,36
265,89	1263,60
266,11	1214,45
266,33	1267,69
266,54	1347,56
266,76	1236,97
266,98	1322,99
267,19	1271,79
267,41	1226,73
267,62	1282,03
267,84	1267,69
268,06	1351,66
268,27	1210,35
268,49	1339,37
268,70	1253,36
268,92	1282,03
269,14	1220,59
269,35	1224,69
269,57	1296,36
269,79	1284,08
270,00	1257,45
270,22	1249,26
270,43	1259,50
270,65	1255,40
270,87	1232,88
271,08	1239,02
271,30	1294,32
271,51	1249,26
271,73	1234,93
271,95	1224,69
272,16	1292,27
272,38	1308,65
272,59	1288,17
272,81	1275,88
273,02	1265,64
273,24	1249,26
273,46	1204,21
273,67	1271,79
273,89	1234,93
274,10	1290,22
274,32	1327,08
274,54	1251,31
274,75	1284,08
274,97	1312,75
275,18	1224,69
275,40	1247,21
275,61	1228,78
275,83	1251,31
276,05	1265,64
276,26	1275,88
276,48	1257,45
276,69	1292,27
276,91	1357,80
277,12	1220,59
277,34	1247,21
277,55	1279,98
277,77	1202,16
277,99	1212,40
278,20	1255,40
278,42	1325,04
278,63	1247,21
278,85	1243,12
279,06	1216,49
279,28	1327,08
279,49	1290,22
279,71	1271,79
279,93	1269,74
280,14	1282,03
280,36	1232,88
280,57	1239,02
280,79	1327,08
281,00	1232,88
281,22	1306,60
281,43	1253,36
281,65	1298,41
281,86	1232,88
282,08	1294,32
282,29	1218,54
282,51	1265,64
282,73	1333,23
282,94	1265,64
283,16	1286,12
283,37	1355,76
283,59	1300,46
283,80	1259,50
284,02	1288,17
284,23	1284,08
284,45	1325,04
284,66	1269,74
284,88	1282,03
285,09	1275,88
285,31	1284,08
285,52	1267,69
285,74	1245,16
285,95	1204,21
286,17	1376,24
286,38	1263,60
286,60	1312,75
286,81	1236,97
287,03	1296,36
287,24	1263,60
287,46	1265,64
287,67	1271,79
287,89	1329,13
288,10	1216,49
288,32	1269,74
288,53	1269,74
288,75	1286,12
288,96	1263,60
289,18	1230,83
289,39	1259,50
289,61	1298,41
289,82	1232,88
290,04	1253,36
290,25	1308,65
290,47	1298,41
290,68	1251,31
290,90	1310,70
291,11	1220,59
291,33	1220,59
291,54	1300,46
291,76	1296,36
291,97	1308,65
292,18	1288,17
292,40	1286,12
292,61	1224,69
292,83	1331,18
293,04	1253,36
293,26	1325,04
293,47	1249,26
293,69	1265,64
293,90	1273,84
294,12	1347,56
294,33	1265,64
294,55	1290,22
294,76	1247,21
294,97	1232,88
295,19	1255,40
295,40	1232,88
295,62	1200,11
295,83	1212,40
296,05	1296,36
296,26	1222,64
296,48	1306,60
296,69	1253,36
296,90	1191,92
297,12	1257,45
297,33	1265,64
297,55	1241,07
297,76	1349,61
297,98	1245,16
298,19	1267,69
298,41	1236,97
298,62	1189,87
298,83	1298,41
299,05	1320,94
299,26	1298,41
299,48	1185,77
299,69	1198,06
299,90	1245,16
300,12	1241,07
300,33	1214,45
300,55	1212,40
300,76	1327,08
300,98	1288,17
301,19	1208,30
301,40	1236,97
301,62	1206,25
301,83	1290,22
302,05	1247,21
302,26	1259,50
302,47	1216,49
302,69	1279,98
302,90	1306,60
303,12	1208,30
303,33	1282,03
303,54	1275,88
303,76	1284,08
303,97	1279,98
304,19	1292,27
304,40	1265,64
304,61	1318,89
304,83	1300,46
305,04	1337,32
305,26	1290,22
305,47	1304,56
305,68	1284,08
305,90	1384,43
306,11	1269,74
306,33	1300,46
306,54	1329,13
306,75	1279,98
306,97	1187,82
307,18	1230,83
307,39	1239,02
307,61	1241,07
307,82	1267,69
308,04	1277,93
308,25	1261,55
308,46	1265,64
308,68	1222,64
308,89	1308,65
309,10	1318,89
309,32	1247,21
309,53	1224,69
309,74	1257,45
309,96	1177,58
310,17	1279,98
310,39	1296,36
310,60	1269,74
310,81	1247,21
311,03	1236,97
311,24	1298,41
311,45	1300,46
311,67	1261,55
311,88	1275,88
312,09	1210,35
312,31	1292,27
312,52	1322,99
312,73	1261,55
312,95	1241,07
313,16	1275,88
313,37	1298,41
313,59	1257,45
313,80	1259,50
314,01	1351,66
314,23	1327,08
314,44	1257,45
314,65	1273,84
314,87	1263,60
315,08	1210,35
315,29	1339,37
315,51	1282,03
315,72	1310,70
315,93	1249,26
316,15	1269,74
316,36	1265,64
316,57	1243,12
316,79	1243,12
317,00	1302,51
317,21	1214,45
317,43	1300,46
317,64	1275,88
317,85	1320,94
318,07	1234,93
318,28	1361,90
318,49	1245,16
318,70	1306,60
318,92	1265,64
319,13	1314,80
319,34	1275,88
319,56	1282,03
319,77	1294,32
319,98	1263,60
320,20	1296,36
320,41	1284,08
320,62	1294,32
320,83	1239,02
321,05	1267,69
321,26	1271,79
321,47	1218,54
321,69	1292,27
321,90	1279,98
322,11	1296,36
322,32	1327,08
322,54	1206,25
322,75	1343,47
322,96	1337,32
323,18	1284,08
323,39	1224,69
323,60	1310,70
323,81	1322,99
324,03	1277,93
324,24	1226,73
324,45	1279,98
324,66	1251,31
324,88	1232,88
325,09	1294,32
325,30	1265,64
325,52	1257,45
325,73	1247,21
325,94	1243,12
326,15	1232,88
326,37	1239,02
326,58	1310,70
326,79	1247,21
327,00	1290,22
327,22	1333,23
327,43	1212,40
327,64	1261,55
327,85	1300,46
328,07	1345,52
328,28	1249,26
328,49	1204,21
328,70	1220,59
328,92	1363,95
329,13	1245,16
329,34	1228,78
329,55	1259,50
329,76	1249,26
329,98	1298,41
330,19	1312,75
330,40	1245,16
330,61	1269,74
330,83	1241,07
331,04	1314,80
331,25	1249,26
331,46	1288,17
331,68	1253,36
331,89	1232,88
332,10	1339,37
332,31	1298,41
332,52	1212,40
332,74	1230,83
332,95	1232,88
333,16	1263,60
333,37	1241,07
333,58	1247,21
333,80	1282,03
334,01	1193,97
334,22	1155,05
334,43	1277,93
334,64	1304,56
334,86	1243,12
335,07	1269,74
335,28	1271,79
335,49	1216,49
335,70	1300,46
335,92	1273,84
336,13	1300,46
336,34	1220,59
336,55	1314,80
336,76	1288,17
336,98	1273,84
337,19	1308,65
337,40	1224,69
337,61	1327,08
337,82	1257,45
338,04	1253,36
338,25	1236,97
338,46	1290,22
338,67	1220,59
338,88	1351,66
339,09	1261,55
339,31	1314,80
339,52	1181,68
339,73	1224,69
339,94	1320,94
340,15	1232,88
340,36	1245,16
340,58	1331,18
340,79	1308,65
341,00	1232,88
341,21	1298,41
341,42	1343,47
341,63	1261,55
341,85	1224,69
342,06	1271,79
342,27	1314,80
342,48	1304,56
342,69	1255,40
342,90	1271,79
343,12	1216,49
343,33	1241,07
343,54	1310,70
343,75	1300,46
343,96	1257,45
344,17	1292,27
344,38	1312,75
344,60	1282,03
344,81	1333,23
345,02	1316,84
345,23	1251,31
345,44	1292,27
345,65	1333,23
345,86	1277,93
346,07	1314,80
346,29	1253,36
346,50	1318,89
346,71	1251,31
346,92	1259,50
347,13	1286,12
347,34	1234,93
347,55	1234,93
347,76	1286,12
347,98	1322,99
348,19	1286,12
348,40	1259,50
348,61	1314,80
348,82	1296,36
349,03	1226,73
349,24	1300,46
349,45	1314,80
349,66	1290,22
349,88	1290,22
350,09	1271,79
350,30	1232,88
350,51	1325,04
350,72	1234,93
350,93	1279,98
351,14	1292,27
351,35	1263,60
351,56	1243,12
351,77	1298,41
351,99	1267,69
352,20	1277,93
352,41	1306,60
352,62	1302,51
352,83	1265,64
353,04	1322,99
353,25	1302,51
353,46	1263,60
353,67	1333,23
353,88	1214,45
354,09	1322,99
354,30	1224,69
354,52	1312,75
354,73	1232,88
354,94	1255,40
355,15	1275,88
355,36	1290,22
355,57	1312,75
355,78	1329,13
355,99	1202,16
356,20	1241,07
356,41	1259,50
356,62	1228,78
356,83	1208,30
357,04	1310,70
357,25	1257,45
357,46	1220,59
357,68	1263,60
357,89	1267,69
358,10	1294,32
358,31	1290,22
358,52	1263,60
358,73	1267,69
358,94	1273,84
359,15	1247,21
359,36	1273,84
359,57	1298,41
359,78	1226,73
359,99	1312,75
360,20	1249,26
360,41	1234,93
360,62	1337,32
360,83	1255,40
361,04	1298,41
361,25	1224,69
361,46	1277,93
361,67	1206,25
361,88	1282,03
362,09	1320,94
362,30	1347,56
362,51	1298,41
362,72	1325,04
362,93	1275,88
363,14	1341,42
363,35	1202,16
363,56	1284,08
363,78	1271,79
363,99	1294,32
364,20	1224,69
364,41	1232,88
364,62	1255,40
364,83	1288,17
365,04	1263,60
365,25	1239,02
365,46	1384,43
365,67	1234,93
365,88	1228,78
366,09	1296,36
366,30	1251,31
366,51	1253,36
366,72	1216,49
366,93	1216,49
367,14	1275,88
367,35	1302,51
367,56	1277,93
367,77	1363,95
367,98	1304,56
368,18	1288,17
368,39	1294,32
368,60	1247,21
368,81	1304,56
369,02	1298,41
369,23	1214,45
369,44	1214,45
369,65	1232,88
369,86	1273,84
370,07	1255,40
370,28	1267,69
370,49	1236,97
370,70	1357,80
370,91	1302,51
371,12	1230,83
371,33	1314,80
371,54	1273,84
371,75	1269,74
371,96	1269,74
372,17	1322,99
372,38	1232,88
372,59	1298,41
372,80	1327,08
373,01	1286,12
373,22	1228,78
373,43	1263,60
373,64	1325,04
373,85	1300,46
374,06	1288,17
374,26	1243,12
374,47	1185,77
374,68	1279,98
374,89	1310,70
375,10	1208,30
375,31	1243,12
375,52	1222,64
375,73	1259,50
375,94	1241,07
376,15	1292,27
376,36	1320,94
376,57	1273,84
376,78	1234,93
376,99	1304,56
377,20	1282,03
377,40	1290,22
377,61	1212,40
377,82	1275,88
378,03	1277,93
378,24	1318,89
378,45	1243,12
378,66	1271,79
378,87	1286,12
379,08	1232,88
379,29	1259,50
379,50	1298,41
379,71	1226,73
379,91	1284,08
380,12	1277,93
380,33	1294,32
380,54	1290,22
380,75	1232,88
380,96	1220,59
381,17	1230,83
381,38	1302,51
381,59	1271,79
381,80	1263,60
382,00	1308,65
382,21	1257,45
382,42	1267,69
382,63	1314,80
382,84	1298,41
383,05	1239,02
383,26	1327,08
383,47	1320,94
383,68	1249,26
383,88	1304,56
384,09	1263,60
384,30	1255,40
384,51	1263,60
384,72	1271,79
384,93	1216,49
385,14	1296,36
385,35	1236,97
385,55	1288,17
385,76	1251,31
385,97	1243,12
386,18	1241,07
386,39	1290,22
386,60	1175,53
386,81	1314,80
387,02	1370,09
387,22	1228,78
387,43	1325,04
387,64	1228,78
387,85	1282,03
388,06	1312,75
388,27	1249,26
388,48	1298,41
388,68	1296,36
388,89	1257,45
389,10	1257,45
389,31	1222,64
389,52	1255,40
389,73	1284,08
389,93	1202,16
390,14	1247,21
390,35	1314,80
390,56	1327,08
390,77	1296,36
390,98	1370,09
391,18	1224,69
391,39	1286,12
391,60	1284,08
391,81	1265,64
392,02	1247,21
392,23	1245,16
392,43	1255,40
392,64	1290,22
392,85	1302,51
393,06	1249,26
393,27	1241,07
393,47	1322,99
393,68	1204,21
393,89	1239,02
394,10	1304,56
394,31	1247,21
394,52	1206,25
394,72	1155,05
394,93	1259,50
395,14	1275,88
395,35	1351,66
395,56	1249,26
395,76	1290,22
395,97	1329,13
396,18	1290,22
396,39	1247,21
396,60	1296,36
396,80	1290,22
397,01	1247,21
397,22	1261,55
397,43	1275,88
397,64	1234,93
397,84	1232,88
398,05	1306,60
398,26	1265,64
398,47	1302,51
398,67	1271,79
398,88	1265,64
399,09	1322,99
399,30	1216,49
399,51	1316,84
399,71	1273,84
399,92	1245,16
400,13	1212,40
400,34	1249,26
400,54	1329,13
400,75	1347,56
400,96	1185,77
401,17	1298,41
401,37	1290,22
401,58	1247,21
401,79	1228,78
402,00	1259,50
402,21	1230,83
402,41	1302,51
402,62	1251,31
402,83	1279,98
403,04	1300,46
403,24	1271,79
403,45	1337,32
403,66	1290,22
403,87	1198,06
404,07	1366,00
404,28	1275,88
404,49	1259,50
404,70	1253,36
404,90	1263,60
405,11	1247,21
405,32	1241,07
405,52	1308,65
405,73	1290,22
405,94	1304,56
406,15	1263,60
406,35	1302,51
406,56	1304,56
406,77	1275,88
406,98	1273,84
407,18	1212,40
407,39	1290,22
407,60	1218,54
407,80	1298,41
408,01	1304,56
408,22	1212,40
408,43	1290,22
408,63	1306,60
408,84	1302,51
409,05	1247,21
409,25	1286,12
409,46	1331,18
409,67	1226,73
409,88	1279,98
410,08	1345,52
410,29	1271,79
410,50	1241,07
410,70	1282,03
410,91	1277,93
411,12	1218,54
411,32	1236,97
411,53	1230,83
411,74	1245,16
411,95	1310,70
412,15	1277,93
412,36	1204,21
412,57	1304,56
412,77	1191,92
412,98	1349,61
413,19	1284,08
413,39	1331,18
413,60	1271,79
413,81	1304,56
414,01	1265,64
414,22	1296,36
414,43	1298,41
414,63	1267,69
414,84	1273,84
415,05	1314,80
415,25	1230,83
415,46	1236,97
415,67	1339,37
415,87	1288,17
416,08	1196,01
416,29	1241,07
416,49	1271,79
416,70	1277,93
416,91	1257,45
417,11	1234,93
417,32	1236,97
417,53	1271,79
417,73	1226,73
417,94	1161,20
418,15	1216,49
418,35	1327,08
418,56	1200,11
418,77	1308,65
418,97	1294,32
419,18	1271,79
419,38	1261,55
419,59	1198,06
419,80	1271,79
420,00	1271,79
420,21	1210,35
420,42	1296,36
420,62	1275,88
420,83	1228,78
421,04	1282,03
421,24	1234,93
421,45	1302,51
421,65	1318,89
421,86	1253,36
422,07	1275,88
422,27	1265,64
422,48	1273,84
422,69	1271,79
422,89	1247,21
423,10	1239,02
423,30	1234,93
423,51	1249,26
423,72	1251,31
423,92	1306,60
424,13	1292,27
424,33	1261,55
424,54	1275,88
424,75	1271,79
424,95	1241,07
425,16	1206,25
425,36	1228,78
425,57	1337,32
425,78	1255,40
425,98	1296,36
426,19	1292,27
426,39	1300,46
426,60	1263,60
426,81	1247,21
427,01	1343,47
427,22	1236,97
427,42	1320,94
427,63	1167,34
427,83	1220,59
428,04	1347,56
428,25	1208,30
428,45	1314,80
428,66	1302,51
428,86	1193,97
429,07	1232,88
429,28	1306,60
429,48	1306,60
429,69	1257,45
429,89	1236,97
430,10	1175,53
430,30	1232,88
430,51	1277,93
430,71	1232,88
430,92	1341,42
431,13	1286,12
431,33	1191,92
431,54	1294,32
431,74	1230,83
431,95	1271,79
432,15	1253,36
432,36	1269,74
432,56	1279,98
432,77	1277,93
432,98	1327,08
433,18	1333,23
433,39	1255,40
433,59	1228,78
433,80	1261,55
434,00	1331,18
434,21	1306,60
434,41	1255,40
434,62	1263,60
434,82	1359,85
435,03	1288,17
435,23	1257,45
435,44	1236,97
435,64	1284,08
435,85	1271,79
436,06	1187,82
436,26	1290,22
436,47	1247,21
436,67	1331,18
436,88	1273,84
437,08	1286,12
437,29	1351,66
437,49	1275,88
437,70	1249,26
437,90	1312,75
438,11	1261,55
438,31	1220,59
438,52	1282,03
438,72	1335,28
438,93	1234,93
439,13	1212,40
439,34	1265,64
439,54	1294,32
439,75	1271,79
439,95	1257,45
440,16	1234,93
440,36	1196,01
440,57	1277,93
440,77	1271,79
440,98	1298,41
441,18	1306,60
441,39	1312,75
441,59	1265,64
441,80	1298,41
442,00	1320,94
442,21	1275,88
442,41	1345,52
442,62	1169,39
442,82	1357,80
443,02	1329,13
443,23	1271,79
443,43	1300,46
443,64	1298,41
443,84	1269,74
444,05	1329,13
444,25	1220,59
444,46	1265,64
444,66	1277,93
444,87	1214,45
445,07	1251,31
445,28	1222,64
445,48	1322,99
445,69	1302,51
445,89	1273,84
446,09	1306,60
446,30	1286,12
446,50	1239,02
446,71	1214,45
446,91	1302,51
447,12	1306,60
447,32	1214,45
447,53	1277,93
447,73	1273,84
447,93	1265,64
448,14	1335,28
448,34	1322,99
448,55	1271,79
448,75	1279,98
448,96	1222,64
449,16	1286,12
449,36	1261,55
449,57	1245,16
449,77	1273,84
449,98	1224,69
450,18	1273,84
450,39	1308,65
450,59	1290,22
450,79	1279,98
451,00	1245,16
451,20	1308,65
451,41	1271,79
451,61	1290,22
451,81	1345,52
452,02	1308,65
452,22	1302,51
452,43	1257,45
452,63	1220,59
452,84	1261,55
453,04	1257,45
453,24	1304,56
453,45	1275,88
453,65	1257,45
453,86	1271,79
454,06	1288,17
454,26	1277,93
454,47	1214,45
454,67	1316,84
454,87	1226,73
455,08	1224,69
455,28	1232,88
455,49	1273,84
455,69	1359,85
455,89	1310,70
456,10	1228,78
456,30	1224,69
456,51	1263,60
456,71	1318,89
456,91	1277,93
457,12	1183,73
457,32	1257,45
457,52	1236,97
457,73	1273,84
457,93	1282,03
458,14	1331,18
458,34	1259,50
458,54	1204,21
458,75	1245,16
458,95	1277,93
459,15	1310,70
459,36	1212,40
459,56	1331,18
459,76	1288,17
459,97	1275,88
460,17	1263,60
460,37	1308,65
460,58	1290,22
460,78	1243,12
460,99	1249,26
461,19	1255,40
461,39	1222,64
461,60	1318,89
461,80	1261,55
462,00	1298,41
462,21	1234,93
462,41	1277,93
462,61	1329,13
462,82	1314,80
463,02	1212,40
463,22	1251,31
463,43	1347,56
463,63	1249,26
463,83	1214,45
464,04	1239,02
464,24	1271,79
464,44	1220,59
464,64	1277,93
464,85	1339,37
465,05	1275,88
465,25	1339,37
465,46	1284,08
465,66	1265,64
465,86	1234,93
466,07	1212,40
466,27	1261,55
466,47	1230,83
466,68	1257,45
466,88	1245,16
467,08	1269,74
467,29	1273,84
467,49	1255,40
467,69	1269,74
467,89	1230,83
468,10	1263,60
468,30	1298,41
468,50	1257,45
468,71	1277,93
468,91	1257,45
469,11	1292,27
469,31	1255,40
469,52	1269,74
469,72	1198,06
469,92	1359,85
470,13	1298,41
470,33	1206,25
470,53	1335,28
470,73	1218,54
470,94	1255,40
471,14	1277,93
471,34	1320,94
471,54	1286,12
471,75	1257,45
471,95	1228,78
472,15	1267,69
472,36	1339,37
472,56	1298,41
472,76	1284,08
472,96	1345,52
473,17	1216,49
473,37	1247,21
473,57	1310,70
473,77	1318,89
473,98	1239,02
474,18	1232,88
474,38	1308,65
474,58	1230,83
474,79	1282,03
474,99	1245,16
475,19	1335,28
475,39	1306,60
475,60	1263,60
475,80	1290,22
476,00	1220,59
476,20	1310,70
476,41	1288,17
476,61	1232,88
476,81	1302,51
477,01	1282,03
477,21	1220,59
477,42	1306,60
477,62	1314,80
477,82	1228,78
478,02	1253,36
478,23	1259,50
478,43	1310,70
478,63	1214,45
478,83	1263,60
479,03	1282,03
479,24	1380,33
479,44	1273,84
479,64	1236,97
479,84	1294,32
480,04	1259,50
480,25	1298,41
480,45	1300,46
480,65	1230,83
480,85	1288,17
481,06	1241,07
481,26	1251,31
481,46	1224,69
481,66	1290,22
481,86	1304,56
482,06	1304,56
482,27	1204,21
482,47	1269,74
482,67	1288,17
482,87	1316,84
483,07	1241,07
483,28	1275,88
483,48	1208,30
483,68	1216,49
483,88	1304,56
484,08	1284,08
484,29	1257,45
484,49	1259,50
484,69	1249,26
484,89	1259,50
485,09	1304,56
485,29	1296,36
485,50	1259,50
485,70	1224,69
485,90	1296,36
486,10	1300,46
486,30	1302,51
486,50	1318,89
486,71	1284,08
486,91	1226,73
487,11	1265,64
487,31	1239,02
487,51	1118,19
487,71	1284,08
487,91	1300,46
488,12	1294,32
488,32	1292,27
488,52	1288,17
488,72	1279,98
488,92	1206,25
489,12	1171,44
489,32	1243,12
489,53	1245,16
489,73	1279,98
489,93	1261,55
490,13	1277,93
490,33	1267,69
490,53	1335,28
490,73	1275,88
490,94	1251,31
491,14	1257,45
491,34	1269,74
491,54	1284,08
491,74	1257,45
491,94	1306,60
492,14	1296,36
492,34	1275,88
492,54	1241,07
492,75	1206,25
492,95	1253,36
493,15	1292,27
493,35	1228,78
493,55	1294,32
493,75	1302,51
493,95	1275,88
494,15	1269,74
494,35	1288,17
494,56	1245,16
494,76	1273,84
494,96	1239,02
495,16	1306,60
495,36	1288,17
495,56	1269,74
495,76	1302,51
495,96	1298,41
496,16	1273,84
496,36	1345,52
496,56	1224,69
496,77	1333,23
496,97	1300,46
497,17	1286,12
497,37	1294,32
497,57	1247,21
497,77	1241,07
497,97	1343,47
498,17	1239,02
498,37	1337,32
498,57	1318,89
498,77	1277,93
498,97	1316,84
499,17	1239,02
499,38	1298,41
499,58	1288,17
499,78	1316,84
499,98	1236,97
500,18	1300,46
500,38	1322,99
500,58	1277,93
500,78	1286,12
500,98	1292,27
501,18	1236,97
501,38	1294,32
501,58	1255,40
501,78	1275,88
501,98	1251,31
502,18	1232,88
502,38	1230,83
502,58	1249,26
502,78	1196,01
502,98	1333,23
503,18	1271,79
503,38	1204,21
503,59	1263,60
503,79	1290,22
503,99	1294,32
504,19	1216,49
504,39	1290,22
504,59	1273,84
504,79	1308,65
504,99	1329,13
505,19	1261,55
505,39	1253,36
505,59	1259,50
505,79	1243,12
505,99	1302,51
506,19	1277,93
506,39	1308,65
506,59	1204,21
506,79	1294,32
506,99	1249,26
507,19	1290,22
507,39	1206,25
507,59	1193,97
507,79	1224,69
507,99	1275,88
508,19	1292,27
508,39	1284,08
508,59	1325,04
508,79	1236,97
508,99	1218,54
509,19	1361,90
509,39	1353,71
509,59	1296,36
509,79	1247,21
509,99	1363,95
510,19	1421,29
510,39	1372,14
510,59	1200,11
510,79	1282,03
510,99	1236,97
511,19	1286,12
511,39	1222,64
511,59	1286,12
511,79	1251,31
511,99	1224,69
512,19	1245,16
512,38	1273,84
512,58	1224,69
512,78	1228,78
512,98	1228,78
513,18	1255,40
513,38	1359,85
513,58	1232,88
513,78	1257,45
513,98	1275,88
514,18	1279,98
514,38	1290,22
514,58	1322,99
514,78	1224,69
514,98	1269,74
515,18	1236,97
515,38	1314,80
515,58	1302,51
515,78	1302,51
515,98	1282,03
516,18	1298,41
516,38	1320,94
516,57	1306,60
516,77	1179,63
516,97	1277,93
517,17	1255,40
517,37	1247,21
517,57	1380,33
517,77	1327,08
517,97	1208,30
518,17	1288,17
518,37	1263,60
518,57	1245,16
518,77	1282,03
518,97	1228,78
519,16	1351,66
519,36	1230,83
519,56	1241,07
519,76	1265,64
519,96	1234,93
520,16	1253,36
520,36	1282,03
520,56	1271,79
520,76	1277,93
520,96	1216,49
521,16	1333,23
521,35	1310,70
521,55	1265,64
521,75	1263,60
521,95	1296,36
522,15	1255,40
522,35	1347,56
522,55	1200,11
522,75	1265,64
522,95	1212,40
523,14	1179,63
523,34	1286,12
523,54	1318,89
523,74	1353,71
523,94	1261,55
524,14	1142,77
524,34	1380,33
524,54	1234,93
524,73	1208,30
524,93	1318,89
525,13	1290,22
525,33	1251,31
525,53	1347,56
525,73	1298,41
525,93	1279,98
526,13	1339,37
526,32	1236,97
526,52	1298,41
526,72	1292,27
526,92	1236,97
527,12	1269,74
527,32	1286,12
527,52	1279,98
527,71	1279,98
527,91	1290,22
528,11	1286,12
528,31	1259,50
528,51	1228,78
528,71	1298,41
528,90	1284,08
529,10	1247,21
529,30	1275,88
529,50	1298,41
529,70	1327,08
529,90	1277,93
530,09	1302,51
530,29	1314,80
530,49	1290,22
530,69	1249,26
530,89	1318,89
531,09	1275,88
531,28	1331,18
531,48	1261,55
531,68	1304,56
531,88	1282,03
532,08	1232,88
532,28	1290,22
532,47	1257,45
532,67	1269,74
532,87	1212,40
533,07	1232,88
533,27	1294,32
533,46	1257,45
533,66	1318,89
533,86	1230,83
534,06	1343,47
534,26	1247,21
534,45	1294,32
534,65	1298,41
534,85	1314,80
535,05	1265,64
535,25	1275,88
535,44	1228,78
535,64	1298,41
535,84	1296,36
536,04	1241,07
536,24	1202,16
536,43	1263,60
536,63	1261,55
536,83	1273,84
537,03	1214,45
537,22	1210,35
537,42	1210,35
537,62	1363,95
537,82	1312,75
538,02	1247,21
538,21	1265,64
538,41	1279,98
538,61	1343,47
538,81	1259,50
539,00	1243,12
539,20	1284,08
539,40	1277,93
539,60	1243,12
539,79	1349,61
539,99	1183,73
540,19	1286,12
540,39	1230,83
540,58	1284,08
540,78	1243,12
540,98	1243,12
541,18	1310,70
541,37	1273,84
541,57	1265,64
541,77	1282,03
541,97	1200,11
542,16	1314,80
542,36	1251,31
542,56	1196,01
542,76	1228,78
542,95	1241,07
543,15	1277,93
543,35	1306,60
543,54	1286,12
543,74	1363,95
543,94	1366,00
544,14	1273,84
544,33	1208,30
544,53	1306,60
544,73	1310,70
544,93	1306,60
545,12	1351,66
545,32	1284,08
545,52	1261,55
545,71	1284,08
545,91	1263,60
546,11	1255,40
546,30	1265,64
546,50	1222,64
546,70	1304,56
546,90	1257,45
547,09	1259,50
547,29	1269,74
547,49	1241,07
547,68	1296,36
547,88	1267,69
548,08	1245,16
548,27	1327,08
548,47	1298,41
548,67	1306,60
548,87	1265,64
549,06	1220,59
549,26	1183,73
549,46	1230,83
549,65	1308,65
549,85	1249,26
550,05	1230,83
550,24	1302,51
550,44	1253,36
550,64	1214,45
550,83	1359,85
551,03	1230,83
551,23	1247,21
551,42	1282,03
551,62	1269,74
551,82	1300,46
552,01	1286,12
552,21	1271,79
552,41	1277,93
552,60	1277,93
552,80	1239,02
553,00	1265,64
553,19	1275,88
553,39	1200,11
553,59	1232,88
553,78	1245,16
553,98	1228,78
554,17	1261,55
554,37	1222,64
554,57	1243,12
554,76	1267,69
554,96	1271,79
555,16	1279,98
555,35	1267,69
555,55	1218,54
555,75	1249,26
555,94	1306,60
556,14	1357,80
556,33	1232,88
556,53	1187,82
556,73	1347,56
556,92	1218,54
557,12	1267,69
557,32	1249,26
557,51	1298,41
557,71	1273,84
557,90	1249,26
558,10	1245,16
558,30	1206,25
558,49	1230,83
558,69	1200,11
558,88	1300,46
559,08	1282,03
559,28	1196,01
559,47	1232,88
559,67	1271,79
559,86	1335,28
560,06	1234,93
560,26	1296,36
560,45	1296,36
560,65	1224,69
560,84	1279,98
561,04	1232,88
561,24	1314,80
561,43	1273,84
561,63	1300,46
561,82	1273,84
562,02	1259,50
562,22	1298,41
562,41	1210,35
562,61	1269,74
562,80	1308,65
563,00	1236,97
563,19	1275,88
563,39	1222,64
563,59	1191,92
563,78	1267,69
563,98	1271,79
564,17	1318,89
564,37	1263,60
564,56	1249,26
564,76	1247,21
564,96	1247,21
565,15	1263,60
565,35	1187,82
565,54	1198,06
565,74	1271,79
565,93	1251,31
566,13	1327,08
566,32	1275,88
566,52	1187,82
566,71	1234,93
566,91	1316,84
567,11	1290,22
567,30	1226,73
567,50	1253,36
567,69	1304,56
567,89	1234,93
568,08	1355,76
568,28	1173,49
568,47	1298,41
568,67	1236,97
568,86	1232,88
569,06	1300,46
569,25	1282,03
569,45	1282,03
569,64	1273,84
569,84	1265,64
570,04	1259,50
570,23	1153,01
570,43	1265,64
570,62	1269,74
570,82	1253,36
571,01	1312,75
571,21	1253,36
571,40	1282,03
571,60	1261,55
571,79	1279,98
571,99	1257,45
572,18	1310,70
572,38	1232,88
572,57	1277,93
572,77	1290,22
572,96	1230,83
573,16	1279,98
573,35	1261,55
573,55	1259,50
573,74	1298,41
573,94	1273,84
574,13	1236,97
574,33	1290,22
574,52	1279,98
574,71	1306,60
574,91	1296,36
575,10	1269,74
575,30	1230,83
575,49	1255,40
575,69	1265,64
575,88	1236,97
576,08	1277,93
576,27	1239,02
576,47	1300,46
576,66	1222,64
576,86	1220,59
577,05	1353,71
577,25	1261,55
577,44	1226,73
577,64	1236,97
577,83	1294,32
578,02	1259,50
578,22	1290,22
578,41	1269,74
578,61	1214,45
578,80	1368,04
579,00	1353,71
579,19	1314,80
579,39	1236,97
579,58	1261,55
579,77	1265,64
579,97	1267,69
580,16	1327,08
580,36	1236,97
580,55	1259,50
580,75	1284,08
580,94	1347,56
581,13	1345,52
581,33	1339,37
581,52	1251,31
581,72	1304,56
581,91	1218,54
582,11	1255,40
582,30	1265,64
582,49	1245,16
582,69	1271,79
582,88	1288,17
583,08	1282,03
583,27	1292,27
583,47	1187,82
583,66	1286,12
583,85	1243,12
584,05	1302,51
584,24	1271,79
584,44	1298,41
584,63	1234,93
584,82	1157,10
585,02	1279,98
585,21	1224,69
585,41	1320,94
585,60	1294,32
585,79	1257,45
585,99	1288,17
586,18	1239,02
586,37	1300,46
586,57	1300,46
586,76	1329,13
586,96	1236,97
587,15	1312,75
587,34	1185,77
587,54	1279,98
587,73	1271,79
587,93	1279,98
588,12	1255,40
588,31	1247,21
588,51	1261,55
588,70	1320,94
588,89	1261,55
589,09	1318,89
589,28	1220,59
589,47	1288,17
589,67	1265,64
589,86	1355,76
590,06	1271,79
590,25	1347,56
590,44	1263,60
590,64	1230,83
590,83	1243,12
591,02	1257,45
591,22	1251,31
591,41	1247,21
591,60	1243,12
591,80	1304,56
591,99	1259,50
592,18	1296,36
592,38	1257,45
592,57	1292,27
592,76	1318,89
592,96	1226,73
593,15	1212,40
593,34	1245,16
593,54	1294,32
593,73	1363,95
593,92	1259,50
594,12	1253,36
594,31	1239,02
594,50	1345,52
594,70	1228,78
594,89	1183,73
595,08	1210,35
595,28	1277,93
595,47	1302,51
595,66	1267,69
595,86	1316,84
596,05	1236,97
596,24	1273,84
596,43	1200,11
596,63	1282,03
596,82	1357,80
597,01	1288,17
597,21	1173,49
597,40	1257,45
597,59	1333,23
597,79	1284,08
597,98	1257,45
598,17	1279,98
598,36	1312,75
598,56	1259,50
598,75	1318,89
598,94	1202,16
599,14	1294,32
599,33	1220,59
599,52	1372,14
599,71	1290,22
599,91	1257,45
600,10	1259,50
600,29	1245,16
600,48	1249,26
600,68	1253,36
600,87	1273,84
601,06	1306,60
601,26	1263,60
601,45	1310,70
601,64	1312,75
601,83	1239,02
602,03	1302,51
602,22	1279,98
602,41	1284,08
602,60	1249,26
602,80	1226,73
602,99	1187,82
603,18	1257,45
603,37	1245,16
603,57	1310,70
603,76	1290,22
603,95	1339,37
604,14	1318,89
604,34	1210,35
604,53	1153,01
604,72	1314,80
604,91	1316,84
605,10	1312,75
605,30	1261,55
605,49	1308,65
605,68	1247,21
605,87	1263,60
606,07	1232,88
606,26	1335,28
606,45	1306,60
606,64	1241,07
606,84	1253,36
607,03	1269,74
607,22	1241,07
607,41	1167,34
607,60	1269,74
607,80	1253,36
607,99	1284,08
608,18	1337,32
608,37	1198,06
608,56	1249,26
608,76	1257,45
608,95	1257,45
609,14	1337,32
609,33	1312,75
609,52	1294,32
609,72	1308,65
609,91	1261,55
610,10	1275,88
610,29	1310,70
610,48	1265,64
610,68	1277,93
610,87	1257,45
611,06	1318,89
611,25	1241,07
611,44	1269,74
611,63	1253,36
611,83	1304,56
612,02	1251,31
612,21	1286,12
612,40	1261,55
612,59	1259,50
612,79	1415,15
612,98	1300,46
613,17	1265,64
613,36	1308,65
613,55	1351,66
613,74	1257,45
613,93	1335,28
614,13	1230,83
614,32	1282,03
614,51	1312,75
614,70	1257,45
614,89	1296,36
615,08	1288,17
615,28	1290,22
615,47	1269,74
615,66	1253,36
615,85	1327,08
616,04	1292,27
616,23	1298,41
616,42	1288,17
616,62	1325,04
616,81	1236,97
617,00	1265,64
617,19	1298,41
617,38	1353,71
617,57	1275,88
617,76	1290,22
617,95	1284,08
618,15	1241,07
618,34	1337,32
618,53	1279,98
618,72	1322,99
618,91	1339,37
619,10	1290,22
619,29	1279,98
619,48	1224,69
619,68	1277,93
619,87	1259,50
620,06	1273,84
620,25	1277,93
620,44	1224,69
620,63	1322,99
620,82	1318,89
621,01	1277,93
621,20	1269,74
621,39	1247,21
621,59	1212,40
621,78	1320,94
621,97	1218,54
622,16	1247,21
622,35	1249,26
622,54	1277,93
622,73	1290,22
622,92	1239,02
623,11	1239,02
623,30	1269,74
623,49	1306,60
623,68	1232,88
623,88	1302,51
624,07	1265,64
624,26	1294,32
624,45	1288,17
624,64	1239,02
624,83	1210,35
625,02	1193,97
625,21	1308,65
625,40	1228,78
625,59	1265,64
625,78	1269,74
625,97	1288,17
626,16	1294,32
626,35	1300,46
626,54	1292,27
626,74	1290,22
626,93	1239,02
627,12	1292,27
627,31	1300,46
627,50	1341,42
627,69	1368,04
627,88	1351,66
628,07	1230,83
628,26	1329,13
628,45	1196,01
628,64	1239,02
628,83	1279,98
629,02	1300,46
629,21	1320,94
629,40	1306,60
629,59	1335,28
629,78	1314,80
629,97	1279,98
630,16	1282,03
630,35	1279,98
630,54	1294,32
630,73	1327,08
630,92	1343,47
631,11	1302,51
631,30	1376,24
631,49	1355,76
631,68	1355,76
631,87	1425,39
632,06	1884,13
632,25	1572,84
632,44	1673,19
632,63	1982,43
632,82	2209,76
633,01	5470,12
633,20	5035,96
633,39	3942,34
633,58	2060,26
633,77	2875,35
633,96	5924,77
634,15	6860,70
634,34	5478,32
634,53	3977,16
634,72	2625,50
634,91	1955,81
635,10	1693,67
635,29	1710,05
635,48	1542,12
635,67	1585,13
635,86	1505,26
636,05	1406,95
636,24	1470,44
636,43	1345,52
636,62	1345,52
636,81	1296,36
637,00	1314,80
637,19	1327,08
637,38	1370,09
637,57	1251,31
637,76	1335,28
637,95	1343,47
638,14	1318,89
638,33	1304,56
638,52	1361,90
638,71	1294,32
638,89	1269,74
639,08	1325,04
639,27	1259,50
639,46	1239,02
639,65	1288,17
639,84	1275,88
640,03	1322,99
640,22	1232,88
640,41	1318,89
640,60	1318,89
640,79	1288,17
640,98	1382,38
641,17	1210,35
641,36	1296,36
641,55	1216,49
641,74	1275,88
641,92	1388,52
642,11	1290,22
642,30	1234,93
642,49	1206,25
642,68	1261,55
642,87	1300,46
643,06	1279,98
643,25	1366,00
643,44	1363,95
643,63	1271,79
643,82	1251,31
644,00	1212,40
644,19	1230,83
644,38	1212,40
644,57	1251,31
644,76	1284,08
644,95	1314,80
645,14	1294,32
645,33	1351,66
645,52	1230,83
645,71	1267,69
645,89	1222,64
646,08	1269,74
646,27	1239,02
646,46	1277,93
646,65	1234,93
646,84	1284,08
647,03	1312,75
647,22	1304,56
647,40	1296,36
647,59	1292,27
647,78	1263,60
647,97	1282,03
648,16	1249,26
648,35	1279,98
648,54	1296,36
648,73	1271,79
648,91	1302,51
649,10	1282,03
649,29	1335,28
649,48	1249,26
649,67	1239,02
649,86	1269,74
650,05	1263,60
650,23	1241,07
650,42	1236,97
650,61	1318,89
650,80	1300,46
650,99	1296,36
651,18	1224,69
651,36	1339,37
651,55	1271,79
651,74	1267,69
651,93	1148,91
652,12	1296,36
652,31	1286,12
652,49	1269,74
652,68	1298,41
652,87	1306,60
653,06	1284,08
653,25	1288,17
653,44	1308,65
653,62	1366,00
653,81	1316,84
654,00	1208,30
654,19	1261,55
654,38	1294,32
654,56	1288,17
654,75	1294,32
654,94	1212,40
655,13	1292,27
655,32	1257,45
655,51	1298,41
655,69	1277,93
655,88	1302,51
656,07	1210,35
656,26	1327,08
656,45	1294,32
656,63	1243,12
656,82	1308,65
657,01	1286,12
657,20	1247,21
657,38	1302,51
657,57	1329,13
657,76	1296,36
657,95	1263,60
658,14	1298,41
658,32	1290,22
658,51	1304,56
658,70	1304,56
658,89	1286,12
659,08	1265,64
659,26	1271,79
659,45	1249,26
659,64	1271,79
659,83	1329,13
660,01	1308,65
660,20	1257,45
660,39	1302,51
660,58	1263,60
660,76	1220,59
660,95	1294,32
661,14	1267,69
661,33	1286,12
661,51	1218,54
661,70	1271,79
661,89	1239,02
662,08	1282,03
662,26	1318,89
662,45	1267,69
662,64	1220,59
662,83	1261,55
663,01	1239,02
663,20	1302,51
663,39	1271,79
663,58	1261,55
663,76	1261,55
663,95	1261,55
664,14	1284,08
664,32	1306,60
664,51	1271,79
664,70	1185,77
664,89	1222,64
665,07	1302,51
665,26	1198,06
665,45	1325,04
665,64	1239,02
665,82	1296,36
666,01	1241,07
666,20	1288,17
666,38	1310,70
666,57	1296,36
666,76	1302,51
666,95	1196,01
667,13	1372,14
667,32	1218,54
667,51	1288,17
667,69	1298,41
667,88	1320,94
668,07	1298,41
668,25	1253,36
668,44	1279,98
668,63	1286,12
668,81	1337,32
669,00	1251,31
669,19	1271,79
669,38	1267,69
669,56	1241,07
669,75	1253,36
669,94	1277,93
670,12	1261,55
670,31	1290,22
670,50	1298,41
670,68	1241,07
670,87	1284,08
671,06	1337,32
671,24	1327,08
671,43	1325,04
671,62	1282,03
671,80	1263,60
671,99	1288,17
672,18	1286,12
672,36	1249,26
672,55	1198,06
672,74	1261,55
672,92	1275,88
673,11	1198,06
673,29	1257,45
673,48	1333,23
673,67	1257,45
673,85	1306,60
674,04	1259,50
674,23	1314,80
674,41	1257,45
674,60	1245,16
674,79	1273,84
674,97	1275,88
675,16	1275,88
675,34	1341,42
675,53	1251,31
675,72	1286,12
675,90	1214,45
676,09	1228,78
676,28	1267,69
676,46	1189,87
676,65	1279,98
676,83	1279,98
677,02	1263,60
677,21	1230,83
677,39	1239,02
677,58	1218,54
677,77	1212,40
677,95	1212,40
678,14	1189,87
678,32	1255,40
678,51	1232,88
678,70	1282,03
678,88	1208,30
679,07	1337,32
679,25	1320,94
679,44	1296,36
679,63	1310,70
679,81	1255,40
680,00	1290,22
680,18	1269,74
680,37	1232,88
680,55	1265,64
680,74	1296,36
680,93	1329,13
681,11	1298,41
681,30	1261,55
681,48	1165,29
681,67	1259,50
681,85	1245,16
682,04	1255,40
682,23	1245,16
682,41	1302,51
682,60	1306,60
682,78	1239,02
682,97	1218,54
683,15	1257,45
683,34	1208,30
683,53	1273,84
683,71	1263,60
683,90	1286,12
684,08	1239,02
684,27	1208,30
684,45	1236,97
684,64	1224,69
684,82	1214,45
685,01	1241,07
685,19	1249,26
685,38	1286,12
685,57	1255,40
685,75	1337,32
685,94	1251,31
686,12	1269,74
686,31	1327,08
686,49	1314,80
686,68	1294,32
686,86	1273,84
687,05	1259,50
687,23	1232,88
687,42	1249,26
687,60	1206,25
687,79	1302,51
687,97	1222,64
688,16	1296,36
688,34	1218,54
688,53	1230,83
688,71	1169,39
688,90	1210,35
689,08	1234,93
689,27	1341,42
689,45	1241,07
689,64	1138,67
689,82	1290,22
690,01	1249,26
690,19	1282,03
690,38	1222,64
690,56	1269,74
690,75	1265,64
690,93	1298,41
691,12	1263,60
691,30	1388,52
691,49	1220,59
691,67	1325,04
691,86	1187,82
692,04	1277,93
692,23	1239,02
692,41	1245,16
692,60	1263,60
692,78	1267,69
692,97	1245,16
693,15	1290,22
693,34	1318,89
693,52	1204,21
693,71	1251,31
693,89	1279,98
694,08	1267,69
694,26	1322,99
694,44	1271,79
694,63	1257,45
694,81	1284,08
695,00	1255,40
695,18	1212,40
695,37	1296,36
695,55	1296,36
695,74	1271,79
695,92	1273,84
696,10	1312,75
696,29	1316,84
696,47	1353,71
696,66	1290,22
696,84	1226,73
697,03	1234,93
697,21	1294,32
697,40	1357,80
697,58	1300,46
697,76	1294,32
697,95	1218,54
698,13	1290,22
698,32	1275,88
698,50	1290,22
698,68	1308,65
698,87	1224,69
699,05	1298,41
699,24	1355,76
699,42	1261,55
699,61	1259,50
699,79	1314,80
699,97	1335,28
700,16	1257,45
700,34	1277,93
700,53	1247,21
700,71	1302,51
700,89	1288,17
701,08	1239,02
701,26	1318,89
701,45	1333,23
701,63	1314,80
701,81	1144,81
702,00	1257,45
702,18	1263,60
702,37	1269,74
702,55	1282,03
702,73	1191,92
702,92	1222,64
703,10	1306,60
703,28	1318,89
703,47	1329,13
703,65	1271,79
703,84	1255,40
704,02	1191,92
704,20	1294,32
704,39	1275,88
704,57	1318,89
704,75	1236,97
704,94	1304,56
705,12	1296,36
705,30	1241,07
705,49	1249,26
705,67	1282,03
705,86	1308,65
706,04	1275,88
706,22	1273,84
706,41	1314,80
706,59	1265,64
706,77	1318,89
706,96	1253,36
707,14	1220,59
707,32	1253,36
707,51	1257,45
707,69	1288,17
707,87	1345,52
708,06	1275,88
708,24	1292,27
708,42	1243,12
708,61	1300,46
708,79	1224,69
708,97	1259,50
709,16	1355,76
709,34	1241,07
709,52	1312,75
709,71	1275,88
709,89	1298,41
710,07	1255,40
710,26	1269,74
710,44	1282,03
710,62	1269,74
710,80	1214,45
710,99	1286,12
711,17	1236,97
711,35	1275,88
711,54	1308,65
711,72	1214,45
711,90	1241,07
712,09	1292,27
712,27	1263,60
712,45	1325,04
712,63	1263,60
712,82	1359,85
713,00	1288,17
713,18	1290,22
713,37	1273,84
713,55	1300,46
713,73	1265,64
713,91	1261,55
714,10	1245,16
714,28	1300,46
714,46	1243,12
714,65	1302,51
714,83	1259,50
715,01	1245,16
715,19	1243,12
715,38	1222,64
715,56	1331,18
715,74	1255,40
715,92	1341,42
716,11	1308,65
716,29	1220,59
716,47	1298,41
716,65	1296,36
716,84	1255,40
717,02	1288,17
717,20	1220,59
717,38	1277,93
717,57	1251,31
717,75	1282,03
717,93	1300,46
718,11	1300,46
718,30	1247,21
718,48	1249,26
718,66	1294,32
718,84	1228,78
719,03	1269,74
719,21	1222,64
719,39	1259,50
719,57	1202,16
719,75	1331,18
719,94	1298,41
720,12	1292,27
720,30	1251,31
720,48	1269,74
720,67	1218,54
720,85	1314,80
721,03	1191,92
721,21	1198,06
721,39	1314,80
721,58	1282,03
721,76	1302,51
721,94	1245,16
722,12	1314,80
722,30	1273,84
722,49	1298,41
722,67	1294,32
722,85	1251,31
723,03	1230,83
723,21	1300,46
723,40	1273,84
723,58	1282,03
723,76	1288,17
723,94	1286,12
724,12	1361,90
724,30	1236,97
724,49	1214,45
724,67	1198,06
724,85	1265,64
725,03	1214,45
725,21	1279,98
725,40	1263,60
725,58	1292,27
725,76	1284,08
725,94	1265,64
726,12	1271,79
726,30	1208,30
726,49	1325,04
726,67	1288,17
726,85	1290,22
727,03	1234,93
727,21	1329,13
727,39	1269,74
727,57	1257,45
727,76	1210,35
727,94	1253,36
728,12	1273,84
728,30	1255,40
728,48	1282,03
728,66	1257,45
728,84	1318,89
729,03	1259,50
729,21	1314,80
729,39	1288,17
729,57	1245,16
729,75	1239,02
729,93	1241,07
730,11	1196,01
730,30	1247,21
730,48	1349,61
730,66	1181,68
730,84	1329,13
731,02	1269,74
731,20	1224,69
731,38	1245,16
731,56	1337,32
731,74	1257,45
731,93	1296,36
732,11	1245,16
732,29	1200,11
732,47	1216,49
732,65	1304,56
732,83	1282,03
733,01	1257,45
733,19	1302,51
733,37	1320,94
733,56	1288,17
733,74	1337,32
733,92	1259,50
734,10	1333,23
734,28	1196,01
734,46	1265,64
734,64	1259,50
734,82	1329,13
735,00	1308,65
735,18	1257,45
735,36	1277,93
735,54	1228,78
735,73	1327,08
735,91	1290,22
736,09	1236,97
736,27	1196,01
736,45	1232,88
736,63	1335,28
736,81	1220,59
736,99	1269,74
737,17	1314,80
737,35	1245,16
737,53	1253,36
737,71	1177,58
737,89	1288,17
738,07	1255,40
738,25	1269,74
738,43	1226,73
738,61	1333,23
738,80	1279,98
738,98	1228,78
739,16	1216,49
739,34	1298,41
739,52	1218,54
739,70	1290,22
739,88	1341,42
740,06	1316,84
740,24	1284,08
740,42	1327,08
740,60	1259,50
740,78	1322,99
740,96	1216,49
741,14	1267,69
741,32	1284,08
741,50	1298,41
741,68	1312,75
741,86	1335,28
742,04	1265,64
742,22	1282,03
742,40	1236,97
742,58	1234,93
742,76	1325,04
742,94	1273,84
743,12	1269,74
743,30	1257,45
743,48	1308,65
743,66	1286,12
743,84	1216,49
744,02	1277,93
744,20	1304,56
744,38	1279,98
744,56	1292,27
744,74	1243,12
744,92	1284,08
745,10	1232,88
745,28	1312,75
745,46	1253,36
745,64	1181,68
745,82	1277,93
746,00	1304,56
746,18	1292,27
746,36	1267,69
746,54	1279,98
746,72	1304,56
746,90	1290,22
747,08	1198,06
747,26	1306,60
747,44	1290,22
747,62	1228,78
747,80	1288,17
747,98	1275,88
748,15	1206,25
748,33	1286,12
748,51	1322,99
748,69	1382,38
748,87	1245,16
749,05	1249,26
749,23	1312,75
749,41	1251,31
749,59	1265,64
749,77	1230,83
749,95	1189,87
750,13	1249,26
750,31	1271,79
750,49	1308,65
750,67	1310,70
750,85	1292,27
751,03	1282,03
751,20	1298,41
751,38	1335,28
751,56	1306,60
751,74	1269,74
751,92	1277,93
752,10	1239,02
752,28	1257,45
752,46	1263,60
752,64	1279,98
752,82	1282,03
753,00	1212,40
753,18	1308,65
753,35	1226,73
753,53	1239,02
753,71	1271,79
753,89	1255,40
754,07	1282,03
754,25	1294,32
754,43	1284,08
754,61	1183,73
754,79	1269,74
754,97	1279,98
755,14	1243,12
755,32	1259,50
755,50	1249,26
755,68	1294,32
755,86	1273,84
756,04	1288,17
756,22	1267,69
756,40	1300,46
756,57	1277,93
756,75	1322,99
756,93	1251,31
757,11	1247,21
757,29	1249,26
757,47	1265,64
757,65	1277,93
757,82	1257,45
758,00	1198,06
758,18	1236,97
758,36	1279,98
758,54	1288,17
758,72	1247,21
758,90	1300,46
759,07	1282,03
759,25	1310,70
759,43	1255,40
759,61	1232,88
759,79	1286,12
759,97	1216,49
760,15	1286,12
760,32	1255,40
760,50	1196,01
760,68	1259,50
760,86	1318,89
761,04	1214,45
761,22	1255,40
761,39	1347,56
761,57	1320,94
761,75	1263,60
761,93	1267,69
762,11	1302,51
762,28	1204,21
762,46	1245,16
762,64	1304,56
762,82	1286,12
763,00	1302,51
763,18	1296,36
763,35	1204,21
763,53	1243,12
763,71	1241,07
763,89	1298,41
764,07	1284,08
764,24	1279,98
764,42	1314,80
764,60	1308,65
764,78	1314,80
764,96	1181,68
765,13	1355,76
765,31	1343,47
765,49	1284,08
765,67	1232,88
765,84	1220,59
766,02	1331,18
766,20	1269,74
766,38	1249,26
766,56	1279,98
766,73	1206,25
766,91	1253,36
767,09	1247,21
767,27	1234,93
767,44	1275,88
767,62	1269,74
767,80	1290,22
767,98	1245,16
768,15	1251,31
768,33	1185,77
768,51	1275,88
768,69	1210,35
768,87	1337,32
769,04	1359,85
769,22	1277,93
769,40	1263,60
769,58	1282,03
769,75	1204,21
769,93	1196,01
770,11	1269,74
770,28	1230,83
770,46	1288,17
770,64	1212,40
770,82	1214,45
770,99	1247,21
771,17	1294,32
771,35	1271,79
771,53	1286,12
771,70	1306,60
771,88	1282,03
772,06	1210,35
772,23	1243,12
772,41	1286,12
772,59	1224,69
772,77	1273,84
772,94	1257,45
773,12	1296,36
773,30	1322,99
773,47	1322,99
773,65	1331,18
773,83	1263,60
774,01	1279,98
774,18	1310,70
774,36	1247,21
774,54	1300,46
774,71	1277,93
774,89	1239,02
775,07	1206,25
775,24	1282,03
775,42	1286,12
775,60	1214,45
775,78	1265,64
775,95	1245,16
776,13	1241,07
776,31	1243,12
776,48	1273,84
776,66	1259,50
776,84	1277,93
777,01	1249,26
777,19	1310,70
777,37	1327,08
777,54	1226,73
777,72	1337,32
777,90	1366,00
778,07	1241,07
778,25	1337,32
778,43	1247,21
778,60	1230,83
778,78	1290,22
778,96	1298,41
779,13	1230,83
779,31	1255,40
779,49	1249,26
779,66	1257,45
779,84	1257,45
780,01	1249,26
780,19	1255,40
780,37	1343,47
780,54	1275,88
780,72	1232,88
780,90	1304,56
781,07	1173,49
781,25	1267,69
781,43	1210,35
781,60	1257,45
781,78	1234,93
781,95	1284,08
782,13	1288,17
782,31	1214,45
782,48	1255,40
782,66	1353,71
782,83	1259,50
783,01	1331,18
783,19	1259,50
783,36	1232,88
783,54	1208,30
783,72	1239,02
783,89	1271,79
784,07	1286,12
784,24	1325,04
784,42	1271,79
784,60	1271,79
784,77	1310,70
784,95	1253,36
785,12	1288,17
785,30	1302,51
785,47	1298,41
785,65	1271,79
785,83	1292,27
786,00	1286,12
786,18	1259,50
786,35	1286,12
786,53	1277,93
786,71	1196,01
786,88	1279,98
787,06	1243,12
787,23	1273,84
787,41	1245,16
787,58	1257,45
787,76	1290,22
787,94	1327,08
788,11	1290,22
788,29	1253,36
788,46	1267,69
788,64	1318,89
788,81	1175,53
788,99	1302,51
789,16	1249,26
789,34	1265,64
789,52	1282,03
789,69	1275,88
789,87	1273,84
790,04	1273,84
790,22	1251,31
790,39	1351,66
790,57	1232,88
790,74	1247,21
790,92	1273,84
791,09	1204,21
791,27	1318,89
791,44	1239,02
791,62	1265,64
791,79	1320,94
791,97	1271,79
792,15	1273,84
792,32	1253,36
792,50	1218,54
792,67	1224,69
792,85	1296,36
793,02	1269,74
793,20	1363,95
793,37	1249,26
793,55	1284,08
793,72	1251,31
793,90	1259,50
794,07	1292,27
794,25	1214,45
794,42	1222,64
794,60	1306,60
794,77	1304,56
794,95	1320,94
795,12	1271,79
795,30	1249,26
795,47	1265,64
795,65	1255,40
795,82	1282,03
796,00	1306,60
796,17	1218,54
796,34	1335,28
796,52	1243,12
796,69	1263,60
796,87	1275,88
797,04	1204,21
797,22	1247,21
797,39	1322,99
797,57	1269,74
797,74	1239,02
797,92	1216,49
798,09	1210,35
798,27	1288,17
798,44	1277,93
798,62	1355,76
798,79	1259,50
798,96	1269,74
799,14	1292,27
799,31	1247,21
799,49	1302,51
799,66	1208,30
799,84	1306,60
800,01	1386,47
800,19	1298,41
800,36	1312,75
800,53	1361,90
800,71	1236,97
800,88	1263,60
801,06	1290,22
801,23	1306,60
801,41	1304,56
801,58	1273,84
801,75	1275,88
801,93	1263,60
802,10	1298,41
802,28	1277,93
802,45	1288,17
802,63	1286,12
802,80	1318,89
802,97	1271,79
803,15	1298,41
803,32	1296,36
803,50	1310,70
803,67	1339,37
803,84	1288,17
804,02	1359,85
804,19	1236,97
804,37	1286,12
804,54	1243,12
804,71	1284,08
804,89	1273,84
805,06	1318,89
805,24	1257,45
805,41	1343,47
805,58	1234,93
805,76	1228,78
805,93	1329,13
806,10	1175,53
806,28	1247,21
806,45	1232,88
806,63	1277,93
806,80	1290,22
806,97	1296,36
807,15	1261,55
807,32	1308,65
807,49	1245,16
807,67	1351,66
807,84	1282,03
808,01	1310,70
808,19	1282,03
808,36	1257,45
808,54	1275,88
808,71	1208,30
808,88	1251,31
809,06	1245,16
809,23	1320,94
809,40	1279,98
809,58	1302,51
809,75	1226,73
809,92	1200,11
810,10	1265,64
810,27	1288,17
810,44	1275,88
810,62	1361,90
810,79	1290,22
810,96	1239,02
811,14	1198,06
811,31	1251,31
811,48	1185,77
811,66	1255,40
811,83	1302,51
812,00	1267,69
812,18	1228,78
812,35	1325,04
812,52	1257,45
812,69	1292,27
812,87	1271,79
813,04	1269,74
813,21	1343,47
813,39	1239,02
813,56	1294,32
813,73	1284,08
813,91	1327,08
814,08	1282,03
814,25	1288,17
814,42	1224,69
814,60	1298,41
814,77	1245,16
814,94	1294,32
815,12	1329,13
815,29	1267,69
815,46	1275,88
815,63	1302,51
815,81	1267,69
815,98	1236,97
816,15	1318,89
816,33	1230,83
816,50	1261,55
816,67	1218,54
816,84	1337,32
817,02	1333,23
817,19	1224,69
817,36	1312,75
817,53	1269,74
817,71	1308,65
817,88	1333,23
818,05	1249,26
818,22	1253,36
818,40	1347,56
818,57	1282,03
818,74	1296,36
818,91	1259,50
819,09	1232,88
819,26	1245,16
819,43	1208,30
819,60	1273,84
819,78	1249,26
819,95	1271,79
820,12	1261,55
820,29	1279,98
820,47	1288,17
820,64	1198,06
820,81	1294,32
820,98	1224,69
821,15	1232,88
821,33	1298,41
821,50	1294,32
821,67	1208,30
821,84	1275,88
822,02	1296,36
822,19	1277,93
822,36	1271,79
822,53	1263,60
822,70	1327,08
822,88	1343,47
823,05	1290,22
823,22	1292,27
823,39	1306,60
823,56	1218,54
823,74	1210,35
823,91	1239,02
824,08	1273,84
824,25	1220,59
824,42	1191,92
824,60	1243,12
824,77	1275,88
824,94	1277,93
825,11	1331,18
825,28	1253,36
825,45	1306,60
825,63	1357,80
825,80	1288,17
825,97	1273,84
826,14	1216,49
826,31	1214,45
826,48	1241,07
826,66	1239,02
826,83	1198,06
827,00	1329,13
827,17	1282,03
827,34	1286,12
827,51	1243,12
827,69	1255,40
827,86	1282,03
828,03	1196,01
828,20	1318,89
828,37	1267,69
828,54	1179,63
828,71	1251,31
828,89	1290,22
829,06	1232,88
829,23	1282,03
829,40	1351,66
829,57	1216,49
829,74	1236,97
829,91	1282,03
830,09	1171,44
830,26	1208,30
830,43	1247,21
830,60	1261,55
830,77	1239,02
830,94	1290,22
831,11	1304,56
831,28	1271,79
831,46	1341,42
831,63	1171,44
831,80	1320,94
831,97	1284,08
832,14	1302,51
832,31	1230,83
832,48	1257,45
832,65	1265,64
832,82	1300,46
832,99	1273,84
833,17	1349,61
833,34	1230,83
833,51	1282,03
833,68	1175,53
833,85	1335,28
834,02	1263,60
834,19	1304,56
834,36	1255,40
834,53	1218,54
834,70	1349,61
834,87	1312,75
835,04	1273,84
835,22	1343,47
835,39	1191,92
835,56	1290,22
835,73	1249,26
835,90	1284,08
836,07	1282,03
836,24	1245,16
836,41	1267,69
836,58	1322,99
836,75	1353,71
836,92	1277,93
837,09	1216,49
837,26	1296,36
837,43	1282,03
837,60	1216,49
837,77	1277,93
837,94	1226,73
838,12	1312,75
838,29	1271,79
838,46	1257,45
838,63	1271,79
838,80	1253,36
838,97	1249,26
839,14	1296,36
839,31	1253,36
839,48	1296,36
839,65	1230,83
839,82	1337,32
839,99	1245,16
840,16	1271,79
840,33	1269,74
840,50	1322,99
840,67	1294,32
840,84	1366,00
841,01	1261,55
841,18	1218,54
841,35	1257,45
841,52	1374,19
841,69	1200,11
841,86	1263,60
842,03	1288,17
842,20	1310,70
842,37	1239,02
842,54	1202,16
842,71	1269,74
842,88	1249,26
843,05	1224,69
843,22	1275,88
843,39	1263,60
843,56	1265,64
843,73	1208,30
843,90	1275,88
844,07	1325,04
844,24	1273,84
844,41	1257,45
844,58	1224,69
844,75	1247,21
844,92	1302,51
845,09	1249,26
845,26	1255,40
845,43	1331,18
845,60	1218,54
845,77	1241,07
845,94	1318,89
846,10	1263,60
846,27	1296,36
846,44	1273,84
846,61	1314,80
846,78	1261,55
846,95	1265,64
847,12	1257,45
847,29	1230,83
847,46	1292,27
847,63	1286,12
847,80	1306,60
847,97	1300,46
848,14	1261,55
848,31	1228,78
848,48	1220,59
848,65	1271,79
848,82	1296,36
848,98	1245,16
849,15	1230,83
849,32	1259,50
849,49	1222,64
849,66	1345,52
849,83	1282,03
850,00	1290,22
850,17	1327,08
850,34	1234,93
850,51	1284,08
850,68	1212,40
850,85	1282,03
851,01	1282,03
851,18	1255,40
851,35	1322,99
851,52	1284,08
851,69	1243,12
851,86	1279,98
852,03	1245,16
852,20	1261,55
852,37	1257,45
852,53	1222,64
852,70	1359,85
852,87	1277,93
853,04	1218,54
853,21	1218,54
853,38	1294,32
853,55	1273,84
853,72	1228,78
853,89	1277,93
854,05	1325,04
854,22	1257,45
854,39	1310,70
854,56	1282,03
854,73	1271,79
854,90	1210,35
855,07	1279,98
855,23	1275,88
855,40	1255,40
855,57	1261,55
855,74	1292,27
855,91	1353,71
856,08	1296,36
856,25	1335,28
856,41	1214,45
856,58	1263,60
856,75	1261,55
856,92	1277,93
857,09	1314,80
857,26	1290,22
857,42	1239,02
857,59	1236,97
857,76	1277,93
857,93	1267,69
858,10	1257,45
858,27	1198,06
858,43	1372,14
858,60	1232,88
858,77	1304,56
858,94	1271,79
859,11	1269,74
859,27	1212,40
859,44	1312,75
859,61	1282,03
859,78	1294,32
859,95	1257,45
860,12	1232,88
860,28	1253,36
860,45	1253,36
860,62	1210,35
860,79	1277,93
860,95	1257,45
861,12	1322,99
861,29	1282,03
861,46	1220,59
861,63	1196,01
861,79	1292,27
861,96	1298,41
862,13	1232,88
862,30	1273,84
862,47	1292,27
862,63	1210,35
862,80	1181,68
862,97	1265,64
863,14	1290,22
863,30	1249,26
863,47	1273,84
863,64	1265,64
863,81	1257,45
863,97	1236,97
864,14	1314,80
864,31	1284,08
864,48	1269,74
864,65	1222,64
864,81	1290,22
864,98	1306,60
865,15	1255,40
865,32	1263,60
865,48	1277,93
865,65	1253,36
865,82	1216,49
865,98	1282,03
866,15	1193,97
866,32	1308,65
866,49	1325,04
866,65	1294,32
866,82	1212,40
866,99	1269,74
867,16	1304,56
867,32	1257,45
867,49	1308,65
867,66	1314,80
867,83	1310,70
867,99	1267,69
868,16	1255,40
868,33	1335,28
868,49	1271,79
868,66	1306,60
868,83	1271,79
868,99	1230,83
869,16	1300,46
869,33	1249,26
869,50	1337,32
869,66	1337,32
869,83	1239,02
870,00	1269,74
870,16	1234,93
870,33	1277,93
870,50	1286,12
870,66	1298,41
870,83	1310,70
871,00	1300,46
871,17	1193,97
871,33	1269,74
871,50	1310,70
871,67	1261,55
871,83	1296,36
872,00	1294,32
872,17	1245,16
872,33	1220,59
872,50	1279,98
872,67	1257,45
872,83	1249,26
873,00	1222,64
873,17	1261,55
873,33	1183,73
873,50	1206,25
873,67	1255,40
873,83	1335,28
874,00	1204,21
874,16	1265,64
874,33	1282,03
874,50	1312,75
874,66	1245,16
874,83	1333,23
875,00	1320,94
875,16	1257,45
875,33	1275,88
875,50	1341,42
875,66	1208,30
875,83	1279,98
875,99	1290,22
876,16	1312,75
876,33	1159,15
876,49	1161,20
876,66	1314,80
876,83	1343,47
876,99	1273,84
877,16	1298,41
877,32	1253,36
877,49	1267,69
877,66	1298,41
877,82	1222,64
877,99	1214,45
878,15	1239,02
878,32	1306,60
878,49	1304,56
878,65	1296,36
878,82	1339,37
878,98	1329,13
879,15	1337,32
879,32	1290,22
879,48	1247,21
879,65	1286,12
879,81	1327,08
879,98	1257,45
880,15	1265,64
880,31	1236,97
880,48	1265,64
880,64	1214,45
880,81	1271,79
880,97	1245,16
881,14	1161,20
881,31	1275,88
881,47	1286,12
881,64	1220,59
881,80	1134,57
881,97	1290,22
882,13	1292,27
882,30	1204,21
882,47	1290,22
882,63	1271,79
882,80	1327,08
882,96	1185,77
883,13	1218,54
883,29	1249,26
883,46	1363,95
883,62	1269,74
883,79	1363,95
883,95	1273,84
884,12	1292,27
884,29	1292,27
884,45	1314,80
884,62	1302,51
884,78	1267,69
884,95	1337,32
885,11	1206,25
885,28	1249,26
885,44	1308,65
885,61	1255,40
885,77	1243,12
885,94	1343,47
886,10	1288,17
886,27	1239,02
886,43	1224,69
886,60	1267,69
886,76	1224,69
886,93	1341,42
887,09	1269,74
887,26	1253,36
887,42	1355,76
887,59	1302,51
887,75	1255,40
887,92	1259,50
888,08	1279,98
888,25	1320,94
888,41	1300,46
888,58	1316,84
888,74	1312,75
888,91	1298,41
>>>>>End Processed Spectral Data<<<<<
