SpectraSuite Data File
++++++++++++++++++++++++++++++++++++
Date: Sun Apr 03 14:49:04 CEST 2016
User: root
Dark Spectrum Present: No
Reference Spectrum Present: No
Number of Sampled Component Spectra: 1
Spectrometers: USB4C02835
Integration Time (usec): 10000 (USB4C02835)
Spectra Averaged: 1 (USB4C02835)
Boxcar Smoothing: 0 (USB4C02835)
Correct for Electrical Dark: No (USB4C02835)
Strobe/Lamp Enabled: No (USB4C02835)
Correct for Detector Non-linearity: No (USB4C02835)
Correct for Stray Light: No (USB4C02835)
Number of Pixels in Processed Spectrum: 3648
>>>>>Begin Processed Spectral Data<<<<<
177,47	1185,77
177,69	1185,77
177,91	1185,77
178,13	1224,69
178,36	1282,03
178,58	1249,26
178,80	1249,26
179,02	1314,80
179,24	1282,03
179,46	1245,16
179,68	1337,32
179,90	1263,60
180,13	1312,75
180,35	1232,88
180,57	1292,27
180,79	1304,56
181,01	1271,79
181,23	1308,65
181,45	1273,84
181,67	1245,16
181,90	1167,34
182,12	1224,69
182,34	1351,66
182,56	1226,73
182,78	1249,26
183,00	1216,49
183,22	1228,78
183,44	1312,75
183,66	1310,70
183,89	1290,22
184,11	1294,32
184,33	1220,59
184,55	1261,55
184,77	1284,08
184,99	1267,69
185,21	1269,74
185,43	1214,45
185,65	1243,12
185,87	1236,97
186,10	1208,30
186,32	1263,60
186,54	1345,52
186,76	1222,64
186,98	1312,75
187,20	1224,69
187,42	1267,69
187,64	1241,07
187,86	1204,21
188,08	1230,83
188,30	1249,26
188,52	1296,36
188,75	1210,35
188,97	1300,46
189,19	1308,65
189,41	1255,40
189,63	1191,92
189,85	1277,93
190,07	1292,27
190,29	1263,60
190,51	1325,04
190,73	1273,84
190,95	1314,80
191,17	1236,97
191,39	1282,03
191,61	1279,98
191,84	1249,26
192,06	1363,95
192,28	1263,60
192,50	1327,08
192,72	1300,46
192,94	1292,27
193,16	1249,26
193,38	1288,17
193,60	1282,03
193,82	1286,12
194,04	1253,36
194,26	1308,65
194,48	1312,75
194,70	1290,22
194,92	1318,89
195,14	1216,49
195,36	1339,37
195,58	1292,27
195,80	1230,83
196,02	1214,45
196,24	1255,40
196,46	1296,36
196,69	1257,45
196,91	1296,36
197,13	1222,64
197,35	1216,49
197,57	1243,12
197,79	1322,99
198,01	1255,40
198,23	1241,07
198,45	1220,59
198,67	1314,80
198,89	1273,84
199,11	1279,98
199,33	1212,40
199,55	1296,36
199,77	1290,22
199,99	1310,70
200,21	1265,64
200,43	1304,56
200,65	1253,36
200,87	1277,93
201,09	1294,32
201,31	1345,52
201,53	1230,83
201,75	1298,41
201,97	1241,07
202,19	1210,35
202,41	1286,12
202,63	1241,07
202,85	1329,13
203,07	1269,74
203,29	1316,84
203,51	1296,36
203,73	1304,56
203,95	1230,83
204,17	1261,55
204,39	1193,97
204,61	1327,08
204,83	1286,12
205,05	1288,17
205,27	1290,22
205,49	1236,97
205,71	1265,64
205,93	1228,78
206,15	1337,32
206,37	1265,64
206,59	1247,21
206,81	1300,46
207,03	1290,22
207,25	1200,11
207,47	1318,89
207,69	1300,46
207,91	1249,26
208,13	1284,08
208,34	1263,60
208,56	1312,75
208,78	1273,84
209,00	1140,72
209,22	1265,64
209,44	1228,78
209,66	1206,25
209,88	1322,99
210,10	1247,21
210,32	1349,61
210,54	1267,69
210,76	1228,78
210,98	1318,89
211,20	1286,12
211,42	1318,89
211,64	1355,76
211,86	1206,25
212,08	1318,89
212,30	1228,78
212,52	1318,89
212,74	1273,84
212,96	1286,12
213,17	1314,80
213,39	1273,84
213,61	1230,83
213,83	1320,94
214,05	1300,46
214,27	1255,40
214,49	1286,12
214,71	1208,30
214,93	1325,04
215,15	1345,52
215,37	1312,75
215,59	1208,30
215,81	1181,68
216,03	1269,74
216,24	1302,51
216,46	1245,16
216,68	1265,64
216,90	1271,79
217,12	1320,94
217,34	1243,12
217,56	1249,26
217,78	1247,21
218,00	1249,26
218,22	1286,12
218,44	1304,56
218,66	1329,13
218,87	1320,94
219,09	1269,74
219,31	1273,84
219,53	1241,07
219,75	1302,51
219,97	1298,41
220,19	1394,67
220,41	1282,03
220,63	1236,97
220,85	1202,16
221,06	1273,84
221,28	1245,16
221,50	1271,79
221,72	1361,90
221,94	1200,11
222,16	1181,68
222,38	1277,93
222,60	1222,64
222,82	1243,12
223,03	1271,79
223,25	1269,74
223,47	1234,93
223,69	1310,70
223,91	1257,45
224,13	1230,83
224,35	1282,03
224,57	1335,28
224,78	1302,51
225,00	1267,69
225,22	1339,37
225,44	1288,17
225,66	1300,46
225,88	1261,55
226,10	1286,12
226,32	1292,27
226,53	1308,65
226,75	1247,21
226,97	1193,97
227,19	1255,40
227,41	1284,08
227,63	1216,49
227,85	1304,56
228,06	1339,37
228,28	1304,56
228,50	1296,36
228,72	1224,69
228,94	1232,88
229,16	1296,36
229,37	1263,60
229,59	1308,65
229,81	1329,13
230,03	1216,49
230,25	1251,31
230,47	1245,16
230,69	1300,46
230,90	1255,40
231,12	1249,26
231,34	1230,83
231,56	1236,97
231,78	1304,56
232,00	1228,78
232,21	1282,03
232,43	1241,07
232,65	1224,69
232,87	1259,50
233,09	1282,03
233,30	1224,69
233,52	1177,58
233,74	1325,04
233,96	1314,80
234,18	1316,84
234,40	1288,17
234,61	1255,40
234,83	1273,84
235,05	1269,74
235,27	1288,17
235,49	1200,11
235,70	1255,40
235,92	1265,64
236,14	1265,64
236,36	1292,27
236,58	1318,89
236,79	1343,47
237,01	1236,97
237,23	1247,21
237,45	1271,79
237,67	1292,27
237,88	1224,69
238,10	1314,80
238,32	1230,83
238,54	1241,07
238,76	1257,45
238,97	1327,08
239,19	1200,11
239,41	1245,16
239,63	1204,21
239,85	1245,16
240,06	1298,41
240,28	1241,07
240,50	1286,12
240,72	1267,69
240,93	1275,88
241,15	1245,16
241,37	1255,40
241,59	1200,11
241,81	1261,55
242,02	1267,69
242,24	1249,26
242,46	1288,17
242,68	1294,32
242,89	1273,84
243,11	1263,60
243,33	1241,07
243,55	1304,56
243,76	1320,94
243,98	1193,97
244,20	1359,85
244,42	1224,69
244,64	1263,60
244,85	1175,53
245,07	1325,04
245,29	1286,12
245,51	1314,80
245,72	1325,04
245,94	1325,04
246,16	1249,26
246,38	1232,88
246,59	1275,88
246,81	1275,88
247,03	1236,97
247,24	1189,87
247,46	1247,21
247,68	1224,69
247,90	1261,55
248,11	1255,40
248,33	1236,97
248,55	1380,33
248,77	1310,70
248,98	1271,79
249,20	1275,88
249,42	1275,88
249,64	1308,65
249,85	1247,21
250,07	1265,64
250,29	1331,18
250,50	1302,51
250,72	1241,07
250,94	1327,08
251,16	1325,04
251,37	1288,17
251,59	1198,06
251,81	1239,02
252,02	1335,28
252,24	1243,12
252,46	1269,74
252,68	1249,26
252,89	1265,64
253,11	1337,32
253,33	1294,32
253,54	1290,22
253,76	1271,79
253,98	1286,12
254,20	1269,74
254,41	1224,69
254,63	1310,70
254,85	1200,11
255,06	1261,55
255,28	1253,36
255,50	1251,31
255,71	1312,75
255,93	1320,94
256,15	1284,08
256,36	1251,31
256,58	1310,70
256,80	1198,06
257,02	1224,69
257,23	1282,03
257,45	1247,21
257,67	1245,16
257,88	1269,74
258,10	1327,08
258,32	1329,13
258,53	1218,54
258,75	1296,36
258,97	1314,80
259,18	1259,50
259,40	1341,42
259,62	1257,45
259,83	1239,02
260,05	1234,93
260,27	1310,70
260,48	1232,88
260,70	1249,26
260,92	1376,24
261,13	1310,70
261,35	1288,17
261,57	1294,32
261,78	1325,04
262,00	1312,75
262,22	1335,28
262,43	1310,70
262,65	1161,20
262,86	1300,46
263,08	1288,17
263,30	1241,07
263,51	1322,99
263,73	1267,69
263,95	1306,60
264,16	1308,65
264,38	1236,97
264,60	1234,93
264,81	1257,45
265,03	1288,17
265,25	1239,02
265,46	1216,49
265,68	1271,79
265,89	1302,51
266,11	1259,50
266,33	1265,64
266,54	1261,55
266,76	1349,61
266,98	1308,65
267,19	1329,13
267,41	1222,64
267,62	1232,88
267,84	1241,07
268,06	1230,83
268,27	1318,89
268,49	1218,54
268,70	1198,06
268,92	1290,22
269,14	1380,33
269,35	1253,36
269,57	1259,50
269,79	1308,65
270,00	1277,93
270,22	1269,74
270,43	1241,07
270,65	1236,97
270,87	1351,66
271,08	1308,65
271,30	1300,46
271,51	1265,64
271,73	1294,32
271,95	1331,18
272,16	1271,79
272,38	1245,16
272,59	1257,45
272,81	1273,84
273,02	1284,08
273,24	1292,27
273,46	1255,40
273,67	1253,36
273,89	1331,18
274,10	1312,75
274,32	1253,36
274,54	1304,56
274,75	1298,41
274,97	1298,41
275,18	1296,36
275,40	1277,93
275,61	1236,97
275,83	1230,83
276,05	1294,32
276,26	1320,94
276,48	1253,36
276,69	1249,26
276,91	1251,31
277,12	1259,50
277,34	1288,17
277,55	1257,45
277,77	1255,40
277,99	1286,12
278,20	1251,31
278,42	1226,73
278,63	1269,74
278,85	1263,60
279,06	1290,22
279,28	1318,89
279,49	1349,61
279,71	1189,87
279,93	1265,64
280,14	1310,70
280,36	1279,98
280,57	1222,64
280,79	1271,79
281,00	1320,94
281,22	1314,80
281,43	1288,17
281,65	1277,93
281,86	1253,36
282,08	1300,46
282,29	1253,36
282,51	1232,88
282,73	1171,44
282,94	1191,92
283,16	1279,98
283,37	1185,77
283,59	1308,65
283,80	1239,02
284,02	1298,41
284,23	1257,45
284,45	1294,32
284,66	1228,78
284,88	1273,84
285,09	1208,30
285,31	1298,41
285,52	1241,07
285,74	1253,36
285,95	1263,60
286,17	1247,21
286,38	1310,70
286,60	1298,41
286,81	1275,88
287,03	1271,79
287,24	1322,99
287,46	1232,88
287,67	1271,79
287,89	1251,31
288,10	1269,74
288,32	1298,41
288,53	1316,84
288,75	1273,84
288,96	1312,75
289,18	1265,64
289,39	1171,44
289,61	1275,88
289,82	1306,60
290,04	1302,51
290,25	1208,30
290,47	1265,64
290,68	1253,36
290,90	1253,36
291,11	1267,69
291,33	1353,71
291,54	1282,03
291,76	1218,54
291,97	1286,12
292,18	1249,26
292,40	1286,12
292,61	1284,08
292,83	1296,36
293,04	1239,02
293,26	1329,13
293,47	1306,60
293,69	1241,07
293,90	1251,31
294,12	1312,75
294,33	1273,84
294,55	1304,56
294,76	1343,47
294,97	1275,88
295,19	1234,93
295,40	1239,02
295,62	1286,12
295,83	1310,70
296,05	1288,17
296,26	1273,84
296,48	1230,83
296,69	1249,26
296,90	1267,69
297,12	1275,88
297,33	1206,25
297,55	1292,27
297,76	1269,74
297,98	1228,78
298,19	1202,16
298,41	1275,88
298,62	1230,83
298,83	1218,54
299,05	1253,36
299,26	1294,32
299,48	1232,88
299,69	1331,18
299,90	1302,51
300,12	1339,37
300,33	1284,08
300,55	1263,60
300,76	1302,51
300,98	1224,69
301,19	1314,80
301,40	1296,36
301,62	1279,98
301,83	1181,68
302,05	1261,55
302,26	1267,69
302,47	1269,74
302,69	1251,31
302,90	1292,27
303,12	1247,21
303,33	1335,28
303,54	1306,60
303,76	1312,75
303,97	1261,55
304,19	1312,75
304,40	1220,59
304,61	1234,93
304,83	1310,70
305,04	1282,03
305,26	1298,41
305,47	1294,32
305,68	1241,07
305,90	1275,88
306,11	1216,49
306,33	1267,69
306,54	1296,36
306,75	1206,25
306,97	1220,59
307,18	1257,45
307,39	1228,78
307,61	1253,36
307,82	1247,21
308,04	1259,50
308,25	1218,54
308,46	1316,84
308,68	1314,80
308,89	1251,31
309,10	1304,56
309,32	1292,27
309,53	1167,34
309,74	1236,97
309,96	1212,40
310,17	1347,56
310,39	1249,26
310,60	1263,60
310,81	1249,26
311,03	1247,21
311,24	1249,26
311,45	1325,04
311,67	1253,36
311,88	1218,54
312,09	1279,98
312,31	1226,73
312,52	1308,65
312,73	1304,56
312,95	1275,88
313,16	1286,12
313,37	1331,18
313,59	1259,50
313,80	1239,02
314,01	1239,02
314,23	1316,84
314,44	1208,30
314,65	1294,32
314,87	1230,83
315,08	1239,02
315,29	1286,12
315,51	1267,69
315,72	1345,52
315,93	1261,55
316,15	1304,56
316,36	1220,59
316,57	1265,64
316,79	1322,99
317,00	1314,80
317,21	1232,88
317,43	1232,88
317,64	1247,21
317,85	1249,26
318,07	1230,83
318,28	1196,01
318,49	1339,37
318,70	1198,06
318,92	1294,32
319,13	1265,64
319,34	1251,31
319,56	1267,69
319,77	1249,26
319,98	1277,93
320,20	1210,35
320,41	1247,21
320,62	1296,36
320,83	1222,64
321,05	1314,80
321,26	1331,18
321,47	1306,60
321,69	1189,87
321,90	1210,35
322,11	1345,52
322,32	1241,07
322,54	1239,02
322,75	1279,98
322,96	1271,79
323,18	1290,22
323,39	1312,75
323,60	1302,51
323,81	1271,79
324,03	1247,21
324,24	1284,08
324,45	1183,73
324,66	1302,51
324,88	1241,07
325,09	1372,14
325,30	1224,69
325,52	1316,84
325,73	1296,36
325,94	1386,47
326,15	1316,84
326,37	1257,45
326,58	1366,00
326,79	1257,45
327,00	1288,17
327,22	1277,93
327,43	1296,36
327,64	1263,60
327,85	1228,78
328,07	1241,07
328,28	1277,93
328,49	1257,45
328,70	1292,27
328,92	1130,48
329,13	1298,41
329,34	1259,50
329,55	1191,92
329,76	1206,25
329,98	1275,88
330,19	1183,73
330,40	1257,45
330,61	1245,16
330,83	1232,88
331,04	1361,90
331,25	1251,31
331,46	1232,88
331,68	1331,18
331,89	1261,55
332,10	1245,16
332,31	1273,84
332,52	1279,98
332,74	1279,98
332,95	1202,16
333,16	1286,12
333,37	1245,16
333,58	1337,32
333,80	1263,60
334,01	1337,32
334,22	1216,49
334,43	1288,17
334,64	1247,21
334,86	1277,93
335,07	1261,55
335,28	1253,36
335,49	1265,64
335,70	1234,93
335,92	1308,65
336,13	1243,12
336,34	1261,55
336,55	1292,27
336,76	1230,83
336,98	1312,75
337,19	1220,59
337,40	1255,40
337,61	1269,74
337,82	1243,12
338,04	1306,60
338,25	1200,11
338,46	1220,59
338,67	1284,08
338,88	1341,42
339,09	1288,17
339,31	1243,12
339,52	1279,98
339,73	1228,78
339,94	1241,07
340,15	1273,84
340,36	1249,26
340,58	1214,45
340,79	1347,56
341,00	1247,21
341,21	1296,36
341,42	1261,55
341,63	1271,79
341,85	1255,40
342,06	1296,36
342,27	1267,69
342,48	1294,32
342,69	1273,84
342,90	1292,27
343,12	1286,12
343,33	1294,32
343,54	1269,74
343,75	1320,94
343,96	1279,98
344,17	1294,32
344,38	1363,95
344,60	1282,03
344,81	1181,68
345,02	1306,60
345,23	1282,03
345,44	1234,93
345,65	1279,98
345,86	1265,64
346,07	1255,40
346,29	1335,28
346,50	1263,60
346,71	1279,98
346,92	1265,64
347,13	1337,32
347,34	1198,06
347,55	1208,30
347,76	1302,51
347,98	1269,74
348,19	1288,17
348,40	1345,52
348,61	1294,32
348,82	1243,12
349,03	1251,31
349,24	1300,46
349,45	1263,60
349,66	1239,02
349,88	1202,16
350,09	1245,16
350,30	1222,64
350,51	1243,12
350,72	1298,41
350,93	1267,69
351,14	1290,22
351,35	1265,64
351,56	1288,17
351,77	1253,36
351,99	1220,59
352,20	1308,65
352,41	1282,03
352,62	1279,98
352,83	1341,42
353,04	1290,22
353,25	1288,17
353,46	1304,56
353,67	1320,94
353,88	1308,65
354,09	1273,84
354,30	1304,56
354,52	1273,84
354,73	1290,22
354,94	1298,41
355,15	1290,22
355,36	1310,70
355,57	1241,07
355,78	1232,88
355,99	1265,64
356,20	1284,08
356,41	1284,08
356,62	1234,93
356,83	1325,04
357,04	1308,65
357,25	1245,16
357,46	1292,27
357,68	1329,13
357,89	1241,07
358,10	1310,70
358,31	1308,65
358,52	1341,42
358,73	1175,53
358,94	1320,94
359,15	1284,08
359,36	1269,74
359,57	1243,12
359,78	1282,03
359,99	1269,74
360,20	1290,22
360,41	1320,94
360,62	1339,37
360,83	1284,08
361,04	1253,36
361,25	1292,27
361,46	1290,22
361,67	1157,10
361,88	1263,60
362,09	1267,69
362,30	1290,22
362,51	1230,83
362,72	1290,22
362,93	1310,70
363,14	1308,65
363,35	1230,83
363,56	1327,08
363,78	1310,70
363,99	1329,13
364,20	1304,56
364,41	1214,45
364,62	1245,16
364,83	1267,69
365,04	1345,52
365,25	1257,45
365,46	1331,18
365,67	1359,85
365,88	1220,59
366,09	1282,03
366,30	1306,60
366,51	1294,32
366,72	1163,25
366,93	1296,36
367,14	1273,84
367,35	1234,93
367,56	1275,88
367,77	1232,88
367,98	1259,50
368,18	1304,56
368,39	1273,84
368,60	1257,45
368,81	1249,26
369,02	1241,07
369,23	1265,64
369,44	1294,32
369,65	1239,02
369,86	1253,36
370,07	1316,84
370,28	1271,79
370,49	1308,65
370,70	1245,16
370,91	1279,98
371,12	1216,49
371,33	1224,69
371,54	1261,55
371,75	1263,60
371,96	1245,16
372,17	1368,04
372,38	1202,16
372,59	1271,79
372,80	1230,83
373,01	1337,32
373,22	1239,02
373,43	1249,26
373,64	1234,93
373,85	1214,45
374,06	1277,93
374,26	1271,79
374,47	1296,36
374,68	1269,74
374,89	1218,54
375,10	1259,50
375,31	1265,64
375,52	1202,16
375,73	1265,64
375,94	1191,92
376,15	1339,37
376,36	1288,17
376,57	1322,99
376,78	1267,69
376,99	1255,40
377,20	1273,84
377,40	1257,45
377,61	1333,23
377,82	1265,64
378,03	1308,65
378,24	1273,84
378,45	1298,41
378,66	1257,45
378,87	1234,93
379,08	1241,07
379,29	1322,99
379,50	1263,60
379,71	1234,93
379,91	1273,84
380,12	1273,84
380,33	1204,21
380,54	1259,50
380,75	1300,46
380,96	1222,64
381,17	1273,84
381,38	1222,64
381,59	1318,89
381,80	1261,55
382,00	1265,64
382,21	1181,68
382,42	1269,74
382,63	1292,27
382,84	1329,13
383,05	1322,99
383,26	1282,03
383,47	1284,08
383,68	1263,60
383,88	1322,99
384,09	1306,60
384,30	1273,84
384,51	1245,16
384,72	1286,12
384,93	1216,49
385,14	1228,78
385,35	1335,28
385,55	1259,50
385,76	1247,21
385,97	1294,32
386,18	1239,02
386,39	1269,74
386,60	1296,36
386,81	1257,45
387,02	1214,45
387,22	1224,69
387,43	1390,57
387,64	1206,25
387,85	1259,50
388,06	1282,03
388,27	1304,56
388,48	1269,74
388,68	1282,03
388,89	1316,84
389,10	1335,28
389,31	1302,51
389,52	1275,88
389,73	1288,17
389,93	1277,93
390,14	1273,84
390,35	1275,88
390,56	1210,35
390,77	1304,56
390,98	1208,30
391,18	1329,13
391,39	1249,26
391,60	1306,60
391,81	1234,93
392,02	1247,21
392,23	1279,98
392,43	1329,13
392,64	1273,84
392,85	1249,26
393,06	1308,65
393,27	1298,41
393,47	1261,55
393,68	1249,26
393,89	1290,22
394,10	1288,17
394,31	1261,55
394,52	1255,40
394,72	1236,97
394,93	1234,93
395,14	1296,36
395,35	1318,89
395,56	1294,32
395,76	1226,73
395,97	1214,45
396,18	1279,98
396,39	1212,40
396,60	1208,30
396,80	1306,60
397,01	1333,23
397,22	1236,97
397,43	1253,36
397,64	1290,22
397,84	1247,21
398,05	1288,17
398,26	1226,73
398,47	1288,17
398,67	1263,60
398,88	1273,84
399,09	1302,51
399,30	1271,79
399,51	1259,50
399,71	1257,45
399,92	1243,12
400,13	1232,88
400,34	1261,55
400,54	1335,28
400,75	1312,75
400,96	1271,79
401,17	1202,16
401,37	1312,75
401,58	1316,84
401,79	1288,17
402,00	1292,27
402,21	1273,84
402,41	1306,60
402,62	1249,26
402,83	1284,08
403,04	1204,21
403,24	1277,93
403,45	1292,27
403,66	1333,23
403,87	1257,45
404,07	1363,95
404,28	1279,98
404,49	1294,32
404,70	1204,21
404,90	1277,93
405,11	1284,08
405,32	1306,60
405,52	1232,88
405,73	1241,07
405,94	1298,41
406,15	1357,80
406,35	1257,45
406,56	1239,02
406,77	1220,59
406,98	1249,26
407,18	1327,08
407,39	1271,79
407,60	1249,26
407,80	1249,26
408,01	1255,40
408,22	1245,16
408,43	1224,69
408,63	1306,60
408,84	1257,45
409,05	1351,66
409,25	1290,22
409,46	1290,22
409,67	1284,08
409,88	1322,99
410,08	1279,98
410,29	1257,45
410,50	1325,04
410,70	1302,51
410,91	1218,54
411,12	1296,36
411,32	1286,12
411,53	1294,32
411,74	1327,08
411,95	1271,79
412,15	1234,93
412,36	1322,99
412,57	1263,60
412,77	1271,79
412,98	1261,55
413,19	1300,46
413,39	1296,36
413,60	1257,45
413,81	1296,36
414,01	1243,12
414,22	1292,27
414,43	1271,79
414,63	1294,32
414,84	1304,56
415,05	1214,45
415,25	1302,51
415,46	1282,03
415,67	1277,93
415,87	1255,40
416,08	1239,02
416,29	1300,46
416,49	1271,79
416,70	1294,32
416,91	1230,83
417,11	1318,89
417,32	1294,32
417,53	1261,55
417,73	1296,36
417,94	1302,51
418,15	1282,03
418,35	1189,87
418,56	1257,45
418,77	1261,55
418,97	1259,50
419,18	1220,59
419,38	1257,45
419,59	1290,22
419,80	1353,71
420,00	1335,28
420,21	1296,36
420,42	1202,16
420,62	1255,40
420,83	1239,02
421,04	1271,79
421,24	1282,03
421,45	1325,04
421,65	1261,55
421,86	1257,45
422,07	1253,36
422,27	1282,03
422,48	1239,02
422,69	1306,60
422,89	1239,02
423,10	1263,60
423,30	1208,30
423,51	1251,31
423,72	1337,32
423,92	1216,49
424,13	1273,84
424,33	1234,93
424,54	1304,56
424,75	1265,64
424,95	1296,36
425,16	1282,03
425,36	1202,16
425,57	1216,49
425,78	1345,52
425,98	1298,41
426,19	1296,36
426,39	1177,58
426,60	1263,60
426,81	1259,50
427,01	1212,40
427,22	1306,60
427,42	1320,94
427,63	1261,55
427,83	1331,18
428,04	1292,27
428,25	1304,56
428,45	1306,60
428,66	1316,84
428,86	1275,88
429,07	1275,88
429,28	1282,03
429,48	1277,93
429,69	1363,95
429,89	1300,46
430,10	1318,89
430,30	1269,74
430,51	1300,46
430,71	1284,08
430,92	1259,50
431,13	1331,18
431,33	1318,89
431,54	1212,40
431,74	1220,59
431,95	1251,31
432,15	1251,31
432,36	1277,93
432,56	1298,41
432,77	1208,30
432,98	1230,83
433,18	1257,45
433,39	1255,40
433,59	1259,50
433,80	1263,60
434,00	1253,36
434,21	1183,73
434,41	1265,64
434,62	1290,22
434,82	1298,41
435,03	1263,60
435,23	1314,80
435,44	1243,12
435,64	1230,83
435,85	1265,64
436,06	1269,74
436,26	1314,80
436,47	1259,50
436,67	1193,97
436,88	1259,50
437,08	1259,50
437,29	1284,08
437,49	1327,08
437,70	1261,55
437,90	1236,97
438,11	1320,94
438,31	1335,28
438,52	1269,74
438,72	1220,59
438,93	1245,16
439,13	1273,84
439,34	1290,22
439,54	1296,36
439,75	1277,93
439,95	1239,02
440,16	1339,37
440,36	1259,50
440,57	1253,36
440,77	1302,51
440,98	1292,27
441,18	1288,17
441,39	1204,21
441,59	1269,74
441,80	1271,79
442,00	1273,84
442,21	1251,31
442,41	1245,16
442,62	1327,08
442,82	1216,49
443,02	1257,45
443,23	1255,40
443,43	1269,74
443,64	1224,69
443,84	1290,22
444,05	1212,40
444,25	1318,89
444,46	1292,27
444,66	1271,79
444,87	1322,99
445,07	1212,40
445,28	1249,26
445,48	1282,03
445,69	1245,16
445,89	1265,64
446,09	1273,84
446,30	1282,03
446,50	1288,17
446,71	1329,13
446,91	1239,02
447,12	1339,37
447,32	1286,12
447,53	1247,21
447,73	1257,45
447,93	1290,22
448,14	1247,21
448,34	1353,71
448,55	1282,03
448,75	1255,40
448,96	1279,98
449,16	1288,17
449,36	1265,64
449,57	1259,50
449,77	1259,50
449,98	1286,12
450,18	1239,02
450,39	1265,64
450,59	1245,16
450,79	1327,08
451,00	1269,74
451,20	1212,40
451,41	1351,66
451,61	1269,74
451,81	1267,69
452,02	1275,88
452,22	1275,88
452,43	1243,12
452,63	1267,69
452,84	1232,88
453,04	1214,45
453,24	1245,16
453,45	1216,49
453,65	1339,37
453,86	1316,84
454,06	1351,66
454,26	1290,22
454,47	1196,01
454,67	1286,12
454,87	1261,55
455,08	1265,64
455,28	1302,51
455,49	1196,01
455,69	1368,04
455,89	1282,03
456,10	1284,08
456,30	1200,11
456,51	1351,66
456,71	1306,60
456,91	1277,93
457,12	1284,08
457,32	1271,79
457,52	1320,94
457,73	1239,02
457,93	1355,76
458,14	1267,69
458,34	1261,55
458,54	1282,03
458,75	1243,12
458,95	1216,49
459,15	1259,50
459,36	1259,50
459,56	1296,36
459,76	1210,35
459,97	1288,17
460,17	1335,28
460,37	1296,36
460,58	1312,75
460,78	1218,54
460,99	1333,23
461,19	1329,13
461,39	1318,89
461,60	1275,88
461,80	1257,45
462,00	1318,89
462,21	1265,64
462,41	1275,88
462,61	1212,40
462,82	1198,06
463,02	1288,17
463,22	1243,12
463,43	1302,51
463,63	1288,17
463,83	1232,88
464,04	1234,93
464,24	1269,74
464,44	1269,74
464,64	1271,79
464,85	1267,69
465,05	1304,56
465,25	1288,17
465,46	1249,26
465,66	1249,26
465,86	1247,21
466,07	1282,03
466,27	1202,16
466,47	1245,16
466,68	1202,16
466,88	1327,08
467,08	1284,08
467,29	1306,60
467,49	1277,93
467,69	1296,36
467,89	1316,84
468,10	1232,88
468,30	1249,26
468,50	1230,83
468,71	1265,64
468,91	1216,49
469,11	1290,22
469,31	1290,22
469,52	1269,74
469,72	1302,51
469,92	1267,69
470,13	1359,85
470,33	1169,39
470,53	1255,40
470,73	1210,35
470,94	1275,88
471,14	1277,93
471,34	1304,56
471,54	1298,41
471,75	1302,51
471,95	1331,18
472,15	1265,64
472,36	1327,08
472,56	1277,93
472,76	1341,42
472,96	1296,36
473,17	1196,01
473,37	1191,92
473,57	1294,32
473,77	1177,58
473,98	1236,97
474,18	1224,69
474,38	1286,12
474,58	1308,65
474,79	1288,17
474,99	1322,99
475,19	1263,60
475,39	1304,56
475,60	1302,51
475,80	1304,56
476,00	1271,79
476,20	1214,45
476,41	1337,32
476,61	1378,28
476,81	1214,45
477,01	1320,94
477,21	1269,74
477,42	1320,94
477,62	1202,16
477,82	1239,02
478,02	1282,03
478,23	1304,56
478,43	1290,22
478,63	1218,54
478,83	1200,11
479,03	1220,59
479,24	1335,28
479,44	1210,35
479,64	1296,36
479,84	1337,32
480,04	1282,03
480,25	1249,26
480,45	1236,97
480,65	1247,21
480,85	1200,11
481,06	1241,07
481,26	1226,73
481,46	1239,02
481,66	1288,17
481,86	1241,07
482,06	1271,79
482,27	1261,55
482,47	1325,04
482,67	1271,79
482,87	1202,16
483,07	1263,60
483,28	1243,12
483,48	1255,40
483,68	1316,84
483,88	1284,08
484,08	1263,60
484,29	1290,22
484,49	1196,01
484,69	1269,74
484,89	1263,60
485,09	1306,60
485,29	1232,88
485,50	1288,17
485,70	1208,30
485,90	1267,69
486,10	1329,13
486,30	1261,55
486,50	1263,60
486,71	1239,02
486,91	1304,56
487,11	1331,18
487,31	1212,40
487,51	1286,12
487,71	1214,45
487,91	1261,55
488,12	1290,22
488,32	1300,46
488,52	1239,02
488,72	1263,60
488,92	1239,02
489,12	1218,54
489,32	1179,63
489,53	1261,55
489,73	1306,60
489,93	1245,16
490,13	1261,55
490,33	1284,08
490,53	1210,35
490,73	1245,16
490,94	1224,69
491,14	1304,56
491,34	1329,13
491,54	1202,16
491,74	1222,64
491,94	1284,08
492,14	1257,45
492,34	1220,59
492,54	1239,02
492,75	1290,22
492,95	1243,12
493,15	1257,45
493,35	1286,12
493,55	1298,41
493,75	1255,40
493,95	1286,12
494,15	1329,13
494,35	1370,09
494,56	1294,32
494,76	1263,60
494,96	1257,45
495,16	1243,12
495,36	1290,22
495,56	1257,45
495,76	1306,60
495,96	1294,32
496,16	1284,08
496,36	1236,97
496,56	1333,23
496,77	1259,50
496,97	1179,63
497,17	1245,16
497,37	1300,46
497,57	1343,47
497,77	1220,59
497,97	1279,98
498,17	1304,56
498,37	1284,08
498,57	1257,45
498,77	1284,08
498,97	1312,75
499,17	1247,21
499,38	1216,49
499,58	1298,41
499,78	1208,30
499,98	1257,45
500,18	1273,84
500,38	1198,06
500,58	1243,12
500,78	1286,12
500,98	1347,56
501,18	1296,36
501,38	1257,45
501,58	1249,26
501,78	1249,26
501,98	1245,16
502,18	1224,69
502,38	1239,02
502,58	1282,03
502,78	1345,52
502,98	1249,26
503,18	1322,99
503,38	1310,70
503,59	1222,64
503,79	1253,36
503,99	1329,13
504,19	1310,70
504,39	1335,28
504,59	1277,93
504,79	1351,66
504,99	1247,21
505,19	1228,78
505,39	1216,49
505,59	1282,03
505,79	1296,36
505,99	1253,36
506,19	1263,60
506,39	1243,12
506,59	1255,40
506,79	1257,45
506,99	1282,03
507,19	1329,13
507,39	1292,27
507,59	1251,31
507,79	1198,06
507,99	1279,98
508,19	1247,21
508,39	1277,93
508,59	1249,26
508,79	1288,17
508,99	1368,04
509,19	1316,84
509,39	1232,88
509,59	1269,74
509,79	1236,97
509,99	1253,36
510,19	1279,98
510,39	1273,84
510,59	1243,12
510,79	1298,41
510,99	1265,64
511,19	1222,64
511,39	1290,22
511,59	1239,02
511,79	1257,45
511,99	1310,70
512,19	1204,21
512,38	1286,12
512,58	1286,12
512,78	1263,60
512,98	1224,69
513,18	1216,49
513,38	1228,78
513,58	1314,80
513,78	1351,66
513,98	1298,41
514,18	1214,45
514,38	1273,84
514,58	1290,22
514,78	1236,97
514,98	1218,54
515,18	1273,84
515,38	1298,41
515,58	1294,32
515,78	1251,31
515,98	1228,78
516,18	1337,32
516,38	1245,16
516,57	1290,22
516,77	1259,50
516,97	1234,93
517,17	1222,64
517,37	1284,08
517,57	1312,75
517,77	1310,70
517,97	1304,56
518,17	1302,51
518,37	1306,60
518,57	1253,36
518,77	1267,69
518,97	1271,79
519,16	1314,80
519,36	1286,12
519,56	1191,92
519,76	1261,55
519,96	1206,25
520,16	1366,00
520,36	1189,87
520,56	1279,98
520,76	1253,36
520,96	1298,41
521,16	1308,65
521,35	1257,45
521,55	1296,36
521,75	1271,79
521,95	1292,27
522,15	1345,52
522,35	1171,44
522,55	1257,45
522,75	1232,88
522,95	1208,30
523,14	1245,16
523,34	1263,60
523,54	1306,60
523,74	1267,69
523,94	1325,04
524,14	1224,69
524,34	1304,56
524,54	1200,11
524,73	1230,83
524,93	1267,69
525,13	1255,40
525,33	1275,88
525,53	1304,56
525,73	1277,93
525,93	1363,95
526,13	1284,08
526,32	1347,56
526,52	1263,60
526,72	1322,99
526,92	1222,64
527,12	1306,60
527,32	1320,94
527,52	1310,70
527,71	1249,26
527,91	1312,75
528,11	1189,87
528,31	1236,97
528,51	1261,55
528,71	1239,02
528,90	1308,65
529,10	1257,45
529,30	1232,88
529,50	1241,07
529,70	1277,93
529,90	1269,74
530,09	1198,06
530,29	1234,93
530,49	1294,32
530,69	1265,64
530,89	1327,08
531,09	1310,70
531,28	1220,59
531,48	1232,88
531,68	1347,56
531,88	1316,84
532,08	1327,08
532,28	1363,95
532,47	1249,26
532,67	1275,88
532,87	1322,99
533,07	1263,60
533,27	1296,36
533,46	1298,41
533,66	1241,07
533,86	1288,17
534,06	1251,31
534,26	1290,22
534,45	1255,40
534,65	1320,94
534,85	1325,04
535,05	1228,78
535,25	1294,32
535,44	1265,64
535,64	1196,01
535,84	1339,37
536,04	1253,36
536,24	1222,64
536,43	1374,19
536,63	1245,16
536,83	1290,22
537,03	1232,88
537,22	1265,64
537,42	1243,12
537,62	1245,16
537,82	1265,64
538,02	1247,21
538,21	1341,42
538,41	1247,21
538,61	1306,60
538,81	1214,45
539,00	1271,79
539,20	1300,46
539,40	1243,12
539,60	1253,36
539,79	1308,65
539,99	1351,66
540,19	1218,54
540,39	1220,59
540,58	1245,16
540,78	1224,69
540,98	1288,17
541,18	1290,22
541,37	1320,94
541,57	1245,16
541,77	1263,60
541,97	1331,18
542,16	1310,70
542,36	1269,74
542,56	1247,21
542,76	1273,84
542,95	1245,16
543,15	1269,74
543,35	1222,64
543,54	1296,36
543,74	1284,08
543,94	1345,52
544,14	1249,26
544,33	1294,32
544,53	1312,75
544,73	1279,98
544,93	1261,55
545,12	1290,22
545,32	1273,84
545,52	1298,41
545,71	1263,60
545,91	1290,22
546,11	1275,88
546,30	1273,84
546,50	1257,45
546,70	1271,79
546,90	1271,79
547,09	1251,31
547,29	1322,99
547,49	1343,47
547,68	1298,41
547,88	1216,49
548,08	1304,56
548,27	1277,93
548,47	1226,73
548,67	1222,64
548,87	1306,60
549,06	1212,40
549,26	1232,88
549,46	1290,22
549,65	1245,16
549,85	1265,64
550,05	1277,93
550,24	1275,88
550,44	1296,36
550,64	1296,36
550,83	1320,94
551,03	1261,55
551,23	1265,64
551,42	1273,84
551,62	1243,12
551,82	1243,12
552,01	1314,80
552,21	1249,26
552,41	1239,02
552,60	1282,03
552,80	1290,22
553,00	1304,56
553,19	1339,37
553,39	1302,51
553,59	1265,64
553,78	1236,97
553,98	1249,26
554,17	1306,60
554,37	1290,22
554,57	1310,70
554,76	1263,60
554,96	1253,36
555,16	1210,35
555,35	1275,88
555,55	1279,98
555,75	1204,21
555,94	1310,70
556,14	1249,26
556,33	1306,60
556,53	1253,36
556,73	1331,18
556,92	1267,69
557,12	1294,32
557,32	1271,79
557,51	1298,41
557,71	1306,60
557,90	1275,88
558,10	1261,55
558,30	1277,93
558,49	1234,93
558,69	1288,17
558,88	1271,79
559,08	1290,22
559,28	1310,70
559,47	1300,46
559,67	1290,22
559,86	1282,03
560,06	1249,26
560,26	1273,84
560,45	1234,93
560,65	1308,65
560,84	1308,65
561,04	1202,16
561,24	1310,70
561,43	1257,45
561,63	1322,99
561,82	1282,03
562,02	1302,51
562,22	1208,30
562,41	1175,53
562,61	1259,50
562,80	1191,92
563,00	1275,88
563,19	1265,64
563,39	1298,41
563,59	1343,47
563,78	1247,21
563,98	1380,33
564,17	1273,84
564,37	1236,97
564,56	1361,90
564,76	1349,61
564,96	1236,97
565,15	1249,26
565,35	1318,89
565,54	1284,08
565,74	1316,84
565,93	1261,55
566,13	1253,36
566,32	1196,01
566,52	1292,27
566,71	1234,93
566,91	1298,41
567,11	1333,23
567,30	1245,16
567,50	1232,88
567,69	1380,33
567,89	1279,98
568,08	1216,49
568,28	1343,47
568,47	1294,32
568,67	1349,61
568,86	1273,84
569,06	1249,26
569,25	1187,82
569,45	1292,27
569,64	1241,07
569,84	1224,69
570,04	1261,55
570,23	1277,93
570,43	1294,32
570,62	1232,88
570,82	1251,31
571,01	1241,07
571,21	1265,64
571,40	1271,79
571,60	1320,94
571,79	1218,54
571,99	1318,89
572,18	1247,21
572,38	1265,64
572,57	1351,66
572,77	1265,64
572,96	1308,65
573,16	1284,08
573,35	1265,64
573,55	1232,88
573,74	1308,65
573,94	1259,50
574,13	1228,78
574,33	1351,66
574,52	1253,36
574,71	1327,08
574,91	1241,07
575,10	1247,21
575,30	1284,08
575,49	1339,37
575,69	1224,69
575,88	1236,97
576,08	1220,59
576,27	1314,80
576,47	1288,17
576,66	1265,64
576,86	1263,60
577,05	1306,60
577,25	1273,84
577,44	1335,28
577,64	1312,75
577,83	1249,26
578,02	1236,97
578,22	1232,88
578,41	1255,40
578,61	1310,70
578,80	1212,40
579,00	1300,46
579,19	1290,22
579,39	1302,51
579,58	1263,60
579,77	1175,53
579,97	1265,64
580,16	1282,03
580,36	1320,94
580,55	1277,93
580,75	1220,59
580,94	1318,89
581,13	1265,64
581,33	1239,02
581,52	1259,50
581,72	1267,69
581,91	1284,08
582,11	1210,35
582,30	1355,76
582,49	1279,98
582,69	1304,56
582,88	1245,16
583,08	1275,88
583,27	1284,08
583,47	1306,60
583,66	1298,41
583,85	1245,16
584,05	1279,98
584,24	1243,12
584,44	1331,18
584,63	1308,65
584,82	1265,64
585,02	1294,32
585,21	1247,21
585,41	1239,02
585,60	1265,64
585,79	1329,13
585,99	1224,69
586,18	1269,74
586,37	1327,08
586,57	1357,80
586,76	1267,69
586,96	1230,83
587,15	1236,97
587,34	1286,12
587,54	1306,60
587,73	1271,79
587,93	1232,88
588,12	1230,83
588,31	1277,93
588,51	1298,41
588,70	1263,60
588,89	1277,93
589,09	1292,27
589,28	1261,55
589,47	1255,40
589,67	1290,22
589,86	1300,46
590,06	1255,40
590,25	1306,60
590,44	1239,02
590,64	1226,73
590,83	1212,40
591,02	1273,84
591,22	1200,11
591,41	1259,50
591,60	1249,26
591,80	1331,18
591,99	1208,30
592,18	1241,07
592,38	1290,22
592,57	1286,12
592,76	1267,69
592,96	1265,64
593,15	1226,73
593,34	1249,26
593,54	1234,93
593,73	1302,51
593,92	1232,88
594,12	1312,75
594,31	1265,64
594,50	1331,18
594,70	1294,32
594,89	1320,94
595,08	1267,69
595,28	1349,61
595,47	1271,79
595,66	1255,40
595,86	1312,75
596,05	1241,07
596,24	1206,25
596,43	1298,41
596,63	1406,95
596,82	1222,64
597,01	1251,31
597,21	1333,23
597,40	1286,12
597,59	1290,22
597,79	1279,98
597,98	1322,99
598,17	1286,12
598,36	1292,27
598,56	1310,70
598,75	1257,45
598,94	1327,08
599,14	1245,16
599,33	1249,26
599,52	1300,46
599,71	1210,35
599,91	1267,69
600,10	1249,26
600,29	1243,12
600,48	1271,79
600,68	1232,88
600,87	1241,07
601,06	1251,31
601,26	1314,80
601,45	1284,08
601,64	1284,08
601,83	1306,60
602,03	1329,13
602,22	1236,97
602,41	1282,03
602,60	1329,13
602,80	1288,17
602,99	1316,84
603,18	1261,55
603,37	1271,79
603,57	1275,88
603,76	1259,50
603,95	1290,22
604,14	1310,70
604,34	1253,36
604,53	1308,65
604,72	1337,32
604,91	1257,45
605,10	1247,21
605,30	1306,60
605,49	1245,16
605,68	1263,60
605,87	1263,60
606,07	1304,56
606,26	1269,74
606,45	1316,84
606,64	1234,93
606,84	1265,64
607,03	1247,21
607,22	1257,45
607,41	1302,51
607,60	1249,26
607,80	1259,50
607,99	1230,83
608,18	1243,12
608,37	1269,74
608,56	1245,16
608,76	1343,47
608,95	1249,26
609,14	1302,51
609,33	1261,55
609,52	1290,22
609,72	1253,36
609,91	1249,26
610,10	1304,56
610,29	1265,64
610,48	1273,84
610,68	1292,27
610,87	1253,36
611,06	1292,27
611,25	1226,73
611,44	1257,45
611,63	1273,84
611,83	1314,80
612,02	1296,36
612,21	1271,79
612,40	1236,97
612,59	1306,60
612,79	1243,12
612,98	1314,80
613,17	1257,45
613,36	1322,99
613,55	1216,49
613,74	1314,80
613,93	1302,51
614,13	1249,26
614,32	1208,30
614,51	1267,69
614,70	1206,25
614,89	1220,59
615,08	1275,88
615,28	1302,51
615,47	1230,83
615,66	1304,56
615,85	1310,70
616,04	1282,03
616,23	1230,83
616,42	1245,16
616,62	1257,45
616,81	1290,22
617,00	1228,78
617,19	1343,47
617,38	1298,41
617,57	1282,03
617,76	1318,89
617,95	1325,04
618,15	1288,17
618,34	1337,32
618,53	1200,11
618,72	1249,26
618,91	1220,59
619,10	1214,45
619,29	1282,03
619,48	1239,02
619,68	1263,60
619,87	1279,98
620,06	1314,80
620,25	1345,52
620,44	1347,56
620,63	1232,88
620,82	1282,03
621,01	1253,36
621,20	1236,97
621,39	1271,79
621,59	1300,46
621,78	1290,22
621,97	1253,36
622,16	1241,07
622,35	1331,18
622,54	1236,97
622,73	1267,69
622,92	1378,28
623,11	1290,22
623,30	1290,22
623,49	1279,98
623,68	1329,13
623,88	1269,74
624,07	1310,70
624,26	1228,78
624,45	1292,27
624,64	1304,56
624,83	1228,78
625,02	1288,17
625,21	1331,18
625,40	1269,74
625,59	1290,22
625,78	1255,40
625,97	1279,98
626,16	1257,45
626,35	1296,36
626,54	1247,21
626,74	1347,56
626,93	1284,08
627,12	1310,70
627,31	1341,42
627,50	1273,84
627,69	1339,37
627,88	1288,17
628,07	1298,41
628,26	1255,40
628,45	1265,64
628,64	1279,98
628,83	1318,89
629,02	1279,98
629,21	1347,56
629,40	1271,79
629,59	1314,80
629,78	1277,93
629,97	1275,88
630,16	1232,88
630,35	1308,65
630,54	1290,22
630,73	1257,45
630,92	1255,40
631,11	1228,78
631,30	1339,37
631,49	1318,89
631,68	1386,47
631,87	1695,72
632,06	2713,56
632,25	2099,17
632,44	2154,46
632,63	2975,70
632,82	5676,97
633,01	7495,57
633,20	9348,98
633,39	8998,77
633,58	10536,80
633,77	11917,13
633,96	16670,47
634,15	31987,22
634,34	41074,06
634,53	35444,20
634,72	26308,21
634,91	18278,12
635,10	12123,98
635,29	7665,55
635,48	5056,43
635,67	3774,41
635,86	2688,98
636,05	2015,20
636,24	1529,83
636,43	1468,39
636,62	1382,38
636,81	1316,84
637,00	1382,38
637,19	1392,62
637,38	1357,80
637,57	1275,88
637,76	1300,46
637,95	1343,47
638,14	1331,18
638,33	1384,43
638,52	1314,80
638,71	1263,60
638,89	1273,84
639,08	1294,32
639,27	1325,04
639,46	1333,23
639,65	1269,74
639,84	1290,22
640,03	1208,30
640,22	1284,08
640,41	1273,84
640,60	1314,80
640,79	1277,93
640,98	1245,16
641,17	1286,12
641,36	1261,55
641,55	1284,08
641,74	1320,94
641,92	1226,73
642,11	1366,00
642,30	1282,03
642,49	1267,69
642,68	1277,93
642,87	1290,22
643,06	1361,90
643,25	1296,36
643,44	1366,00
643,63	1302,51
643,82	1275,88
644,00	1247,21
644,19	1312,75
644,38	1279,98
644,57	1236,97
644,76	1322,99
644,95	1298,41
645,14	1275,88
645,33	1294,32
645,52	1292,27
645,71	1245,16
645,89	1236,97
646,08	1275,88
646,27	1267,69
646,46	1366,00
646,65	1259,50
646,84	1257,45
647,03	1294,32
647,22	1259,50
647,40	1200,11
647,59	1296,36
647,78	1234,93
647,97	1331,18
648,16	1253,36
648,35	1286,12
648,54	1296,36
648,73	1284,08
648,91	1251,31
649,10	1296,36
649,29	1304,56
649,48	1247,21
649,67	1263,60
649,86	1322,99
650,05	1277,93
650,23	1300,46
650,42	1271,79
650,61	1294,32
650,80	1288,17
650,99	1282,03
651,18	1234,93
651,36	1318,89
651,55	1271,79
651,74	1263,60
651,93	1331,18
652,12	1312,75
652,31	1247,21
652,49	1196,01
652,68	1204,21
652,87	1304,56
653,06	1345,52
653,25	1284,08
653,44	1245,16
653,62	1339,37
653,81	1259,50
654,00	1314,80
654,19	1347,56
654,38	1253,36
654,56	1245,16
654,75	1286,12
654,94	1279,98
655,13	1277,93
655,32	1265,64
655,51	1333,23
655,69	1273,84
655,88	1251,31
656,07	1267,69
656,26	1386,47
656,45	1265,64
656,63	1234,93
656,82	1286,12
657,01	1282,03
657,20	1273,84
657,38	1259,50
657,57	1335,28
657,76	1206,25
657,95	1273,84
658,14	1312,75
658,32	1259,50
658,51	1284,08
658,70	1232,88
658,89	1232,88
659,08	1241,07
659,26	1314,80
659,45	1259,50
659,64	1339,37
659,83	1316,84
660,01	1357,80
660,20	1286,12
660,39	1226,73
660,58	1314,80
660,76	1382,38
660,95	1372,14
661,14	1239,02
661,33	1212,40
661,51	1380,33
661,70	1218,54
661,89	1230,83
662,08	1308,65
662,26	1222,64
662,45	1279,98
662,64	1351,66
662,83	1273,84
663,01	1259,50
663,20	1296,36
663,39	1269,74
663,58	1224,69
663,76	1273,84
663,95	1265,64
664,14	1198,06
664,32	1370,09
664,51	1259,50
664,70	1259,50
664,89	1312,75
665,07	1361,90
665,26	1349,61
665,45	1279,98
665,64	1300,46
665,82	1236,97
666,01	1226,73
666,20	1257,45
666,38	1300,46
666,57	1267,69
666,76	1271,79
666,95	1292,27
667,13	1359,85
667,32	1314,80
667,51	1306,60
667,69	1310,70
667,88	1294,32
668,07	1232,88
668,25	1277,93
668,44	1310,70
668,63	1288,17
668,81	1193,97
669,00	1306,60
669,19	1282,03
669,38	1247,21
669,56	1306,60
669,75	1249,26
669,94	1267,69
670,12	1320,94
670,31	1224,69
670,50	1277,93
670,68	1284,08
670,87	1318,89
671,06	1300,46
671,24	1247,21
671,43	1296,36
671,62	1265,64
671,80	1255,40
671,99	1245,16
672,18	1261,55
672,36	1265,64
672,55	1234,93
672,74	1318,89
672,92	1224,69
673,11	1210,35
673,29	1265,64
673,48	1304,56
673,67	1343,47
673,85	1347,56
674,04	1271,79
674,23	1255,40
674,41	1275,88
674,60	1239,02
674,79	1251,31
674,97	1265,64
675,16	1265,64
675,34	1267,69
675,53	1245,16
675,72	1255,40
675,90	1241,07
676,09	1290,22
676,28	1243,12
676,46	1249,26
676,65	1273,84
676,83	1196,01
677,02	1300,46
677,21	1304,56
677,39	1329,13
677,58	1277,93
677,77	1282,03
677,95	1249,26
678,14	1300,46
678,32	1269,74
678,51	1304,56
678,70	1265,64
678,88	1253,36
679,07	1239,02
679,25	1232,88
679,44	1277,93
679,63	1257,45
679,81	1265,64
680,00	1294,32
680,18	1290,22
680,37	1322,99
680,55	1236,97
680,74	1234,93
680,93	1267,69
681,11	1257,45
681,30	1261,55
681,48	1259,50
681,67	1255,40
681,85	1185,77
682,04	1294,32
682,23	1255,40
682,41	1290,22
682,60	1226,73
682,78	1279,98
682,97	1183,73
683,15	1185,77
683,34	1320,94
683,53	1273,84
683,71	1271,79
683,90	1351,66
684,08	1279,98
684,27	1294,32
684,45	1249,26
684,64	1247,21
684,82	1314,80
685,01	1294,32
685,19	1341,42
685,38	1306,60
685,57	1273,84
685,75	1290,22
685,94	1263,60
686,12	1355,76
686,31	1269,74
686,49	1290,22
686,68	1243,12
686,86	1206,25
687,05	1331,18
687,23	1314,80
687,42	1241,07
687,60	1263,60
687,79	1241,07
687,97	1304,56
688,16	1320,94
688,34	1255,40
688,53	1343,47
688,71	1288,17
688,90	1249,26
689,08	1279,98
689,27	1286,12
689,45	1236,97
689,64	1181,68
689,82	1228,78
690,01	1300,46
690,19	1282,03
690,38	1269,74
690,56	1273,84
690,75	1191,92
690,93	1251,31
691,12	1175,53
691,30	1255,40
691,49	1296,36
691,67	1370,09
691,86	1249,26
692,04	1230,83
692,23	1308,65
692,41	1226,73
692,60	1302,51
692,78	1286,12
692,97	1265,64
693,15	1247,21
693,34	1241,07
693,52	1314,80
693,71	1269,74
693,89	1298,41
694,08	1302,51
694,26	1320,94
694,44	1271,79
694,63	1302,51
694,81	1318,89
695,00	1263,60
695,18	1236,97
695,37	1304,56
695,55	1286,12
695,74	1234,93
695,92	1279,98
696,10	1249,26
696,29	1273,84
696,47	1261,55
696,66	1359,85
696,84	1320,94
697,03	1173,49
697,21	1279,98
697,40	1316,84
697,58	1232,88
697,76	1314,80
697,95	1259,50
698,13	1243,12
698,32	1267,69
698,50	1355,76
698,68	1269,74
698,87	1290,22
699,05	1288,17
699,24	1253,36
699,42	1300,46
699,61	1310,70
699,79	1294,32
699,97	1339,37
700,16	1318,89
700,34	1296,36
700,53	1171,44
700,71	1236,97
700,89	1304,56
701,08	1224,69
701,26	1239,02
701,45	1327,08
701,63	1282,03
701,81	1304,56
702,00	1302,51
702,18	1267,69
702,37	1265,64
702,55	1253,36
702,73	1292,27
702,92	1269,74
703,10	1271,79
703,28	1267,69
703,47	1247,21
703,65	1290,22
703,84	1327,08
704,02	1241,07
704,20	1265,64
704,39	1255,40
704,57	1257,45
704,75	1273,84
704,94	1232,88
705,12	1263,60
705,30	1282,03
705,49	1355,76
705,67	1241,07
705,86	1261,55
706,04	1282,03
706,22	1282,03
706,41	1271,79
706,59	1339,37
706,77	1288,17
706,96	1265,64
707,14	1224,69
707,32	1220,59
707,51	1320,94
707,69	1245,16
707,87	1218,54
708,06	1263,60
708,24	1239,02
708,42	1187,82
708,61	1322,99
708,79	1261,55
708,97	1316,84
709,16	1243,12
709,34	1273,84
709,52	1249,26
709,71	1265,64
709,89	1257,45
710,07	1275,88
710,26	1216,49
710,44	1249,26
710,62	1273,84
710,80	1308,65
710,99	1331,18
711,17	1288,17
711,35	1302,51
711,54	1282,03
711,72	1284,08
711,90	1269,74
712,09	1251,31
712,27	1261,55
712,45	1302,51
712,63	1202,16
712,82	1247,21
713,00	1310,70
713,18	1228,78
713,37	1259,50
713,55	1331,18
713,73	1255,40
713,91	1263,60
714,10	1286,12
714,28	1239,02
714,46	1269,74
714,65	1288,17
714,83	1294,32
715,01	1275,88
715,19	1275,88
715,38	1275,88
715,56	1294,32
715,74	1210,35
715,92	1300,46
716,11	1230,83
716,29	1261,55
716,47	1206,25
716,65	1269,74
716,84	1232,88
717,02	1253,36
717,20	1224,69
717,38	1347,56
717,57	1286,12
717,75	1308,65
717,93	1232,88
718,11	1298,41
718,30	1349,61
718,48	1316,84
718,66	1310,70
718,84	1337,32
719,03	1245,16
719,21	1312,75
719,39	1304,56
719,57	1292,27
719,75	1187,82
719,94	1347,56
720,12	1277,93
720,30	1255,40
720,48	1316,84
720,67	1216,49
720,85	1308,65
721,03	1193,97
721,21	1302,51
721,39	1363,95
721,58	1273,84
721,76	1318,89
721,94	1226,73
722,12	1304,56
722,30	1222,64
722,49	1265,64
722,67	1284,08
722,85	1251,31
723,03	1271,79
723,21	1216,49
723,40	1255,40
723,58	1273,84
723,76	1286,12
723,94	1318,89
724,12	1290,22
724,30	1284,08
724,49	1265,64
724,67	1279,98
724,85	1234,93
725,03	1247,21
725,21	1286,12
725,40	1230,83
725,58	1198,06
725,76	1282,03
725,94	1232,88
726,12	1282,03
726,30	1257,45
726,49	1282,03
726,67	1220,59
726,85	1316,84
727,03	1331,18
727,21	1220,59
727,39	1294,32
727,57	1265,64
727,76	1249,26
727,94	1294,32
728,12	1288,17
728,30	1241,07
728,48	1298,41
728,66	1302,51
728,84	1318,89
729,03	1261,55
729,21	1208,30
729,39	1263,60
729,57	1259,50
729,75	1243,12
729,93	1298,41
730,11	1318,89
730,30	1339,37
730,48	1259,50
730,66	1271,79
730,84	1216,49
731,02	1257,45
731,20	1245,16
731,38	1273,84
731,56	1245,16
731,74	1214,45
731,93	1292,27
732,11	1279,98
732,29	1267,69
732,47	1292,27
732,65	1251,31
732,83	1288,17
733,01	1318,89
733,19	1290,22
733,37	1214,45
733,56	1329,13
733,74	1298,41
733,92	1249,26
734,10	1236,97
734,28	1232,88
734,46	1284,08
734,64	1239,02
734,82	1202,16
735,00	1296,36
735,18	1361,90
735,36	1312,75
735,54	1347,56
735,73	1241,07
735,91	1312,75
736,09	1253,36
736,27	1216,49
736,45	1333,23
736,63	1241,07
736,81	1269,74
736,99	1265,64
737,17	1288,17
737,35	1304,56
737,53	1282,03
737,71	1253,36
737,89	1230,83
738,07	1251,31
738,25	1200,11
738,43	1253,36
738,61	1208,30
738,80	1273,84
738,98	1261,55
739,16	1304,56
739,34	1288,17
739,52	1279,98
739,70	1290,22
739,88	1308,65
740,06	1208,30
740,24	1257,45
740,42	1282,03
740,60	1200,11
740,78	1292,27
740,96	1273,84
741,14	1314,80
741,32	1255,40
741,50	1290,22
741,68	1169,39
741,86	1218,54
742,04	1271,79
742,22	1247,21
742,40	1191,92
742,58	1265,64
742,76	1265,64
742,94	1288,17
743,12	1247,21
743,30	1251,31
743,48	1279,98
743,66	1368,04
743,84	1279,98
744,02	1331,18
744,20	1261,55
744,38	1236,97
744,56	1228,78
744,74	1296,36
744,92	1325,04
745,10	1204,21
745,28	1255,40
745,46	1298,41
745,64	1275,88
745,82	1290,22
746,00	1347,56
746,18	1300,46
746,36	1316,84
746,54	1206,25
746,72	1234,93
746,90	1214,45
747,08	1284,08
747,26	1343,47
747,44	1269,74
747,62	1282,03
747,80	1275,88
747,98	1241,07
748,15	1282,03
748,33	1290,22
748,51	1298,41
748,69	1298,41
748,87	1239,02
749,05	1320,94
749,23	1290,22
749,41	1300,46
749,59	1312,75
749,77	1339,37
749,95	1263,60
750,13	1247,21
750,31	1212,40
750,49	1245,16
750,67	1265,64
750,85	1253,36
751,03	1259,50
751,20	1257,45
751,38	1263,60
751,56	1263,60
751,74	1269,74
751,92	1290,22
752,10	1257,45
752,28	1181,68
752,46	1257,45
752,64	1304,56
752,82	1292,27
753,00	1273,84
753,18	1318,89
753,35	1224,69
753,53	1193,97
753,71	1322,99
753,89	1232,88
754,07	1181,68
754,25	1290,22
754,43	1279,98
754,61	1269,74
754,79	1320,94
754,97	1339,37
755,14	1218,54
755,32	1257,45
755,50	1236,97
755,68	1314,80
755,86	1245,16
756,04	1294,32
756,22	1249,26
756,40	1329,13
756,57	1308,65
756,75	1265,64
756,93	1320,94
757,11	1271,79
757,29	1259,50
757,47	1275,88
757,65	1290,22
757,82	1300,46
758,00	1267,69
758,18	1247,21
758,36	1343,47
758,54	1224,69
758,72	1327,08
758,90	1339,37
759,07	1234,93
759,25	1286,12
759,43	1312,75
759,61	1298,41
759,79	1304,56
759,97	1228,78
760,15	1257,45
760,32	1251,31
760,50	1216,49
760,68	1261,55
760,86	1216,49
761,04	1310,70
761,22	1302,51
761,39	1273,84
761,57	1271,79
761,75	1304,56
761,93	1232,88
762,11	1271,79
762,28	1226,73
762,46	1269,74
762,64	1277,93
762,82	1222,64
763,00	1325,04
763,18	1200,11
763,35	1259,50
763,53	1251,31
763,71	1275,88
763,89	1257,45
764,07	1286,12
764,24	1224,69
764,42	1345,52
764,60	1216,49
764,78	1275,88
764,96	1241,07
765,13	1275,88
765,31	1277,93
765,49	1249,26
765,67	1310,70
765,84	1269,74
766,02	1243,12
766,20	1257,45
766,38	1296,36
766,56	1255,40
766,73	1263,60
766,91	1224,69
767,09	1325,04
767,27	1208,30
767,44	1267,69
767,62	1282,03
767,80	1306,60
767,98	1312,75
768,15	1271,79
768,33	1290,22
768,51	1236,97
768,69	1275,88
768,87	1294,32
769,04	1376,24
769,22	1269,74
769,40	1298,41
769,58	1282,03
769,75	1273,84
769,93	1306,60
770,11	1243,12
770,28	1259,50
770,46	1185,77
770,64	1251,31
770,82	1306,60
770,99	1292,27
771,17	1247,21
771,35	1304,56
771,53	1253,36
771,70	1290,22
771,88	1261,55
772,06	1263,60
772,23	1222,64
772,41	1212,40
772,59	1304,56
772,77	1206,25
772,94	1380,33
773,12	1245,16
773,30	1263,60
773,47	1290,22
773,65	1314,80
773,83	1316,84
774,01	1302,51
774,18	1214,45
774,36	1294,32
774,54	1322,99
774,71	1306,60
774,89	1312,75
775,07	1294,32
775,24	1253,36
775,42	1241,07
775,60	1261,55
775,78	1230,83
775,95	1310,70
776,13	1243,12
776,31	1294,32
776,48	1306,60
776,66	1265,64
776,84	1308,65
777,01	1333,23
777,19	1286,12
777,37	1239,02
777,54	1220,59
777,72	1329,13
777,90	1279,98
778,07	1282,03
778,25	1312,75
778,43	1265,64
778,60	1214,45
778,78	1341,42
778,96	1269,74
779,13	1265,64
779,31	1300,46
779,49	1296,36
779,66	1296,36
779,84	1247,21
780,01	1267,69
780,19	1353,71
780,37	1216,49
780,54	1263,60
780,72	1282,03
780,90	1267,69
781,07	1189,87
781,25	1263,60
781,43	1296,36
781,60	1310,70
781,78	1296,36
781,95	1288,17
782,13	1279,98
782,31	1345,52
782,48	1333,23
782,66	1296,36
782,83	1300,46
783,01	1239,02
783,19	1273,84
783,36	1304,56
783,54	1296,36
783,72	1353,71
783,89	1263,60
784,07	1232,88
784,24	1253,36
784,42	1329,13
784,60	1331,18
784,77	1243,12
784,95	1251,31
785,12	1298,41
785,30	1269,74
785,47	1273,84
785,65	1241,07
785,83	1269,74
786,00	1355,76
786,18	1265,64
786,35	1279,98
786,53	1263,60
786,71	1304,56
786,88	1290,22
787,06	1222,64
787,23	1232,88
787,41	1241,07
787,58	1359,85
787,76	1253,36
787,94	1296,36
788,11	1236,97
788,29	1378,28
788,46	1339,37
788,64	1267,69
788,81	1265,64
788,99	1196,01
789,16	1243,12
789,34	1269,74
789,52	1249,26
789,69	1239,02
789,87	1271,79
790,04	1247,21
790,22	1302,51
790,39	1200,11
790,57	1271,79
790,74	1234,93
790,92	1279,98
791,09	1273,84
791,27	1345,52
791,44	1273,84
791,62	1249,26
791,79	1253,36
791,97	1292,27
792,15	1241,07
792,32	1253,36
792,50	1288,17
792,67	1294,32
792,85	1347,56
793,02	1249,26
793,20	1247,21
793,37	1277,93
793,55	1302,51
793,72	1349,61
793,90	1271,79
794,07	1243,12
794,25	1249,26
794,42	1249,26
794,60	1241,07
794,77	1232,88
794,95	1255,40
795,12	1249,26
795,30	1318,89
795,47	1279,98
795,65	1331,18
795,82	1308,65
796,00	1300,46
796,17	1167,34
796,34	1288,17
796,52	1294,32
796,69	1218,54
796,87	1320,94
797,04	1263,60
797,22	1259,50
797,39	1279,98
797,57	1282,03
797,74	1259,50
797,92	1249,26
798,09	1333,23
798,27	1279,98
798,44	1212,40
798,62	1277,93
798,79	1290,22
798,96	1265,64
799,14	1290,22
799,31	1320,94
799,49	1386,47
799,66	1290,22
799,84	1239,02
800,01	1241,07
800,19	1267,69
800,36	1265,64
800,53	1261,55
800,71	1277,93
800,88	1304,56
801,06	1243,12
801,23	1265,64
801,41	1212,40
801,58	1243,12
801,75	1241,07
801,93	1347,56
802,10	1249,26
802,28	1251,31
802,45	1243,12
802,63	1279,98
802,80	1232,88
802,97	1306,60
803,15	1269,74
803,32	1228,78
803,50	1241,07
803,67	1288,17
803,84	1249,26
804,02	1286,12
804,19	1259,50
804,37	1331,18
804,54	1247,21
804,71	1288,17
804,89	1265,64
805,06	1216,49
805,24	1226,73
805,41	1290,22
805,58	1243,12
805,76	1290,22
805,93	1273,84
806,10	1298,41
806,28	1259,50
806,45	1331,18
806,63	1279,98
806,80	1275,88
806,97	1284,08
807,15	1294,32
807,32	1282,03
807,49	1392,62
807,67	1269,74
807,84	1314,80
808,01	1220,59
808,19	1306,60
808,36	1232,88
808,54	1296,36
808,71	1329,13
808,88	1224,69
809,06	1183,73
809,23	1212,40
809,40	1212,40
809,58	1294,32
809,75	1337,32
809,92	1294,32
810,10	1298,41
810,27	1335,28
810,44	1226,73
810,62	1249,26
810,79	1298,41
810,96	1306,60
811,14	1265,64
811,31	1341,42
811,48	1290,22
811,66	1273,84
811,83	1284,08
812,00	1273,84
812,18	1234,93
812,35	1279,98
812,52	1304,56
812,69	1263,60
812,87	1245,16
813,04	1329,13
813,21	1327,08
813,39	1282,03
813,56	1312,75
813,73	1273,84
813,91	1314,80
814,08	1286,12
814,25	1292,27
814,42	1239,02
814,60	1273,84
814,77	1253,36
814,94	1284,08
815,12	1259,50
815,29	1251,31
815,46	1265,64
815,63	1316,84
815,81	1282,03
815,98	1198,06
816,15	1263,60
816,33	1245,16
816,50	1206,25
816,67	1279,98
816,84	1208,30
817,02	1249,26
817,19	1294,32
817,36	1193,97
817,53	1329,13
817,71	1288,17
817,88	1241,07
818,05	1234,93
818,22	1214,45
818,40	1259,50
818,57	1239,02
818,74	1304,56
818,91	1220,59
819,09	1212,40
819,26	1288,17
819,43	1286,12
819,60	1310,70
819,78	1216,49
819,95	1296,36
820,12	1220,59
820,29	1302,51
820,47	1320,94
820,64	1257,45
820,81	1249,26
820,98	1279,98
821,15	1284,08
821,33	1263,60
821,50	1196,01
821,67	1308,65
821,84	1259,50
822,02	1226,73
822,19	1263,60
822,36	1232,88
822,53	1327,08
822,70	1198,06
822,88	1269,74
823,05	1267,69
823,22	1271,79
823,39	1286,12
823,56	1245,16
823,74	1275,88
823,91	1208,30
824,08	1241,07
824,25	1226,73
824,42	1257,45
824,60	1286,12
824,77	1300,46
824,94	1261,55
825,11	1204,21
825,28	1243,12
825,45	1325,04
825,63	1251,31
825,80	1267,69
825,97	1236,97
826,14	1322,99
826,31	1218,54
826,48	1286,12
826,66	1312,75
826,83	1275,88
827,00	1224,69
827,17	1261,55
827,34	1288,17
827,51	1265,64
827,69	1282,03
827,86	1208,30
828,03	1243,12
828,20	1214,45
828,37	1259,50
828,54	1271,79
828,71	1214,45
828,89	1331,18
829,06	1247,21
829,23	1312,75
829,40	1296,36
829,57	1241,07
829,74	1228,78
829,91	1327,08
830,09	1249,26
830,26	1277,93
830,43	1329,13
830,60	1284,08
830,77	1212,40
830,94	1290,22
831,11	1284,08
831,28	1263,60
831,46	1314,80
831,63	1325,04
831,80	1322,99
831,97	1216,49
832,14	1275,88
832,31	1345,52
832,48	1220,59
832,65	1265,64
832,82	1228,78
832,99	1236,97
833,17	1247,21
833,34	1269,74
833,51	1212,40
833,68	1267,69
833,85	1316,84
834,02	1320,94
834,19	1253,36
834,36	1259,50
834,53	1261,55
834,70	1263,60
834,87	1327,08
835,04	1298,41
835,22	1318,89
835,39	1318,89
835,56	1265,64
835,73	1312,75
835,90	1271,79
836,07	1282,03
836,24	1216,49
836,41	1261,55
836,58	1220,59
836,75	1271,79
836,92	1327,08
837,09	1320,94
837,26	1259,50
837,43	1245,16
837,60	1247,21
837,77	1259,50
837,94	1325,04
838,12	1286,12
838,29	1292,27
838,46	1243,12
838,63	1269,74
838,80	1222,64
838,97	1253,36
839,14	1284,08
839,31	1331,18
839,48	1296,36
839,65	1236,97
839,82	1255,40
839,99	1312,75
840,16	1206,25
840,33	1302,51
840,50	1232,88
840,67	1271,79
840,84	1245,16
841,01	1318,89
841,18	1302,51
841,35	1210,35
841,52	1271,79
841,69	1271,79
841,86	1322,99
842,03	1286,12
842,20	1288,17
842,37	1302,51
842,54	1316,84
842,71	1306,60
842,88	1300,46
843,05	1275,88
843,22	1282,03
843,39	1290,22
843,56	1239,02
843,73	1327,08
843,90	1212,40
844,07	1271,79
844,24	1306,60
844,41	1267,69
844,58	1267,69
844,75	1282,03
844,92	1261,55
845,09	1310,70
845,26	1288,17
845,43	1265,64
845,60	1214,45
845,77	1226,73
845,94	1241,07
846,10	1243,12
846,27	1304,56
846,44	1343,47
846,61	1271,79
846,78	1329,13
846,95	1310,70
847,12	1275,88
847,29	1185,77
847,46	1275,88
847,63	1279,98
847,80	1249,26
847,97	1282,03
848,14	1331,18
848,31	1247,21
848,48	1222,64
848,65	1300,46
848,82	1271,79
848,98	1230,83
849,15	1241,07
849,32	1241,07
849,49	1296,36
849,66	1363,95
849,83	1292,27
850,00	1167,34
850,17	1277,93
850,34	1314,80
850,51	1269,74
850,68	1286,12
850,85	1245,16
851,01	1189,87
851,18	1322,99
851,35	1269,74
851,52	1294,32
851,69	1306,60
851,86	1245,16
852,03	1286,12
852,20	1304,56
852,37	1263,60
852,53	1228,78
852,70	1277,93
852,87	1253,36
853,04	1359,85
853,21	1249,26
853,38	1249,26
853,55	1286,12
853,72	1206,25
853,89	1353,71
854,05	1292,27
854,22	1253,36
854,39	1290,22
854,56	1292,27
854,73	1273,84
854,90	1306,60
855,07	1279,98
855,23	1245,16
855,40	1255,40
855,57	1214,45
855,74	1290,22
855,91	1294,32
856,08	1290,22
856,25	1277,93
856,41	1327,08
856,58	1331,18
856,75	1318,89
856,92	1261,55
857,09	1275,88
857,26	1241,07
857,42	1265,64
857,59	1208,30
857,76	1298,41
857,93	1253,36
858,10	1261,55
858,27	1210,35
858,43	1288,17
858,60	1310,70
858,77	1155,05
858,94	1208,30
859,11	1363,95
859,27	1265,64
859,44	1251,31
859,61	1239,02
859,78	1273,84
859,95	1265,64
860,12	1257,45
860,28	1263,60
860,45	1275,88
860,62	1216,49
860,79	1265,64
860,95	1286,12
861,12	1335,28
861,29	1228,78
861,46	1273,84
861,63	1255,40
861,79	1267,69
861,96	1269,74
862,13	1241,07
862,30	1253,36
862,47	1347,56
862,63	1277,93
862,80	1331,18
862,97	1296,36
863,14	1325,04
863,30	1271,79
863,47	1249,26
863,64	1273,84
863,81	1271,79
863,97	1265,64
864,14	1255,40
864,31	1189,87
864,48	1255,40
864,65	1273,84
864,81	1243,12
864,98	1286,12
865,15	1296,36
865,32	1308,65
865,48	1265,64
865,65	1275,88
865,82	1292,27
865,98	1339,37
866,15	1284,08
866,32	1306,60
866,49	1310,70
866,65	1273,84
866,82	1284,08
866,99	1222,64
867,16	1257,45
867,32	1265,64
867,49	1304,56
867,66	1245,16
867,83	1273,84
867,99	1243,12
868,16	1337,32
868,33	1269,74
868,49	1279,98
868,66	1288,17
868,83	1275,88
868,99	1232,88
869,16	1327,08
869,33	1265,64
869,50	1308,65
869,66	1269,74
869,83	1290,22
870,00	1312,75
870,16	1320,94
870,33	1294,32
870,50	1275,88
870,66	1284,08
870,83	1212,40
871,00	1216,49
871,17	1277,93
871,33	1224,69
871,50	1239,02
871,67	1224,69
871,83	1204,21
872,00	1243,12
872,17	1310,70
872,33	1316,84
872,50	1200,11
872,67	1239,02
872,83	1282,03
873,00	1335,28
873,17	1269,74
873,33	1333,23
873,50	1271,79
873,67	1220,59
873,83	1298,41
874,00	1265,64
874,16	1243,12
874,33	1245,16
874,50	1339,37
874,66	1327,08
874,83	1226,73
875,00	1329,13
875,16	1271,79
875,33	1306,60
875,50	1189,87
875,66	1216,49
875,83	1214,45
875,99	1259,50
876,16	1265,64
876,33	1284,08
876,49	1284,08
876,66	1314,80
876,83	1236,97
876,99	1271,79
877,16	1230,83
877,32	1267,69
877,49	1269,74
877,66	1306,60
877,82	1261,55
877,99	1286,12
878,15	1327,08
878,32	1273,84
878,49	1224,69
878,65	1175,53
878,82	1284,08
878,98	1355,76
879,15	1316,84
879,32	1286,12
879,48	1247,21
879,65	1310,70
879,81	1290,22
879,98	1282,03
880,15	1206,25
880,31	1224,69
880,48	1267,69
880,64	1228,78
880,81	1222,64
880,97	1245,16
881,14	1255,40
881,31	1247,21
881,47	1292,27
881,64	1316,84
881,80	1300,46
881,97	1331,18
882,13	1277,93
882,30	1253,36
882,47	1189,87
882,63	1234,93
882,80	1331,18
882,96	1277,93
883,13	1310,70
883,29	1282,03
883,46	1265,64
883,62	1210,35
883,79	1263,60
883,95	1277,93
884,12	1306,60
884,29	1265,64
884,45	1286,12
884,62	1284,08
884,78	1271,79
884,95	1290,22
885,11	1230,83
885,28	1282,03
885,44	1249,26
885,61	1253,36
885,77	1302,51
885,94	1236,97
886,10	1236,97
886,27	1259,50
886,43	1243,12
886,60	1349,61
886,76	1236,97
886,93	1288,17
887,09	1312,75
887,26	1263,60
887,42	1241,07
887,59	1298,41
887,75	1290,22
887,92	1288,17
888,08	1267,69
888,25	1273,84
888,41	1200,11
888,58	1247,21
888,74	1296,36
888,91	1228,78
>>>>>End Processed Spectral Data<<<<<
