SpectraSuite Data File
++++++++++++++++++++++++++++++++++++
Date: Sun Apr 03 17:20:04 CEST 2016
User: root
Dark Spectrum Present: No
Reference Spectrum Present: No
Number of Sampled Component Spectra: 1
Spectrometers: USB4C02835
Integration Time (usec): 10000 (USB4C02835)
Spectra Averaged: 1 (USB4C02835)
Boxcar Smoothing: 0 (USB4C02835)
Correct for Electrical Dark: No (USB4C02835)
Strobe/Lamp Enabled: No (USB4C02835)
Correct for Detector Non-linearity: No (USB4C02835)
Correct for Stray Light: No (USB4C02835)
Number of Pixels in Processed Spectrum: 3648
>>>>>Begin Processed Spectral Data<<<<<
177,47	1253,36
177,69	1253,36
177,91	1253,36
178,13	1339,37
178,36	1253,36
178,58	1220,59
178,80	1284,08
179,02	1228,78
179,24	1216,49
179,46	1308,65
179,68	1249,26
179,90	1261,55
180,13	1292,27
180,35	1210,35
180,57	1294,32
180,79	1214,45
181,01	1245,16
181,23	1378,28
181,45	1236,97
181,67	1273,84
181,90	1308,65
182,12	1286,12
182,34	1304,56
182,56	1265,64
182,78	1263,60
183,00	1298,41
183,22	1261,55
183,44	1261,55
183,66	1277,93
183,89	1259,50
184,11	1300,46
184,33	1306,60
184,55	1271,79
184,77	1220,59
184,99	1302,51
185,21	1271,79
185,43	1265,64
185,65	1249,26
185,87	1232,88
186,10	1230,83
186,32	1265,64
186,54	1245,16
186,76	1273,84
186,98	1306,60
187,20	1259,50
187,42	1290,22
187,64	1249,26
187,86	1253,36
188,08	1279,98
188,30	1292,27
188,52	1294,32
188,75	1208,30
188,97	1261,55
189,19	1288,17
189,41	1232,88
189,63	1322,99
189,85	1286,12
190,07	1302,51
190,29	1296,36
190,51	1318,89
190,73	1269,74
190,95	1251,31
191,17	1296,36
191,39	1316,84
191,61	1322,99
191,84	1230,83
192,06	1265,64
192,28	1208,30
192,50	1230,83
192,72	1339,37
192,94	1296,36
193,16	1247,21
193,38	1220,59
193,60	1361,90
193,82	1191,92
194,04	1261,55
194,26	1308,65
194,48	1169,39
194,70	1259,50
194,92	1286,12
195,14	1275,88
195,36	1208,30
195,58	1232,88
195,80	1271,79
196,02	1308,65
196,24	1267,69
196,46	1210,35
196,69	1296,36
196,91	1232,88
197,13	1290,22
197,35	1218,54
197,57	1298,41
197,79	1322,99
198,01	1204,21
198,23	1343,47
198,45	1306,60
198,67	1214,45
198,89	1282,03
199,11	1249,26
199,33	1255,40
199,55	1241,07
199,77	1275,88
199,99	1284,08
200,21	1300,46
200,43	1275,88
200,65	1275,88
200,87	1183,73
201,09	1286,12
201,31	1294,32
201,53	1322,99
201,75	1292,27
201,97	1230,83
202,19	1198,06
202,41	1294,32
202,63	1224,69
202,85	1257,45
203,07	1290,22
203,29	1298,41
203,51	1255,40
203,73	1279,98
203,95	1267,69
204,17	1243,12
204,39	1257,45
204,61	1294,32
204,83	1277,93
205,05	1316,84
205,27	1337,32
205,49	1265,64
205,71	1255,40
205,93	1310,70
206,15	1329,13
206,37	1257,45
206,59	1325,04
206,81	1290,22
207,03	1312,75
207,25	1243,12
207,47	1304,56
207,69	1265,64
207,91	1214,45
208,13	1335,28
208,34	1243,12
208,56	1189,87
208,78	1239,02
209,00	1259,50
209,22	1284,08
209,44	1273,84
209,66	1232,88
209,88	1259,50
210,10	1263,60
210,32	1284,08
210,54	1306,60
210,76	1232,88
210,98	1257,45
211,20	1253,36
211,42	1255,40
211,64	1210,35
211,86	1249,26
212,08	1212,40
212,30	1308,65
212,52	1236,97
212,74	1271,79
212,96	1245,16
213,17	1224,69
213,39	1271,79
213,61	1232,88
213,83	1292,27
214,05	1241,07
214,27	1296,36
214,49	1312,75
214,71	1257,45
214,93	1288,17
215,15	1294,32
215,37	1218,54
215,59	1216,49
215,81	1263,60
216,03	1163,25
216,24	1294,32
216,46	1282,03
216,68	1232,88
216,90	1189,87
217,12	1251,31
217,34	1185,77
217,56	1347,56
217,78	1216,49
218,00	1316,84
218,22	1284,08
218,44	1292,27
218,66	1208,30
218,87	1298,41
219,09	1269,74
219,31	1294,32
219,53	1290,22
219,75	1282,03
219,97	1277,93
220,19	1196,01
220,41	1214,45
220,63	1288,17
220,85	1269,74
221,06	1300,46
221,28	1318,89
221,50	1273,84
221,72	1226,73
221,94	1277,93
222,16	1239,02
222,38	1236,97
222,60	1335,28
222,82	1370,09
223,03	1314,80
223,25	1212,40
223,47	1298,41
223,69	1263,60
223,91	1306,60
224,13	1284,08
224,35	1290,22
224,57	1247,21
224,78	1277,93
225,00	1302,51
225,22	1267,69
225,44	1310,70
225,66	1296,36
225,88	1118,19
226,10	1259,50
226,32	1214,45
226,53	1279,98
226,75	1292,27
226,97	1302,51
227,19	1226,73
227,41	1202,16
227,63	1306,60
227,85	1312,75
228,06	1198,06
228,28	1249,26
228,50	1265,64
228,72	1261,55
228,94	1294,32
229,16	1257,45
229,37	1247,21
229,59	1263,60
229,81	1298,41
230,03	1230,83
230,25	1314,80
230,47	1312,75
230,69	1286,12
230,90	1259,50
231,12	1255,40
231,34	1257,45
231,56	1241,07
231,78	1318,89
232,00	1239,02
232,21	1286,12
232,43	1275,88
232,65	1212,40
232,87	1187,82
233,09	1255,40
233,30	1282,03
233,52	1290,22
233,74	1347,56
233,96	1312,75
234,18	1282,03
234,40	1294,32
234,61	1302,51
234,83	1282,03
235,05	1249,26
235,27	1327,08
235,49	1265,64
235,70	1273,84
235,92	1267,69
236,14	1200,11
236,36	1265,64
236,58	1214,45
236,79	1253,36
237,01	1300,46
237,23	1234,93
237,45	1341,42
237,67	1300,46
237,88	1288,17
238,10	1232,88
238,32	1267,69
238,54	1234,93
238,76	1290,22
238,97	1245,16
239,19	1247,21
239,41	1331,18
239,63	1325,04
239,85	1279,98
240,06	1228,78
240,28	1245,16
240,50	1218,54
240,72	1335,28
240,93	1312,75
241,15	1294,32
241,37	1247,21
241,59	1257,45
241,81	1290,22
242,02	1271,79
242,24	1318,89
242,46	1202,16
242,68	1239,02
242,89	1290,22
243,11	1220,59
243,33	1269,74
243,55	1290,22
243,76	1275,88
243,98	1232,88
244,20	1333,23
244,42	1357,80
244,64	1230,83
244,85	1290,22
245,07	1263,60
245,29	1349,61
245,51	1265,64
245,72	1212,40
245,94	1202,16
246,16	1259,50
246,38	1322,99
246,59	1267,69
246,81	1314,80
247,03	1271,79
247,24	1271,79
247,46	1296,36
247,68	1210,35
247,90	1257,45
248,11	1259,50
248,33	1320,94
248,55	1294,32
248,77	1267,69
248,98	1300,46
249,20	1271,79
249,42	1202,16
249,64	1253,36
249,85	1267,69
250,07	1273,84
250,29	1312,75
250,50	1302,51
250,72	1333,23
250,94	1189,87
251,16	1320,94
251,37	1263,60
251,59	1292,27
251,81	1314,80
252,02	1298,41
252,24	1247,21
252,46	1335,28
252,68	1177,58
252,89	1261,55
253,11	1243,12
253,33	1327,08
253,54	1273,84
253,76	1345,52
253,98	1279,98
254,20	1259,50
254,41	1284,08
254,63	1312,75
254,85	1302,51
255,06	1300,46
255,28	1300,46
255,50	1261,55
255,71	1304,56
255,93	1327,08
256,15	1284,08
256,36	1327,08
256,58	1230,83
256,80	1298,41
257,02	1259,50
257,23	1214,45
257,45	1245,16
257,67	1222,64
257,88	1249,26
258,10	1216,49
258,32	1228,78
258,53	1347,56
258,75	1279,98
258,97	1249,26
259,18	1239,02
259,40	1222,64
259,62	1269,74
259,83	1257,45
260,05	1322,99
260,27	1253,36
260,48	1265,64
260,70	1265,64
260,92	1286,12
261,13	1181,68
261,35	1290,22
261,57	1329,13
261,78	1273,84
262,00	1251,31
262,22	1279,98
262,43	1257,45
262,65	1275,88
262,86	1300,46
263,08	1247,21
263,30	1257,45
263,51	1277,93
263,73	1271,79
263,95	1216,49
264,16	1251,31
264,38	1300,46
264,60	1259,50
264,81	1251,31
265,03	1304,56
265,25	1275,88
265,46	1251,31
265,68	1232,88
265,89	1247,21
266,11	1290,22
266,33	1239,02
266,54	1282,03
266,76	1320,94
266,98	1257,45
267,19	1288,17
267,41	1253,36
267,62	1275,88
267,84	1232,88
268,06	1282,03
268,27	1359,85
268,49	1282,03
268,70	1308,65
268,92	1302,51
269,14	1275,88
269,35	1263,60
269,57	1220,59
269,79	1245,16
270,00	1220,59
270,22	1265,64
270,43	1257,45
270,65	1228,78
270,87	1255,40
271,08	1239,02
271,30	1337,32
271,51	1316,84
271,73	1269,74
271,95	1273,84
272,16	1230,83
272,38	1282,03
272,59	1255,40
272,81	1202,16
273,02	1267,69
273,24	1263,60
273,46	1286,12
273,67	1271,79
273,89	1218,54
274,10	1316,84
274,32	1279,98
274,54	1165,29
274,75	1230,83
274,97	1230,83
275,18	1271,79
275,40	1331,18
275,61	1331,18
275,83	1257,45
276,05	1236,97
276,26	1232,88
276,48	1220,59
276,69	1298,41
276,91	1255,40
277,12	1273,84
277,34	1234,93
277,55	1300,46
277,77	1343,47
277,99	1273,84
278,20	1232,88
278,42	1339,37
278,63	1218,54
278,85	1300,46
279,06	1349,61
279,28	1298,41
279,49	1282,03
279,71	1292,27
279,93	1263,60
280,14	1302,51
280,36	1259,50
280,57	1269,74
280,79	1325,04
281,00	1232,88
281,22	1243,12
281,43	1290,22
281,65	1234,93
281,86	1304,56
282,08	1214,45
282,29	1259,50
282,51	1232,88
282,73	1282,03
282,94	1300,46
283,16	1306,60
283,37	1355,76
283,59	1265,64
283,80	1306,60
284,02	1282,03
284,23	1249,26
284,45	1198,06
284,66	1320,94
284,88	1253,36
285,09	1234,93
285,31	1228,78
285,52	1218,54
285,74	1298,41
285,95	1290,22
286,17	1355,76
286,38	1224,69
286,60	1279,98
286,81	1306,60
287,03	1337,32
287,24	1241,07
287,46	1247,21
287,67	1314,80
287,89	1320,94
288,10	1257,45
288,32	1253,36
288,53	1257,45
288,75	1292,27
288,96	1271,79
289,18	1288,17
289,39	1251,31
289,61	1306,60
289,82	1273,84
290,04	1220,59
290,25	1208,30
290,47	1314,80
290,68	1273,84
290,90	1339,37
291,11	1230,83
291,33	1259,50
291,54	1251,31
291,76	1261,55
291,97	1243,12
292,18	1292,27
292,40	1171,44
292,61	1261,55
292,83	1304,56
293,04	1196,01
293,26	1269,74
293,47	1267,69
293,69	1288,17
293,90	1277,93
294,12	1251,31
294,33	1288,17
294,55	1255,40
294,76	1282,03
294,97	1366,00
295,19	1308,65
295,40	1273,84
295,62	1308,65
295,83	1228,78
296,05	1320,94
296,26	1304,56
296,48	1308,65
296,69	1220,59
296,90	1269,74
297,12	1261,55
297,33	1312,75
297,55	1339,37
297,76	1269,74
297,98	1286,12
298,19	1253,36
298,41	1265,64
298,62	1286,12
298,83	1253,36
299,05	1286,12
299,26	1236,97
299,48	1282,03
299,69	1247,21
299,90	1251,31
300,12	1277,93
300,33	1230,83
300,55	1296,36
300,76	1322,99
300,98	1239,02
301,19	1294,32
301,40	1243,12
301,62	1308,65
301,83	1288,17
302,05	1267,69
302,26	1298,41
302,47	1259,50
302,69	1325,04
302,90	1359,85
303,12	1187,82
303,33	1345,52
303,54	1234,93
303,76	1226,73
303,97	1187,82
304,19	1290,22
304,40	1236,97
304,61	1290,22
304,83	1214,45
305,04	1286,12
305,26	1259,50
305,47	1230,83
305,68	1224,69
305,90	1286,12
306,11	1245,16
306,33	1279,98
306,54	1193,97
306,75	1273,84
306,97	1198,06
307,18	1241,07
307,39	1271,79
307,61	1232,88
307,82	1310,70
308,04	1202,16
308,25	1251,31
308,46	1249,26
308,68	1269,74
308,89	1279,98
309,10	1259,50
309,32	1208,30
309,53	1353,71
309,74	1243,12
309,96	1290,22
310,17	1193,97
310,39	1273,84
310,60	1230,83
310,81	1310,70
311,03	1232,88
311,24	1349,61
311,45	1255,40
311,67	1279,98
311,88	1271,79
312,09	1265,64
312,31	1271,79
312,52	1306,60
312,73	1255,40
312,95	1236,97
313,16	1320,94
313,37	1261,55
313,59	1265,64
313,80	1279,98
314,01	1282,03
314,23	1228,78
314,44	1288,17
314,65	1341,42
314,87	1243,12
315,08	1294,32
315,29	1265,64
315,51	1269,74
315,72	1306,60
315,93	1222,64
316,15	1222,64
316,36	1409,00
316,57	1290,22
316,79	1316,84
317,00	1298,41
317,21	1224,69
317,43	1290,22
317,64	1298,41
317,85	1232,88
318,07	1331,18
318,28	1296,36
318,49	1261,55
318,70	1411,05
318,92	1288,17
319,13	1282,03
319,34	1302,51
319,56	1286,12
319,77	1200,11
319,98	1300,46
320,20	1265,64
320,41	1314,80
320,62	1335,28
320,83	1261,55
321,05	1277,93
321,26	1331,18
321,47	1212,40
321,69	1193,97
321,90	1232,88
322,11	1255,40
322,32	1232,88
322,54	1241,07
322,75	1292,27
322,96	1245,16
323,18	1228,78
323,39	1275,88
323,60	1308,65
323,81	1249,26
324,03	1239,02
324,24	1318,89
324,45	1263,60
324,66	1271,79
324,88	1265,64
325,09	1288,17
325,30	1339,37
325,52	1329,13
325,73	1239,02
325,94	1271,79
326,15	1243,12
326,37	1255,40
326,58	1247,21
326,79	1314,80
327,00	1355,76
327,22	1216,49
327,43	1282,03
327,64	1296,36
327,85	1271,79
328,07	1314,80
328,28	1267,69
328,49	1265,64
328,70	1234,93
328,92	1251,31
329,13	1226,73
329,34	1286,12
329,55	1275,88
329,76	1236,97
329,98	1220,59
330,19	1304,56
330,40	1343,47
330,61	1279,98
330,83	1279,98
331,04	1228,78
331,25	1271,79
331,46	1282,03
331,68	1257,45
331,89	1214,45
332,10	1183,73
332,31	1294,32
332,52	1263,60
332,74	1331,18
332,95	1273,84
333,16	1296,36
333,37	1273,84
333,58	1243,12
333,80	1243,12
334,01	1247,21
334,22	1275,88
334,43	1234,93
334,64	1273,84
334,86	1320,94
335,07	1255,40
335,28	1312,75
335,49	1269,74
335,70	1286,12
335,92	1273,84
336,13	1277,93
336,34	1232,88
336,55	1251,31
336,76	1298,41
336,98	1236,97
337,19	1294,32
337,40	1288,17
337,61	1322,99
337,82	1218,54
338,04	1290,22
338,25	1273,84
338,46	1304,56
338,67	1296,36
338,88	1320,94
339,09	1259,50
339,31	1255,40
339,52	1222,64
339,73	1337,32
339,94	1226,73
340,15	1306,60
340,36	1296,36
340,58	1269,74
340,79	1200,11
341,00	1257,45
341,21	1273,84
341,42	1277,93
341,63	1269,74
341,85	1282,03
342,06	1277,93
342,27	1265,64
342,48	1277,93
342,69	1257,45
342,90	1251,31
343,12	1236,97
343,33	1253,36
343,54	1259,50
343,75	1253,36
343,96	1230,83
344,17	1243,12
344,38	1320,94
344,60	1245,16
344,81	1261,55
345,02	1263,60
345,23	1296,36
345,44	1357,80
345,65	1325,04
345,86	1257,45
346,07	1230,83
346,29	1292,27
346,50	1343,47
346,71	1314,80
346,92	1228,78
347,13	1329,13
347,34	1298,41
347,55	1247,21
347,76	1232,88
347,98	1265,64
348,19	1314,80
348,40	1314,80
348,61	1277,93
348,82	1279,98
349,03	1247,21
349,24	1259,50
349,45	1265,64
349,66	1337,32
349,88	1241,07
350,09	1286,12
350,30	1191,92
350,51	1200,11
350,72	1218,54
350,93	1284,08
351,14	1284,08
351,35	1271,79
351,56	1290,22
351,77	1337,32
351,99	1265,64
352,20	1349,61
352,41	1294,32
352,62	1234,93
352,83	1222,64
353,04	1226,73
353,25	1267,69
353,46	1253,36
353,67	1273,84
353,88	1224,69
354,09	1146,86
354,30	1288,17
354,52	1267,69
354,73	1318,89
354,94	1228,78
355,15	1306,60
355,36	1298,41
355,57	1290,22
355,78	1216,49
355,99	1245,16
356,20	1247,21
356,41	1314,80
356,62	1222,64
356,83	1273,84
357,04	1193,97
357,25	1263,60
357,46	1267,69
357,68	1271,79
357,89	1277,93
358,10	1286,12
358,31	1345,52
358,52	1329,13
358,73	1241,07
358,94	1198,06
359,15	1245,16
359,36	1249,26
359,57	1241,07
359,78	1220,59
359,99	1290,22
360,20	1247,21
360,41	1224,69
360,62	1273,84
360,83	1282,03
361,04	1320,94
361,25	1327,08
361,46	1259,50
361,67	1263,60
361,88	1259,50
362,09	1314,80
362,30	1239,02
362,51	1243,12
362,72	1284,08
362,93	1206,25
363,14	1243,12
363,35	1232,88
363,56	1263,60
363,78	1327,08
363,99	1267,69
364,20	1222,64
364,41	1275,88
364,62	1298,41
364,83	1230,83
365,04	1273,84
365,25	1279,98
365,46	1277,93
365,67	1337,32
365,88	1312,75
366,09	1298,41
366,30	1269,74
366,51	1226,73
366,72	1288,17
366,93	1263,60
367,14	1312,75
367,35	1239,02
367,56	1322,99
367,77	1357,80
367,98	1314,80
368,18	1257,45
368,39	1214,45
368,60	1243,12
368,81	1294,32
369,02	1249,26
369,23	1292,27
369,44	1273,84
369,65	1218,54
369,86	1298,41
370,07	1294,32
370,28	1232,88
370,49	1320,94
370,70	1198,06
370,91	1232,88
371,12	1193,97
371,33	1255,40
371,54	1255,40
371,75	1234,93
371,96	1277,93
372,17	1183,73
372,38	1302,51
372,59	1220,59
372,80	1247,21
373,01	1269,74
373,22	1275,88
373,43	1294,32
373,64	1339,37
373,85	1337,32
374,06	1277,93
374,26	1239,02
374,47	1310,70
374,68	1282,03
374,89	1253,36
375,10	1275,88
375,31	1312,75
375,52	1292,27
375,73	1298,41
375,94	1318,89
376,15	1222,64
376,36	1224,69
376,57	1265,64
376,78	1245,16
376,99	1263,60
377,20	1290,22
377,40	1284,08
377,61	1306,60
377,82	1288,17
378,03	1290,22
378,24	1277,93
378,45	1220,59
378,66	1308,65
378,87	1232,88
379,08	1271,79
379,29	1275,88
379,50	1277,93
379,71	1290,22
379,91	1169,39
380,12	1245,16
380,33	1292,27
380,54	1269,74
380,75	1284,08
380,96	1265,64
381,17	1269,74
381,38	1249,26
381,59	1208,30
381,80	1355,76
382,00	1310,70
382,21	1263,60
382,42	1357,80
382,63	1286,12
382,84	1296,36
383,05	1230,83
383,26	1204,21
383,47	1271,79
383,68	1251,31
383,88	1286,12
384,09	1304,56
384,30	1298,41
384,51	1249,26
384,72	1253,36
384,93	1296,36
385,14	1255,40
385,35	1251,31
385,55	1247,21
385,76	1292,27
385,97	1277,93
386,18	1220,59
386,39	1214,45
386,60	1247,21
386,81	1284,08
387,02	1239,02
387,22	1259,50
387,43	1200,11
387,64	1234,93
387,85	1265,64
388,06	1267,69
388,27	1316,84
388,48	1247,21
388,68	1251,31
388,89	1290,22
389,10	1286,12
389,31	1222,64
389,52	1179,63
389,73	1312,75
389,93	1290,22
390,14	1271,79
390,35	1327,08
390,56	1314,80
390,77	1298,41
390,98	1230,83
391,18	1196,01
391,39	1269,74
391,60	1232,88
391,81	1284,08
392,02	1267,69
392,23	1216,49
392,43	1271,79
392,64	1320,94
392,85	1312,75
393,06	1236,97
393,27	1257,45
393,47	1273,84
393,68	1255,40
393,89	1273,84
394,10	1230,83
394,31	1214,45
394,52	1318,89
394,72	1206,25
394,93	1271,79
395,14	1263,60
395,35	1304,56
395,56	1241,07
395,76	1224,69
395,97	1259,50
396,18	1273,84
396,39	1239,02
396,60	1265,64
396,80	1306,60
397,01	1241,07
397,22	1339,37
397,43	1316,84
397,64	1206,25
397,84	1322,99
398,05	1228,78
398,26	1251,31
398,47	1269,74
398,67	1282,03
398,88	1282,03
399,09	1277,93
399,30	1284,08
399,51	1271,79
399,71	1236,97
399,92	1189,87
400,13	1259,50
400,34	1345,52
400,54	1294,32
400,75	1310,70
400,96	1196,01
401,17	1353,71
401,37	1196,01
401,58	1304,56
401,79	1243,12
402,00	1181,68
402,21	1255,40
402,41	1288,17
402,62	1325,04
402,83	1232,88
403,04	1261,55
403,24	1245,16
403,45	1220,59
403,66	1253,36
403,87	1337,32
404,07	1363,95
404,28	1284,08
404,49	1271,79
404,70	1218,54
404,90	1247,21
405,11	1382,38
405,32	1267,69
405,52	1181,68
405,73	1245,16
405,94	1253,36
406,15	1253,36
406,35	1294,32
406,56	1304,56
406,77	1279,98
406,98	1279,98
407,18	1161,20
407,39	1263,60
407,60	1286,12
407,80	1288,17
408,01	1247,21
408,22	1325,04
408,43	1212,40
408,63	1257,45
408,84	1275,88
409,05	1271,79
409,25	1300,46
409,46	1265,64
409,67	1333,23
409,88	1271,79
410,08	1214,45
410,29	1339,37
410,50	1230,83
410,70	1277,93
410,91	1300,46
411,12	1308,65
411,32	1259,50
411,53	1296,36
411,74	1290,22
411,95	1372,14
412,15	1279,98
412,36	1265,64
412,57	1282,03
412,77	1282,03
412,98	1245,16
413,19	1239,02
413,39	1257,45
413,60	1282,03
413,81	1189,87
414,01	1306,60
414,22	1249,26
414,43	1198,06
414,63	1318,89
414,84	1320,94
415,05	1241,07
415,25	1279,98
415,46	1294,32
415,67	1316,84
415,87	1257,45
416,08	1294,32
416,29	1300,46
416,49	1292,27
416,70	1206,25
416,91	1263,60
417,11	1232,88
417,32	1310,70
417,53	1288,17
417,73	1247,21
417,94	1249,26
418,15	1314,80
418,35	1279,98
418,56	1277,93
418,77	1292,27
418,97	1279,98
419,18	1320,94
419,38	1267,69
419,59	1232,88
419,80	1304,56
420,00	1251,31
420,21	1226,73
420,42	1312,75
420,62	1296,36
420,83	1241,07
421,04	1232,88
421,24	1322,99
421,45	1290,22
421,65	1294,32
421,86	1355,76
422,07	1292,27
422,27	1298,41
422,48	1193,97
422,69	1239,02
422,89	1255,40
423,10	1279,98
423,30	1298,41
423,51	1271,79
423,72	1265,64
423,92	1277,93
424,13	1271,79
424,33	1284,08
424,54	1230,83
424,75	1251,31
424,95	1318,89
425,16	1337,32
425,36	1196,01
425,57	1259,50
425,78	1253,36
425,98	1239,02
426,19	1306,60
426,39	1255,40
426,60	1224,69
426,81	1279,98
427,01	1181,68
427,22	1241,07
427,42	1239,02
427,63	1214,45
427,83	1312,75
428,04	1253,36
428,25	1290,22
428,45	1241,07
428,66	1327,08
428,86	1249,26
429,07	1277,93
429,28	1296,36
429,48	1308,65
429,69	1353,71
429,89	1271,79
430,10	1271,79
430,30	1288,17
430,51	1292,27
430,71	1232,88
430,92	1355,76
431,13	1226,73
431,33	1226,73
431,54	1216,49
431,74	1269,74
431,95	1239,02
432,15	1228,78
432,36	1265,64
432,56	1267,69
432,77	1312,75
432,98	1271,79
433,18	1263,60
433,39	1220,59
433,59	1298,41
433,80	1306,60
434,00	1325,04
434,21	1220,59
434,41	1200,11
434,62	1368,04
434,82	1257,45
435,03	1216,49
435,23	1312,75
435,44	1257,45
435,64	1288,17
435,85	1232,88
436,06	1232,88
436,26	1247,21
436,47	1239,02
436,67	1306,60
436,88	1288,17
437,08	1331,18
437,29	1292,27
437,49	1224,69
437,70	1245,16
437,90	1271,79
438,11	1351,66
438,31	1269,74
438,52	1286,12
438,72	1247,21
438,93	1296,36
439,13	1292,27
439,34	1304,56
439,54	1288,17
439,75	1251,31
439,95	1206,25
440,16	1279,98
440,36	1273,84
440,57	1245,16
440,77	1224,69
440,98	1230,83
441,18	1308,65
441,39	1236,97
441,59	1294,32
441,80	1284,08
442,00	1269,74
442,21	1253,36
442,41	1269,74
442,62	1263,60
442,82	1275,88
443,02	1314,80
443,23	1290,22
443,43	1232,88
443,64	1259,50
443,84	1314,80
444,05	1284,08
444,25	1247,21
444,46	1253,36
444,66	1204,21
444,87	1230,83
445,07	1318,89
445,28	1316,84
445,48	1312,75
445,69	1290,22
445,89	1302,51
446,09	1234,93
446,30	1249,26
446,50	1279,98
446,71	1214,45
446,91	1292,27
447,12	1243,12
447,32	1234,93
447,53	1269,74
447,73	1273,84
447,93	1277,93
448,14	1226,73
448,34	1325,04
448,55	1247,21
448,75	1335,28
448,96	1255,40
449,16	1273,84
449,36	1228,78
449,57	1245,16
449,77	1210,35
449,98	1296,36
450,18	1325,04
450,39	1282,03
450,59	1284,08
450,79	1320,94
451,00	1282,03
451,20	1357,80
451,41	1273,84
451,61	1282,03
451,81	1298,41
452,02	1302,51
452,22	1255,40
452,43	1253,36
452,63	1271,79
452,84	1310,70
453,04	1234,93
453,24	1245,16
453,45	1255,40
453,65	1232,88
453,86	1290,22
454,06	1320,94
454,26	1222,64
454,47	1241,07
454,67	1296,36
454,87	1202,16
455,08	1249,26
455,28	1279,98
455,49	1288,17
455,69	1245,16
455,89	1372,14
456,10	1302,51
456,30	1265,64
456,51	1286,12
456,71	1261,55
456,91	1204,21
457,12	1247,21
457,32	1251,31
457,52	1171,44
457,73	1239,02
457,93	1357,80
458,14	1218,54
458,34	1230,83
458,54	1245,16
458,75	1228,78
458,95	1279,98
459,15	1318,89
459,36	1292,27
459,56	1288,17
459,76	1288,17
459,97	1343,47
460,17	1269,74
460,37	1222,64
460,58	1267,69
460,78	1189,87
460,99	1302,51
461,19	1288,17
461,39	1257,45
461,60	1314,80
461,80	1220,59
462,00	1314,80
462,21	1259,50
462,41	1269,74
462,61	1196,01
462,82	1271,79
463,02	1263,60
463,22	1279,98
463,43	1277,93
463,63	1249,26
463,83	1290,22
464,04	1251,31
464,24	1259,50
464,44	1327,08
464,64	1288,17
464,85	1292,27
465,05	1300,46
465,25	1253,36
465,46	1247,21
465,66	1271,79
465,86	1296,36
466,07	1329,13
466,27	1247,21
466,47	1361,90
466,68	1249,26
466,88	1267,69
467,08	1306,60
467,29	1239,02
467,49	1204,21
467,69	1259,50
467,89	1284,08
468,10	1255,40
468,30	1331,18
468,50	1284,08
468,71	1255,40
468,91	1263,60
469,11	1265,64
469,31	1279,98
469,52	1208,30
469,72	1255,40
469,92	1296,36
470,13	1218,54
470,33	1247,21
470,53	1251,31
470,73	1331,18
470,94	1275,88
471,14	1284,08
471,34	1249,26
471,54	1314,80
471,75	1312,75
471,95	1282,03
472,15	1271,79
472,36	1304,56
472,56	1232,88
472,76	1216,49
472,96	1193,97
473,17	1232,88
473,37	1230,83
473,57	1302,51
473,77	1288,17
473,98	1267,69
474,18	1232,88
474,38	1316,84
474,58	1298,41
474,79	1265,64
474,99	1290,22
475,19	1255,40
475,39	1275,88
475,60	1331,18
475,80	1245,16
476,00	1296,36
476,20	1167,34
476,41	1312,75
476,61	1230,83
476,81	1261,55
477,01	1239,02
477,21	1267,69
477,42	1202,16
477,62	1257,45
477,82	1302,51
478,02	1249,26
478,23	1296,36
478,43	1210,35
478,63	1333,23
478,83	1271,79
479,03	1277,93
479,24	1290,22
479,44	1345,52
479,64	1236,97
479,84	1206,25
480,04	1273,84
480,25	1284,08
480,45	1265,64
480,65	1275,88
480,85	1320,94
481,06	1277,93
481,26	1257,45
481,46	1241,07
481,66	1200,11
481,86	1269,74
482,06	1304,56
482,27	1288,17
482,47	1300,46
482,67	1247,21
482,87	1335,28
483,07	1292,27
483,28	1245,16
483,48	1316,84
483,68	1306,60
483,88	1247,21
484,08	1296,36
484,29	1320,94
484,49	1269,74
484,69	1216,49
484,89	1310,70
485,09	1234,93
485,29	1241,07
485,50	1257,45
485,70	1175,53
485,90	1322,99
486,10	1265,64
486,30	1322,99
486,50	1298,41
486,71	1269,74
486,91	1269,74
487,11	1210,35
487,31	1224,69
487,51	1306,60
487,71	1202,16
487,91	1312,75
488,12	1318,89
488,32	1263,60
488,52	1265,64
488,72	1296,36
488,92	1271,79
489,12	1312,75
489,32	1329,13
489,53	1316,84
489,73	1314,80
489,93	1230,83
490,13	1243,12
490,33	1245,16
490,53	1210,35
490,73	1290,22
490,94	1290,22
491,14	1286,12
491,34	1273,84
491,54	1269,74
491,74	1341,42
491,94	1284,08
492,14	1204,21
492,34	1290,22
492,54	1290,22
492,75	1200,11
492,95	1339,37
493,15	1249,26
493,35	1204,21
493,55	1263,60
493,75	1286,12
493,95	1232,88
494,15	1222,64
494,35	1284,08
494,56	1216,49
494,76	1245,16
494,96	1298,41
495,16	1337,32
495,36	1314,80
495,56	1171,44
495,76	1343,47
495,96	1286,12
496,16	1267,69
496,36	1329,13
496,56	1251,31
496,77	1302,51
496,97	1224,69
497,17	1265,64
497,37	1196,01
497,57	1298,41
497,77	1263,60
497,97	1273,84
498,17	1265,64
498,37	1259,50
498,57	1247,21
498,77	1243,12
498,97	1257,45
499,17	1282,03
499,38	1302,51
499,58	1296,36
499,78	1261,55
499,98	1263,60
500,18	1210,35
500,38	1298,41
500,58	1253,36
500,78	1251,31
500,98	1241,07
501,18	1245,16
501,38	1347,56
501,58	1312,75
501,78	1243,12
501,98	1257,45
502,18	1282,03
502,38	1296,36
502,58	1239,02
502,78	1292,27
502,98	1259,50
503,18	1251,31
503,38	1269,74
503,59	1267,69
503,79	1296,36
503,99	1210,35
504,19	1239,02
504,39	1277,93
504,59	1269,74
504,79	1253,36
504,99	1298,41
505,19	1263,60
505,39	1304,56
505,59	1228,78
505,79	1337,32
505,99	1224,69
506,19	1325,04
506,39	1353,71
506,59	1214,45
506,79	1306,60
506,99	1236,97
507,19	1288,17
507,39	1294,32
507,59	1241,07
507,79	1308,65
507,99	1249,26
508,19	1232,88
508,39	1288,17
508,59	1361,90
508,79	1265,64
508,99	1284,08
509,19	1247,21
509,39	1363,95
509,59	1220,59
509,79	1275,88
509,99	1271,79
510,19	1339,37
510,39	1279,98
510,59	1318,89
510,79	1255,40
510,99	1286,12
511,19	1277,93
511,39	1257,45
511,59	1335,28
511,79	1298,41
511,99	1259,50
512,19	1251,31
512,38	1245,16
512,58	1247,21
512,78	1331,18
512,98	1208,30
513,18	1284,08
513,38	1241,07
513,58	1255,40
513,78	1302,51
513,98	1277,93
514,18	1234,93
514,38	1230,83
514,58	1263,60
514,78	1230,83
514,98	1312,75
515,18	1273,84
515,38	1263,60
515,58	1263,60
515,78	1320,94
515,98	1224,69
516,18	1263,60
516,38	1288,17
516,57	1220,59
516,77	1265,64
516,97	1292,27
517,17	1325,04
517,37	1187,82
517,57	1279,98
517,77	1247,21
517,97	1245,16
518,17	1273,84
518,37	1269,74
518,57	1275,88
518,77	1292,27
518,97	1277,93
519,16	1304,56
519,36	1222,64
519,56	1220,59
519,76	1261,55
519,96	1282,03
520,16	1316,84
520,36	1275,88
520,56	1269,74
520,76	1212,40
520,96	1267,69
521,16	1318,89
521,35	1337,32
521,55	1271,79
521,75	1286,12
521,95	1322,99
522,15	1294,32
522,35	1284,08
522,55	1300,46
522,75	1329,13
522,95	1282,03
523,14	1179,63
523,34	1353,71
523,54	1193,97
523,74	1271,79
523,94	1310,70
524,14	1189,87
524,34	1325,04
524,54	1273,84
524,73	1353,71
524,93	1275,88
525,13	1302,51
525,33	1273,84
525,53	1314,80
525,73	1353,71
525,93	1306,60
526,13	1296,36
526,32	1273,84
526,52	1241,07
526,72	1263,60
526,92	1279,98
527,12	1263,60
527,32	1241,07
527,52	1298,41
527,71	1196,01
527,91	1288,17
528,11	1296,36
528,31	1282,03
528,51	1234,93
528,71	1314,80
528,90	1175,53
529,10	1261,55
529,30	1320,94
529,50	1271,79
529,70	1308,65
529,90	1282,03
530,09	1314,80
530,29	1296,36
530,49	1226,73
530,69	1257,45
530,89	1247,21
531,09	1331,18
531,28	1245,16
531,48	1232,88
531,68	1308,65
531,88	1288,17
532,08	1288,17
532,28	1275,88
532,47	1255,40
532,67	1271,79
532,87	1277,93
533,07	1220,59
533,27	1277,93
533,46	1370,09
533,66	1279,98
533,86	1185,77
534,06	1247,21
534,26	1263,60
534,45	1277,93
534,65	1290,22
534,85	1198,06
535,05	1271,79
535,25	1300,46
535,44	1247,21
535,64	1257,45
535,84	1265,64
536,04	1322,99
536,24	1292,27
536,43	1206,25
536,63	1204,21
536,83	1271,79
537,03	1329,13
537,22	1275,88
537,42	1279,98
537,62	1286,12
537,82	1261,55
538,02	1292,27
538,21	1251,31
538,41	1257,45
538,61	1337,32
538,81	1214,45
539,00	1296,36
539,20	1245,16
539,40	1284,08
539,60	1234,93
539,79	1267,69
539,99	1294,32
540,19	1292,27
540,39	1212,40
540,58	1265,64
540,78	1249,26
540,98	1316,84
541,18	1249,26
541,37	1312,75
541,57	1286,12
541,77	1267,69
541,97	1337,32
542,16	1339,37
542,36	1353,71
542,56	1304,56
542,76	1304,56
542,95	1224,69
543,15	1296,36
543,35	1263,60
543,54	1259,50
543,74	1163,25
543,94	1218,54
544,14	1265,64
544,33	1236,97
544,53	1284,08
544,73	1249,26
544,93	1286,12
545,12	1269,74
545,32	1257,45
545,52	1200,11
545,71	1275,88
545,91	1224,69
546,11	1316,84
546,30	1327,08
546,50	1390,57
546,70	1253,36
546,90	1304,56
547,09	1208,30
547,29	1288,17
547,49	1290,22
547,68	1236,97
547,88	1263,60
548,08	1241,07
548,27	1298,41
548,47	1296,36
548,67	1282,03
548,87	1257,45
549,06	1261,55
549,26	1210,35
549,46	1218,54
549,65	1234,93
549,85	1255,40
550,05	1161,20
550,24	1257,45
550,44	1363,95
550,64	1282,03
550,83	1226,73
551,03	1224,69
551,23	1271,79
551,42	1267,69
551,62	1224,69
551,82	1245,16
552,01	1271,79
552,21	1318,89
552,41	1308,65
552,60	1277,93
552,80	1226,73
553,00	1196,01
553,19	1273,84
553,39	1290,22
553,59	1273,84
553,78	1390,57
553,98	1232,88
554,17	1185,77
554,37	1247,21
554,57	1343,47
554,76	1273,84
554,96	1288,17
555,16	1288,17
555,35	1243,12
555,55	1325,04
555,75	1282,03
555,94	1193,97
556,14	1273,84
556,33	1279,98
556,53	1277,93
556,73	1224,69
556,92	1288,17
557,12	1312,75
557,32	1279,98
557,51	1316,84
557,71	1249,26
557,90	1257,45
558,10	1243,12
558,30	1279,98
558,49	1286,12
558,69	1290,22
558,88	1259,50
559,08	1257,45
559,28	1251,31
559,47	1296,36
559,67	1353,71
559,86	1267,69
560,06	1366,00
560,26	1279,98
560,45	1239,02
560,65	1249,26
560,84	1253,36
561,04	1279,98
561,24	1318,89
561,43	1284,08
561,63	1298,41
561,82	1273,84
562,02	1290,22
562,22	1310,70
562,41	1236,97
562,61	1298,41
562,80	1259,50
563,00	1294,32
563,19	1304,56
563,39	1359,85
563,59	1339,37
563,78	1312,75
563,98	1277,93
564,17	1212,40
564,37	1282,03
564,56	1312,75
564,76	1304,56
564,96	1284,08
565,15	1249,26
565,35	1279,98
565,54	1236,97
565,74	1279,98
565,93	1304,56
566,13	1310,70
566,32	1345,52
566,52	1273,84
566,71	1312,75
566,91	1378,28
567,11	1230,83
567,30	1257,45
567,50	1269,74
567,69	1296,36
567,89	1265,64
568,08	1308,65
568,28	1296,36
568,47	1243,12
568,67	1245,16
568,86	1218,54
569,06	1257,45
569,25	1230,83
569,45	1261,55
569,64	1187,82
569,84	1257,45
570,04	1290,22
570,23	1296,36
570,43	1282,03
570,62	1253,36
570,82	1300,46
571,01	1267,69
571,21	1277,93
571,40	1236,97
571,60	1300,46
571,79	1249,26
571,99	1325,04
572,18	1259,50
572,38	1210,35
572,57	1208,30
572,77	1232,88
572,96	1198,06
573,16	1304,56
573,35	1288,17
573,55	1290,22
573,74	1245,16
573,94	1200,11
574,13	1284,08
574,33	1275,88
574,52	1331,18
574,71	1329,13
574,91	1263,60
575,10	1191,92
575,30	1327,08
575,49	1273,84
575,69	1243,12
575,88	1273,84
576,08	1290,22
576,27	1257,45
576,47	1249,26
576,66	1322,99
576,86	1232,88
577,05	1325,04
577,25	1318,89
577,44	1288,17
577,64	1304,56
577,83	1226,73
578,02	1257,45
578,22	1208,30
578,41	1255,40
578,61	1271,79
578,80	1234,93
579,00	1253,36
579,19	1263,60
579,39	1271,79
579,58	1228,78
579,77	1310,70
579,97	1193,97
580,16	1339,37
580,36	1259,50
580,55	1325,04
580,75	1265,64
580,94	1292,27
581,13	1294,32
581,33	1294,32
581,52	1302,51
581,72	1325,04
581,91	1234,93
582,11	1261,55
582,30	1245,16
582,49	1298,41
582,69	1189,87
582,88	1335,28
583,08	1288,17
583,27	1212,40
583,47	1247,21
583,66	1257,45
583,85	1296,36
584,05	1232,88
584,24	1284,08
584,44	1343,47
584,63	1329,13
584,82	1294,32
585,02	1273,84
585,21	1265,64
585,41	1273,84
585,60	1282,03
585,79	1255,40
585,99	1216,49
586,18	1279,98
586,37	1331,18
586,57	1341,42
586,76	1300,46
586,96	1230,83
587,15	1349,61
587,34	1306,60
587,54	1304,56
587,73	1279,98
587,93	1316,84
588,12	1345,52
588,31	1257,45
588,51	1202,16
588,70	1294,32
588,89	1275,88
589,09	1241,07
589,28	1255,40
589,47	1228,78
589,67	1312,75
589,86	1204,21
590,06	1308,65
590,25	1282,03
590,44	1257,45
590,64	1275,88
590,83	1226,73
591,02	1265,64
591,22	1288,17
591,41	1267,69
591,60	1273,84
591,80	1245,16
591,99	1234,93
592,18	1230,83
592,38	1279,98
592,57	1288,17
592,76	1325,04
592,96	1232,88
593,15	1300,46
593,34	1275,88
593,54	1314,80
593,73	1255,40
593,92	1247,21
594,12	1243,12
594,31	1269,74
594,50	1279,98
594,70	1304,56
594,89	1263,60
595,08	1263,60
595,28	1234,93
595,47	1310,70
595,66	1343,47
595,86	1292,27
596,05	1288,17
596,24	1247,21
596,43	1267,69
596,63	1216,49
596,82	1273,84
597,01	1325,04
597,21	1230,83
597,40	1265,64
597,59	1222,64
597,79	1249,26
597,98	1282,03
598,17	1312,75
598,36	1325,04
598,56	1243,12
598,75	1292,27
598,94	1218,54
599,14	1187,82
599,33	1220,59
599,52	1308,65
599,71	1304,56
599,91	1253,36
600,10	1220,59
600,29	1273,84
600,48	1290,22
600,68	1284,08
600,87	1191,92
601,06	1339,37
601,26	1255,40
601,45	1214,45
601,64	1318,89
601,83	1306,60
602,03	1249,26
602,22	1263,60
602,41	1308,65
602,60	1239,02
602,80	1234,93
602,99	1322,99
603,18	1234,93
603,37	1314,80
603,57	1343,47
603,76	1329,13
603,95	1290,22
604,14	1288,17
604,34	1247,21
604,53	1271,79
604,72	1218,54
604,91	1329,13
605,10	1206,25
605,30	1282,03
605,49	1275,88
605,68	1279,98
605,87	1259,50
606,07	1310,70
606,26	1292,27
606,45	1181,68
606,64	1257,45
606,84	1261,55
607,03	1304,56
607,22	1212,40
607,41	1234,93
607,60	1269,74
607,80	1296,36
607,99	1316,84
608,18	1257,45
608,37	1245,16
608,56	1308,65
608,76	1288,17
608,95	1302,51
609,14	1308,65
609,33	1249,26
609,52	1253,36
609,72	1290,22
609,91	1282,03
610,10	1222,64
610,29	1255,40
610,48	1316,84
610,68	1234,93
610,87	1314,80
611,06	1318,89
611,25	1265,64
611,44	1249,26
611,63	1253,36
611,83	1265,64
612,02	1282,03
612,21	1282,03
612,40	1279,98
612,59	1279,98
612,79	1277,93
612,98	1255,40
613,17	1239,02
613,36	1320,94
613,55	1249,26
613,74	1236,97
613,93	1282,03
614,13	1275,88
614,32	1253,36
614,51	1306,60
614,70	1241,07
614,89	1241,07
615,08	1286,12
615,28	1322,99
615,47	1296,36
615,66	1322,99
615,85	1292,27
616,04	1327,08
616,23	1253,36
616,42	1265,64
616,62	1320,94
616,81	1304,56
617,00	1239,02
617,19	1271,79
617,38	1290,22
617,57	1239,02
617,76	1269,74
617,95	1232,88
618,15	1257,45
618,34	1259,50
618,53	1271,79
618,72	1333,23
618,91	1294,32
619,10	1279,98
619,29	1265,64
619,48	1288,17
619,68	1263,60
619,87	1259,50
620,06	1327,08
620,25	1298,41
620,44	1273,84
620,63	1300,46
620,82	1257,45
621,01	1224,69
621,20	1200,11
621,39	1224,69
621,59	1255,40
621,78	1255,40
621,97	1282,03
622,16	1294,32
622,35	1261,55
622,54	1249,26
622,73	1300,46
622,92	1282,03
623,11	1232,88
623,30	1282,03
623,49	1353,71
623,68	1273,84
623,88	1306,60
624,07	1263,60
624,26	1361,90
624,45	1259,50
624,64	1202,16
624,83	1275,88
625,02	1273,84
625,21	1275,88
625,40	1255,40
625,59	1310,70
625,78	1222,64
625,97	1320,94
626,16	1261,55
626,35	1286,12
626,54	1308,65
626,74	1224,69
626,93	1259,50
627,12	1222,64
627,31	1351,66
627,50	1261,55
627,69	1236,97
627,88	1263,60
628,07	1255,40
628,26	1265,64
628,45	1271,79
628,64	1210,35
628,83	1290,22
629,02	1304,56
629,21	1259,50
629,40	1304,56
629,59	1263,60
629,78	1282,03
629,97	1284,08
630,16	1337,32
630,35	1277,93
630,54	1304,56
630,73	1226,73
630,92	1243,12
631,11	1296,36
631,30	1300,46
631,49	1327,08
631,68	1372,14
631,87	1490,92
632,06	1816,55
632,25	1511,40
632,44	1628,14
632,63	1900,52
632,82	2320,35
633,01	2627,54
633,20	2955,22
633,39	2963,41
633,58	2324,44
633,77	2154,46
633,96	2359,26
634,15	3239,89
634,34	3520,46
634,53	2942,93
634,72	2426,84
634,91	1925,09
635,10	1871,84
635,29	1617,90
635,48	1648,61
635,67	1583,08
635,86	1501,16
636,05	1435,63
636,24	1347,56
636,43	1347,56
636,62	1400,81
636,81	1327,08
637,00	1290,22
637,19	1347,56
637,38	1329,13
637,57	1329,13
637,76	1357,80
637,95	1335,28
638,14	1378,28
638,33	1329,13
638,52	1347,56
638,71	1294,32
638,89	1257,45
639,08	1279,98
639,27	1288,17
639,46	1306,60
639,65	1341,42
639,84	1300,46
640,03	1257,45
640,22	1318,89
640,41	1243,12
640,60	1245,16
640,79	1273,84
640,98	1255,40
641,17	1298,41
641,36	1245,16
641,55	1265,64
641,74	1255,40
641,92	1359,85
642,11	1277,93
642,30	1298,41
642,49	1341,42
642,68	1232,88
642,87	1335,28
643,06	1304,56
643,25	1370,09
643,44	1370,09
643,63	1263,60
643,82	1306,60
644,00	1261,55
644,19	1296,36
644,38	1263,60
644,57	1304,56
644,76	1239,02
644,95	1314,80
645,14	1249,26
645,33	1243,12
645,52	1275,88
645,71	1198,06
645,89	1259,50
646,08	1269,74
646,27	1316,84
646,46	1325,04
646,65	1331,18
646,84	1236,97
647,03	1271,79
647,22	1255,40
647,40	1267,69
647,59	1318,89
647,78	1294,32
647,97	1261,55
648,16	1243,12
648,35	1347,56
648,54	1243,12
648,73	1265,64
648,91	1220,59
649,10	1386,47
649,29	1304,56
649,48	1251,31
649,67	1275,88
649,86	1261,55
650,05	1284,08
650,23	1255,40
650,42	1249,26
650,61	1236,97
650,80	1312,75
650,99	1275,88
651,18	1210,35
651,36	1269,74
651,55	1259,50
651,74	1210,35
651,93	1290,22
652,12	1191,92
652,31	1206,25
652,49	1257,45
652,68	1255,40
652,87	1288,17
653,06	1310,70
653,25	1251,31
653,44	1290,22
653,62	1284,08
653,81	1202,16
654,00	1370,09
654,19	1282,03
654,38	1318,89
654,56	1286,12
654,75	1273,84
654,94	1206,25
655,13	1273,84
655,32	1208,30
655,51	1282,03
655,69	1284,08
655,88	1232,88
656,07	1243,12
656,26	1304,56
656,45	1320,94
656,63	1265,64
656,82	1277,93
657,01	1308,65
657,20	1284,08
657,38	1368,04
657,57	1275,88
657,76	1224,69
657,95	1284,08
658,14	1277,93
658,32	1337,32
658,51	1273,84
658,70	1153,01
658,89	1343,47
659,08	1292,27
659,26	1271,79
659,45	1286,12
659,64	1263,60
659,83	1343,47
660,01	1341,42
660,20	1290,22
660,39	1292,27
660,58	1284,08
660,76	1263,60
660,95	1269,74
661,14	1226,73
661,33	1263,60
661,51	1249,26
661,70	1251,31
661,89	1265,64
662,08	1382,38
662,26	1239,02
662,45	1230,83
662,64	1290,22
662,83	1269,74
663,01	1320,94
663,20	1230,83
663,39	1265,64
663,58	1296,36
663,76	1243,12
663,95	1271,79
664,14	1298,41
664,32	1247,21
664,51	1265,64
664,70	1310,70
664,89	1249,26
665,07	1255,40
665,26	1247,21
665,45	1216,49
665,64	1275,88
665,82	1261,55
666,01	1253,36
666,20	1245,16
666,38	1253,36
666,57	1318,89
666,76	1341,42
666,95	1273,84
667,13	1226,73
667,32	1200,11
667,51	1249,26
667,69	1241,07
667,88	1146,86
668,07	1243,12
668,25	1267,69
668,44	1265,64
668,63	1191,92
668,81	1292,27
669,00	1265,64
669,19	1247,21
669,38	1282,03
669,56	1314,80
669,75	1243,12
669,94	1267,69
670,12	1288,17
670,31	1277,93
670,50	1376,24
670,68	1263,60
670,87	1296,36
671,06	1251,31
671,24	1220,59
671,43	1232,88
671,62	1310,70
671,80	1277,93
671,99	1314,80
672,18	1249,26
672,36	1249,26
672,55	1226,73
672,74	1257,45
672,92	1288,17
673,11	1273,84
673,29	1314,80
673,48	1298,41
673,67	1255,40
673,85	1325,04
674,04	1189,87
674,23	1265,64
674,41	1294,32
674,60	1282,03
674,79	1349,61
674,97	1257,45
675,16	1206,25
675,34	1314,80
675,53	1298,41
675,72	1286,12
675,90	1204,21
676,09	1228,78
676,28	1251,31
676,46	1241,07
676,65	1220,59
676,83	1265,64
677,02	1241,07
677,21	1245,16
677,39	1230,83
677,58	1329,13
677,77	1343,47
677,95	1245,16
678,14	1232,88
678,32	1232,88
678,51	1236,97
678,70	1304,56
678,88	1312,75
679,07	1239,02
679,25	1198,06
679,44	1236,97
679,63	1236,97
679,81	1261,55
680,00	1298,41
680,18	1322,99
680,37	1277,93
680,55	1267,69
680,74	1286,12
680,93	1224,69
681,11	1241,07
681,30	1275,88
681,48	1253,36
681,67	1284,08
681,85	1191,92
682,04	1286,12
682,23	1292,27
682,41	1249,26
682,60	1271,79
682,78	1228,78
682,97	1245,16
683,15	1257,45
683,34	1257,45
683,53	1198,06
683,71	1329,13
683,90	1247,21
684,08	1226,73
684,27	1251,31
684,45	1222,64
684,64	1331,18
684,82	1253,36
685,01	1339,37
685,19	1294,32
685,38	1253,36
685,57	1189,87
685,75	1218,54
685,94	1269,74
686,12	1249,26
686,31	1273,84
686,49	1247,21
686,68	1290,22
686,86	1308,65
687,05	1247,21
687,23	1198,06
687,42	1257,45
687,60	1212,40
687,79	1222,64
687,97	1243,12
688,16	1275,88
688,34	1263,60
688,53	1325,04
688,71	1249,26
688,90	1236,97
689,08	1304,56
689,27	1245,16
689,45	1314,80
689,64	1331,18
689,82	1269,74
690,01	1212,40
690,19	1296,36
690,38	1341,42
690,56	1288,17
690,75	1239,02
690,93	1337,32
691,12	1284,08
691,30	1302,51
691,49	1304,56
691,67	1279,98
691,86	1253,36
692,04	1284,08
692,23	1191,92
692,41	1314,80
692,60	1271,79
692,78	1243,12
692,97	1216,49
693,15	1251,31
693,34	1275,88
693,52	1296,36
693,71	1298,41
693,89	1239,02
694,08	1263,60
694,26	1298,41
694,44	1353,71
694,63	1277,93
694,81	1298,41
695,00	1320,94
695,18	1255,40
695,37	1261,55
695,55	1224,69
695,74	1292,27
695,92	1224,69
696,10	1318,89
696,29	1282,03
696,47	1306,60
696,66	1286,12
696,84	1230,83
697,03	1298,41
697,21	1255,40
697,40	1359,85
697,58	1282,03
697,76	1265,64
697,95	1214,45
698,13	1224,69
698,32	1259,50
698,50	1273,84
698,68	1265,64
698,87	1228,78
699,05	1236,97
699,24	1327,08
699,42	1257,45
699,61	1255,40
699,79	1239,02
699,97	1300,46
700,16	1286,12
700,34	1298,41
700,53	1271,79
700,71	1306,60
700,89	1288,17
701,08	1322,99
701,26	1329,13
701,45	1271,79
701,63	1220,59
701,81	1259,50
702,00	1259,50
702,18	1257,45
702,37	1337,32
702,55	1302,51
702,73	1314,80
702,92	1247,21
703,10	1275,88
703,28	1243,12
703,47	1202,16
703,65	1249,26
703,84	1249,26
704,02	1302,51
704,20	1312,75
704,39	1232,88
704,57	1257,45
704,75	1292,27
704,94	1261,55
705,12	1212,40
705,30	1306,60
705,49	1294,32
705,67	1234,93
705,86	1312,75
706,04	1300,46
706,22	1218,54
706,41	1226,73
706,59	1234,93
706,77	1222,64
706,96	1193,97
707,14	1239,02
707,32	1288,17
707,51	1288,17
707,69	1206,25
707,87	1349,61
708,06	1241,07
708,24	1200,11
708,42	1331,18
708,61	1282,03
708,79	1177,58
708,97	1296,36
709,16	1269,74
709,34	1265,64
709,52	1230,83
709,71	1255,40
709,89	1284,08
710,07	1304,56
710,26	1234,93
710,44	1273,84
710,62	1263,60
710,80	1292,27
710,99	1226,73
711,17	1253,36
711,35	1253,36
711,54	1263,60
711,72	1269,74
711,90	1234,93
712,09	1216,49
712,27	1202,16
712,45	1202,16
712,63	1271,79
712,82	1304,56
713,00	1273,84
713,18	1255,40
713,37	1286,12
713,55	1261,55
713,73	1298,41
713,91	1261,55
714,10	1298,41
714,28	1171,44
714,46	1302,51
714,65	1255,40
714,83	1259,50
715,01	1329,13
715,19	1236,97
715,38	1269,74
715,56	1355,76
715,74	1257,45
715,92	1232,88
716,11	1273,84
716,29	1265,64
716,47	1312,75
716,65	1226,73
716,84	1347,56
717,02	1265,64
717,20	1335,28
717,38	1347,56
717,57	1257,45
717,75	1185,77
717,93	1204,21
718,11	1298,41
718,30	1228,78
718,48	1183,73
718,66	1261,55
718,84	1259,50
719,03	1320,94
719,21	1206,25
719,39	1335,28
719,57	1216,49
719,75	1222,64
719,94	1314,80
720,12	1271,79
720,30	1255,40
720,48	1300,46
720,67	1247,21
720,85	1216,49
721,03	1261,55
721,21	1310,70
721,39	1292,27
721,58	1200,11
721,76	1232,88
721,94	1226,73
722,12	1302,51
722,30	1322,99
722,49	1353,71
722,67	1277,93
722,85	1273,84
723,03	1214,45
723,21	1318,89
723,40	1198,06
723,58	1255,40
723,76	1314,80
723,94	1275,88
724,12	1216,49
724,30	1263,60
724,49	1300,46
724,67	1271,79
724,85	1273,84
725,03	1247,21
725,21	1292,27
725,40	1298,41
725,58	1298,41
725,76	1339,37
725,94	1198,06
726,12	1322,99
726,30	1218,54
726,49	1261,55
726,67	1298,41
726,85	1372,14
727,03	1304,56
727,21	1310,70
727,39	1265,64
727,57	1282,03
727,76	1284,08
727,94	1189,87
728,12	1277,93
728,30	1271,79
728,48	1269,74
728,66	1286,12
728,84	1300,46
729,03	1253,36
729,21	1308,65
729,39	1257,45
729,57	1265,64
729,75	1259,50
729,93	1269,74
730,11	1288,17
730,30	1327,08
730,48	1251,31
730,66	1241,07
730,84	1347,56
731,02	1320,94
731,20	1241,07
731,38	1294,32
731,56	1306,60
731,74	1269,74
731,93	1255,40
732,11	1282,03
732,29	1345,52
732,47	1241,07
732,65	1273,84
732,83	1212,40
733,01	1251,31
733,19	1316,84
733,37	1320,94
733,56	1253,36
733,74	1265,64
733,92	1265,64
734,10	1241,07
734,28	1230,83
734,46	1218,54
734,64	1239,02
734,82	1241,07
735,00	1241,07
735,18	1257,45
735,36	1335,28
735,54	1257,45
735,73	1212,40
735,91	1249,26
736,09	1282,03
736,27	1286,12
736,45	1243,12
736,63	1259,50
736,81	1269,74
736,99	1302,51
737,17	1220,59
737,35	1292,27
737,53	1333,23
737,71	1337,32
737,89	1341,42
738,07	1257,45
738,25	1284,08
738,43	1288,17
738,61	1271,79
738,80	1320,94
738,98	1267,69
739,16	1292,27
739,34	1279,98
739,52	1263,60
739,70	1243,12
739,88	1261,55
740,06	1224,69
740,24	1286,12
740,42	1267,69
740,60	1228,78
740,78	1263,60
740,96	1275,88
741,14	1239,02
741,32	1234,93
741,50	1210,35
741,68	1224,69
741,86	1279,98
742,04	1298,41
742,22	1331,18
742,40	1200,11
742,58	1249,26
742,76	1265,64
742,94	1267,69
743,12	1310,70
743,30	1251,31
743,48	1288,17
743,66	1294,32
743,84	1290,22
744,02	1241,07
744,20	1249,26
744,38	1308,65
744,56	1230,83
744,74	1322,99
744,92	1290,22
745,10	1224,69
745,28	1279,98
745,46	1212,40
745,64	1288,17
745,82	1259,50
746,00	1249,26
746,18	1304,56
746,36	1259,50
746,54	1220,59
746,72	1353,71
746,90	1247,21
747,08	1302,51
747,26	1224,69
747,44	1304,56
747,62	1226,73
747,80	1218,54
747,98	1310,70
748,15	1292,27
748,33	1349,61
748,51	1353,71
748,69	1177,58
748,87	1232,88
749,05	1277,93
749,23	1232,88
749,41	1212,40
749,59	1261,55
749,77	1273,84
749,95	1214,45
750,13	1284,08
750,31	1275,88
750,49	1234,93
750,67	1214,45
750,85	1277,93
751,03	1296,36
751,20	1271,79
751,38	1226,73
751,56	1320,94
751,74	1267,69
751,92	1275,88
752,10	1269,74
752,28	1284,08
752,46	1304,56
752,64	1320,94
752,82	1343,47
753,00	1269,74
753,18	1357,80
753,35	1322,99
753,53	1183,73
753,71	1306,60
753,89	1275,88
754,07	1279,98
754,25	1259,50
754,43	1271,79
754,61	1279,98
754,79	1191,92
754,97	1298,41
755,14	1220,59
755,32	1189,87
755,50	1335,28
755,68	1257,45
755,86	1183,73
756,04	1273,84
756,22	1249,26
756,40	1314,80
756,57	1277,93
756,75	1263,60
756,93	1302,51
757,11	1232,88
757,29	1263,60
757,47	1310,70
757,65	1247,21
757,82	1232,88
758,00	1204,21
758,18	1257,45
758,36	1253,36
758,54	1308,65
758,72	1230,83
758,90	1263,60
759,07	1243,12
759,25	1347,56
759,43	1257,45
759,61	1275,88
759,79	1296,36
759,97	1310,70
760,15	1294,32
760,32	1275,88
760,50	1316,84
760,68	1208,30
760,86	1292,27
761,04	1206,25
761,22	1298,41
761,39	1243,12
761,57	1304,56
761,75	1249,26
761,93	1228,78
762,11	1218,54
762,28	1282,03
762,46	1224,69
762,64	1290,22
762,82	1275,88
763,00	1267,69
763,18	1226,73
763,35	1224,69
763,53	1294,32
763,71	1230,83
763,89	1253,36
764,07	1279,98
764,24	1241,07
764,42	1271,79
764,60	1218,54
764,78	1282,03
764,96	1214,45
765,13	1236,97
765,31	1273,84
765,49	1236,97
765,67	1384,43
765,84	1271,79
766,02	1279,98
766,20	1359,85
766,38	1224,69
766,56	1216,49
766,73	1282,03
766,91	1241,07
767,09	1249,26
767,27	1257,45
767,44	1273,84
767,62	1255,40
767,80	1265,64
767,98	1245,16
768,15	1253,36
768,33	1208,30
768,51	1292,27
768,69	1284,08
768,87	1243,12
769,04	1312,75
769,22	1302,51
769,40	1261,55
769,58	1310,70
769,75	1249,26
769,93	1277,93
770,11	1284,08
770,28	1257,45
770,46	1288,17
770,64	1304,56
770,82	1322,99
770,99	1269,74
771,17	1212,40
771,35	1239,02
771,53	1239,02
771,70	1279,98
771,88	1216,49
772,06	1249,26
772,23	1236,97
772,41	1236,97
772,59	1271,79
772,77	1267,69
772,94	1220,59
773,12	1298,41
773,30	1304,56
773,47	1241,07
773,65	1279,98
773,83	1279,98
774,01	1261,55
774,18	1220,59
774,36	1275,88
774,54	1247,21
774,71	1228,78
774,89	1241,07
775,07	1202,16
775,24	1322,99
775,42	1296,36
775,60	1290,22
775,78	1196,01
775,95	1232,88
776,13	1249,26
776,31	1230,83
776,48	1288,17
776,66	1216,49
776,84	1259,50
777,01	1298,41
777,19	1306,60
777,37	1279,98
777,54	1247,21
777,72	1302,51
777,90	1284,08
778,07	1261,55
778,25	1302,51
778,43	1263,60
778,60	1224,69
778,78	1282,03
778,96	1232,88
779,13	1255,40
779,31	1312,75
779,49	1257,45
779,66	1267,69
779,84	1261,55
780,01	1284,08
780,19	1271,79
780,37	1279,98
780,54	1265,64
780,72	1275,88
780,90	1302,51
781,07	1271,79
781,25	1286,12
781,43	1226,73
781,60	1286,12
781,78	1294,32
781,95	1273,84
782,13	1259,50
782,31	1236,97
782,48	1257,45
782,66	1331,18
782,83	1290,22
783,01	1314,80
783,19	1253,36
783,36	1259,50
783,54	1214,45
783,72	1263,60
783,89	1239,02
784,07	1255,40
784,24	1253,36
784,42	1243,12
784,60	1273,84
784,77	1255,40
784,95	1202,16
785,12	1202,16
785,30	1261,55
785,47	1275,88
785,65	1255,40
785,83	1292,27
786,00	1251,31
786,18	1308,65
786,35	1304,56
786,53	1232,88
786,71	1245,16
786,88	1251,31
787,06	1253,36
787,23	1310,70
787,41	1349,61
787,58	1234,93
787,76	1241,07
787,94	1198,06
788,11	1329,13
788,29	1265,64
788,46	1232,88
788,64	1220,59
788,81	1284,08
788,99	1241,07
789,16	1263,60
789,34	1275,88
789,52	1261,55
789,69	1253,36
789,87	1300,46
790,04	1267,69
790,22	1208,30
790,39	1298,41
790,57	1249,26
790,74	1277,93
790,92	1230,83
791,09	1284,08
791,27	1245,16
791,44	1257,45
791,62	1255,40
791,79	1288,17
791,97	1265,64
792,15	1273,84
792,32	1241,07
792,50	1241,07
792,67	1294,32
792,85	1277,93
793,02	1261,55
793,20	1279,98
793,37	1282,03
793,55	1286,12
793,72	1206,25
793,90	1271,79
794,07	1196,01
794,25	1253,36
794,42	1273,84
794,60	1193,97
794,77	1361,90
794,95	1210,35
795,12	1216,49
795,30	1243,12
795,47	1271,79
795,65	1267,69
795,82	1290,22
796,00	1273,84
796,17	1282,03
796,34	1226,73
796,52	1277,93
796,69	1290,22
796,87	1329,13
797,04	1257,45
797,22	1251,31
797,39	1345,52
797,57	1275,88
797,74	1325,04
797,92	1243,12
798,09	1306,60
798,27	1286,12
798,44	1308,65
798,62	1222,64
798,79	1298,41
798,96	1302,51
799,14	1267,69
799,31	1282,03
799,49	1327,08
799,66	1263,60
799,84	1169,39
800,01	1275,88
800,19	1312,75
800,36	1251,31
800,53	1208,30
800,71	1224,69
800,88	1331,18
801,06	1265,64
801,23	1247,21
801,41	1148,91
801,58	1243,12
801,75	1302,51
801,93	1265,64
802,10	1241,07
802,28	1327,08
802,45	1245,16
802,63	1282,03
802,80	1179,63
802,97	1282,03
803,15	1220,59
803,32	1269,74
803,50	1363,95
803,67	1304,56
803,84	1200,11
804,02	1335,28
804,19	1298,41
804,37	1224,69
804,54	1247,21
804,71	1216,49
804,89	1236,97
805,06	1279,98
805,24	1296,36
805,41	1193,97
805,58	1245,16
805,76	1255,40
805,93	1292,27
806,10	1216,49
806,28	1196,01
806,45	1284,08
806,63	1294,32
806,80	1273,84
806,97	1300,46
807,15	1286,12
807,32	1183,73
807,49	1239,02
807,67	1234,93
807,84	1226,73
808,01	1265,64
808,19	1261,55
808,36	1355,76
808,54	1249,26
808,71	1267,69
808,88	1269,74
809,06	1279,98
809,23	1271,79
809,40	1294,32
809,58	1220,59
809,75	1236,97
809,92	1271,79
810,10	1234,93
810,27	1245,16
810,44	1333,23
810,62	1290,22
810,79	1173,49
810,96	1294,32
811,14	1279,98
811,31	1228,78
811,48	1259,50
811,66	1222,64
811,83	1214,45
812,00	1282,03
812,18	1232,88
812,35	1261,55
812,52	1236,97
812,69	1286,12
812,87	1269,74
813,04	1318,89
813,21	1312,75
813,39	1259,50
813,56	1275,88
813,73	1267,69
813,91	1214,45
814,08	1306,60
814,25	1253,36
814,42	1316,84
814,60	1257,45
814,77	1212,40
814,94	1300,46
815,12	1277,93
815,29	1341,42
815,46	1302,51
815,63	1224,69
815,81	1273,84
815,98	1292,27
816,15	1275,88
816,33	1181,68
816,50	1249,26
816,67	1255,40
816,84	1275,88
817,02	1296,36
817,19	1288,17
817,36	1300,46
817,53	1273,84
817,71	1292,27
817,88	1372,14
818,05	1267,69
818,22	1187,82
818,40	1353,71
818,57	1304,56
818,74	1257,45
818,91	1230,83
819,09	1214,45
819,26	1269,74
819,43	1226,73
819,60	1222,64
819,78	1296,36
819,95	1306,60
820,12	1169,39
820,29	1288,17
820,47	1261,55
820,64	1222,64
820,81	1214,45
820,98	1218,54
821,15	1257,45
821,33	1230,83
821,50	1232,88
821,67	1226,73
821,84	1208,30
822,02	1296,36
822,19	1329,13
822,36	1259,50
822,53	1212,40
822,70	1284,08
822,88	1183,73
823,05	1302,51
823,22	1261,55
823,39	1298,41
823,56	1263,60
823,74	1255,40
823,91	1308,65
824,08	1253,36
824,25	1271,79
824,42	1265,64
824,60	1249,26
824,77	1296,36
824,94	1320,94
825,11	1230,83
825,28	1275,88
825,45	1269,74
825,63	1269,74
825,80	1273,84
825,97	1306,60
826,14	1239,02
826,31	1236,97
826,48	1286,12
826,66	1261,55
826,83	1243,12
827,00	1290,22
827,17	1269,74
827,34	1228,78
827,51	1296,36
827,69	1288,17
827,86	1249,26
828,03	1341,42
828,20	1288,17
828,37	1228,78
828,54	1241,07
828,71	1275,88
828,89	1296,36
829,06	1216,49
829,23	1298,41
829,40	1212,40
829,57	1363,95
829,74	1288,17
829,91	1253,36
830,09	1259,50
830,26	1214,45
830,43	1310,70
830,60	1304,56
830,77	1339,37
830,94	1226,73
831,11	1279,98
831,28	1284,08
831,46	1198,06
831,63	1279,98
831,80	1308,65
831,97	1214,45
832,14	1312,75
832,31	1294,32
832,48	1300,46
832,65	1230,83
832,82	1302,51
832,99	1232,88
833,17	1320,94
833,34	1243,12
833,51	1230,83
833,68	1200,11
833,85	1257,45
834,02	1380,33
834,19	1286,12
834,36	1327,08
834,53	1257,45
834,70	1255,40
834,87	1290,22
835,04	1302,51
835,22	1220,59
835,39	1310,70
835,56	1286,12
835,73	1245,16
835,90	1282,03
836,07	1265,64
836,24	1247,21
836,41	1314,80
836,58	1288,17
836,75	1257,45
836,92	1236,97
837,09	1277,93
837,26	1259,50
837,43	1347,56
837,60	1292,27
837,77	1288,17
837,94	1255,40
838,12	1247,21
838,29	1288,17
838,46	1224,69
838,63	1275,88
838,80	1314,80
838,97	1288,17
839,14	1294,32
839,31	1372,14
839,48	1341,42
839,65	1304,56
839,82	1273,84
839,99	1247,21
840,16	1204,21
840,33	1284,08
840,50	1304,56
840,67	1349,61
840,84	1271,79
841,01	1296,36
841,18	1232,88
841,35	1292,27
841,52	1255,40
841,69	1247,21
841,86	1263,60
842,03	1243,12
842,20	1294,32
842,37	1212,40
842,54	1284,08
842,71	1269,74
842,88	1337,32
843,05	1290,22
843,22	1232,88
843,39	1282,03
843,56	1255,40
843,73	1206,25
843,90	1279,98
844,07	1255,40
844,24	1294,32
844,41	1193,97
844,58	1265,64
844,75	1222,64
844,92	1212,40
845,09	1322,99
845,26	1277,93
845,43	1269,74
845,60	1208,30
845,77	1277,93
845,94	1193,97
846,10	1286,12
846,27	1273,84
846,44	1245,16
846,61	1251,31
846,78	1216,49
846,95	1310,70
847,12	1302,51
847,29	1294,32
847,46	1228,78
847,63	1216,49
847,80	1251,31
847,97	1239,02
848,14	1265,64
848,31	1298,41
848,48	1204,21
848,65	1282,03
848,82	1187,82
848,98	1298,41
849,15	1220,59
849,32	1216,49
849,49	1236,97
849,66	1318,89
849,83	1314,80
850,00	1239,02
850,17	1304,56
850,34	1304,56
850,51	1298,41
850,68	1198,06
850,85	1339,37
851,01	1265,64
851,18	1230,83
851,35	1224,69
851,52	1245,16
851,69	1273,84
851,86	1255,40
852,03	1239,02
852,20	1251,31
852,37	1288,17
852,53	1308,65
852,70	1349,61
852,87	1226,73
853,04	1314,80
853,21	1271,79
853,38	1259,50
853,55	1288,17
853,72	1245,16
853,89	1257,45
854,05	1265,64
854,22	1267,69
854,39	1284,08
854,56	1193,97
854,73	1202,16
854,90	1288,17
855,07	1214,45
855,23	1304,56
855,40	1331,18
855,57	1327,08
855,74	1298,41
855,91	1284,08
856,08	1257,45
856,25	1279,98
856,41	1298,41
856,58	1269,74
856,75	1251,31
856,92	1212,40
857,09	1236,97
857,26	1290,22
857,42	1296,36
857,59	1327,08
857,76	1298,41
857,93	1249,26
858,10	1236,97
858,27	1239,02
858,43	1302,51
858,60	1175,53
858,77	1261,55
858,94	1259,50
859,11	1236,97
859,27	1290,22
859,44	1228,78
859,61	1284,08
859,78	1232,88
859,95	1226,73
860,12	1296,36
860,28	1271,79
860,45	1228,78
860,62	1265,64
860,79	1282,03
860,95	1251,31
861,12	1298,41
861,29	1198,06
861,46	1322,99
861,63	1304,56
861,79	1239,02
861,96	1251,31
862,13	1306,60
862,30	1267,69
862,47	1327,08
862,63	1320,94
862,80	1259,50
862,97	1214,45
863,14	1314,80
863,30	1208,30
863,47	1304,56
863,64	1312,75
863,81	1366,00
863,97	1214,45
864,14	1351,66
864,31	1183,73
864,48	1263,60
864,65	1253,36
864,81	1259,50
864,98	1271,79
865,15	1290,22
865,32	1232,88
865,48	1249,26
865,65	1277,93
865,82	1312,75
865,98	1247,21
866,15	1271,79
866,32	1224,69
866,49	1255,40
866,65	1239,02
866,82	1298,41
866,99	1251,31
867,16	1257,45
867,32	1241,07
867,49	1286,12
867,66	1284,08
867,83	1243,12
867,99	1275,88
868,16	1212,40
868,33	1304,56
868,49	1304,56
868,66	1183,73
868,83	1261,55
868,99	1288,17
869,16	1345,52
869,33	1261,55
869,50	1253,36
869,66	1261,55
869,83	1329,13
870,00	1208,30
870,16	1236,97
870,33	1286,12
870,50	1310,70
870,66	1216,49
870,83	1257,45
871,00	1345,52
871,17	1288,17
871,33	1255,40
871,50	1236,97
871,67	1312,75
871,83	1357,80
872,00	1288,17
872,17	1259,50
872,33	1337,32
872,50	1257,45
872,67	1212,40
872,83	1279,98
873,00	1255,40
873,17	1335,28
873,33	1302,51
873,50	1241,07
873,67	1251,31
873,83	1306,60
874,00	1261,55
874,16	1265,64
874,33	1263,60
874,50	1222,64
874,66	1304,56
874,83	1216,49
875,00	1267,69
875,16	1343,47
875,33	1232,88
875,50	1249,26
875,66	1245,16
875,83	1296,36
875,99	1249,26
876,16	1265,64
876,33	1366,00
876,49	1253,36
876,66	1245,16
876,83	1232,88
876,99	1265,64
877,16	1310,70
877,32	1249,26
877,49	1259,50
877,66	1282,03
877,82	1294,32
877,99	1183,73
878,15	1253,36
878,32	1298,41
878,49	1320,94
878,65	1320,94
878,82	1239,02
878,98	1191,92
879,15	1347,56
879,32	1265,64
879,48	1343,47
879,65	1259,50
879,81	1259,50
879,98	1267,69
880,15	1253,36
880,31	1327,08
880,48	1239,02
880,64	1236,97
880,81	1243,12
880,97	1251,31
881,14	1204,21
881,31	1185,77
881,47	1220,59
881,64	1249,26
881,80	1269,74
881,97	1275,88
882,13	1251,31
882,30	1302,51
882,47	1255,40
882,63	1230,83
882,80	1282,03
882,96	1259,50
883,13	1267,69
883,29	1261,55
883,46	1286,12
883,62	1247,21
883,79	1282,03
883,95	1239,02
884,12	1327,08
884,29	1312,75
884,45	1214,45
884,62	1265,64
884,78	1259,50
884,95	1218,54
885,11	1212,40
885,28	1298,41
885,44	1222,64
885,61	1234,93
885,77	1271,79
885,94	1259,50
886,10	1263,60
886,27	1363,95
886,43	1282,03
886,60	1202,16
886,76	1318,89
886,93	1304,56
887,09	1265,64
887,26	1265,64
887,42	1245,16
887,59	1275,88
887,75	1191,92
887,92	1265,64
888,08	1329,13
888,25	1269,74
888,41	1202,16
888,58	1228,78
888,74	1284,08
888,91	1292,27
>>>>>End Processed Spectral Data<<<<<
