SpectraSuite Data File
++++++++++++++++++++++++++++++++++++
Date: Sun Apr 03 13:49:04 CEST 2016
User: root
Dark Spectrum Present: No
Reference Spectrum Present: No
Number of Sampled Component Spectra: 1
Spectrometers: USB4C02835
Integration Time (usec): 10000 (USB4C02835)
Spectra Averaged: 1 (USB4C02835)
Boxcar Smoothing: 0 (USB4C02835)
Correct for Electrical Dark: No (USB4C02835)
Strobe/Lamp Enabled: No (USB4C02835)
Correct for Detector Non-linearity: No (USB4C02835)
Correct for Stray Light: No (USB4C02835)
Number of Pixels in Processed Spectrum: 3648
>>>>>Begin Processed Spectral Data<<<<<
177,47	1191,92
177,69	1191,92
177,91	1191,92
178,13	1226,73
178,36	1296,36
178,58	1300,46
178,80	1263,60
179,02	1294,32
179,24	1275,88
179,46	1286,12
179,68	1304,56
179,90	1302,51
180,13	1249,26
180,35	1331,18
180,57	1232,88
180,79	1198,06
181,01	1271,79
181,23	1236,97
181,45	1224,69
181,67	1279,98
181,90	1363,95
182,12	1239,02
182,34	1247,21
182,56	1298,41
182,78	1196,01
183,00	1282,03
183,22	1320,94
183,44	1253,36
183,66	1296,36
183,89	1298,41
184,11	1314,80
184,33	1239,02
184,55	1306,60
184,77	1241,07
184,99	1314,80
185,21	1277,93
185,43	1322,99
185,65	1228,78
185,87	1288,17
186,10	1187,82
186,32	1284,08
186,54	1310,70
186,76	1263,60
186,98	1251,31
187,20	1292,27
187,42	1269,74
187,64	1220,59
187,86	1306,60
188,08	1347,56
188,30	1216,49
188,52	1290,22
188,75	1322,99
188,97	1271,79
189,19	1265,64
189,41	1249,26
189,63	1269,74
189,85	1253,36
190,07	1292,27
190,29	1353,71
190,51	1304,56
190,73	1267,69
190,95	1298,41
191,17	1298,41
191,39	1228,78
191,61	1230,83
191,84	1277,93
192,06	1279,98
192,28	1241,07
192,50	1255,40
192,72	1261,55
192,94	1259,50
193,16	1296,36
193,38	1302,51
193,60	1243,12
193,82	1288,17
194,04	1243,12
194,26	1198,06
194,48	1224,69
194,70	1263,60
194,92	1222,64
195,14	1224,69
195,36	1202,16
195,58	1308,65
195,80	1261,55
196,02	1175,53
196,24	1234,93
196,46	1359,85
196,69	1271,79
196,91	1298,41
197,13	1243,12
197,35	1318,89
197,57	1269,74
197,79	1220,59
198,01	1310,70
198,23	1259,50
198,45	1294,32
198,67	1267,69
198,89	1269,74
199,11	1277,93
199,33	1339,37
199,55	1277,93
199,77	1239,02
199,99	1300,46
200,21	1288,17
200,43	1277,93
200,65	1322,99
200,87	1263,60
201,09	1333,23
201,31	1273,84
201,53	1337,32
201,75	1216,49
201,97	1239,02
202,19	1263,60
202,41	1251,31
202,63	1308,65
202,85	1267,69
203,07	1288,17
203,29	1261,55
203,51	1368,04
203,73	1269,74
203,95	1341,42
204,17	1267,69
204,39	1220,59
204,61	1255,40
204,83	1337,32
205,05	1318,89
205,27	1290,22
205,49	1302,51
205,71	1255,40
205,93	1304,56
206,15	1318,89
206,37	1341,42
206,59	1298,41
206,81	1288,17
207,03	1251,31
207,25	1306,60
207,47	1312,75
207,69	1253,36
207,91	1284,08
208,13	1183,73
208,34	1282,03
208,56	1228,78
208,78	1296,36
209,00	1253,36
209,22	1288,17
209,44	1267,69
209,66	1249,26
209,88	1191,92
210,10	1259,50
210,32	1241,07
210,54	1290,22
210,76	1224,69
210,98	1329,13
211,20	1189,87
211,42	1312,75
211,64	1306,60
211,86	1224,69
212,08	1226,73
212,30	1310,70
212,52	1284,08
212,74	1169,39
212,96	1290,22
213,17	1302,51
213,39	1249,26
213,61	1288,17
213,83	1230,83
214,05	1239,02
214,27	1325,04
214,49	1312,75
214,71	1306,60
214,93	1275,88
215,15	1286,12
215,37	1302,51
215,59	1298,41
215,81	1343,47
216,03	1243,12
216,24	1232,88
216,46	1249,26
216,68	1222,64
216,90	1208,30
217,12	1239,02
217,34	1259,50
217,56	1263,60
217,78	1224,69
218,00	1284,08
218,22	1294,32
218,44	1265,64
218,66	1325,04
218,87	1292,27
219,09	1294,32
219,31	1331,18
219,53	1259,50
219,75	1333,23
219,97	1265,64
220,19	1265,64
220,41	1320,94
220,63	1259,50
220,85	1255,40
221,06	1296,36
221,28	1261,55
221,50	1347,56
221,72	1284,08
221,94	1277,93
222,16	1275,88
222,38	1327,08
222,60	1257,45
222,82	1265,64
223,03	1273,84
223,25	1232,88
223,47	1245,16
223,69	1298,41
223,91	1247,21
224,13	1273,84
224,35	1259,50
224,57	1345,52
224,78	1232,88
225,00	1191,92
225,22	1212,40
225,44	1236,97
225,66	1263,60
225,88	1224,69
226,10	1282,03
226,32	1314,80
226,53	1302,51
226,75	1296,36
226,97	1261,55
227,19	1259,50
227,41	1296,36
227,63	1263,60
227,85	1282,03
228,06	1312,75
228,28	1331,18
228,50	1312,75
228,72	1308,65
228,94	1337,32
229,16	1236,97
229,37	1286,12
229,59	1243,12
229,81	1271,79
230,03	1337,32
230,25	1175,53
230,47	1284,08
230,69	1273,84
230,90	1345,52
231,12	1282,03
231,34	1298,41
231,56	1284,08
231,78	1259,50
232,00	1208,30
232,21	1224,69
232,43	1306,60
232,65	1263,60
232,87	1212,40
233,09	1370,09
233,30	1269,74
233,52	1322,99
233,74	1286,12
233,96	1236,97
234,18	1236,97
234,40	1255,40
234,61	1355,76
234,83	1286,12
235,05	1282,03
235,27	1318,89
235,49	1230,83
235,70	1292,27
235,92	1351,66
236,14	1245,16
236,36	1290,22
236,58	1282,03
236,79	1257,45
237,01	1288,17
237,23	1279,98
237,45	1286,12
237,67	1243,12
237,88	1284,08
238,10	1333,23
238,32	1325,04
238,54	1277,93
238,76	1261,55
238,97	1292,27
239,19	1210,35
239,41	1251,31
239,63	1230,83
239,85	1265,64
240,06	1228,78
240,28	1239,02
240,50	1286,12
240,72	1386,47
240,93	1224,69
241,15	1329,13
241,37	1312,75
241,59	1304,56
241,81	1310,70
242,02	1259,50
242,24	1220,59
242,46	1226,73
242,68	1255,40
242,89	1302,51
243,11	1304,56
243,33	1329,13
243,55	1228,78
243,76	1308,65
243,98	1300,46
244,20	1347,56
244,42	1318,89
244,64	1404,91
244,85	1251,31
245,07	1245,16
245,29	1284,08
245,51	1355,76
245,72	1310,70
245,94	1275,88
246,16	1306,60
246,38	1331,18
246,59	1263,60
246,81	1220,59
247,03	1292,27
247,24	1275,88
247,46	1277,93
247,68	1226,73
247,90	1255,40
248,11	1247,21
248,33	1251,31
248,55	1228,78
248,77	1333,23
248,98	1282,03
249,20	1337,32
249,42	1304,56
249,64	1265,64
249,85	1290,22
250,07	1286,12
250,29	1370,09
250,50	1265,64
250,72	1271,79
250,94	1200,11
251,16	1228,78
251,37	1316,84
251,59	1210,35
251,81	1275,88
252,02	1271,79
252,24	1273,84
252,46	1251,31
252,68	1288,17
252,89	1294,32
253,11	1308,65
253,33	1339,37
253,54	1247,21
253,76	1214,45
253,98	1236,97
254,20	1310,70
254,41	1259,50
254,63	1316,84
254,85	1392,62
255,06	1316,84
255,28	1259,50
255,50	1267,69
255,71	1193,97
255,93	1279,98
256,15	1269,74
256,36	1370,09
256,58	1263,60
256,80	1236,97
257,02	1177,58
257,23	1296,36
257,45	1265,64
257,67	1282,03
257,88	1261,55
258,10	1320,94
258,32	1271,79
258,53	1304,56
258,75	1275,88
258,97	1269,74
259,18	1312,75
259,40	1310,70
259,62	1245,16
259,83	1236,97
260,05	1294,32
260,27	1296,36
260,48	1284,08
260,70	1271,79
260,92	1271,79
261,13	1275,88
261,35	1292,27
261,57	1275,88
261,78	1159,15
262,00	1230,83
262,22	1249,26
262,43	1204,21
262,65	1314,80
262,86	1265,64
263,08	1267,69
263,30	1329,13
263,51	1320,94
263,73	1208,30
263,95	1290,22
264,16	1329,13
264,38	1363,95
264,60	1259,50
264,81	1343,47
265,03	1255,40
265,25	1230,83
265,46	1241,07
265,68	1284,08
265,89	1351,66
266,11	1292,27
266,33	1269,74
266,54	1271,79
266,76	1271,79
266,98	1349,61
267,19	1269,74
267,41	1241,07
267,62	1196,01
267,84	1251,31
268,06	1290,22
268,27	1228,78
268,49	1290,22
268,70	1257,45
268,92	1312,75
269,14	1306,60
269,35	1290,22
269,57	1259,50
269,79	1187,82
270,00	1234,93
270,22	1331,18
270,43	1327,08
270,65	1236,97
270,87	1257,45
271,08	1269,74
271,30	1243,12
271,51	1259,50
271,73	1247,21
271,95	1241,07
272,16	1263,60
272,38	1333,23
272,59	1306,60
272,81	1406,95
273,02	1279,98
273,24	1308,65
273,46	1275,88
273,67	1296,36
273,89	1153,01
274,10	1298,41
274,32	1200,11
274,54	1320,94
274,75	1245,16
274,97	1271,79
275,18	1304,56
275,40	1347,56
275,61	1286,12
275,83	1306,60
276,05	1296,36
276,26	1273,84
276,48	1150,96
276,69	1279,98
276,91	1300,46
277,12	1259,50
277,34	1284,08
277,55	1271,79
277,77	1247,21
277,99	1251,31
278,20	1294,32
278,42	1308,65
278,63	1288,17
278,85	1259,50
279,06	1247,21
279,28	1249,26
279,49	1273,84
279,71	1271,79
279,93	1296,36
280,14	1347,56
280,36	1271,79
280,57	1279,98
280,79	1271,79
281,00	1325,04
281,22	1294,32
281,43	1243,12
281,65	1273,84
281,86	1308,65
282,08	1318,89
282,29	1290,22
282,51	1277,93
282,73	1279,98
282,94	1263,60
283,16	1263,60
283,37	1261,55
283,59	1273,84
283,80	1261,55
284,02	1304,56
284,23	1304,56
284,45	1275,88
284,66	1282,03
284,88	1304,56
285,09	1292,27
285,31	1255,40
285,52	1300,46
285,74	1284,08
285,95	1316,84
286,17	1288,17
286,38	1241,07
286,60	1239,02
286,81	1224,69
287,03	1236,97
287,24	1271,79
287,46	1331,18
287,67	1296,36
287,89	1226,73
288,10	1273,84
288,32	1267,69
288,53	1296,36
288,75	1271,79
288,96	1337,32
289,18	1263,60
289,39	1318,89
289,61	1224,69
289,82	1306,60
290,04	1290,22
290,25	1368,04
290,47	1255,40
290,68	1310,70
290,90	1308,65
291,11	1247,21
291,33	1325,04
291,54	1257,45
291,76	1306,60
291,97	1247,21
292,18	1253,36
292,40	1259,50
292,61	1296,36
292,83	1265,64
293,04	1279,98
293,26	1306,60
293,47	1296,36
293,69	1247,21
293,90	1337,32
294,12	1257,45
294,33	1216,49
294,55	1265,64
294,76	1298,41
294,97	1249,26
295,19	1263,60
295,40	1398,76
295,62	1245,16
295,83	1241,07
296,05	1306,60
296,26	1230,83
296,48	1304,56
296,69	1253,36
296,90	1286,12
297,12	1247,21
297,33	1275,88
297,55	1249,26
297,76	1210,35
297,98	1288,17
298,19	1263,60
298,41	1169,39
298,62	1271,79
298,83	1249,26
299,05	1267,69
299,26	1275,88
299,48	1312,75
299,69	1273,84
299,90	1279,98
300,12	1249,26
300,33	1279,98
300,55	1232,88
300,76	1302,51
300,98	1271,79
301,19	1228,78
301,40	1288,17
301,62	1275,88
301,83	1296,36
302,05	1290,22
302,26	1286,12
302,47	1288,17
302,69	1171,44
302,90	1322,99
303,12	1220,59
303,33	1302,51
303,54	1298,41
303,76	1288,17
303,97	1302,51
304,19	1322,99
304,40	1306,60
304,61	1200,11
304,83	1296,36
305,04	1212,40
305,26	1339,37
305,47	1306,60
305,68	1378,28
305,90	1234,93
306,11	1253,36
306,33	1302,51
306,54	1228,78
306,75	1316,84
306,97	1296,36
307,18	1308,65
307,39	1384,43
307,61	1314,80
307,82	1320,94
308,04	1263,60
308,25	1189,87
308,46	1296,36
308,68	1228,78
308,89	1349,61
309,10	1259,50
309,32	1310,70
309,53	1218,54
309,74	1306,60
309,96	1292,27
310,17	1265,64
310,39	1286,12
310,60	1296,36
310,81	1245,16
311,03	1322,99
311,24	1255,40
311,45	1271,79
311,67	1245,16
311,88	1300,46
312,09	1263,60
312,31	1200,11
312,52	1314,80
312,73	1265,64
312,95	1265,64
313,16	1322,99
313,37	1329,13
313,59	1189,87
313,80	1300,46
314,01	1298,41
314,23	1247,21
314,44	1325,04
314,65	1302,51
314,87	1257,45
315,08	1308,65
315,29	1279,98
315,51	1325,04
315,72	1255,40
315,93	1294,32
316,15	1249,26
316,36	1255,40
316,57	1263,60
316,79	1304,56
317,00	1304,56
317,21	1277,93
317,43	1296,36
317,64	1261,55
317,85	1331,18
318,07	1228,78
318,28	1312,75
318,49	1228,78
318,70	1337,32
318,92	1261,55
319,13	1167,34
319,34	1271,79
319,56	1228,78
319,77	1257,45
319,98	1267,69
320,20	1273,84
320,41	1343,47
320,62	1271,79
320,83	1271,79
321,05	1277,93
321,26	1198,06
321,47	1226,73
321,69	1329,13
321,90	1312,75
322,11	1335,28
322,32	1261,55
322,54	1282,03
322,75	1279,98
322,96	1265,64
323,18	1263,60
323,39	1329,13
323,60	1275,88
323,81	1249,26
324,03	1204,21
324,24	1343,47
324,45	1189,87
324,66	1265,64
324,88	1312,75
325,09	1273,84
325,30	1290,22
325,52	1282,03
325,73	1282,03
325,94	1298,41
326,15	1210,35
326,37	1327,08
326,58	1234,93
326,79	1335,28
327,00	1200,11
327,22	1279,98
327,43	1320,94
327,64	1329,13
327,85	1388,52
328,07	1247,21
328,28	1265,64
328,49	1271,79
328,70	1284,08
328,92	1279,98
329,13	1247,21
329,34	1286,12
329,55	1337,32
329,76	1253,36
329,98	1300,46
330,19	1263,60
330,40	1236,97
330,61	1333,23
330,83	1239,02
331,04	1304,56
331,25	1312,75
331,46	1286,12
331,68	1261,55
331,89	1339,37
332,10	1294,32
332,31	1304,56
332,52	1261,55
332,74	1290,22
332,95	1318,89
333,16	1269,74
333,37	1351,66
333,58	1251,31
333,80	1269,74
334,01	1257,45
334,22	1269,74
334,43	1255,40
334,64	1239,02
334,86	1339,37
335,07	1206,25
335,28	1275,88
335,49	1286,12
335,70	1234,93
335,92	1232,88
336,13	1292,27
336,34	1308,65
336,55	1327,08
336,76	1269,74
336,98	1230,83
337,19	1196,01
337,40	1261,55
337,61	1325,04
337,82	1236,97
338,04	1288,17
338,25	1306,60
338,46	1249,26
338,67	1212,40
338,88	1253,36
339,09	1322,99
339,31	1255,40
339,52	1269,74
339,73	1265,64
339,94	1212,40
340,15	1331,18
340,36	1384,43
340,58	1259,50
340,79	1263,60
341,00	1341,42
341,21	1314,80
341,42	1353,71
341,63	1279,98
341,85	1224,69
342,06	1282,03
342,27	1239,02
342,48	1253,36
342,69	1306,60
342,90	1245,16
343,12	1277,93
343,33	1273,84
343,54	1228,78
343,75	1222,64
343,96	1302,51
344,17	1261,55
344,38	1288,17
344,60	1322,99
344,81	1247,21
345,02	1277,93
345,23	1284,08
345,44	1345,52
345,65	1304,56
345,86	1277,93
346,07	1347,56
346,29	1306,60
346,50	1255,40
346,71	1284,08
346,92	1241,07
347,13	1257,45
347,34	1290,22
347,55	1234,93
347,76	1253,36
347,98	1308,65
348,19	1279,98
348,40	1259,50
348,61	1226,73
348,82	1253,36
349,03	1261,55
349,24	1265,64
349,45	1359,85
349,66	1310,70
349,88	1216,49
350,09	1273,84
350,30	1288,17
350,51	1286,12
350,72	1298,41
350,93	1265,64
351,14	1337,32
351,35	1279,98
351,56	1255,40
351,77	1239,02
351,99	1265,64
352,20	1251,31
352,41	1353,71
352,62	1181,68
352,83	1249,26
353,04	1255,40
353,25	1316,84
353,46	1296,36
353,67	1259,50
353,88	1271,79
354,09	1224,69
354,30	1255,40
354,52	1255,40
354,73	1333,23
354,94	1288,17
355,15	1257,45
355,36	1282,03
355,57	1357,80
355,78	1263,60
355,99	1241,07
356,20	1294,32
356,41	1318,89
356,62	1269,74
356,83	1259,50
357,04	1214,45
357,25	1296,36
357,46	1341,42
357,68	1257,45
357,89	1220,59
358,10	1335,28
358,31	1265,64
358,52	1277,93
358,73	1337,32
358,94	1230,83
359,15	1265,64
359,36	1300,46
359,57	1263,60
359,78	1290,22
359,99	1218,54
360,20	1253,36
360,41	1267,69
360,62	1327,08
360,83	1279,98
361,04	1322,99
361,25	1236,97
361,46	1236,97
361,67	1304,56
361,88	1292,27
362,09	1193,97
362,30	1232,88
362,51	1298,41
362,72	1370,09
362,93	1341,42
363,14	1286,12
363,35	1302,51
363,56	1247,21
363,78	1333,23
363,99	1322,99
364,20	1286,12
364,41	1308,65
364,62	1286,12
364,83	1265,64
365,04	1304,56
365,25	1343,47
365,46	1271,79
365,67	1216,49
365,88	1339,37
366,09	1261,55
366,30	1267,69
366,51	1339,37
366,72	1300,46
366,93	1300,46
367,14	1284,08
367,35	1314,80
367,56	1308,65
367,77	1234,93
367,98	1347,56
368,18	1277,93
368,39	1302,51
368,60	1292,27
368,81	1282,03
369,02	1228,78
369,23	1236,97
369,44	1275,88
369,65	1253,36
369,86	1343,47
370,07	1253,36
370,28	1374,19
370,49	1255,40
370,70	1322,99
370,91	1288,17
371,12	1271,79
371,33	1275,88
371,54	1257,45
371,75	1255,40
371,96	1214,45
372,17	1282,03
372,38	1290,22
372,59	1284,08
372,80	1306,60
373,01	1273,84
373,22	1318,89
373,43	1206,25
373,64	1249,26
373,85	1306,60
374,06	1279,98
374,26	1284,08
374,47	1255,40
374,68	1239,02
374,89	1249,26
375,10	1267,69
375,31	1273,84
375,52	1245,16
375,73	1308,65
375,94	1253,36
376,15	1339,37
376,36	1284,08
376,57	1249,26
376,78	1339,37
376,99	1282,03
377,20	1218,54
377,40	1294,32
377,61	1259,50
377,82	1302,51
378,03	1232,88
378,24	1236,97
378,45	1263,60
378,66	1271,79
378,87	1282,03
379,08	1249,26
379,29	1292,27
379,50	1196,01
379,71	1294,32
379,91	1292,27
380,12	1282,03
380,33	1249,26
380,54	1294,32
380,75	1331,18
380,96	1292,27
381,17	1236,97
381,38	1243,12
381,59	1263,60
381,80	1343,47
382,00	1271,79
382,21	1345,52
382,42	1308,65
382,63	1277,93
382,84	1304,56
383,05	1306,60
383,26	1253,36
383,47	1296,36
383,68	1288,17
383,88	1255,40
384,09	1325,04
384,30	1263,60
384,51	1292,27
384,72	1284,08
384,93	1198,06
385,14	1255,40
385,35	1273,84
385,55	1224,69
385,76	1325,04
385,97	1310,70
386,18	1275,88
386,39	1265,64
386,60	1292,27
386,81	1298,41
387,02	1277,93
387,22	1290,22
387,43	1269,74
387,64	1298,41
387,85	1208,30
388,06	1261,55
388,27	1306,60
388,48	1300,46
388,68	1249,26
388,89	1259,50
389,10	1259,50
389,31	1249,26
389,52	1275,88
389,73	1267,69
389,93	1241,07
390,14	1288,17
390,35	1298,41
390,56	1249,26
390,77	1312,75
390,98	1316,84
391,18	1255,40
391,39	1261,55
391,60	1218,54
391,81	1255,40
392,02	1298,41
392,23	1239,02
392,43	1325,04
392,64	1292,27
392,85	1271,79
393,06	1322,99
393,27	1214,45
393,47	1226,73
393,68	1189,87
393,89	1214,45
394,10	1286,12
394,31	1259,50
394,52	1322,99
394,72	1251,31
394,93	1243,12
395,14	1257,45
395,35	1249,26
395,56	1249,26
395,76	1327,08
395,97	1251,31
396,18	1331,18
396,39	1279,98
396,60	1220,59
396,80	1312,75
397,01	1288,17
397,22	1253,36
397,43	1259,50
397,64	1327,08
397,84	1320,94
398,05	1347,56
398,26	1239,02
398,47	1271,79
398,67	1257,45
398,88	1308,65
399,09	1263,60
399,30	1279,98
399,51	1298,41
399,71	1288,17
399,92	1273,84
400,13	1267,69
400,34	1249,26
400,54	1296,36
400,75	1325,04
400,96	1265,64
401,17	1261,55
401,37	1290,22
401,58	1310,70
401,79	1359,85
402,00	1275,88
402,21	1241,07
402,41	1294,32
402,62	1218,54
402,83	1316,84
403,04	1216,49
403,24	1247,21
403,45	1290,22
403,66	1312,75
403,87	1304,56
404,07	1290,22
404,28	1253,36
404,49	1347,56
404,70	1275,88
404,90	1312,75
405,11	1279,98
405,32	1261,55
405,52	1269,74
405,73	1204,21
405,94	1279,98
406,15	1308,65
406,35	1302,51
406,56	1265,64
406,77	1327,08
406,98	1357,80
407,18	1269,74
407,39	1320,94
407,60	1288,17
407,80	1220,59
408,01	1298,41
408,22	1230,83
408,43	1234,93
408,63	1286,12
408,84	1290,22
409,05	1253,36
409,25	1312,75
409,46	1316,84
409,67	1241,07
409,88	1222,64
410,08	1216,49
410,29	1312,75
410,50	1183,73
410,70	1366,00
410,91	1320,94
411,12	1249,26
411,32	1189,87
411,53	1255,40
411,74	1314,80
411,95	1269,74
412,15	1310,70
412,36	1298,41
412,57	1269,74
412,77	1290,22
412,98	1337,32
413,19	1226,73
413,39	1267,69
413,60	1200,11
413,81	1318,89
414,01	1253,36
414,22	1353,71
414,43	1294,32
414,63	1257,45
414,84	1314,80
415,05	1308,65
415,25	1259,50
415,46	1265,64
415,67	1337,32
415,87	1314,80
416,08	1271,79
416,29	1279,98
416,49	1355,76
416,70	1267,69
416,91	1234,93
417,11	1284,08
417,32	1318,89
417,53	1279,98
417,73	1277,93
417,94	1320,94
418,15	1232,88
418,35	1300,46
418,56	1288,17
418,77	1341,42
418,97	1216,49
419,18	1216,49
419,38	1273,84
419,59	1228,78
419,80	1210,35
420,00	1282,03
420,21	1318,89
420,42	1253,36
420,62	1267,69
420,83	1298,41
421,04	1322,99
421,24	1277,93
421,45	1370,09
421,65	1265,64
421,86	1286,12
422,07	1259,50
422,27	1198,06
422,48	1271,79
422,69	1222,64
422,89	1198,06
423,10	1214,45
423,30	1267,69
423,51	1269,74
423,72	1312,75
423,92	1286,12
424,13	1279,98
424,33	1318,89
424,54	1339,37
424,75	1226,73
424,95	1322,99
425,16	1236,97
425,36	1327,08
425,57	1349,61
425,78	1310,70
425,98	1304,56
426,19	1228,78
426,39	1275,88
426,60	1339,37
426,81	1247,21
427,01	1290,22
427,22	1275,88
427,42	1261,55
427,63	1245,16
427,83	1220,59
428,04	1247,21
428,25	1249,26
428,45	1339,37
428,66	1298,41
428,86	1290,22
429,07	1191,92
429,28	1316,84
429,48	1263,60
429,69	1259,50
429,89	1351,66
430,10	1230,83
430,30	1339,37
430,51	1255,40
430,71	1273,84
430,92	1300,46
431,13	1306,60
431,33	1310,70
431,54	1253,36
431,74	1310,70
431,95	1343,47
432,15	1269,74
432,36	1298,41
432,56	1335,28
432,77	1232,88
432,98	1247,21
433,18	1298,41
433,39	1249,26
433,59	1320,94
433,80	1269,74
434,00	1273,84
434,21	1257,45
434,41	1249,26
434,62	1284,08
434,82	1288,17
435,03	1257,45
435,23	1284,08
435,44	1290,22
435,64	1273,84
435,85	1249,26
436,06	1286,12
436,26	1329,13
436,47	1290,22
436,67	1355,76
436,88	1269,74
437,08	1263,60
437,29	1253,36
437,49	1273,84
437,70	1269,74
437,90	1265,64
438,11	1247,21
438,31	1320,94
438,52	1335,28
438,72	1322,99
438,93	1306,60
439,13	1230,83
439,34	1351,66
439,54	1329,13
439,75	1232,88
439,95	1322,99
440,16	1380,33
440,36	1241,07
440,57	1161,20
440,77	1249,26
440,98	1351,66
441,18	1286,12
441,39	1241,07
441,59	1216,49
441,80	1253,36
442,00	1298,41
442,21	1275,88
442,41	1300,46
442,62	1286,12
442,82	1296,36
443,02	1288,17
443,23	1269,74
443,43	1308,65
443,64	1259,50
443,84	1273,84
444,05	1298,41
444,25	1253,36
444,46	1247,21
444,66	1300,46
444,87	1286,12
445,07	1279,98
445,28	1253,36
445,48	1347,56
445,69	1269,74
445,89	1288,17
446,09	1294,32
446,30	1273,84
446,50	1245,16
446,71	1292,27
446,91	1296,36
447,12	1236,97
447,32	1273,84
447,53	1279,98
447,73	1204,21
447,93	1347,56
448,14	1263,60
448,34	1286,12
448,55	1196,01
448,75	1306,60
448,96	1290,22
449,16	1290,22
449,36	1247,21
449,57	1277,93
449,77	1294,32
449,98	1271,79
450,18	1241,07
450,39	1329,13
450,59	1286,12
450,79	1312,75
451,00	1282,03
451,20	1302,51
451,41	1263,60
451,61	1265,64
451,81	1335,28
452,02	1292,27
452,22	1212,40
452,43	1202,16
452,63	1284,08
452,84	1277,93
453,04	1255,40
453,24	1316,84
453,45	1294,32
453,65	1304,56
453,86	1298,41
454,06	1318,89
454,26	1255,40
454,47	1320,94
454,67	1206,25
454,87	1271,79
455,08	1271,79
455,28	1292,27
455,49	1171,44
455,69	1271,79
455,89	1251,31
456,10	1279,98
456,30	1214,45
456,51	1228,78
456,71	1279,98
456,91	1230,83
457,12	1298,41
457,32	1294,32
457,52	1329,13
457,73	1290,22
457,93	1265,64
458,14	1230,83
458,34	1314,80
458,54	1271,79
458,75	1261,55
458,95	1222,64
459,15	1269,74
459,36	1234,93
459,56	1249,26
459,76	1312,75
459,97	1310,70
460,17	1245,16
460,37	1349,61
460,58	1286,12
460,78	1282,03
460,99	1300,46
461,19	1290,22
461,39	1243,12
461,60	1183,73
461,80	1191,92
462,00	1259,50
462,21	1261,55
462,41	1200,11
462,61	1277,93
462,82	1267,69
463,02	1294,32
463,22	1298,41
463,43	1302,51
463,63	1282,03
463,83	1241,07
464,04	1236,97
464,24	1269,74
464,44	1374,19
464,64	1298,41
464,85	1265,64
465,05	1220,59
465,25	1300,46
465,46	1249,26
465,66	1282,03
465,86	1245,16
466,07	1286,12
466,27	1269,74
466,47	1290,22
466,68	1218,54
466,88	1310,70
467,08	1284,08
467,29	1234,93
467,49	1271,79
467,69	1271,79
467,89	1286,12
468,10	1263,60
468,30	1327,08
468,50	1277,93
468,71	1253,36
468,91	1306,60
469,11	1304,56
469,31	1265,64
469,52	1284,08
469,72	1236,97
469,92	1304,56
470,13	1318,89
470,33	1214,45
470,53	1234,93
470,73	1327,08
470,94	1273,84
471,14	1335,28
471,34	1277,93
471,54	1294,32
471,75	1216,49
471,95	1290,22
472,15	1296,36
472,36	1224,69
472,56	1312,75
472,76	1271,79
472,96	1314,80
473,17	1241,07
473,37	1306,60
473,57	1253,36
473,77	1247,21
473,98	1310,70
474,18	1277,93
474,38	1302,51
474,58	1382,38
474,79	1294,32
474,99	1279,98
475,19	1294,32
475,39	1265,64
475,60	1210,35
475,80	1222,64
476,00	1296,36
476,20	1288,17
476,41	1214,45
476,61	1239,02
476,81	1239,02
477,01	1292,27
477,21	1284,08
477,42	1241,07
477,62	1302,51
477,82	1363,95
478,02	1306,60
478,23	1290,22
478,43	1214,45
478,63	1243,12
478,83	1224,69
479,03	1265,64
479,24	1236,97
479,44	1271,79
479,64	1357,80
479,84	1306,60
480,04	1257,45
480,25	1279,98
480,45	1255,40
480,65	1239,02
480,85	1222,64
481,06	1279,98
481,26	1302,51
481,46	1345,52
481,66	1251,31
481,86	1267,69
482,06	1259,50
482,27	1273,84
482,47	1275,88
482,67	1257,45
482,87	1261,55
483,07	1241,07
483,28	1286,12
483,48	1298,41
483,68	1183,73
483,88	1212,40
484,08	1294,32
484,29	1318,89
484,49	1318,89
484,69	1306,60
484,89	1318,89
485,09	1343,47
485,29	1239,02
485,50	1251,31
485,70	1259,50
485,90	1265,64
486,10	1333,23
486,30	1243,12
486,50	1294,32
486,71	1374,19
486,91	1259,50
487,11	1290,22
487,31	1298,41
487,51	1288,17
487,71	1312,75
487,91	1300,46
488,12	1189,87
488,32	1239,02
488,52	1255,40
488,72	1273,84
488,92	1255,40
489,12	1290,22
489,32	1206,25
489,53	1216,49
489,73	1265,64
489,93	1325,04
490,13	1277,93
490,33	1271,79
490,53	1208,30
490,73	1320,94
490,94	1333,23
491,14	1322,99
491,34	1298,41
491,54	1206,25
491,74	1402,86
491,94	1339,37
492,14	1224,69
492,34	1308,65
492,54	1282,03
492,75	1277,93
492,95	1265,64
493,15	1302,51
493,35	1263,60
493,55	1236,97
493,75	1294,32
493,95	1292,27
494,15	1273,84
494,35	1349,61
494,56	1269,74
494,76	1232,88
494,96	1314,80
495,16	1286,12
495,36	1204,21
495,56	1271,79
495,76	1200,11
495,96	1218,54
496,16	1304,56
496,36	1288,17
496,56	1312,75
496,77	1290,22
496,97	1230,83
497,17	1269,74
497,37	1380,33
497,57	1269,74
497,77	1310,70
497,97	1312,75
498,17	1261,55
498,37	1300,46
498,57	1277,93
498,77	1298,41
498,97	1241,07
499,17	1253,36
499,38	1302,51
499,58	1273,84
499,78	1202,16
499,98	1306,60
500,18	1247,21
500,38	1271,79
500,58	1253,36
500,78	1306,60
500,98	1306,60
501,18	1292,27
501,38	1249,26
501,58	1337,32
501,78	1263,60
501,98	1298,41
502,18	1306,60
502,38	1239,02
502,58	1277,93
502,78	1275,88
502,98	1300,46
503,18	1298,41
503,38	1320,94
503,59	1286,12
503,79	1265,64
503,99	1284,08
504,19	1228,78
504,39	1298,41
504,59	1292,27
504,79	1327,08
504,99	1304,56
505,19	1286,12
505,39	1288,17
505,59	1273,84
505,79	1206,25
505,99	1304,56
506,19	1273,84
506,39	1265,64
506,59	1257,45
506,79	1216,49
506,99	1271,79
507,19	1265,64
507,39	1220,59
507,59	1275,88
507,79	1310,70
507,99	1249,26
508,19	1261,55
508,39	1257,45
508,59	1251,31
508,79	1239,02
508,99	1351,66
509,19	1263,60
509,39	1265,64
509,59	1327,08
509,79	1306,60
509,99	1234,93
510,19	1282,03
510,39	1251,31
510,59	1320,94
510,79	1294,32
510,99	1279,98
511,19	1273,84
511,39	1302,51
511,59	1288,17
511,79	1279,98
511,99	1232,88
512,19	1282,03
512,38	1339,37
512,58	1247,21
512,78	1292,27
512,98	1202,16
513,18	1282,03
513,38	1269,74
513,58	1290,22
513,78	1224,69
513,98	1232,88
514,18	1284,08
514,38	1396,71
514,58	1341,42
514,78	1267,69
514,98	1312,75
515,18	1239,02
515,38	1306,60
515,58	1306,60
515,78	1265,64
515,98	1296,36
516,18	1298,41
516,38	1304,56
516,57	1239,02
516,77	1333,23
516,97	1267,69
517,17	1284,08
517,37	1236,97
517,57	1277,93
517,77	1320,94
517,97	1249,26
518,17	1325,04
518,37	1282,03
518,57	1261,55
518,77	1241,07
518,97	1253,36
519,16	1320,94
519,36	1325,04
519,56	1253,36
519,76	1226,73
519,96	1247,21
520,16	1290,22
520,36	1320,94
520,56	1294,32
520,76	1232,88
520,96	1247,21
521,16	1269,74
521,35	1275,88
521,55	1255,40
521,75	1263,60
521,95	1259,50
522,15	1251,31
522,35	1277,93
522,55	1267,69
522,75	1288,17
522,95	1239,02
523,14	1282,03
523,34	1275,88
523,54	1255,40
523,74	1355,76
523,94	1292,27
524,14	1273,84
524,34	1257,45
524,54	1318,89
524,73	1255,40
524,93	1296,36
525,13	1298,41
525,33	1241,07
525,53	1329,13
525,73	1249,26
525,93	1220,59
526,13	1200,11
526,32	1290,22
526,52	1273,84
526,72	1320,94
526,92	1212,40
527,12	1273,84
527,32	1269,74
527,52	1247,21
527,71	1267,69
527,91	1343,47
528,11	1226,73
528,31	1312,75
528,51	1259,50
528,71	1257,45
528,90	1341,42
529,10	1265,64
529,30	1325,04
529,50	1165,29
529,70	1322,99
529,90	1200,11
530,09	1212,40
530,29	1234,93
530,49	1253,36
530,69	1329,13
530,89	1302,51
531,09	1327,08
531,28	1269,74
531,48	1271,79
531,68	1249,26
531,88	1230,83
532,08	1236,97
532,28	1273,84
532,47	1322,99
532,67	1277,93
532,87	1259,50
533,07	1355,76
533,27	1331,18
533,46	1247,21
533,66	1314,80
533,86	1282,03
534,06	1288,17
534,26	1226,73
534,45	1251,31
534,65	1316,84
534,85	1265,64
535,05	1282,03
535,25	1300,46
535,44	1212,40
535,64	1261,55
535,84	1271,79
536,04	1286,12
536,24	1304,56
536,43	1224,69
536,63	1255,40
536,83	1322,99
537,03	1316,84
537,22	1261,55
537,42	1273,84
537,62	1226,73
537,82	1269,74
538,02	1288,17
538,21	1306,60
538,41	1259,50
538,61	1222,64
538,81	1292,27
539,00	1230,83
539,20	1212,40
539,40	1294,32
539,60	1322,99
539,79	1294,32
539,99	1261,55
540,19	1243,12
540,39	1269,74
540,58	1286,12
540,78	1200,11
540,98	1302,51
541,18	1257,45
541,37	1230,83
541,57	1296,36
541,77	1208,30
541,97	1173,49
542,16	1302,51
542,36	1320,94
542,56	1257,45
542,76	1263,60
542,95	1316,84
543,15	1259,50
543,35	1253,36
543,54	1298,41
543,74	1316,84
543,94	1284,08
544,14	1181,68
544,33	1318,89
544,53	1335,28
544,73	1275,88
544,93	1265,64
545,12	1284,08
545,32	1247,21
545,52	1329,13
545,71	1318,89
545,91	1224,69
546,11	1257,45
546,30	1294,32
546,50	1306,60
546,70	1273,84
546,90	1257,45
547,09	1214,45
547,29	1312,75
547,49	1302,51
547,68	1204,21
547,88	1257,45
548,08	1265,64
548,27	1374,19
548,47	1298,41
548,67	1286,12
548,87	1282,03
549,06	1257,45
549,26	1288,17
549,46	1277,93
549,65	1282,03
549,85	1298,41
550,05	1277,93
550,24	1316,84
550,44	1257,45
550,64	1279,98
550,83	1288,17
551,03	1341,42
551,23	1245,16
551,42	1224,69
551,62	1282,03
551,82	1183,73
552,01	1329,13
552,21	1306,60
552,41	1275,88
552,60	1322,99
552,80	1277,93
553,00	1259,50
553,19	1261,55
553,39	1239,02
553,59	1257,45
553,78	1247,21
553,98	1284,08
554,17	1290,22
554,37	1318,89
554,57	1339,37
554,76	1290,22
554,96	1193,97
555,16	1249,26
555,35	1249,26
555,55	1247,21
555,75	1236,97
555,94	1279,98
556,14	1282,03
556,33	1230,83
556,53	1255,40
556,73	1284,08
556,92	1241,07
557,12	1257,45
557,32	1245,16
557,51	1251,31
557,71	1261,55
557,90	1286,12
558,10	1267,69
558,30	1259,50
558,49	1224,69
558,69	1271,79
558,88	1193,97
559,08	1245,16
559,28	1257,45
559,47	1265,64
559,67	1234,93
559,86	1204,21
560,06	1286,12
560,26	1331,18
560,45	1306,60
560,65	1259,50
560,84	1306,60
561,04	1259,50
561,24	1325,04
561,43	1318,89
561,63	1251,31
561,82	1306,60
562,02	1245,16
562,22	1306,60
562,41	1271,79
562,61	1255,40
562,80	1273,84
563,00	1265,64
563,19	1269,74
563,39	1220,59
563,59	1308,65
563,78	1329,13
563,98	1249,26
564,17	1279,98
564,37	1189,87
564,56	1269,74
564,76	1320,94
564,96	1282,03
565,15	1310,70
565,35	1271,79
565,54	1257,45
565,74	1253,36
565,93	1261,55
566,13	1286,12
566,32	1339,37
566,52	1290,22
566,71	1228,78
566,91	1267,69
567,11	1216,49
567,30	1308,65
567,50	1265,64
567,69	1361,90
567,89	1329,13
568,08	1255,40
568,28	1267,69
568,47	1214,45
568,67	1339,37
568,86	1261,55
569,06	1282,03
569,25	1183,73
569,45	1273,84
569,64	1243,12
569,84	1294,32
570,04	1230,83
570,23	1214,45
570,43	1265,64
570,62	1279,98
570,82	1284,08
571,01	1245,16
571,21	1308,65
571,40	1232,88
571,60	1275,88
571,79	1232,88
571,99	1275,88
572,18	1261,55
572,38	1279,98
572,57	1206,25
572,77	1279,98
572,96	1236,97
573,16	1279,98
573,35	1251,31
573,55	1181,68
573,74	1228,78
573,94	1345,52
574,13	1300,46
574,33	1263,60
574,52	1341,42
574,71	1288,17
574,91	1206,25
575,10	1249,26
575,30	1300,46
575,49	1208,30
575,69	1300,46
575,88	1212,40
576,08	1316,84
576,27	1204,21
576,47	1255,40
576,66	1318,89
576,86	1290,22
577,05	1296,36
577,25	1257,45
577,44	1337,32
577,64	1325,04
577,83	1183,73
578,02	1224,69
578,22	1284,08
578,41	1296,36
578,61	1275,88
578,80	1273,84
579,00	1310,70
579,19	1290,22
579,39	1306,60
579,58	1275,88
579,77	1355,76
579,97	1232,88
580,16	1263,60
580,36	1259,50
580,55	1245,16
580,75	1269,74
580,94	1331,18
581,13	1191,92
581,33	1312,75
581,52	1382,38
581,72	1327,08
581,91	1259,50
582,11	1216,49
582,30	1279,98
582,49	1241,07
582,69	1253,36
582,88	1236,97
583,08	1339,37
583,27	1210,35
583,47	1298,41
583,66	1271,79
583,85	1210,35
584,05	1269,74
584,24	1292,27
584,44	1337,32
584,63	1325,04
584,82	1265,64
585,02	1325,04
585,21	1277,93
585,41	1132,53
585,60	1294,32
585,79	1322,99
585,99	1271,79
586,18	1277,93
586,37	1255,40
586,57	1177,58
586,76	1263,60
586,96	1265,64
587,15	1298,41
587,34	1277,93
587,54	1308,65
587,73	1253,36
587,93	1290,22
588,12	1243,12
588,31	1304,56
588,51	1249,26
588,70	1282,03
588,89	1232,88
589,09	1296,36
589,28	1273,84
589,47	1304,56
589,67	1189,87
589,86	1282,03
590,06	1275,88
590,25	1282,03
590,44	1320,94
590,64	1265,64
590,83	1241,07
591,02	1351,66
591,22	1273,84
591,41	1368,04
591,60	1234,93
591,80	1239,02
591,99	1304,56
592,18	1343,47
592,38	1189,87
592,57	1232,88
592,76	1220,59
592,96	1265,64
593,15	1247,21
593,34	1331,18
593,54	1288,17
593,73	1300,46
593,92	1232,88
594,12	1271,79
594,31	1267,69
594,50	1339,37
594,70	1290,22
594,89	1284,08
595,08	1267,69
595,28	1247,21
595,47	1269,74
595,66	1314,80
595,86	1306,60
596,05	1173,49
596,24	1269,74
596,43	1271,79
596,63	1236,97
596,82	1341,42
597,01	1298,41
597,21	1345,52
597,40	1273,84
597,59	1312,75
597,79	1331,18
597,98	1306,60
598,17	1290,22
598,36	1290,22
598,56	1279,98
598,75	1306,60
598,94	1259,50
599,14	1329,13
599,33	1290,22
599,52	1263,60
599,71	1308,65
599,91	1282,03
600,10	1243,12
600,29	1255,40
600,48	1265,64
600,68	1333,23
600,87	1222,64
601,06	1269,74
601,26	1218,54
601,45	1245,16
601,64	1253,36
601,83	1259,50
602,03	1284,08
602,22	1230,83
602,41	1257,45
602,60	1249,26
602,80	1255,40
602,99	1282,03
603,18	1251,31
603,37	1302,51
603,57	1329,13
603,76	1282,03
603,95	1306,60
604,14	1183,73
604,34	1325,04
604,53	1300,46
604,72	1259,50
604,91	1247,21
605,10	1310,70
605,30	1339,37
605,49	1249,26
605,68	1275,88
605,87	1259,50
606,07	1286,12
606,26	1306,60
606,45	1247,21
606,64	1243,12
606,84	1306,60
607,03	1333,23
607,22	1316,84
607,41	1230,83
607,60	1331,18
607,80	1339,37
607,99	1253,36
608,18	1200,11
608,37	1202,16
608,56	1308,65
608,76	1298,41
608,95	1216,49
609,14	1265,64
609,33	1327,08
609,52	1292,27
609,72	1290,22
609,91	1335,28
610,10	1269,74
610,29	1308,65
610,48	1255,40
610,68	1314,80
610,87	1226,73
611,06	1261,55
611,25	1228,78
611,44	1304,56
611,63	1261,55
611,83	1363,95
612,02	1284,08
612,21	1327,08
612,40	1300,46
612,59	1298,41
612,79	1265,64
612,98	1372,14
613,17	1329,13
613,36	1265,64
613,55	1263,60
613,74	1282,03
613,93	1284,08
614,13	1265,64
614,32	1220,59
614,51	1253,36
614,70	1292,27
614,89	1351,66
615,08	1232,88
615,28	1320,94
615,47	1230,83
615,66	1265,64
615,85	1253,36
616,04	1249,26
616,23	1316,84
616,42	1329,13
616,62	1279,98
616,81	1196,01
617,00	1298,41
617,19	1218,54
617,38	1322,99
617,57	1288,17
617,76	1224,69
617,95	1298,41
618,15	1269,74
618,34	1325,04
618,53	1282,03
618,72	1314,80
618,91	1335,28
619,10	1312,75
619,29	1275,88
619,48	1284,08
619,68	1331,18
619,87	1226,73
620,06	1224,69
620,25	1282,03
620,44	1298,41
620,63	1275,88
620,82	1279,98
621,01	1261,55
621,20	1290,22
621,39	1353,71
621,59	1275,88
621,78	1337,32
621,97	1322,99
622,16	1288,17
622,35	1343,47
622,54	1300,46
622,73	1273,84
622,92	1255,40
623,11	1267,69
623,30	1290,22
623,49	1304,56
623,68	1236,97
623,88	1271,79
624,07	1329,13
624,26	1298,41
624,45	1216,49
624,64	1277,93
624,83	1345,52
625,02	1265,64
625,21	1222,64
625,40	1251,31
625,59	1314,80
625,78	1279,98
625,97	1267,69
626,16	1320,94
626,35	1257,45
626,54	1329,13
626,74	1302,51
626,93	1261,55
627,12	1304,56
627,31	1406,95
627,50	1265,64
627,69	1298,41
627,88	1341,42
628,07	1282,03
628,26	1279,98
628,45	1271,79
628,64	1302,51
628,83	1306,60
629,02	1325,04
629,21	1271,79
629,40	1306,60
629,59	1322,99
629,78	1257,45
629,97	1318,89
630,16	1329,13
630,35	1341,42
630,54	1337,32
630,73	1286,12
630,92	1347,56
631,11	1325,04
631,30	1347,56
631,49	1363,95
631,68	1501,16
631,87	1906,66
632,06	2437,08
632,25	2119,65
632,44	2244,57
632,63	2086,88
632,82	2279,39
633,01	2631,64
633,20	2432,99
633,39	3438,54
633,58	4224,96
633,77	3940,29
633,96	5703,59
634,15	13111,10
634,34	24385,16
634,53	31731,23
634,72	31159,84
634,91	24893,06
635,10	17639,15
635,29	10837,85
635,48	6410,14
635,67	3839,94
635,86	2412,51
636,05	1867,75
636,24	1554,41
636,43	1374,19
636,62	1351,66
636,81	1376,24
637,00	1302,51
637,19	1300,46
637,38	1316,84
637,57	1282,03
637,76	1355,76
637,95	1290,22
638,14	1279,98
638,33	1310,70
638,52	1331,18
638,71	1288,17
638,89	1263,60
639,08	1325,04
639,27	1212,40
639,46	1263,60
639,65	1341,42
639,84	1343,47
640,03	1314,80
640,22	1306,60
640,41	1249,26
640,60	1316,84
640,79	1302,51
640,98	1361,90
641,17	1273,84
641,36	1204,21
641,55	1277,93
641,74	1284,08
641,92	1208,30
642,11	1300,46
642,30	1263,60
642,49	1376,24
642,68	1298,41
642,87	1271,79
643,06	1400,81
643,25	1279,98
643,44	1224,69
643,63	1257,45
643,82	1265,64
644,00	1292,27
644,19	1296,36
644,38	1288,17
644,57	1222,64
644,76	1294,32
644,95	1343,47
645,14	1288,17
645,33	1310,70
645,52	1259,50
645,71	1265,64
645,89	1331,18
646,08	1327,08
646,27	1265,64
646,46	1288,17
646,65	1257,45
646,84	1290,22
647,03	1218,54
647,22	1308,65
647,40	1263,60
647,59	1363,95
647,78	1257,45
647,97	1216,49
648,16	1271,79
648,35	1265,64
648,54	1312,75
648,73	1202,16
648,91	1277,93
649,10	1279,98
649,29	1204,21
649,48	1331,18
649,67	1318,89
649,86	1279,98
650,05	1290,22
650,23	1241,07
650,42	1339,37
650,61	1286,12
650,80	1288,17
650,99	1331,18
651,18	1249,26
651,36	1279,98
651,55	1290,22
651,74	1239,02
651,93	1300,46
652,12	1232,88
652,31	1288,17
652,49	1273,84
652,68	1269,74
652,87	1216,49
653,06	1198,06
653,25	1253,36
653,44	1261,55
653,62	1335,28
653,81	1284,08
654,00	1239,02
654,19	1218,54
654,38	1277,93
654,56	1284,08
654,75	1220,59
654,94	1267,69
655,13	1322,99
655,32	1314,80
655,51	1347,56
655,69	1245,16
655,88	1267,69
656,07	1277,93
656,26	1271,79
656,45	1253,36
656,63	1290,22
656,82	1282,03
657,01	1241,07
657,20	1232,88
657,38	1259,50
657,57	1255,40
657,76	1224,69
657,95	1208,30
658,14	1185,77
658,32	1265,64
658,51	1279,98
658,70	1273,84
658,89	1284,08
659,08	1214,45
659,26	1255,40
659,45	1171,44
659,64	1282,03
659,83	1234,93
660,01	1296,36
660,20	1241,07
660,39	1308,65
660,58	1351,66
660,76	1320,94
660,95	1234,93
661,14	1249,26
661,33	1261,55
661,51	1292,27
661,70	1249,26
661,89	1329,13
662,08	1286,12
662,26	1241,07
662,45	1308,65
662,64	1282,03
662,83	1239,02
663,01	1269,74
663,20	1292,27
663,39	1310,70
663,58	1322,99
663,76	1312,75
663,95	1284,08
664,14	1310,70
664,32	1202,16
664,51	1247,21
664,70	1329,13
664,89	1284,08
665,07	1251,31
665,26	1230,83
665,45	1236,97
665,64	1226,73
665,82	1232,88
666,01	1277,93
666,20	1282,03
666,38	1304,56
666,57	1228,78
666,76	1269,74
666,95	1261,55
667,13	1245,16
667,32	1286,12
667,51	1208,30
667,69	1279,98
667,88	1308,65
668,07	1286,12
668,25	1300,46
668,44	1302,51
668,63	1249,26
668,81	1220,59
669,00	1257,45
669,19	1220,59
669,38	1232,88
669,56	1316,84
669,75	1261,55
669,94	1292,27
670,12	1265,64
670,31	1261,55
670,50	1292,27
670,68	1245,16
670,87	1255,40
671,06	1251,31
671,24	1298,41
671,43	1216,49
671,62	1265,64
671,80	1257,45
671,99	1292,27
672,18	1236,97
672,36	1226,73
672,55	1329,13
672,74	1245,16
672,92	1261,55
673,11	1337,32
673,29	1300,46
673,48	1290,22
673,67	1318,89
673,85	1302,51
674,04	1300,46
674,23	1288,17
674,41	1241,07
674,60	1200,11
674,79	1306,60
674,97	1308,65
675,16	1251,31
675,34	1279,98
675,53	1310,70
675,72	1265,64
675,90	1341,42
676,09	1212,40
676,28	1257,45
676,46	1298,41
676,65	1320,94
676,83	1294,32
677,02	1296,36
677,21	1255,40
677,39	1247,21
677,58	1210,35
677,77	1333,23
677,95	1288,17
678,14	1275,88
678,32	1193,97
678,51	1249,26
678,70	1329,13
678,88	1249,26
679,07	1273,84
679,25	1224,69
679,44	1273,84
679,63	1257,45
679,81	1302,51
680,00	1263,60
680,18	1304,56
680,37	1275,88
680,55	1263,60
680,74	1322,99
680,93	1271,79
681,11	1310,70
681,30	1228,78
681,48	1226,73
681,67	1331,18
681,85	1265,64
682,04	1245,16
682,23	1265,64
682,41	1271,79
682,60	1343,47
682,78	1329,13
682,97	1298,41
683,15	1220,59
683,34	1218,54
683,53	1159,15
683,71	1251,31
683,90	1325,04
684,08	1277,93
684,27	1333,23
684,45	1290,22
684,64	1249,26
684,82	1200,11
685,01	1241,07
685,19	1284,08
685,38	1249,26
685,57	1236,97
685,75	1183,73
685,94	1228,78
686,12	1253,36
686,31	1314,80
686,49	1359,85
686,68	1279,98
686,86	1337,32
687,05	1273,84
687,23	1353,71
687,42	1277,93
687,60	1353,71
687,79	1306,60
687,97	1282,03
688,16	1298,41
688,34	1259,50
688,53	1253,36
688,71	1265,64
688,90	1304,56
689,08	1279,98
689,27	1298,41
689,45	1259,50
689,64	1302,51
689,82	1286,12
690,01	1290,22
690,19	1228,78
690,38	1277,93
690,56	1228,78
690,75	1251,31
690,93	1292,27
691,12	1286,12
691,30	1325,04
691,49	1333,23
691,67	1200,11
691,86	1288,17
692,04	1296,36
692,23	1374,19
692,41	1306,60
692,60	1261,55
692,78	1218,54
692,97	1253,36
693,15	1325,04
693,34	1243,12
693,52	1275,88
693,71	1251,31
693,89	1337,32
694,08	1314,80
694,26	1294,32
694,44	1265,64
694,63	1306,60
694,81	1304,56
695,00	1304,56
695,18	1308,65
695,37	1236,97
695,55	1331,18
695,74	1335,28
695,92	1226,73
696,10	1245,16
696,29	1255,40
696,47	1392,62
696,66	1312,75
696,84	1322,99
697,03	1212,40
697,21	1257,45
697,40	1318,89
697,58	1296,36
697,76	1322,99
697,95	1224,69
698,13	1220,59
698,32	1308,65
698,50	1359,85
698,68	1261,55
698,87	1277,93
699,05	1284,08
699,24	1279,98
699,42	1277,93
699,61	1306,60
699,79	1257,45
699,97	1306,60
700,16	1187,82
700,34	1325,04
700,53	1269,74
700,71	1279,98
700,89	1306,60
701,08	1257,45
701,26	1316,84
701,45	1255,40
701,63	1277,93
701,81	1337,32
702,00	1284,08
702,18	1259,50
702,37	1236,97
702,55	1239,02
702,73	1347,56
702,92	1292,27
703,10	1257,45
703,28	1277,93
703,47	1253,36
703,65	1236,97
703,84	1277,93
704,02	1277,93
704,20	1245,16
704,39	1265,64
704,57	1314,80
704,75	1282,03
704,94	1318,89
705,12	1257,45
705,30	1232,88
705,49	1228,78
705,67	1316,84
705,86	1224,69
706,04	1282,03
706,22	1257,45
706,41	1357,80
706,59	1261,55
706,77	1288,17
706,96	1261,55
707,14	1308,65
707,32	1267,69
707,51	1318,89
707,69	1267,69
707,87	1331,18
708,06	1282,03
708,24	1243,12
708,42	1329,13
708,61	1284,08
708,79	1249,26
708,97	1318,89
709,16	1277,93
709,34	1306,60
709,52	1243,12
709,71	1261,55
709,89	1331,18
710,07	1322,99
710,26	1226,73
710,44	1279,98
710,62	1314,80
710,80	1265,64
710,99	1296,36
711,17	1290,22
711,35	1228,78
711,54	1290,22
711,72	1243,12
711,90	1302,51
712,09	1245,16
712,27	1279,98
712,45	1226,73
712,63	1271,79
712,82	1214,45
713,00	1343,47
713,18	1298,41
713,37	1294,32
713,55	1290,22
713,73	1222,64
713,91	1249,26
714,10	1191,92
714,28	1269,74
714,46	1249,26
714,65	1226,73
714,83	1300,46
715,01	1290,22
715,19	1335,28
715,38	1263,60
715,56	1286,12
715,74	1294,32
715,92	1216,49
716,11	1220,59
716,29	1292,27
716,47	1288,17
716,65	1386,47
716,84	1292,27
717,02	1265,64
717,20	1220,59
717,38	1279,98
717,57	1282,03
717,75	1327,08
717,93	1284,08
718,11	1304,56
718,30	1247,21
718,48	1263,60
718,66	1251,31
718,84	1261,55
719,03	1298,41
719,21	1318,89
719,39	1298,41
719,57	1255,40
719,75	1249,26
719,94	1214,45
720,12	1282,03
720,30	1255,40
720,48	1239,02
720,67	1273,84
720,85	1263,60
721,03	1290,22
721,21	1298,41
721,39	1212,40
721,58	1300,46
721,76	1308,65
721,94	1232,88
722,12	1181,68
722,30	1331,18
722,49	1267,69
722,67	1267,69
722,85	1185,77
723,03	1275,88
723,21	1298,41
723,40	1288,17
723,58	1224,69
723,76	1318,89
723,94	1245,16
724,12	1284,08
724,30	1384,43
724,49	1277,93
724,67	1216,49
724,85	1253,36
725,03	1236,97
725,21	1208,30
725,40	1308,65
725,58	1232,88
725,76	1236,97
725,94	1247,21
726,12	1345,52
726,30	1290,22
726,49	1249,26
726,67	1282,03
726,85	1247,21
727,03	1286,12
727,21	1329,13
727,39	1269,74
727,57	1236,97
727,76	1185,77
727,94	1251,31
728,12	1224,69
728,30	1286,12
728,48	1306,60
728,66	1255,40
728,84	1320,94
729,03	1257,45
729,21	1232,88
729,39	1312,75
729,57	1300,46
729,75	1212,40
729,93	1267,69
730,11	1271,79
730,30	1189,87
730,48	1271,79
730,66	1273,84
730,84	1331,18
731,02	1267,69
731,20	1273,84
731,38	1220,59
731,56	1245,16
731,74	1290,22
731,93	1259,50
732,11	1284,08
732,29	1234,93
732,47	1206,25
732,65	1249,26
732,83	1255,40
733,01	1292,27
733,19	1177,58
733,37	1331,18
733,56	1247,21
733,74	1210,35
733,92	1279,98
734,10	1355,76
734,28	1243,12
734,46	1247,21
734,64	1245,16
734,82	1279,98
735,00	1234,93
735,18	1247,21
735,36	1204,21
735,54	1271,79
735,73	1255,40
735,91	1257,45
736,09	1218,54
736,27	1290,22
736,45	1298,41
736,63	1273,84
736,81	1222,64
736,99	1329,13
737,17	1302,51
737,35	1255,40
737,53	1247,21
737,71	1318,89
737,89	1255,40
738,07	1320,94
738,25	1288,17
738,43	1275,88
738,61	1282,03
738,80	1304,56
738,98	1257,45
739,16	1216,49
739,34	1249,26
739,52	1331,18
739,70	1218,54
739,88	1216,49
740,06	1236,97
740,24	1286,12
740,42	1294,32
740,60	1286,12
740,78	1296,36
740,96	1259,50
741,14	1327,08
741,32	1318,89
741,50	1282,03
741,68	1269,74
741,86	1347,56
742,04	1257,45
742,22	1292,27
742,40	1259,50
742,58	1259,50
742,76	1345,52
742,94	1343,47
743,12	1273,84
743,30	1298,41
743,48	1331,18
743,66	1216,49
743,84	1318,89
744,02	1236,97
744,20	1366,00
744,38	1294,32
744,56	1267,69
744,74	1347,56
744,92	1271,79
745,10	1257,45
745,28	1273,84
745,46	1298,41
745,64	1208,30
745,82	1257,45
746,00	1304,56
746,18	1290,22
746,36	1339,37
746,54	1288,17
746,72	1214,45
746,90	1333,23
747,08	1271,79
747,26	1290,22
747,44	1277,93
747,62	1265,64
747,80	1275,88
747,98	1306,60
748,15	1279,98
748,33	1255,40
748,51	1298,41
748,69	1208,30
748,87	1198,06
749,05	1271,79
749,23	1320,94
749,41	1349,61
749,59	1335,28
749,77	1298,41
749,95	1277,93
750,13	1290,22
750,31	1255,40
750,49	1312,75
750,67	1300,46
750,85	1286,12
751,03	1284,08
751,20	1292,27
751,38	1284,08
751,56	1208,30
751,74	1296,36
751,92	1304,56
752,10	1257,45
752,28	1198,06
752,46	1271,79
752,64	1210,35
752,82	1261,55
753,00	1306,60
753,18	1277,93
753,35	1232,88
753,53	1220,59
753,71	1312,75
753,89	1380,33
754,07	1355,76
754,25	1304,56
754,43	1331,18
754,61	1251,31
754,79	1304,56
754,97	1282,03
755,14	1271,79
755,32	1312,75
755,50	1331,18
755,68	1253,36
755,86	1234,93
756,04	1263,60
756,22	1210,35
756,40	1159,15
756,57	1202,16
756,75	1304,56
756,93	1290,22
757,11	1320,94
757,29	1335,28
757,47	1345,52
757,65	1245,16
757,82	1351,66
758,00	1277,93
758,18	1277,93
758,36	1257,45
758,54	1282,03
758,72	1284,08
758,90	1273,84
759,07	1245,16
759,25	1218,54
759,43	1187,82
759,61	1259,50
759,79	1284,08
759,97	1265,64
760,15	1316,84
760,32	1273,84
760,50	1296,36
760,68	1322,99
760,86	1239,02
761,04	1230,83
761,22	1259,50
761,39	1290,22
761,57	1224,69
761,75	1269,74
761,93	1226,73
762,11	1271,79
762,28	1271,79
762,46	1243,12
762,64	1320,94
762,82	1273,84
763,00	1349,61
763,18	1224,69
763,35	1239,02
763,53	1232,88
763,71	1236,97
763,89	1292,27
764,07	1275,88
764,24	1288,17
764,42	1257,45
764,60	1267,69
764,78	1320,94
764,96	1298,41
765,13	1212,40
765,31	1294,32
765,49	1292,27
765,67	1294,32
765,84	1304,56
766,02	1234,93
766,20	1279,98
766,38	1236,97
766,56	1325,04
766,73	1306,60
766,91	1267,69
767,09	1290,22
767,27	1220,59
767,44	1218,54
767,62	1353,71
767,80	1249,26
767,98	1257,45
768,15	1275,88
768,33	1279,98
768,51	1327,08
768,69	1263,60
768,87	1267,69
769,04	1247,21
769,22	1275,88
769,40	1279,98
769,58	1286,12
769,75	1269,74
769,93	1284,08
770,11	1220,59
770,28	1261,55
770,46	1306,60
770,64	1306,60
770,82	1318,89
770,99	1339,37
771,17	1271,79
771,35	1222,64
771,53	1222,64
771,70	1302,51
771,88	1279,98
772,06	1345,52
772,23	1267,69
772,41	1300,46
772,59	1339,37
772,77	1249,26
772,94	1239,02
773,12	1288,17
773,30	1318,89
773,47	1241,07
773,65	1265,64
773,83	1273,84
774,01	1318,89
774,18	1150,96
774,36	1267,69
774,54	1253,36
774,71	1292,27
774,89	1357,80
775,07	1259,50
775,24	1275,88
775,42	1314,80
775,60	1331,18
775,78	1253,36
775,95	1284,08
776,13	1253,36
776,31	1312,75
776,48	1286,12
776,66	1322,99
776,84	1277,93
777,01	1290,22
777,19	1173,49
777,37	1232,88
777,54	1216,49
777,72	1273,84
777,90	1284,08
778,07	1269,74
778,25	1212,40
778,43	1263,60
778,60	1202,16
778,78	1322,99
778,96	1273,84
779,13	1298,41
779,31	1220,59
779,49	1277,93
779,66	1288,17
779,84	1333,23
780,01	1415,15
780,19	1232,88
780,37	1259,50
780,54	1279,98
780,72	1236,97
780,90	1284,08
781,07	1302,51
781,25	1224,69
781,43	1284,08
781,60	1304,56
781,78	1273,84
781,95	1298,41
782,13	1312,75
782,31	1282,03
782,48	1284,08
782,66	1232,88
782,83	1316,84
783,01	1265,64
783,19	1218,54
783,36	1286,12
783,54	1261,55
783,72	1193,97
783,89	1341,42
784,07	1331,18
784,24	1245,16
784,42	1353,71
784,60	1292,27
784,77	1232,88
784,95	1218,54
785,12	1325,04
785,30	1226,73
785,47	1302,51
785,65	1327,08
785,83	1261,55
786,00	1298,41
786,18	1263,60
786,35	1308,65
786,53	1302,51
786,71	1249,26
786,88	1251,31
787,06	1259,50
787,23	1247,21
787,41	1277,93
787,58	1183,73
787,76	1286,12
787,94	1316,84
788,11	1236,97
788,29	1206,25
788,46	1290,22
788,64	1327,08
788,81	1265,64
788,99	1269,74
789,16	1308,65
789,34	1343,47
789,52	1273,84
789,69	1265,64
789,87	1333,23
790,04	1263,60
790,22	1257,45
790,39	1372,14
790,57	1236,97
790,74	1337,32
790,92	1263,60
791,09	1331,18
791,27	1296,36
791,44	1216,49
791,62	1320,94
791,79	1296,36
791,97	1294,32
792,15	1322,99
792,32	1296,36
792,50	1261,55
792,67	1284,08
792,85	1257,45
793,02	1363,95
793,20	1288,17
793,37	1277,93
793,55	1236,97
793,72	1245,16
793,90	1273,84
794,07	1214,45
794,25	1306,60
794,42	1279,98
794,60	1198,06
794,77	1212,40
794,95	1275,88
795,12	1325,04
795,30	1290,22
795,47	1179,63
795,65	1368,04
795,82	1259,50
796,00	1343,47
796,17	1271,79
796,34	1310,70
796,52	1298,41
796,69	1290,22
796,87	1284,08
797,04	1220,59
797,22	1273,84
797,39	1243,12
797,57	1226,73
797,74	1234,93
797,92	1265,64
798,09	1378,28
798,27	1269,74
798,44	1255,40
798,62	1226,73
798,79	1306,60
798,96	1230,83
799,14	1312,75
799,31	1325,04
799,49	1251,31
799,66	1273,84
799,84	1290,22
800,01	1261,55
800,19	1290,22
800,36	1241,07
800,53	1304,56
800,71	1234,93
800,88	1316,84
801,06	1357,80
801,23	1290,22
801,41	1310,70
801,58	1259,50
801,75	1282,03
801,93	1259,50
802,10	1271,79
802,28	1253,36
802,45	1212,40
802,63	1302,51
802,80	1255,40
802,97	1259,50
803,15	1304,56
803,32	1226,73
803,50	1263,60
803,67	1318,89
803,84	1298,41
804,02	1292,27
804,19	1187,82
804,37	1241,07
804,54	1212,40
804,71	1316,84
804,89	1200,11
805,06	1284,08
805,24	1318,89
805,41	1292,27
805,58	1312,75
805,76	1247,21
805,93	1277,93
806,10	1273,84
806,28	1345,52
806,45	1314,80
806,63	1220,59
806,80	1265,64
806,97	1275,88
807,15	1308,65
807,32	1316,84
807,49	1273,84
807,67	1253,36
807,84	1294,32
808,01	1234,93
808,19	1277,93
808,36	1288,17
808,54	1390,57
808,71	1263,60
808,88	1288,17
809,06	1318,89
809,23	1325,04
809,40	1239,02
809,58	1279,98
809,75	1275,88
809,92	1259,50
810,10	1294,32
810,27	1265,64
810,44	1322,99
810,62	1322,99
810,79	1376,24
810,96	1288,17
811,14	1249,26
811,31	1286,12
811,48	1257,45
811,66	1286,12
811,83	1282,03
812,00	1282,03
812,18	1322,99
812,35	1322,99
812,52	1357,80
812,69	1251,31
812,87	1239,02
813,04	1267,69
813,21	1275,88
813,39	1257,45
813,56	1228,78
813,73	1355,76
813,91	1292,27
814,08	1353,71
814,25	1265,64
814,42	1300,46
814,60	1363,95
814,77	1236,97
814,94	1243,12
815,12	1290,22
815,29	1361,90
815,46	1296,36
815,63	1245,16
815,81	1255,40
815,98	1251,31
816,15	1245,16
816,33	1310,70
816,50	1337,32
816,67	1370,09
816,84	1220,59
817,02	1210,35
817,19	1312,75
817,36	1300,46
817,53	1265,64
817,71	1325,04
817,88	1273,84
818,05	1277,93
818,22	1265,64
818,40	1265,64
818,57	1294,32
818,74	1236,97
818,91	1253,36
819,09	1259,50
819,26	1349,61
819,43	1257,45
819,60	1243,12
819,78	1308,65
819,95	1331,18
820,12	1318,89
820,29	1257,45
820,47	1273,84
820,64	1271,79
820,81	1265,64
820,98	1339,37
821,15	1368,04
821,33	1216,49
821,50	1224,69
821,67	1292,27
821,84	1290,22
822,02	1273,84
822,19	1236,97
822,36	1310,70
822,53	1282,03
822,70	1337,32
822,88	1333,23
823,05	1292,27
823,22	1239,02
823,39	1290,22
823,56	1290,22
823,74	1255,40
823,91	1228,78
824,08	1290,22
824,25	1318,89
824,42	1269,74
824,60	1228,78
824,77	1230,83
824,94	1273,84
825,11	1294,32
825,28	1284,08
825,45	1277,93
825,63	1261,55
825,80	1275,88
825,97	1306,60
826,14	1230,83
826,31	1290,22
826,48	1241,07
826,66	1251,31
826,83	1210,35
827,00	1288,17
827,17	1288,17
827,34	1294,32
827,51	1325,04
827,69	1275,88
827,86	1304,56
828,03	1243,12
828,20	1345,52
828,37	1253,36
828,54	1279,98
828,71	1314,80
828,89	1331,18
829,06	1273,84
829,23	1271,79
829,40	1284,08
829,57	1304,56
829,74	1251,31
829,91	1173,49
830,09	1308,65
830,26	1208,30
830,43	1294,32
830,60	1243,12
830,77	1288,17
830,94	1347,56
831,11	1296,36
831,28	1347,56
831,46	1275,88
831,63	1230,83
831,80	1271,79
831,97	1277,93
832,14	1255,40
832,31	1288,17
832,48	1282,03
832,65	1232,88
832,82	1255,40
832,99	1247,21
833,17	1296,36
833,34	1294,32
833,51	1267,69
833,68	1271,79
833,85	1298,41
834,02	1290,22
834,19	1267,69
834,36	1265,64
834,53	1243,12
834,70	1249,26
834,87	1273,84
835,04	1277,93
835,22	1239,02
835,39	1206,25
835,56	1331,18
835,73	1267,69
835,90	1257,45
836,07	1269,74
836,24	1275,88
836,41	1304,56
836,58	1216,49
836,75	1308,65
836,92	1263,60
837,09	1249,26
837,26	1239,02
837,43	1277,93
837,60	1284,08
837,77	1294,32
837,94	1306,60
838,12	1249,26
838,29	1249,26
838,46	1247,21
838,63	1277,93
838,80	1296,36
838,97	1261,55
839,14	1282,03
839,31	1273,84
839,48	1253,36
839,65	1292,27
839,82	1368,04
839,99	1255,40
840,16	1273,84
840,33	1247,21
840,50	1286,12
840,67	1288,17
840,84	1263,60
841,01	1214,45
841,18	1265,64
841,35	1290,22
841,52	1218,54
841,69	1298,41
841,86	1273,84
842,03	1241,07
842,20	1296,36
842,37	1236,97
842,54	1304,56
842,71	1286,12
842,88	1341,42
843,05	1300,46
843,22	1249,26
843,39	1210,35
843,56	1325,04
843,73	1290,22
843,90	1214,45
844,07	1284,08
844,24	1261,55
844,41	1273,84
844,58	1284,08
844,75	1214,45
844,92	1294,32
845,09	1288,17
845,26	1208,30
845,43	1298,41
845,60	1282,03
845,77	1265,64
845,94	1296,36
846,10	1255,40
846,27	1292,27
846,44	1249,26
846,61	1175,53
846,78	1273,84
846,95	1251,31
847,12	1310,70
847,29	1294,32
847,46	1357,80
847,63	1269,74
847,80	1236,97
847,97	1257,45
848,14	1206,25
848,31	1257,45
848,48	1331,18
848,65	1282,03
848,82	1269,74
848,98	1298,41
849,15	1357,80
849,32	1226,73
849,49	1202,16
849,66	1306,60
849,83	1265,64
850,00	1255,40
850,17	1335,28
850,34	1320,94
850,51	1230,83
850,68	1234,93
850,85	1298,41
851,01	1200,11
851,18	1331,18
851,35	1241,07
851,52	1259,50
851,69	1239,02
851,86	1251,31
852,03	1202,16
852,20	1271,79
852,37	1300,46
852,53	1312,75
852,70	1312,75
852,87	1249,26
853,04	1318,89
853,21	1294,32
853,38	1341,42
853,55	1267,69
853,72	1302,51
853,89	1322,99
854,05	1300,46
854,22	1263,60
854,39	1322,99
854,56	1337,32
854,73	1261,55
854,90	1271,79
855,07	1286,12
855,23	1284,08
855,40	1243,12
855,57	1224,69
855,74	1277,93
855,91	1269,74
856,08	1279,98
856,25	1304,56
856,41	1273,84
856,58	1304,56
856,75	1241,07
856,92	1308,65
857,09	1331,18
857,26	1200,11
857,42	1269,74
857,59	1306,60
857,76	1214,45
857,93	1259,50
858,10	1290,22
858,27	1282,03
858,43	1263,60
858,60	1282,03
858,77	1253,36
858,94	1286,12
859,11	1249,26
859,27	1245,16
859,44	1284,08
859,61	1333,23
859,78	1335,28
859,95	1325,04
860,12	1347,56
860,28	1318,89
860,45	1239,02
860,62	1310,70
860,79	1279,98
860,95	1286,12
861,12	1218,54
861,29	1253,36
861,46	1230,83
861,63	1251,31
861,79	1241,07
861,96	1300,46
862,13	1302,51
862,30	1300,46
862,47	1239,02
862,63	1269,74
862,80	1269,74
862,97	1286,12
863,14	1271,79
863,30	1202,16
863,47	1298,41
863,64	1284,08
863,81	1310,70
863,97	1271,79
864,14	1196,01
864,31	1232,88
864,48	1294,32
864,65	1245,16
864,81	1228,78
864,98	1341,42
865,15	1325,04
865,32	1271,79
865,48	1318,89
865,65	1296,36
865,82	1298,41
865,98	1312,75
866,15	1249,26
866,32	1306,60
866,49	1314,80
866,65	1259,50
866,82	1249,26
866,99	1322,99
867,16	1222,64
867,32	1288,17
867,49	1277,93
867,66	1224,69
867,83	1267,69
867,99	1288,17
868,16	1294,32
868,33	1241,07
868,49	1294,32
868,66	1257,45
868,83	1257,45
868,99	1290,22
869,16	1294,32
869,33	1327,08
869,50	1306,60
869,66	1269,74
869,83	1294,32
870,00	1251,31
870,16	1257,45
870,33	1232,88
870,50	1208,30
870,66	1320,94
870,83	1318,89
871,00	1271,79
871,17	1304,56
871,33	1312,75
871,50	1253,36
871,67	1302,51
871,83	1239,02
872,00	1308,65
872,17	1273,84
872,33	1210,35
872,50	1282,03
872,67	1322,99
872,83	1306,60
873,00	1241,07
873,17	1312,75
873,33	1243,12
873,50	1320,94
873,67	1269,74
873,83	1337,32
874,00	1275,88
874,16	1222,64
874,33	1370,09
874,50	1314,80
874,66	1230,83
874,83	1294,32
875,00	1306,60
875,16	1337,32
875,33	1300,46
875,50	1284,08
875,66	1243,12
875,83	1294,32
875,99	1243,12
876,16	1241,07
876,33	1247,21
876,49	1279,98
876,66	1357,80
876,83	1269,74
876,99	1284,08
877,16	1308,65
877,32	1239,02
877,49	1222,64
877,66	1232,88
877,82	1292,27
877,99	1282,03
878,15	1351,66
878,32	1271,79
878,49	1224,69
878,65	1357,80
878,82	1224,69
878,98	1206,25
879,15	1265,64
879,32	1314,80
879,48	1247,21
879,65	1267,69
879,81	1224,69
879,98	1294,32
880,15	1222,64
880,31	1265,64
880,48	1257,45
880,64	1290,22
880,81	1312,75
880,97	1204,21
881,14	1310,70
881,31	1269,74
881,47	1288,17
881,64	1267,69
881,80	1286,12
881,97	1269,74
882,13	1292,27
882,30	1257,45
882,47	1263,60
882,63	1294,32
882,80	1208,30
882,96	1263,60
883,13	1353,71
883,29	1290,22
883,46	1267,69
883,62	1322,99
883,79	1253,36
883,95	1316,84
884,12	1263,60
884,29	1316,84
884,45	1282,03
884,62	1271,79
884,78	1273,84
884,95	1298,41
885,11	1265,64
885,28	1314,80
885,44	1263,60
885,61	1310,70
885,77	1322,99
885,94	1296,36
886,10	1236,97
886,27	1249,26
886,43	1294,32
886,60	1265,64
886,76	1273,84
886,93	1232,88
887,09	1312,75
887,26	1216,49
887,42	1220,59
887,59	1243,12
887,75	1320,94
887,92	1306,60
888,08	1339,37
888,25	1343,47
888,41	1312,75
888,58	1277,93
888,74	1275,88
888,91	1255,40
>>>>>End Processed Spectral Data<<<<<
