SpectraSuite Data File
++++++++++++++++++++++++++++++++++++
Date: Sun Apr 03 18:22:34 CEST 2016
User: root
Dark Spectrum Present: No
Reference Spectrum Present: No
Number of Sampled Component Spectra: 1
Spectrometers: USB4C02835
Integration Time (usec): 10000 (USB4C02835)
Spectra Averaged: 1 (USB4C02835)
Boxcar Smoothing: 0 (USB4C02835)
Correct for Electrical Dark: No (USB4C02835)
Strobe/Lamp Enabled: No (USB4C02835)
Correct for Detector Non-linearity: No (USB4C02835)
Correct for Stray Light: No (USB4C02835)
Number of Pixels in Processed Spectrum: 3648
>>>>>Begin Processed Spectral Data<<<<<
177,47	1214,45
177,69	1214,45
177,91	1214,45
178,13	1226,73
178,36	1236,97
178,58	1265,64
178,80	1200,11
179,02	1257,45
179,24	1243,12
179,46	1251,31
179,68	1257,45
179,90	1222,64
180,13	1310,70
180,35	1239,02
180,57	1222,64
180,79	1224,69
181,01	1277,93
181,23	1282,03
181,45	1263,60
181,67	1241,07
181,90	1302,51
182,12	1290,22
182,34	1243,12
182,56	1325,04
182,78	1282,03
183,00	1218,54
183,22	1255,40
183,44	1200,11
183,66	1255,40
183,89	1251,31
184,11	1265,64
184,33	1196,01
184,55	1259,50
184,77	1259,50
184,99	1265,64
185,21	1200,11
185,43	1222,64
185,65	1179,63
185,87	1196,01
186,10	1316,84
186,32	1284,08
186,54	1296,36
186,76	1222,64
186,98	1267,69
187,20	1306,60
187,42	1327,08
187,64	1277,93
187,86	1159,15
188,08	1261,55
188,30	1200,11
188,52	1228,78
188,75	1318,89
188,97	1286,12
189,19	1259,50
189,41	1261,55
189,63	1296,36
189,85	1257,45
190,07	1155,05
190,29	1251,31
190,51	1286,12
190,73	1318,89
190,95	1206,25
191,17	1247,21
191,39	1191,92
191,61	1282,03
191,84	1298,41
192,06	1318,89
192,28	1292,27
192,50	1245,16
192,72	1366,00
192,94	1245,16
193,16	1191,92
193,38	1257,45
193,60	1273,84
193,82	1275,88
194,04	1232,88
194,26	1241,07
194,48	1277,93
194,70	1265,64
194,92	1239,02
195,14	1353,71
195,36	1343,47
195,58	1292,27
195,80	1290,22
196,02	1282,03
196,24	1216,49
196,46	1275,88
196,69	1232,88
196,91	1290,22
197,13	1261,55
197,35	1282,03
197,57	1263,60
197,79	1329,13
198,01	1320,94
198,23	1300,46
198,45	1183,73
198,67	1277,93
198,89	1259,50
199,11	1308,65
199,33	1335,28
199,55	1234,93
199,77	1277,93
199,99	1265,64
200,21	1243,12
200,43	1275,88
200,65	1236,97
200,87	1228,78
201,09	1304,56
201,31	1279,98
201,53	1261,55
201,75	1269,74
201,97	1298,41
202,19	1212,40
202,41	1200,11
202,63	1320,94
202,85	1273,84
203,07	1251,31
203,29	1331,18
203,51	1298,41
203,73	1294,32
203,95	1327,08
204,17	1210,35
204,39	1282,03
204,61	1179,63
204,83	1228,78
205,05	1232,88
205,27	1288,17
205,49	1271,79
205,71	1322,99
205,93	1245,16
206,15	1282,03
206,37	1191,92
206,59	1269,74
206,81	1159,15
207,03	1230,83
207,25	1296,36
207,47	1284,08
207,69	1230,83
207,91	1275,88
208,13	1208,30
208,34	1308,65
208,56	1265,64
208,78	1308,65
209,00	1208,30
209,22	1265,64
209,44	1304,56
209,66	1294,32
209,88	1247,21
210,10	1308,65
210,32	1208,30
210,54	1394,67
210,76	1208,30
210,98	1263,60
211,20	1251,31
211,42	1322,99
211,64	1253,36
211,86	1263,60
212,08	1265,64
212,30	1218,54
212,52	1220,59
212,74	1296,36
212,96	1294,32
213,17	1284,08
213,39	1351,66
213,61	1312,75
213,83	1310,70
214,05	1210,35
214,27	1232,88
214,49	1239,02
214,71	1210,35
214,93	1353,71
215,15	1191,92
215,37	1265,64
215,59	1232,88
215,81	1345,52
216,03	1263,60
216,24	1259,50
216,46	1269,74
216,68	1282,03
216,90	1224,69
217,12	1312,75
217,34	1243,12
217,56	1288,17
217,78	1249,26
218,00	1329,13
218,22	1222,64
218,44	1271,79
218,66	1259,50
218,87	1300,46
219,09	1216,49
219,31	1247,21
219,53	1265,64
219,75	1288,17
219,97	1263,60
220,19	1353,71
220,41	1228,78
220,63	1259,50
220,85	1286,12
221,06	1282,03
221,28	1294,32
221,50	1273,84
221,72	1282,03
221,94	1345,52
222,16	1241,07
222,38	1320,94
222,60	1245,16
222,82	1230,83
223,03	1275,88
223,25	1304,56
223,47	1224,69
223,69	1249,26
223,91	1282,03
224,13	1216,49
224,35	1271,79
224,57	1310,70
224,78	1220,59
225,00	1253,36
225,22	1300,46
225,44	1296,36
225,66	1236,97
225,88	1271,79
226,10	1214,45
226,32	1157,10
226,53	1243,12
226,75	1232,88
226,97	1341,42
227,19	1232,88
227,41	1318,89
227,63	1232,88
227,85	1257,45
228,06	1316,84
228,28	1193,97
228,50	1294,32
228,72	1228,78
228,94	1304,56
229,16	1232,88
229,37	1298,41
229,59	1347,56
229,81	1228,78
230,03	1247,21
230,25	1339,37
230,47	1282,03
230,69	1306,60
230,90	1230,83
231,12	1228,78
231,34	1302,51
231,56	1206,25
231,78	1284,08
232,00	1216,49
232,21	1202,16
232,43	1284,08
232,65	1249,26
232,87	1294,32
233,09	1226,73
233,30	1228,78
233,52	1331,18
233,74	1234,93
233,96	1243,12
234,18	1148,91
234,40	1282,03
234,61	1298,41
234,83	1290,22
235,05	1232,88
235,27	1290,22
235,49	1255,40
235,70	1263,60
235,92	1232,88
236,14	1265,64
236,36	1210,35
236,58	1253,36
236,79	1196,01
237,01	1255,40
237,23	1263,60
237,45	1298,41
237,67	1318,89
237,88	1216,49
238,10	1329,13
238,32	1204,21
238,54	1251,31
238,76	1212,40
238,97	1222,64
239,19	1259,50
239,41	1255,40
239,63	1265,64
239,85	1275,88
240,06	1282,03
240,28	1284,08
240,50	1267,69
240,72	1298,41
240,93	1228,78
241,15	1253,36
241,37	1249,26
241,59	1292,27
241,81	1257,45
242,02	1204,21
242,24	1316,84
242,46	1150,96
242,68	1253,36
242,89	1226,73
243,11	1265,64
243,33	1343,47
243,55	1290,22
243,76	1310,70
243,98	1327,08
244,20	1241,07
244,42	1236,97
244,64	1282,03
244,85	1253,36
245,07	1292,27
245,29	1241,07
245,51	1241,07
245,72	1298,41
245,94	1269,74
246,16	1263,60
246,38	1282,03
246,59	1314,80
246,81	1298,41
247,03	1310,70
247,24	1298,41
247,46	1245,16
247,68	1263,60
247,90	1253,36
248,11	1224,69
248,33	1200,11
248,55	1275,88
248,77	1251,31
248,98	1286,12
249,20	1284,08
249,42	1298,41
249,64	1335,28
249,85	1290,22
250,07	1222,64
250,29	1290,22
250,50	1222,64
250,72	1269,74
250,94	1163,25
251,16	1320,94
251,37	1267,69
251,59	1292,27
251,81	1230,83
252,02	1351,66
252,24	1232,88
252,46	1196,01
252,68	1335,28
252,89	1279,98
253,11	1282,03
253,33	1253,36
253,54	1294,32
253,76	1253,36
253,98	1220,59
254,20	1249,26
254,41	1224,69
254,63	1226,73
254,85	1327,08
255,06	1308,65
255,28	1183,73
255,50	1288,17
255,71	1265,64
255,93	1247,21
256,15	1384,43
256,36	1222,64
256,58	1239,02
256,80	1269,74
257,02	1269,74
257,23	1247,21
257,45	1257,45
257,67	1271,79
257,88	1189,87
258,10	1263,60
258,32	1259,50
258,53	1310,70
258,75	1312,75
258,97	1290,22
259,18	1230,83
259,40	1312,75
259,62	1294,32
259,83	1259,50
260,05	1251,31
260,27	1210,35
260,48	1279,98
260,70	1234,93
260,92	1239,02
261,13	1308,65
261,35	1245,16
261,57	1216,49
261,78	1279,98
262,00	1255,40
262,22	1226,73
262,43	1200,11
262,65	1230,83
262,86	1286,12
263,08	1277,93
263,30	1253,36
263,51	1263,60
263,73	1193,97
263,95	1292,27
264,16	1306,60
264,38	1226,73
264,60	1261,55
264,81	1296,36
265,03	1245,16
265,25	1263,60
265,46	1216,49
265,68	1259,50
265,89	1304,56
266,11	1263,60
266,33	1269,74
266,54	1282,03
266,76	1304,56
266,98	1292,27
267,19	1290,22
267,41	1255,40
267,62	1366,00
267,84	1257,45
268,06	1224,69
268,27	1265,64
268,49	1294,32
268,70	1320,94
268,92	1255,40
269,14	1255,40
269,35	1232,88
269,57	1284,08
269,79	1275,88
270,00	1271,79
270,22	1271,79
270,43	1302,51
270,65	1257,45
270,87	1288,17
271,08	1322,99
271,30	1261,55
271,51	1257,45
271,73	1269,74
271,95	1214,45
272,16	1255,40
272,38	1275,88
272,59	1271,79
272,81	1261,55
273,02	1239,02
273,24	1282,03
273,46	1271,79
273,67	1204,21
273,89	1241,07
274,10	1282,03
274,32	1247,21
274,54	1306,60
274,75	1320,94
274,97	1263,60
275,18	1349,61
275,40	1292,27
275,61	1226,73
275,83	1241,07
276,05	1290,22
276,26	1279,98
276,48	1310,70
276,69	1314,80
276,91	1257,45
277,12	1273,84
277,34	1253,36
277,55	1212,40
277,77	1310,70
277,99	1322,99
278,20	1243,12
278,42	1257,45
278,63	1253,36
278,85	1277,93
279,06	1279,98
279,28	1337,32
279,49	1292,27
279,71	1288,17
279,93	1271,79
280,14	1222,64
280,36	1210,35
280,57	1267,69
280,79	1304,56
281,00	1282,03
281,22	1239,02
281,43	1232,88
281,65	1257,45
281,86	1320,94
282,08	1224,69
282,29	1304,56
282,51	1249,26
282,73	1318,89
282,94	1239,02
283,16	1273,84
283,37	1331,18
283,59	1247,21
283,80	1259,50
284,02	1265,64
284,23	1226,73
284,45	1241,07
284,66	1261,55
284,88	1325,04
285,09	1255,40
285,31	1224,69
285,52	1232,88
285,74	1292,27
285,95	1216,49
286,17	1284,08
286,38	1214,45
286,60	1275,88
286,81	1245,16
287,03	1253,36
287,24	1236,97
287,46	1304,56
287,67	1249,26
287,89	1259,50
288,10	1210,35
288,32	1308,65
288,53	1218,54
288,75	1304,56
288,96	1296,36
289,18	1251,31
289,39	1277,93
289,61	1306,60
289,82	1292,27
290,04	1329,13
290,25	1222,64
290,47	1249,26
290,68	1296,36
290,90	1251,31
291,11	1267,69
291,33	1273,84
291,54	1304,56
291,76	1275,88
291,97	1279,98
292,18	1314,80
292,40	1294,32
292,61	1208,30
292,83	1275,88
293,04	1282,03
293,26	1286,12
293,47	1267,69
293,69	1204,21
293,90	1306,60
294,12	1249,26
294,33	1247,21
294,55	1243,12
294,76	1304,56
294,97	1286,12
295,19	1329,13
295,40	1208,30
295,62	1255,40
295,83	1277,93
296,05	1275,88
296,26	1331,18
296,48	1189,87
296,69	1333,23
296,90	1243,12
297,12	1284,08
297,33	1337,32
297,55	1269,74
297,76	1241,07
297,98	1247,21
298,19	1273,84
298,41	1257,45
298,62	1241,07
298,83	1333,23
299,05	1275,88
299,26	1318,89
299,48	1239,02
299,69	1277,93
299,90	1228,78
300,12	1245,16
300,33	1279,98
300,55	1230,83
300,76	1290,22
300,98	1185,77
301,19	1247,21
301,40	1290,22
301,62	1269,74
301,83	1265,64
302,05	1255,40
302,26	1208,30
302,47	1210,35
302,69	1247,21
302,90	1236,97
303,12	1193,97
303,33	1279,98
303,54	1249,26
303,76	1275,88
303,97	1327,08
304,19	1241,07
304,40	1279,98
304,61	1277,93
304,83	1265,64
305,04	1322,99
305,26	1249,26
305,47	1255,40
305,68	1308,65
305,90	1310,70
306,11	1193,97
306,33	1226,73
306,54	1253,36
306,75	1296,36
306,97	1175,53
307,18	1257,45
307,39	1320,94
307,61	1259,50
307,82	1257,45
308,04	1228,78
308,25	1212,40
308,46	1245,16
308,68	1265,64
308,89	1263,60
309,10	1167,34
309,32	1253,36
309,53	1239,02
309,74	1322,99
309,96	1226,73
310,17	1232,88
310,39	1234,93
310,60	1310,70
310,81	1267,69
311,03	1142,77
311,24	1251,31
311,45	1200,11
311,67	1208,30
311,88	1290,22
312,09	1214,45
312,31	1230,83
312,52	1251,31
312,73	1234,93
312,95	1259,50
313,16	1232,88
313,37	1290,22
313,59	1259,50
313,80	1257,45
314,01	1224,69
314,23	1302,51
314,44	1294,32
314,65	1349,61
314,87	1322,99
315,08	1239,02
315,29	1269,74
315,51	1202,16
315,72	1284,08
315,93	1200,11
316,15	1257,45
316,36	1230,83
316,57	1224,69
316,79	1296,36
317,00	1271,79
317,21	1271,79
317,43	1259,50
317,64	1202,16
317,85	1247,21
318,07	1333,23
318,28	1263,60
318,49	1265,64
318,70	1282,03
318,92	1290,22
319,13	1275,88
319,34	1239,02
319,56	1275,88
319,77	1327,08
319,98	1304,56
320,20	1257,45
320,41	1183,73
320,62	1263,60
320,83	1191,92
321,05	1300,46
321,26	1239,02
321,47	1230,83
321,69	1239,02
321,90	1236,97
322,11	1230,83
322,32	1255,40
322,54	1284,08
322,75	1333,23
322,96	1261,55
323,18	1232,88
323,39	1277,93
323,60	1247,21
323,81	1189,87
324,03	1284,08
324,24	1253,36
324,45	1275,88
324,66	1218,54
324,88	1249,26
325,09	1236,97
325,30	1265,64
325,52	1277,93
325,73	1259,50
325,94	1239,02
326,15	1298,41
326,37	1259,50
326,58	1239,02
326,79	1247,21
327,00	1216,49
327,22	1234,93
327,43	1202,16
327,64	1259,50
327,85	1234,93
328,07	1279,98
328,28	1263,60
328,49	1261,55
328,70	1265,64
328,92	1304,56
329,13	1261,55
329,34	1208,30
329,55	1294,32
329,76	1359,85
329,98	1263,60
330,19	1279,98
330,40	1218,54
330,61	1241,07
330,83	1269,74
331,04	1249,26
331,25	1245,16
331,46	1320,94
331,68	1228,78
331,89	1271,79
332,10	1247,21
332,31	1232,88
332,52	1259,50
332,74	1282,03
332,95	1228,78
333,16	1282,03
333,37	1286,12
333,58	1284,08
333,80	1255,40
334,01	1269,74
334,22	1271,79
334,43	1282,03
334,64	1298,41
334,86	1265,64
335,07	1239,02
335,28	1255,40
335,49	1241,07
335,70	1296,36
335,92	1251,31
336,13	1241,07
336,34	1292,27
336,55	1269,74
336,76	1189,87
336,98	1294,32
337,19	1241,07
337,40	1259,50
337,61	1239,02
337,82	1318,89
338,04	1267,69
338,25	1271,79
338,46	1275,88
338,67	1318,89
338,88	1236,97
339,09	1167,34
339,31	1212,40
339,52	1251,31
339,73	1269,74
339,94	1267,69
340,15	1249,26
340,36	1288,17
340,58	1216,49
340,79	1288,17
341,00	1294,32
341,21	1298,41
341,42	1322,99
341,63	1234,93
341,85	1191,92
342,06	1263,60
342,27	1263,60
342,48	1263,60
342,69	1261,55
342,90	1322,99
343,12	1249,26
343,33	1253,36
343,54	1306,60
343,75	1261,55
343,96	1228,78
344,17	1298,41
344,38	1296,36
344,60	1241,07
344,81	1261,55
345,02	1347,56
345,23	1220,59
345,44	1245,16
345,65	1206,25
345,86	1316,84
346,07	1234,93
346,29	1288,17
346,50	1241,07
346,71	1292,27
346,92	1257,45
347,13	1288,17
347,34	1290,22
347,55	1247,21
347,76	1249,26
347,98	1236,97
348,19	1228,78
348,40	1251,31
348,61	1183,73
348,82	1220,59
349,03	1331,18
349,24	1210,35
349,45	1249,26
349,66	1286,12
349,88	1290,22
350,09	1230,83
350,30	1279,98
350,51	1275,88
350,72	1300,46
350,93	1318,89
351,14	1286,12
351,35	1241,07
351,56	1298,41
351,77	1263,60
351,99	1249,26
352,20	1243,12
352,41	1277,93
352,62	1292,27
352,83	1318,89
353,04	1241,07
353,25	1275,88
353,46	1210,35
353,67	1234,93
353,88	1255,40
354,09	1253,36
354,30	1269,74
354,52	1183,73
354,73	1329,13
354,94	1306,60
355,15	1239,02
355,36	1222,64
355,57	1335,28
355,78	1257,45
355,99	1308,65
356,20	1300,46
356,41	1259,50
356,62	1196,01
356,83	1277,93
357,04	1263,60
357,25	1273,84
357,46	1232,88
357,68	1265,64
357,89	1271,79
358,10	1243,12
358,31	1353,71
358,52	1265,64
358,73	1218,54
358,94	1255,40
359,15	1300,46
359,36	1306,60
359,57	1257,45
359,78	1279,98
359,99	1241,07
360,20	1284,08
360,41	1277,93
360,62	1322,99
360,83	1212,40
361,04	1239,02
361,25	1331,18
361,46	1279,98
361,67	1230,83
361,88	1226,73
362,09	1239,02
362,30	1333,23
362,51	1239,02
362,72	1322,99
362,93	1273,84
363,14	1228,78
363,35	1210,35
363,56	1220,59
363,78	1216,49
363,99	1249,26
364,20	1284,08
364,41	1222,64
364,62	1269,74
364,83	1257,45
365,04	1253,36
365,25	1288,17
365,46	1294,32
365,67	1269,74
365,88	1374,19
366,09	1222,64
366,30	1282,03
366,51	1255,40
366,72	1277,93
366,93	1249,26
367,14	1312,75
367,35	1271,79
367,56	1279,98
367,77	1253,36
367,98	1300,46
368,18	1333,23
368,39	1265,64
368,60	1294,32
368,81	1232,88
369,02	1357,80
369,23	1292,27
369,44	1239,02
369,65	1288,17
369,86	1273,84
370,07	1257,45
370,28	1298,41
370,49	1228,78
370,70	1259,50
370,91	1265,64
371,12	1236,97
371,33	1255,40
371,54	1279,98
371,75	1255,40
371,96	1282,03
372,17	1310,70
372,38	1243,12
372,59	1263,60
372,80	1368,04
373,01	1312,75
373,22	1251,31
373,43	1302,51
373,64	1296,36
373,85	1255,40
374,06	1357,80
374,26	1265,64
374,47	1236,97
374,68	1273,84
374,89	1314,80
375,10	1216,49
375,31	1239,02
375,52	1191,92
375,73	1279,98
375,94	1230,83
376,15	1236,97
376,36	1222,64
376,57	1279,98
376,78	1331,18
376,99	1224,69
377,20	1286,12
377,40	1181,68
377,61	1245,16
377,82	1253,36
378,03	1208,30
378,24	1343,47
378,45	1241,07
378,66	1239,02
378,87	1224,69
379,08	1263,60
379,29	1322,99
379,50	1327,08
379,71	1251,31
379,91	1273,84
380,12	1259,50
380,33	1284,08
380,54	1284,08
380,75	1347,56
380,96	1273,84
381,17	1271,79
381,38	1282,03
381,59	1228,78
381,80	1208,30
382,00	1331,18
382,21	1257,45
382,42	1275,88
382,63	1335,28
382,84	1331,18
383,05	1341,42
383,26	1288,17
383,47	1282,03
383,68	1220,59
383,88	1302,51
384,09	1253,36
384,30	1179,63
384,51	1239,02
384,72	1286,12
384,93	1282,03
385,14	1216,49
385,35	1277,93
385,55	1224,69
385,76	1273,84
385,97	1167,34
386,18	1255,40
386,39	1279,98
386,60	1310,70
386,81	1296,36
387,02	1255,40
387,22	1253,36
387,43	1292,27
387,64	1273,84
387,85	1296,36
388,06	1249,26
388,27	1249,26
388,48	1277,93
388,68	1347,56
388,89	1263,60
389,10	1290,22
389,31	1325,04
389,52	1300,46
389,73	1279,98
389,93	1288,17
390,14	1243,12
390,35	1241,07
390,56	1214,45
390,77	1228,78
390,98	1226,73
391,18	1257,45
391,39	1249,26
391,60	1232,88
391,81	1282,03
392,02	1304,56
392,23	1265,64
392,43	1247,21
392,64	1234,93
392,85	1247,21
393,06	1353,71
393,27	1347,56
393,47	1282,03
393,68	1226,73
393,89	1308,65
394,10	1290,22
394,31	1275,88
394,52	1236,97
394,72	1249,26
394,93	1290,22
395,14	1212,40
395,35	1279,98
395,56	1322,99
395,76	1294,32
395,97	1304,56
396,18	1257,45
396,39	1351,66
396,60	1372,14
396,80	1257,45
397,01	1175,53
397,22	1325,04
397,43	1333,23
397,64	1290,22
397,84	1259,50
398,05	1273,84
398,26	1273,84
398,47	1302,51
398,67	1265,64
398,88	1255,40
399,09	1296,36
399,30	1302,51
399,51	1261,55
399,71	1226,73
399,92	1296,36
400,13	1296,36
400,34	1236,97
400,54	1228,78
400,75	1296,36
400,96	1275,88
401,17	1279,98
401,37	1273,84
401,58	1294,32
401,79	1253,36
402,00	1232,88
402,21	1302,51
402,41	1335,28
402,62	1282,03
402,83	1277,93
403,04	1241,07
403,24	1308,65
403,45	1210,35
403,66	1255,40
403,87	1222,64
404,07	1288,17
404,28	1249,26
404,49	1304,56
404,70	1222,64
404,90	1243,12
405,11	1320,94
405,32	1314,80
405,52	1234,93
405,73	1294,32
405,94	1232,88
406,15	1241,07
406,35	1159,15
406,56	1265,64
406,77	1236,97
406,98	1263,60
407,18	1247,21
407,39	1269,74
407,60	1271,79
407,80	1220,59
408,01	1288,17
408,22	1337,32
408,43	1277,93
408,63	1267,69
408,84	1269,74
409,05	1249,26
409,25	1306,60
409,46	1282,03
409,67	1300,46
409,88	1355,76
410,08	1288,17
410,29	1224,69
410,50	1222,64
410,70	1230,83
410,91	1255,40
411,12	1331,18
411,32	1267,69
411,53	1220,59
411,74	1261,55
411,95	1232,88
412,15	1267,69
412,36	1322,99
412,57	1243,12
412,77	1251,31
412,98	1284,08
413,19	1363,95
413,39	1302,51
413,60	1261,55
413,81	1275,88
414,01	1292,27
414,22	1241,07
414,43	1212,40
414,63	1245,16
414,84	1288,17
415,05	1279,98
415,25	1245,16
415,46	1327,08
415,67	1255,40
415,87	1232,88
416,08	1304,56
416,29	1290,22
416,49	1329,13
416,70	1292,27
416,91	1267,69
417,11	1327,08
417,32	1265,64
417,53	1267,69
417,73	1198,06
417,94	1196,01
418,15	1306,60
418,35	1259,50
418,56	1261,55
418,77	1228,78
418,97	1312,75
419,18	1239,02
419,38	1275,88
419,59	1257,45
419,80	1234,93
420,00	1288,17
420,21	1230,83
420,42	1294,32
420,62	1286,12
420,83	1249,26
421,04	1273,84
421,24	1273,84
421,45	1247,21
421,65	1290,22
421,86	1224,69
422,07	1224,69
422,27	1241,07
422,48	1267,69
422,69	1318,89
422,89	1273,84
423,10	1322,99
423,30	1245,16
423,51	1286,12
423,72	1218,54
423,92	1241,07
424,13	1239,02
424,33	1249,26
424,54	1222,64
424,75	1302,51
424,95	1302,51
425,16	1232,88
425,36	1255,40
425,57	1308,65
425,78	1290,22
425,98	1363,95
426,19	1241,07
426,39	1257,45
426,60	1306,60
426,81	1277,93
427,01	1239,02
427,22	1261,55
427,42	1304,56
427,63	1234,93
427,83	1298,41
428,04	1247,21
428,25	1232,88
428,45	1277,93
428,66	1222,64
428,86	1226,73
429,07	1292,27
429,28	1247,21
429,48	1314,80
429,69	1320,94
429,89	1226,73
430,10	1257,45
430,30	1259,50
430,51	1302,51
430,71	1339,37
430,92	1236,97
431,13	1265,64
431,33	1257,45
431,54	1294,32
431,74	1228,78
431,95	1304,56
432,15	1196,01
432,36	1245,16
432,56	1206,25
432,77	1189,87
432,98	1282,03
433,18	1249,26
433,39	1292,27
433,59	1230,83
433,80	1341,42
434,00	1335,28
434,21	1310,70
434,41	1198,06
434,62	1296,36
434,82	1318,89
435,03	1230,83
435,23	1259,50
435,44	1320,94
435,64	1261,55
435,85	1347,56
436,06	1271,79
436,26	1234,93
436,47	1335,28
436,67	1243,12
436,88	1261,55
437,08	1245,16
437,29	1288,17
437,49	1318,89
437,70	1236,97
437,90	1275,88
438,11	1167,34
438,31	1312,75
438,52	1263,60
438,72	1290,22
438,93	1267,69
439,13	1257,45
439,34	1271,79
439,54	1271,79
439,75	1232,88
439,95	1300,46
440,16	1232,88
440,36	1257,45
440,57	1220,59
440,77	1308,65
440,98	1212,40
441,18	1327,08
441,39	1202,16
441,59	1269,74
441,80	1298,41
442,00	1234,93
442,21	1269,74
442,41	1261,55
442,62	1288,17
442,82	1277,93
443,02	1214,45
443,23	1191,92
443,43	1273,84
443,64	1269,74
443,84	1257,45
444,05	1341,42
444,25	1279,98
444,46	1198,06
444,66	1306,60
444,87	1314,80
445,07	1249,26
445,28	1236,97
445,48	1259,50
445,69	1277,93
445,89	1290,22
446,09	1337,32
446,30	1282,03
446,50	1292,27
446,71	1298,41
446,91	1245,16
447,12	1230,83
447,32	1331,18
447,53	1263,60
447,73	1271,79
447,93	1251,31
448,14	1331,18
448,34	1296,36
448,55	1249,26
448,75	1279,98
448,96	1222,64
449,16	1200,11
449,36	1308,65
449,57	1325,04
449,77	1265,64
449,98	1271,79
450,18	1308,65
450,39	1290,22
450,59	1247,21
450,79	1236,97
451,00	1208,30
451,20	1247,21
451,41	1249,26
451,61	1175,53
451,81	1345,52
452,02	1230,83
452,22	1257,45
452,43	1318,89
452,63	1265,64
452,84	1193,97
453,04	1318,89
453,24	1257,45
453,45	1251,31
453,65	1288,17
453,86	1279,98
454,06	1300,46
454,26	1290,22
454,47	1204,21
454,67	1288,17
454,87	1239,02
455,08	1290,22
455,28	1267,69
455,49	1249,26
455,69	1269,74
455,89	1298,41
456,10	1304,56
456,30	1310,70
456,51	1230,83
456,71	1245,16
456,91	1251,31
457,12	1251,31
457,32	1259,50
457,52	1277,93
457,73	1279,98
457,93	1241,07
458,14	1185,77
458,34	1273,84
458,54	1224,69
458,75	1241,07
458,95	1220,59
459,15	1257,45
459,36	1288,17
459,56	1271,79
459,76	1333,23
459,97	1265,64
460,17	1304,56
460,37	1325,04
460,58	1292,27
460,78	1255,40
460,99	1257,45
461,19	1308,65
461,39	1298,41
461,60	1247,21
461,80	1327,08
462,00	1232,88
462,21	1236,97
462,41	1234,93
462,61	1226,73
462,82	1247,21
463,02	1286,12
463,22	1214,45
463,43	1208,30
463,63	1279,98
463,83	1232,88
464,04	1265,64
464,24	1269,74
464,44	1288,17
464,64	1269,74
464,85	1271,79
465,05	1202,16
465,25	1198,06
465,46	1226,73
465,66	1271,79
465,86	1290,22
466,07	1224,69
466,27	1212,40
466,47	1224,69
466,68	1226,73
466,88	1296,36
467,08	1234,93
467,29	1212,40
467,49	1222,64
467,69	1271,79
467,89	1234,93
468,10	1298,41
468,30	1267,69
468,50	1224,69
468,71	1228,78
468,91	1306,60
469,11	1208,30
469,31	1273,84
469,52	1320,94
469,72	1322,99
469,92	1202,16
470,13	1284,08
470,33	1179,63
470,53	1331,18
470,73	1292,27
470,94	1247,21
471,14	1294,32
471,34	1255,40
471,54	1282,03
471,75	1239,02
471,95	1269,74
472,15	1298,41
472,36	1296,36
472,56	1241,07
472,76	1210,35
472,96	1337,32
473,17	1222,64
473,37	1224,69
473,57	1183,73
473,77	1312,75
473,98	1220,59
474,18	1220,59
474,38	1224,69
474,58	1273,84
474,79	1214,45
474,99	1255,40
475,19	1275,88
475,39	1298,41
475,60	1236,97
475,80	1275,88
476,00	1284,08
476,20	1263,60
476,41	1286,12
476,61	1308,65
476,81	1306,60
477,01	1228,78
477,21	1222,64
477,42	1236,97
477,62	1267,69
477,82	1212,40
478,02	1249,26
478,23	1284,08
478,43	1296,36
478,63	1232,88
478,83	1265,64
479,03	1198,06
479,24	1282,03
479,44	1343,47
479,64	1273,84
479,84	1302,51
480,04	1329,13
480,25	1310,70
480,45	1234,93
480,65	1298,41
480,85	1216,49
481,06	1279,98
481,26	1302,51
481,46	1257,45
481,66	1249,26
481,86	1337,32
482,06	1239,02
482,27	1284,08
482,47	1316,84
482,67	1212,40
482,87	1243,12
483,07	1247,21
483,28	1331,18
483,48	1327,08
483,68	1220,59
483,88	1290,22
484,08	1243,12
484,29	1286,12
484,49	1277,93
484,69	1187,82
484,89	1282,03
485,09	1288,17
485,29	1245,16
485,50	1320,94
485,70	1282,03
485,90	1249,26
486,10	1269,74
486,30	1208,30
486,50	1271,79
486,71	1255,40
486,91	1204,21
487,11	1292,27
487,31	1277,93
487,51	1308,65
487,71	1224,69
487,91	1253,36
488,12	1269,74
488,32	1279,98
488,52	1288,17
488,72	1286,12
488,92	1296,36
489,12	1263,60
489,32	1325,04
489,53	1294,32
489,73	1247,21
489,93	1269,74
490,13	1296,36
490,33	1263,60
490,53	1290,22
490,73	1288,17
490,94	1253,36
491,14	1279,98
491,34	1224,69
491,54	1322,99
491,74	1296,36
491,94	1271,79
492,14	1218,54
492,34	1304,56
492,54	1230,83
492,75	1347,56
492,95	1292,27
493,15	1339,37
493,35	1273,84
493,55	1251,31
493,75	1226,73
493,95	1282,03
494,15	1165,29
494,35	1263,60
494,56	1288,17
494,76	1226,73
494,96	1269,74
495,16	1271,79
495,36	1249,26
495,56	1302,51
495,76	1159,15
495,96	1271,79
496,16	1263,60
496,36	1327,08
496,56	1243,12
496,77	1298,41
496,97	1320,94
497,17	1314,80
497,37	1222,64
497,57	1351,66
497,77	1232,88
497,97	1251,31
498,17	1232,88
498,37	1267,69
498,57	1282,03
498,77	1236,97
498,97	1273,84
499,17	1353,71
499,38	1253,36
499,58	1296,36
499,78	1230,83
499,98	1310,70
500,18	1277,93
500,38	1302,51
500,58	1290,22
500,78	1230,83
500,98	1325,04
501,18	1245,16
501,38	1306,60
501,58	1325,04
501,78	1279,98
501,98	1255,40
502,18	1304,56
502,38	1267,69
502,58	1265,64
502,78	1224,69
502,98	1261,55
503,18	1236,97
503,38	1241,07
503,59	1226,73
503,79	1183,73
503,99	1296,36
504,19	1269,74
504,39	1306,60
504,59	1263,60
504,79	1243,12
504,99	1261,55
505,19	1314,80
505,39	1200,11
505,59	1288,17
505,79	1253,36
505,99	1257,45
506,19	1298,41
506,39	1302,51
506,59	1282,03
506,79	1234,93
506,99	1290,22
507,19	1230,83
507,39	1325,04
507,59	1263,60
507,79	1255,40
507,99	1298,41
508,19	1290,22
508,39	1212,40
508,59	1255,40
508,79	1298,41
508,99	1259,50
509,19	1294,32
509,39	1279,98
509,59	1247,21
509,79	1267,69
509,99	1339,37
510,19	1359,85
510,39	1228,78
510,59	1265,64
510,79	1351,66
510,99	1218,54
511,19	1232,88
511,39	1255,40
511,59	1284,08
511,79	1316,84
511,99	1234,93
512,19	1292,27
512,38	1204,21
512,58	1196,01
512,78	1243,12
512,98	1245,16
513,18	1320,94
513,38	1208,30
513,58	1239,02
513,78	1228,78
513,98	1290,22
514,18	1261,55
514,38	1339,37
514,58	1273,84
514,78	1259,50
514,98	1259,50
515,18	1261,55
515,38	1224,69
515,58	1292,27
515,78	1243,12
515,98	1200,11
516,18	1366,00
516,38	1327,08
516,57	1282,03
516,77	1226,73
516,97	1286,12
517,17	1282,03
517,37	1230,83
517,57	1267,69
517,77	1271,79
517,97	1298,41
518,17	1245,16
518,37	1259,50
518,57	1273,84
518,77	1249,26
518,97	1345,52
519,16	1275,88
519,36	1253,36
519,56	1204,21
519,76	1286,12
519,96	1193,97
520,16	1349,61
520,36	1327,08
520,56	1232,88
520,76	1275,88
520,96	1247,21
521,16	1263,60
521,35	1310,70
521,55	1230,83
521,75	1265,64
521,95	1271,79
522,15	1282,03
522,35	1265,64
522,55	1271,79
522,75	1284,08
522,95	1187,82
523,14	1216,49
523,34	1300,46
523,54	1220,59
523,74	1214,45
523,94	1183,73
524,14	1279,98
524,34	1216,49
524,54	1222,64
524,73	1255,40
524,93	1257,45
525,13	1269,74
525,33	1269,74
525,53	1277,93
525,73	1206,25
525,93	1249,26
526,13	1288,17
526,32	1294,32
526,52	1275,88
526,72	1294,32
526,92	1273,84
527,12	1239,02
527,32	1255,40
527,52	1232,88
527,71	1261,55
527,91	1327,08
528,11	1282,03
528,31	1288,17
528,51	1288,17
528,71	1228,78
528,90	1263,60
529,10	1263,60
529,30	1273,84
529,50	1255,40
529,70	1265,64
529,90	1267,69
530,09	1253,36
530,29	1308,65
530,49	1191,92
530,69	1273,84
530,89	1234,93
531,09	1212,40
531,28	1226,73
531,48	1249,26
531,68	1361,90
531,88	1220,59
532,08	1298,41
532,28	1263,60
532,47	1271,79
532,67	1255,40
532,87	1269,74
533,07	1189,87
533,27	1318,89
533,46	1304,56
533,66	1255,40
533,86	1249,26
534,06	1259,50
534,26	1302,51
534,45	1228,78
534,65	1273,84
534,85	1271,79
535,05	1308,65
535,25	1298,41
535,44	1282,03
535,64	1253,36
535,84	1290,22
536,04	1251,31
536,24	1265,64
536,43	1249,26
536,63	1290,22
536,83	1304,56
537,03	1249,26
537,22	1212,40
537,42	1259,50
537,62	1273,84
537,82	1241,07
538,02	1247,21
538,21	1355,76
538,41	1343,47
538,61	1312,75
538,81	1271,79
539,00	1304,56
539,20	1257,45
539,40	1288,17
539,60	1275,88
539,79	1212,40
539,99	1204,21
540,19	1267,69
540,39	1261,55
540,58	1290,22
540,78	1222,64
540,98	1241,07
541,18	1249,26
541,37	1306,60
541,57	1279,98
541,77	1216,49
541,97	1222,64
542,16	1230,83
542,36	1314,80
542,56	1292,27
542,76	1247,21
542,95	1247,21
543,15	1286,12
543,35	1349,61
543,54	1265,64
543,74	1236,97
543,94	1361,90
544,14	1286,12
544,33	1216,49
544,53	1345,52
544,73	1257,45
544,93	1247,21
545,12	1255,40
545,32	1257,45
545,52	1206,25
545,71	1175,53
545,91	1314,80
546,11	1241,07
546,30	1249,26
546,50	1292,27
546,70	1239,02
546,90	1298,41
547,09	1224,69
547,29	1259,50
547,49	1226,73
547,68	1249,26
547,88	1230,83
548,08	1259,50
548,27	1286,12
548,47	1306,60
548,67	1359,85
548,87	1292,27
549,06	1253,36
549,26	1312,75
549,46	1234,93
549,65	1263,60
549,85	1265,64
550,05	1191,92
550,24	1253,36
550,44	1298,41
550,64	1191,92
550,83	1224,69
551,03	1296,36
551,23	1331,18
551,42	1273,84
551,62	1271,79
551,82	1277,93
552,01	1320,94
552,21	1177,58
552,41	1290,22
552,60	1288,17
552,80	1239,02
553,00	1255,40
553,19	1271,79
553,39	1282,03
553,59	1275,88
553,78	1220,59
553,98	1267,69
554,17	1249,26
554,37	1286,12
554,57	1191,92
554,76	1257,45
554,96	1273,84
555,16	1239,02
555,35	1290,22
555,55	1282,03
555,75	1296,36
555,94	1310,70
556,14	1230,83
556,33	1210,35
556,53	1226,73
556,73	1271,79
556,92	1253,36
557,12	1222,64
557,32	1322,99
557,51	1208,30
557,71	1316,84
557,90	1275,88
558,10	1249,26
558,30	1179,63
558,49	1200,11
558,69	1261,55
558,88	1286,12
559,08	1269,74
559,28	1300,46
559,47	1316,84
559,67	1273,84
559,86	1245,16
560,06	1249,26
560,26	1241,07
560,45	1263,60
560,65	1230,83
560,84	1286,12
561,04	1257,45
561,24	1308,65
561,43	1290,22
561,63	1318,89
561,82	1302,51
562,02	1230,83
562,22	1376,24
562,41	1230,83
562,61	1269,74
562,80	1218,54
563,00	1265,64
563,19	1232,88
563,39	1263,60
563,59	1261,55
563,78	1214,45
563,98	1234,93
564,17	1226,73
564,37	1171,44
564,56	1341,42
564,76	1204,21
564,96	1312,75
565,15	1243,12
565,35	1325,04
565,54	1316,84
565,74	1304,56
565,93	1232,88
566,13	1279,98
566,32	1251,31
566,52	1210,35
566,71	1265,64
566,91	1386,47
567,11	1261,55
567,30	1353,71
567,50	1249,26
567,69	1257,45
567,89	1284,08
568,08	1318,89
568,28	1220,59
568,47	1314,80
568,67	1230,83
568,86	1279,98
569,06	1253,36
569,25	1208,30
569,45	1257,45
569,64	1212,40
569,84	1304,56
570,04	1312,75
570,23	1265,64
570,43	1232,88
570,62	1294,32
570,82	1269,74
571,01	1263,60
571,21	1351,66
571,40	1230,83
571,60	1257,45
571,79	1282,03
571,99	1300,46
572,18	1249,26
572,38	1314,80
572,57	1290,22
572,77	1273,84
572,96	1368,04
573,16	1247,21
573,35	1222,64
573,55	1290,22
573,74	1236,97
573,94	1325,04
574,13	1327,08
574,33	1271,79
574,52	1310,70
574,71	1277,93
574,91	1312,75
575,10	1249,26
575,30	1267,69
575,49	1282,03
575,69	1277,93
575,88	1232,88
576,08	1241,07
576,27	1220,59
576,47	1257,45
576,66	1282,03
576,86	1245,16
577,05	1288,17
577,25	1306,60
577,44	1286,12
577,64	1177,58
577,83	1269,74
578,02	1239,02
578,22	1310,70
578,41	1144,81
578,61	1300,46
578,80	1263,60
579,00	1210,35
579,19	1249,26
579,39	1304,56
579,58	1253,36
579,77	1288,17
579,97	1243,12
580,16	1263,60
580,36	1275,88
580,55	1286,12
580,75	1230,83
580,94	1198,06
581,13	1308,65
581,33	1253,36
581,52	1300,46
581,72	1290,22
581,91	1292,27
582,11	1273,84
582,30	1261,55
582,49	1226,73
582,69	1273,84
582,88	1290,22
583,08	1263,60
583,27	1271,79
583,47	1261,55
583,66	1259,50
583,85	1314,80
584,05	1273,84
584,24	1339,37
584,44	1259,50
584,63	1220,59
584,82	1210,35
585,02	1263,60
585,21	1277,93
585,41	1232,88
585,60	1294,32
585,79	1312,75
585,99	1263,60
586,18	1312,75
586,37	1241,07
586,57	1208,30
586,76	1298,41
586,96	1212,40
587,15	1259,50
587,34	1333,23
587,54	1279,98
587,73	1277,93
587,93	1279,98
588,12	1253,36
588,31	1273,84
588,51	1300,46
588,70	1259,50
588,89	1263,60
589,09	1249,26
589,28	1290,22
589,47	1331,18
589,67	1198,06
589,86	1308,65
590,06	1284,08
590,25	1196,01
590,44	1239,02
590,64	1247,21
590,83	1265,64
591,02	1290,22
591,22	1259,50
591,41	1249,26
591,60	1220,59
591,80	1306,60
591,99	1298,41
592,18	1257,45
592,38	1257,45
592,57	1277,93
592,76	1241,07
592,96	1226,73
593,15	1296,36
593,34	1196,01
593,54	1259,50
593,73	1322,99
593,92	1335,28
594,12	1236,97
594,31	1286,12
594,50	1290,22
594,70	1253,36
594,89	1249,26
595,08	1314,80
595,28	1249,26
595,47	1284,08
595,66	1161,20
595,86	1255,40
596,05	1294,32
596,24	1167,34
596,43	1282,03
596,63	1263,60
596,82	1329,13
597,01	1212,40
597,21	1214,45
597,40	1312,75
597,59	1275,88
597,79	1341,42
597,98	1304,56
598,17	1288,17
598,36	1306,60
598,56	1290,22
598,75	1226,73
598,94	1294,32
599,14	1255,40
599,33	1222,64
599,52	1269,74
599,71	1228,78
599,91	1282,03
600,10	1271,79
600,29	1222,64
600,48	1298,41
600,68	1265,64
600,87	1288,17
601,06	1212,40
601,26	1296,36
601,45	1259,50
601,64	1261,55
601,83	1333,23
602,03	1251,31
602,22	1249,26
602,41	1331,18
602,60	1257,45
602,80	1220,59
602,99	1224,69
603,18	1253,36
603,37	1259,50
603,57	1282,03
603,76	1279,98
603,95	1394,67
604,14	1214,45
604,34	1269,74
604,53	1273,84
604,72	1282,03
604,91	1265,64
605,10	1228,78
605,30	1273,84
605,49	1269,74
605,68	1279,98
605,87	1187,82
606,07	1298,41
606,26	1316,84
606,45	1282,03
606,64	1214,45
606,84	1202,16
607,03	1257,45
607,22	1232,88
607,41	1210,35
607,60	1222,64
607,80	1282,03
607,99	1253,36
608,18	1265,64
608,37	1277,93
608,56	1234,93
608,76	1247,21
608,95	1400,81
609,14	1288,17
609,33	1265,64
609,52	1298,41
609,72	1249,26
609,91	1228,78
610,10	1314,80
610,29	1198,06
610,48	1331,18
610,68	1277,93
610,87	1273,84
611,06	1263,60
611,25	1279,98
611,44	1171,44
611,63	1345,52
611,83	1298,41
612,02	1257,45
612,21	1345,52
612,40	1230,83
612,59	1273,84
612,79	1224,69
612,98	1249,26
613,17	1245,16
613,36	1320,94
613,55	1214,45
613,74	1337,32
613,93	1286,12
614,13	1271,79
614,32	1234,93
614,51	1273,84
614,70	1224,69
614,89	1251,31
615,08	1277,93
615,28	1259,50
615,47	1191,92
615,66	1249,26
615,85	1318,89
616,04	1286,12
616,23	1265,64
616,42	1339,37
616,62	1249,26
616,81	1232,88
617,00	1267,69
617,19	1343,47
617,38	1228,78
617,57	1347,56
617,76	1314,80
617,95	1298,41
618,15	1347,56
618,34	1282,03
618,53	1265,64
618,72	1331,18
618,91	1263,60
619,10	1296,36
619,29	1265,64
619,48	1304,56
619,68	1267,69
619,87	1232,88
620,06	1239,02
620,25	1249,26
620,44	1230,83
620,63	1277,93
620,82	1236,97
621,01	1228,78
621,20	1277,93
621,39	1322,99
621,59	1249,26
621,78	1224,69
621,97	1228,78
622,16	1222,64
622,35	1322,99
622,54	1331,18
622,73	1230,83
622,92	1273,84
623,11	1224,69
623,30	1286,12
623,49	1245,16
623,68	1234,93
623,88	1263,60
624,07	1245,16
624,26	1245,16
624,45	1255,40
624,64	1243,12
624,83	1296,36
625,02	1251,31
625,21	1388,52
625,40	1298,41
625,59	1288,17
625,78	1304,56
625,97	1349,61
626,16	1292,27
626,35	1245,16
626,54	1318,89
626,74	1347,56
626,93	1337,32
627,12	1228,78
627,31	1290,22
627,50	1284,08
627,69	1302,51
627,88	1292,27
628,07	1288,17
628,26	1263,60
628,45	1245,16
628,64	1255,40
628,83	1257,45
629,02	1288,17
629,21	1292,27
629,40	1300,46
629,59	1257,45
629,78	1298,41
629,97	1202,16
630,16	1245,16
630,35	1204,21
630,54	1279,98
630,73	1310,70
630,92	1372,14
631,11	1335,28
631,30	1259,50
631,49	1273,84
631,68	1349,61
631,87	1458,15
632,06	1708,01
632,25	1525,74
632,44	1558,50
632,63	1681,38
632,82	2080,74
633,01	3717,06
633,20	3268,56
633,39	2908,12
633,58	2119,65
633,77	2510,81
633,96	3516,36
634,15	4249,54
634,34	3858,37
634,53	2922,45
634,72	2199,52
634,91	1853,41
635,10	1597,42
635,29	1591,27
635,48	1556,46
635,67	1468,39
635,86	1462,25
636,05	1447,91
636,24	1327,08
636,43	1384,43
636,62	1261,55
636,81	1286,12
637,00	1296,36
637,19	1312,75
637,38	1359,85
637,57	1282,03
637,76	1279,98
637,95	1335,28
638,14	1390,57
638,33	1349,61
638,52	1343,47
638,71	1269,74
638,89	1314,80
639,08	1329,13
639,27	1325,04
639,46	1263,60
639,65	1314,80
639,84	1325,04
640,03	1302,51
640,22	1232,88
640,41	1255,40
640,60	1294,32
640,79	1351,66
640,98	1249,26
641,17	1318,89
641,36	1269,74
641,55	1269,74
641,74	1271,79
641,92	1306,60
642,11	1333,23
642,30	1288,17
642,49	1228,78
642,68	1257,45
642,87	1388,52
643,06	1214,45
643,25	1239,02
643,44	1294,32
643,63	1335,28
643,82	1292,27
644,00	1249,26
644,19	1296,36
644,38	1267,69
644,57	1318,89
644,76	1257,45
644,95	1269,74
645,14	1167,34
645,33	1329,13
645,52	1220,59
645,71	1210,35
645,89	1222,64
646,08	1249,26
646,27	1349,61
646,46	1306,60
646,65	1228,78
646,84	1243,12
647,03	1302,51
647,22	1282,03
647,40	1265,64
647,59	1263,60
647,78	1222,64
647,97	1284,08
648,16	1273,84
648,35	1269,74
648,54	1337,32
648,73	1286,12
648,91	1259,50
649,10	1298,41
649,29	1265,64
649,48	1226,73
649,67	1257,45
649,86	1273,84
650,05	1253,36
650,23	1230,83
650,42	1282,03
650,61	1322,99
650,80	1306,60
650,99	1226,73
651,18	1288,17
651,36	1329,13
651,55	1249,26
651,74	1249,26
651,93	1273,84
652,12	1251,31
652,31	1263,60
652,49	1322,99
652,68	1191,92
652,87	1261,55
653,06	1257,45
653,25	1253,36
653,44	1341,42
653,62	1273,84
653,81	1218,54
654,00	1245,16
654,19	1316,84
654,38	1296,36
654,56	1257,45
654,75	1296,36
654,94	1255,40
655,13	1226,73
655,32	1257,45
655,51	1298,41
655,69	1267,69
655,88	1249,26
656,07	1253,36
656,26	1296,36
656,45	1171,44
656,63	1318,89
656,82	1284,08
657,01	1292,27
657,20	1298,41
657,38	1306,60
657,57	1310,70
657,76	1282,03
657,95	1273,84
658,14	1316,84
658,32	1279,98
658,51	1255,40
658,70	1314,80
658,89	1210,35
659,08	1255,40
659,26	1296,36
659,45	1247,21
659,64	1271,79
659,83	1200,11
660,01	1273,84
660,20	1198,06
660,39	1271,79
660,58	1222,64
660,76	1329,13
660,95	1327,08
661,14	1296,36
661,33	1327,08
661,51	1292,27
661,70	1257,45
661,89	1257,45
662,08	1228,78
662,26	1300,46
662,45	1243,12
662,64	1279,98
662,83	1212,40
663,01	1247,21
663,20	1343,47
663,39	1279,98
663,58	1333,23
663,76	1230,83
663,95	1273,84
664,14	1306,60
664,32	1193,97
664,51	1257,45
664,70	1269,74
664,89	1249,26
665,07	1271,79
665,26	1277,93
665,45	1279,98
665,64	1279,98
665,82	1286,12
666,01	1263,60
666,20	1279,98
666,38	1269,74
666,57	1239,02
666,76	1286,12
666,95	1294,32
667,13	1200,11
667,32	1269,74
667,51	1273,84
667,69	1249,26
667,88	1275,88
668,07	1245,16
668,25	1267,69
668,44	1310,70
668,63	1259,50
668,81	1267,69
669,00	1269,74
669,19	1200,11
669,38	1208,30
669,56	1261,55
669,75	1220,59
669,94	1263,60
670,12	1282,03
670,31	1318,89
670,50	1327,08
670,68	1243,12
670,87	1286,12
671,06	1275,88
671,24	1335,28
671,43	1243,12
671,62	1239,02
671,80	1232,88
671,99	1259,50
672,18	1208,30
672,36	1304,56
672,55	1290,22
672,74	1257,45
672,92	1191,92
673,11	1216,49
673,29	1300,46
673,48	1271,79
673,67	1265,64
673,85	1284,08
674,04	1339,37
674,23	1290,22
674,41	1282,03
674,60	1263,60
674,79	1269,74
674,97	1265,64
675,16	1212,40
675,34	1187,82
675,53	1302,51
675,72	1273,84
675,90	1255,40
676,09	1241,07
676,28	1294,32
676,46	1273,84
676,65	1296,36
676,83	1247,21
677,02	1210,35
677,21	1257,45
677,39	1255,40
677,58	1277,93
677,77	1263,60
677,95	1298,41
678,14	1167,34
678,32	1333,23
678,51	1277,93
678,70	1339,37
678,88	1247,21
679,07	1314,80
679,25	1322,99
679,44	1320,94
679,63	1249,26
679,81	1314,80
680,00	1275,88
680,18	1230,83
680,37	1273,84
680,55	1288,17
680,74	1224,69
680,93	1249,26
681,11	1267,69
681,30	1222,64
681,48	1282,03
681,67	1296,36
681,85	1210,35
682,04	1275,88
682,23	1306,60
682,41	1273,84
682,60	1212,40
682,78	1204,21
682,97	1302,51
683,15	1308,65
683,34	1269,74
683,53	1296,36
683,71	1265,64
683,90	1286,12
684,08	1288,17
684,27	1251,31
684,45	1263,60
684,64	1265,64
684,82	1286,12
685,01	1298,41
685,19	1288,17
685,38	1157,10
685,57	1179,63
685,75	1314,80
685,94	1273,84
686,12	1292,27
686,31	1253,36
686,49	1273,84
686,68	1261,55
686,86	1316,84
687,05	1292,27
687,23	1271,79
687,42	1261,55
687,60	1236,97
687,79	1183,73
687,97	1173,49
688,16	1271,79
688,34	1277,93
688,53	1304,56
688,71	1249,26
688,90	1279,98
689,08	1185,77
689,27	1236,97
689,45	1300,46
689,64	1286,12
689,82	1265,64
690,01	1279,98
690,19	1253,36
690,38	1232,88
690,56	1306,60
690,75	1316,84
690,93	1273,84
691,12	1253,36
691,30	1183,73
691,49	1312,75
691,67	1245,16
691,86	1208,30
692,04	1236,97
692,23	1241,07
692,41	1292,27
692,60	1327,08
692,78	1191,92
692,97	1208,30
693,15	1241,07
693,34	1269,74
693,52	1245,16
693,71	1255,40
693,89	1259,50
694,08	1273,84
694,26	1249,26
694,44	1220,59
694,63	1279,98
694,81	1267,69
695,00	1288,17
695,18	1306,60
695,37	1267,69
695,55	1284,08
695,74	1179,63
695,92	1298,41
696,10	1351,66
696,29	1284,08
696,47	1218,54
696,66	1279,98
696,84	1282,03
697,03	1249,26
697,21	1261,55
697,40	1314,80
697,58	1347,56
697,76	1253,36
697,95	1224,69
698,13	1202,16
698,32	1257,45
698,50	1292,27
698,68	1284,08
698,87	1257,45
699,05	1218,54
699,24	1257,45
699,42	1251,31
699,61	1271,79
699,79	1306,60
699,97	1243,12
700,16	1241,07
700,34	1202,16
700,53	1220,59
700,71	1298,41
700,89	1216,49
701,08	1228,78
701,26	1218,54
701,45	1275,88
701,63	1206,25
701,81	1251,31
702,00	1263,60
702,18	1265,64
702,37	1327,08
702,55	1265,64
702,73	1308,65
702,92	1329,13
703,10	1239,02
703,28	1267,69
703,47	1255,40
703,65	1218,54
703,84	1277,93
704,02	1210,35
704,20	1312,75
704,39	1347,56
704,57	1304,56
704,75	1185,77
704,94	1296,36
705,12	1255,40
705,30	1304,56
705,49	1251,31
705,67	1290,22
705,86	1253,36
706,04	1165,29
706,22	1265,64
706,41	1214,45
706,59	1277,93
706,77	1228,78
706,96	1208,30
707,14	1222,64
707,32	1220,59
707,51	1247,21
707,69	1206,25
707,87	1277,93
708,06	1333,23
708,24	1259,50
708,42	1296,36
708,61	1290,22
708,79	1284,08
708,97	1204,21
709,16	1236,97
709,34	1255,40
709,52	1259,50
709,71	1251,31
709,89	1259,50
710,07	1279,98
710,26	1255,40
710,44	1247,21
710,62	1255,40
710,80	1255,40
710,99	1337,32
711,17	1282,03
711,35	1236,97
711,54	1286,12
711,72	1157,10
711,90	1286,12
712,09	1236,97
712,27	1275,88
712,45	1255,40
712,63	1267,69
712,82	1290,22
713,00	1257,45
713,18	1236,97
713,37	1218,54
713,55	1216,49
713,73	1265,64
713,91	1339,37
714,10	1251,31
714,28	1286,12
714,46	1236,97
714,65	1247,21
714,83	1216,49
715,01	1247,21
715,19	1277,93
715,38	1296,36
715,56	1275,88
715,74	1253,36
715,92	1277,93
716,11	1329,13
716,29	1279,98
716,47	1312,75
716,65	1249,26
716,84	1263,60
717,02	1265,64
717,20	1200,11
717,38	1265,64
717,57	1322,99
717,75	1228,78
717,93	1208,30
718,11	1239,02
718,30	1202,16
718,48	1292,27
718,66	1304,56
718,84	1363,95
719,03	1318,89
719,21	1263,60
719,39	1282,03
719,57	1247,21
719,75	1366,00
719,94	1282,03
720,12	1259,50
720,30	1253,36
720,48	1226,73
720,67	1208,30
720,85	1181,68
721,03	1306,60
721,21	1288,17
721,39	1304,56
721,58	1216,49
721,76	1331,18
721,94	1239,02
722,12	1214,45
722,30	1279,98
722,49	1304,56
722,67	1282,03
722,85	1349,61
723,03	1245,16
723,21	1306,60
723,40	1134,57
723,58	1255,40
723,76	1327,08
723,94	1296,36
724,12	1263,60
724,30	1273,84
724,49	1316,84
724,67	1247,21
724,85	1290,22
725,03	1267,69
725,21	1269,74
725,40	1329,13
725,58	1282,03
725,76	1265,64
725,94	1292,27
726,12	1296,36
726,30	1230,83
726,49	1271,79
726,67	1286,12
726,85	1298,41
727,03	1239,02
727,21	1273,84
727,39	1261,55
727,57	1253,36
727,76	1277,93
727,94	1245,16
728,12	1239,02
728,30	1263,60
728,48	1265,64
728,66	1302,51
728,84	1282,03
729,03	1216,49
729,21	1263,60
729,39	1263,60
729,57	1288,17
729,75	1236,97
729,93	1245,16
730,11	1273,84
730,30	1267,69
730,48	1263,60
730,66	1222,64
730,84	1296,36
731,02	1339,37
731,20	1265,64
731,38	1265,64
731,56	1271,79
731,74	1220,59
731,93	1247,21
732,11	1263,60
732,29	1222,64
732,47	1282,03
732,65	1335,28
732,83	1249,26
733,01	1265,64
733,19	1296,36
733,37	1290,22
733,56	1200,11
733,74	1202,16
733,92	1331,18
734,10	1290,22
734,28	1259,50
734,46	1322,99
734,64	1253,36
734,82	1265,64
735,00	1226,73
735,18	1253,36
735,36	1279,98
735,54	1234,93
735,73	1288,17
735,91	1263,60
736,09	1298,41
736,27	1261,55
736,45	1222,64
736,63	1230,83
736,81	1282,03
736,99	1296,36
737,17	1302,51
737,35	1302,51
737,53	1234,93
737,71	1230,83
737,89	1247,21
738,07	1300,46
738,25	1316,84
738,43	1259,50
738,61	1232,88
738,80	1255,40
738,98	1222,64
739,16	1267,69
739,34	1218,54
739,52	1232,88
739,70	1230,83
739,88	1245,16
740,06	1259,50
740,24	1292,27
740,42	1271,79
740,60	1282,03
740,78	1255,40
740,96	1265,64
741,14	1312,75
741,32	1265,64
741,50	1253,36
741,68	1322,99
741,86	1267,69
742,04	1243,12
742,22	1255,40
742,40	1353,71
742,58	1298,41
742,76	1251,31
742,94	1292,27
743,12	1239,02
743,30	1206,25
743,48	1290,22
743,66	1267,69
743,84	1249,26
744,02	1259,50
744,20	1165,29
744,38	1241,07
744,56	1255,40
744,74	1247,21
744,92	1306,60
745,10	1343,47
745,28	1255,40
745,46	1222,64
745,64	1259,50
745,82	1306,60
746,00	1290,22
746,18	1314,80
746,36	1294,32
746,54	1288,17
746,72	1298,41
746,90	1284,08
747,08	1296,36
747,26	1236,97
747,44	1294,32
747,62	1222,64
747,80	1277,93
747,98	1279,98
748,15	1286,12
748,33	1312,75
748,51	1245,16
748,69	1294,32
748,87	1329,13
749,05	1292,27
749,23	1302,51
749,41	1216,49
749,59	1296,36
749,77	1277,93
749,95	1183,73
750,13	1273,84
750,31	1279,98
750,49	1267,69
750,67	1279,98
750,85	1265,64
751,03	1273,84
751,20	1204,21
751,38	1226,73
751,56	1249,26
751,74	1228,78
751,92	1247,21
752,10	1232,88
752,28	1228,78
752,46	1206,25
752,64	1290,22
752,82	1318,89
753,00	1335,28
753,18	1284,08
753,35	1232,88
753,53	1259,50
753,71	1167,34
753,89	1236,97
754,07	1263,60
754,25	1263,60
754,43	1325,04
754,61	1339,37
754,79	1284,08
754,97	1316,84
755,14	1288,17
755,32	1294,32
755,50	1204,21
755,68	1249,26
755,86	1265,64
756,04	1282,03
756,22	1318,89
756,40	1263,60
756,57	1169,39
756,75	1269,74
756,93	1198,06
757,11	1284,08
757,29	1288,17
757,47	1288,17
757,65	1255,40
757,82	1236,97
758,00	1255,40
758,18	1267,69
758,36	1245,16
758,54	1236,97
758,72	1222,64
758,90	1247,21
759,07	1265,64
759,25	1239,02
759,43	1277,93
759,61	1210,35
759,79	1322,99
759,97	1277,93
760,15	1167,34
760,32	1261,55
760,50	1171,44
760,68	1245,16
760,86	1292,27
761,04	1206,25
761,22	1224,69
761,39	1290,22
761,57	1251,31
761,75	1241,07
761,93	1249,26
762,11	1239,02
762,28	1181,68
762,46	1298,41
762,64	1288,17
762,82	1226,73
763,00	1277,93
763,18	1341,42
763,35	1236,97
763,53	1261,55
763,71	1265,64
763,89	1202,16
764,07	1282,03
764,24	1222,64
764,42	1239,02
764,60	1273,84
764,78	1253,36
764,96	1267,69
765,13	1191,92
765,31	1247,21
765,49	1265,64
765,67	1304,56
765,84	1243,12
766,02	1318,89
766,20	1290,22
766,38	1239,02
766,56	1335,28
766,73	1310,70
766,91	1273,84
767,09	1308,65
767,27	1236,97
767,44	1284,08
767,62	1271,79
767,80	1314,80
767,98	1296,36
768,15	1261,55
768,33	1312,75
768,51	1300,46
768,69	1263,60
768,87	1253,36
769,04	1265,64
769,22	1286,12
769,40	1339,37
769,58	1200,11
769,75	1314,80
769,93	1230,83
770,11	1255,40
770,28	1208,30
770,46	1228,78
770,64	1296,36
770,82	1267,69
770,99	1255,40
771,17	1239,02
771,35	1316,84
771,53	1370,09
771,70	1273,84
771,88	1304,56
772,06	1218,54
772,23	1198,06
772,41	1290,22
772,59	1230,83
772,77	1210,35
772,94	1218,54
773,12	1179,63
773,30	1275,88
773,47	1230,83
773,65	1265,64
773,83	1247,21
774,01	1306,60
774,18	1210,35
774,36	1282,03
774,54	1286,12
774,71	1271,79
774,89	1296,36
775,07	1243,12
775,24	1271,79
775,42	1284,08
775,60	1327,08
775,78	1273,84
775,95	1214,45
776,13	1275,88
776,31	1318,89
776,48	1224,69
776,66	1284,08
776,84	1230,83
777,01	1241,07
777,19	1318,89
777,37	1204,21
777,54	1253,36
777,72	1208,30
777,90	1241,07
778,07	1318,89
778,25	1310,70
778,43	1265,64
778,60	1216,49
778,78	1247,21
778,96	1253,36
779,13	1345,52
779,31	1294,32
779,49	1275,88
779,66	1183,73
779,84	1337,32
780,01	1298,41
780,19	1191,92
780,37	1322,99
780,54	1300,46
780,72	1261,55
780,90	1275,88
781,07	1212,40
781,25	1341,42
781,43	1275,88
781,60	1290,22
781,78	1318,89
781,95	1300,46
782,13	1294,32
782,31	1314,80
782,48	1308,65
782,66	1255,40
782,83	1245,16
783,01	1286,12
783,19	1294,32
783,36	1296,36
783,54	1255,40
783,72	1261,55
783,89	1222,64
784,07	1288,17
784,24	1259,50
784,42	1296,36
784,60	1298,41
784,77	1284,08
784,95	1304,56
785,12	1271,79
785,30	1261,55
785,47	1269,74
785,65	1241,07
785,83	1312,75
786,00	1288,17
786,18	1239,02
786,35	1296,36
786,53	1259,50
786,71	1228,78
786,88	1302,51
787,06	1286,12
787,23	1304,56
787,41	1288,17
787,58	1310,70
787,76	1249,26
787,94	1288,17
788,11	1296,36
788,29	1214,45
788,46	1198,06
788,64	1239,02
788,81	1265,64
788,99	1310,70
789,16	1282,03
789,34	1308,65
789,52	1296,36
789,69	1251,31
789,87	1279,98
790,04	1288,17
790,22	1284,08
790,39	1271,79
790,57	1245,16
790,74	1308,65
790,92	1220,59
791,09	1202,16
791,27	1247,21
791,44	1337,32
791,62	1220,59
791,79	1241,07
791,97	1290,22
792,15	1216,49
792,32	1167,34
792,50	1310,70
792,67	1261,55
792,85	1312,75
793,02	1261,55
793,20	1298,41
793,37	1214,45
793,55	1243,12
793,72	1296,36
793,90	1222,64
794,07	1232,88
794,25	1245,16
794,42	1296,36
794,60	1282,03
794,77	1138,67
794,95	1320,94
795,12	1259,50
795,30	1255,40
795,47	1296,36
795,65	1314,80
795,82	1267,69
796,00	1255,40
796,17	1267,69
796,34	1216,49
796,52	1232,88
796,69	1243,12
796,87	1294,32
797,04	1259,50
797,22	1224,69
797,39	1265,64
797,57	1232,88
797,74	1320,94
797,92	1253,36
798,09	1187,82
798,27	1298,41
798,44	1230,83
798,62	1183,73
798,79	1236,97
798,96	1275,88
799,14	1249,26
799,31	1368,04
799,49	1290,22
799,66	1306,60
799,84	1271,79
800,01	1236,97
800,19	1232,88
800,36	1318,89
800,53	1187,82
800,71	1288,17
800,88	1284,08
801,06	1234,93
801,23	1275,88
801,41	1286,12
801,58	1247,21
801,75	1290,22
801,93	1257,45
802,10	1275,88
802,28	1271,79
802,45	1239,02
802,63	1263,60
802,80	1284,08
802,97	1277,93
803,15	1218,54
803,32	1265,64
803,50	1302,51
803,67	1298,41
803,84	1181,68
804,02	1247,21
804,19	1333,23
804,37	1216,49
804,54	1294,32
804,71	1269,74
804,89	1226,73
805,06	1239,02
805,24	1259,50
805,41	1314,80
805,58	1282,03
805,76	1294,32
805,93	1300,46
806,10	1322,99
806,28	1290,22
806,45	1279,98
806,63	1243,12
806,80	1294,32
806,97	1282,03
807,15	1290,22
807,32	1292,27
807,49	1230,83
807,67	1269,74
807,84	1277,93
808,01	1196,01
808,19	1257,45
808,36	1212,40
808,54	1218,54
808,71	1243,12
808,88	1296,36
809,06	1218,54
809,23	1249,26
809,40	1257,45
809,58	1267,69
809,75	1286,12
809,92	1286,12
810,10	1277,93
810,27	1234,93
810,44	1214,45
810,62	1247,21
810,79	1314,80
810,96	1308,65
811,14	1208,30
811,31	1255,40
811,48	1277,93
811,66	1243,12
811,83	1251,31
812,00	1308,65
812,18	1230,83
812,35	1290,22
812,52	1249,26
812,69	1279,98
812,87	1251,31
813,04	1298,41
813,21	1331,18
813,39	1320,94
813,56	1234,93
813,73	1273,84
813,91	1286,12
814,08	1271,79
814,25	1320,94
814,42	1292,27
814,60	1312,75
814,77	1206,25
814,94	1247,21
815,12	1271,79
815,29	1249,26
815,46	1329,13
815,63	1251,31
815,81	1257,45
815,98	1261,55
816,15	1224,69
816,33	1329,13
816,50	1265,64
816,67	1243,12
816,84	1255,40
817,02	1318,89
817,19	1245,16
817,36	1263,60
817,53	1275,88
817,71	1214,45
817,88	1189,87
818,05	1263,60
818,22	1232,88
818,40	1347,56
818,57	1251,31
818,74	1290,22
818,91	1255,40
819,09	1290,22
819,26	1286,12
819,43	1251,31
819,60	1230,83
819,78	1290,22
819,95	1265,64
820,12	1306,60
820,29	1255,40
820,47	1243,12
820,64	1290,22
820,81	1267,69
820,98	1249,26
821,15	1288,17
821,33	1292,27
821,50	1335,28
821,67	1294,32
821,84	1314,80
822,02	1236,97
822,19	1253,36
822,36	1273,84
822,53	1222,64
822,70	1318,89
822,88	1290,22
823,05	1226,73
823,22	1273,84
823,39	1265,64
823,56	1333,23
823,74	1265,64
823,91	1282,03
824,08	1284,08
824,25	1261,55
824,42	1267,69
824,60	1255,40
824,77	1271,79
824,94	1259,50
825,11	1282,03
825,28	1259,50
825,45	1241,07
825,63	1249,26
825,80	1212,40
825,97	1251,31
826,14	1296,36
826,31	1261,55
826,48	1388,52
826,66	1279,98
826,83	1302,51
827,00	1247,21
827,17	1253,36
827,34	1198,06
827,51	1210,35
827,69	1202,16
827,86	1224,69
828,03	1292,27
828,20	1273,84
828,37	1335,28
828,54	1296,36
828,71	1290,22
828,89	1279,98
829,06	1189,87
829,23	1247,21
829,40	1327,08
829,57	1296,36
829,74	1261,55
829,91	1349,61
830,09	1269,74
830,26	1259,50
830,43	1249,26
830,60	1337,32
830,77	1298,41
830,94	1279,98
831,11	1253,36
831,28	1353,71
831,46	1249,26
831,63	1232,88
831,80	1290,22
831,97	1232,88
832,14	1224,69
832,31	1312,75
832,48	1275,88
832,65	1230,83
832,82	1294,32
832,99	1189,87
833,17	1234,93
833,34	1298,41
833,51	1282,03
833,68	1320,94
833,85	1239,02
834,02	1257,45
834,19	1216,49
834,36	1263,60
834,53	1329,13
834,70	1316,84
834,87	1286,12
835,04	1234,93
835,22	1210,35
835,39	1273,84
835,56	1249,26
835,73	1230,83
835,90	1232,88
836,07	1243,12
836,24	1245,16
836,41	1218,54
836,58	1261,55
836,75	1294,32
836,92	1232,88
837,09	1306,60
837,26	1261,55
837,43	1239,02
837,60	1308,65
837,77	1220,59
837,94	1232,88
838,12	1239,02
838,29	1214,45
838,46	1298,41
838,63	1286,12
838,80	1296,36
838,97	1181,68
839,14	1210,35
839,31	1275,88
839,48	1181,68
839,65	1267,69
839,82	1275,88
839,99	1310,70
840,16	1275,88
840,33	1294,32
840,50	1267,69
840,67	1282,03
840,84	1255,40
841,01	1249,26
841,18	1310,70
841,35	1214,45
841,52	1339,37
841,69	1333,23
841,86	1230,83
842,03	1257,45
842,20	1222,64
842,37	1294,32
842,54	1155,05
842,71	1351,66
842,88	1304,56
843,05	1255,40
843,22	1222,64
843,39	1294,32
843,56	1247,21
843,73	1288,17
843,90	1286,12
844,07	1306,60
844,24	1282,03
844,41	1243,12
844,58	1331,18
844,75	1255,40
844,92	1314,80
845,09	1257,45
845,26	1214,45
845,43	1318,89
845,60	1279,98
845,77	1228,78
845,94	1236,97
846,10	1290,22
846,27	1290,22
846,44	1273,84
846,61	1259,50
846,78	1269,74
846,95	1279,98
847,12	1214,45
847,29	1314,80
847,46	1261,55
847,63	1279,98
847,80	1243,12
847,97	1239,02
848,14	1284,08
848,31	1218,54
848,48	1163,25
848,65	1325,04
848,82	1296,36
848,98	1222,64
849,15	1318,89
849,32	1259,50
849,49	1263,60
849,66	1228,78
849,83	1310,70
850,00	1216,49
850,17	1327,08
850,34	1216,49
850,51	1304,56
850,68	1263,60
850,85	1271,79
851,01	1253,36
851,18	1337,32
851,35	1288,17
851,52	1251,31
851,69	1325,04
851,86	1275,88
852,03	1269,74
852,20	1298,41
852,37	1282,03
852,53	1232,88
852,70	1245,16
852,87	1222,64
853,04	1271,79
853,21	1165,29
853,38	1177,58
853,55	1208,30
853,72	1255,40
853,89	1286,12
854,05	1265,64
854,22	1347,56
854,39	1220,59
854,56	1241,07
854,73	1241,07
854,90	1386,47
855,07	1294,32
855,23	1302,51
855,40	1247,21
855,57	1312,75
855,74	1210,35
855,91	1263,60
856,08	1267,69
856,25	1265,64
856,41	1263,60
856,58	1288,17
856,75	1239,02
856,92	1284,08
857,09	1230,83
857,26	1236,97
857,42	1288,17
857,59	1314,80
857,76	1368,04
857,93	1226,73
858,10	1177,58
858,27	1224,69
858,43	1310,70
858,60	1239,02
858,77	1245,16
858,94	1249,26
859,11	1261,55
859,27	1226,73
859,44	1196,01
859,61	1255,40
859,78	1286,12
859,95	1302,51
860,12	1353,71
860,28	1331,18
860,45	1261,55
860,62	1255,40
860,79	1255,40
860,95	1253,36
861,12	1298,41
861,29	1288,17
861,46	1279,98
861,63	1216,49
861,79	1265,64
861,96	1179,63
862,13	1234,93
862,30	1243,12
862,47	1241,07
862,63	1302,51
862,80	1269,74
862,97	1304,56
863,14	1306,60
863,30	1292,27
863,47	1267,69
863,64	1261,55
863,81	1279,98
863,97	1335,28
864,14	1294,32
864,31	1292,27
864,48	1288,17
864,65	1290,22
864,81	1261,55
864,98	1284,08
865,15	1263,60
865,32	1304,56
865,48	1296,36
865,65	1275,88
865,82	1196,01
865,98	1277,93
866,15	1347,56
866,32	1251,31
866,49	1282,03
866,65	1277,93
866,82	1269,74
866,99	1288,17
867,16	1279,98
867,32	1308,65
867,49	1247,21
867,66	1245,16
867,83	1302,51
867,99	1302,51
868,16	1259,50
868,33	1226,73
868,49	1288,17
868,66	1261,55
868,83	1273,84
868,99	1284,08
869,16	1298,41
869,33	1275,88
869,50	1230,83
869,66	1298,41
869,83	1257,45
870,00	1247,21
870,16	1288,17
870,33	1279,98
870,50	1267,69
870,66	1257,45
870,83	1214,45
871,00	1216,49
871,17	1286,12
871,33	1325,04
871,50	1288,17
871,67	1273,84
871,83	1271,79
872,00	1273,84
872,17	1239,02
872,33	1312,75
872,50	1271,79
872,67	1200,11
872,83	1282,03
873,00	1236,97
873,17	1306,60
873,33	1247,21
873,50	1306,60
873,67	1288,17
873,83	1257,45
874,00	1255,40
874,16	1214,45
874,33	1230,83
874,50	1255,40
874,66	1257,45
874,83	1265,64
875,00	1275,88
875,16	1277,93
875,33	1271,79
875,50	1316,84
875,66	1224,69
875,83	1200,11
875,99	1269,74
876,16	1277,93
876,33	1251,31
876,49	1292,27
876,66	1169,39
876,83	1265,64
876,99	1294,32
877,16	1277,93
877,32	1271,79
877,49	1247,21
877,66	1269,74
877,82	1286,12
877,99	1245,16
878,15	1304,56
878,32	1193,97
878,49	1247,21
878,65	1204,21
878,82	1232,88
878,98	1247,21
879,15	1259,50
879,32	1265,64
879,48	1282,03
879,65	1286,12
879,81	1345,52
879,98	1226,73
880,15	1239,02
880,31	1284,08
880,48	1294,32
880,64	1282,03
880,81	1249,26
880,97	1277,93
881,14	1193,97
881,31	1236,97
881,47	1308,65
881,64	1267,69
881,80	1292,27
881,97	1279,98
882,13	1333,23
882,30	1153,01
882,47	1290,22
882,63	1208,30
882,80	1292,27
882,96	1343,47
883,13	1288,17
883,29	1282,03
883,46	1288,17
883,62	1273,84
883,79	1245,16
883,95	1220,59
884,12	1331,18
884,29	1273,84
884,45	1241,07
884,62	1243,12
884,78	1279,98
884,95	1251,31
885,11	1251,31
885,28	1249,26
885,44	1308,65
885,61	1273,84
885,77	1267,69
885,94	1165,29
886,10	1214,45
886,27	1255,40
886,43	1339,37
886,60	1257,45
886,76	1267,69
886,93	1275,88
887,09	1320,94
887,26	1253,36
887,42	1282,03
887,59	1220,59
887,75	1249,26
887,92	1212,40
888,08	1255,40
888,25	1263,60
888,41	1259,50
888,58	1327,08
888,74	1286,12
888,91	1290,22
>>>>>End Processed Spectral Data<<<<<
