SpectraSuite Data File
++++++++++++++++++++++++++++++++++++
Date: Sun Apr 03 16:34:34 CEST 2016
User: root
Dark Spectrum Present: No
Reference Spectrum Present: No
Number of Sampled Component Spectra: 1
Spectrometers: USB4C02835
Integration Time (usec): 10000 (USB4C02835)
Spectra Averaged: 1 (USB4C02835)
Boxcar Smoothing: 0 (USB4C02835)
Correct for Electrical Dark: No (USB4C02835)
Strobe/Lamp Enabled: No (USB4C02835)
Correct for Detector Non-linearity: No (USB4C02835)
Correct for Stray Light: No (USB4C02835)
Number of Pixels in Processed Spectrum: 3648
>>>>>Begin Processed Spectral Data<<<<<
177,47	1245,16
177,69	1245,16
177,91	1245,16
178,13	1183,73
178,36	1224,69
178,58	1218,54
178,80	1282,03
179,02	1259,50
179,24	1216,49
179,46	1282,03
179,68	1304,56
179,90	1292,27
180,13	1236,97
180,35	1304,56
180,57	1312,75
180,79	1322,99
181,01	1339,37
181,23	1251,31
181,45	1206,25
181,67	1294,32
181,90	1179,63
182,12	1259,50
182,34	1339,37
182,56	1220,59
182,78	1243,12
183,00	1290,22
183,22	1279,98
183,44	1296,36
183,66	1279,98
183,89	1298,41
184,11	1253,36
184,33	1218,54
184,55	1298,41
184,77	1243,12
184,99	1239,02
185,21	1277,93
185,43	1224,69
185,65	1306,60
185,87	1200,11
186,10	1284,08
186,32	1349,61
186,54	1259,50
186,76	1265,64
186,98	1249,26
187,20	1189,87
187,42	1257,45
187,64	1241,07
187,86	1234,93
188,08	1265,64
188,30	1224,69
188,52	1206,25
188,75	1312,75
188,97	1226,73
189,19	1296,36
189,41	1277,93
189,63	1210,35
189,85	1275,88
190,07	1220,59
190,29	1290,22
190,51	1277,93
190,73	1357,80
190,95	1294,32
191,17	1245,16
191,39	1245,16
191,61	1288,17
191,84	1302,51
192,06	1251,31
192,28	1202,16
192,50	1265,64
192,72	1204,21
192,94	1286,12
193,16	1253,36
193,38	1345,52
193,60	1247,21
193,82	1273,84
194,04	1241,07
194,26	1325,04
194,48	1220,59
194,70	1312,75
194,92	1226,73
195,14	1318,89
195,36	1267,69
195,58	1222,64
195,80	1282,03
196,02	1310,70
196,24	1241,07
196,46	1216,49
196,69	1273,84
196,91	1239,02
197,13	1220,59
197,35	1294,32
197,57	1271,79
197,79	1273,84
198,01	1327,08
198,23	1271,79
198,45	1224,69
198,67	1216,49
198,89	1298,41
199,11	1269,74
199,33	1327,08
199,55	1241,07
199,77	1228,78
199,99	1249,26
200,21	1218,54
200,43	1253,36
200,65	1198,06
200,87	1312,75
201,09	1275,88
201,31	1279,98
201,53	1255,40
201,75	1275,88
201,97	1204,21
202,19	1284,08
202,41	1320,94
202,63	1263,60
202,85	1257,45
203,07	1255,40
203,29	1263,60
203,51	1251,31
203,73	1214,45
203,95	1271,79
204,17	1234,93
204,39	1249,26
204,61	1290,22
204,83	1286,12
205,05	1322,99
205,27	1282,03
205,49	1261,55
205,71	1261,55
205,93	1251,31
206,15	1263,60
206,37	1267,69
206,59	1277,93
206,81	1236,97
207,03	1259,50
207,25	1253,36
207,47	1275,88
207,69	1234,93
207,91	1282,03
208,13	1234,93
208,34	1286,12
208,56	1232,88
208,78	1302,51
209,00	1335,28
209,22	1261,55
209,44	1290,22
209,66	1187,82
209,88	1241,07
210,10	1247,21
210,32	1247,21
210,54	1257,45
210,76	1251,31
210,98	1222,64
211,20	1269,74
211,42	1261,55
211,64	1298,41
211,86	1271,79
212,08	1304,56
212,30	1169,39
212,52	1298,41
212,74	1249,26
212,96	1251,31
213,17	1392,62
213,39	1249,26
213,61	1263,60
213,83	1296,36
214,05	1294,32
214,27	1263,60
214,49	1206,25
214,71	1275,88
214,93	1294,32
215,15	1271,79
215,37	1306,60
215,59	1269,74
215,81	1275,88
216,03	1245,16
216,24	1282,03
216,46	1277,93
216,68	1259,50
216,90	1224,69
217,12	1316,84
217,34	1296,36
217,56	1302,51
217,78	1339,37
218,00	1273,84
218,22	1200,11
218,44	1310,70
218,66	1290,22
218,87	1282,03
219,09	1273,84
219,31	1290,22
219,53	1255,40
219,75	1318,89
219,97	1230,83
220,19	1247,21
220,41	1279,98
220,63	1302,51
220,85	1290,22
221,06	1284,08
221,28	1257,45
221,50	1220,59
221,72	1333,23
221,94	1275,88
222,16	1222,64
222,38	1263,60
222,60	1255,40
222,82	1286,12
223,03	1243,12
223,25	1341,42
223,47	1337,32
223,69	1214,45
223,91	1202,16
224,13	1294,32
224,35	1302,51
224,57	1318,89
224,78	1308,65
225,00	1327,08
225,22	1257,45
225,44	1263,60
225,66	1343,47
225,88	1228,78
226,10	1275,88
226,32	1316,84
226,53	1343,47
226,75	1243,12
226,97	1243,12
227,19	1290,22
227,41	1275,88
227,63	1214,45
227,85	1331,18
228,06	1269,74
228,28	1257,45
228,50	1282,03
228,72	1284,08
228,94	1368,04
229,16	1255,40
229,37	1210,35
229,59	1310,70
229,81	1273,84
230,03	1296,36
230,25	1271,79
230,47	1257,45
230,69	1245,16
230,90	1331,18
231,12	1187,82
231,34	1300,46
231,56	1306,60
231,78	1292,27
232,00	1275,88
232,21	1232,88
232,43	1214,45
232,65	1296,36
232,87	1239,02
233,09	1296,36
233,30	1241,07
233,52	1304,56
233,74	1251,31
233,96	1222,64
234,18	1271,79
234,40	1306,60
234,61	1191,92
234,83	1284,08
235,05	1263,60
235,27	1290,22
235,49	1273,84
235,70	1257,45
235,92	1228,78
236,14	1316,84
236,36	1249,26
236,58	1316,84
236,79	1267,69
237,01	1249,26
237,23	1247,21
237,45	1249,26
237,67	1327,08
237,88	1230,83
238,10	1331,18
238,32	1232,88
238,54	1310,70
238,76	1288,17
238,97	1304,56
239,19	1302,51
239,41	1261,55
239,63	1239,02
239,85	1255,40
240,06	1259,50
240,28	1288,17
240,50	1275,88
240,72	1320,94
240,93	1331,18
241,15	1177,58
241,37	1308,65
241,59	1304,56
241,81	1263,60
242,02	1269,74
242,24	1302,51
242,46	1265,64
242,68	1312,75
242,89	1318,89
243,11	1259,50
243,33	1265,64
243,55	1224,69
243,76	1253,36
243,98	1232,88
244,20	1282,03
244,42	1310,70
244,64	1255,40
244,85	1308,65
245,07	1249,26
245,29	1247,21
245,51	1325,04
245,72	1339,37
245,94	1265,64
246,16	1335,28
246,38	1253,36
246,59	1230,83
246,81	1288,17
247,03	1220,59
247,24	1267,69
247,46	1265,64
247,68	1273,84
247,90	1282,03
248,11	1277,93
248,33	1339,37
248,55	1263,60
248,77	1296,36
248,98	1286,12
249,20	1251,31
249,42	1241,07
249,64	1304,56
249,85	1286,12
250,07	1251,31
250,29	1236,97
250,50	1302,51
250,72	1288,17
250,94	1314,80
251,16	1327,08
251,37	1208,30
251,59	1251,31
251,81	1277,93
252,02	1363,95
252,24	1216,49
252,46	1335,28
252,68	1267,69
252,89	1226,73
253,11	1243,12
253,33	1294,32
253,54	1261,55
253,76	1267,69
253,98	1275,88
254,20	1310,70
254,41	1191,92
254,63	1282,03
254,85	1239,02
255,06	1370,09
255,28	1271,79
255,50	1255,40
255,71	1269,74
255,93	1271,79
256,15	1259,50
256,36	1265,64
256,58	1308,65
256,80	1247,21
257,02	1251,31
257,23	1175,53
257,45	1259,50
257,67	1310,70
257,88	1320,94
258,10	1298,41
258,32	1236,97
258,53	1294,32
258,75	1189,87
258,97	1345,52
259,18	1265,64
259,40	1247,21
259,62	1308,65
259,83	1263,60
260,05	1259,50
260,27	1312,75
260,48	1298,41
260,70	1318,89
260,92	1284,08
261,13	1236,97
261,35	1249,26
261,57	1247,21
261,78	1249,26
262,00	1302,51
262,22	1267,69
262,43	1259,50
262,65	1251,31
262,86	1304,56
263,08	1286,12
263,30	1265,64
263,51	1236,97
263,73	1224,69
263,95	1198,06
264,16	1236,97
264,38	1306,60
264,60	1286,12
264,81	1189,87
265,03	1214,45
265,25	1284,08
265,46	1239,02
265,68	1320,94
265,89	1245,16
266,11	1234,93
266,33	1263,60
266,54	1316,84
266,76	1339,37
266,98	1304,56
267,19	1306,60
267,41	1249,26
267,62	1290,22
267,84	1206,25
268,06	1269,74
268,27	1284,08
268,49	1310,70
268,70	1249,26
268,92	1331,18
269,14	1255,40
269,35	1259,50
269,57	1273,84
269,79	1345,52
270,00	1292,27
270,22	1206,25
270,43	1329,13
270,65	1265,64
270,87	1257,45
271,08	1236,97
271,30	1304,56
271,51	1288,17
271,73	1228,78
271,95	1296,36
272,16	1263,60
272,38	1282,03
272,59	1257,45
272,81	1279,98
273,02	1263,60
273,24	1230,83
273,46	1230,83
273,67	1290,22
273,89	1271,79
274,10	1294,32
274,32	1263,60
274,54	1294,32
274,75	1206,25
274,97	1286,12
275,18	1343,47
275,40	1220,59
275,61	1286,12
275,83	1284,08
276,05	1308,65
276,26	1273,84
276,48	1175,53
276,69	1325,04
276,91	1275,88
277,12	1273,84
277,34	1290,22
277,55	1331,18
277,77	1376,24
277,99	1376,24
278,20	1204,21
278,42	1333,23
278,63	1273,84
278,85	1191,92
279,06	1282,03
279,28	1263,60
279,49	1261,55
279,71	1296,36
279,93	1267,69
280,14	1222,64
280,36	1286,12
280,57	1263,60
280,79	1292,27
281,00	1261,55
281,22	1333,23
281,43	1247,21
281,65	1304,56
281,86	1275,88
282,08	1253,36
282,29	1230,83
282,51	1267,69
282,73	1259,50
282,94	1255,40
283,16	1247,21
283,37	1335,28
283,59	1228,78
283,80	1290,22
284,02	1286,12
284,23	1284,08
284,45	1271,79
284,66	1236,97
284,88	1261,55
285,09	1241,07
285,31	1255,40
285,52	1265,64
285,74	1306,60
285,95	1316,84
286,17	1275,88
286,38	1271,79
286,60	1265,64
286,81	1271,79
287,03	1255,40
287,24	1251,31
287,46	1239,02
287,67	1269,74
287,89	1318,89
288,10	1202,16
288,32	1296,36
288,53	1243,12
288,75	1208,30
288,96	1292,27
289,18	1265,64
289,39	1284,08
289,61	1275,88
289,82	1249,26
290,04	1224,69
290,25	1300,46
290,47	1220,59
290,68	1312,75
290,90	1300,46
291,11	1322,99
291,33	1245,16
291,54	1263,60
291,76	1234,93
291,97	1222,64
292,18	1279,98
292,40	1325,04
292,61	1355,76
292,83	1314,80
293,04	1257,45
293,26	1185,77
293,47	1294,32
293,69	1177,58
293,90	1302,51
294,12	1327,08
294,33	1257,45
294,55	1306,60
294,76	1331,18
294,97	1269,74
295,19	1267,69
295,40	1277,93
295,62	1290,22
295,83	1286,12
296,05	1277,93
296,26	1144,81
296,48	1249,26
296,69	1202,16
296,90	1337,32
297,12	1368,04
297,33	1282,03
297,55	1271,79
297,76	1234,93
297,98	1322,99
298,19	1279,98
298,41	1271,79
298,62	1257,45
298,83	1204,21
299,05	1273,84
299,26	1255,40
299,48	1275,88
299,69	1212,40
299,90	1322,99
300,12	1286,12
300,33	1282,03
300,55	1327,08
300,76	1251,31
300,98	1279,98
301,19	1284,08
301,40	1275,88
301,62	1208,30
301,83	1245,16
302,05	1241,07
302,26	1298,41
302,47	1335,28
302,69	1337,32
302,90	1265,64
303,12	1234,93
303,33	1255,40
303,54	1255,40
303,76	1185,77
303,97	1239,02
304,19	1282,03
304,40	1277,93
304,61	1198,06
304,83	1294,32
305,04	1349,61
305,26	1288,17
305,47	1269,74
305,68	1267,69
305,90	1300,46
306,11	1257,45
306,33	1208,30
306,54	1312,75
306,75	1296,36
306,97	1236,97
307,18	1261,55
307,39	1273,84
307,61	1339,37
307,82	1241,07
308,04	1232,88
308,25	1267,69
308,46	1241,07
308,68	1198,06
308,89	1296,36
309,10	1267,69
309,32	1234,93
309,53	1292,27
309,74	1257,45
309,96	1275,88
310,17	1247,21
310,39	1302,51
310,60	1314,80
310,81	1273,84
311,03	1206,25
311,24	1327,08
311,45	1271,79
311,67	1320,94
311,88	1150,96
312,09	1208,30
312,31	1286,12
312,52	1308,65
312,73	1329,13
312,95	1245,16
313,16	1255,40
313,37	1329,13
313,59	1288,17
313,80	1304,56
314,01	1312,75
314,23	1171,44
314,44	1259,50
314,65	1222,64
314,87	1239,02
315,08	1275,88
315,29	1325,04
315,51	1314,80
315,72	1200,11
315,93	1271,79
316,15	1296,36
316,36	1249,26
316,57	1290,22
316,79	1312,75
317,00	1275,88
317,21	1302,51
317,43	1216,49
317,64	1273,84
317,85	1286,12
318,07	1273,84
318,28	1255,40
318,49	1239,02
318,70	1245,16
318,92	1243,12
319,13	1325,04
319,34	1224,69
319,56	1294,32
319,77	1226,73
319,98	1279,98
320,20	1251,31
320,41	1316,84
320,62	1271,79
320,83	1316,84
321,05	1236,97
321,26	1302,51
321,47	1261,55
321,69	1279,98
321,90	1179,63
322,11	1224,69
322,32	1304,56
322,54	1304,56
322,75	1302,51
322,96	1273,84
323,18	1294,32
323,39	1294,32
323,60	1302,51
323,81	1257,45
324,03	1239,02
324,24	1234,93
324,45	1271,79
324,66	1200,11
324,88	1345,52
325,09	1292,27
325,30	1269,74
325,52	1329,13
325,73	1257,45
325,94	1234,93
326,15	1271,79
326,37	1261,55
326,58	1247,21
326,79	1216,49
327,00	1245,16
327,22	1232,88
327,43	1322,99
327,64	1310,70
327,85	1290,22
328,07	1263,60
328,28	1292,27
328,49	1265,64
328,70	1331,18
328,92	1224,69
329,13	1251,31
329,34	1312,75
329,55	1200,11
329,76	1304,56
329,98	1265,64
330,19	1331,18
330,40	1392,62
330,61	1339,37
330,83	1267,69
331,04	1273,84
331,25	1224,69
331,46	1265,64
331,68	1304,56
331,89	1271,79
332,10	1312,75
332,31	1249,26
332,52	1249,26
332,74	1290,22
332,95	1267,69
333,16	1259,50
333,37	1234,93
333,58	1308,65
333,80	1298,41
334,01	1204,21
334,22	1263,60
334,43	1275,88
334,64	1239,02
334,86	1249,26
335,07	1271,79
335,28	1249,26
335,49	1228,78
335,70	1314,80
335,92	1333,23
336,13	1275,88
336,34	1226,73
336,55	1282,03
336,76	1294,32
336,98	1304,56
337,19	1183,73
337,40	1257,45
337,61	1284,08
337,82	1314,80
338,04	1343,47
338,25	1304,56
338,46	1271,79
338,67	1249,26
338,88	1257,45
339,09	1263,60
339,31	1271,79
339,52	1322,99
339,73	1273,84
339,94	1279,98
340,15	1322,99
340,36	1239,02
340,58	1322,99
340,79	1339,37
341,00	1271,79
341,21	1257,45
341,42	1265,64
341,63	1224,69
341,85	1228,78
342,06	1269,74
342,27	1282,03
342,48	1288,17
342,69	1236,97
342,90	1241,07
343,12	1230,83
343,33	1257,45
343,54	1296,36
343,75	1261,55
343,96	1247,21
344,17	1212,40
344,38	1312,75
344,60	1253,36
344,81	1220,59
345,02	1220,59
345,23	1335,28
345,44	1306,60
345,65	1269,74
345,86	1275,88
346,07	1288,17
346,29	1298,41
346,50	1230,83
346,71	1320,94
346,92	1202,16
347,13	1359,85
347,34	1286,12
347,55	1304,56
347,76	1277,93
347,98	1234,93
348,19	1249,26
348,40	1265,64
348,61	1251,31
348,82	1327,08
349,03	1306,60
349,24	1243,12
349,45	1267,69
349,66	1292,27
349,88	1304,56
350,09	1314,80
350,30	1284,08
350,51	1265,64
350,72	1222,64
350,93	1335,28
351,14	1294,32
351,35	1331,18
351,56	1290,22
351,77	1296,36
351,99	1259,50
352,20	1257,45
352,41	1322,99
352,62	1273,84
352,83	1308,65
353,04	1294,32
353,25	1249,26
353,46	1316,84
353,67	1234,93
353,88	1245,16
354,09	1243,12
354,30	1329,13
354,52	1253,36
354,73	1335,28
354,94	1257,45
355,15	1208,30
355,36	1257,45
355,57	1247,21
355,78	1224,69
355,99	1296,36
356,20	1292,27
356,41	1263,60
356,62	1306,60
356,83	1257,45
357,04	1314,80
357,25	1253,36
357,46	1314,80
357,68	1265,64
357,89	1277,93
358,10	1255,40
358,31	1288,17
358,52	1320,94
358,73	1322,99
358,94	1243,12
359,15	1320,94
359,36	1277,93
359,57	1249,26
359,78	1230,83
359,99	1312,75
360,20	1267,69
360,41	1300,46
360,62	1284,08
360,83	1304,56
361,04	1302,51
361,25	1241,07
361,46	1288,17
361,67	1277,93
361,88	1310,70
362,09	1294,32
362,30	1316,84
362,51	1236,97
362,72	1232,88
362,93	1247,21
363,14	1329,13
363,35	1279,98
363,56	1265,64
363,78	1261,55
363,99	1257,45
364,20	1290,22
364,41	1232,88
364,62	1212,40
364,83	1292,27
365,04	1318,89
365,25	1200,11
365,46	1267,69
365,67	1318,89
365,88	1277,93
366,09	1318,89
366,30	1312,75
366,51	1302,51
366,72	1255,40
366,93	1212,40
367,14	1236,97
367,35	1290,22
367,56	1320,94
367,77	1273,84
367,98	1261,55
368,18	1382,38
368,39	1296,36
368,60	1259,50
368,81	1286,12
369,02	1349,61
369,23	1232,88
369,44	1275,88
369,65	1214,45
369,86	1222,64
370,07	1259,50
370,28	1353,71
370,49	1220,59
370,70	1269,74
370,91	1347,56
371,12	1247,21
371,33	1243,12
371,54	1288,17
371,75	1329,13
371,96	1294,32
372,17	1241,07
372,38	1273,84
372,59	1267,69
372,80	1306,60
373,01	1263,60
373,22	1279,98
373,43	1325,04
373,64	1236,97
373,85	1304,56
374,06	1236,97
374,26	1288,17
374,47	1179,63
374,68	1349,61
374,89	1292,27
375,10	1214,45
375,31	1304,56
375,52	1282,03
375,73	1245,16
375,94	1333,23
376,15	1306,60
376,36	1327,08
376,57	1245,16
376,78	1286,12
376,99	1286,12
377,20	1226,73
377,40	1273,84
377,61	1290,22
377,82	1331,18
378,03	1216,49
378,24	1290,22
378,45	1249,26
378,66	1245,16
378,87	1155,05
379,08	1310,70
379,29	1318,89
379,50	1230,83
379,71	1239,02
379,91	1308,65
380,12	1277,93
380,33	1366,00
380,54	1286,12
380,75	1279,98
380,96	1273,84
381,17	1271,79
381,38	1218,54
381,59	1318,89
381,80	1220,59
382,00	1292,27
382,21	1277,93
382,42	1206,25
382,63	1298,41
382,84	1267,69
383,05	1271,79
383,26	1275,88
383,47	1259,50
383,68	1245,16
383,88	1263,60
384,09	1316,84
384,30	1245,16
384,51	1261,55
384,72	1277,93
384,93	1245,16
385,14	1341,42
385,35	1302,51
385,55	1265,64
385,76	1306,60
385,97	1308,65
386,18	1329,13
386,39	1396,71
386,60	1294,32
386,81	1177,58
387,02	1259,50
387,22	1247,21
387,43	1298,41
387,64	1318,89
387,85	1292,27
388,06	1216,49
388,27	1253,36
388,48	1329,13
388,68	1288,17
388,89	1292,27
389,10	1288,17
389,31	1249,26
389,52	1308,65
389,73	1265,64
389,93	1273,84
390,14	1263,60
390,35	1247,21
390,56	1253,36
390,77	1234,93
390,98	1253,36
391,18	1298,41
391,39	1267,69
391,60	1271,79
391,81	1257,45
392,02	1255,40
392,23	1322,99
392,43	1298,41
392,64	1181,68
392,85	1302,51
393,06	1296,36
393,27	1253,36
393,47	1234,93
393,68	1316,84
393,89	1245,16
394,10	1267,69
394,31	1300,46
394,52	1337,32
394,72	1255,40
394,93	1208,30
395,14	1222,64
395,35	1271,79
395,56	1214,45
395,76	1232,88
395,97	1351,66
396,18	1306,60
396,39	1226,73
396,60	1290,22
396,80	1308,65
397,01	1245,16
397,22	1339,37
397,43	1288,17
397,64	1243,12
397,84	1259,50
398,05	1277,93
398,26	1277,93
398,47	1247,21
398,67	1220,59
398,88	1290,22
399,09	1259,50
399,30	1331,18
399,51	1198,06
399,71	1228,78
399,92	1228,78
400,13	1234,93
400,34	1306,60
400,54	1247,21
400,75	1275,88
400,96	1277,93
401,17	1224,69
401,37	1265,64
401,58	1310,70
401,79	1271,79
402,00	1398,76
402,21	1304,56
402,41	1284,08
402,62	1298,41
402,83	1257,45
403,04	1298,41
403,24	1337,32
403,45	1243,12
403,66	1269,74
403,87	1279,98
404,07	1216,49
404,28	1265,64
404,49	1259,50
404,70	1275,88
404,90	1370,09
405,11	1339,37
405,32	1284,08
405,52	1327,08
405,73	1261,55
405,94	1251,31
406,15	1208,30
406,35	1253,36
406,56	1273,84
406,77	1263,60
406,98	1286,12
407,18	1259,50
407,39	1230,83
407,60	1236,97
407,80	1259,50
408,01	1273,84
408,22	1282,03
408,43	1212,40
408,63	1322,99
408,84	1286,12
409,05	1339,37
409,25	1292,27
409,46	1251,31
409,67	1245,16
409,88	1288,17
410,08	1288,17
410,29	1247,21
410,50	1296,36
410,70	1187,82
410,91	1316,84
411,12	1232,88
411,32	1273,84
411,53	1327,08
411,74	1310,70
411,95	1300,46
412,15	1296,36
412,36	1241,07
412,57	1261,55
412,77	1296,36
412,98	1236,97
413,19	1239,02
413,39	1263,60
413,60	1265,64
413,81	1316,84
414,01	1343,47
414,22	1292,27
414,43	1316,84
414,63	1282,03
414,84	1173,49
415,05	1302,51
415,25	1275,88
415,46	1286,12
415,67	1253,36
415,87	1306,60
416,08	1263,60
416,29	1249,26
416,49	1255,40
416,70	1265,64
416,91	1230,83
417,11	1255,40
417,32	1314,80
417,53	1263,60
417,73	1261,55
417,94	1220,59
418,15	1296,36
418,35	1212,40
418,56	1224,69
418,77	1255,40
418,97	1249,26
419,18	1198,06
419,38	1230,83
419,59	1210,35
419,80	1331,18
420,00	1300,46
420,21	1265,64
420,42	1288,17
420,62	1292,27
420,83	1279,98
421,04	1263,60
421,24	1306,60
421,45	1265,64
421,65	1259,50
421,86	1265,64
422,07	1226,73
422,27	1239,02
422,48	1325,04
422,69	1302,51
422,89	1253,36
423,10	1255,40
423,30	1251,31
423,51	1232,88
423,72	1269,74
423,92	1251,31
424,13	1298,41
424,33	1277,93
424,54	1249,26
424,75	1253,36
424,95	1282,03
425,16	1308,65
425,36	1286,12
425,57	1173,49
425,78	1253,36
425,98	1298,41
426,19	1200,11
426,39	1255,40
426,60	1245,16
426,81	1353,71
427,01	1232,88
427,22	1273,84
427,42	1232,88
427,63	1312,75
427,83	1290,22
428,04	1249,26
428,25	1236,97
428,45	1314,80
428,66	1302,51
428,86	1265,64
429,07	1284,08
429,28	1257,45
429,48	1247,21
429,69	1232,88
429,89	1228,78
430,10	1259,50
430,30	1222,64
430,51	1292,27
430,71	1314,80
430,92	1269,74
431,13	1226,73
431,33	1351,66
431,54	1245,16
431,74	1249,26
431,95	1314,80
432,15	1218,54
432,36	1271,79
432,56	1288,17
432,77	1275,88
432,98	1292,27
433,18	1232,88
433,39	1243,12
433,59	1146,86
433,80	1294,32
434,00	1236,97
434,21	1290,22
434,41	1230,83
434,62	1314,80
434,82	1308,65
435,03	1216,49
435,23	1267,69
435,44	1165,29
435,64	1241,07
435,85	1271,79
436,06	1243,12
436,26	1273,84
436,47	1247,21
436,67	1261,55
436,88	1214,45
437,08	1320,94
437,29	1345,52
437,49	1263,60
437,70	1269,74
437,90	1261,55
438,11	1230,83
438,31	1308,65
438,52	1277,93
438,72	1173,49
438,93	1294,32
439,13	1263,60
439,34	1296,36
439,54	1226,73
439,75	1220,59
439,95	1263,60
440,16	1290,22
440,36	1296,36
440,57	1308,65
440,77	1222,64
440,98	1247,21
441,18	1298,41
441,39	1322,99
441,59	1232,88
441,80	1282,03
442,00	1331,18
442,21	1249,26
442,41	1255,40
442,62	1290,22
442,82	1232,88
443,02	1271,79
443,23	1308,65
443,43	1273,84
443,64	1288,17
443,84	1232,88
444,05	1247,21
444,25	1263,60
444,46	1279,98
444,66	1273,84
444,87	1265,64
445,07	1322,99
445,28	1267,69
445,48	1257,45
445,69	1263,60
445,89	1294,32
446,09	1271,79
446,30	1329,13
446,50	1265,64
446,71	1306,60
446,91	1255,40
447,12	1290,22
447,32	1245,16
447,53	1265,64
447,73	1294,32
447,93	1241,07
448,14	1263,60
448,34	1251,31
448,55	1241,07
448,75	1208,30
448,96	1255,40
449,16	1267,69
449,36	1290,22
449,57	1279,98
449,77	1216,49
449,98	1196,01
450,18	1253,36
450,39	1155,05
450,59	1245,16
450,79	1327,08
451,00	1212,40
451,20	1282,03
451,41	1331,18
451,61	1232,88
451,81	1245,16
452,02	1314,80
452,22	1275,88
452,43	1253,36
452,63	1288,17
452,84	1345,52
453,04	1249,26
453,24	1316,84
453,45	1282,03
453,65	1325,04
453,86	1232,88
454,06	1269,74
454,26	1273,84
454,47	1236,97
454,67	1226,73
454,87	1218,54
455,08	1282,03
455,28	1271,79
455,49	1263,60
455,69	1271,79
455,89	1241,07
456,10	1286,12
456,30	1234,93
456,51	1320,94
456,71	1263,60
456,91	1339,37
457,12	1298,41
457,32	1294,32
457,52	1300,46
457,73	1294,32
457,93	1216,49
458,14	1279,98
458,34	1279,98
458,54	1267,69
458,75	1304,56
458,95	1314,80
459,15	1239,02
459,36	1247,21
459,56	1337,32
459,76	1267,69
459,97	1298,41
460,17	1269,74
460,37	1288,17
460,58	1298,41
460,78	1251,31
460,99	1271,79
461,19	1253,36
461,39	1279,98
461,60	1253,36
461,80	1251,31
462,00	1279,98
462,21	1279,98
462,41	1247,21
462,61	1224,69
462,82	1316,84
463,02	1232,88
463,22	1304,56
463,43	1269,74
463,63	1290,22
463,83	1259,50
464,04	1247,21
464,24	1308,65
464,44	1300,46
464,64	1269,74
464,85	1337,32
465,05	1263,60
465,25	1306,60
465,46	1279,98
465,66	1236,97
465,86	1288,17
466,07	1351,66
466,27	1271,79
466,47	1314,80
466,68	1282,03
466,88	1259,50
467,08	1279,98
467,29	1298,41
467,49	1251,31
467,69	1314,80
467,89	1224,69
468,10	1224,69
468,30	1257,45
468,50	1312,75
468,71	1241,07
468,91	1243,12
469,11	1275,88
469,31	1239,02
469,52	1339,37
469,72	1339,37
469,92	1333,23
470,13	1288,17
470,33	1286,12
470,53	1239,02
470,73	1267,69
470,94	1310,70
471,14	1255,40
471,34	1261,55
471,54	1224,69
471,75	1271,79
471,95	1275,88
472,15	1310,70
472,36	1288,17
472,56	1232,88
472,76	1263,60
472,96	1251,31
473,17	1308,65
473,37	1271,79
473,57	1296,36
473,77	1341,42
473,98	1335,28
474,18	1290,22
474,38	1218,54
474,58	1224,69
474,79	1316,84
474,99	1261,55
475,19	1304,56
475,39	1292,27
475,60	1286,12
475,80	1249,26
476,00	1296,36
476,20	1288,17
476,41	1286,12
476,61	1255,40
476,81	1296,36
477,01	1292,27
477,21	1306,60
477,42	1306,60
477,62	1249,26
477,82	1318,89
478,02	1320,94
478,23	1306,60
478,43	1343,47
478,63	1232,88
478,83	1277,93
479,03	1247,21
479,24	1259,50
479,44	1302,51
479,64	1288,17
479,84	1234,93
480,04	1345,52
480,25	1208,30
480,45	1308,65
480,65	1302,51
480,85	1284,08
481,06	1220,59
481,26	1275,88
481,46	1200,11
481,66	1169,39
481,86	1263,60
482,06	1271,79
482,27	1257,45
482,47	1224,69
482,67	1290,22
482,87	1263,60
483,07	1253,36
483,28	1310,70
483,48	1343,47
483,68	1267,69
483,88	1200,11
484,08	1257,45
484,29	1253,36
484,49	1320,94
484,69	1306,60
484,89	1269,74
485,09	1271,79
485,29	1247,21
485,50	1327,08
485,70	1298,41
485,90	1261,55
486,10	1263,60
486,30	1271,79
486,50	1251,31
486,71	1232,88
486,91	1261,55
487,11	1232,88
487,31	1236,97
487,51	1304,56
487,71	1204,21
487,91	1294,32
488,12	1161,20
488,32	1316,84
488,52	1269,74
488,72	1198,06
488,92	1286,12
489,12	1322,99
489,32	1234,93
489,53	1290,22
489,73	1302,51
489,93	1222,64
490,13	1261,55
490,33	1292,27
490,53	1257,45
490,73	1292,27
490,94	1286,12
491,14	1349,61
491,34	1261,55
491,54	1357,80
491,74	1208,30
491,94	1259,50
492,14	1241,07
492,34	1320,94
492,54	1261,55
492,75	1239,02
492,95	1347,56
493,15	1257,45
493,35	1226,73
493,55	1206,25
493,75	1288,17
493,95	1366,00
494,15	1269,74
494,35	1353,71
494,56	1243,12
494,76	1226,73
494,96	1253,36
495,16	1200,11
495,36	1259,50
495,56	1222,64
495,76	1304,56
495,96	1296,36
496,16	1271,79
496,36	1181,68
496,56	1249,26
496,77	1361,90
496,97	1302,51
497,17	1271,79
497,37	1241,07
497,57	1222,64
497,77	1327,08
497,97	1226,73
498,17	1259,50
498,37	1259,50
498,57	1263,60
498,77	1335,28
498,97	1337,32
499,17	1218,54
499,38	1279,98
499,58	1232,88
499,78	1271,79
499,98	1247,21
500,18	1282,03
500,38	1288,17
500,58	1234,93
500,78	1247,21
500,98	1292,27
501,18	1257,45
501,38	1298,41
501,58	1245,16
501,78	1226,73
501,98	1212,40
502,18	1171,44
502,38	1277,93
502,58	1300,46
502,78	1239,02
502,98	1263,60
503,18	1273,84
503,38	1265,64
503,59	1222,64
503,79	1234,93
503,99	1320,94
504,19	1230,83
504,39	1263,60
504,59	1312,75
504,79	1261,55
504,99	1282,03
505,19	1267,69
505,39	1269,74
505,59	1304,56
505,79	1337,32
505,99	1222,64
506,19	1253,36
506,39	1275,88
506,59	1208,30
506,79	1286,12
506,99	1228,78
507,19	1337,32
507,39	1279,98
507,59	1368,04
507,79	1273,84
507,99	1224,69
508,19	1269,74
508,39	1259,50
508,59	1320,94
508,79	1245,16
508,99	1322,99
509,19	1273,84
509,39	1275,88
509,59	1269,74
509,79	1255,40
509,99	1257,45
510,19	1247,21
510,39	1226,73
510,59	1339,37
510,79	1245,16
510,99	1241,07
511,19	1253,36
511,39	1226,73
511,59	1259,50
511,79	1310,70
511,99	1251,31
512,19	1249,26
512,38	1267,69
512,58	1345,52
512,78	1243,12
512,98	1300,46
513,18	1269,74
513,38	1191,92
513,58	1298,41
513,78	1331,18
513,98	1257,45
514,18	1271,79
514,38	1265,64
514,58	1226,73
514,78	1267,69
514,98	1322,99
515,18	1284,08
515,38	1322,99
515,58	1286,12
515,78	1302,51
515,98	1236,97
516,18	1322,99
516,38	1222,64
516,57	1277,93
516,77	1185,77
516,97	1261,55
517,17	1261,55
517,37	1277,93
517,57	1208,30
517,77	1312,75
517,97	1183,73
518,17	1277,93
518,37	1288,17
518,57	1234,93
518,77	1208,30
518,97	1220,59
519,16	1290,22
519,36	1267,69
519,56	1263,60
519,76	1228,78
519,96	1279,98
520,16	1284,08
520,36	1234,93
520,56	1214,45
520,76	1284,08
520,96	1310,70
521,16	1284,08
521,35	1216,49
521,55	1284,08
521,75	1282,03
521,95	1247,21
522,15	1261,55
522,35	1220,59
522,55	1265,64
522,75	1331,18
522,95	1288,17
523,14	1206,25
523,34	1298,41
523,54	1247,21
523,74	1253,36
523,94	1234,93
524,14	1337,32
524,34	1316,84
524,54	1292,27
524,73	1189,87
524,93	1286,12
525,13	1269,74
525,33	1155,05
525,53	1255,40
525,73	1245,16
525,93	1288,17
526,13	1245,16
526,32	1202,16
526,52	1202,16
526,72	1361,90
526,92	1265,64
527,12	1259,50
527,32	1253,36
527,52	1271,79
527,71	1224,69
527,91	1265,64
528,11	1247,21
528,31	1251,31
528,51	1318,89
528,71	1255,40
528,90	1245,16
529,10	1339,37
529,30	1259,50
529,50	1282,03
529,70	1273,84
529,90	1230,83
530,09	1304,56
530,29	1271,79
530,49	1310,70
530,69	1273,84
530,89	1249,26
531,09	1310,70
531,28	1277,93
531,48	1196,01
531,68	1255,40
531,88	1232,88
532,08	1302,51
532,28	1251,31
532,47	1314,80
532,67	1286,12
532,87	1191,92
533,07	1251,31
533,27	1349,61
533,46	1232,88
533,66	1198,06
533,86	1251,31
534,06	1220,59
534,26	1236,97
534,45	1224,69
534,65	1251,31
534,85	1284,08
535,05	1257,45
535,25	1284,08
535,44	1261,55
535,64	1288,17
535,84	1306,60
536,04	1318,89
536,24	1284,08
536,43	1230,83
536,63	1259,50
536,83	1239,02
537,03	1257,45
537,22	1255,40
537,42	1257,45
537,62	1269,74
537,82	1269,74
538,02	1263,60
538,21	1292,27
538,41	1247,21
538,61	1286,12
538,81	1193,97
539,00	1329,13
539,20	1243,12
539,40	1236,97
539,60	1333,23
539,79	1241,07
539,99	1245,16
540,19	1245,16
540,39	1241,07
540,58	1265,64
540,78	1316,84
540,98	1239,02
541,18	1306,60
541,37	1325,04
541,57	1275,88
541,77	1249,26
541,97	1298,41
542,16	1226,73
542,36	1247,21
542,56	1261,55
542,76	1284,08
542,95	1288,17
543,15	1269,74
543,35	1277,93
543,54	1310,70
543,74	1251,31
543,94	1288,17
544,14	1337,32
544,33	1339,37
544,53	1273,84
544,73	1239,02
544,93	1306,60
545,12	1245,16
545,32	1247,21
545,52	1241,07
545,71	1288,17
545,91	1263,60
546,11	1347,56
546,30	1265,64
546,50	1296,36
546,70	1357,80
546,90	1204,21
547,09	1290,22
547,29	1284,08
547,49	1337,32
547,68	1290,22
547,88	1288,17
548,08	1216,49
548,27	1357,80
548,47	1320,94
548,67	1279,98
548,87	1273,84
549,06	1245,16
549,26	1251,31
549,46	1218,54
549,65	1286,12
549,85	1249,26
550,05	1200,11
550,24	1202,16
550,44	1310,70
550,64	1273,84
550,83	1228,78
551,03	1333,23
551,23	1294,32
551,42	1306,60
551,62	1267,69
551,82	1296,36
552,01	1210,35
552,21	1304,56
552,41	1265,64
552,60	1271,79
552,80	1241,07
553,00	1222,64
553,19	1292,27
553,39	1292,27
553,59	1230,83
553,78	1277,93
553,98	1204,21
554,17	1269,74
554,37	1212,40
554,57	1304,56
554,76	1179,63
554,96	1312,75
555,16	1222,64
555,35	1196,01
555,55	1251,31
555,75	1288,17
555,94	1337,32
556,14	1228,78
556,33	1298,41
556,53	1282,03
556,73	1249,26
556,92	1247,21
557,12	1259,50
557,32	1253,36
557,51	1339,37
557,71	1327,08
557,90	1243,12
558,10	1247,21
558,30	1249,26
558,49	1298,41
558,69	1308,65
558,88	1331,18
559,08	1271,79
559,28	1310,70
559,47	1310,70
559,67	1269,74
559,86	1318,89
560,06	1339,37
560,26	1288,17
560,45	1208,30
560,65	1288,17
560,84	1234,93
561,04	1282,03
561,24	1269,74
561,43	1318,89
561,63	1181,68
561,82	1298,41
562,02	1298,41
562,22	1257,45
562,41	1134,57
562,61	1273,84
562,80	1267,69
563,00	1239,02
563,19	1312,75
563,39	1265,64
563,59	1226,73
563,78	1249,26
563,98	1314,80
564,17	1288,17
564,37	1273,84
564,56	1257,45
564,76	1277,93
564,96	1279,98
565,15	1310,70
565,35	1253,36
565,54	1200,11
565,74	1339,37
565,93	1257,45
566,13	1310,70
566,32	1228,78
566,52	1296,36
566,71	1279,98
566,91	1265,64
567,11	1290,22
567,30	1245,16
567,50	1208,30
567,69	1265,64
567,89	1216,49
568,08	1208,30
568,28	1271,79
568,47	1236,97
568,67	1247,21
568,86	1212,40
569,06	1335,28
569,25	1257,45
569,45	1277,93
569,64	1331,18
569,84	1306,60
570,04	1306,60
570,23	1318,89
570,43	1290,22
570,62	1269,74
570,82	1279,98
571,01	1255,40
571,21	1284,08
571,40	1243,12
571,60	1304,56
571,79	1290,22
571,99	1181,68
572,18	1298,41
572,38	1234,93
572,57	1331,18
572,77	1243,12
572,96	1253,36
573,16	1314,80
573,35	1245,16
573,55	1279,98
573,74	1255,40
573,94	1269,74
574,13	1275,88
574,33	1251,31
574,52	1284,08
574,71	1271,79
574,91	1224,69
575,10	1234,93
575,30	1277,93
575,49	1245,16
575,69	1226,73
575,88	1273,84
576,08	1282,03
576,27	1312,75
576,47	1206,25
576,66	1312,75
576,86	1296,36
577,05	1232,88
577,25	1251,31
577,44	1230,83
577,64	1355,76
577,83	1282,03
578,02	1277,93
578,22	1308,65
578,41	1300,46
578,61	1314,80
578,80	1220,59
579,00	1267,69
579,19	1249,26
579,39	1241,07
579,58	1318,89
579,77	1247,21
579,97	1275,88
580,16	1273,84
580,36	1310,70
580,55	1263,60
580,75	1257,45
580,94	1277,93
581,13	1300,46
581,33	1286,12
581,52	1245,16
581,72	1273,84
581,91	1220,59
582,11	1265,64
582,30	1310,70
582,49	1310,70
582,69	1273,84
582,88	1282,03
583,08	1306,60
583,27	1222,64
583,47	1216,49
583,66	1263,60
583,85	1236,97
584,05	1308,65
584,24	1245,16
584,44	1337,32
584,63	1320,94
584,82	1277,93
585,02	1255,40
585,21	1300,46
585,41	1230,83
585,60	1273,84
585,79	1261,55
585,99	1298,41
586,18	1269,74
586,37	1241,07
586,57	1236,97
586,76	1273,84
586,96	1333,23
587,15	1275,88
587,34	1226,73
587,54	1284,08
587,73	1267,69
587,93	1226,73
588,12	1277,93
588,31	1230,83
588,51	1318,89
588,70	1236,97
588,89	1333,23
589,09	1327,08
589,28	1273,84
589,47	1380,33
589,67	1187,82
589,86	1210,35
590,06	1239,02
590,25	1314,80
590,44	1300,46
590,64	1232,88
590,83	1261,55
591,02	1269,74
591,22	1208,30
591,41	1312,75
591,60	1241,07
591,80	1331,18
591,99	1302,51
592,18	1269,74
592,38	1251,31
592,57	1279,98
592,76	1337,32
592,96	1335,28
593,15	1267,69
593,34	1243,12
593,54	1243,12
593,73	1298,41
593,92	1265,64
594,12	1251,31
594,31	1304,56
594,50	1282,03
594,70	1284,08
594,89	1277,93
595,08	1230,83
595,28	1400,81
595,47	1220,59
595,66	1337,32
595,86	1232,88
596,05	1214,45
596,24	1210,35
596,43	1290,22
596,63	1263,60
596,82	1296,36
597,01	1228,78
597,21	1259,50
597,40	1286,12
597,59	1308,65
597,79	1247,21
597,98	1286,12
598,17	1292,27
598,36	1290,22
598,56	1296,36
598,75	1273,84
598,94	1263,60
599,14	1224,69
599,33	1241,07
599,52	1232,88
599,71	1249,26
599,91	1255,40
600,10	1253,36
600,29	1259,50
600,48	1267,69
600,68	1304,56
600,87	1255,40
601,06	1269,74
601,26	1277,93
601,45	1273,84
601,64	1243,12
601,83	1288,17
602,03	1232,88
602,22	1329,13
602,41	1200,11
602,60	1273,84
602,80	1290,22
602,99	1269,74
603,18	1202,16
603,37	1173,49
603,57	1226,73
603,76	1267,69
603,95	1312,75
604,14	1255,40
604,34	1263,60
604,53	1302,51
604,72	1259,50
604,91	1243,12
605,10	1284,08
605,30	1222,64
605,49	1181,68
605,68	1318,89
605,87	1255,40
606,07	1226,73
606,26	1271,79
606,45	1212,40
606,64	1284,08
606,84	1208,30
607,03	1228,78
607,22	1234,93
607,41	1329,13
607,60	1216,49
607,80	1359,85
607,99	1361,90
608,18	1275,88
608,37	1269,74
608,56	1300,46
608,76	1239,02
608,95	1259,50
609,14	1288,17
609,33	1304,56
609,52	1232,88
609,72	1320,94
609,91	1322,99
610,10	1275,88
610,29	1314,80
610,48	1261,55
610,68	1312,75
610,87	1249,26
611,06	1220,59
611,25	1187,82
611,44	1265,64
611,63	1245,16
611,83	1277,93
612,02	1249,26
612,21	1249,26
612,40	1243,12
612,59	1208,30
612,79	1302,51
612,98	1265,64
613,17	1269,74
613,36	1267,69
613,55	1271,79
613,74	1284,08
613,93	1316,84
614,13	1318,89
614,32	1284,08
614,51	1376,24
614,70	1263,60
614,89	1345,52
615,08	1279,98
615,28	1327,08
615,47	1171,44
615,66	1234,93
615,85	1257,45
616,04	1308,65
616,23	1212,40
616,42	1251,31
616,62	1263,60
616,81	1239,02
617,00	1284,08
617,19	1294,32
617,38	1234,93
617,57	1239,02
617,76	1257,45
617,95	1275,88
618,15	1298,41
618,34	1267,69
618,53	1226,73
618,72	1298,41
618,91	1314,80
619,10	1265,64
619,29	1320,94
619,48	1273,84
619,68	1249,26
619,87	1232,88
620,06	1257,45
620,25	1236,97
620,44	1292,27
620,63	1374,19
620,82	1224,69
621,01	1298,41
621,20	1325,04
621,39	1271,79
621,59	1310,70
621,78	1257,45
621,97	1239,02
622,16	1357,80
622,35	1243,12
622,54	1306,60
622,73	1298,41
622,92	1351,66
623,11	1290,22
623,30	1300,46
623,49	1273,84
623,68	1255,40
623,88	1216,49
624,07	1343,47
624,26	1296,36
624,45	1257,45
624,64	1251,31
624,83	1298,41
625,02	1200,11
625,21	1388,52
625,40	1322,99
625,59	1306,60
625,78	1265,64
625,97	1370,09
626,16	1322,99
626,35	1306,60
626,54	1265,64
626,74	1290,22
626,93	1318,89
627,12	1212,40
627,31	1226,73
627,50	1284,08
627,69	1302,51
627,88	1320,94
628,07	1314,80
628,26	1294,32
628,45	1282,03
628,64	1282,03
628,83	1273,84
629,02	1312,75
629,21	1298,41
629,40	1320,94
629,59	1300,46
629,78	1298,41
629,97	1269,74
630,16	1245,16
630,35	1329,13
630,54	1273,84
630,73	1312,75
630,92	1271,79
631,11	1322,99
631,30	1302,51
631,49	1322,99
631,68	1400,81
631,87	1466,35
632,06	1433,58
632,25	1497,07
632,44	1499,11
632,63	1560,55
632,82	1615,85
633,01	1877,99
633,20	1599,46
633,39	1642,47
633,58	1568,74
633,77	1689,57
633,96	1630,18
634,15	1515,50
634,34	1609,70
634,53	1562,60
634,72	1593,32
634,91	1492,97
635,10	1581,03
635,29	1462,25
635,48	1497,07
635,67	1427,43
635,86	1556,46
636,05	1421,29
636,24	1376,24
636,43	1396,71
636,62	1388,52
636,81	1245,16
637,00	1396,71
637,19	1263,60
637,38	1388,52
637,57	1396,71
637,76	1325,04
637,95	1392,62
638,14	1279,98
638,33	1234,93
638,52	1265,64
638,71	1312,75
638,89	1294,32
639,08	1316,84
639,27	1282,03
639,46	1327,08
639,65	1349,61
639,84	1294,32
640,03	1363,95
640,22	1322,99
640,41	1247,21
640,60	1224,69
640,79	1230,83
640,98	1261,55
641,17	1290,22
641,36	1232,88
641,55	1333,23
641,74	1308,65
641,92	1343,47
642,11	1220,59
642,30	1259,50
642,49	1220,59
642,68	1271,79
642,87	1294,32
643,06	1245,16
643,25	1286,12
643,44	1298,41
643,63	1306,60
643,82	1249,26
644,00	1220,59
644,19	1314,80
644,38	1222,64
644,57	1273,84
644,76	1247,21
644,95	1282,03
645,14	1327,08
645,33	1259,50
645,52	1288,17
645,71	1282,03
645,89	1290,22
646,08	1269,74
646,27	1251,31
646,46	1322,99
646,65	1327,08
646,84	1241,07
647,03	1271,79
647,22	1187,82
647,40	1275,88
647,59	1267,69
647,78	1214,45
647,97	1271,79
648,16	1284,08
648,35	1292,27
648,54	1220,59
648,73	1212,40
648,91	1290,22
649,10	1310,70
649,29	1329,13
649,48	1318,89
649,67	1249,26
649,86	1290,22
650,05	1310,70
650,23	1212,40
650,42	1304,56
650,61	1296,36
650,80	1263,60
650,99	1343,47
651,18	1292,27
651,36	1306,60
651,55	1257,45
651,74	1282,03
651,93	1290,22
652,12	1279,98
652,31	1259,50
652,49	1249,26
652,68	1331,18
652,87	1251,31
653,06	1228,78
653,25	1241,07
653,44	1249,26
653,62	1296,36
653,81	1234,93
654,00	1234,93
654,19	1282,03
654,38	1193,97
654,56	1269,74
654,75	1198,06
654,94	1290,22
655,13	1218,54
655,32	1193,97
655,51	1292,27
655,69	1339,37
655,88	1271,79
656,07	1306,60
656,26	1249,26
656,45	1310,70
656,63	1296,36
656,82	1269,74
657,01	1343,47
657,20	1196,01
657,38	1249,26
657,57	1206,25
657,76	1249,26
657,95	1249,26
658,14	1200,11
658,32	1277,93
658,51	1269,74
658,70	1245,16
658,89	1271,79
659,08	1279,98
659,26	1255,40
659,45	1257,45
659,64	1214,45
659,83	1200,11
660,01	1304,56
660,20	1253,36
660,39	1200,11
660,58	1273,84
660,76	1316,84
660,95	1185,77
661,14	1255,40
661,33	1204,21
661,51	1267,69
661,70	1247,21
661,89	1306,60
662,08	1245,16
662,26	1253,36
662,45	1265,64
662,64	1273,84
662,83	1286,12
663,01	1216,49
663,20	1265,64
663,39	1196,01
663,58	1345,52
663,76	1314,80
663,95	1245,16
664,14	1298,41
664,32	1271,79
664,51	1161,20
664,70	1273,84
664,89	1286,12
665,07	1290,22
665,26	1249,26
665,45	1327,08
665,64	1290,22
665,82	1257,45
666,01	1333,23
666,20	1191,92
666,38	1327,08
666,57	1257,45
666,76	1193,97
666,95	1337,32
667,13	1224,69
667,32	1255,40
667,51	1271,79
667,69	1269,74
667,88	1232,88
668,07	1241,07
668,25	1292,27
668,44	1243,12
668,63	1279,98
668,81	1341,42
669,00	1277,93
669,19	1306,60
669,38	1265,64
669,56	1255,40
669,75	1318,89
669,94	1298,41
670,12	1273,84
670,31	1269,74
670,50	1316,84
670,68	1247,21
670,87	1275,88
671,06	1271,79
671,24	1310,70
671,43	1273,84
671,62	1249,26
671,80	1251,31
671,99	1292,27
672,18	1267,69
672,36	1302,51
672,55	1314,80
672,74	1294,32
672,92	1282,03
673,11	1265,64
673,29	1288,17
673,48	1290,22
673,67	1312,75
673,85	1210,35
674,04	1232,88
674,23	1230,83
674,41	1267,69
674,60	1282,03
674,79	1290,22
674,97	1208,30
675,16	1245,16
675,34	1220,59
675,53	1169,39
675,72	1331,18
675,90	1267,69
676,09	1312,75
676,28	1239,02
676,46	1198,06
676,65	1191,92
676,83	1288,17
677,02	1271,79
677,21	1298,41
677,39	1277,93
677,58	1310,70
677,77	1220,59
677,95	1255,40
678,14	1286,12
678,32	1245,16
678,51	1282,03
678,70	1286,12
678,88	1267,69
679,07	1257,45
679,25	1322,99
679,44	1245,16
679,63	1226,73
679,81	1247,21
680,00	1284,08
680,18	1224,69
680,37	1294,32
680,55	1267,69
680,74	1282,03
680,93	1312,75
681,11	1198,06
681,30	1284,08
681,48	1271,79
681,67	1208,30
681,85	1265,64
682,04	1245,16
682,23	1351,66
682,41	1310,70
682,60	1232,88
682,78	1255,40
682,97	1286,12
683,15	1265,64
683,34	1275,88
683,53	1302,51
683,71	1245,16
683,90	1318,89
684,08	1210,35
684,27	1284,08
684,45	1290,22
684,64	1271,79
684,82	1312,75
685,01	1271,79
685,19	1226,73
685,38	1290,22
685,57	1259,50
685,75	1208,30
685,94	1263,60
686,12	1263,60
686,31	1267,69
686,49	1247,21
686,68	1294,32
686,86	1304,56
687,05	1292,27
687,23	1267,69
687,42	1255,40
687,60	1318,89
687,79	1302,51
687,97	1316,84
688,16	1253,36
688,34	1214,45
688,53	1165,29
688,71	1310,70
688,90	1277,93
689,08	1296,36
689,27	1230,83
689,45	1320,94
689,64	1341,42
689,82	1312,75
690,01	1228,78
690,19	1290,22
690,38	1288,17
690,56	1241,07
690,75	1279,98
690,93	1296,36
691,12	1279,98
691,30	1302,51
691,49	1304,56
691,67	1198,06
691,86	1267,69
692,04	1206,25
692,23	1200,11
692,41	1345,52
692,60	1253,36
692,78	1241,07
692,97	1286,12
693,15	1296,36
693,34	1286,12
693,52	1267,69
693,71	1261,55
693,89	1247,21
694,08	1243,12
694,26	1226,73
694,44	1228,78
694,63	1304,56
694,81	1288,17
695,00	1290,22
695,18	1286,12
695,37	1277,93
695,55	1273,84
695,74	1214,45
695,92	1253,36
696,10	1230,83
696,29	1255,40
696,47	1275,88
696,66	1275,88
696,84	1347,56
697,03	1318,89
697,21	1339,37
697,40	1339,37
697,58	1241,07
697,76	1210,35
697,95	1189,87
698,13	1308,65
698,32	1261,55
698,50	1253,36
698,68	1310,70
698,87	1241,07
699,05	1189,87
699,24	1298,41
699,42	1284,08
699,61	1286,12
699,79	1236,97
699,97	1296,36
700,16	1296,36
700,34	1300,46
700,53	1306,60
700,71	1302,51
700,89	1273,84
701,08	1208,30
701,26	1263,60
701,45	1308,65
701,63	1236,97
701,81	1298,41
702,00	1271,79
702,18	1273,84
702,37	1294,32
702,55	1277,93
702,73	1271,79
702,92	1212,40
703,10	1298,41
703,28	1216,49
703,47	1308,65
703,65	1259,50
703,84	1251,31
704,02	1241,07
704,20	1302,51
704,39	1277,93
704,57	1249,26
704,75	1257,45
704,94	1261,55
705,12	1263,60
705,30	1265,64
705,49	1245,16
705,67	1273,84
705,86	1290,22
706,04	1275,88
706,22	1277,93
706,41	1296,36
706,59	1179,63
706,77	1267,69
706,96	1212,40
707,14	1304,56
707,32	1265,64
707,51	1263,60
707,69	1249,26
707,87	1320,94
708,06	1167,34
708,24	1263,60
708,42	1273,84
708,61	1316,84
708,79	1265,64
708,97	1230,83
709,16	1306,60
709,34	1273,84
709,52	1273,84
709,71	1239,02
709,89	1232,88
710,07	1210,35
710,26	1243,12
710,44	1357,80
710,62	1212,40
710,80	1202,16
710,99	1267,69
711,17	1292,27
711,35	1329,13
711,54	1290,22
711,72	1273,84
711,90	1314,80
712,09	1247,21
712,27	1282,03
712,45	1271,79
712,63	1294,32
712,82	1318,89
713,00	1247,21
713,18	1279,98
713,37	1263,60
713,55	1261,55
713,73	1314,80
713,91	1228,78
714,10	1271,79
714,28	1267,69
714,46	1232,88
714,65	1247,21
714,83	1245,16
715,01	1271,79
715,19	1292,27
715,38	1239,02
715,56	1187,82
715,74	1312,75
715,92	1282,03
716,11	1234,93
716,29	1325,04
716,47	1220,59
716,65	1153,01
716,84	1167,34
717,02	1218,54
717,20	1282,03
717,38	1296,36
717,57	1277,93
717,75	1245,16
717,93	1198,06
718,11	1249,26
718,30	1275,88
718,48	1329,13
718,66	1282,03
718,84	1333,23
719,03	1255,40
719,21	1218,54
719,39	1294,32
719,57	1286,12
719,75	1325,04
719,94	1224,69
720,12	1302,51
720,30	1273,84
720,48	1247,21
720,67	1228,78
720,85	1286,12
721,03	1210,35
721,21	1286,12
721,39	1304,56
721,58	1263,60
721,76	1232,88
721,94	1269,74
722,12	1255,40
722,30	1245,16
722,49	1226,73
722,67	1294,32
722,85	1208,30
723,03	1247,21
723,21	1312,75
723,40	1267,69
723,58	1245,16
723,76	1286,12
723,94	1341,42
724,12	1277,93
724,30	1249,26
724,49	1257,45
724,67	1284,08
724,85	1187,82
725,03	1296,36
725,21	1271,79
725,40	1263,60
725,58	1236,97
725,76	1294,32
725,94	1193,97
726,12	1193,97
726,30	1228,78
726,49	1269,74
726,67	1300,46
726,85	1312,75
727,03	1218,54
727,21	1273,84
727,39	1232,88
727,57	1304,56
727,76	1241,07
727,94	1294,32
728,12	1202,16
728,30	1277,93
728,48	1243,12
728,66	1318,89
728,84	1286,12
729,03	1226,73
729,21	1255,40
729,39	1249,26
729,57	1204,21
729,75	1290,22
729,93	1220,59
730,11	1259,50
730,30	1257,45
730,48	1304,56
730,66	1296,36
730,84	1265,64
731,02	1261,55
731,20	1267,69
731,38	1255,40
731,56	1343,47
731,74	1325,04
731,93	1263,60
732,11	1271,79
732,29	1318,89
732,47	1251,31
732,65	1312,75
732,83	1277,93
733,01	1333,23
733,19	1257,45
733,37	1251,31
733,56	1251,31
733,74	1302,51
733,92	1236,97
734,10	1318,89
734,28	1226,73
734,46	1273,84
734,64	1284,08
734,82	1271,79
735,00	1294,32
735,18	1327,08
735,36	1261,55
735,54	1310,70
735,73	1239,02
735,91	1255,40
736,09	1245,16
736,27	1284,08
736,45	1230,83
736,63	1304,56
736,81	1236,97
736,99	1265,64
737,17	1290,22
737,35	1257,45
737,53	1286,12
737,71	1308,65
737,89	1249,26
738,07	1163,25
738,25	1267,69
738,43	1247,21
738,61	1261,55
738,80	1185,77
738,98	1261,55
739,16	1282,03
739,34	1243,12
739,52	1259,50
739,70	1363,95
739,88	1253,36
740,06	1370,09
740,24	1282,03
740,42	1282,03
740,60	1296,36
740,78	1333,23
740,96	1296,36
741,14	1279,98
741,32	1271,79
741,50	1292,27
741,68	1284,08
741,86	1292,27
742,04	1271,79
742,22	1282,03
742,40	1294,32
742,58	1314,80
742,76	1253,36
742,94	1245,16
743,12	1200,11
743,30	1320,94
743,48	1327,08
743,66	1288,17
743,84	1312,75
744,02	1249,26
744,20	1296,36
744,38	1222,64
744,56	1314,80
744,74	1279,98
744,92	1245,16
745,10	1218,54
745,28	1273,84
745,46	1265,64
745,64	1306,60
745,82	1294,32
746,00	1232,88
746,18	1290,22
746,36	1269,74
746,54	1249,26
746,72	1335,28
746,90	1312,75
747,08	1263,60
747,26	1306,60
747,44	1216,49
747,62	1341,42
747,80	1228,78
747,98	1325,04
748,15	1232,88
748,33	1306,60
748,51	1318,89
748,69	1224,69
748,87	1216,49
749,05	1220,59
749,23	1271,79
749,41	1220,59
749,59	1318,89
749,77	1327,08
749,95	1333,23
750,13	1271,79
750,31	1245,16
750,49	1327,08
750,67	1316,84
750,85	1304,56
751,03	1230,83
751,20	1230,83
751,38	1302,51
751,56	1294,32
751,74	1310,70
751,92	1243,12
752,10	1253,36
752,28	1204,21
752,46	1292,27
752,64	1224,69
752,82	1325,04
753,00	1257,45
753,18	1226,73
753,35	1259,50
753,53	1322,99
753,71	1263,60
753,89	1290,22
754,07	1251,31
754,25	1245,16
754,43	1241,07
754,61	1306,60
754,79	1255,40
754,97	1247,21
755,14	1327,08
755,32	1271,79
755,50	1220,59
755,68	1259,50
755,86	1243,12
756,04	1239,02
756,22	1302,51
756,40	1269,74
756,57	1300,46
756,75	1304,56
756,93	1273,84
757,11	1277,93
757,29	1275,88
757,47	1255,40
757,65	1267,69
757,82	1187,82
758,00	1236,97
758,18	1282,03
758,36	1247,21
758,54	1189,87
758,72	1282,03
758,90	1277,93
759,07	1304,56
759,25	1265,64
759,43	1269,74
759,61	1284,08
759,79	1292,27
759,97	1300,46
760,15	1251,31
760,32	1288,17
760,50	1325,04
760,68	1279,98
760,86	1279,98
761,04	1298,41
761,22	1249,26
761,39	1222,64
761,57	1214,45
761,75	1318,89
761,93	1320,94
762,11	1298,41
762,28	1269,74
762,46	1290,22
762,64	1329,13
762,82	1284,08
763,00	1286,12
763,18	1263,60
763,35	1191,92
763,53	1241,07
763,71	1230,83
763,89	1226,73
764,07	1263,60
764,24	1265,64
764,42	1267,69
764,60	1294,32
764,78	1226,73
764,96	1279,98
765,13	1269,74
765,31	1249,26
765,49	1275,88
765,67	1296,36
765,84	1271,79
766,02	1232,88
766,20	1271,79
766,38	1247,21
766,56	1251,31
766,73	1347,56
766,91	1257,45
767,09	1294,32
767,27	1239,02
767,44	1327,08
767,62	1253,36
767,80	1300,46
767,98	1277,93
768,15	1302,51
768,33	1306,60
768,51	1347,56
768,69	1249,26
768,87	1298,41
769,04	1263,60
769,22	1292,27
769,40	1271,79
769,58	1314,80
769,75	1284,08
769,93	1249,26
770,11	1202,16
770,28	1265,64
770,46	1251,31
770,64	1279,98
770,82	1243,12
770,99	1259,50
771,17	1343,47
771,35	1226,73
771,53	1279,98
771,70	1296,36
771,88	1314,80
772,06	1306,60
772,23	1230,83
772,41	1302,51
772,59	1236,97
772,77	1255,40
772,94	1243,12
773,12	1302,51
773,30	1249,26
773,47	1269,74
773,65	1241,07
773,83	1271,79
774,01	1245,16
774,18	1222,64
774,36	1359,85
774,54	1257,45
774,71	1318,89
774,89	1232,88
775,07	1212,40
775,24	1245,16
775,42	1247,21
775,60	1298,41
775,78	1282,03
775,95	1267,69
776,13	1275,88
776,31	1241,07
776,48	1212,40
776,66	1327,08
776,84	1300,46
777,01	1298,41
777,19	1214,45
777,37	1339,37
777,54	1208,30
777,72	1300,46
777,90	1234,93
778,07	1363,95
778,25	1300,46
778,43	1253,36
778,60	1228,78
778,78	1290,22
778,96	1206,25
779,13	1327,08
779,31	1202,16
779,49	1253,36
779,66	1308,65
779,84	1322,99
780,01	1318,89
780,19	1232,88
780,37	1277,93
780,54	1341,42
780,72	1265,64
780,90	1261,55
781,07	1234,93
781,25	1226,73
781,43	1232,88
781,60	1320,94
781,78	1269,74
781,95	1251,31
782,13	1282,03
782,31	1265,64
782,48	1314,80
782,66	1284,08
782,83	1308,65
783,01	1304,56
783,19	1286,12
783,36	1263,60
783,54	1279,98
783,72	1269,74
783,89	1214,45
784,07	1218,54
784,24	1320,94
784,42	1228,78
784,60	1189,87
784,77	1359,85
784,95	1296,36
785,12	1304,56
785,30	1273,84
785,47	1286,12
785,65	1300,46
785,83	1288,17
786,00	1308,65
786,18	1234,93
786,35	1300,46
786,53	1202,16
786,71	1304,56
786,88	1282,03
787,06	1261,55
787,23	1302,51
787,41	1284,08
787,58	1277,93
787,76	1292,27
787,94	1265,64
788,11	1241,07
788,29	1300,46
788,46	1234,93
788,64	1241,07
788,81	1349,61
788,99	1282,03
789,16	1267,69
789,34	1230,83
789,52	1310,70
789,69	1292,27
789,87	1288,17
790,04	1241,07
790,22	1239,02
790,39	1263,60
790,57	1253,36
790,74	1181,68
790,92	1318,89
791,09	1271,79
791,27	1333,23
791,44	1196,01
791,62	1232,88
791,79	1290,22
791,97	1257,45
792,15	1191,92
792,32	1257,45
792,50	1290,22
792,67	1271,79
792,85	1296,36
793,02	1277,93
793,20	1308,65
793,37	1214,45
793,55	1224,69
793,72	1337,32
793,90	1259,50
794,07	1273,84
794,25	1234,93
794,42	1255,40
794,60	1259,50
794,77	1200,11
794,95	1314,80
795,12	1267,69
795,30	1298,41
795,47	1265,64
795,65	1220,59
795,82	1253,36
796,00	1279,98
796,17	1183,73
796,34	1302,51
796,52	1271,79
796,69	1296,36
796,87	1294,32
797,04	1292,27
797,22	1288,17
797,39	1271,79
797,57	1206,25
797,74	1347,56
797,92	1187,82
798,09	1282,03
798,27	1273,84
798,44	1265,64
798,62	1261,55
798,79	1249,26
798,96	1236,97
799,14	1296,36
799,31	1267,69
799,49	1325,04
799,66	1189,87
799,84	1286,12
800,01	1245,16
800,19	1273,84
800,36	1277,93
800,53	1200,11
800,71	1300,46
800,88	1318,89
801,06	1265,64
801,23	1255,40
801,41	1245,16
801,58	1218,54
801,75	1236,97
801,93	1255,40
802,10	1279,98
802,28	1273,84
802,45	1245,16
802,63	1261,55
802,80	1308,65
802,97	1247,21
803,15	1320,94
803,32	1308,65
803,50	1314,80
803,67	1368,04
803,84	1255,40
804,02	1245,16
804,19	1251,31
804,37	1282,03
804,54	1290,22
804,71	1314,80
804,89	1345,52
805,06	1273,84
805,24	1304,56
805,41	1230,83
805,58	1347,56
805,76	1308,65
805,93	1275,88
806,10	1236,97
806,28	1200,11
806,45	1322,99
806,63	1245,16
806,80	1343,47
806,97	1269,74
807,15	1290,22
807,32	1298,41
807,49	1253,36
807,67	1241,07
807,84	1208,30
808,01	1204,21
808,19	1378,28
808,36	1296,36
808,54	1306,60
808,71	1187,82
808,88	1304,56
809,06	1345,52
809,23	1304,56
809,40	1228,78
809,58	1257,45
809,75	1198,06
809,92	1296,36
810,10	1294,32
810,27	1322,99
810,44	1259,50
810,62	1333,23
810,79	1241,07
810,96	1269,74
811,14	1230,83
811,31	1277,93
811,48	1271,79
811,66	1249,26
811,83	1255,40
812,00	1241,07
812,18	1275,88
812,35	1314,80
812,52	1239,02
812,69	1316,84
812,87	1286,12
813,04	1255,40
813,21	1257,45
813,39	1312,75
813,56	1271,79
813,73	1216,49
813,91	1183,73
814,08	1189,87
814,25	1282,03
814,42	1353,71
814,60	1228,78
814,77	1202,16
814,94	1331,18
815,12	1271,79
815,29	1249,26
815,46	1284,08
815,63	1259,50
815,81	1325,04
815,98	1263,60
816,15	1282,03
816,33	1341,42
816,50	1300,46
816,67	1286,12
816,84	1257,45
817,02	1255,40
817,19	1271,79
817,36	1286,12
817,53	1204,21
817,71	1239,02
817,88	1261,55
818,05	1277,93
818,22	1220,59
818,40	1290,22
818,57	1226,73
818,74	1277,93
818,91	1314,80
819,09	1345,52
819,26	1282,03
819,43	1257,45
819,60	1218,54
819,78	1314,80
819,95	1255,40
820,12	1263,60
820,29	1253,36
820,47	1294,32
820,64	1296,36
820,81	1230,83
820,98	1286,12
821,15	1196,01
821,33	1263,60
821,50	1335,28
821,67	1277,93
821,84	1259,50
822,02	1247,21
822,19	1204,21
822,36	1265,64
822,53	1269,74
822,70	1230,83
822,88	1292,27
823,05	1286,12
823,22	1318,89
823,39	1271,79
823,56	1275,88
823,74	1255,40
823,91	1296,36
824,08	1212,40
824,25	1279,98
824,42	1341,42
824,60	1167,34
824,77	1253,36
824,94	1212,40
825,11	1253,36
825,28	1257,45
825,45	1271,79
825,63	1210,35
825,80	1288,17
825,97	1255,40
826,14	1302,51
826,31	1261,55
826,48	1232,88
826,66	1298,41
826,83	1247,21
827,00	1245,16
827,17	1253,36
827,34	1261,55
827,51	1193,97
827,69	1220,59
827,86	1224,69
828,03	1253,36
828,20	1341,42
828,37	1185,77
828,54	1247,21
828,71	1251,31
828,89	1322,99
829,06	1222,64
829,23	1302,51
829,40	1269,74
829,57	1257,45
829,74	1222,64
829,91	1234,93
830,09	1302,51
830,26	1325,04
830,43	1208,30
830,60	1261,55
830,77	1327,08
830,94	1282,03
831,11	1306,60
831,28	1296,36
831,46	1218,54
831,63	1286,12
831,80	1282,03
831,97	1220,59
832,14	1257,45
832,31	1296,36
832,48	1343,47
832,65	1206,25
832,82	1249,26
832,99	1265,64
833,17	1232,88
833,34	1243,12
833,51	1288,17
833,68	1241,07
833,85	1306,60
834,02	1181,68
834,19	1286,12
834,36	1198,06
834,53	1257,45
834,70	1298,41
834,87	1279,98
835,04	1187,82
835,22	1277,93
835,39	1259,50
835,56	1236,97
835,73	1247,21
835,90	1282,03
836,07	1273,84
836,24	1302,51
836,41	1300,46
836,58	1267,69
836,75	1286,12
836,92	1255,40
837,09	1253,36
837,26	1259,50
837,43	1236,97
837,60	1193,97
837,77	1370,09
837,94	1202,16
838,12	1271,79
838,29	1245,16
838,46	1296,36
838,63	1290,22
838,80	1269,74
838,97	1310,70
839,14	1257,45
839,31	1239,02
839,48	1279,98
839,65	1273,84
839,82	1196,01
839,99	1226,73
840,16	1232,88
840,33	1273,84
840,50	1245,16
840,67	1253,36
840,84	1232,88
841,01	1279,98
841,18	1253,36
841,35	1216,49
841,52	1298,41
841,69	1261,55
841,86	1308,65
842,03	1267,69
842,20	1294,32
842,37	1273,84
842,54	1302,51
842,71	1245,16
842,88	1232,88
843,05	1277,93
843,22	1312,75
843,39	1286,12
843,56	1302,51
843,73	1335,28
843,90	1245,16
844,07	1257,45
844,24	1298,41
844,41	1286,12
844,58	1339,37
844,75	1290,22
844,92	1241,07
845,09	1216,49
845,26	1265,64
845,43	1249,26
845,60	1279,98
845,77	1261,55
845,94	1263,60
846,10	1216,49
846,27	1234,93
846,44	1302,51
846,61	1286,12
846,78	1239,02
846,95	1253,36
847,12	1236,97
847,29	1273,84
847,46	1290,22
847,63	1273,84
847,80	1230,83
847,97	1271,79
848,14	1294,32
848,31	1282,03
848,48	1210,35
848,65	1232,88
848,82	1298,41
848,98	1234,93
849,15	1292,27
849,32	1316,84
849,49	1282,03
849,66	1261,55
849,83	1290,22
850,00	1271,79
850,17	1284,08
850,34	1214,45
850,51	1331,18
850,68	1253,36
850,85	1361,90
851,01	1241,07
851,18	1288,17
851,35	1290,22
851,52	1267,69
851,69	1288,17
851,86	1261,55
852,03	1286,12
852,20	1288,17
852,37	1288,17
852,53	1230,83
852,70	1239,02
852,87	1249,26
853,04	1290,22
853,21	1320,94
853,38	1292,27
853,55	1224,69
853,72	1284,08
853,89	1259,50
854,05	1249,26
854,22	1261,55
854,39	1279,98
854,56	1265,64
854,73	1265,64
854,90	1232,88
855,07	1316,84
855,23	1257,45
855,40	1337,32
855,57	1241,07
855,74	1224,69
855,91	1232,88
856,08	1284,08
856,25	1257,45
856,41	1259,50
856,58	1288,17
856,75	1294,32
856,92	1265,64
857,09	1259,50
857,26	1243,12
857,42	1232,88
857,59	1275,88
857,76	1269,74
857,93	1308,65
858,10	1251,31
858,27	1243,12
858,43	1282,03
858,60	1273,84
858,77	1206,25
858,94	1224,69
859,11	1382,38
859,27	1183,73
859,44	1257,45
859,61	1243,12
859,78	1271,79
859,95	1265,64
860,12	1251,31
860,28	1245,16
860,45	1257,45
860,62	1212,40
860,79	1189,87
860,95	1228,78
861,12	1222,64
861,29	1210,35
861,46	1300,46
861,63	1306,60
861,79	1206,25
861,96	1222,64
862,13	1212,40
862,30	1267,69
862,47	1261,55
862,63	1257,45
862,80	1279,98
862,97	1265,64
863,14	1294,32
863,30	1212,40
863,47	1349,61
863,64	1236,97
863,81	1263,60
863,97	1302,51
864,14	1255,40
864,31	1277,93
864,48	1294,32
864,65	1335,28
864,81	1265,64
864,98	1185,77
865,15	1247,21
865,32	1257,45
865,48	1263,60
865,65	1279,98
865,82	1273,84
865,98	1167,34
866,15	1230,83
866,32	1249,26
866,49	1353,71
866,65	1284,08
866,82	1247,21
866,99	1243,12
867,16	1273,84
867,32	1198,06
867,49	1261,55
867,66	1290,22
867,83	1286,12
867,99	1327,08
868,16	1226,73
868,33	1236,97
868,49	1286,12
868,66	1230,83
868,83	1333,23
868,99	1218,54
869,16	1265,64
869,33	1322,99
869,50	1257,45
869,66	1216,49
869,83	1306,60
870,00	1282,03
870,16	1247,21
870,33	1198,06
870,50	1273,84
870,66	1257,45
870,83	1282,03
871,00	1273,84
871,17	1290,22
871,33	1298,41
871,50	1257,45
871,67	1298,41
871,83	1216,49
872,00	1275,88
872,17	1286,12
872,33	1239,02
872,50	1241,07
872,67	1286,12
872,83	1265,64
873,00	1245,16
873,17	1361,90
873,33	1275,88
873,50	1296,36
873,67	1261,55
873,83	1312,75
874,00	1210,35
874,16	1273,84
874,33	1275,88
874,50	1257,45
874,66	1247,21
874,83	1331,18
875,00	1196,01
875,16	1306,60
875,33	1282,03
875,50	1263,60
875,66	1310,70
875,83	1259,50
875,99	1302,51
876,16	1255,40
876,33	1279,98
876,49	1331,18
876,66	1300,46
876,83	1157,10
876,99	1314,80
877,16	1288,17
877,32	1265,64
877,49	1241,07
877,66	1212,40
877,82	1259,50
877,99	1298,41
878,15	1269,74
878,32	1327,08
878,49	1271,79
878,65	1232,88
878,82	1298,41
878,98	1279,98
879,15	1247,21
879,32	1267,69
879,48	1318,89
879,65	1206,25
879,81	1286,12
879,98	1245,16
880,15	1314,80
880,31	1304,56
880,48	1302,51
880,64	1306,60
880,81	1288,17
880,97	1329,13
881,14	1265,64
881,31	1316,84
881,47	1259,50
881,64	1247,21
881,80	1226,73
881,97	1320,94
882,13	1282,03
882,30	1239,02
882,47	1241,07
882,63	1255,40
882,80	1298,41
882,96	1294,32
883,13	1212,40
883,29	1232,88
883,46	1255,40
883,62	1241,07
883,79	1310,70
883,95	1243,12
884,12	1286,12
884,29	1277,93
884,45	1265,64
884,62	1259,50
884,78	1265,64
884,95	1212,40
885,11	1298,41
885,28	1243,12
885,44	1241,07
885,61	1210,35
885,77	1275,88
885,94	1224,69
886,10	1368,04
886,27	1263,60
886,43	1316,84
886,60	1288,17
886,76	1279,98
886,93	1304,56
887,09	1234,93
887,26	1267,69
887,42	1298,41
887,59	1347,56
887,75	1271,79
887,92	1290,22
888,08	1341,42
888,25	1308,65
888,41	1267,69
888,58	1275,88
888,74	1241,07
888,91	1245,16
>>>>>End Processed Spectral Data<<<<<
