SpectraSuite Data File
++++++++++++++++++++++++++++++++++++
Date: Sun Apr 03 18:55:04 CEST 2016
User: root
Dark Spectrum Present: No
Reference Spectrum Present: No
Number of Sampled Component Spectra: 1
Spectrometers: USB4C02835
Integration Time (usec): 10000 (USB4C02835)
Spectra Averaged: 1 (USB4C02835)
Boxcar Smoothing: 0 (USB4C02835)
Correct for Electrical Dark: No (USB4C02835)
Strobe/Lamp Enabled: No (USB4C02835)
Correct for Detector Non-linearity: No (USB4C02835)
Correct for Stray Light: No (USB4C02835)
Number of Pixels in Processed Spectrum: 3648
>>>>>Begin Processed Spectral Data<<<<<
177,47	1167,34
177,69	1167,34
177,91	1167,34
178,13	1220,59
178,36	1245,16
178,58	1279,98
178,80	1314,80
179,02	1204,21
179,24	1251,31
179,46	1302,51
179,68	1185,77
179,90	1239,02
180,13	1292,27
180,35	1234,93
180,57	1224,69
180,79	1310,70
181,01	1284,08
181,23	1218,54
181,45	1306,60
181,67	1234,93
181,90	1294,32
182,12	1255,40
182,34	1255,40
182,56	1218,54
182,78	1263,60
183,00	1239,02
183,22	1239,02
183,44	1247,21
183,66	1228,78
183,89	1273,84
184,11	1232,88
184,33	1265,64
184,55	1226,73
184,77	1234,93
184,99	1259,50
185,21	1275,88
185,43	1267,69
185,65	1312,75
185,87	1277,93
186,10	1271,79
186,32	1259,50
186,54	1245,16
186,76	1257,45
186,98	1284,08
187,20	1290,22
187,42	1310,70
187,64	1249,26
187,86	1255,40
188,08	1230,83
188,30	1214,45
188,52	1230,83
188,75	1239,02
188,97	1273,84
189,19	1241,07
189,41	1255,40
189,63	1251,31
189,85	1265,64
190,07	1275,88
190,29	1286,12
190,51	1316,84
190,73	1257,45
190,95	1249,26
191,17	1232,88
191,39	1263,60
191,61	1322,99
191,84	1265,64
192,06	1269,74
192,28	1249,26
192,50	1263,60
192,72	1279,98
192,94	1271,79
193,16	1183,73
193,38	1296,36
193,60	1236,97
193,82	1196,01
194,04	1288,17
194,26	1239,02
194,48	1308,65
194,70	1271,79
194,92	1286,12
195,14	1308,65
195,36	1179,63
195,58	1259,50
195,80	1245,16
196,02	1243,12
196,24	1284,08
196,46	1288,17
196,69	1198,06
196,91	1232,88
197,13	1222,64
197,35	1265,64
197,57	1267,69
197,79	1208,30
198,01	1349,61
198,23	1257,45
198,45	1284,08
198,67	1265,64
198,89	1257,45
199,11	1241,07
199,33	1239,02
199,55	1273,84
199,77	1232,88
199,99	1271,79
200,21	1310,70
200,43	1243,12
200,65	1183,73
200,87	1245,16
201,09	1208,30
201,31	1255,40
201,53	1228,78
201,75	1259,50
201,97	1255,40
202,19	1263,60
202,41	1191,92
202,63	1267,69
202,85	1259,50
203,07	1216,49
203,29	1312,75
203,51	1282,03
203,73	1316,84
203,95	1302,51
204,17	1269,74
204,39	1282,03
204,61	1220,59
204,83	1265,64
205,05	1245,16
205,27	1286,12
205,49	1251,31
205,71	1304,56
205,93	1302,51
206,15	1292,27
206,37	1230,83
206,59	1259,50
206,81	1288,17
207,03	1224,69
207,25	1245,16
207,47	1257,45
207,69	1267,69
207,91	1265,64
208,13	1196,01
208,34	1320,94
208,56	1208,30
208,78	1298,41
209,00	1239,02
209,22	1275,88
209,44	1239,02
209,66	1216,49
209,88	1271,79
210,10	1265,64
210,32	1286,12
210,54	1277,93
210,76	1206,25
210,98	1351,66
211,20	1320,94
211,42	1279,98
211,64	1218,54
211,86	1282,03
212,08	1220,59
212,30	1318,89
212,52	1251,31
212,74	1267,69
212,96	1234,93
213,17	1341,42
213,39	1255,40
213,61	1249,26
213,83	1232,88
214,05	1269,74
214,27	1251,31
214,49	1234,93
214,71	1224,69
214,93	1298,41
215,15	1302,51
215,37	1271,79
215,59	1267,69
215,81	1279,98
216,03	1239,02
216,24	1310,70
216,46	1267,69
216,68	1314,80
216,90	1253,36
217,12	1232,88
217,34	1261,55
217,56	1224,69
217,78	1271,79
218,00	1253,36
218,22	1277,93
218,44	1263,60
218,66	1232,88
218,87	1298,41
219,09	1245,16
219,31	1320,94
219,53	1292,27
219,75	1298,41
219,97	1312,75
220,19	1263,60
220,41	1308,65
220,63	1230,83
220,85	1257,45
221,06	1150,96
221,28	1318,89
221,50	1384,43
221,72	1331,18
221,94	1269,74
222,16	1210,35
222,38	1288,17
222,60	1230,83
222,82	1325,04
223,03	1277,93
223,25	1228,78
223,47	1267,69
223,69	1284,08
223,91	1249,26
224,13	1253,36
224,35	1226,73
224,57	1239,02
224,78	1228,78
225,00	1210,35
225,22	1224,69
225,44	1296,36
225,66	1304,56
225,88	1243,12
226,10	1255,40
226,32	1337,32
226,53	1234,93
226,75	1243,12
226,97	1253,36
227,19	1349,61
227,41	1187,82
227,63	1220,59
227,85	1310,70
228,06	1257,45
228,28	1282,03
228,50	1273,84
228,72	1224,69
228,94	1214,45
229,16	1304,56
229,37	1316,84
229,59	1263,60
229,81	1247,21
230,03	1253,36
230,25	1255,40
230,47	1265,64
230,69	1310,70
230,90	1269,74
231,12	1265,64
231,34	1257,45
231,56	1298,41
231,78	1335,28
232,00	1257,45
232,21	1243,12
232,43	1265,64
232,65	1282,03
232,87	1312,75
233,09	1277,93
233,30	1277,93
233,52	1318,89
233,74	1181,68
233,96	1247,21
234,18	1269,74
234,40	1316,84
234,61	1265,64
234,83	1277,93
235,05	1327,08
235,27	1226,73
235,49	1241,07
235,70	1304,56
235,92	1181,68
236,14	1286,12
236,36	1247,21
236,58	1265,64
236,79	1277,93
237,01	1275,88
237,23	1210,35
237,45	1296,36
237,67	1320,94
237,88	1230,83
238,10	1277,93
238,32	1267,69
238,54	1296,36
238,76	1196,01
238,97	1284,08
239,19	1290,22
239,41	1263,60
239,63	1247,21
239,85	1206,25
240,06	1263,60
240,28	1265,64
240,50	1257,45
240,72	1271,79
240,93	1187,82
241,15	1302,51
241,37	1265,64
241,59	1269,74
241,81	1255,40
242,02	1210,35
242,24	1339,37
242,46	1255,40
242,68	1265,64
242,89	1220,59
243,11	1286,12
243,33	1333,23
243,55	1296,36
243,76	1298,41
243,98	1216,49
244,20	1271,79
244,42	1282,03
244,64	1257,45
244,85	1230,83
245,07	1183,73
245,29	1253,36
245,51	1308,65
245,72	1290,22
245,94	1329,13
246,16	1290,22
246,38	1271,79
246,59	1308,65
246,81	1286,12
247,03	1232,88
247,24	1208,30
247,46	1294,32
247,68	1204,21
247,90	1241,07
248,11	1202,16
248,33	1255,40
248,55	1259,50
248,77	1255,40
248,98	1292,27
249,20	1273,84
249,42	1261,55
249,64	1241,07
249,85	1228,78
250,07	1251,31
250,29	1331,18
250,50	1222,64
250,72	1257,45
250,94	1241,07
251,16	1339,37
251,37	1257,45
251,59	1261,55
251,81	1294,32
252,02	1261,55
252,24	1239,02
252,46	1325,04
252,68	1208,30
252,89	1279,98
253,11	1279,98
253,33	1253,36
253,54	1271,79
253,76	1322,99
253,98	1322,99
254,20	1259,50
254,41	1245,16
254,63	1259,50
254,85	1267,69
255,06	1269,74
255,28	1361,90
255,50	1239,02
255,71	1308,65
255,93	1245,16
256,15	1296,36
256,36	1220,59
256,58	1339,37
256,80	1245,16
257,02	1279,98
257,23	1255,40
257,45	1267,69
257,67	1245,16
257,88	1263,60
258,10	1312,75
258,32	1337,32
258,53	1222,64
258,75	1320,94
258,97	1222,64
259,18	1300,46
259,40	1282,03
259,62	1177,58
259,83	1253,36
260,05	1284,08
260,27	1306,60
260,48	1292,27
260,70	1271,79
260,92	1241,07
261,13	1366,00
261,35	1351,66
261,57	1282,03
261,78	1300,46
262,00	1243,12
262,22	1259,50
262,43	1232,88
262,65	1275,88
262,86	1284,08
263,08	1306,60
263,30	1310,70
263,51	1247,21
263,73	1263,60
263,95	1310,70
264,16	1208,30
264,38	1284,08
264,60	1269,74
264,81	1220,59
265,03	1263,60
265,25	1255,40
265,46	1263,60
265,68	1298,41
265,89	1271,79
266,11	1259,50
266,33	1259,50
266,54	1259,50
266,76	1257,45
266,98	1220,59
267,19	1275,88
267,41	1286,12
267,62	1255,40
267,84	1267,69
268,06	1241,07
268,27	1265,64
268,49	1247,21
268,70	1226,73
268,92	1261,55
269,14	1351,66
269,35	1322,99
269,57	1253,36
269,79	1335,28
270,00	1310,70
270,22	1312,75
270,43	1277,93
270,65	1222,64
270,87	1267,69
271,08	1239,02
271,30	1302,51
271,51	1245,16
271,73	1232,88
271,95	1239,02
272,16	1228,78
272,38	1290,22
272,59	1298,41
272,81	1279,98
273,02	1243,12
273,24	1257,45
273,46	1320,94
273,67	1259,50
273,89	1263,60
274,10	1306,60
274,32	1318,89
274,54	1300,46
274,75	1253,36
274,97	1269,74
275,18	1218,54
275,40	1253,36
275,61	1222,64
275,83	1271,79
276,05	1294,32
276,26	1273,84
276,48	1282,03
276,69	1277,93
276,91	1253,36
277,12	1247,21
277,34	1255,40
277,55	1282,03
277,77	1239,02
277,99	1275,88
278,20	1306,60
278,42	1271,79
278,63	1200,11
278,85	1318,89
279,06	1279,98
279,28	1316,84
279,49	1220,59
279,71	1224,69
279,93	1331,18
280,14	1316,84
280,36	1259,50
280,57	1175,53
280,79	1298,41
281,00	1296,36
281,22	1337,32
281,43	1241,07
281,65	1226,73
281,86	1216,49
282,08	1288,17
282,29	1255,40
282,51	1304,56
282,73	1241,07
282,94	1302,51
283,16	1236,97
283,37	1214,45
283,59	1255,40
283,80	1265,64
284,02	1288,17
284,23	1263,60
284,45	1288,17
284,66	1245,16
284,88	1265,64
285,09	1275,88
285,31	1255,40
285,52	1232,88
285,74	1263,60
285,95	1267,69
286,17	1269,74
286,38	1228,78
286,60	1224,69
286,81	1220,59
287,03	1220,59
287,24	1327,08
287,46	1282,03
287,67	1185,77
287,89	1284,08
288,10	1218,54
288,32	1288,17
288,53	1286,12
288,75	1198,06
288,96	1370,09
289,18	1265,64
289,39	1269,74
289,61	1249,26
289,82	1259,50
290,04	1241,07
290,25	1214,45
290,47	1275,88
290,68	1245,16
290,90	1282,03
291,11	1273,84
291,33	1302,51
291,54	1230,83
291,76	1306,60
291,97	1337,32
292,18	1251,31
292,40	1228,78
292,61	1306,60
292,83	1316,84
293,04	1196,01
293,26	1279,98
293,47	1320,94
293,69	1206,25
293,90	1304,56
294,12	1261,55
294,33	1261,55
294,55	1214,45
294,76	1245,16
294,97	1282,03
295,19	1345,52
295,40	1261,55
295,62	1198,06
295,83	1284,08
296,05	1208,30
296,26	1277,93
296,48	1298,41
296,69	1300,46
296,90	1251,31
297,12	1255,40
297,33	1284,08
297,55	1263,60
297,76	1282,03
297,98	1251,31
298,19	1202,16
298,41	1312,75
298,62	1224,69
298,83	1216,49
299,05	1214,45
299,26	1228,78
299,48	1253,36
299,69	1284,08
299,90	1257,45
300,12	1261,55
300,33	1239,02
300,55	1267,69
300,76	1296,36
300,98	1253,36
301,19	1298,41
301,40	1249,26
301,62	1304,56
301,83	1247,21
302,05	1212,40
302,26	1214,45
302,47	1224,69
302,69	1239,02
302,90	1263,60
303,12	1224,69
303,33	1279,98
303,54	1241,07
303,76	1310,70
303,97	1253,36
304,19	1300,46
304,40	1241,07
304,61	1279,98
304,83	1204,21
305,04	1245,16
305,26	1290,22
305,47	1269,74
305,68	1288,17
305,90	1257,45
306,11	1232,88
306,33	1277,93
306,54	1241,07
306,75	1265,64
306,97	1189,87
307,18	1177,58
307,39	1322,99
307,61	1327,08
307,82	1241,07
308,04	1279,98
308,25	1304,56
308,46	1282,03
308,68	1196,01
308,89	1282,03
309,10	1322,99
309,32	1257,45
309,53	1322,99
309,74	1304,56
309,96	1288,17
310,17	1273,84
310,39	1253,36
310,60	1218,54
310,81	1245,16
311,03	1259,50
311,24	1292,27
311,45	1267,69
311,67	1320,94
311,88	1224,69
312,09	1292,27
312,31	1310,70
312,52	1251,31
312,73	1355,76
312,95	1202,16
313,16	1239,02
313,37	1320,94
313,59	1267,69
313,80	1212,40
314,01	1265,64
314,23	1239,02
314,44	1318,89
314,65	1261,55
314,87	1320,94
315,08	1253,36
315,29	1273,84
315,51	1245,16
315,72	1263,60
315,93	1206,25
316,15	1279,98
316,36	1271,79
316,57	1257,45
316,79	1236,97
317,00	1308,65
317,21	1339,37
317,43	1310,70
317,64	1243,12
317,85	1243,12
318,07	1310,70
318,28	1208,30
318,49	1224,69
318,70	1255,40
318,92	1335,28
319,13	1206,25
319,34	1261,55
319,56	1236,97
319,77	1230,83
319,98	1273,84
320,20	1257,45
320,41	1304,56
320,62	1286,12
320,83	1265,64
321,05	1236,97
321,26	1296,36
321,47	1282,03
321,69	1277,93
321,90	1296,36
322,11	1228,78
322,32	1220,59
322,54	1306,60
322,75	1257,45
322,96	1263,60
323,18	1259,50
323,39	1286,12
323,60	1349,61
323,81	1226,73
324,03	1310,70
324,24	1271,79
324,45	1261,55
324,66	1236,97
324,88	1249,26
325,09	1279,98
325,30	1310,70
325,52	1296,36
325,73	1220,59
325,94	1196,01
326,15	1206,25
326,37	1263,60
326,58	1218,54
326,79	1212,40
327,00	1222,64
327,22	1294,32
327,43	1239,02
327,64	1218,54
327,85	1318,89
328,07	1255,40
328,28	1218,54
328,49	1277,93
328,70	1304,56
328,92	1333,23
329,13	1249,26
329,34	1259,50
329,55	1271,79
329,76	1249,26
329,98	1279,98
330,19	1284,08
330,40	1251,31
330,61	1247,21
330,83	1290,22
331,04	1286,12
331,25	1335,28
331,46	1298,41
331,68	1286,12
331,89	1153,01
332,10	1273,84
332,31	1304,56
332,52	1286,12
332,74	1245,16
332,95	1245,16
333,16	1247,21
333,37	1294,32
333,58	1257,45
333,80	1230,83
334,01	1259,50
334,22	1282,03
334,43	1312,75
334,64	1257,45
334,86	1267,69
335,07	1263,60
335,28	1169,39
335,49	1232,88
335,70	1296,36
335,92	1245,16
336,13	1325,04
336,34	1292,27
336,55	1337,32
336,76	1296,36
336,98	1212,40
337,19	1257,45
337,40	1212,40
337,61	1275,88
337,82	1263,60
338,04	1220,59
338,25	1282,03
338,46	1247,21
338,67	1343,47
338,88	1286,12
339,09	1267,69
339,31	1222,64
339,52	1333,23
339,73	1286,12
339,94	1216,49
340,15	1300,46
340,36	1279,98
340,58	1277,93
340,79	1288,17
341,00	1271,79
341,21	1331,18
341,42	1247,21
341,63	1288,17
341,85	1181,68
342,06	1300,46
342,27	1341,42
342,48	1253,36
342,69	1259,50
342,90	1335,28
343,12	1284,08
343,33	1290,22
343,54	1320,94
343,75	1232,88
343,96	1310,70
344,17	1249,26
344,38	1249,26
344,60	1265,64
344,81	1247,21
345,02	1234,93
345,23	1228,78
345,44	1298,41
345,65	1312,75
345,86	1263,60
346,07	1263,60
346,29	1249,26
346,50	1241,07
346,71	1239,02
346,92	1292,27
347,13	1282,03
347,34	1277,93
347,55	1249,26
347,76	1286,12
347,98	1300,46
348,19	1226,73
348,40	1290,22
348,61	1310,70
348,82	1257,45
349,03	1302,51
349,24	1318,89
349,45	1339,37
349,66	1294,32
349,88	1275,88
350,09	1263,60
350,30	1251,31
350,51	1271,79
350,72	1255,40
350,93	1300,46
351,14	1243,12
351,35	1284,08
351,56	1216,49
351,77	1294,32
351,99	1282,03
352,20	1339,37
352,41	1253,36
352,62	1271,79
352,83	1265,64
353,04	1208,30
353,25	1292,27
353,46	1206,25
353,67	1257,45
353,88	1241,07
354,09	1329,13
354,30	1318,89
354,52	1282,03
354,73	1204,21
354,94	1273,84
355,15	1261,55
355,36	1247,21
355,57	1298,41
355,78	1304,56
355,99	1265,64
356,20	1208,30
356,41	1312,75
356,62	1279,98
356,83	1247,21
357,04	1288,17
357,25	1251,31
357,46	1249,26
357,68	1253,36
357,89	1302,51
358,10	1335,28
358,31	1325,04
358,52	1247,21
358,73	1249,26
358,94	1255,40
359,15	1224,69
359,36	1243,12
359,57	1234,93
359,78	1275,88
359,99	1277,93
360,20	1247,21
360,41	1249,26
360,62	1239,02
360,83	1236,97
361,04	1269,74
361,25	1206,25
361,46	1226,73
361,67	1294,32
361,88	1218,54
362,09	1245,16
362,30	1220,59
362,51	1249,26
362,72	1308,65
362,93	1191,92
363,14	1259,50
363,35	1175,53
363,56	1304,56
363,78	1298,41
363,99	1226,73
364,20	1269,74
364,41	1253,36
364,62	1241,07
364,83	1304,56
365,04	1290,22
365,25	1335,28
365,46	1284,08
365,67	1230,83
365,88	1220,59
366,09	1314,80
366,30	1263,60
366,51	1243,12
366,72	1282,03
366,93	1314,80
367,14	1269,74
367,35	1284,08
367,56	1239,02
367,77	1288,17
367,98	1284,08
368,18	1253,36
368,39	1284,08
368,60	1216,49
368,81	1236,97
369,02	1279,98
369,23	1322,99
369,44	1265,64
369,65	1263,60
369,86	1296,36
370,07	1265,64
370,28	1218,54
370,49	1282,03
370,70	1277,93
370,91	1251,31
371,12	1267,69
371,33	1327,08
371,54	1259,50
371,75	1249,26
371,96	1273,84
372,17	1279,98
372,38	1187,82
372,59	1257,45
372,80	1290,22
373,01	1267,69
373,22	1241,07
373,43	1302,51
373,64	1267,69
373,85	1267,69
374,06	1228,78
374,26	1279,98
374,47	1335,28
374,68	1300,46
374,89	1218,54
375,10	1292,27
375,31	1314,80
375,52	1249,26
375,73	1325,04
375,94	1208,30
376,15	1353,71
376,36	1312,75
376,57	1320,94
376,78	1243,12
376,99	1290,22
377,20	1251,31
377,40	1267,69
377,61	1265,64
377,82	1261,55
378,03	1169,39
378,24	1263,60
378,45	1230,83
378,66	1214,45
378,87	1310,70
379,08	1279,98
379,29	1306,60
379,50	1267,69
379,71	1257,45
379,91	1247,21
380,12	1294,32
380,33	1261,55
380,54	1245,16
380,75	1224,69
380,96	1337,32
381,17	1251,31
381,38	1241,07
381,59	1298,41
381,80	1232,88
382,00	1212,40
382,21	1202,16
382,42	1337,32
382,63	1245,16
382,84	1296,36
383,05	1243,12
383,26	1265,64
383,47	1263,60
383,68	1249,26
383,88	1243,12
384,09	1255,40
384,30	1247,21
384,51	1251,31
384,72	1261,55
384,93	1183,73
385,14	1212,40
385,35	1236,97
385,55	1200,11
385,76	1290,22
385,97	1259,50
386,18	1288,17
386,39	1290,22
386,60	1216,49
386,81	1255,40
387,02	1243,12
387,22	1245,16
387,43	1245,16
387,64	1212,40
387,85	1310,70
388,06	1261,55
388,27	1261,55
388,48	1249,26
388,68	1230,83
388,89	1314,80
389,10	1206,25
389,31	1333,23
389,52	1208,30
389,73	1288,17
389,93	1294,32
390,14	1255,40
390,35	1232,88
390,56	1271,79
390,77	1273,84
390,98	1269,74
391,18	1386,47
391,39	1306,60
391,60	1230,83
391,81	1255,40
392,02	1320,94
392,23	1314,80
392,43	1282,03
392,64	1241,07
392,85	1239,02
393,06	1218,54
393,27	1243,12
393,47	1277,93
393,68	1271,79
393,89	1322,99
394,10	1302,51
394,31	1212,40
394,52	1247,21
394,72	1279,98
394,93	1353,71
395,14	1251,31
395,35	1247,21
395,56	1314,80
395,76	1296,36
395,97	1228,78
396,18	1271,79
396,39	1210,35
396,60	1288,17
396,80	1216,49
397,01	1222,64
397,22	1337,32
397,43	1249,26
397,64	1253,36
397,84	1255,40
398,05	1234,93
398,26	1251,31
398,47	1243,12
398,67	1337,32
398,88	1339,37
399,09	1290,22
399,30	1249,26
399,51	1232,88
399,71	1306,60
399,92	1247,21
400,13	1183,73
400,34	1218,54
400,54	1290,22
400,75	1277,93
400,96	1310,70
401,17	1288,17
401,37	1286,12
401,58	1255,40
401,79	1282,03
402,00	1257,45
402,21	1290,22
402,41	1271,79
402,62	1216,49
402,83	1241,07
403,04	1275,88
403,24	1196,01
403,45	1216,49
403,66	1232,88
403,87	1322,99
404,07	1298,41
404,28	1269,74
404,49	1292,27
404,70	1308,65
404,90	1277,93
405,11	1273,84
405,32	1226,73
405,52	1282,03
405,73	1284,08
405,94	1198,06
406,15	1263,60
406,35	1251,31
406,56	1232,88
406,77	1239,02
406,98	1298,41
407,18	1226,73
407,39	1243,12
407,60	1273,84
407,80	1282,03
408,01	1304,56
408,22	1232,88
408,43	1275,88
408,63	1253,36
408,84	1245,16
409,05	1263,60
409,25	1247,21
409,46	1169,39
409,67	1290,22
409,88	1271,79
410,08	1296,36
410,29	1320,94
410,50	1263,60
410,70	1255,40
410,91	1269,74
411,12	1191,92
411,32	1298,41
411,53	1247,21
411,74	1282,03
411,95	1282,03
412,15	1290,22
412,36	1298,41
412,57	1220,59
412,77	1253,36
412,98	1239,02
413,19	1224,69
413,39	1204,21
413,60	1224,69
413,81	1269,74
414,01	1241,07
414,22	1236,97
414,43	1247,21
414,63	1218,54
414,84	1298,41
415,05	1230,83
415,25	1267,69
415,46	1329,13
415,67	1284,08
415,87	1271,79
416,08	1294,32
416,29	1214,45
416,49	1296,36
416,70	1255,40
416,91	1267,69
417,11	1310,70
417,32	1273,84
417,53	1290,22
417,73	1239,02
417,94	1310,70
418,15	1282,03
418,35	1273,84
418,56	1361,90
418,77	1245,16
418,97	1208,30
419,18	1259,50
419,38	1239,02
419,59	1318,89
419,80	1282,03
420,00	1298,41
420,21	1265,64
420,42	1220,59
420,62	1222,64
420,83	1284,08
421,04	1200,11
421,24	1247,21
421,45	1236,97
421,65	1277,93
421,86	1308,65
422,07	1187,82
422,27	1271,79
422,48	1259,50
422,69	1290,22
422,89	1277,93
423,10	1273,84
423,30	1212,40
423,51	1300,46
423,72	1269,74
423,92	1302,51
424,13	1263,60
424,33	1279,98
424,54	1312,75
424,75	1273,84
424,95	1271,79
425,16	1310,70
425,36	1202,16
425,57	1302,51
425,78	1204,21
425,98	1298,41
426,19	1177,58
426,39	1241,07
426,60	1327,08
426,81	1279,98
427,01	1261,55
427,22	1267,69
427,42	1290,22
427,63	1329,13
427,83	1290,22
428,04	1304,56
428,25	1300,46
428,45	1245,16
428,66	1234,93
428,86	1284,08
429,07	1275,88
429,28	1247,21
429,48	1282,03
429,69	1269,74
429,89	1273,84
430,10	1212,40
430,30	1218,54
430,51	1165,29
430,71	1288,17
430,92	1290,22
431,13	1212,40
431,33	1245,16
431,54	1224,69
431,74	1304,56
431,95	1294,32
432,15	1196,01
432,36	1284,08
432,56	1282,03
432,77	1290,22
432,98	1263,60
433,18	1275,88
433,39	1253,36
433,59	1243,12
433,80	1251,31
434,00	1275,88
434,21	1257,45
434,41	1310,70
434,62	1255,40
434,82	1259,50
435,03	1337,32
435,23	1247,21
435,44	1288,17
435,64	1200,11
435,85	1271,79
436,06	1265,64
436,26	1294,32
436,47	1314,80
436,67	1265,64
436,88	1273,84
437,08	1214,45
437,29	1263,60
437,49	1282,03
437,70	1191,92
437,90	1300,46
438,11	1294,32
438,31	1282,03
438,52	1269,74
438,72	1261,55
438,93	1267,69
439,13	1247,21
439,34	1294,32
439,54	1286,12
439,75	1218,54
439,95	1236,97
440,16	1273,84
440,36	1261,55
440,57	1253,36
440,77	1288,17
440,98	1253,36
441,18	1314,80
441,39	1224,69
441,59	1282,03
441,80	1261,55
442,00	1206,25
442,21	1271,79
442,41	1312,75
442,62	1234,93
442,82	1310,70
443,02	1208,30
443,23	1263,60
443,43	1263,60
443,64	1302,51
443,84	1265,64
444,05	1255,40
444,25	1253,36
444,46	1214,45
444,66	1284,08
444,87	1269,74
445,07	1284,08
445,28	1222,64
445,48	1314,80
445,69	1308,65
445,89	1304,56
446,09	1245,16
446,30	1298,41
446,50	1308,65
446,71	1236,97
446,91	1245,16
447,12	1265,64
447,32	1230,83
447,53	1263,60
447,73	1241,07
447,93	1327,08
448,14	1331,18
448,34	1288,17
448,55	1259,50
448,75	1312,75
448,96	1312,75
449,16	1279,98
449,36	1271,79
449,57	1243,12
449,77	1288,17
449,98	1251,31
450,18	1247,21
450,39	1306,60
450,59	1290,22
450,79	1259,50
451,00	1251,31
451,20	1331,18
451,41	1296,36
451,61	1236,97
451,81	1290,22
452,02	1298,41
452,22	1257,45
452,43	1314,80
452,63	1267,69
452,84	1257,45
453,04	1220,59
453,24	1300,46
453,45	1249,26
453,65	1222,64
453,86	1269,74
454,06	1263,60
454,26	1282,03
454,47	1263,60
454,67	1179,63
454,87	1279,98
455,08	1279,98
455,28	1290,22
455,49	1261,55
455,69	1253,36
455,89	1298,41
456,10	1241,07
456,30	1230,83
456,51	1220,59
456,71	1320,94
456,91	1277,93
457,12	1208,30
457,32	1234,93
457,52	1255,40
457,73	1306,60
457,93	1171,44
458,14	1286,12
458,34	1236,97
458,54	1241,07
458,75	1273,84
458,95	1214,45
459,15	1239,02
459,36	1216,49
459,56	1267,69
459,76	1304,56
459,97	1236,97
460,17	1267,69
460,37	1236,97
460,58	1214,45
460,78	1253,36
460,99	1255,40
461,19	1232,88
461,39	1239,02
461,60	1292,27
461,80	1265,64
462,00	1253,36
462,21	1241,07
462,41	1206,25
462,61	1279,98
462,82	1261,55
463,02	1220,59
463,22	1345,52
463,43	1202,16
463,63	1314,80
463,83	1296,36
464,04	1257,45
464,24	1279,98
464,44	1216,49
464,64	1236,97
464,85	1355,76
465,05	1325,04
465,25	1320,94
465,46	1222,64
465,66	1255,40
465,86	1290,22
466,07	1279,98
466,27	1228,78
466,47	1212,40
466,68	1234,93
466,88	1247,21
467,08	1259,50
467,29	1226,73
467,49	1294,32
467,69	1271,79
467,89	1300,46
468,10	1282,03
468,30	1214,45
468,50	1308,65
468,71	1251,31
468,91	1271,79
469,11	1288,17
469,31	1345,52
469,52	1263,60
469,72	1282,03
469,92	1234,93
470,13	1271,79
470,33	1275,88
470,53	1232,88
470,73	1222,64
470,94	1306,60
471,14	1327,08
471,34	1241,07
471,54	1243,12
471,75	1282,03
471,95	1273,84
472,15	1294,32
472,36	1271,79
472,56	1230,83
472,76	1243,12
472,96	1271,79
473,17	1216,49
473,37	1273,84
473,57	1251,31
473,77	1257,45
473,98	1210,35
474,18	1271,79
474,38	1265,64
474,58	1282,03
474,79	1271,79
474,99	1308,65
475,19	1288,17
475,39	1288,17
475,60	1265,64
475,80	1251,31
476,00	1300,46
476,20	1277,93
476,41	1224,69
476,61	1322,99
476,81	1241,07
477,01	1282,03
477,21	1200,11
477,42	1263,60
477,62	1337,32
477,82	1351,66
478,02	1232,88
478,23	1296,36
478,43	1220,59
478,63	1302,51
478,83	1247,21
479,03	1261,55
479,24	1263,60
479,44	1308,65
479,64	1290,22
479,84	1232,88
480,04	1212,40
480,25	1277,93
480,45	1318,89
480,65	1288,17
480,85	1261,55
481,06	1322,99
481,26	1228,78
481,46	1243,12
481,66	1277,93
481,86	1206,25
482,06	1263,60
482,27	1236,97
482,47	1239,02
482,67	1228,78
482,87	1226,73
483,07	1245,16
483,28	1290,22
483,48	1263,60
483,68	1265,64
483,88	1273,84
484,08	1222,64
484,29	1220,59
484,49	1296,36
484,69	1259,50
484,89	1204,21
485,09	1232,88
485,29	1288,17
485,50	1216,49
485,70	1220,59
485,90	1204,21
486,10	1247,21
486,30	1241,07
486,50	1296,36
486,71	1306,60
486,91	1320,94
487,11	1288,17
487,31	1234,93
487,51	1214,45
487,71	1204,21
487,91	1298,41
488,12	1327,08
488,32	1279,98
488,52	1259,50
488,72	1210,35
488,92	1263,60
489,12	1249,26
489,32	1269,74
489,53	1335,28
489,73	1261,55
489,93	1347,56
490,13	1255,40
490,33	1191,92
490,53	1300,46
490,73	1214,45
490,94	1286,12
491,14	1232,88
491,34	1292,27
491,54	1241,07
491,74	1200,11
491,94	1212,40
492,14	1284,08
492,34	1269,74
492,54	1284,08
492,75	1273,84
492,95	1232,88
493,15	1206,25
493,35	1294,32
493,55	1277,93
493,75	1290,22
493,95	1257,45
494,15	1208,30
494,35	1277,93
494,56	1271,79
494,76	1241,07
494,96	1337,32
495,16	1236,97
495,36	1185,77
495,56	1267,69
495,76	1314,80
495,96	1284,08
496,16	1308,65
496,36	1239,02
496,56	1316,84
496,77	1282,03
496,97	1329,13
497,17	1279,98
497,37	1277,93
497,57	1271,79
497,77	1292,27
497,97	1257,45
498,17	1253,36
498,37	1261,55
498,57	1230,83
498,77	1261,55
498,97	1255,40
499,17	1296,36
499,38	1228,78
499,58	1257,45
499,78	1284,08
499,98	1228,78
500,18	1189,87
500,38	1263,60
500,58	1320,94
500,78	1282,03
500,98	1329,13
501,18	1245,16
501,38	1198,06
501,58	1267,69
501,78	1357,80
501,98	1282,03
502,18	1220,59
502,38	1271,79
502,58	1245,16
502,78	1275,88
502,98	1300,46
503,18	1224,69
503,38	1189,87
503,59	1261,55
503,79	1253,36
503,99	1249,26
504,19	1318,89
504,39	1193,97
504,59	1224,69
504,79	1320,94
504,99	1253,36
505,19	1239,02
505,39	1368,04
505,59	1322,99
505,79	1257,45
505,99	1259,50
506,19	1245,16
506,39	1259,50
506,59	1261,55
506,79	1236,97
506,99	1294,32
507,19	1251,31
507,39	1210,35
507,59	1279,98
507,79	1234,93
507,99	1341,42
508,19	1302,51
508,39	1179,63
508,59	1316,84
508,79	1175,53
508,99	1216,49
509,19	1277,93
509,39	1343,47
509,59	1253,36
509,79	1310,70
509,99	1191,92
510,19	1286,12
510,39	1263,60
510,59	1198,06
510,79	1271,79
510,99	1267,69
511,19	1286,12
511,39	1310,70
511,59	1325,04
511,79	1277,93
511,99	1226,73
512,19	1271,79
512,38	1265,64
512,58	1243,12
512,78	1306,60
512,98	1222,64
513,18	1253,36
513,38	1329,13
513,58	1263,60
513,78	1191,92
513,98	1257,45
514,18	1294,32
514,38	1263,60
514,58	1189,87
514,78	1290,22
514,98	1243,12
515,18	1204,21
515,38	1228,78
515,58	1232,88
515,78	1234,93
515,98	1378,28
516,18	1310,70
516,38	1245,16
516,57	1279,98
516,77	1265,64
516,97	1263,60
517,17	1196,01
517,37	1341,42
517,57	1279,98
517,77	1271,79
517,97	1310,70
518,17	1245,16
518,37	1261,55
518,57	1208,30
518,77	1218,54
518,97	1333,23
519,16	1269,74
519,36	1206,25
519,56	1286,12
519,76	1187,82
519,96	1314,80
520,16	1251,31
520,36	1279,98
520,56	1167,34
520,76	1275,88
520,96	1230,83
521,16	1253,36
521,35	1298,41
521,55	1355,76
521,75	1159,15
521,95	1290,22
522,15	1265,64
522,35	1290,22
522,55	1284,08
522,75	1249,26
522,95	1255,40
523,14	1261,55
523,34	1150,96
523,54	1212,40
523,74	1259,50
523,94	1320,94
524,14	1282,03
524,34	1173,49
524,54	1292,27
524,73	1200,11
524,93	1179,63
525,13	1310,70
525,33	1273,84
525,53	1296,36
525,73	1273,84
525,93	1320,94
526,13	1298,41
526,32	1294,32
526,52	1214,45
526,72	1245,16
526,92	1331,18
527,12	1220,59
527,32	1267,69
527,52	1282,03
527,71	1273,84
527,91	1331,18
528,11	1282,03
528,31	1292,27
528,51	1302,51
528,71	1298,41
528,90	1304,56
529,10	1271,79
529,30	1222,64
529,50	1318,89
529,70	1220,59
529,90	1284,08
530,09	1232,88
530,29	1286,12
530,49	1232,88
530,69	1247,21
530,89	1261,55
531,09	1216,49
531,28	1198,06
531,48	1257,45
531,68	1277,93
531,88	1288,17
532,08	1271,79
532,28	1310,70
532,47	1222,64
532,67	1320,94
532,87	1271,79
533,07	1267,69
533,27	1222,64
533,46	1286,12
533,66	1226,73
533,86	1269,74
534,06	1275,88
534,26	1382,38
534,45	1267,69
534,65	1257,45
534,85	1251,31
535,05	1241,07
535,25	1253,36
535,44	1359,85
535,64	1177,58
535,84	1232,88
536,04	1279,98
536,24	1230,83
536,43	1269,74
536,63	1226,73
536,83	1230,83
537,03	1193,97
537,22	1257,45
537,42	1239,02
537,62	1218,54
537,82	1255,40
538,02	1279,98
538,21	1261,55
538,41	1304,56
538,61	1230,83
538,81	1267,69
539,00	1243,12
539,20	1310,70
539,40	1249,26
539,60	1224,69
539,79	1241,07
539,99	1331,18
540,19	1322,99
540,39	1263,60
540,58	1288,17
540,78	1177,58
540,98	1230,83
541,18	1343,47
541,37	1304,56
541,57	1230,83
541,77	1222,64
541,97	1249,26
542,16	1302,51
542,36	1257,45
542,56	1294,32
542,76	1306,60
542,95	1273,84
543,15	1320,94
543,35	1230,83
543,54	1183,73
543,74	1265,64
543,94	1284,08
544,14	1245,16
544,33	1322,99
544,53	1239,02
544,73	1267,69
544,93	1193,97
545,12	1298,41
545,32	1288,17
545,52	1253,36
545,71	1243,12
545,91	1202,16
546,11	1263,60
546,30	1273,84
546,50	1228,78
546,70	1294,32
546,90	1249,26
547,09	1249,26
547,29	1206,25
547,49	1353,71
547,68	1232,88
547,88	1249,26
548,08	1193,97
548,27	1314,80
548,47	1224,69
548,67	1284,08
548,87	1224,69
549,06	1302,51
549,26	1310,70
549,46	1245,16
549,65	1183,73
549,85	1331,18
550,05	1253,36
550,24	1290,22
550,44	1298,41
550,64	1189,87
550,83	1269,74
551,03	1282,03
551,23	1296,36
551,42	1290,22
551,62	1282,03
551,82	1296,36
552,01	1273,84
552,21	1191,92
552,41	1263,60
552,60	1277,93
552,80	1339,37
553,00	1228,78
553,19	1214,45
553,39	1265,64
553,59	1232,88
553,78	1218,54
553,98	1286,12
554,17	1261,55
554,37	1200,11
554,57	1234,93
554,76	1308,65
554,96	1165,29
555,16	1312,75
555,35	1273,84
555,55	1292,27
555,75	1265,64
555,94	1273,84
556,14	1247,21
556,33	1222,64
556,53	1286,12
556,73	1269,74
556,92	1322,99
557,12	1298,41
557,32	1206,25
557,51	1333,23
557,71	1241,07
557,90	1318,89
558,10	1267,69
558,30	1210,35
558,49	1259,50
558,69	1304,56
558,88	1339,37
559,08	1308,65
559,28	1308,65
559,47	1312,75
559,67	1300,46
559,86	1230,83
560,06	1216,49
560,26	1347,56
560,45	1236,97
560,65	1288,17
560,84	1271,79
561,04	1120,24
561,24	1269,74
561,43	1191,92
561,63	1308,65
561,82	1253,36
562,02	1257,45
562,22	1316,84
562,41	1245,16
562,61	1230,83
562,80	1279,98
563,00	1212,40
563,19	1282,03
563,39	1286,12
563,59	1218,54
563,78	1284,08
563,98	1269,74
564,17	1245,16
564,37	1310,70
564,56	1273,84
564,76	1232,88
564,96	1251,31
565,15	1273,84
565,35	1331,18
565,54	1306,60
565,74	1290,22
565,93	1257,45
566,13	1212,40
566,32	1273,84
566,52	1310,70
566,71	1304,56
566,91	1265,64
567,11	1290,22
567,30	1263,60
567,50	1183,73
567,69	1255,40
567,89	1234,93
568,08	1300,46
568,28	1288,17
568,47	1259,50
568,67	1251,31
568,86	1294,32
569,06	1273,84
569,25	1363,95
569,45	1234,93
569,64	1282,03
569,84	1298,41
570,04	1251,31
570,23	1292,27
570,43	1320,94
570,62	1253,36
570,82	1269,74
571,01	1273,84
571,21	1302,51
571,40	1286,12
571,60	1331,18
571,79	1191,92
571,99	1294,32
572,18	1259,50
572,38	1228,78
572,57	1249,26
572,77	1193,97
572,96	1234,93
573,16	1282,03
573,35	1329,13
573,55	1239,02
573,74	1179,63
573,94	1261,55
574,13	1284,08
574,33	1265,64
574,52	1273,84
574,71	1232,88
574,91	1173,49
575,10	1294,32
575,30	1257,45
575,49	1257,45
575,69	1263,60
575,88	1314,80
576,08	1267,69
576,27	1347,56
576,47	1277,93
576,66	1232,88
576,86	1255,40
577,05	1210,35
577,25	1251,31
577,44	1265,64
577,64	1277,93
577,83	1226,73
578,02	1333,23
578,22	1279,98
578,41	1261,55
578,61	1230,83
578,80	1275,88
579,00	1273,84
579,19	1345,52
579,39	1222,64
579,58	1286,12
579,77	1314,80
579,97	1294,32
580,16	1273,84
580,36	1208,30
580,55	1249,26
580,75	1306,60
580,94	1245,16
581,13	1265,64
581,33	1212,40
581,52	1292,27
581,72	1267,69
581,91	1263,60
582,11	1220,59
582,30	1239,02
582,49	1308,65
582,69	1368,04
582,88	1294,32
583,08	1198,06
583,27	1241,07
583,47	1284,08
583,66	1204,21
583,85	1206,25
584,05	1241,07
584,24	1275,88
584,44	1284,08
584,63	1228,78
584,82	1335,28
585,02	1284,08
585,21	1284,08
585,41	1302,51
585,60	1208,30
585,79	1259,50
585,99	1333,23
586,18	1261,55
586,37	1265,64
586,57	1239,02
586,76	1298,41
586,96	1253,36
587,15	1290,22
587,34	1322,99
587,54	1271,79
587,73	1243,12
587,93	1206,25
588,12	1226,73
588,31	1228,78
588,51	1304,56
588,70	1290,22
588,89	1275,88
589,09	1296,36
589,28	1208,30
589,47	1288,17
589,67	1267,69
589,86	1236,97
590,06	1302,51
590,25	1216,49
590,44	1216,49
590,64	1249,26
590,83	1224,69
591,02	1187,82
591,22	1265,64
591,41	1273,84
591,60	1255,40
591,80	1253,36
591,99	1255,40
592,18	1239,02
592,38	1314,80
592,57	1222,64
592,76	1259,50
592,96	1271,79
593,15	1191,92
593,34	1253,36
593,54	1273,84
593,73	1275,88
593,92	1245,16
594,12	1214,45
594,31	1218,54
594,50	1263,60
594,70	1327,08
594,89	1355,76
595,08	1325,04
595,28	1175,53
595,47	1349,61
595,66	1234,93
595,86	1247,21
596,05	1216,49
596,24	1249,26
596,43	1236,97
596,63	1222,64
596,82	1226,73
597,01	1290,22
597,21	1337,32
597,40	1247,21
597,59	1230,83
597,79	1294,32
597,98	1222,64
598,17	1230,83
598,36	1282,03
598,56	1263,60
598,75	1265,64
598,94	1318,89
599,14	1232,88
599,33	1191,92
599,52	1228,78
599,71	1314,80
599,91	1226,73
600,10	1226,73
600,29	1277,93
600,48	1226,73
600,68	1257,45
600,87	1314,80
601,06	1249,26
601,26	1232,88
601,45	1279,98
601,64	1216,49
601,83	1275,88
602,03	1304,56
602,22	1337,32
602,41	1267,69
602,60	1259,50
602,80	1239,02
602,99	1288,17
603,18	1312,75
603,37	1208,30
603,57	1337,32
603,76	1277,93
603,95	1249,26
604,14	1282,03
604,34	1310,70
604,53	1230,83
604,72	1241,07
604,91	1282,03
605,10	1333,23
605,30	1279,98
605,49	1267,69
605,68	1339,37
605,87	1255,40
606,07	1298,41
606,26	1255,40
606,45	1257,45
606,64	1247,21
606,84	1306,60
607,03	1269,74
607,22	1247,21
607,41	1191,92
607,60	1275,88
607,80	1198,06
607,99	1277,93
608,18	1236,97
608,37	1282,03
608,56	1249,26
608,76	1300,46
608,95	1282,03
609,14	1216,49
609,33	1327,08
609,52	1273,84
609,72	1282,03
609,91	1318,89
610,10	1306,60
610,29	1257,45
610,48	1271,79
610,68	1277,93
610,87	1239,02
611,06	1273,84
611,25	1239,02
611,44	1259,50
611,63	1243,12
611,83	1353,71
612,02	1234,93
612,21	1275,88
612,40	1335,28
612,59	1183,73
612,79	1331,18
612,98	1329,13
613,17	1279,98
613,36	1267,69
613,55	1290,22
613,74	1282,03
613,93	1322,99
614,13	1298,41
614,32	1376,24
614,51	1286,12
614,70	1284,08
614,89	1241,07
615,08	1312,75
615,28	1290,22
615,47	1341,42
615,66	1245,16
615,85	1286,12
616,04	1267,69
616,23	1236,97
616,42	1245,16
616,62	1222,64
616,81	1214,45
617,00	1325,04
617,19	1251,31
617,38	1220,59
617,57	1339,37
617,76	1251,31
617,95	1234,93
618,15	1327,08
618,34	1298,41
618,53	1206,25
618,72	1308,65
618,91	1255,40
619,10	1275,88
619,29	1271,79
619,48	1269,74
619,68	1271,79
619,87	1275,88
620,06	1314,80
620,25	1245,16
620,44	1298,41
620,63	1355,76
620,82	1212,40
621,01	1359,85
621,20	1236,97
621,39	1261,55
621,59	1343,47
621,78	1294,32
621,97	1292,27
622,16	1296,36
622,35	1228,78
622,54	1253,36
622,73	1230,83
622,92	1263,60
623,11	1275,88
623,30	1263,60
623,49	1294,32
623,68	1249,26
623,88	1249,26
624,07	1298,41
624,26	1325,04
624,45	1304,56
624,64	1279,98
624,83	1282,03
625,02	1279,98
625,21	1347,56
625,40	1212,40
625,59	1333,23
625,78	1304,56
625,97	1314,80
626,16	1253,36
626,35	1210,35
626,54	1409,00
626,74	1241,07
626,93	1275,88
627,12	1263,60
627,31	1247,21
627,50	1241,07
627,69	1320,94
627,88	1210,35
628,07	1298,41
628,26	1302,51
628,45	1298,41
628,64	1232,88
628,83	1296,36
629,02	1257,45
629,21	1255,40
629,40	1314,80
629,59	1177,58
629,78	1300,46
629,97	1243,12
630,16	1249,26
630,35	1234,93
630,54	1279,98
630,73	1384,43
630,92	1279,98
631,11	1329,13
631,30	1292,27
631,49	1366,00
631,68	1617,90
631,87	2908,12
632,06	7335,82
632,25	8345,47
632,44	13733,68
632,63	19773,14
632,82	30172,72
633,01	65139,74
633,20	65535,00
633,39	65535,00
633,58	65535,00
633,77	49345,81
633,96	20885,19
634,15	9158,52
634,34	7399,31
634,53	4941,75
634,72	2889,68
634,91	2013,15
635,10	1886,18
635,29	1935,33
635,48	1748,97
635,67	1525,74
635,86	1529,83
636,05	1437,67
636,24	1409,00
636,43	1437,67
636,62	1331,18
636,81	1290,22
637,00	1273,84
637,19	1345,52
637,38	1341,42
637,57	1386,47
637,76	1333,23
637,95	1310,70
638,14	1290,22
638,33	1294,32
638,52	1308,65
638,71	1249,26
638,89	1294,32
639,08	1312,75
639,27	1265,64
639,46	1290,22
639,65	1314,80
639,84	1243,12
640,03	1302,51
640,22	1245,16
640,41	1320,94
640,60	1341,42
640,79	1224,69
640,98	1265,64
641,17	1300,46
641,36	1300,46
641,55	1214,45
641,74	1284,08
641,92	1277,93
642,11	1253,36
642,30	1294,32
642,49	1239,02
642,68	1257,45
642,87	1286,12
643,06	1288,17
643,25	1255,40
643,44	1320,94
643,63	1243,12
643,82	1286,12
644,00	1282,03
644,19	1228,78
644,38	1212,40
644,57	1245,16
644,76	1259,50
644,95	1282,03
645,14	1265,64
645,33	1218,54
645,52	1212,40
645,71	1263,60
645,89	1243,12
646,08	1239,02
646,27	1294,32
646,46	1286,12
646,65	1234,93
646,84	1220,59
647,03	1261,55
647,22	1320,94
647,40	1183,73
647,59	1218,54
647,78	1302,51
647,97	1300,46
648,16	1230,83
648,35	1222,64
648,54	1284,08
648,73	1286,12
648,91	1200,11
649,10	1279,98
649,29	1329,13
649,48	1265,64
649,67	1239,02
649,86	1312,75
650,05	1341,42
650,23	1322,99
650,42	1290,22
650,61	1306,60
650,80	1226,73
650,99	1245,16
651,18	1279,98
651,36	1294,32
651,55	1230,83
651,74	1257,45
651,93	1322,99
652,12	1189,87
652,31	1263,60
652,49	1249,26
652,68	1257,45
652,87	1216,49
653,06	1226,73
653,25	1273,84
653,44	1243,12
653,62	1284,08
653,81	1271,79
654,00	1263,60
654,19	1290,22
654,38	1249,26
654,56	1273,84
654,75	1271,79
654,94	1236,97
655,13	1263,60
655,32	1243,12
655,51	1290,22
655,69	1226,73
655,88	1247,21
656,07	1200,11
656,26	1239,02
656,45	1312,75
656,63	1265,64
656,82	1275,88
657,01	1279,98
657,20	1259,50
657,38	1298,41
657,57	1277,93
657,76	1304,56
657,95	1236,97
658,14	1308,65
658,32	1257,45
658,51	1220,59
658,70	1224,69
658,89	1200,11
659,08	1339,37
659,26	1265,64
659,45	1296,36
659,64	1339,37
659,83	1220,59
660,01	1306,60
660,20	1220,59
660,39	1288,17
660,58	1275,88
660,76	1345,52
660,95	1257,45
661,14	1316,84
661,33	1220,59
661,51	1298,41
661,70	1167,34
661,89	1271,79
662,08	1288,17
662,26	1255,40
662,45	1286,12
662,64	1277,93
662,83	1277,93
663,01	1206,25
663,20	1290,22
663,39	1296,36
663,58	1236,97
663,76	1279,98
663,95	1228,78
664,14	1279,98
664,32	1177,58
664,51	1292,27
664,70	1277,93
664,89	1286,12
665,07	1200,11
665,26	1312,75
665,45	1230,83
665,64	1298,41
665,82	1191,92
666,01	1245,16
666,20	1257,45
666,38	1275,88
666,57	1251,31
666,76	1298,41
666,95	1298,41
667,13	1269,74
667,32	1255,40
667,51	1271,79
667,69	1224,69
667,88	1306,60
668,07	1279,98
668,25	1271,79
668,44	1269,74
668,63	1187,82
668,81	1353,71
669,00	1224,69
669,19	1245,16
669,38	1314,80
669,56	1290,22
669,75	1339,37
669,94	1216,49
670,12	1220,59
670,31	1267,69
670,50	1267,69
670,68	1232,88
670,87	1298,41
671,06	1247,21
671,24	1279,98
671,43	1232,88
671,62	1275,88
671,80	1253,36
671,99	1218,54
672,18	1325,04
672,36	1249,26
672,55	1282,03
672,74	1220,59
672,92	1292,27
673,11	1302,51
673,29	1282,03
673,48	1212,40
673,67	1273,84
673,85	1320,94
674,04	1187,82
674,23	1288,17
674,41	1230,83
674,60	1226,73
674,79	1243,12
674,97	1275,88
675,16	1230,83
675,34	1345,52
675,53	1110,00
675,72	1191,92
675,90	1265,64
676,09	1269,74
676,28	1245,16
676,46	1224,69
676,65	1300,46
676,83	1214,45
677,02	1273,84
677,21	1167,34
677,39	1290,22
677,58	1271,79
677,77	1247,21
677,95	1216,49
678,14	1212,40
678,32	1224,69
678,51	1353,71
678,70	1263,60
678,88	1245,16
679,07	1226,73
679,25	1249,26
679,44	1243,12
679,63	1226,73
679,81	1290,22
680,00	1275,88
680,18	1236,97
680,37	1257,45
680,55	1269,74
680,74	1308,65
680,93	1226,73
681,11	1329,13
681,30	1345,52
681,48	1292,27
681,67	1325,04
681,85	1239,02
682,04	1251,31
682,23	1286,12
682,41	1279,98
682,60	1275,88
682,78	1279,98
682,97	1282,03
683,15	1337,32
683,34	1210,35
683,53	1279,98
683,71	1290,22
683,90	1312,75
684,08	1337,32
684,27	1294,32
684,45	1267,69
684,64	1322,99
684,82	1200,11
685,01	1257,45
685,19	1345,52
685,38	1329,13
685,57	1316,84
685,75	1286,12
685,94	1271,79
686,12	1198,06
686,31	1300,46
686,49	1310,70
686,68	1316,84
686,86	1228,78
687,05	1310,70
687,23	1251,31
687,42	1327,08
687,60	1193,97
687,79	1273,84
687,97	1269,74
688,16	1320,94
688,34	1337,32
688,53	1298,41
688,71	1286,12
688,90	1282,03
689,08	1183,73
689,27	1185,77
689,45	1298,41
689,64	1304,56
689,82	1298,41
690,01	1239,02
690,19	1290,22
690,38	1249,26
690,56	1302,51
690,75	1239,02
690,93	1265,64
691,12	1200,11
691,30	1273,84
691,49	1282,03
691,67	1236,97
691,86	1273,84
692,04	1167,34
692,23	1312,75
692,41	1220,59
692,60	1243,12
692,78	1316,84
692,97	1179,63
693,15	1243,12
693,34	1277,93
693,52	1241,07
693,71	1232,88
693,89	1279,98
694,08	1255,40
694,26	1245,16
694,44	1239,02
694,63	1216,49
694,81	1232,88
695,00	1263,60
695,18	1220,59
695,37	1296,36
695,55	1255,40
695,74	1224,69
695,92	1228,78
696,10	1243,12
696,29	1216,49
696,47	1337,32
696,66	1347,56
696,84	1290,22
697,03	1347,56
697,21	1241,07
697,40	1312,75
697,58	1298,41
697,76	1230,83
697,95	1257,45
698,13	1247,21
698,32	1279,98
698,50	1253,36
698,68	1308,65
698,87	1306,60
699,05	1241,07
699,24	1247,21
699,42	1376,24
699,61	1306,60
699,79	1314,80
699,97	1277,93
700,16	1222,64
700,34	1257,45
700,53	1228,78
700,71	1222,64
700,89	1286,12
701,08	1255,40
701,26	1255,40
701,45	1263,60
701,63	1345,52
701,81	1263,60
702,00	1300,46
702,18	1234,93
702,37	1261,55
702,55	1232,88
702,73	1329,13
702,92	1273,84
703,10	1277,93
703,28	1232,88
703,47	1214,45
703,65	1296,36
703,84	1277,93
704,02	1259,50
704,20	1245,16
704,39	1263,60
704,57	1255,40
704,75	1273,84
704,94	1263,60
705,12	1316,84
705,30	1265,64
705,49	1243,12
705,67	1247,21
705,86	1282,03
706,04	1312,75
706,22	1224,69
706,41	1251,31
706,59	1269,74
706,77	1273,84
706,96	1267,69
707,14	1253,36
707,32	1220,59
707,51	1263,60
707,69	1255,40
707,87	1327,08
708,06	1265,64
708,24	1294,32
708,42	1296,36
708,61	1214,45
708,79	1251,31
708,97	1259,50
709,16	1253,36
709,34	1249,26
709,52	1308,65
709,71	1200,11
709,89	1275,88
710,07	1304,56
710,26	1263,60
710,44	1322,99
710,62	1273,84
710,80	1267,69
710,99	1308,65
711,17	1273,84
711,35	1273,84
711,54	1296,36
711,72	1351,66
711,90	1279,98
712,09	1224,69
712,27	1239,02
712,45	1333,23
712,63	1308,65
712,82	1236,97
713,00	1282,03
713,18	1282,03
713,37	1288,17
713,55	1263,60
713,73	1232,88
713,91	1269,74
714,10	1257,45
714,28	1216,49
714,46	1243,12
714,65	1253,36
714,83	1245,16
715,01	1292,27
715,19	1298,41
715,38	1290,22
715,56	1253,36
715,74	1253,36
715,92	1241,07
716,11	1243,12
716,29	1263,60
716,47	1294,32
716,65	1259,50
716,84	1259,50
717,02	1279,98
717,20	1320,94
717,38	1282,03
717,57	1251,31
717,75	1294,32
717,93	1212,40
718,11	1249,26
718,30	1273,84
718,48	1230,83
718,66	1159,15
718,84	1316,84
719,03	1224,69
719,21	1339,37
719,39	1282,03
719,57	1273,84
719,75	1228,78
719,94	1286,12
720,12	1263,60
720,30	1275,88
720,48	1288,17
720,67	1200,11
720,85	1247,21
721,03	1322,99
721,21	1251,31
721,39	1284,08
721,58	1198,06
721,76	1232,88
721,94	1294,32
722,12	1249,26
722,30	1263,60
722,49	1296,36
722,67	1261,55
722,85	1294,32
723,03	1282,03
723,21	1308,65
723,40	1302,51
723,58	1261,55
723,76	1353,71
723,94	1296,36
724,12	1269,74
724,30	1277,93
724,49	1296,36
724,67	1243,12
724,85	1290,22
725,03	1282,03
725,21	1302,51
725,40	1298,41
725,58	1290,22
725,76	1269,74
725,94	1296,36
726,12	1300,46
726,30	1259,50
726,49	1249,26
726,67	1241,07
726,85	1257,45
727,03	1253,36
727,21	1241,07
727,39	1216,49
727,57	1302,51
727,76	1208,30
727,94	1300,46
728,12	1286,12
728,30	1243,12
728,48	1185,77
728,66	1282,03
728,84	1292,27
729,03	1249,26
729,21	1275,88
729,39	1218,54
729,57	1257,45
729,75	1263,60
729,93	1249,26
730,11	1247,21
730,30	1279,98
730,48	1286,12
730,66	1251,31
730,84	1230,83
731,02	1282,03
731,20	1296,36
731,38	1232,88
731,56	1198,06
731,74	1263,60
731,93	1224,69
732,11	1253,36
732,29	1187,82
732,47	1290,22
732,65	1239,02
732,83	1296,36
733,01	1204,21
733,19	1277,93
733,37	1230,83
733,56	1251,31
733,74	1230,83
733,92	1302,51
734,10	1230,83
734,28	1310,70
734,46	1263,60
734,64	1284,08
734,82	1292,27
735,00	1279,98
735,18	1316,84
735,36	1251,31
735,54	1245,16
735,73	1253,36
735,91	1279,98
736,09	1329,13
736,27	1224,69
736,45	1247,21
736,63	1222,64
736,81	1218,54
736,99	1310,70
737,17	1263,60
737,35	1273,84
737,53	1220,59
737,71	1196,01
737,89	1216,49
738,07	1322,99
738,25	1189,87
738,43	1314,80
738,61	1173,49
738,80	1294,32
738,98	1308,65
739,16	1232,88
739,34	1239,02
739,52	1335,28
739,70	1234,93
739,88	1298,41
740,06	1286,12
740,24	1208,30
740,42	1249,26
740,60	1290,22
740,78	1257,45
740,96	1296,36
741,14	1265,64
741,32	1312,75
741,50	1288,17
741,68	1261,55
741,86	1228,78
742,04	1257,45
742,22	1214,45
742,40	1239,02
742,58	1265,64
742,76	1259,50
742,94	1318,89
743,12	1261,55
743,30	1239,02
743,48	1241,07
743,66	1294,32
743,84	1308,65
744,02	1351,66
744,20	1263,60
744,38	1173,49
744,56	1286,12
744,74	1220,59
744,92	1284,08
745,10	1300,46
745,28	1292,27
745,46	1249,26
745,64	1290,22
745,82	1269,74
746,00	1234,93
746,18	1247,21
746,36	1232,88
746,54	1245,16
746,72	1253,36
746,90	1320,94
747,08	1273,84
747,26	1284,08
747,44	1279,98
747,62	1310,70
747,80	1191,92
747,98	1312,75
748,15	1279,98
748,33	1273,84
748,51	1296,36
748,69	1263,60
748,87	1329,13
749,05	1251,31
749,23	1296,36
749,41	1216,49
749,59	1245,16
749,77	1255,40
749,95	1290,22
750,13	1282,03
750,31	1282,03
750,49	1239,02
750,67	1302,51
750,85	1288,17
751,03	1306,60
751,20	1277,93
751,38	1296,36
751,56	1255,40
751,74	1228,78
751,92	1290,22
752,10	1267,69
752,28	1247,21
752,46	1265,64
752,64	1247,21
752,82	1304,56
753,00	1277,93
753,18	1277,93
753,35	1251,31
753,53	1286,12
753,71	1245,16
753,89	1288,17
754,07	1269,74
754,25	1269,74
754,43	1277,93
754,61	1306,60
754,79	1279,98
754,97	1267,69
755,14	1234,93
755,32	1169,39
755,50	1241,07
755,68	1259,50
755,86	1236,97
756,04	1255,40
756,22	1296,36
756,40	1310,70
756,57	1292,27
756,75	1282,03
756,93	1218,54
757,11	1265,64
757,29	1282,03
757,47	1245,16
757,65	1216,49
757,82	1265,64
758,00	1279,98
758,18	1335,28
758,36	1220,59
758,54	1261,55
758,72	1253,36
758,90	1243,12
759,07	1300,46
759,25	1290,22
759,43	1228,78
759,61	1290,22
759,79	1259,50
759,97	1320,94
760,15	1202,16
760,32	1228,78
760,50	1239,02
760,68	1232,88
760,86	1284,08
761,04	1222,64
761,22	1325,04
761,39	1230,83
761,57	1236,97
761,75	1249,26
761,93	1271,79
762,11	1226,73
762,28	1327,08
762,46	1263,60
762,64	1259,50
762,82	1189,87
763,00	1288,17
763,18	1257,45
763,35	1210,35
763,53	1279,98
763,71	1198,06
763,89	1247,21
764,07	1282,03
764,24	1200,11
764,42	1202,16
764,60	1267,69
764,78	1294,32
764,96	1257,45
765,13	1304,56
765,31	1292,27
765,49	1230,83
765,67	1271,79
765,84	1216,49
766,02	1216,49
766,20	1247,21
766,38	1290,22
766,56	1247,21
766,73	1282,03
766,91	1271,79
767,09	1298,41
767,27	1234,93
767,44	1314,80
767,62	1273,84
767,80	1302,51
767,98	1298,41
768,15	1322,99
768,33	1257,45
768,51	1261,55
768,69	1294,32
768,87	1347,56
769,04	1275,88
769,22	1282,03
769,40	1284,08
769,58	1304,56
769,75	1300,46
769,93	1259,50
770,11	1216,49
770,28	1241,07
770,46	1263,60
770,64	1245,16
770,82	1249,26
770,99	1275,88
771,17	1208,30
771,35	1302,51
771,53	1239,02
771,70	1351,66
771,88	1226,73
772,06	1208,30
772,23	1282,03
772,41	1333,23
772,59	1251,31
772,77	1273,84
772,94	1298,41
773,12	1318,89
773,30	1279,98
773,47	1329,13
773,65	1216,49
773,83	1302,51
774,01	1228,78
774,18	1322,99
774,36	1282,03
774,54	1335,28
774,71	1290,22
774,89	1284,08
775,07	1290,22
775,24	1279,98
775,42	1234,93
775,60	1314,80
775,78	1261,55
775,95	1204,21
776,13	1226,73
776,31	1339,37
776,48	1292,27
776,66	1220,59
776,84	1322,99
777,01	1243,12
777,19	1273,84
777,37	1245,16
777,54	1202,16
777,72	1226,73
777,90	1271,79
778,07	1263,60
778,25	1335,28
778,43	1310,70
778,60	1193,97
778,78	1249,26
778,96	1261,55
779,13	1275,88
779,31	1255,40
779,49	1185,77
779,66	1226,73
779,84	1253,36
780,01	1257,45
780,19	1329,13
780,37	1288,17
780,54	1222,64
780,72	1247,21
780,90	1282,03
781,07	1247,21
781,25	1228,78
781,43	1327,08
781,60	1282,03
781,78	1316,84
781,95	1226,73
782,13	1275,88
782,31	1286,12
782,48	1284,08
782,66	1210,35
782,83	1294,32
783,01	1210,35
783,19	1273,84
783,36	1292,27
783,54	1259,50
783,72	1290,22
783,89	1255,40
784,07	1234,93
784,24	1239,02
784,42	1273,84
784,60	1310,70
784,77	1316,84
784,95	1230,83
785,12	1277,93
785,30	1337,32
785,47	1261,55
785,65	1187,82
785,83	1316,84
786,00	1284,08
786,18	1306,60
786,35	1247,21
786,53	1279,98
786,71	1245,16
786,88	1351,66
787,06	1300,46
787,23	1253,36
787,41	1243,12
787,58	1257,45
787,76	1222,64
787,94	1230,83
788,11	1155,05
788,29	1206,25
788,46	1255,40
788,64	1279,98
788,81	1204,21
788,99	1269,74
789,16	1234,93
789,34	1312,75
789,52	1251,31
789,69	1249,26
789,87	1216,49
790,04	1263,60
790,22	1185,77
790,39	1306,60
790,57	1294,32
790,74	1269,74
790,92	1265,64
791,09	1200,11
791,27	1265,64
791,44	1292,27
791,62	1282,03
791,79	1241,07
791,97	1265,64
792,15	1232,88
792,32	1300,46
792,50	1253,36
792,67	1292,27
792,85	1314,80
793,02	1302,51
793,20	1226,73
793,37	1208,30
793,55	1224,69
793,72	1271,79
793,90	1267,69
794,07	1294,32
794,25	1286,12
794,42	1200,11
794,60	1236,97
794,77	1206,25
794,95	1271,79
795,12	1263,60
795,30	1265,64
795,47	1337,32
795,65	1196,01
795,82	1224,69
796,00	1320,94
796,17	1265,64
796,34	1263,60
796,52	1300,46
796,69	1247,21
796,87	1316,84
797,04	1261,55
797,22	1271,79
797,39	1271,79
797,57	1255,40
797,74	1253,36
797,92	1236,97
798,09	1255,40
798,27	1269,74
798,44	1257,45
798,62	1267,69
798,79	1325,04
798,96	1304,56
799,14	1286,12
799,31	1304,56
799,49	1216,49
799,66	1187,82
799,84	1267,69
800,01	1214,45
800,19	1257,45
800,36	1298,41
800,53	1245,16
800,71	1320,94
800,88	1296,36
801,06	1292,27
801,23	1241,07
801,41	1267,69
801,58	1236,97
801,75	1335,28
801,93	1236,97
802,10	1191,92
802,28	1239,02
802,45	1230,83
802,63	1255,40
802,80	1265,64
802,97	1314,80
803,15	1255,40
803,32	1353,71
803,50	1257,45
803,67	1306,60
803,84	1232,88
804,02	1239,02
804,19	1259,50
804,37	1220,59
804,54	1282,03
804,71	1257,45
804,89	1284,08
805,06	1249,26
805,24	1259,50
805,41	1220,59
805,58	1245,16
805,76	1271,79
805,93	1249,26
806,10	1282,03
806,28	1232,88
806,45	1304,56
806,63	1239,02
806,80	1251,31
806,97	1232,88
807,15	1312,75
807,32	1292,27
807,49	1253,36
807,67	1189,87
807,84	1316,84
808,01	1208,30
808,19	1241,07
808,36	1230,83
808,54	1249,26
808,71	1267,69
808,88	1261,55
809,06	1322,99
809,23	1306,60
809,40	1236,97
809,58	1306,60
809,75	1302,51
809,92	1216,49
810,10	1247,21
810,27	1310,70
810,44	1239,02
810,62	1306,60
810,79	1257,45
810,96	1239,02
811,14	1298,41
811,31	1310,70
811,48	1220,59
811,66	1255,40
811,83	1279,98
812,00	1298,41
812,18	1259,50
812,35	1353,71
812,52	1232,88
812,69	1243,12
812,87	1302,51
813,04	1302,51
813,21	1253,36
813,39	1269,74
813,56	1271,79
813,73	1310,70
813,91	1320,94
814,08	1230,83
814,25	1271,79
814,42	1251,31
814,60	1265,64
814,77	1304,56
814,94	1314,80
815,12	1243,12
815,29	1241,07
815,46	1284,08
815,63	1214,45
815,81	1288,17
815,98	1232,88
816,15	1187,82
816,33	1353,71
816,50	1286,12
816,67	1308,65
816,84	1222,64
817,02	1298,41
817,19	1255,40
817,36	1286,12
817,53	1288,17
817,71	1196,01
817,88	1294,32
818,05	1263,60
818,22	1292,27
818,40	1241,07
818,57	1284,08
818,74	1314,80
818,91	1257,45
819,09	1243,12
819,26	1267,69
819,43	1247,21
819,60	1243,12
819,78	1257,45
819,95	1249,26
820,12	1298,41
820,29	1253,36
820,47	1232,88
820,64	1210,35
820,81	1259,50
820,98	1290,22
821,15	1234,93
821,33	1298,41
821,50	1331,18
821,67	1216,49
821,84	1228,78
822,02	1261,55
822,19	1304,56
822,36	1243,12
822,53	1275,88
822,70	1245,16
822,88	1204,21
823,05	1224,69
823,22	1255,40
823,39	1306,60
823,56	1288,17
823,74	1284,08
823,91	1220,59
824,08	1288,17
824,25	1228,78
824,42	1282,03
824,60	1200,11
824,77	1253,36
824,94	1257,45
825,11	1314,80
825,28	1243,12
825,45	1273,84
825,63	1265,64
825,80	1320,94
825,97	1228,78
826,14	1273,84
826,31	1230,83
826,48	1241,07
826,66	1304,56
826,83	1212,40
827,00	1202,16
827,17	1343,47
827,34	1198,06
827,51	1253,36
827,69	1290,22
827,86	1306,60
828,03	1222,64
828,20	1279,98
828,37	1269,74
828,54	1239,02
828,71	1300,46
828,89	1251,31
829,06	1273,84
829,23	1302,51
829,40	1273,84
829,57	1304,56
829,74	1273,84
829,91	1220,59
830,09	1230,83
830,26	1234,93
830,43	1292,27
830,60	1228,78
830,77	1263,60
830,94	1302,51
831,11	1282,03
831,28	1236,97
831,46	1175,53
831,63	1251,31
831,80	1206,25
831,97	1255,40
832,14	1265,64
832,31	1304,56
832,48	1226,73
832,65	1298,41
832,82	1247,21
832,99	1275,88
833,17	1290,22
833,34	1247,21
833,51	1224,69
833,68	1284,08
833,85	1243,12
834,02	1234,93
834,19	1230,83
834,36	1308,65
834,53	1335,28
834,70	1226,73
834,87	1257,45
835,04	1232,88
835,22	1249,26
835,39	1271,79
835,56	1302,51
835,73	1269,74
835,90	1181,68
836,07	1277,93
836,24	1282,03
836,41	1329,13
836,58	1255,40
836,75	1257,45
836,92	1247,21
837,09	1265,64
837,26	1261,55
837,43	1284,08
837,60	1316,84
837,77	1294,32
837,94	1232,88
838,12	1376,24
838,29	1236,97
838,46	1222,64
838,63	1284,08
838,80	1220,59
838,97	1286,12
839,14	1304,56
839,31	1294,32
839,48	1275,88
839,65	1288,17
839,82	1282,03
839,99	1251,31
840,16	1251,31
840,33	1230,83
840,50	1241,07
840,67	1206,25
840,84	1251,31
841,01	1318,89
841,18	1277,93
841,35	1191,92
841,52	1314,80
841,69	1288,17
841,86	1273,84
842,03	1288,17
842,20	1298,41
842,37	1208,30
842,54	1265,64
842,71	1232,88
842,88	1261,55
843,05	1230,83
843,22	1286,12
843,39	1241,07
843,56	1306,60
843,73	1224,69
843,90	1269,74
844,07	1279,98
844,24	1269,74
844,41	1273,84
844,58	1163,25
844,75	1277,93
844,92	1251,31
845,09	1214,45
845,26	1290,22
845,43	1243,12
845,60	1255,40
845,77	1206,25
845,94	1298,41
846,10	1265,64
846,27	1232,88
846,44	1331,18
846,61	1259,50
846,78	1335,28
846,95	1261,55
847,12	1218,54
847,29	1251,31
847,46	1284,08
847,63	1232,88
847,80	1200,11
847,97	1310,70
848,14	1232,88
848,31	1290,22
848,48	1200,11
848,65	1216,49
848,82	1284,08
848,98	1282,03
849,15	1214,45
849,32	1308,65
849,49	1269,74
849,66	1296,36
849,83	1236,97
850,00	1292,27
850,17	1275,88
850,34	1314,80
850,51	1288,17
850,68	1314,80
850,85	1275,88
851,01	1294,32
851,18	1290,22
851,35	1277,93
851,52	1288,17
851,69	1224,69
851,86	1296,36
852,03	1241,07
852,20	1245,16
852,37	1243,12
852,53	1247,21
852,70	1327,08
852,87	1271,79
853,04	1290,22
853,21	1275,88
853,38	1245,16
853,55	1322,99
853,72	1318,89
853,89	1247,21
854,05	1212,40
854,22	1208,30
854,39	1257,45
854,56	1226,73
854,73	1259,50
854,90	1279,98
855,07	1245,16
855,23	1261,55
855,40	1241,07
855,57	1284,08
855,74	1284,08
855,91	1277,93
856,08	1251,31
856,25	1204,21
856,41	1277,93
856,58	1267,69
856,75	1288,17
856,92	1222,64
857,09	1314,80
857,26	1165,29
857,42	1245,16
857,59	1220,59
857,76	1337,32
857,93	1273,84
858,10	1255,40
858,27	1202,16
858,43	1232,88
858,60	1253,36
858,77	1269,74
858,94	1204,21
859,11	1220,59
859,27	1245,16
859,44	1216,49
859,61	1255,40
859,78	1325,04
859,95	1269,74
860,12	1275,88
860,28	1210,35
860,45	1239,02
860,62	1247,21
860,79	1222,64
860,95	1257,45
861,12	1267,69
861,29	1208,30
861,46	1247,21
861,63	1204,21
861,79	1269,74
861,96	1269,74
862,13	1216,49
862,30	1234,93
862,47	1302,51
862,63	1236,97
862,80	1312,75
862,97	1292,27
863,14	1265,64
863,30	1247,21
863,47	1259,50
863,64	1265,64
863,81	1247,21
863,97	1286,12
864,14	1290,22
864,31	1228,78
864,48	1222,64
864,65	1263,60
864,81	1218,54
864,98	1239,02
865,15	1263,60
865,32	1222,64
865,48	1292,27
865,65	1310,70
865,82	1245,16
865,98	1259,50
866,15	1288,17
866,32	1400,81
866,49	1265,64
866,65	1267,69
866,82	1200,11
866,99	1206,25
867,16	1298,41
867,32	1228,78
867,49	1286,12
867,66	1245,16
867,83	1263,60
867,99	1275,88
868,16	1222,64
868,33	1269,74
868,49	1271,79
868,66	1316,84
868,83	1228,78
868,99	1245,16
869,16	1277,93
869,33	1226,73
869,50	1320,94
869,66	1269,74
869,83	1220,59
870,00	1337,32
870,16	1232,88
870,33	1257,45
870,50	1298,41
870,66	1302,51
870,83	1294,32
871,00	1243,12
871,17	1327,08
871,33	1263,60
871,50	1243,12
871,67	1275,88
871,83	1271,79
872,00	1279,98
872,17	1304,56
872,33	1331,18
872,50	1239,02
872,67	1282,03
872,83	1232,88
873,00	1277,93
873,17	1173,49
873,33	1159,15
873,50	1241,07
873,67	1218,54
873,83	1347,56
874,00	1214,45
874,16	1271,79
874,33	1265,64
874,50	1304,56
874,66	1265,64
874,83	1298,41
875,00	1290,22
875,16	1306,60
875,33	1247,21
875,50	1306,60
875,66	1312,75
875,83	1279,98
875,99	1282,03
876,16	1312,75
876,33	1255,40
876,49	1253,36
876,66	1196,01
876,83	1236,97
876,99	1261,55
877,16	1224,69
877,32	1167,34
877,49	1327,08
877,66	1241,07
877,82	1325,04
877,99	1241,07
878,15	1267,69
878,32	1253,36
878,49	1296,36
878,65	1196,01
878,82	1282,03
878,98	1245,16
879,15	1228,78
879,32	1284,08
879,48	1325,04
879,65	1310,70
879,81	1327,08
879,98	1261,55
880,15	1253,36
880,31	1282,03
880,48	1265,64
880,64	1216,49
880,81	1288,17
880,97	1212,40
881,14	1234,93
881,31	1304,56
881,47	1267,69
881,64	1261,55
881,80	1284,08
881,97	1298,41
882,13	1341,42
882,30	1222,64
882,47	1216,49
882,63	1232,88
882,80	1290,22
882,96	1222,64
883,13	1331,18
883,29	1296,36
883,46	1282,03
883,62	1226,73
883,79	1312,75
883,95	1249,26
884,12	1257,45
884,29	1269,74
884,45	1200,11
884,62	1273,84
884,78	1261,55
884,95	1273,84
885,11	1300,46
885,28	1304,56
885,44	1296,36
885,61	1271,79
885,77	1298,41
885,94	1218,54
886,10	1284,08
886,27	1230,83
886,43	1292,27
886,60	1298,41
886,76	1255,40
886,93	1261,55
887,09	1257,45
887,26	1279,98
887,42	1302,51
887,59	1257,45
887,75	1306,60
887,92	1243,12
888,08	1337,32
888,25	1200,11
888,41	1277,93
888,58	1245,16
888,74	1249,26
888,91	1263,60
>>>>>End Processed Spectral Data<<<<<
