SpectraSuite Data File
++++++++++++++++++++++++++++++++++++
Date: Sun Apr 03 14:08:34 CEST 2016
User: root
Dark Spectrum Present: No
Reference Spectrum Present: No
Number of Sampled Component Spectra: 1
Spectrometers: USB4C02835
Integration Time (usec): 10000 (USB4C02835)
Spectra Averaged: 1 (USB4C02835)
Boxcar Smoothing: 0 (USB4C02835)
Correct for Electrical Dark: No (USB4C02835)
Strobe/Lamp Enabled: No (USB4C02835)
Correct for Detector Non-linearity: No (USB4C02835)
Correct for Stray Light: No (USB4C02835)
Number of Pixels in Processed Spectrum: 3648
>>>>>Begin Processed Spectral Data<<<<<
177,47	1212,40
177,69	1212,40
177,91	1212,40
178,13	1239,02
178,36	1214,45
178,58	1210,35
178,80	1204,21
179,02	1257,45
179,24	1316,84
179,46	1183,73
179,68	1171,44
179,90	1331,18
180,13	1251,31
180,35	1282,03
180,57	1320,94
180,79	1300,46
181,01	1259,50
181,23	1220,59
181,45	1345,52
181,67	1284,08
181,90	1290,22
182,12	1263,60
182,34	1218,54
182,56	1210,35
182,78	1282,03
183,00	1361,90
183,22	1284,08
183,44	1212,40
183,66	1298,41
183,89	1263,60
184,11	1300,46
184,33	1222,64
184,55	1230,83
184,77	1302,51
184,99	1232,88
185,21	1253,36
185,43	1251,31
185,65	1322,99
185,87	1275,88
186,10	1322,99
186,32	1271,79
186,54	1261,55
186,76	1224,69
186,98	1271,79
187,20	1290,22
187,42	1226,73
187,64	1259,50
187,86	1253,36
188,08	1318,89
188,30	1224,69
188,52	1269,74
188,75	1261,55
188,97	1316,84
189,19	1288,17
189,41	1259,50
189,63	1275,88
189,85	1249,26
190,07	1236,97
190,29	1245,16
190,51	1216,49
190,73	1308,65
190,95	1255,40
191,17	1284,08
191,39	1239,02
191,61	1230,83
191,84	1267,69
192,06	1284,08
192,28	1191,92
192,50	1284,08
192,72	1339,37
192,94	1279,98
193,16	1300,46
193,38	1214,45
193,60	1265,64
193,82	1200,11
194,04	1263,60
194,26	1241,07
194,48	1257,45
194,70	1284,08
194,92	1277,93
195,14	1318,89
195,36	1286,12
195,58	1155,05
195,80	1261,55
196,02	1306,60
196,24	1282,03
196,46	1257,45
196,69	1239,02
196,91	1331,18
197,13	1322,99
197,35	1241,07
197,57	1329,13
197,79	1271,79
198,01	1212,40
198,23	1214,45
198,45	1374,19
198,67	1175,53
198,89	1304,56
199,11	1320,94
199,33	1329,13
199,55	1333,23
199,77	1265,64
199,99	1288,17
200,21	1271,79
200,43	1322,99
200,65	1232,88
200,87	1282,03
201,09	1322,99
201,31	1232,88
201,53	1294,32
201,75	1263,60
201,97	1222,64
202,19	1288,17
202,41	1261,55
202,63	1282,03
202,85	1255,40
203,07	1331,18
203,29	1267,69
203,51	1243,12
203,73	1269,74
203,95	1210,35
204,17	1263,60
204,39	1228,78
204,61	1245,16
204,83	1302,51
205,05	1343,47
205,27	1230,83
205,49	1310,70
205,71	1310,70
205,93	1306,60
206,15	1265,64
206,37	1284,08
206,59	1247,21
206,81	1243,12
207,03	1257,45
207,25	1261,55
207,47	1290,22
207,69	1279,98
207,91	1337,32
208,13	1277,93
208,34	1181,68
208,56	1234,93
208,78	1261,55
209,00	1282,03
209,22	1245,16
209,44	1255,40
209,66	1322,99
209,88	1263,60
210,10	1339,37
210,32	1193,97
210,54	1230,83
210,76	1243,12
210,98	1200,11
211,20	1279,98
211,42	1306,60
211,64	1236,97
211,86	1298,41
212,08	1255,40
212,30	1255,40
212,52	1282,03
212,74	1204,21
212,96	1347,56
213,17	1312,75
213,39	1316,84
213,61	1245,16
213,83	1333,23
214,05	1253,36
214,27	1249,26
214,49	1306,60
214,71	1296,36
214,93	1282,03
215,15	1243,12
215,37	1269,74
215,59	1261,55
215,81	1300,46
216,03	1267,69
216,24	1273,84
216,46	1322,99
216,68	1269,74
216,90	1216,49
217,12	1271,79
217,34	1247,21
217,56	1249,26
217,78	1247,21
218,00	1251,31
218,22	1253,36
218,44	1325,04
218,66	1239,02
218,87	1292,27
219,09	1298,41
219,31	1261,55
219,53	1302,51
219,75	1249,26
219,97	1241,07
220,19	1222,64
220,41	1204,21
220,63	1210,35
220,85	1261,55
221,06	1312,75
221,28	1275,88
221,50	1193,97
221,72	1271,79
221,94	1275,88
222,16	1294,32
222,38	1325,04
222,60	1292,27
222,82	1191,92
223,03	1316,84
223,25	1292,27
223,47	1331,18
223,69	1325,04
223,91	1282,03
224,13	1337,32
224,35	1259,50
224,57	1279,98
224,78	1279,98
225,00	1273,84
225,22	1234,93
225,44	1318,89
225,66	1267,69
225,88	1302,51
226,10	1271,79
226,32	1288,17
226,53	1282,03
226,75	1279,98
226,97	1296,36
227,19	1292,27
227,41	1290,22
227,63	1327,08
227,85	1251,31
228,06	1308,65
228,28	1263,60
228,50	1298,41
228,72	1196,01
228,94	1310,70
229,16	1275,88
229,37	1239,02
229,59	1265,64
229,81	1286,12
230,03	1269,74
230,25	1253,36
230,47	1306,60
230,69	1277,93
230,90	1275,88
231,12	1228,78
231,34	1259,50
231,56	1331,18
231,78	1251,31
232,00	1306,60
232,21	1271,79
232,43	1232,88
232,65	1314,80
232,87	1271,79
233,09	1337,32
233,30	1304,56
233,52	1267,69
233,74	1279,98
233,96	1220,59
234,18	1304,56
234,40	1239,02
234,61	1343,47
234,83	1298,41
235,05	1288,17
235,27	1275,88
235,49	1241,07
235,70	1298,41
235,92	1284,08
236,14	1312,75
236,36	1273,84
236,58	1277,93
236,79	1351,66
237,01	1253,36
237,23	1267,69
237,45	1230,83
237,67	1216,49
237,88	1257,45
238,10	1224,69
238,32	1298,41
238,54	1271,79
238,76	1284,08
238,97	1279,98
239,19	1249,26
239,41	1241,07
239,63	1239,02
239,85	1296,36
240,06	1288,17
240,28	1273,84
240,50	1263,60
240,72	1267,69
240,93	1261,55
241,15	1241,07
241,37	1249,26
241,59	1226,73
241,81	1347,56
242,02	1214,45
242,24	1267,69
242,46	1263,60
242,68	1236,97
242,89	1255,40
243,11	1255,40
243,33	1257,45
243,55	1290,22
243,76	1284,08
243,98	1271,79
244,20	1306,60
244,42	1261,55
244,64	1241,07
244,85	1273,84
245,07	1257,45
245,29	1312,75
245,51	1228,78
245,72	1286,12
245,94	1279,98
246,16	1327,08
246,38	1277,93
246,59	1226,73
246,81	1273,84
247,03	1290,22
247,24	1253,36
247,46	1239,02
247,68	1269,74
247,90	1181,68
248,11	1257,45
248,33	1275,88
248,55	1341,42
248,77	1189,87
248,98	1298,41
249,20	1230,83
249,42	1304,56
249,64	1187,82
249,85	1263,60
250,07	1243,12
250,29	1247,21
250,50	1241,07
250,72	1257,45
250,94	1290,22
251,16	1239,02
251,37	1279,98
251,59	1245,16
251,81	1302,51
252,02	1320,94
252,24	1306,60
252,46	1343,47
252,68	1290,22
252,89	1259,50
253,11	1322,99
253,33	1273,84
253,54	1286,12
253,76	1273,84
253,98	1265,64
254,20	1232,88
254,41	1275,88
254,63	1275,88
254,85	1325,04
255,06	1316,84
255,28	1193,97
255,50	1302,51
255,71	1298,41
255,93	1304,56
256,15	1255,40
256,36	1329,13
256,58	1232,88
256,80	1218,54
257,02	1355,76
257,23	1247,21
257,45	1286,12
257,67	1273,84
257,88	1339,37
258,10	1214,45
258,32	1345,52
258,53	1226,73
258,75	1363,95
258,97	1265,64
259,18	1249,26
259,40	1273,84
259,62	1271,79
259,83	1286,12
260,05	1234,93
260,27	1263,60
260,48	1347,56
260,70	1288,17
260,92	1273,84
261,13	1310,70
261,35	1185,77
261,57	1232,88
261,78	1212,40
262,00	1294,32
262,22	1265,64
262,43	1318,89
262,65	1322,99
262,86	1269,74
263,08	1253,36
263,30	1249,26
263,51	1265,64
263,73	1265,64
263,95	1366,00
264,16	1302,51
264,38	1245,16
264,60	1226,73
264,81	1341,42
265,03	1327,08
265,25	1286,12
265,46	1322,99
265,68	1269,74
265,89	1230,83
266,11	1298,41
266,33	1245,16
266,54	1241,07
266,76	1288,17
266,98	1245,16
267,19	1288,17
267,41	1368,04
267,62	1271,79
267,84	1282,03
268,06	1331,18
268,27	1284,08
268,49	1232,88
268,70	1228,78
268,92	1245,16
269,14	1277,93
269,35	1279,98
269,57	1286,12
269,79	1208,30
270,00	1314,80
270,22	1300,46
270,43	1243,12
270,65	1251,31
270,87	1206,25
271,08	1275,88
271,30	1251,31
271,51	1345,52
271,73	1279,98
271,95	1329,13
272,16	1302,51
272,38	1255,40
272,59	1212,40
272,81	1312,75
273,02	1251,31
273,24	1218,54
273,46	1279,98
273,67	1290,22
273,89	1224,69
274,10	1322,99
274,32	1279,98
274,54	1271,79
274,75	1298,41
274,97	1265,64
275,18	1320,94
275,40	1325,04
275,61	1284,08
275,83	1251,31
276,05	1310,70
276,26	1245,16
276,48	1314,80
276,69	1265,64
276,91	1316,84
277,12	1363,95
277,34	1292,27
277,55	1312,75
277,77	1269,74
277,99	1318,89
278,20	1263,60
278,42	1259,50
278,63	1247,21
278,85	1325,04
279,06	1249,26
279,28	1277,93
279,49	1255,40
279,71	1312,75
279,93	1296,36
280,14	1341,42
280,36	1226,73
280,57	1294,32
280,79	1314,80
281,00	1245,16
281,22	1275,88
281,43	1331,18
281,65	1294,32
281,86	1183,73
282,08	1351,66
282,29	1339,37
282,51	1259,50
282,73	1275,88
282,94	1224,69
283,16	1341,42
283,37	1273,84
283,59	1288,17
283,80	1216,49
284,02	1269,74
284,23	1282,03
284,45	1249,26
284,66	1261,55
284,88	1265,64
285,09	1255,40
285,31	1239,02
285,52	1325,04
285,74	1286,12
285,95	1245,16
286,17	1261,55
286,38	1275,88
286,60	1325,04
286,81	1279,98
287,03	1228,78
287,24	1300,46
287,46	1236,97
287,67	1261,55
287,89	1298,41
288,10	1239,02
288,32	1279,98
288,53	1308,65
288,75	1255,40
288,96	1271,79
289,18	1239,02
289,39	1234,93
289,61	1288,17
289,82	1267,69
290,04	1279,98
290,25	1247,21
290,47	1253,36
290,68	1343,47
290,90	1251,31
291,11	1206,25
291,33	1298,41
291,54	1232,88
291,76	1275,88
291,97	1318,89
292,18	1173,49
292,40	1218,54
292,61	1351,66
292,83	1294,32
293,04	1277,93
293,26	1277,93
293,47	1312,75
293,69	1247,21
293,90	1298,41
294,12	1275,88
294,33	1269,74
294,55	1243,12
294,76	1312,75
294,97	1292,27
295,19	1249,26
295,40	1222,64
295,62	1259,50
295,83	1312,75
296,05	1220,59
296,26	1302,51
296,48	1236,97
296,69	1300,46
296,90	1290,22
297,12	1288,17
297,33	1249,26
297,55	1292,27
297,76	1261,55
297,98	1279,98
298,19	1218,54
298,41	1273,84
298,62	1306,60
298,83	1224,69
299,05	1261,55
299,26	1263,60
299,48	1253,36
299,69	1275,88
299,90	1279,98
300,12	1310,70
300,33	1222,64
300,55	1347,56
300,76	1302,51
300,98	1267,69
301,19	1247,21
301,40	1232,88
301,62	1269,74
301,83	1241,07
302,05	1333,23
302,26	1292,27
302,47	1294,32
302,69	1286,12
302,90	1314,80
303,12	1290,22
303,33	1196,01
303,54	1318,89
303,76	1249,26
303,97	1267,69
304,19	1290,22
304,40	1251,31
304,61	1243,12
304,83	1255,40
305,04	1316,84
305,26	1277,93
305,47	1292,27
305,68	1306,60
305,90	1255,40
306,11	1193,97
306,33	1255,40
306,54	1296,36
306,75	1255,40
306,97	1265,64
307,18	1349,61
307,39	1232,88
307,61	1298,41
307,82	1265,64
308,04	1234,93
308,25	1228,78
308,46	1267,69
308,68	1279,98
308,89	1312,75
309,10	1316,84
309,32	1302,51
309,53	1224,69
309,74	1312,75
309,96	1214,45
310,17	1337,32
310,39	1292,27
310,60	1300,46
310,81	1249,26
311,03	1284,08
311,24	1277,93
311,45	1263,60
311,67	1275,88
311,88	1271,79
312,09	1261,55
312,31	1273,84
312,52	1331,18
312,73	1288,17
312,95	1261,55
313,16	1234,93
313,37	1267,69
313,59	1239,02
313,80	1232,88
314,01	1271,79
314,23	1308,65
314,44	1357,80
314,65	1218,54
314,87	1320,94
315,08	1245,16
315,29	1255,40
315,51	1316,84
315,72	1247,21
315,93	1286,12
316,15	1298,41
316,36	1282,03
316,57	1279,98
316,79	1251,31
317,00	1232,88
317,21	1282,03
317,43	1294,32
317,64	1228,78
317,85	1284,08
318,07	1275,88
318,28	1277,93
318,49	1279,98
318,70	1204,21
318,92	1224,69
319,13	1327,08
319,34	1302,51
319,56	1320,94
319,77	1241,07
319,98	1275,88
320,20	1210,35
320,41	1261,55
320,62	1269,74
320,83	1275,88
321,05	1243,12
321,26	1327,08
321,47	1327,08
321,69	1198,06
321,90	1298,41
322,11	1251,31
322,32	1296,36
322,54	1212,40
322,75	1259,50
322,96	1269,74
323,18	1212,40
323,39	1255,40
323,60	1310,70
323,81	1398,76
324,03	1302,51
324,24	1286,12
324,45	1286,12
324,66	1282,03
324,88	1310,70
325,09	1294,32
325,30	1316,84
325,52	1288,17
325,73	1271,79
325,94	1228,78
326,15	1294,32
326,37	1290,22
326,58	1214,45
326,79	1290,22
327,00	1273,84
327,22	1304,56
327,43	1208,30
327,64	1259,50
327,85	1302,51
328,07	1290,22
328,28	1261,55
328,49	1304,56
328,70	1265,64
328,92	1312,75
329,13	1306,60
329,34	1271,79
329,55	1284,08
329,76	1331,18
329,98	1275,88
330,19	1290,22
330,40	1286,12
330,61	1273,84
330,83	1298,41
331,04	1220,59
331,25	1302,51
331,46	1265,64
331,68	1257,45
331,89	1359,85
332,10	1200,11
332,31	1247,21
332,52	1304,56
332,74	1257,45
332,95	1304,56
333,16	1316,84
333,37	1288,17
333,58	1234,93
333,80	1224,69
334,01	1279,98
334,22	1300,46
334,43	1275,88
334,64	1282,03
334,86	1271,79
335,07	1261,55
335,28	1249,26
335,49	1284,08
335,70	1314,80
335,92	1277,93
336,13	1259,50
336,34	1267,69
336,55	1341,42
336,76	1282,03
336,98	1224,69
337,19	1269,74
337,40	1325,04
337,61	1282,03
337,82	1325,04
338,04	1218,54
338,25	1196,01
338,46	1243,12
338,67	1247,21
338,88	1329,13
339,09	1290,22
339,31	1230,83
339,52	1302,51
339,73	1351,66
339,94	1245,16
340,15	1306,60
340,36	1243,12
340,58	1327,08
340,79	1277,93
341,00	1245,16
341,21	1282,03
341,42	1292,27
341,63	1220,59
341,85	1271,79
342,06	1218,54
342,27	1263,60
342,48	1292,27
342,69	1279,98
342,90	1273,84
343,12	1304,56
343,33	1298,41
343,54	1290,22
343,75	1232,88
343,96	1259,50
344,17	1220,59
344,38	1251,31
344,60	1302,51
344,81	1267,69
345,02	1302,51
345,23	1239,02
345,44	1269,74
345,65	1236,97
345,86	1271,79
346,07	1298,41
346,29	1316,84
346,50	1200,11
346,71	1325,04
346,92	1251,31
347,13	1325,04
347,34	1232,88
347,55	1255,40
347,76	1271,79
347,98	1314,80
348,19	1243,12
348,40	1300,46
348,61	1286,12
348,82	1261,55
349,03	1282,03
349,24	1318,89
349,45	1353,71
349,66	1230,83
349,88	1273,84
350,09	1181,68
350,30	1279,98
350,51	1279,98
350,72	1220,59
350,93	1282,03
351,14	1218,54
351,35	1302,51
351,56	1290,22
351,77	1251,31
351,99	1290,22
352,20	1288,17
352,41	1208,30
352,62	1286,12
352,83	1169,39
353,04	1294,32
353,25	1288,17
353,46	1288,17
353,67	1282,03
353,88	1189,87
354,09	1290,22
354,30	1284,08
354,52	1269,74
354,73	1310,70
354,94	1279,98
355,15	1292,27
355,36	1226,73
355,57	1265,64
355,78	1286,12
355,99	1329,13
356,20	1277,93
356,41	1239,02
356,62	1304,56
356,83	1228,78
357,04	1251,31
357,25	1333,23
357,46	1216,49
357,68	1331,18
357,89	1261,55
358,10	1275,88
358,31	1245,16
358,52	1234,93
358,73	1241,07
358,94	1298,41
359,15	1312,75
359,36	1306,60
359,57	1366,00
359,78	1312,75
359,99	1298,41
360,20	1286,12
360,41	1298,41
360,62	1314,80
360,83	1208,30
361,04	1290,22
361,25	1288,17
361,46	1216,49
361,67	1261,55
361,88	1249,26
362,09	1222,64
362,30	1243,12
362,51	1232,88
362,72	1314,80
362,93	1368,04
363,14	1249,26
363,35	1269,74
363,56	1370,09
363,78	1226,73
363,99	1302,51
364,20	1259,50
364,41	1216,49
364,62	1230,83
364,83	1286,12
365,04	1257,45
365,25	1355,76
365,46	1265,64
365,67	1263,60
365,88	1322,99
366,09	1200,11
366,30	1277,93
366,51	1253,36
366,72	1284,08
366,93	1239,02
367,14	1236,97
367,35	1259,50
367,56	1308,65
367,77	1265,64
367,98	1329,13
368,18	1300,46
368,39	1251,31
368,60	1191,92
368,81	1267,69
369,02	1165,29
369,23	1292,27
369,44	1273,84
369,65	1253,36
369,86	1345,52
370,07	1284,08
370,28	1230,83
370,49	1249,26
370,70	1294,32
370,91	1200,11
371,12	1218,54
371,33	1277,93
371,54	1208,30
371,75	1288,17
371,96	1257,45
372,17	1288,17
372,38	1241,07
372,59	1304,56
372,80	1232,88
373,01	1239,02
373,22	1314,80
373,43	1339,37
373,64	1243,12
373,85	1300,46
374,06	1222,64
374,26	1239,02
374,47	1325,04
374,68	1253,36
374,89	1261,55
375,10	1208,30
375,31	1261,55
375,52	1249,26
375,73	1267,69
375,94	1271,79
376,15	1290,22
376,36	1265,64
376,57	1277,93
376,78	1269,74
376,99	1271,79
377,20	1265,64
377,40	1269,74
377,61	1290,22
377,82	1191,92
378,03	1241,07
378,24	1286,12
378,45	1282,03
378,66	1318,89
378,87	1259,50
379,08	1236,97
379,29	1275,88
379,50	1208,30
379,71	1208,30
379,91	1226,73
380,12	1355,76
380,33	1329,13
380,54	1302,51
380,75	1318,89
380,96	1286,12
381,17	1306,60
381,38	1222,64
381,59	1294,32
381,80	1370,09
382,00	1251,31
382,21	1298,41
382,42	1327,08
382,63	1294,32
382,84	1245,16
383,05	1308,65
383,26	1372,14
383,47	1251,31
383,68	1269,74
383,88	1204,21
384,09	1267,69
384,30	1243,12
384,51	1261,55
384,72	1304,56
384,93	1263,60
385,14	1263,60
385,35	1316,84
385,55	1261,55
385,76	1279,98
385,97	1232,88
386,18	1284,08
386,39	1290,22
386,60	1306,60
386,81	1200,11
387,02	1335,28
387,22	1290,22
387,43	1306,60
387,64	1267,69
387,85	1230,83
388,06	1308,65
388,27	1253,36
388,48	1304,56
388,68	1279,98
388,89	1255,40
389,10	1200,11
389,31	1351,66
389,52	1273,84
389,73	1308,65
389,93	1318,89
390,14	1159,15
390,35	1292,27
390,56	1304,56
390,77	1212,40
390,98	1241,07
391,18	1279,98
391,39	1259,50
391,60	1230,83
391,81	1271,79
392,02	1257,45
392,23	1216,49
392,43	1343,47
392,64	1296,36
392,85	1277,93
393,06	1245,16
393,27	1308,65
393,47	1388,52
393,68	1282,03
393,89	1245,16
394,10	1296,36
394,31	1279,98
394,52	1279,98
394,72	1298,41
394,93	1220,59
395,14	1273,84
395,35	1333,23
395,56	1265,64
395,76	1185,77
395,97	1316,84
396,18	1198,06
396,39	1243,12
396,60	1286,12
396,80	1300,46
397,01	1273,84
397,22	1226,73
397,43	1302,51
397,64	1261,55
397,84	1366,00
398,05	1335,28
398,26	1325,04
398,47	1275,88
398,67	1257,45
398,88	1206,25
399,09	1351,66
399,30	1226,73
399,51	1322,99
399,71	1253,36
399,92	1292,27
400,13	1298,41
400,34	1212,40
400,54	1249,26
400,75	1294,32
400,96	1245,16
401,17	1230,83
401,37	1282,03
401,58	1245,16
401,79	1318,89
402,00	1181,68
402,21	1320,94
402,41	1247,21
402,62	1239,02
402,83	1339,37
403,04	1257,45
403,24	1325,04
403,45	1234,93
403,66	1232,88
403,87	1257,45
404,07	1306,60
404,28	1308,65
404,49	1214,45
404,70	1273,84
404,90	1167,34
405,11	1341,42
405,32	1220,59
405,52	1259,50
405,73	1310,70
405,94	1247,21
406,15	1306,60
406,35	1298,41
406,56	1306,60
406,77	1214,45
406,98	1249,26
407,18	1279,98
407,39	1210,35
407,60	1329,13
407,80	1296,36
408,01	1261,55
408,22	1376,24
408,43	1302,51
408,63	1282,03
408,84	1173,49
409,05	1241,07
409,25	1312,75
409,46	1214,45
409,67	1267,69
409,88	1218,54
410,08	1304,56
410,29	1247,21
410,50	1206,25
410,70	1306,60
410,91	1259,50
411,12	1320,94
411,32	1310,70
411,53	1288,17
411,74	1269,74
411,95	1284,08
412,15	1300,46
412,36	1253,36
412,57	1310,70
412,77	1232,88
412,98	1355,76
413,19	1302,51
413,39	1294,32
413,60	1275,88
413,81	1282,03
414,01	1271,79
414,22	1236,97
414,43	1308,65
414,63	1212,40
414,84	1261,55
415,05	1177,58
415,25	1232,88
415,46	1247,21
415,67	1361,90
415,87	1312,75
416,08	1241,07
416,29	1226,73
416,49	1290,22
416,70	1267,69
416,91	1216,49
417,11	1271,79
417,32	1333,23
417,53	1247,21
417,73	1322,99
417,94	1206,25
418,15	1282,03
418,35	1288,17
418,56	1300,46
418,77	1284,08
418,97	1239,02
419,18	1290,22
419,38	1249,26
419,59	1236,97
419,80	1298,41
420,00	1277,93
420,21	1273,84
420,42	1230,83
420,62	1316,84
420,83	1335,28
421,04	1294,32
421,24	1220,59
421,45	1204,21
421,65	1232,88
421,86	1333,23
422,07	1247,21
422,27	1314,80
422,48	1318,89
422,69	1290,22
422,89	1279,98
423,10	1302,51
423,30	1273,84
423,51	1269,74
423,72	1163,25
423,92	1265,64
424,13	1249,26
424,33	1245,16
424,54	1226,73
424,75	1187,82
424,95	1300,46
425,16	1290,22
425,36	1239,02
425,57	1306,60
425,78	1314,80
425,98	1241,07
426,19	1318,89
426,39	1273,84
426,60	1306,60
426,81	1290,22
427,01	1269,74
427,22	1271,79
427,42	1251,31
427,63	1275,88
427,83	1245,16
428,04	1284,08
428,25	1314,80
428,45	1380,33
428,66	1314,80
428,86	1234,93
429,07	1271,79
429,28	1294,32
429,48	1308,65
429,69	1265,64
429,89	1320,94
430,10	1271,79
430,30	1288,17
430,51	1189,87
430,71	1329,13
430,92	1290,22
431,13	1253,36
431,33	1249,26
431,54	1265,64
431,74	1292,27
431,95	1304,56
432,15	1232,88
432,36	1341,42
432,56	1245,16
432,77	1337,32
432,98	1255,40
433,18	1206,25
433,39	1298,41
433,59	1269,74
433,80	1275,88
434,00	1216,49
434,21	1212,40
434,41	1296,36
434,62	1247,21
434,82	1310,70
435,03	1308,65
435,23	1226,73
435,44	1314,80
435,64	1271,79
435,85	1214,45
436,06	1322,99
436,26	1325,04
436,47	1179,63
436,67	1308,65
436,88	1222,64
437,08	1310,70
437,29	1255,40
437,49	1204,21
437,70	1288,17
437,90	1216,49
438,11	1267,69
438,31	1306,60
438,52	1294,32
438,72	1304,56
438,93	1279,98
439,13	1257,45
439,34	1267,69
439,54	1230,83
439,75	1343,47
439,95	1277,93
440,16	1329,13
440,36	1232,88
440,57	1245,16
440,77	1302,51
440,98	1243,12
441,18	1251,31
441,39	1288,17
441,59	1241,07
441,80	1335,28
442,00	1282,03
442,21	1312,75
442,41	1279,98
442,62	1243,12
442,82	1249,26
443,02	1359,85
443,23	1335,28
443,43	1261,55
443,64	1282,03
443,84	1253,36
444,05	1302,51
444,25	1249,26
444,46	1310,70
444,66	1296,36
444,87	1198,06
445,07	1245,16
445,28	1288,17
445,48	1413,10
445,69	1282,03
445,89	1236,97
446,09	1290,22
446,30	1230,83
446,50	1325,04
446,71	1310,70
446,91	1273,84
447,12	1296,36
447,32	1247,21
447,53	1316,84
447,73	1253,36
447,93	1271,79
448,14	1284,08
448,34	1241,07
448,55	1257,45
448,75	1269,74
448,96	1239,02
449,16	1314,80
449,36	1372,14
449,57	1265,64
449,77	1288,17
449,98	1304,56
450,18	1316,84
450,39	1253,36
450,59	1327,08
450,79	1296,36
451,00	1292,27
451,20	1245,16
451,41	1282,03
451,61	1314,80
451,81	1265,64
452,02	1206,25
452,22	1257,45
452,43	1251,31
452,63	1290,22
452,84	1259,50
453,04	1271,79
453,24	1269,74
453,45	1282,03
453,65	1263,60
453,86	1320,94
454,06	1282,03
454,26	1206,25
454,47	1288,17
454,67	1347,56
454,87	1286,12
455,08	1288,17
455,28	1212,40
455,49	1230,83
455,69	1245,16
455,89	1279,98
456,10	1292,27
456,30	1265,64
456,51	1261,55
456,71	1245,16
456,91	1345,52
457,12	1304,56
457,32	1257,45
457,52	1257,45
457,73	1363,95
457,93	1245,16
458,14	1251,31
458,34	1279,98
458,54	1275,88
458,75	1300,46
458,95	1265,64
459,15	1236,97
459,36	1257,45
459,56	1271,79
459,76	1290,22
459,97	1277,93
460,17	1308,65
460,37	1275,88
460,58	1275,88
460,78	1247,21
460,99	1318,89
461,19	1288,17
461,39	1255,40
461,60	1259,50
461,80	1284,08
462,00	1261,55
462,21	1302,51
462,41	1273,84
462,61	1273,84
462,82	1257,45
463,02	1331,18
463,22	1247,21
463,43	1257,45
463,63	1232,88
463,83	1298,41
464,04	1214,45
464,24	1236,97
464,44	1243,12
464,64	1282,03
464,85	1396,71
465,05	1292,27
465,25	1234,93
465,46	1300,46
465,66	1216,49
465,86	1220,59
466,07	1241,07
466,27	1267,69
466,47	1290,22
466,68	1232,88
466,88	1320,94
467,08	1218,54
467,29	1288,17
467,49	1306,60
467,69	1263,60
467,89	1294,32
468,10	1245,16
468,30	1253,36
468,50	1273,84
468,71	1255,40
468,91	1351,66
469,11	1216,49
469,31	1306,60
469,52	1279,98
469,72	1341,42
469,92	1241,07
470,13	1236,97
470,33	1220,59
470,53	1296,36
470,73	1290,22
470,94	1296,36
471,14	1220,59
471,34	1318,89
471,54	1269,74
471,75	1253,36
471,95	1257,45
472,15	1263,60
472,36	1314,80
472,56	1236,97
472,76	1204,21
472,96	1204,21
473,17	1308,65
473,37	1302,51
473,57	1263,60
473,77	1257,45
473,98	1269,74
474,18	1198,06
474,38	1306,60
474,58	1261,55
474,79	1257,45
474,99	1279,98
475,19	1290,22
475,39	1261,55
475,60	1282,03
475,80	1222,64
476,00	1265,64
476,20	1224,69
476,41	1189,87
476,61	1261,55
476,81	1267,69
477,01	1265,64
477,21	1312,75
477,42	1249,26
477,62	1282,03
477,82	1243,12
478,02	1318,89
478,23	1269,74
478,43	1290,22
478,63	1292,27
478,83	1245,16
479,03	1271,79
479,24	1308,65
479,44	1232,88
479,64	1322,99
479,84	1284,08
480,04	1314,80
480,25	1306,60
480,45	1292,27
480,65	1263,60
480,85	1232,88
481,06	1239,02
481,26	1226,73
481,46	1320,94
481,66	1286,12
481,86	1202,16
482,06	1228,78
482,27	1298,41
482,47	1279,98
482,67	1310,70
482,87	1310,70
483,07	1226,73
483,28	1241,07
483,48	1290,22
483,68	1271,79
483,88	1310,70
484,08	1271,79
484,29	1284,08
484,49	1245,16
484,69	1200,11
484,89	1245,16
485,09	1265,64
485,29	1247,21
485,50	1234,93
485,70	1306,60
485,90	1232,88
486,10	1273,84
486,30	1294,32
486,50	1255,40
486,71	1329,13
486,91	1261,55
487,11	1265,64
487,31	1202,16
487,51	1249,26
487,71	1241,07
487,91	1222,64
488,12	1347,56
488,32	1310,70
488,52	1296,36
488,72	1253,36
488,92	1310,70
489,12	1265,64
489,32	1255,40
489,53	1243,12
489,73	1322,99
489,93	1345,52
490,13	1263,60
490,33	1333,23
490,53	1253,36
490,73	1288,17
490,94	1306,60
491,14	1314,80
491,34	1286,12
491,54	1247,21
491,74	1333,23
491,94	1212,40
492,14	1232,88
492,34	1263,60
492,54	1279,98
492,75	1230,83
492,95	1255,40
493,15	1241,07
493,35	1218,54
493,55	1265,64
493,75	1304,56
493,95	1314,80
494,15	1243,12
494,35	1294,32
494,56	1312,75
494,76	1226,73
494,96	1320,94
495,16	1327,08
495,36	1296,36
495,56	1247,21
495,76	1294,32
495,96	1273,84
496,16	1316,84
496,36	1339,37
496,56	1247,21
496,77	1294,32
496,97	1288,17
497,17	1296,36
497,37	1271,79
497,57	1296,36
497,77	1288,17
497,97	1296,36
498,17	1263,60
498,37	1279,98
498,57	1292,27
498,77	1282,03
498,97	1282,03
499,17	1214,45
499,38	1294,32
499,58	1294,32
499,78	1288,17
499,98	1232,88
500,18	1245,16
500,38	1310,70
500,58	1304,56
500,78	1290,22
500,98	1206,25
501,18	1292,27
501,38	1294,32
501,58	1275,88
501,78	1218,54
501,98	1314,80
502,18	1396,71
502,38	1343,47
502,58	1296,36
502,78	1302,51
502,98	1232,88
503,18	1306,60
503,38	1265,64
503,59	1273,84
503,79	1310,70
503,99	1198,06
504,19	1232,88
504,39	1279,98
504,59	1257,45
504,79	1357,80
504,99	1284,08
505,19	1292,27
505,39	1265,64
505,59	1292,27
505,79	1247,21
505,99	1343,47
506,19	1273,84
506,39	1218,54
506,59	1282,03
506,79	1249,26
506,99	1341,42
507,19	1306,60
507,39	1230,83
507,59	1275,88
507,79	1236,97
507,99	1243,12
508,19	1290,22
508,39	1241,07
508,59	1300,46
508,79	1245,16
508,99	1216,49
509,19	1269,74
509,39	1185,77
509,59	1312,75
509,79	1351,66
509,99	1273,84
510,19	1253,36
510,39	1253,36
510,59	1167,34
510,79	1245,16
510,99	1341,42
511,19	1312,75
511,39	1290,22
511,59	1267,69
511,79	1325,04
511,99	1286,12
512,19	1284,08
512,38	1312,75
512,58	1179,63
512,78	1230,83
512,98	1257,45
513,18	1306,60
513,38	1312,75
513,58	1320,94
513,78	1282,03
513,98	1331,18
514,18	1329,13
514,38	1288,17
514,58	1265,64
514,78	1314,80
514,98	1263,60
515,18	1253,36
515,38	1265,64
515,58	1318,89
515,78	1239,02
515,98	1261,55
516,18	1322,99
516,38	1277,93
516,57	1304,56
516,77	1263,60
516,97	1239,02
517,17	1187,82
517,37	1277,93
517,57	1298,41
517,77	1314,80
517,97	1245,16
518,17	1314,80
518,37	1247,21
518,57	1224,69
518,77	1236,97
518,97	1253,36
519,16	1282,03
519,36	1255,40
519,56	1232,88
519,76	1271,79
519,96	1267,69
520,16	1267,69
520,36	1337,32
520,56	1288,17
520,76	1279,98
520,96	1208,30
521,16	1298,41
521,35	1273,84
521,55	1275,88
521,75	1249,26
521,95	1267,69
522,15	1288,17
522,35	1228,78
522,55	1234,93
522,75	1331,18
522,95	1259,50
523,14	1300,46
523,34	1327,08
523,54	1265,64
523,74	1302,51
523,94	1230,83
524,14	1296,36
524,34	1261,55
524,54	1275,88
524,73	1230,83
524,93	1316,84
525,13	1286,12
525,33	1257,45
525,53	1247,21
525,73	1187,82
525,93	1333,23
526,13	1282,03
526,32	1312,75
526,52	1329,13
526,72	1247,21
526,92	1341,42
527,12	1284,08
527,32	1273,84
527,52	1282,03
527,71	1253,36
527,91	1320,94
528,11	1196,01
528,31	1206,25
528,51	1267,69
528,71	1322,99
528,90	1263,60
529,10	1308,65
529,30	1296,36
529,50	1292,27
529,70	1273,84
529,90	1275,88
530,09	1273,84
530,29	1286,12
530,49	1236,97
530,69	1312,75
530,89	1185,77
531,09	1290,22
531,28	1267,69
531,48	1232,88
531,68	1226,73
531,88	1300,46
532,08	1251,31
532,28	1259,50
532,47	1275,88
532,67	1298,41
532,87	1339,37
533,07	1376,24
533,27	1236,97
533,46	1345,52
533,66	1259,50
533,86	1181,68
534,06	1251,31
534,26	1261,55
534,45	1290,22
534,65	1294,32
534,85	1277,93
535,05	1198,06
535,25	1241,07
535,44	1292,27
535,64	1277,93
535,84	1249,26
536,04	1312,75
536,24	1304,56
536,43	1282,03
536,63	1343,47
536,83	1230,83
537,03	1236,97
537,22	1253,36
537,42	1320,94
537,62	1310,70
537,82	1322,99
538,02	1263,60
538,21	1259,50
538,41	1312,75
538,61	1265,64
538,81	1265,64
539,00	1310,70
539,20	1318,89
539,40	1218,54
539,60	1243,12
539,79	1284,08
539,99	1232,88
540,19	1320,94
540,39	1292,27
540,58	1320,94
540,78	1241,07
540,98	1286,12
541,18	1294,32
541,37	1286,12
541,57	1279,98
541,77	1208,30
541,97	1341,42
542,16	1193,97
542,36	1255,40
542,56	1228,78
542,76	1247,21
542,95	1316,84
543,15	1224,69
543,35	1370,09
543,54	1247,21
543,74	1249,26
543,94	1286,12
544,14	1273,84
544,33	1253,36
544,53	1253,36
544,73	1249,26
544,93	1212,40
545,12	1245,16
545,32	1234,93
545,52	1290,22
545,71	1271,79
545,91	1241,07
546,11	1331,18
546,30	1247,21
546,50	1304,56
546,70	1259,50
546,90	1253,36
547,09	1284,08
547,29	1239,02
547,49	1277,93
547,68	1298,41
547,88	1245,16
548,08	1236,97
548,27	1349,61
548,47	1241,07
548,67	1214,45
548,87	1300,46
549,06	1265,64
549,26	1241,07
549,46	1279,98
549,65	1222,64
549,85	1220,59
550,05	1269,74
550,24	1251,31
550,44	1271,79
550,64	1320,94
550,83	1290,22
551,03	1320,94
551,23	1333,23
551,42	1208,30
551,62	1302,51
551,82	1228,78
552,01	1226,73
552,21	1257,45
552,41	1294,32
552,60	1286,12
552,80	1181,68
553,00	1298,41
553,19	1269,74
553,39	1253,36
553,59	1224,69
553,78	1220,59
553,98	1298,41
554,17	1331,18
554,37	1253,36
554,57	1249,26
554,76	1312,75
554,96	1236,97
555,16	1322,99
555,35	1269,74
555,55	1312,75
555,75	1206,25
555,94	1277,93
556,14	1234,93
556,33	1261,55
556,53	1331,18
556,73	1282,03
556,92	1241,07
557,12	1331,18
557,32	1284,08
557,51	1232,88
557,71	1290,22
557,90	1337,32
558,10	1286,12
558,30	1167,34
558,49	1249,26
558,69	1222,64
558,88	1269,74
559,08	1273,84
559,28	1286,12
559,47	1290,22
559,67	1322,99
559,86	1312,75
560,06	1347,56
560,26	1345,52
560,45	1234,93
560,65	1257,45
560,84	1232,88
561,04	1234,93
561,24	1243,12
561,43	1282,03
561,63	1222,64
561,82	1253,36
562,02	1294,32
562,22	1314,80
562,41	1271,79
562,61	1282,03
562,80	1286,12
563,00	1269,74
563,19	1273,84
563,39	1312,75
563,59	1232,88
563,78	1329,13
563,98	1261,55
564,17	1226,73
564,37	1325,04
564,56	1257,45
564,76	1257,45
564,96	1263,60
565,15	1275,88
565,35	1263,60
565,54	1263,60
565,74	1329,13
565,93	1273,84
566,13	1294,32
566,32	1292,27
566,52	1318,89
566,71	1218,54
566,91	1273,84
567,11	1322,99
567,30	1304,56
567,50	1273,84
567,69	1286,12
567,89	1327,08
568,08	1271,79
568,28	1284,08
568,47	1239,02
568,67	1245,16
568,86	1239,02
569,06	1247,21
569,25	1214,45
569,45	1230,83
569,64	1284,08
569,84	1269,74
570,04	1292,27
570,23	1282,03
570,43	1292,27
570,62	1249,26
570,82	1294,32
571,01	1316,84
571,21	1277,93
571,40	1351,66
571,60	1212,40
571,79	1306,60
571,99	1292,27
572,18	1327,08
572,38	1275,88
572,57	1286,12
572,77	1277,93
572,96	1230,83
573,16	1200,11
573,35	1316,84
573,55	1294,32
573,74	1366,00
573,94	1263,60
574,13	1320,94
574,33	1298,41
574,52	1296,36
574,71	1253,36
574,91	1226,73
575,10	1314,80
575,30	1265,64
575,49	1273,84
575,69	1202,16
575,88	1318,89
576,08	1247,21
576,27	1273,84
576,47	1286,12
576,66	1273,84
576,86	1253,36
577,05	1279,98
577,25	1302,51
577,44	1325,04
577,64	1269,74
577,83	1267,69
578,02	1318,89
578,22	1255,40
578,41	1275,88
578,61	1228,78
578,80	1310,70
579,00	1320,94
579,19	1343,47
579,39	1318,89
579,58	1251,31
579,77	1228,78
579,97	1331,18
580,16	1279,98
580,36	1241,07
580,55	1210,35
580,75	1257,45
580,94	1296,36
581,13	1275,88
581,33	1208,30
581,52	1271,79
581,72	1267,69
581,91	1282,03
582,11	1251,31
582,30	1241,07
582,49	1286,12
582,69	1302,51
582,88	1275,88
583,08	1300,46
583,27	1273,84
583,47	1265,64
583,66	1267,69
583,85	1257,45
584,05	1331,18
584,24	1351,66
584,44	1247,21
584,63	1247,21
584,82	1273,84
585,02	1216,49
585,21	1214,45
585,41	1329,13
585,60	1212,40
585,79	1277,93
585,99	1247,21
586,18	1216,49
586,37	1253,36
586,57	1181,68
586,76	1300,46
586,96	1277,93
587,15	1236,97
587,34	1206,25
587,54	1302,51
587,73	1210,35
587,93	1247,21
588,12	1265,64
588,31	1282,03
588,51	1261,55
588,70	1353,71
588,89	1325,04
589,09	1286,12
589,28	1337,32
589,47	1306,60
589,67	1294,32
589,86	1245,16
590,06	1265,64
590,25	1288,17
590,44	1277,93
590,64	1269,74
590,83	1159,15
591,02	1306,60
591,22	1320,94
591,41	1304,56
591,60	1253,36
591,80	1257,45
591,99	1290,22
592,18	1286,12
592,38	1310,70
592,57	1253,36
592,76	1230,83
592,96	1189,87
593,15	1351,66
593,34	1249,26
593,54	1245,16
593,73	1241,07
593,92	1273,84
594,12	1286,12
594,31	1241,07
594,50	1224,69
594,70	1310,70
594,89	1282,03
595,08	1282,03
595,28	1349,61
595,47	1253,36
595,66	1247,21
595,86	1234,93
596,05	1286,12
596,24	1292,27
596,43	1308,65
596,63	1290,22
596,82	1288,17
597,01	1286,12
597,21	1302,51
597,40	1292,27
597,59	1339,37
597,79	1308,65
597,98	1255,40
598,17	1239,02
598,36	1251,31
598,56	1265,64
598,75	1247,21
598,94	1310,70
599,14	1277,93
599,33	1275,88
599,52	1298,41
599,71	1284,08
599,91	1294,32
600,10	1241,07
600,29	1273,84
600,48	1275,88
600,68	1243,12
600,87	1249,26
601,06	1277,93
601,26	1243,12
601,45	1255,40
601,64	1284,08
601,83	1228,78
602,03	1204,21
602,22	1298,41
602,41	1245,16
602,60	1241,07
602,80	1308,65
602,99	1282,03
603,18	1236,97
603,37	1279,98
603,57	1282,03
603,76	1253,36
603,95	1300,46
604,14	1224,69
604,34	1353,71
604,53	1327,08
604,72	1214,45
604,91	1236,97
605,10	1245,16
605,30	1290,22
605,49	1216,49
605,68	1279,98
605,87	1249,26
606,07	1220,59
606,26	1228,78
606,45	1290,22
606,64	1226,73
606,84	1255,40
607,03	1255,40
607,22	1236,97
607,41	1220,59
607,60	1271,79
607,80	1308,65
607,99	1329,13
608,18	1312,75
608,37	1259,50
608,56	1292,27
608,76	1327,08
608,95	1279,98
609,14	1325,04
609,33	1312,75
609,52	1302,51
609,72	1267,69
609,91	1251,31
610,10	1202,16
610,29	1257,45
610,48	1241,07
610,68	1314,80
610,87	1253,36
611,06	1310,70
611,25	1327,08
611,44	1255,40
611,63	1249,26
611,83	1265,64
612,02	1193,97
612,21	1230,83
612,40	1269,74
612,59	1320,94
612,79	1298,41
612,98	1320,94
613,17	1290,22
613,36	1253,36
613,55	1310,70
613,74	1261,55
613,93	1224,69
614,13	1224,69
614,32	1296,36
614,51	1316,84
614,70	1230,83
614,89	1376,24
615,08	1224,69
615,28	1265,64
615,47	1339,37
615,66	1329,13
615,85	1265,64
616,04	1320,94
616,23	1236,97
616,42	1306,60
616,62	1212,40
616,81	1236,97
617,00	1243,12
617,19	1261,55
617,38	1222,64
617,57	1277,93
617,76	1327,08
617,95	1279,98
618,15	1284,08
618,34	1236,97
618,53	1234,93
618,72	1282,03
618,91	1232,88
619,10	1331,18
619,29	1343,47
619,48	1232,88
619,68	1275,88
619,87	1288,17
620,06	1318,89
620,25	1286,12
620,44	1290,22
620,63	1269,74
620,82	1331,18
621,01	1290,22
621,20	1222,64
621,39	1306,60
621,59	1345,52
621,78	1286,12
621,97	1294,32
622,16	1292,27
622,35	1212,40
622,54	1312,75
622,73	1322,99
622,92	1290,22
623,11	1259,50
623,30	1282,03
623,49	1247,21
623,68	1312,75
623,88	1327,08
624,07	1247,21
624,26	1302,51
624,45	1253,36
624,64	1257,45
624,83	1273,84
625,02	1239,02
625,21	1298,41
625,40	1286,12
625,59	1312,75
625,78	1388,52
625,97	1273,84
626,16	1298,41
626,35	1355,76
626,54	1269,74
626,74	1296,36
626,93	1300,46
627,12	1241,07
627,31	1325,04
627,50	1224,69
627,69	1198,06
627,88	1284,08
628,07	1179,63
628,26	1216,49
628,45	1322,99
628,64	1259,50
628,83	1259,50
629,02	1361,90
629,21	1310,70
629,40	1241,07
629,59	1269,74
629,78	1214,45
629,97	1312,75
630,16	1294,32
630,35	1320,94
630,54	1292,27
630,73	1267,69
630,92	1294,32
631,11	1216,49
631,30	1372,14
631,49	1320,94
631,68	1454,06
631,87	2205,66
632,06	5160,88
632,25	5111,73
632,44	8048,52
632,63	11552,59
632,82	16842,50
633,01	38262,20
633,20	62952,51
633,39	64734,24
633,58	45993,28
633,77	25015,94
633,96	12033,86
634,15	7305,10
634,34	5990,31
634,53	4536,25
634,72	3030,99
634,91	2332,64
635,10	2486,23
635,29	2269,15
635,48	2213,85
635,67	2070,50
635,86	1880,04
636,05	1753,06
636,24	1736,68
636,43	1687,53
636,62	1642,47
636,81	1556,46
637,00	1540,07
637,19	1468,39
637,38	1484,78
637,57	1464,30
637,76	1380,33
637,95	1396,71
638,14	1372,14
638,33	1361,90
638,52	1304,56
638,71	1320,94
638,89	1273,84
639,08	1370,09
639,27	1331,18
639,46	1300,46
639,65	1224,69
639,84	1277,93
640,03	1267,69
640,22	1269,74
640,41	1282,03
640,60	1220,59
640,79	1298,41
640,98	1314,80
641,17	1288,17
641,36	1206,25
641,55	1316,84
641,74	1286,12
641,92	1236,97
642,11	1277,93
642,30	1282,03
642,49	1284,08
642,68	1249,26
642,87	1331,18
643,06	1239,02
643,25	1239,02
643,44	1277,93
643,63	1290,22
643,82	1251,31
644,00	1318,89
644,19	1249,26
644,38	1304,56
644,57	1277,93
644,76	1292,27
644,95	1318,89
645,14	1273,84
645,33	1294,32
645,52	1345,52
645,71	1257,45
645,89	1247,21
646,08	1247,21
646,27	1249,26
646,46	1325,04
646,65	1239,02
646,84	1255,40
647,03	1236,97
647,22	1337,32
647,40	1273,84
647,59	1265,64
647,78	1300,46
647,97	1273,84
648,16	1316,84
648,35	1282,03
648,54	1312,75
648,73	1320,94
648,91	1232,88
649,10	1259,50
649,29	1310,70
649,48	1310,70
649,67	1296,36
649,86	1243,12
650,05	1257,45
650,23	1331,18
650,42	1298,41
650,61	1286,12
650,80	1327,08
650,99	1312,75
651,18	1220,59
651,36	1255,40
651,55	1232,88
651,74	1263,60
651,93	1214,45
652,12	1196,01
652,31	1279,98
652,49	1267,69
652,68	1269,74
652,87	1298,41
653,06	1243,12
653,25	1267,69
653,44	1257,45
653,62	1345,52
653,81	1253,36
654,00	1294,32
654,19	1275,88
654,38	1308,65
654,56	1249,26
654,75	1241,07
654,94	1193,97
655,13	1288,17
655,32	1331,18
655,51	1282,03
655,69	1290,22
655,88	1253,36
656,07	1257,45
656,26	1269,74
656,45	1327,08
656,63	1292,27
656,82	1261,55
657,01	1284,08
657,20	1312,75
657,38	1257,45
657,57	1275,88
657,76	1318,89
657,95	1296,36
658,14	1234,93
658,32	1234,93
658,51	1318,89
658,70	1306,60
658,89	1310,70
659,08	1294,32
659,26	1312,75
659,45	1263,60
659,64	1185,77
659,83	1275,88
660,01	1277,93
660,20	1310,70
660,39	1247,21
660,58	1294,32
660,76	1339,37
660,95	1208,30
661,14	1241,07
661,33	1228,78
661,51	1284,08
661,70	1290,22
661,89	1245,16
662,08	1251,31
662,26	1312,75
662,45	1284,08
662,64	1355,76
662,83	1224,69
663,01	1294,32
663,20	1310,70
663,39	1259,50
663,58	1286,12
663,76	1253,36
663,95	1292,27
664,14	1243,12
664,32	1273,84
664,51	1222,64
664,70	1265,64
664,89	1253,36
665,07	1226,73
665,26	1296,36
665,45	1220,59
665,64	1232,88
665,82	1322,99
666,01	1263,60
666,20	1222,64
666,38	1247,21
666,57	1277,93
666,76	1353,71
666,95	1267,69
667,13	1288,17
667,32	1359,85
667,51	1302,51
667,69	1337,32
667,88	1269,74
668,07	1241,07
668,25	1282,03
668,44	1224,69
668,63	1314,80
668,81	1267,69
669,00	1282,03
669,19	1312,75
669,38	1351,66
669,56	1236,97
669,75	1245,16
669,94	1277,93
670,12	1261,55
670,31	1267,69
670,50	1312,75
670,68	1257,45
670,87	1236,97
671,06	1228,78
671,24	1349,61
671,43	1245,16
671,62	1333,23
671,80	1241,07
671,99	1267,69
672,18	1167,34
672,36	1290,22
672,55	1273,84
672,74	1273,84
672,92	1230,83
673,11	1241,07
673,29	1275,88
673,48	1241,07
673,67	1261,55
673,85	1228,78
674,04	1232,88
674,23	1275,88
674,41	1263,60
674,60	1322,99
674,79	1257,45
674,97	1279,98
675,16	1279,98
675,34	1263,60
675,53	1239,02
675,72	1241,07
675,90	1232,88
676,09	1271,79
676,28	1300,46
676,46	1261,55
676,65	1290,22
676,83	1189,87
677,02	1239,02
677,21	1329,13
677,39	1245,16
677,58	1294,32
677,77	1304,56
677,95	1265,64
678,14	1261,55
678,32	1198,06
678,51	1173,49
678,70	1232,88
678,88	1339,37
679,07	1239,02
679,25	1271,79
679,44	1255,40
679,63	1226,73
679,81	1204,21
680,00	1325,04
680,18	1322,99
680,37	1329,13
680,55	1228,78
680,74	1253,36
680,93	1247,21
681,11	1153,01
681,30	1208,30
681,48	1320,94
681,67	1259,50
681,85	1234,93
682,04	1241,07
682,23	1255,40
682,41	1271,79
682,60	1290,22
682,78	1239,02
682,97	1273,84
683,15	1241,07
683,34	1239,02
683,53	1277,93
683,71	1349,61
683,90	1302,51
684,08	1259,50
684,27	1247,21
684,45	1200,11
684,64	1269,74
684,82	1277,93
685,01	1222,64
685,19	1279,98
685,38	1322,99
685,57	1292,27
685,75	1259,50
685,94	1193,97
686,12	1249,26
686,31	1286,12
686,49	1294,32
686,68	1288,17
686,86	1306,60
687,05	1298,41
687,23	1220,59
687,42	1230,83
687,60	1191,92
687,79	1304,56
687,97	1275,88
688,16	1277,93
688,34	1218,54
688,53	1214,45
688,71	1247,21
688,90	1236,97
689,08	1304,56
689,27	1290,22
689,45	1314,80
689,64	1224,69
689,82	1271,79
690,01	1261,55
690,19	1220,59
690,38	1286,12
690,56	1322,99
690,75	1236,97
690,93	1325,04
691,12	1269,74
691,30	1298,41
691,49	1214,45
691,67	1249,26
691,86	1243,12
692,04	1263,60
692,23	1288,17
692,41	1325,04
692,60	1286,12
692,78	1234,93
692,97	1277,93
693,15	1236,97
693,34	1218,54
693,52	1339,37
693,71	1245,16
693,89	1247,21
694,08	1245,16
694,26	1286,12
694,44	1296,36
694,63	1261,55
694,81	1245,16
695,00	1347,56
695,18	1322,99
695,37	1355,76
695,55	1249,26
695,74	1245,16
695,92	1206,25
696,10	1228,78
696,29	1261,55
696,47	1236,97
696,66	1314,80
696,84	1261,55
697,03	1284,08
697,21	1296,36
697,40	1243,12
697,58	1298,41
697,76	1273,84
697,95	1353,71
698,13	1304,56
698,32	1294,32
698,50	1314,80
698,68	1349,61
698,87	1316,84
699,05	1325,04
699,24	1253,36
699,42	1290,22
699,61	1308,65
699,79	1255,40
699,97	1218,54
700,16	1236,97
700,34	1187,82
700,53	1300,46
700,71	1255,40
700,89	1255,40
701,08	1322,99
701,26	1236,97
701,45	1247,21
701,63	1259,50
701,81	1187,82
702,00	1193,97
702,18	1249,26
702,37	1288,17
702,55	1304,56
702,73	1296,36
702,92	1312,75
703,10	1304,56
703,28	1212,40
703,47	1316,84
703,65	1228,78
703,84	1322,99
704,02	1300,46
704,20	1183,73
704,39	1271,79
704,57	1191,92
704,75	1228,78
704,94	1210,35
705,12	1288,17
705,30	1339,37
705,49	1232,88
705,67	1318,89
705,86	1320,94
706,04	1267,69
706,22	1210,35
706,41	1257,45
706,59	1259,50
706,77	1273,84
706,96	1286,12
707,14	1314,80
707,32	1279,98
707,51	1267,69
707,69	1292,27
707,87	1286,12
708,06	1230,83
708,24	1298,41
708,42	1255,40
708,61	1259,50
708,79	1282,03
708,97	1288,17
709,16	1267,69
709,34	1249,26
709,52	1261,55
709,71	1335,28
709,89	1257,45
710,07	1263,60
710,26	1286,12
710,44	1279,98
710,62	1325,04
710,80	1234,93
710,99	1292,27
711,17	1232,88
711,35	1224,69
711,54	1257,45
711,72	1259,50
711,90	1298,41
712,09	1318,89
712,27	1230,83
712,45	1273,84
712,63	1314,80
712,82	1273,84
713,00	1310,70
713,18	1218,54
713,37	1300,46
713,55	1271,79
713,73	1351,66
713,91	1304,56
714,10	1290,22
714,28	1232,88
714,46	1331,18
714,65	1232,88
714,83	1273,84
715,01	1218,54
715,19	1288,17
715,38	1200,11
715,56	1339,37
715,74	1200,11
715,92	1327,08
716,11	1327,08
716,29	1257,45
716,47	1316,84
716,65	1296,36
716,84	1304,56
717,02	1263,60
717,20	1279,98
717,38	1234,93
717,57	1275,88
717,75	1255,40
717,93	1267,69
718,11	1269,74
718,30	1239,02
718,48	1374,19
718,66	1312,75
718,84	1296,36
719,03	1374,19
719,21	1282,03
719,39	1228,78
719,57	1310,70
719,75	1292,27
719,94	1263,60
720,12	1286,12
720,30	1290,22
720,48	1316,84
720,67	1277,93
720,85	1277,93
721,03	1257,45
721,21	1226,73
721,39	1292,27
721,58	1230,83
721,76	1279,98
721,94	1271,79
722,12	1271,79
722,30	1329,13
722,49	1325,04
722,67	1183,73
722,85	1290,22
723,03	1296,36
723,21	1304,56
723,40	1265,64
723,58	1232,88
723,76	1300,46
723,94	1288,17
724,12	1241,07
724,30	1284,08
724,49	1261,55
724,67	1277,93
724,85	1245,16
725,03	1351,66
725,21	1333,23
725,40	1288,17
725,58	1265,64
725,76	1353,71
725,94	1247,21
726,12	1359,85
726,30	1261,55
726,49	1288,17
726,67	1232,88
726,85	1302,51
727,03	1298,41
727,21	1279,98
727,39	1306,60
727,57	1245,16
727,76	1308,65
727,94	1273,84
728,12	1267,69
728,30	1265,64
728,48	1271,79
728,66	1271,79
728,84	1236,97
729,03	1230,83
729,21	1331,18
729,39	1273,84
729,57	1253,36
729,75	1296,36
729,93	1261,55
730,11	1325,04
730,30	1212,40
730,48	1247,21
730,66	1320,94
730,84	1359,85
731,02	1220,59
731,20	1185,77
731,38	1300,46
731,56	1277,93
731,74	1249,26
731,93	1298,41
732,11	1224,69
732,29	1226,73
732,47	1275,88
732,65	1320,94
732,83	1279,98
733,01	1261,55
733,19	1245,16
733,37	1269,74
733,56	1282,03
733,74	1316,84
733,92	1189,87
734,10	1316,84
734,28	1275,88
734,46	1251,31
734,64	1288,17
734,82	1265,64
735,00	1232,88
735,18	1247,21
735,36	1230,83
735,54	1251,31
735,73	1255,40
735,91	1284,08
736,09	1331,18
736,27	1261,55
736,45	1259,50
736,63	1251,31
736,81	1196,01
736,99	1269,74
737,17	1220,59
737,35	1230,83
737,53	1279,98
737,71	1273,84
737,89	1300,46
738,07	1267,69
738,25	1343,47
738,43	1290,22
738,61	1327,08
738,80	1300,46
738,98	1253,36
739,16	1347,56
739,34	1286,12
739,52	1345,52
739,70	1294,32
739,88	1234,93
740,06	1279,98
740,24	1327,08
740,42	1314,80
740,60	1318,89
740,78	1343,47
740,96	1234,93
741,14	1333,23
741,32	1249,26
741,50	1218,54
741,68	1263,60
741,86	1282,03
742,04	1284,08
742,22	1284,08
742,40	1275,88
742,58	1234,93
742,76	1257,45
742,94	1265,64
743,12	1251,31
743,30	1273,84
743,48	1245,16
743,66	1187,82
743,84	1230,83
744,02	1204,21
744,20	1335,28
744,38	1310,70
744,56	1294,32
744,74	1318,89
744,92	1335,28
745,10	1345,52
745,28	1214,45
745,46	1265,64
745,64	1327,08
745,82	1263,60
746,00	1275,88
746,18	1251,31
746,36	1247,21
746,54	1290,22
746,72	1245,16
746,90	1191,92
747,08	1253,36
747,26	1296,36
747,44	1300,46
747,62	1243,12
747,80	1347,56
747,98	1308,65
748,15	1204,21
748,33	1247,21
748,51	1310,70
748,69	1273,84
748,87	1284,08
749,05	1257,45
749,23	1255,40
749,41	1302,51
749,59	1343,47
749,77	1249,26
749,95	1243,12
750,13	1290,22
750,31	1368,04
750,49	1222,64
750,67	1314,80
750,85	1304,56
751,03	1314,80
751,20	1331,18
751,38	1310,70
751,56	1208,30
751,74	1259,50
751,92	1284,08
752,10	1306,60
752,28	1267,69
752,46	1269,74
752,64	1292,27
752,82	1257,45
753,00	1269,74
753,18	1284,08
753,35	1329,13
753,53	1187,82
753,71	1243,12
753,89	1339,37
754,07	1302,51
754,25	1306,60
754,43	1308,65
754,61	1230,83
754,79	1337,32
754,97	1310,70
755,14	1218,54
755,32	1265,64
755,50	1288,17
755,68	1247,21
755,86	1257,45
756,04	1363,95
756,22	1282,03
756,40	1378,28
756,57	1247,21
756,75	1271,79
756,93	1218,54
757,11	1241,07
757,29	1271,79
757,47	1279,98
757,65	1206,25
757,82	1230,83
758,00	1284,08
758,18	1284,08
758,36	1275,88
758,54	1255,40
758,72	1269,74
758,90	1261,55
759,07	1269,74
759,25	1304,56
759,43	1267,69
759,61	1304,56
759,79	1357,80
759,97	1290,22
760,15	1202,16
760,32	1198,06
760,50	1267,69
760,68	1282,03
760,86	1230,83
761,04	1265,64
761,22	1284,08
761,39	1318,89
761,57	1337,32
761,75	1271,79
761,93	1255,40
762,11	1300,46
762,28	1239,02
762,46	1316,84
762,64	1282,03
762,82	1263,60
763,00	1304,56
763,18	1263,60
763,35	1298,41
763,53	1337,32
763,71	1232,88
763,89	1263,60
764,07	1320,94
764,24	1310,70
764,42	1318,89
764,60	1267,69
764,78	1282,03
764,96	1308,65
765,13	1329,13
765,31	1331,18
765,49	1263,60
765,67	1271,79
765,84	1271,79
766,02	1282,03
766,20	1247,21
766,38	1304,56
766,56	1236,97
766,73	1261,55
766,91	1245,16
767,09	1296,36
767,27	1302,51
767,44	1282,03
767,62	1316,84
767,80	1296,36
767,98	1257,45
768,15	1261,55
768,33	1263,60
768,51	1347,56
768,69	1273,84
768,87	1214,45
769,04	1290,22
769,22	1275,88
769,40	1304,56
769,58	1212,40
769,75	1273,84
769,93	1241,07
770,11	1243,12
770,28	1249,26
770,46	1314,80
770,64	1300,46
770,82	1292,27
770,99	1267,69
771,17	1310,70
771,35	1247,21
771,53	1288,17
771,70	1267,69
771,88	1271,79
772,06	1214,45
772,23	1269,74
772,41	1265,64
772,59	1288,17
772,77	1222,64
772,94	1273,84
773,12	1345,52
773,30	1271,79
773,47	1228,78
773,65	1214,45
773,83	1314,80
774,01	1273,84
774,18	1290,22
774,36	1339,37
774,54	1249,26
774,71	1232,88
774,89	1257,45
775,07	1228,78
775,24	1239,02
775,42	1222,64
775,60	1257,45
775,78	1282,03
775,95	1292,27
776,13	1222,64
776,31	1249,26
776,48	1241,07
776,66	1212,40
776,84	1275,88
777,01	1261,55
777,19	1271,79
777,37	1279,98
777,54	1325,04
777,72	1267,69
777,90	1247,21
778,07	1245,16
778,25	1253,36
778,43	1259,50
778,60	1230,83
778,78	1222,64
778,96	1279,98
779,13	1243,12
779,31	1376,24
779,49	1290,22
779,66	1343,47
779,84	1271,79
780,01	1249,26
780,19	1273,84
780,37	1310,70
780,54	1308,65
780,72	1241,07
780,90	1265,64
781,07	1333,23
781,25	1304,56
781,43	1249,26
781,60	1282,03
781,78	1230,83
781,95	1282,03
782,13	1228,78
782,31	1259,50
782,48	1214,45
782,66	1259,50
782,83	1259,50
783,01	1288,17
783,19	1261,55
783,36	1255,40
783,54	1288,17
783,72	1279,98
783,89	1290,22
784,07	1269,74
784,24	1269,74
784,42	1243,12
784,60	1292,27
784,77	1251,31
784,95	1320,94
785,12	1279,98
785,30	1247,21
785,47	1214,45
785,65	1322,99
785,83	1298,41
786,00	1236,97
786,18	1279,98
786,35	1296,36
786,53	1290,22
786,71	1339,37
786,88	1292,27
787,06	1216,49
787,23	1333,23
787,41	1298,41
787,58	1181,68
787,76	1282,03
787,94	1294,32
788,11	1298,41
788,29	1216,49
788,46	1279,98
788,64	1271,79
788,81	1296,36
788,99	1224,69
789,16	1279,98
789,34	1261,55
789,52	1290,22
789,69	1255,40
789,87	1226,73
790,04	1277,93
790,22	1261,55
790,39	1292,27
790,57	1204,21
790,74	1206,25
790,92	1263,60
791,09	1279,98
791,27	1259,50
791,44	1275,88
791,62	1279,98
791,79	1273,84
791,97	1204,21
792,15	1298,41
792,32	1214,45
792,50	1224,69
792,67	1257,45
792,85	1304,56
793,02	1183,73
793,20	1193,97
793,37	1234,93
793,55	1314,80
793,72	1298,41
793,90	1239,02
794,07	1214,45
794,25	1208,30
794,42	1275,88
794,60	1310,70
794,77	1296,36
794,95	1275,88
795,12	1239,02
795,30	1263,60
795,47	1253,36
795,65	1312,75
795,82	1249,26
796,00	1282,03
796,17	1296,36
796,34	1296,36
796,52	1245,16
796,69	1296,36
796,87	1212,40
797,04	1255,40
797,22	1232,88
797,39	1222,64
797,57	1249,26
797,74	1284,08
797,92	1327,08
798,09	1275,88
798,27	1261,55
798,44	1318,89
798,62	1255,40
798,79	1282,03
798,96	1251,31
799,14	1294,32
799,31	1298,41
799,49	1253,36
799,66	1243,12
799,84	1200,11
800,01	1290,22
800,19	1247,21
800,36	1163,25
800,53	1286,12
800,71	1230,83
800,88	1290,22
801,06	1257,45
801,23	1206,25
801,41	1296,36
801,58	1273,84
801,75	1279,98
801,93	1306,60
802,10	1239,02
802,28	1210,35
802,45	1304,56
802,63	1273,84
802,80	1290,22
802,97	1306,60
803,15	1310,70
803,32	1275,88
803,50	1249,26
803,67	1212,40
803,84	1196,01
804,02	1288,17
804,19	1273,84
804,37	1249,26
804,54	1296,36
804,71	1263,60
804,89	1263,60
805,06	1279,98
805,24	1310,70
805,41	1243,12
805,58	1230,83
805,76	1263,60
805,93	1277,93
806,10	1302,51
806,28	1253,36
806,45	1257,45
806,63	1282,03
806,80	1339,37
806,97	1306,60
807,15	1200,11
807,32	1157,10
807,49	1263,60
807,67	1286,12
807,84	1312,75
808,01	1204,21
808,19	1226,73
808,36	1300,46
808,54	1329,13
808,71	1234,93
808,88	1271,79
809,06	1304,56
809,23	1230,83
809,40	1247,21
809,58	1251,31
809,75	1253,36
809,92	1243,12
810,10	1210,35
810,27	1294,32
810,44	1189,87
810,62	1267,69
810,79	1277,93
810,96	1234,93
811,14	1279,98
811,31	1275,88
811,48	1204,21
811,66	1279,98
811,83	1277,93
812,00	1327,08
812,18	1314,80
812,35	1302,51
812,52	1261,55
812,69	1241,07
812,87	1286,12
813,04	1236,97
813,21	1251,31
813,39	1251,31
813,56	1327,08
813,73	1322,99
813,91	1220,59
814,08	1306,60
814,25	1286,12
814,42	1243,12
814,60	1249,26
814,77	1230,83
814,94	1271,79
815,12	1273,84
815,29	1273,84
815,46	1339,37
815,63	1236,97
815,81	1325,04
815,98	1322,99
816,15	1279,98
816,33	1263,60
816,50	1228,78
816,67	1292,27
816,84	1322,99
817,02	1269,74
817,19	1318,89
817,36	1241,07
817,53	1308,65
817,71	1298,41
817,88	1345,52
818,05	1337,32
818,22	1232,88
818,40	1355,76
818,57	1271,79
818,74	1228,78
818,91	1306,60
819,09	1230,83
819,26	1345,52
819,43	1273,84
819,60	1331,18
819,78	1241,07
819,95	1296,36
820,12	1275,88
820,29	1275,88
820,47	1290,22
820,64	1279,98
820,81	1263,60
820,98	1290,22
821,15	1216,49
821,33	1329,13
821,50	1208,30
821,67	1271,79
821,84	1255,40
822,02	1341,42
822,19	1212,40
822,36	1259,50
822,53	1265,64
822,70	1263,60
822,88	1245,16
823,05	1202,16
823,22	1222,64
823,39	1322,99
823,56	1261,55
823,74	1302,51
823,91	1218,54
824,08	1228,78
824,25	1271,79
824,42	1310,70
824,60	1218,54
824,77	1329,13
824,94	1288,17
825,11	1253,36
825,28	1271,79
825,45	1284,08
825,63	1226,73
825,80	1353,71
825,97	1277,93
826,14	1325,04
826,31	1263,60
826,48	1232,88
826,66	1325,04
826,83	1257,45
827,00	1253,36
827,17	1265,64
827,34	1282,03
827,51	1249,26
827,69	1275,88
827,86	1224,69
828,03	1267,69
828,20	1271,79
828,37	1292,27
828,54	1259,50
828,71	1255,40
828,89	1325,04
829,06	1290,22
829,23	1279,98
829,40	1277,93
829,57	1241,07
829,74	1329,13
829,91	1257,45
830,09	1316,84
830,26	1273,84
830,43	1296,36
830,60	1300,46
830,77	1239,02
830,94	1253,36
831,11	1331,18
831,28	1273,84
831,46	1230,83
831,63	1261,55
831,80	1286,12
831,97	1265,64
832,14	1224,69
832,31	1243,12
832,48	1277,93
832,65	1249,26
832,82	1177,58
832,99	1294,32
833,17	1277,93
833,34	1292,27
833,51	1277,93
833,68	1228,78
833,85	1214,45
834,02	1279,98
834,19	1236,97
834,36	1245,16
834,53	1306,60
834,70	1273,84
834,87	1263,60
835,04	1222,64
835,22	1224,69
835,39	1288,17
835,56	1179,63
835,73	1331,18
835,90	1204,21
836,07	1198,06
836,24	1265,64
836,41	1261,55
836,58	1288,17
836,75	1300,46
836,92	1294,32
837,09	1239,02
837,26	1236,97
837,43	1290,22
837,60	1265,64
837,77	1273,84
837,94	1339,37
838,12	1271,79
838,29	1357,80
838,46	1224,69
838,63	1314,80
838,80	1247,21
838,97	1222,64
839,14	1304,56
839,31	1277,93
839,48	1290,22
839,65	1220,59
839,82	1193,97
839,99	1298,41
840,16	1249,26
840,33	1318,89
840,50	1282,03
840,67	1265,64
840,84	1255,40
841,01	1292,27
841,18	1339,37
841,35	1232,88
841,52	1273,84
841,69	1202,16
841,86	1234,93
842,03	1224,69
842,20	1337,32
842,37	1234,93
842,54	1298,41
842,71	1222,64
842,88	1239,02
843,05	1310,70
843,22	1279,98
843,39	1273,84
843,56	1222,64
843,73	1241,07
843,90	1269,74
844,07	1239,02
844,24	1232,88
844,41	1261,55
844,58	1239,02
844,75	1267,69
844,92	1208,30
845,09	1273,84
845,26	1314,80
845,43	1298,41
845,60	1290,22
845,77	1288,17
845,94	1335,28
846,10	1198,06
846,27	1226,73
846,44	1257,45
846,61	1277,93
846,78	1292,27
846,95	1243,12
847,12	1181,68
847,29	1322,99
847,46	1304,56
847,63	1343,47
847,80	1257,45
847,97	1271,79
848,14	1232,88
848,31	1282,03
848,48	1279,98
848,65	1277,93
848,82	1234,93
848,98	1261,55
849,15	1261,55
849,32	1263,60
849,49	1214,45
849,66	1316,84
849,83	1290,22
850,00	1282,03
850,17	1286,12
850,34	1273,84
850,51	1302,51
850,68	1279,98
850,85	1259,50
851,01	1216,49
851,18	1249,26
851,35	1251,31
851,52	1263,60
851,69	1282,03
851,86	1175,53
852,03	1294,32
852,20	1282,03
852,37	1202,16
852,53	1312,75
852,70	1337,32
852,87	1329,13
853,04	1282,03
853,21	1263,60
853,38	1265,64
853,55	1226,73
853,72	1290,22
853,89	1185,77
854,05	1228,78
854,22	1261,55
854,39	1284,08
854,56	1345,52
854,73	1226,73
854,90	1277,93
855,07	1298,41
855,23	1327,08
855,40	1153,01
855,57	1286,12
855,74	1312,75
855,91	1222,64
856,08	1294,32
856,25	1269,74
856,41	1294,32
856,58	1335,28
856,75	1320,94
856,92	1320,94
857,09	1236,97
857,26	1275,88
857,42	1314,80
857,59	1263,60
857,76	1327,08
857,93	1226,73
858,10	1304,56
858,27	1253,36
858,43	1265,64
858,60	1282,03
858,77	1277,93
858,94	1247,21
859,11	1275,88
859,27	1273,84
859,44	1282,03
859,61	1228,78
859,78	1208,30
859,95	1183,73
860,12	1224,69
860,28	1234,93
860,45	1265,64
860,62	1308,65
860,79	1249,26
860,95	1296,36
861,12	1241,07
861,29	1298,41
861,46	1239,02
861,63	1269,74
861,79	1271,79
861,96	1292,27
862,13	1247,21
862,30	1310,70
862,47	1296,36
862,63	1261,55
862,80	1288,17
862,97	1232,88
863,14	1257,45
863,30	1329,13
863,47	1304,56
863,64	1265,64
863,81	1245,16
863,97	1316,84
864,14	1306,60
864,31	1290,22
864,48	1294,32
864,65	1318,89
864,81	1257,45
864,98	1232,88
865,15	1267,69
865,32	1265,64
865,48	1370,09
865,65	1318,89
865,82	1355,76
865,98	1226,73
866,15	1335,28
866,32	1312,75
866,49	1273,84
866,65	1253,36
866,82	1247,21
866,99	1236,97
867,16	1310,70
867,32	1208,30
867,49	1273,84
867,66	1306,60
867,83	1247,21
867,99	1249,26
868,16	1265,64
868,33	1263,60
868,49	1214,45
868,66	1259,50
868,83	1312,75
868,99	1275,88
869,16	1253,36
869,33	1257,45
869,50	1327,08
869,66	1310,70
869,83	1294,32
870,00	1216,49
870,16	1298,41
870,33	1318,89
870,50	1290,22
870,66	1292,27
870,83	1292,27
871,00	1253,36
871,17	1257,45
871,33	1236,97
871,50	1290,22
871,67	1267,69
871,83	1302,51
872,00	1282,03
872,17	1271,79
872,33	1279,98
872,50	1286,12
872,67	1314,80
872,83	1267,69
873,00	1193,97
873,17	1347,56
873,33	1314,80
873,50	1261,55
873,67	1320,94
873,83	1228,78
874,00	1277,93
874,16	1322,99
874,33	1271,79
874,50	1294,32
874,66	1269,74
874,83	1220,59
875,00	1245,16
875,16	1298,41
875,33	1245,16
875,50	1222,64
875,66	1302,51
875,83	1300,46
875,99	1255,40
876,16	1286,12
876,33	1265,64
876,49	1275,88
876,66	1306,60
876,83	1220,59
876,99	1259,50
877,16	1296,36
877,32	1239,02
877,49	1292,27
877,66	1282,03
877,82	1279,98
877,99	1294,32
878,15	1302,51
878,32	1243,12
878,49	1245,16
878,65	1249,26
878,82	1261,55
878,98	1232,88
879,15	1298,41
879,32	1343,47
879,48	1300,46
879,65	1273,84
879,81	1181,68
879,98	1306,60
880,15	1236,97
880,31	1322,99
880,48	1316,84
880,64	1267,69
880,81	1316,84
880,97	1267,69
881,14	1251,31
881,31	1269,74
881,47	1263,60
881,64	1236,97
881,80	1322,99
881,97	1331,18
882,13	1347,56
882,30	1249,26
882,47	1306,60
882,63	1218,54
882,80	1288,17
882,96	1247,21
883,13	1200,11
883,29	1222,64
883,46	1322,99
883,62	1304,56
883,79	1216,49
883,95	1275,88
884,12	1300,46
884,29	1308,65
884,45	1279,98
884,62	1261,55
884,78	1259,50
884,95	1273,84
885,11	1251,31
885,28	1298,41
885,44	1310,70
885,61	1316,84
885,77	1290,22
885,94	1263,60
886,10	1347,56
886,27	1286,12
886,43	1279,98
886,60	1279,98
886,76	1239,02
886,93	1290,22
887,09	1273,84
887,26	1304,56
887,42	1224,69
887,59	1249,26
887,75	1310,70
887,92	1316,84
888,08	1259,50
888,25	1288,17
888,41	1329,13
888,58	1298,41
888,74	1279,98
888,91	1140,72
>>>>>End Processed Spectral Data<<<<<
