SpectraSuite Data File
++++++++++++++++++++++++++++++++++++
Date: Sun Apr 03 14:39:04 CEST 2016
User: root
Dark Spectrum Present: No
Reference Spectrum Present: No
Number of Sampled Component Spectra: 1
Spectrometers: USB4C02835
Integration Time (usec): 10000 (USB4C02835)
Spectra Averaged: 1 (USB4C02835)
Boxcar Smoothing: 0 (USB4C02835)
Correct for Electrical Dark: No (USB4C02835)
Strobe/Lamp Enabled: No (USB4C02835)
Correct for Detector Non-linearity: No (USB4C02835)
Correct for Stray Light: No (USB4C02835)
Number of Pixels in Processed Spectrum: 3648
>>>>>Begin Processed Spectral Data<<<<<
177,47	1255,40
177,69	1255,40
177,91	1255,40
178,13	1247,21
178,36	1228,78
178,58	1230,83
178,80	1234,93
179,02	1224,69
179,24	1314,80
179,46	1243,12
179,68	1261,55
179,90	1210,35
180,13	1241,07
180,35	1302,51
180,57	1234,93
180,79	1298,41
181,01	1224,69
181,23	1228,78
181,45	1220,59
181,67	1312,75
181,90	1263,60
182,12	1206,25
182,34	1337,32
182,56	1314,80
182,78	1226,73
183,00	1241,07
183,22	1314,80
183,44	1273,84
183,66	1300,46
183,89	1212,40
184,11	1251,31
184,33	1304,56
184,55	1349,61
184,77	1232,88
184,99	1304,56
185,21	1226,73
185,43	1259,50
185,65	1273,84
185,87	1277,93
186,10	1279,98
186,32	1359,85
186,54	1206,25
186,76	1251,31
186,98	1226,73
187,20	1290,22
187,42	1243,12
187,64	1249,26
187,86	1341,42
188,08	1249,26
188,30	1306,60
188,52	1267,69
188,75	1288,17
188,97	1239,02
189,19	1273,84
189,41	1265,64
189,63	1224,69
189,85	1294,32
190,07	1261,55
190,29	1216,49
190,51	1296,36
190,73	1282,03
190,95	1224,69
191,17	1222,64
191,39	1222,64
191,61	1275,88
191,84	1257,45
192,06	1259,50
192,28	1241,07
192,50	1265,64
192,72	1308,65
192,94	1296,36
193,16	1251,31
193,38	1241,07
193,60	1224,69
193,82	1288,17
194,04	1322,99
194,26	1261,55
194,48	1284,08
194,70	1253,36
194,92	1191,92
195,14	1279,98
195,36	1267,69
195,58	1275,88
195,80	1271,79
196,02	1249,26
196,24	1282,03
196,46	1290,22
196,69	1288,17
196,91	1241,07
197,13	1267,69
197,35	1255,40
197,57	1300,46
197,79	1257,45
198,01	1312,75
198,23	1234,93
198,45	1265,64
198,67	1259,50
198,89	1253,36
199,11	1269,74
199,33	1259,50
199,55	1189,87
199,77	1253,36
199,99	1296,36
200,21	1255,40
200,43	1288,17
200,65	1222,64
200,87	1228,78
201,09	1261,55
201,31	1300,46
201,53	1290,22
201,75	1277,93
201,97	1269,74
202,19	1288,17
202,41	1271,79
202,63	1306,60
202,85	1337,32
203,07	1345,52
203,29	1277,93
203,51	1273,84
203,73	1279,98
203,95	1245,16
204,17	1290,22
204,39	1298,41
204,61	1279,98
204,83	1273,84
205,05	1288,17
205,27	1337,32
205,49	1308,65
205,71	1292,27
205,93	1226,73
206,15	1247,21
206,37	1216,49
206,59	1269,74
206,81	1304,56
207,03	1296,36
207,25	1257,45
207,47	1263,60
207,69	1255,40
207,91	1224,69
208,13	1312,75
208,34	1288,17
208,56	1247,21
208,78	1298,41
209,00	1247,21
209,22	1259,50
209,44	1306,60
209,66	1269,74
209,88	1298,41
210,10	1220,59
210,32	1265,64
210,54	1236,97
210,76	1236,97
210,98	1329,13
211,20	1292,27
211,42	1279,98
211,64	1214,45
211,86	1261,55
212,08	1304,56
212,30	1224,69
212,52	1298,41
212,74	1257,45
212,96	1232,88
213,17	1208,30
213,39	1267,69
213,61	1273,84
213,83	1271,79
214,05	1269,74
214,27	1253,36
214,49	1279,98
214,71	1335,28
214,93	1226,73
215,15	1259,50
215,37	1234,93
215,59	1271,79
215,81	1245,16
216,03	1302,51
216,24	1259,50
216,46	1306,60
216,68	1282,03
216,90	1329,13
217,12	1245,16
217,34	1277,93
217,56	1255,40
217,78	1232,88
218,00	1327,08
218,22	1302,51
218,44	1286,12
218,66	1234,93
218,87	1232,88
219,09	1331,18
219,31	1300,46
219,53	1206,25
219,75	1243,12
219,97	1286,12
220,19	1331,18
220,41	1290,22
220,63	1286,12
220,85	1277,93
221,06	1298,41
221,28	1261,55
221,50	1288,17
221,72	1357,80
221,94	1286,12
222,16	1298,41
222,38	1234,93
222,60	1322,99
222,82	1273,84
223,03	1259,50
223,25	1273,84
223,47	1232,88
223,69	1320,94
223,91	1279,98
224,13	1265,64
224,35	1249,26
224,57	1361,90
224,78	1308,65
225,00	1226,73
225,22	1277,93
225,44	1304,56
225,66	1257,45
225,88	1224,69
226,10	1351,66
226,32	1302,51
226,53	1306,60
226,75	1296,36
226,97	1255,40
227,19	1245,16
227,41	1370,09
227,63	1245,16
227,85	1267,69
228,06	1265,64
228,28	1320,94
228,50	1310,70
228,72	1255,40
228,94	1277,93
229,16	1269,74
229,37	1212,40
229,59	1247,21
229,81	1267,69
230,03	1230,83
230,25	1290,22
230,47	1302,51
230,69	1275,88
230,90	1253,36
231,12	1304,56
231,34	1359,85
231,56	1282,03
231,78	1247,21
232,00	1288,17
232,21	1275,88
232,43	1228,78
232,65	1318,89
232,87	1331,18
233,09	1294,32
233,30	1247,21
233,52	1185,77
233,74	1232,88
233,96	1298,41
234,18	1306,60
234,40	1251,31
234,61	1196,01
234,83	1257,45
235,05	1245,16
235,27	1275,88
235,49	1257,45
235,70	1257,45
235,92	1255,40
236,14	1279,98
236,36	1298,41
236,58	1322,99
236,79	1284,08
237,01	1245,16
237,23	1249,26
237,45	1196,01
237,67	1234,93
237,88	1255,40
238,10	1282,03
238,32	1331,18
238,54	1224,69
238,76	1290,22
238,97	1222,64
239,19	1341,42
239,41	1220,59
239,63	1228,78
239,85	1259,50
240,06	1263,60
240,28	1263,60
240,50	1292,27
240,72	1245,16
240,93	1253,36
241,15	1347,56
241,37	1257,45
241,59	1310,70
241,81	1269,74
242,02	1171,44
242,24	1251,31
242,46	1214,45
242,68	1296,36
242,89	1249,26
243,11	1236,97
243,33	1241,07
243,55	1273,84
243,76	1308,65
243,98	1275,88
244,20	1327,08
244,42	1275,88
244,64	1331,18
244,85	1236,97
245,07	1265,64
245,29	1259,50
245,51	1234,93
245,72	1304,56
245,94	1173,49
246,16	1318,89
246,38	1310,70
246,59	1220,59
246,81	1265,64
247,03	1189,87
247,24	1275,88
247,46	1290,22
247,68	1353,71
247,90	1271,79
248,11	1292,27
248,33	1277,93
248,55	1265,64
248,77	1288,17
248,98	1275,88
249,20	1357,80
249,42	1185,77
249,64	1253,36
249,85	1271,79
250,07	1282,03
250,29	1265,64
250,50	1208,30
250,72	1234,93
250,94	1230,83
251,16	1253,36
251,37	1314,80
251,59	1359,85
251,81	1279,98
252,02	1294,32
252,24	1304,56
252,46	1263,60
252,68	1320,94
252,89	1243,12
253,11	1275,88
253,33	1267,69
253,54	1316,84
253,76	1216,49
253,98	1271,79
254,20	1253,36
254,41	1279,98
254,63	1314,80
254,85	1322,99
255,06	1257,45
255,28	1290,22
255,50	1312,75
255,71	1226,73
255,93	1277,93
256,15	1265,64
256,36	1320,94
256,58	1251,31
256,80	1286,12
257,02	1314,80
257,23	1300,46
257,45	1247,21
257,67	1300,46
257,88	1259,50
258,10	1322,99
258,32	1226,73
258,53	1157,10
258,75	1234,93
258,97	1261,55
259,18	1322,99
259,40	1228,78
259,62	1251,31
259,83	1318,89
260,05	1265,64
260,27	1241,07
260,48	1241,07
260,70	1306,60
260,92	1267,69
261,13	1286,12
261,35	1312,75
261,57	1245,16
261,78	1257,45
262,00	1279,98
262,22	1245,16
262,43	1241,07
262,65	1286,12
262,86	1286,12
263,08	1247,21
263,30	1243,12
263,51	1218,54
263,73	1306,60
263,95	1269,74
264,16	1279,98
264,38	1267,69
264,60	1304,56
264,81	1296,36
265,03	1298,41
265,25	1335,28
265,46	1232,88
265,68	1298,41
265,89	1255,40
266,11	1220,59
266,33	1224,69
266,54	1261,55
266,76	1325,04
266,98	1298,41
267,19	1312,75
267,41	1355,76
267,62	1265,64
267,84	1247,21
268,06	1351,66
268,27	1286,12
268,49	1282,03
268,70	1228,78
268,92	1300,46
269,14	1193,97
269,35	1255,40
269,57	1290,22
269,79	1290,22
270,00	1247,21
270,22	1286,12
270,43	1337,32
270,65	1239,02
270,87	1296,36
271,08	1292,27
271,30	1282,03
271,51	1228,78
271,73	1298,41
271,95	1282,03
272,16	1296,36
272,38	1345,52
272,59	1298,41
272,81	1300,46
273,02	1255,40
273,24	1279,98
273,46	1253,36
273,67	1308,65
273,89	1269,74
274,10	1269,74
274,32	1259,50
274,54	1263,60
274,75	1267,69
274,97	1318,89
275,18	1282,03
275,40	1247,21
275,61	1247,21
275,83	1300,46
276,05	1247,21
276,26	1273,84
276,48	1214,45
276,69	1251,31
276,91	1200,11
277,12	1271,79
277,34	1271,79
277,55	1247,21
277,77	1312,75
277,99	1288,17
278,20	1183,73
278,42	1355,76
278,63	1265,64
278,85	1249,26
279,06	1288,17
279,28	1282,03
279,49	1294,32
279,71	1308,65
279,93	1275,88
280,14	1251,31
280,36	1269,74
280,57	1271,79
280,79	1269,74
281,00	1230,83
281,22	1239,02
281,43	1261,55
281,65	1267,69
281,86	1257,45
282,08	1206,25
282,29	1304,56
282,51	1286,12
282,73	1294,32
282,94	1290,22
283,16	1279,98
283,37	1290,22
283,59	1343,47
283,80	1239,02
284,02	1286,12
284,23	1294,32
284,45	1325,04
284,66	1269,74
284,88	1290,22
285,09	1230,83
285,31	1286,12
285,52	1214,45
285,74	1304,56
285,95	1296,36
286,17	1253,36
286,38	1282,03
286,60	1292,27
286,81	1241,07
287,03	1269,74
287,24	1247,21
287,46	1230,83
287,67	1206,25
287,89	1308,65
288,10	1353,71
288,32	1220,59
288,53	1372,14
288,75	1214,45
288,96	1263,60
289,18	1298,41
289,39	1257,45
289,61	1284,08
289,82	1263,60
290,04	1380,33
290,25	1273,84
290,47	1306,60
290,68	1314,80
290,90	1218,54
291,11	1224,69
291,33	1259,50
291,54	1239,02
291,76	1282,03
291,97	1271,79
292,18	1282,03
292,40	1286,12
292,61	1206,25
292,83	1267,69
293,04	1327,08
293,26	1286,12
293,47	1273,84
293,69	1267,69
293,90	1279,98
294,12	1220,59
294,33	1239,02
294,55	1247,21
294,76	1259,50
294,97	1232,88
295,19	1277,93
295,40	1292,27
295,62	1318,89
295,83	1318,89
296,05	1255,40
296,26	1224,69
296,48	1300,46
296,69	1261,55
296,90	1308,65
297,12	1312,75
297,33	1247,21
297,55	1253,36
297,76	1288,17
297,98	1271,79
298,19	1230,83
298,41	1263,60
298,62	1265,64
298,83	1259,50
299,05	1247,21
299,26	1247,21
299,48	1247,21
299,69	1220,59
299,90	1228,78
300,12	1312,75
300,33	1247,21
300,55	1222,64
300,76	1292,27
300,98	1245,16
301,19	1269,74
301,40	1271,79
301,62	1314,80
301,83	1212,40
302,05	1259,50
302,26	1306,60
302,47	1296,36
302,69	1239,02
302,90	1329,13
303,12	1224,69
303,33	1302,51
303,54	1273,84
303,76	1239,02
303,97	1282,03
304,19	1277,93
304,40	1214,45
304,61	1271,79
304,83	1261,55
305,04	1329,13
305,26	1273,84
305,47	1298,41
305,68	1232,88
305,90	1273,84
306,11	1263,60
306,33	1249,26
306,54	1255,40
306,75	1218,54
306,97	1241,07
307,18	1296,36
307,39	1282,03
307,61	1288,17
307,82	1343,47
308,04	1253,36
308,25	1320,94
308,46	1249,26
308,68	1261,55
308,89	1298,41
309,10	1241,07
309,32	1259,50
309,53	1230,83
309,74	1214,45
309,96	1200,11
310,17	1245,16
310,39	1239,02
310,60	1267,69
310,81	1277,93
311,03	1261,55
311,24	1353,71
311,45	1282,03
311,67	1253,36
311,88	1320,94
312,09	1277,93
312,31	1296,36
312,52	1314,80
312,73	1267,69
312,95	1236,97
313,16	1259,50
313,37	1245,16
313,59	1312,75
313,80	1277,93
314,01	1261,55
314,23	1273,84
314,44	1314,80
314,65	1251,31
314,87	1202,16
315,08	1259,50
315,29	1257,45
315,51	1318,89
315,72	1275,88
315,93	1277,93
316,15	1261,55
316,36	1279,98
316,57	1331,18
316,79	1275,88
317,00	1263,60
317,21	1234,93
317,43	1251,31
317,64	1204,21
317,85	1359,85
318,07	1243,12
318,28	1349,61
318,49	1284,08
318,70	1282,03
318,92	1243,12
319,13	1271,79
319,34	1251,31
319,56	1296,36
319,77	1300,46
319,98	1249,26
320,20	1196,01
320,41	1316,84
320,62	1308,65
320,83	1236,97
321,05	1316,84
321,26	1241,07
321,47	1337,32
321,69	1306,60
321,90	1202,16
322,11	1279,98
322,32	1304,56
322,54	1300,46
322,75	1230,83
322,96	1279,98
323,18	1212,40
323,39	1165,29
323,60	1298,41
323,81	1202,16
324,03	1288,17
324,24	1263,60
324,45	1267,69
324,66	1245,16
324,88	1247,21
325,09	1269,74
325,30	1253,36
325,52	1257,45
325,73	1247,21
325,94	1222,64
326,15	1255,40
326,37	1290,22
326,58	1218,54
326,79	1306,60
327,00	1298,41
327,22	1304,56
327,43	1247,21
327,64	1284,08
327,85	1271,79
328,07	1296,36
328,28	1263,60
328,49	1249,26
328,70	1284,08
328,92	1275,88
329,13	1214,45
329,34	1308,65
329,55	1265,64
329,76	1251,31
329,98	1261,55
330,19	1208,30
330,40	1232,88
330,61	1245,16
330,83	1290,22
331,04	1325,04
331,25	1245,16
331,46	1232,88
331,68	1255,40
331,89	1288,17
332,10	1277,93
332,31	1196,01
332,52	1245,16
332,74	1318,89
332,95	1302,51
333,16	1304,56
333,37	1329,13
333,58	1247,21
333,80	1249,26
334,01	1290,22
334,22	1267,69
334,43	1228,78
334,64	1230,83
334,86	1337,32
335,07	1325,04
335,28	1296,36
335,49	1351,66
335,70	1296,36
335,92	1353,71
336,13	1331,18
336,34	1310,70
336,55	1292,27
336,76	1247,21
336,98	1247,21
337,19	1296,36
337,40	1232,88
337,61	1337,32
337,82	1267,69
338,04	1286,12
338,25	1279,98
338,46	1273,84
338,67	1296,36
338,88	1314,80
339,09	1304,56
339,31	1165,29
339,52	1224,69
339,73	1261,55
339,94	1265,64
340,15	1327,08
340,36	1251,31
340,58	1257,45
340,79	1259,50
341,00	1275,88
341,21	1306,60
341,42	1243,12
341,63	1261,55
341,85	1263,60
342,06	1222,64
342,27	1284,08
342,48	1296,36
342,69	1286,12
342,90	1290,22
343,12	1298,41
343,33	1220,59
343,54	1292,27
343,75	1261,55
343,96	1222,64
344,17	1247,21
344,38	1304,56
344,60	1218,54
344,81	1224,69
345,02	1261,55
345,23	1310,70
345,44	1200,11
345,65	1220,59
345,86	1327,08
346,07	1269,74
346,29	1290,22
346,50	1269,74
346,71	1218,54
346,92	1294,32
347,13	1284,08
347,34	1292,27
347,55	1257,45
347,76	1302,51
347,98	1296,36
348,19	1226,73
348,40	1261,55
348,61	1191,92
348,82	1366,00
349,03	1247,21
349,24	1286,12
349,45	1300,46
349,66	1253,36
349,88	1279,98
350,09	1333,23
350,30	1261,55
350,51	1292,27
350,72	1275,88
350,93	1243,12
351,14	1269,74
351,35	1212,40
351,56	1304,56
351,77	1327,08
351,99	1314,80
352,20	1290,22
352,41	1347,56
352,62	1241,07
352,83	1304,56
353,04	1267,69
353,25	1271,79
353,46	1263,60
353,67	1259,50
353,88	1310,70
354,09	1314,80
354,30	1265,64
354,52	1241,07
354,73	1273,84
354,94	1290,22
355,15	1298,41
355,36	1253,36
355,57	1261,55
355,78	1282,03
355,99	1222,64
356,20	1279,98
356,41	1292,27
356,62	1239,02
356,83	1337,32
357,04	1318,89
357,25	1259,50
357,46	1343,47
357,68	1298,41
357,89	1359,85
358,10	1310,70
358,31	1296,36
358,52	1298,41
358,73	1312,75
358,94	1306,60
359,15	1234,93
359,36	1273,84
359,57	1308,65
359,78	1230,83
359,99	1257,45
360,20	1302,51
360,41	1265,64
360,62	1241,07
360,83	1275,88
361,04	1269,74
361,25	1224,69
361,46	1310,70
361,67	1292,27
361,88	1310,70
362,09	1277,93
362,30	1302,51
362,51	1314,80
362,72	1337,32
362,93	1239,02
363,14	1343,47
363,35	1378,28
363,56	1286,12
363,78	1265,64
363,99	1282,03
364,20	1282,03
364,41	1273,84
364,62	1273,84
364,83	1220,59
365,04	1327,08
365,25	1224,69
365,46	1331,18
365,67	1200,11
365,88	1253,36
366,09	1259,50
366,30	1204,21
366,51	1306,60
366,72	1263,60
366,93	1279,98
367,14	1337,32
367,35	1353,71
367,56	1206,25
367,77	1257,45
367,98	1200,11
368,18	1255,40
368,39	1269,74
368,60	1300,46
368,81	1249,26
369,02	1222,64
369,23	1269,74
369,44	1304,56
369,65	1304,56
369,86	1243,12
370,07	1294,32
370,28	1288,17
370,49	1243,12
370,70	1339,37
370,91	1253,36
371,12	1296,36
371,33	1282,03
371,54	1271,79
371,75	1300,46
371,96	1228,78
372,17	1239,02
372,38	1257,45
372,59	1286,12
372,80	1259,50
373,01	1257,45
373,22	1318,89
373,43	1304,56
373,64	1275,88
373,85	1234,93
374,06	1314,80
374,26	1341,42
374,47	1306,60
374,68	1277,93
374,89	1294,32
375,10	1210,35
375,31	1282,03
375,52	1322,99
375,73	1275,88
375,94	1228,78
376,15	1298,41
376,36	1372,14
376,57	1312,75
376,78	1236,97
376,99	1224,69
377,20	1275,88
377,40	1183,73
377,61	1312,75
377,82	1314,80
378,03	1245,16
378,24	1218,54
378,45	1265,64
378,66	1275,88
378,87	1263,60
379,08	1232,88
379,29	1273,84
379,50	1206,25
379,71	1241,07
379,91	1259,50
380,12	1265,64
380,33	1273,84
380,54	1339,37
380,75	1243,12
380,96	1284,08
381,17	1294,32
381,38	1243,12
381,59	1265,64
381,80	1247,21
382,00	1335,28
382,21	1339,37
382,42	1357,80
382,63	1282,03
382,84	1177,58
383,05	1234,93
383,26	1288,17
383,47	1316,84
383,68	1333,23
383,88	1234,93
384,09	1288,17
384,30	1241,07
384,51	1255,40
384,72	1310,70
384,93	1208,30
385,14	1222,64
385,35	1302,51
385,55	1329,13
385,76	1306,60
385,97	1200,11
386,18	1292,27
386,39	1271,79
386,60	1296,36
386,81	1224,69
387,02	1337,32
387,22	1290,22
387,43	1257,45
387,64	1220,59
387,85	1337,32
388,06	1284,08
388,27	1306,60
388,48	1275,88
388,68	1259,50
388,89	1370,09
389,10	1290,22
389,31	1294,32
389,52	1249,26
389,73	1282,03
389,93	1216,49
390,14	1288,17
390,35	1255,40
390,56	1322,99
390,77	1300,46
390,98	1312,75
391,18	1302,51
391,39	1267,69
391,60	1265,64
391,81	1302,51
392,02	1277,93
392,23	1271,79
392,43	1247,21
392,64	1290,22
392,85	1314,80
393,06	1314,80
393,27	1230,83
393,47	1339,37
393,68	1249,26
393,89	1298,41
394,10	1300,46
394,31	1228,78
394,52	1255,40
394,72	1304,56
394,93	1273,84
395,14	1257,45
395,35	1257,45
395,56	1308,65
395,76	1294,32
395,97	1247,21
396,18	1265,64
396,39	1226,73
396,60	1288,17
396,80	1257,45
397,01	1230,83
397,22	1318,89
397,43	1282,03
397,64	1304,56
397,84	1230,83
398,05	1296,36
398,26	1304,56
398,47	1243,12
398,67	1282,03
398,88	1294,32
399,09	1339,37
399,30	1292,27
399,51	1271,79
399,71	1232,88
399,92	1236,97
400,13	1359,85
400,34	1335,28
400,54	1232,88
400,75	1253,36
400,96	1253,36
401,17	1263,60
401,37	1314,80
401,58	1247,21
401,79	1249,26
402,00	1325,04
402,21	1277,93
402,41	1263,60
402,62	1302,51
402,83	1273,84
403,04	1206,25
403,24	1298,41
403,45	1243,12
403,66	1261,55
403,87	1275,88
404,07	1232,88
404,28	1208,30
404,49	1239,02
404,70	1269,74
404,90	1253,36
405,11	1325,04
405,32	1316,84
405,52	1288,17
405,73	1339,37
405,94	1304,56
406,15	1282,03
406,35	1277,93
406,56	1271,79
406,77	1271,79
406,98	1279,98
407,18	1253,36
407,39	1296,36
407,60	1232,88
407,80	1284,08
408,01	1253,36
408,22	1271,79
408,43	1286,12
408,63	1310,70
408,84	1275,88
409,05	1224,69
409,25	1243,12
409,46	1249,26
409,67	1312,75
409,88	1218,54
410,08	1255,40
410,29	1265,64
410,50	1329,13
410,70	1157,10
410,91	1228,78
411,12	1243,12
411,32	1214,45
411,53	1288,17
411,74	1210,35
411,95	1314,80
412,15	1253,36
412,36	1224,69
412,57	1232,88
412,77	1286,12
412,98	1355,76
413,19	1269,74
413,39	1241,07
413,60	1277,93
413,81	1288,17
414,01	1275,88
414,22	1259,50
414,43	1257,45
414,63	1265,64
414,84	1300,46
415,05	1259,50
415,25	1255,40
415,46	1271,79
415,67	1294,32
415,87	1247,21
416,08	1216,49
416,29	1257,45
416,49	1351,66
416,70	1253,36
416,91	1273,84
417,11	1251,31
417,32	1222,64
417,53	1286,12
417,73	1263,60
417,94	1351,66
418,15	1247,21
418,35	1234,93
418,56	1236,97
418,77	1267,69
418,97	1284,08
419,18	1296,36
419,38	1206,25
419,59	1230,83
419,80	1312,75
420,00	1202,16
420,21	1234,93
420,42	1282,03
420,62	1232,88
420,83	1224,69
421,04	1236,97
421,24	1298,41
421,45	1314,80
421,65	1290,22
421,86	1290,22
422,07	1220,59
422,27	1298,41
422,48	1273,84
422,69	1220,59
422,89	1351,66
423,10	1351,66
423,30	1222,64
423,51	1265,64
423,72	1273,84
423,92	1245,16
424,13	1265,64
424,33	1269,74
424,54	1253,36
424,75	1343,47
424,95	1275,88
425,16	1320,94
425,36	1282,03
425,57	1312,75
425,78	1308,65
425,98	1279,98
426,19	1224,69
426,39	1331,18
426,60	1327,08
426,81	1279,98
427,01	1331,18
427,22	1288,17
427,42	1202,16
427,63	1220,59
427,83	1224,69
428,04	1234,93
428,25	1318,89
428,45	1304,56
428,66	1220,59
428,86	1282,03
429,07	1208,30
429,28	1296,36
429,48	1255,40
429,69	1349,61
429,89	1306,60
430,10	1308,65
430,30	1269,74
430,51	1282,03
430,71	1259,50
430,92	1275,88
431,13	1241,07
431,33	1298,41
431,54	1173,49
431,74	1212,40
431,95	1269,74
432,15	1265,64
432,36	1243,12
432,56	1232,88
432,77	1267,69
432,98	1239,02
433,18	1245,16
433,39	1298,41
433,59	1277,93
433,80	1249,26
434,00	1316,84
434,21	1241,07
434,41	1275,88
434,62	1236,97
434,82	1296,36
435,03	1204,21
435,23	1288,17
435,44	1288,17
435,64	1210,35
435,85	1241,07
436,06	1290,22
436,26	1261,55
436,47	1267,69
436,67	1206,25
436,88	1255,40
437,08	1284,08
437,29	1222,64
437,49	1263,60
437,70	1249,26
437,90	1298,41
438,11	1210,35
438,31	1269,74
438,52	1263,60
438,72	1239,02
438,93	1259,50
439,13	1306,60
439,34	1249,26
439,54	1271,79
439,75	1253,36
439,95	1304,56
440,16	1261,55
440,36	1286,12
440,57	1343,47
440,77	1249,26
440,98	1279,98
441,18	1329,13
441,39	1347,56
441,59	1245,16
441,80	1343,47
442,00	1275,88
442,21	1296,36
442,41	1255,40
442,62	1245,16
442,82	1320,94
443,02	1243,12
443,23	1279,98
443,43	1247,21
443,64	1263,60
443,84	1318,89
444,05	1310,70
444,25	1226,73
444,46	1273,84
444,66	1220,59
444,87	1269,74
445,07	1265,64
445,28	1263,60
445,48	1304,56
445,69	1327,08
445,89	1183,73
446,09	1333,23
446,30	1269,74
446,50	1271,79
446,71	1271,79
446,91	1314,80
447,12	1314,80
447,32	1333,23
447,53	1239,02
447,73	1236,97
447,93	1267,69
448,14	1290,22
448,34	1200,11
448,55	1267,69
448,75	1249,26
448,96	1241,07
449,16	1300,46
449,36	1222,64
449,57	1312,75
449,77	1314,80
449,98	1212,40
450,18	1273,84
450,39	1249,26
450,59	1200,11
450,79	1245,16
451,00	1251,31
451,20	1212,40
451,41	1232,88
451,61	1359,85
451,81	1216,49
452,02	1183,73
452,22	1222,64
452,43	1263,60
452,63	1267,69
452,84	1279,98
453,04	1318,89
453,24	1261,55
453,45	1282,03
453,65	1206,25
453,86	1261,55
454,06	1279,98
454,26	1159,15
454,47	1265,64
454,67	1298,41
454,87	1277,93
455,08	1284,08
455,28	1245,16
455,49	1298,41
455,69	1322,99
455,89	1265,64
456,10	1310,70
456,30	1300,46
456,51	1241,07
456,71	1257,45
456,91	1259,50
457,12	1200,11
457,32	1249,26
457,52	1232,88
457,73	1284,08
457,93	1308,65
458,14	1292,27
458,34	1269,74
458,54	1200,11
458,75	1236,97
458,95	1245,16
459,15	1267,69
459,36	1204,21
459,56	1245,16
459,76	1292,27
459,97	1275,88
460,17	1206,25
460,37	1310,70
460,58	1286,12
460,78	1271,79
460,99	1208,30
461,19	1314,80
461,39	1306,60
461,60	1183,73
461,80	1251,31
462,00	1239,02
462,21	1208,30
462,41	1306,60
462,61	1335,28
462,82	1259,50
463,02	1239,02
463,22	1302,51
463,43	1249,26
463,63	1286,12
463,83	1310,70
464,04	1251,31
464,24	1230,83
464,44	1296,36
464,64	1267,69
464,85	1300,46
465,05	1245,16
465,25	1292,27
465,46	1255,40
465,66	1300,46
465,86	1298,41
466,07	1196,01
466,27	1245,16
466,47	1259,50
466,68	1206,25
466,88	1325,04
467,08	1269,74
467,29	1249,26
467,49	1335,28
467,69	1277,93
467,89	1259,50
468,10	1271,79
468,30	1239,02
468,50	1304,56
468,71	1247,21
468,91	1314,80
469,11	1322,99
469,31	1230,83
469,52	1243,12
469,72	1269,74
469,92	1298,41
470,13	1216,49
470,33	1296,36
470,53	1269,74
470,73	1269,74
470,94	1224,69
471,14	1277,93
471,34	1290,22
471,54	1359,85
471,75	1189,87
471,95	1265,64
472,15	1222,64
472,36	1292,27
472,56	1300,46
472,76	1249,26
472,96	1245,16
473,17	1265,64
473,37	1234,93
473,57	1216,49
473,77	1292,27
473,98	1331,18
474,18	1261,55
474,38	1325,04
474,58	1263,60
474,79	1210,35
474,99	1230,83
475,19	1273,84
475,39	1259,50
475,60	1226,73
475,80	1247,21
476,00	1298,41
476,20	1253,36
476,41	1241,07
476,61	1347,56
476,81	1327,08
477,01	1308,65
477,21	1255,40
477,42	1306,60
477,62	1296,36
477,82	1279,98
478,02	1212,40
478,23	1232,88
478,43	1312,75
478,63	1279,98
478,83	1275,88
479,03	1251,31
479,24	1208,30
479,44	1337,32
479,64	1251,31
479,84	1251,31
480,04	1226,73
480,25	1265,64
480,45	1269,74
480,65	1263,60
480,85	1239,02
481,06	1273,84
481,26	1275,88
481,46	1314,80
481,66	1218,54
481,86	1273,84
482,06	1245,16
482,27	1275,88
482,47	1261,55
482,67	1306,60
482,87	1271,79
483,07	1239,02
483,28	1267,69
483,48	1294,32
483,68	1253,36
483,88	1288,17
484,08	1284,08
484,29	1247,21
484,49	1331,18
484,69	1253,36
484,89	1257,45
485,09	1300,46
485,29	1247,21
485,50	1218,54
485,70	1249,26
485,90	1296,36
486,10	1273,84
486,30	1302,51
486,50	1298,41
486,71	1312,75
486,91	1304,56
487,11	1271,79
487,31	1325,04
487,51	1327,08
487,71	1239,02
487,91	1261,55
488,12	1253,36
488,32	1220,59
488,52	1296,36
488,72	1302,51
488,92	1263,60
489,12	1239,02
489,32	1210,35
489,53	1294,32
489,73	1329,13
489,93	1271,79
490,13	1343,47
490,33	1275,88
490,53	1333,23
490,73	1282,03
490,94	1271,79
491,14	1306,60
491,34	1294,32
491,54	1241,07
491,74	1241,07
491,94	1222,64
492,14	1300,46
492,34	1292,27
492,54	1275,88
492,75	1216,49
492,95	1224,69
493,15	1279,98
493,35	1251,31
493,55	1288,17
493,75	1279,98
493,95	1327,08
494,15	1273,84
494,35	1212,40
494,56	1253,36
494,76	1216,49
494,96	1282,03
495,16	1304,56
495,36	1259,50
495,56	1318,89
495,76	1245,16
495,96	1259,50
496,16	1214,45
496,36	1243,12
496,56	1339,37
496,77	1228,78
496,97	1241,07
497,17	1271,79
497,37	1284,08
497,57	1261,55
497,77	1261,55
497,97	1277,93
498,17	1290,22
498,37	1275,88
498,57	1239,02
498,77	1206,25
498,97	1265,64
499,17	1304,56
499,38	1292,27
499,58	1255,40
499,78	1316,84
499,98	1269,74
500,18	1322,99
500,38	1269,74
500,58	1277,93
500,78	1251,31
500,98	1304,56
501,18	1296,36
501,38	1232,88
501,58	1337,32
501,78	1314,80
501,98	1222,64
502,18	1247,21
502,38	1322,99
502,58	1325,04
502,78	1325,04
502,98	1261,55
503,18	1173,49
503,38	1273,84
503,59	1239,02
503,79	1267,69
503,99	1286,12
504,19	1277,93
504,39	1275,88
504,59	1255,40
504,79	1263,60
504,99	1300,46
505,19	1312,75
505,39	1312,75
505,59	1329,13
505,79	1263,60
505,99	1308,65
506,19	1290,22
506,39	1288,17
506,59	1181,68
506,79	1288,17
506,99	1325,04
507,19	1310,70
507,39	1239,02
507,59	1329,13
507,79	1288,17
507,99	1259,50
508,19	1222,64
508,39	1322,99
508,59	1327,08
508,79	1257,45
508,99	1273,84
509,19	1273,84
509,39	1273,84
509,59	1277,93
509,79	1271,79
509,99	1312,75
510,19	1282,03
510,39	1294,32
510,59	1234,93
510,79	1261,55
510,99	1232,88
511,19	1341,42
511,39	1298,41
511,59	1267,69
511,79	1245,16
511,99	1279,98
512,19	1253,36
512,38	1318,89
512,58	1247,21
512,78	1290,22
512,98	1245,16
513,18	1193,97
513,38	1345,52
513,58	1314,80
513,78	1239,02
513,98	1191,92
514,18	1288,17
514,38	1257,45
514,58	1286,12
514,78	1384,43
514,98	1249,26
515,18	1279,98
515,38	1347,56
515,58	1353,71
515,78	1251,31
515,98	1269,74
516,18	1241,07
516,38	1284,08
516,57	1329,13
516,77	1267,69
516,97	1282,03
517,17	1322,99
517,37	1247,21
517,57	1310,70
517,77	1251,31
517,97	1302,51
518,17	1257,45
518,37	1277,93
518,57	1269,74
518,77	1277,93
518,97	1271,79
519,16	1271,79
519,36	1251,31
519,56	1249,26
519,76	1232,88
519,96	1286,12
520,16	1236,97
520,36	1224,69
520,56	1251,31
520,76	1288,17
520,96	1259,50
521,16	1269,74
521,35	1290,22
521,55	1275,88
521,75	1232,88
521,95	1198,06
522,15	1167,34
522,35	1236,97
522,55	1269,74
522,75	1249,26
522,95	1255,40
523,14	1337,32
523,34	1230,83
523,54	1294,32
523,74	1279,98
523,94	1329,13
524,14	1316,84
524,34	1314,80
524,54	1275,88
524,73	1302,51
524,93	1339,37
525,13	1302,51
525,33	1279,98
525,53	1282,03
525,73	1271,79
525,93	1320,94
526,13	1298,41
526,32	1236,97
526,52	1284,08
526,72	1316,84
526,92	1277,93
527,12	1255,40
527,32	1226,73
527,52	1286,12
527,71	1286,12
527,91	1265,64
528,11	1267,69
528,31	1247,21
528,51	1261,55
528,71	1339,37
528,90	1329,13
529,10	1310,70
529,30	1259,50
529,50	1300,46
529,70	1282,03
529,90	1234,93
530,09	1261,55
530,29	1267,69
530,49	1273,84
530,69	1312,75
530,89	1261,55
531,09	1300,46
531,28	1290,22
531,48	1314,80
531,68	1241,07
531,88	1282,03
532,08	1284,08
532,28	1173,49
532,47	1304,56
532,67	1288,17
532,87	1265,64
533,07	1261,55
533,27	1312,75
533,46	1263,60
533,66	1263,60
533,86	1263,60
534,06	1282,03
534,26	1267,69
534,45	1257,45
534,65	1351,66
534,85	1241,07
535,05	1288,17
535,25	1322,99
535,44	1245,16
535,64	1300,46
535,84	1282,03
536,04	1247,21
536,24	1298,41
536,43	1322,99
536,63	1198,06
536,83	1308,65
537,03	1218,54
537,22	1325,04
537,42	1290,22
537,62	1249,26
537,82	1318,89
538,02	1163,25
538,21	1232,88
538,41	1322,99
538,61	1257,45
538,81	1296,36
539,00	1273,84
539,20	1222,64
539,40	1294,32
539,60	1341,42
539,79	1277,93
539,99	1279,98
540,19	1279,98
540,39	1241,07
540,58	1273,84
540,78	1320,94
540,98	1228,78
541,18	1263,60
541,37	1224,69
541,57	1261,55
541,77	1282,03
541,97	1282,03
542,16	1298,41
542,36	1308,65
542,56	1327,08
542,76	1261,55
542,95	1255,40
543,15	1292,27
543,35	1263,60
543,54	1251,31
543,74	1226,73
543,94	1259,50
544,14	1290,22
544,33	1279,98
544,53	1271,79
544,73	1261,55
544,93	1230,83
545,12	1339,37
545,32	1222,64
545,52	1255,40
545,71	1318,89
545,91	1298,41
546,11	1275,88
546,30	1294,32
546,50	1277,93
546,70	1282,03
546,90	1277,93
547,09	1212,40
547,29	1261,55
547,49	1247,21
547,68	1304,56
547,88	1265,64
548,08	1308,65
548,27	1320,94
548,47	1325,04
548,67	1157,10
548,87	1228,78
549,06	1261,55
549,26	1249,26
549,46	1236,97
549,65	1255,40
549,85	1320,94
550,05	1273,84
550,24	1282,03
550,44	1263,60
550,64	1243,12
550,83	1253,36
551,03	1277,93
551,23	1322,99
551,42	1249,26
551,62	1282,03
551,82	1249,26
552,01	1267,69
552,21	1249,26
552,41	1302,51
552,60	1320,94
552,80	1273,84
553,00	1286,12
553,19	1286,12
553,39	1325,04
553,59	1214,45
553,78	1267,69
553,98	1234,93
554,17	1325,04
554,37	1183,73
554,57	1298,41
554,76	1304,56
554,96	1239,02
555,16	1261,55
555,35	1247,21
555,55	1241,07
555,75	1296,36
555,94	1228,78
556,14	1304,56
556,33	1267,69
556,53	1318,89
556,73	1359,85
556,92	1265,64
557,12	1271,79
557,32	1249,26
557,51	1220,59
557,71	1243,12
557,90	1239,02
558,10	1312,75
558,30	1320,94
558,49	1298,41
558,69	1259,50
558,88	1284,08
559,08	1204,21
559,28	1255,40
559,47	1263,60
559,67	1294,32
559,86	1269,74
560,06	1292,27
560,26	1259,50
560,45	1255,40
560,65	1251,31
560,84	1253,36
561,04	1286,12
561,24	1282,03
561,43	1261,55
561,63	1327,08
561,82	1269,74
562,02	1261,55
562,22	1269,74
562,41	1300,46
562,61	1304,56
562,80	1255,40
563,00	1277,93
563,19	1300,46
563,39	1292,27
563,59	1243,12
563,78	1261,55
563,98	1255,40
564,17	1241,07
564,37	1320,94
564,56	1245,16
564,76	1312,75
564,96	1304,56
565,15	1247,21
565,35	1343,47
565,54	1263,60
565,74	1232,88
565,93	1284,08
566,13	1296,36
566,32	1288,17
566,52	1200,11
566,71	1259,50
566,91	1288,17
567,11	1232,88
567,30	1267,69
567,50	1304,56
567,69	1249,26
567,89	1306,60
568,08	1284,08
568,28	1220,59
568,47	1290,22
568,67	1230,83
568,86	1261,55
569,06	1282,03
569,25	1277,93
569,45	1279,98
569,64	1183,73
569,84	1189,87
570,04	1232,88
570,23	1298,41
570,43	1224,69
570,62	1294,32
570,82	1282,03
571,01	1302,51
571,21	1353,71
571,40	1277,93
571,60	1243,12
571,79	1277,93
571,99	1232,88
572,18	1257,45
572,38	1249,26
572,57	1259,50
572,77	1277,93
572,96	1290,22
573,16	1265,64
573,35	1277,93
573,55	1216,49
573,74	1230,83
573,94	1245,16
574,13	1296,36
574,33	1253,36
574,52	1308,65
574,71	1261,55
574,91	1267,69
575,10	1257,45
575,30	1261,55
575,49	1333,23
575,69	1286,12
575,88	1243,12
576,08	1232,88
576,27	1243,12
576,47	1257,45
576,66	1222,64
576,86	1279,98
577,05	1288,17
577,25	1273,84
577,44	1232,88
577,64	1263,60
577,83	1327,08
578,02	1318,89
578,22	1296,36
578,41	1284,08
578,61	1322,99
578,80	1335,28
579,00	1267,69
579,19	1275,88
579,39	1259,50
579,58	1277,93
579,77	1271,79
579,97	1320,94
580,16	1327,08
580,36	1261,55
580,55	1376,24
580,75	1218,54
580,94	1290,22
581,13	1255,40
581,33	1232,88
581,52	1343,47
581,72	1337,32
581,91	1277,93
582,11	1271,79
582,30	1300,46
582,49	1228,78
582,69	1222,64
582,88	1185,77
583,08	1288,17
583,27	1257,45
583,47	1282,03
583,66	1261,55
583,85	1282,03
584,05	1206,25
584,24	1275,88
584,44	1249,26
584,63	1343,47
584,82	1269,74
585,02	1306,60
585,21	1222,64
585,41	1224,69
585,60	1208,30
585,79	1292,27
585,99	1241,07
586,18	1331,18
586,37	1284,08
586,57	1286,12
586,76	1304,56
586,96	1216,49
587,15	1322,99
587,34	1378,28
587,54	1298,41
587,73	1232,88
587,93	1304,56
588,12	1214,45
588,31	1249,26
588,51	1290,22
588,70	1263,60
588,89	1257,45
589,09	1273,84
589,28	1333,23
589,47	1241,07
589,67	1261,55
589,86	1294,32
590,06	1265,64
590,25	1214,45
590,44	1247,21
590,64	1263,60
590,83	1236,97
591,02	1329,13
591,22	1308,65
591,41	1226,73
591,60	1210,35
591,80	1230,83
591,99	1234,93
592,18	1236,97
592,38	1288,17
592,57	1277,93
592,76	1359,85
592,96	1232,88
593,15	1314,80
593,34	1218,54
593,54	1245,16
593,73	1261,55
593,92	1257,45
594,12	1298,41
594,31	1265,64
594,50	1282,03
594,70	1241,07
594,89	1257,45
595,08	1247,21
595,28	1228,78
595,47	1265,64
595,66	1269,74
595,86	1267,69
596,05	1300,46
596,24	1269,74
596,43	1314,80
596,63	1185,77
596,82	1271,79
597,01	1224,69
597,21	1298,41
597,40	1286,12
597,59	1282,03
597,79	1253,36
597,98	1284,08
598,17	1304,56
598,36	1312,75
598,56	1286,12
598,75	1296,36
598,94	1300,46
599,14	1306,60
599,33	1312,75
599,52	1279,98
599,71	1243,12
599,91	1255,40
600,10	1290,22
600,29	1216,49
600,48	1290,22
600,68	1322,99
600,87	1239,02
601,06	1236,97
601,26	1251,31
601,45	1302,51
601,64	1230,83
601,83	1300,46
602,03	1267,69
602,22	1316,84
602,41	1288,17
602,60	1312,75
602,80	1302,51
602,99	1257,45
603,18	1296,36
603,37	1247,21
603,57	1257,45
603,76	1290,22
603,95	1216,49
604,14	1302,51
604,34	1271,79
604,53	1288,17
604,72	1271,79
604,91	1302,51
605,10	1243,12
605,30	1224,69
605,49	1257,45
605,68	1267,69
605,87	1290,22
606,07	1251,31
606,26	1314,80
606,45	1277,93
606,64	1275,88
606,84	1288,17
607,03	1312,75
607,22	1187,82
607,41	1290,22
607,60	1300,46
607,80	1269,74
607,99	1265,64
608,18	1271,79
608,37	1259,50
608,56	1212,40
608,76	1271,79
608,95	1339,37
609,14	1294,32
609,33	1337,32
609,52	1226,73
609,72	1247,21
609,91	1296,36
610,10	1212,40
610,29	1286,12
610,48	1300,46
610,68	1314,80
610,87	1314,80
611,06	1253,36
611,25	1302,51
611,44	1257,45
611,63	1277,93
611,83	1322,99
612,02	1292,27
612,21	1286,12
612,40	1202,16
612,59	1282,03
612,79	1261,55
612,98	1259,50
613,17	1290,22
613,36	1298,41
613,55	1243,12
613,74	1282,03
613,93	1275,88
614,13	1245,16
614,32	1296,36
614,51	1239,02
614,70	1277,93
614,89	1298,41
615,08	1230,83
615,28	1314,80
615,47	1302,51
615,66	1304,56
615,85	1333,23
616,04	1269,74
616,23	1312,75
616,42	1220,59
616,62	1312,75
616,81	1206,25
617,00	1265,64
617,19	1290,22
617,38	1257,45
617,57	1306,60
617,76	1286,12
617,95	1267,69
618,15	1265,64
618,34	1265,64
618,53	1265,64
618,72	1224,69
618,91	1292,27
619,10	1273,84
619,29	1310,70
619,48	1255,40
619,68	1228,78
619,87	1243,12
620,06	1241,07
620,25	1241,07
620,44	1286,12
620,63	1288,17
620,82	1263,60
621,01	1269,74
621,20	1300,46
621,39	1241,07
621,59	1222,64
621,78	1327,08
621,97	1282,03
622,16	1333,23
622,35	1269,74
622,54	1187,82
622,73	1261,55
622,92	1288,17
623,11	1322,99
623,30	1294,32
623,49	1200,11
623,68	1245,16
623,88	1269,74
624,07	1267,69
624,26	1310,70
624,45	1345,52
624,64	1288,17
624,83	1296,36
625,02	1292,27
625,21	1294,32
625,40	1306,60
625,59	1368,04
625,78	1257,45
625,97	1243,12
626,16	1300,46
626,35	1216,49
626,54	1267,69
626,74	1239,02
626,93	1322,99
627,12	1232,88
627,31	1269,74
627,50	1279,98
627,69	1298,41
627,88	1304,56
628,07	1228,78
628,26	1232,88
628,45	1308,65
628,64	1331,18
628,83	1277,93
629,02	1290,22
629,21	1370,09
629,40	1253,36
629,59	1308,65
629,78	1320,94
629,97	1263,60
630,16	1234,93
630,35	1267,69
630,54	1316,84
630,73	1296,36
630,92	1302,51
631,11	1312,75
631,30	1320,94
631,49	1411,05
631,68	1697,77
631,87	1939,43
632,06	2645,98
632,25	2897,88
632,44	3762,12
632,63	5478,32
632,82	10135,40
633,01	18040,56
633,20	15527,70
633,39	13035,32
633,58	8724,35
633,77	4620,22
633,96	2420,70
634,15	2047,97
634,34	1695,72
634,53	1585,13
634,72	1572,84
634,91	1527,78
635,10	1525,74
635,29	1380,33
635,48	1452,01
635,67	1392,62
635,86	1378,28
636,05	1353,71
636,24	1357,80
636,43	1288,17
636,62	1347,56
636,81	1308,65
637,00	1363,95
637,19	1327,08
637,38	1443,82
637,57	1363,95
637,76	1363,95
637,95	1298,41
638,14	1310,70
638,33	1341,42
638,52	1284,08
638,71	1257,45
638,89	1306,60
639,08	1404,91
639,27	1296,36
639,46	1337,32
639,65	1351,66
639,84	1273,84
640,03	1269,74
640,22	1314,80
640,41	1292,27
640,60	1318,89
640,79	1167,34
640,98	1273,84
641,17	1271,79
641,36	1284,08
641,55	1210,35
641,74	1263,60
641,92	1347,56
642,11	1284,08
642,30	1355,76
642,49	1300,46
642,68	1357,80
642,87	1273,84
643,06	1247,21
643,25	1316,84
643,44	1273,84
643,63	1253,36
643,82	1228,78
644,00	1249,26
644,19	1292,27
644,38	1224,69
644,57	1322,99
644,76	1314,80
644,95	1249,26
645,14	1245,16
645,33	1341,42
645,52	1218,54
645,71	1267,69
645,89	1271,79
646,08	1343,47
646,27	1239,02
646,46	1312,75
646,65	1230,83
646,84	1359,85
647,03	1347,56
647,22	1279,98
647,40	1310,70
647,59	1255,40
647,78	1243,12
647,97	1257,45
648,16	1284,08
648,35	1282,03
648,54	1343,47
648,73	1255,40
648,91	1257,45
649,10	1245,16
649,29	1216,49
649,48	1308,65
649,67	1257,45
649,86	1183,73
650,05	1298,41
650,23	1306,60
650,42	1179,63
650,61	1282,03
650,80	1327,08
650,99	1292,27
651,18	1236,97
651,36	1337,32
651,55	1296,36
651,74	1310,70
651,93	1277,93
652,12	1298,41
652,31	1300,46
652,49	1290,22
652,68	1236,97
652,87	1249,26
653,06	1228,78
653,25	1327,08
653,44	1279,98
653,62	1273,84
653,81	1265,64
654,00	1304,56
654,19	1310,70
654,38	1277,93
654,56	1218,54
654,75	1255,40
654,94	1261,55
655,13	1273,84
655,32	1239,02
655,51	1333,23
655,69	1290,22
655,88	1230,83
656,07	1263,60
656,26	1282,03
656,45	1314,80
656,63	1345,52
656,82	1220,59
657,01	1277,93
657,20	1288,17
657,38	1267,69
657,57	1257,45
657,76	1335,28
657,95	1253,36
658,14	1255,40
658,32	1290,22
658,51	1345,52
658,70	1304,56
658,89	1222,64
659,08	1327,08
659,26	1302,51
659,45	1279,98
659,64	1316,84
659,83	1220,59
660,01	1232,88
660,20	1189,87
660,39	1304,56
660,58	1263,60
660,76	1175,53
660,95	1265,64
661,14	1216,49
661,33	1310,70
661,51	1214,45
661,70	1247,21
661,89	1282,03
662,08	1191,92
662,26	1286,12
662,45	1226,73
662,64	1277,93
662,83	1327,08
663,01	1251,31
663,20	1263,60
663,39	1245,16
663,58	1296,36
663,76	1269,74
663,95	1263,60
664,14	1245,16
664,32	1288,17
664,51	1288,17
664,70	1322,99
664,89	1294,32
665,07	1220,59
665,26	1300,46
665,45	1267,69
665,64	1279,98
665,82	1265,64
666,01	1290,22
666,20	1302,51
666,38	1261,55
666,57	1312,75
666,76	1239,02
666,95	1251,31
667,13	1306,60
667,32	1216,49
667,51	1312,75
667,69	1200,11
667,88	1232,88
668,07	1259,50
668,25	1286,12
668,44	1284,08
668,63	1253,36
668,81	1234,93
669,00	1277,93
669,19	1251,31
669,38	1294,32
669,56	1325,04
669,75	1304,56
669,94	1249,26
670,12	1232,88
670,31	1263,60
670,50	1261,55
670,68	1267,69
670,87	1251,31
671,06	1220,59
671,24	1257,45
671,43	1277,93
671,62	1236,97
671,80	1255,40
671,99	1282,03
672,18	1339,37
672,36	1257,45
672,55	1253,36
672,74	1341,42
672,92	1316,84
673,11	1275,88
673,29	1267,69
673,48	1273,84
673,67	1296,36
673,85	1255,40
674,04	1210,35
674,23	1253,36
674,41	1247,21
674,60	1144,81
674,79	1353,71
674,97	1370,09
675,16	1218,54
675,34	1267,69
675,53	1198,06
675,72	1253,36
675,90	1304,56
676,09	1214,45
676,28	1236,97
676,46	1259,50
676,65	1271,79
676,83	1273,84
677,02	1249,26
677,21	1249,26
677,39	1236,97
677,58	1222,64
677,77	1279,98
677,95	1257,45
678,14	1239,02
678,32	1275,88
678,51	1294,32
678,70	1247,21
678,88	1277,93
679,07	1230,83
679,25	1255,40
679,44	1327,08
679,63	1216,49
679,81	1322,99
680,00	1206,25
680,18	1224,69
680,37	1282,03
680,55	1277,93
680,74	1320,94
680,93	1269,74
681,11	1243,12
681,30	1253,36
681,48	1230,83
681,67	1343,47
681,85	1318,89
682,04	1279,98
682,23	1249,26
682,41	1282,03
682,60	1236,97
682,78	1232,88
682,97	1257,45
683,15	1286,12
683,34	1298,41
683,53	1253,36
683,71	1327,08
683,90	1243,12
684,08	1282,03
684,27	1204,21
684,45	1343,47
684,64	1269,74
684,82	1271,79
685,01	1239,02
685,19	1218,54
685,38	1277,93
685,57	1298,41
685,75	1290,22
685,94	1329,13
686,12	1292,27
686,31	1261,55
686,49	1320,94
686,68	1232,88
686,86	1243,12
687,05	1251,31
687,23	1294,32
687,42	1218,54
687,60	1261,55
687,79	1249,26
687,97	1298,41
688,16	1251,31
688,34	1298,41
688,53	1185,77
688,71	1298,41
688,90	1220,59
689,08	1318,89
689,27	1290,22
689,45	1294,32
689,64	1257,45
689,82	1247,21
690,01	1269,74
690,19	1339,37
690,38	1279,98
690,56	1286,12
690,75	1263,60
690,93	1232,88
691,12	1294,32
691,30	1269,74
691,49	1277,93
691,67	1300,46
691,86	1263,60
692,04	1226,73
692,23	1282,03
692,41	1247,21
692,60	1327,08
692,78	1357,80
692,97	1277,93
693,15	1290,22
693,34	1232,88
693,52	1327,08
693,71	1304,56
693,89	1306,60
694,08	1290,22
694,26	1265,64
694,44	1296,36
694,63	1247,21
694,81	1288,17
695,00	1222,64
695,18	1263,60
695,37	1325,04
695,55	1279,98
695,74	1302,51
695,92	1302,51
696,10	1263,60
696,29	1269,74
696,47	1249,26
696,66	1265,64
696,84	1318,89
697,03	1282,03
697,21	1347,56
697,40	1300,46
697,58	1208,30
697,76	1206,25
697,95	1345,52
698,13	1306,60
698,32	1232,88
698,50	1329,13
698,68	1269,74
698,87	1253,36
699,05	1255,40
699,24	1239,02
699,42	1273,84
699,61	1171,44
699,79	1185,77
699,97	1273,84
700,16	1236,97
700,34	1210,35
700,53	1245,16
700,71	1271,79
700,89	1267,69
701,08	1271,79
701,26	1298,41
701,45	1353,71
701,63	1310,70
701,81	1271,79
702,00	1230,83
702,18	1327,08
702,37	1220,59
702,55	1273,84
702,73	1165,29
702,92	1243,12
703,10	1273,84
703,28	1351,66
703,47	1290,22
703,65	1259,50
703,84	1234,93
704,02	1247,21
704,20	1341,42
704,39	1232,88
704,57	1273,84
704,75	1243,12
704,94	1290,22
705,12	1306,60
705,30	1263,60
705,49	1253,36
705,67	1296,36
705,86	1261,55
706,04	1294,32
706,22	1255,40
706,41	1249,26
706,59	1241,07
706,77	1216,49
706,96	1228,78
707,14	1277,93
707,32	1279,98
707,51	1255,40
707,69	1251,31
707,87	1277,93
708,06	1277,93
708,24	1200,11
708,42	1288,17
708,61	1286,12
708,79	1232,88
708,97	1249,26
709,16	1249,26
709,34	1239,02
709,52	1296,36
709,71	1306,60
709,89	1257,45
710,07	1271,79
710,26	1232,88
710,44	1279,98
710,62	1247,21
710,80	1277,93
710,99	1259,50
711,17	1300,46
711,35	1306,60
711,54	1273,84
711,72	1306,60
711,90	1216,49
712,09	1232,88
712,27	1257,45
712,45	1267,69
712,63	1257,45
712,82	1243,12
713,00	1273,84
713,18	1308,65
713,37	1263,60
713,55	1216,49
713,73	1251,31
713,91	1263,60
714,10	1300,46
714,28	1253,36
714,46	1304,56
714,65	1267,69
714,83	1314,80
715,01	1253,36
715,19	1241,07
715,38	1241,07
715,56	1206,25
715,74	1259,50
715,92	1351,66
716,11	1261,55
716,29	1343,47
716,47	1232,88
716,65	1288,17
716,84	1236,97
717,02	1214,45
717,20	1318,89
717,38	1218,54
717,57	1288,17
717,75	1261,55
717,93	1220,59
718,11	1277,93
718,30	1239,02
718,48	1255,40
718,66	1316,84
718,84	1329,13
719,03	1284,08
719,21	1269,74
719,39	1325,04
719,57	1284,08
719,75	1239,02
719,94	1337,32
720,12	1284,08
720,30	1257,45
720,48	1220,59
720,67	1286,12
720,85	1247,21
721,03	1292,27
721,21	1304,56
721,39	1198,06
721,58	1216,49
721,76	1255,40
721,94	1259,50
722,12	1202,16
722,30	1259,50
722,49	1230,83
722,67	1282,03
722,85	1304,56
723,03	1273,84
723,21	1247,21
723,40	1322,99
723,58	1257,45
723,76	1282,03
723,94	1222,64
724,12	1232,88
724,30	1241,07
724,49	1335,28
724,67	1263,60
724,85	1282,03
725,03	1339,37
725,21	1331,18
725,40	1314,80
725,58	1247,21
725,76	1288,17
725,94	1296,36
726,12	1267,69
726,30	1236,97
726,49	1232,88
726,67	1296,36
726,85	1286,12
727,03	1265,64
727,21	1302,51
727,39	1298,41
727,57	1286,12
727,76	1257,45
727,94	1296,36
728,12	1294,32
728,30	1267,69
728,48	1245,16
728,66	1255,40
728,84	1267,69
729,03	1212,40
729,21	1335,28
729,39	1259,50
729,57	1329,13
729,75	1261,55
729,93	1298,41
730,11	1234,93
730,30	1220,59
730,48	1222,64
730,66	1298,41
730,84	1263,60
731,02	1298,41
731,20	1284,08
731,38	1341,42
731,56	1232,88
731,74	1208,30
731,93	1269,74
732,11	1241,07
732,29	1277,93
732,47	1259,50
732,65	1306,60
732,83	1245,16
733,01	1298,41
733,19	1337,32
733,37	1253,36
733,56	1329,13
733,74	1241,07
733,92	1181,68
734,10	1269,74
734,28	1251,31
734,46	1302,51
734,64	1279,98
734,82	1212,40
735,00	1306,60
735,18	1351,66
735,36	1200,11
735,54	1253,36
735,73	1263,60
735,91	1290,22
736,09	1239,02
736,27	1314,80
736,45	1222,64
736,63	1312,75
736,81	1318,89
736,99	1216,49
737,17	1232,88
737,35	1216,49
737,53	1302,51
737,71	1251,31
737,89	1306,60
738,07	1245,16
738,25	1234,93
738,43	1271,79
738,61	1312,75
738,80	1290,22
738,98	1279,98
739,16	1300,46
739,34	1220,59
739,52	1337,32
739,70	1284,08
739,88	1269,74
740,06	1255,40
740,24	1267,69
740,42	1310,70
740,60	1355,76
740,78	1300,46
740,96	1269,74
741,14	1316,84
741,32	1189,87
741,50	1273,84
741,68	1329,13
741,86	1322,99
742,04	1216,49
742,22	1339,37
742,40	1277,93
742,58	1314,80
742,76	1265,64
742,94	1296,36
743,12	1273,84
743,30	1247,21
743,48	1304,56
743,66	1247,21
743,84	1241,07
744,02	1308,65
744,20	1220,59
744,38	1322,99
744,56	1273,84
744,74	1290,22
744,92	1363,95
745,10	1214,45
745,28	1247,21
745,46	1279,98
745,64	1308,65
745,82	1271,79
746,00	1282,03
746,18	1224,69
746,36	1230,83
746,54	1269,74
746,72	1271,79
746,90	1251,31
747,08	1206,25
747,26	1308,65
747,44	1312,75
747,62	1279,98
747,80	1159,15
747,98	1251,31
748,15	1308,65
748,33	1253,36
748,51	1261,55
748,69	1279,98
748,87	1275,88
749,05	1230,83
749,23	1355,76
749,41	1290,22
749,59	1271,79
749,77	1294,32
749,95	1216,49
750,13	1269,74
750,31	1314,80
750,49	1196,01
750,67	1282,03
750,85	1316,84
751,03	1292,27
751,20	1310,70
751,38	1282,03
751,56	1316,84
751,74	1257,45
751,92	1257,45
752,10	1277,93
752,28	1322,99
752,46	1251,31
752,64	1341,42
752,82	1232,88
753,00	1267,69
753,18	1304,56
753,35	1265,64
753,53	1300,46
753,71	1265,64
753,89	1273,84
754,07	1300,46
754,25	1249,26
754,43	1298,41
754,61	1204,21
754,79	1249,26
754,97	1245,16
755,14	1243,12
755,32	1216,49
755,50	1308,65
755,68	1255,40
755,86	1279,98
756,04	1224,69
756,22	1292,27
756,40	1269,74
756,57	1279,98
756,75	1255,40
756,93	1320,94
757,11	1304,56
757,29	1241,07
757,47	1282,03
757,65	1241,07
757,82	1261,55
758,00	1288,17
758,18	1267,69
758,36	1290,22
758,54	1337,32
758,72	1269,74
758,90	1265,64
759,07	1228,78
759,25	1304,56
759,43	1318,89
759,61	1257,45
759,79	1269,74
759,97	1273,84
760,15	1216,49
760,32	1236,97
760,50	1282,03
760,68	1353,71
760,86	1288,17
761,04	1267,69
761,22	1327,08
761,39	1269,74
761,57	1226,73
761,75	1331,18
761,93	1296,36
762,11	1257,45
762,28	1277,93
762,46	1288,17
762,64	1275,88
762,82	1247,21
763,00	1239,02
763,18	1286,12
763,35	1290,22
763,53	1251,31
763,71	1216,49
763,89	1230,83
764,07	1269,74
764,24	1290,22
764,42	1265,64
764,60	1255,40
764,78	1286,12
764,96	1253,36
765,13	1214,45
765,31	1339,37
765,49	1239,02
765,67	1265,64
765,84	1271,79
766,02	1259,50
766,20	1298,41
766,38	1275,88
766,56	1355,76
766,73	1236,97
766,91	1222,64
767,09	1255,40
767,27	1216,49
767,44	1339,37
767,62	1247,21
767,80	1261,55
767,98	1327,08
768,15	1345,52
768,33	1320,94
768,51	1265,64
768,69	1286,12
768,87	1306,60
769,04	1345,52
769,22	1298,41
769,40	1292,27
769,58	1198,06
769,75	1318,89
769,93	1263,60
770,11	1261,55
770,28	1255,40
770,46	1296,36
770,64	1279,98
770,82	1298,41
770,99	1259,50
771,17	1308,65
771,35	1241,07
771,53	1257,45
771,70	1304,56
771,88	1304,56
772,06	1302,51
772,23	1279,98
772,41	1310,70
772,59	1273,84
772,77	1292,27
772,94	1370,09
773,12	1312,75
773,30	1298,41
773,47	1263,60
773,65	1267,69
773,83	1255,40
774,01	1267,69
774,18	1232,88
774,36	1271,79
774,54	1288,17
774,71	1284,08
774,89	1298,41
775,07	1275,88
775,24	1284,08
775,42	1267,69
775,60	1257,45
775,78	1282,03
775,95	1241,07
776,13	1245,16
776,31	1304,56
776,48	1314,80
776,66	1292,27
776,84	1247,21
777,01	1296,36
777,19	1292,27
777,37	1247,21
777,54	1236,97
777,72	1310,70
777,90	1353,71
778,07	1284,08
778,25	1261,55
778,43	1320,94
778,60	1261,55
778,78	1230,83
778,96	1286,12
779,13	1236,97
779,31	1298,41
779,49	1273,84
779,66	1267,69
779,84	1249,26
780,01	1298,41
780,19	1251,31
780,37	1273,84
780,54	1265,64
780,72	1279,98
780,90	1290,22
781,07	1304,56
781,25	1253,36
781,43	1277,93
781,60	1263,60
781,78	1314,80
781,95	1253,36
782,13	1302,51
782,31	1347,56
782,48	1261,55
782,66	1247,21
782,83	1288,17
783,01	1267,69
783,19	1286,12
783,36	1298,41
783,54	1267,69
783,72	1267,69
783,89	1257,45
784,07	1249,26
784,24	1267,69
784,42	1191,92
784,60	1279,98
784,77	1249,26
784,95	1298,41
785,12	1249,26
785,30	1249,26
785,47	1310,70
785,65	1337,32
785,83	1282,03
786,00	1314,80
786,18	1304,56
786,35	1202,16
786,53	1212,40
786,71	1267,69
786,88	1212,40
787,06	1239,02
787,23	1306,60
787,41	1265,64
787,58	1308,65
787,76	1265,64
787,94	1187,82
788,11	1298,41
788,29	1224,69
788,46	1286,12
788,64	1179,63
788,81	1302,51
788,99	1273,84
789,16	1343,47
789,34	1265,64
789,52	1284,08
789,69	1275,88
789,87	1243,12
790,04	1282,03
790,22	1228,78
790,39	1314,80
790,57	1249,26
790,74	1335,28
790,92	1290,22
791,09	1298,41
791,27	1298,41
791,44	1241,07
791,62	1316,84
791,79	1329,13
791,97	1327,08
792,15	1292,27
792,32	1208,30
792,50	1263,60
792,67	1282,03
792,85	1253,36
793,02	1361,90
793,20	1284,08
793,37	1263,60
793,55	1239,02
793,72	1284,08
793,90	1271,79
794,07	1294,32
794,25	1290,22
794,42	1294,32
794,60	1259,50
794,77	1314,80
794,95	1290,22
795,12	1230,83
795,30	1232,88
795,47	1257,45
795,65	1234,93
795,82	1253,36
796,00	1304,56
796,17	1191,92
796,34	1288,17
796,52	1259,50
796,69	1257,45
796,87	1279,98
797,04	1181,68
797,22	1255,40
797,39	1247,21
797,57	1265,64
797,74	1310,70
797,92	1290,22
798,09	1232,88
798,27	1282,03
798,44	1253,36
798,62	1224,69
798,79	1288,17
798,96	1208,30
799,14	1304,56
799,31	1292,27
799,49	1296,36
799,66	1271,79
799,84	1261,55
800,01	1296,36
800,19	1253,36
800,36	1247,21
800,53	1249,26
800,71	1236,97
800,88	1320,94
801,06	1187,82
801,23	1284,08
801,41	1259,50
801,58	1279,98
801,75	1249,26
801,93	1259,50
802,10	1296,36
802,28	1228,78
802,45	1245,16
802,63	1286,12
802,80	1206,25
802,97	1271,79
803,15	1269,74
803,32	1243,12
803,50	1302,51
803,67	1318,89
803,84	1282,03
804,02	1257,45
804,19	1290,22
804,37	1327,08
804,54	1298,41
804,71	1236,97
804,89	1236,97
805,06	1339,37
805,24	1236,97
805,41	1243,12
805,58	1271,79
805,76	1286,12
805,93	1247,21
806,10	1290,22
806,28	1165,29
806,45	1267,69
806,63	1308,65
806,80	1267,69
806,97	1306,60
807,15	1320,94
807,32	1241,07
807,49	1232,88
807,67	1239,02
807,84	1253,36
808,01	1253,36
808,19	1263,60
808,36	1228,78
808,54	1308,65
808,71	1277,93
808,88	1271,79
809,06	1308,65
809,23	1325,04
809,40	1251,31
809,58	1282,03
809,75	1288,17
809,92	1198,06
810,10	1290,22
810,27	1290,22
810,44	1294,32
810,62	1273,84
810,79	1253,36
810,96	1230,83
811,14	1265,64
811,31	1251,31
811,48	1253,36
811,66	1230,83
811,83	1263,60
812,00	1288,17
812,18	1275,88
812,35	1337,32
812,52	1290,22
812,69	1290,22
812,87	1230,83
813,04	1275,88
813,21	1255,40
813,39	1288,17
813,56	1284,08
813,73	1355,76
813,91	1310,70
814,08	1255,40
814,25	1257,45
814,42	1329,13
814,60	1232,88
814,77	1277,93
814,94	1226,73
815,12	1234,93
815,29	1314,80
815,46	1247,21
815,63	1247,21
815,81	1298,41
815,98	1228,78
816,15	1273,84
816,33	1251,31
816,50	1206,25
816,67	1279,98
816,84	1302,51
817,02	1247,21
817,19	1249,26
817,36	1247,21
817,53	1269,74
817,71	1236,97
817,88	1202,16
818,05	1255,40
818,22	1206,25
818,40	1279,98
818,57	1247,21
818,74	1249,26
818,91	1089,52
819,09	1314,80
819,26	1226,73
819,43	1337,32
819,60	1263,60
819,78	1269,74
819,95	1243,12
820,12	1212,40
820,29	1300,46
820,47	1245,16
820,64	1265,64
820,81	1290,22
820,98	1279,98
821,15	1249,26
821,33	1318,89
821,50	1253,36
821,67	1300,46
821,84	1241,07
822,02	1271,79
822,19	1232,88
822,36	1255,40
822,53	1300,46
822,70	1294,32
822,88	1234,93
823,05	1314,80
823,22	1255,40
823,39	1261,55
823,56	1298,41
823,74	1257,45
823,91	1267,69
824,08	1294,32
824,25	1300,46
824,42	1241,07
824,60	1320,94
824,77	1331,18
824,94	1282,03
825,11	1327,08
825,28	1245,16
825,45	1216,49
825,63	1284,08
825,80	1296,36
825,97	1277,93
826,14	1275,88
826,31	1212,40
826,48	1263,60
826,66	1294,32
826,83	1269,74
827,00	1206,25
827,17	1288,17
827,34	1206,25
827,51	1245,16
827,69	1292,27
827,86	1234,93
828,03	1255,40
828,20	1265,64
828,37	1224,69
828,54	1327,08
828,71	1236,97
828,89	1271,79
829,06	1357,80
829,23	1314,80
829,40	1247,21
829,57	1245,16
829,74	1337,32
829,91	1271,79
830,09	1257,45
830,26	1255,40
830,43	1271,79
830,60	1269,74
830,77	1314,80
830,94	1232,88
831,11	1269,74
831,28	1241,07
831,46	1292,27
831,63	1294,32
831,80	1273,84
831,97	1267,69
832,14	1361,90
832,31	1232,88
832,48	1214,45
832,65	1247,21
832,82	1230,83
832,99	1279,98
833,17	1241,07
833,34	1247,21
833,51	1298,41
833,68	1302,51
833,85	1322,99
834,02	1257,45
834,19	1255,40
834,36	1230,83
834,53	1279,98
834,70	1355,76
834,87	1275,88
835,04	1208,30
835,22	1298,41
835,39	1236,97
835,56	1271,79
835,73	1216,49
835,90	1298,41
836,07	1210,35
836,24	1228,78
836,41	1253,36
836,58	1247,21
836,75	1275,88
836,92	1271,79
837,09	1259,50
837,26	1329,13
837,43	1320,94
837,60	1193,97
837,77	1243,12
837,94	1257,45
838,12	1298,41
838,29	1290,22
838,46	1312,75
838,63	1261,55
838,80	1269,74
838,97	1275,88
839,14	1261,55
839,31	1292,27
839,48	1251,31
839,65	1271,79
839,82	1290,22
839,99	1288,17
840,16	1374,19
840,33	1310,70
840,50	1253,36
840,67	1288,17
840,84	1220,59
841,01	1349,61
841,18	1359,85
841,35	1331,18
841,52	1269,74
841,69	1267,69
841,86	1279,98
842,03	1222,64
842,20	1279,98
842,37	1261,55
842,54	1333,23
842,71	1234,93
842,88	1232,88
843,05	1306,60
843,22	1312,75
843,39	1275,88
843,56	1312,75
843,73	1310,70
843,90	1320,94
844,07	1267,69
844,24	1320,94
844,41	1218,54
844,58	1279,98
844,75	1243,12
844,92	1286,12
845,09	1329,13
845,26	1331,18
845,43	1247,21
845,60	1329,13
845,77	1355,76
845,94	1236,97
846,10	1275,88
846,27	1226,73
846,44	1308,65
846,61	1306,60
846,78	1218,54
846,95	1345,52
847,12	1204,21
847,29	1308,65
847,46	1243,12
847,63	1206,25
847,80	1226,73
847,97	1273,84
848,14	1269,74
848,31	1310,70
848,48	1261,55
848,65	1255,40
848,82	1247,21
848,98	1241,07
849,15	1277,93
849,32	1339,37
849,49	1228,78
849,66	1243,12
849,83	1302,51
850,00	1265,64
850,17	1296,36
850,34	1316,84
850,51	1296,36
850,68	1179,63
850,85	1282,03
851,01	1224,69
851,18	1298,41
851,35	1302,51
851,52	1226,73
851,69	1275,88
851,86	1265,64
852,03	1239,02
852,20	1251,31
852,37	1220,59
852,53	1241,07
852,70	1251,31
852,87	1243,12
853,04	1265,64
853,21	1245,16
853,38	1269,74
853,55	1331,18
853,72	1331,18
853,89	1228,78
854,05	1265,64
854,22	1263,60
854,39	1310,70
854,56	1239,02
854,73	1314,80
854,90	1241,07
855,07	1253,36
855,23	1271,79
855,40	1232,88
855,57	1198,06
855,74	1236,97
855,91	1243,12
856,08	1232,88
856,25	1243,12
856,41	1261,55
856,58	1288,17
856,75	1304,56
856,92	1302,51
857,09	1267,69
857,26	1239,02
857,42	1333,23
857,59	1263,60
857,76	1249,26
857,93	1161,20
858,10	1292,27
858,27	1290,22
858,43	1294,32
858,60	1302,51
858,77	1185,77
858,94	1335,28
859,11	1284,08
859,27	1228,78
859,44	1241,07
859,61	1202,16
859,78	1236,97
859,95	1277,93
860,12	1218,54
860,28	1259,50
860,45	1245,16
860,62	1198,06
860,79	1220,59
860,95	1275,88
861,12	1312,75
861,29	1241,07
861,46	1286,12
861,63	1265,64
861,79	1310,70
861,96	1288,17
862,13	1261,55
862,30	1312,75
862,47	1284,08
862,63	1220,59
862,80	1290,22
862,97	1255,40
863,14	1241,07
863,30	1294,32
863,47	1316,84
863,64	1185,77
863,81	1255,40
863,97	1189,87
864,14	1275,88
864,31	1292,27
864,48	1232,88
864,65	1308,65
864,81	1327,08
864,98	1251,31
865,15	1279,98
865,32	1294,32
865,48	1245,16
865,65	1298,41
865,82	1273,84
865,98	1279,98
866,15	1302,51
866,32	1208,30
866,49	1232,88
866,65	1271,79
866,82	1384,43
866,99	1263,60
867,16	1271,79
867,32	1271,79
867,49	1193,97
867,66	1261,55
867,83	1236,97
867,99	1239,02
868,16	1306,60
868,33	1306,60
868,49	1286,12
868,66	1218,54
868,83	1286,12
868,99	1249,26
869,16	1302,51
869,33	1269,74
869,50	1263,60
869,66	1247,21
869,83	1329,13
870,00	1239,02
870,16	1394,67
870,33	1335,28
870,50	1214,45
870,66	1298,41
870,83	1349,61
871,00	1279,98
871,17	1312,75
871,33	1236,97
871,50	1302,51
871,67	1255,40
871,83	1329,13
872,00	1298,41
872,17	1267,69
872,33	1263,60
872,50	1282,03
872,67	1249,26
872,83	1267,69
873,00	1277,93
873,17	1249,26
873,33	1322,99
873,50	1269,74
873,67	1259,50
873,83	1267,69
874,00	1259,50
874,16	1294,32
874,33	1286,12
874,50	1257,45
874,66	1402,86
874,83	1306,60
875,00	1263,60
875,16	1327,08
875,33	1255,40
875,50	1232,88
875,66	1302,51
875,83	1220,59
875,99	1327,08
876,16	1239,02
876,33	1288,17
876,49	1261,55
876,66	1214,45
876,83	1296,36
876,99	1259,50
877,16	1202,16
877,32	1265,64
877,49	1269,74
877,66	1296,36
877,82	1331,18
877,99	1255,40
878,15	1259,50
878,32	1212,40
878,49	1298,41
878,65	1263,60
878,82	1230,83
878,98	1302,51
879,15	1271,79
879,32	1271,79
879,48	1208,30
879,65	1275,88
879,81	1239,02
879,98	1288,17
880,15	1282,03
880,31	1294,32
880,48	1222,64
880,64	1267,69
880,81	1310,70
880,97	1255,40
881,14	1265,64
881,31	1241,07
881,47	1269,74
881,64	1230,83
881,80	1241,07
881,97	1251,31
882,13	1212,40
882,30	1322,99
882,47	1249,26
882,63	1245,16
882,80	1214,45
882,96	1261,55
883,13	1273,84
883,29	1298,41
883,46	1304,56
883,62	1222,64
883,79	1218,54
883,95	1298,41
884,12	1265,64
884,29	1294,32
884,45	1306,60
884,62	1269,74
884,78	1271,79
884,95	1296,36
885,11	1261,55
885,28	1230,83
885,44	1306,60
885,61	1284,08
885,77	1288,17
885,94	1314,80
886,10	1263,60
886,27	1282,03
886,43	1249,26
886,60	1277,93
886,76	1316,84
886,93	1277,93
887,09	1300,46
887,26	1273,84
887,42	1249,26
887,59	1239,02
887,75	1255,40
887,92	1282,03
888,08	1169,39
888,25	1363,95
888,41	1314,80
888,58	1304,56
888,74	1214,45
888,91	1290,22
>>>>>End Processed Spectral Data<<<<<
