SpectraSuite Data File
++++++++++++++++++++++++++++++++++++
Date: Sun Apr 03 17:26:04 CEST 2016
User: root
Dark Spectrum Present: No
Reference Spectrum Present: No
Number of Sampled Component Spectra: 1
Spectrometers: USB4C02835
Integration Time (usec): 10000 (USB4C02835)
Spectra Averaged: 1 (USB4C02835)
Boxcar Smoothing: 0 (USB4C02835)
Correct for Electrical Dark: No (USB4C02835)
Strobe/Lamp Enabled: No (USB4C02835)
Correct for Detector Non-linearity: No (USB4C02835)
Correct for Stray Light: No (USB4C02835)
Number of Pixels in Processed Spectrum: 3648
>>>>>Begin Processed Spectral Data<<<<<
177,47	1230,83
177,69	1230,83
177,91	1230,83
178,13	1310,70
178,36	1327,08
178,58	1329,13
178,80	1218,54
179,02	1277,93
179,24	1322,99
179,46	1282,03
179,68	1196,01
179,90	1236,97
180,13	1294,32
180,35	1241,07
180,57	1275,88
180,79	1308,65
181,01	1269,74
181,23	1310,70
181,45	1316,84
181,67	1294,32
181,90	1261,55
182,12	1310,70
182,34	1286,12
182,56	1329,13
182,78	1247,21
183,00	1286,12
183,22	1277,93
183,44	1271,79
183,66	1241,07
183,89	1282,03
184,11	1255,40
184,33	1294,32
184,55	1298,41
184,77	1230,83
184,99	1230,83
185,21	1282,03
185,43	1275,88
185,65	1294,32
185,87	1304,56
186,10	1314,80
186,32	1236,97
186,54	1298,41
186,76	1249,26
186,98	1245,16
187,20	1279,98
187,42	1251,31
187,64	1200,11
187,86	1306,60
188,08	1312,75
188,30	1294,32
188,52	1288,17
188,75	1277,93
188,97	1269,74
189,19	1243,12
189,41	1204,21
189,63	1241,07
189,85	1263,60
190,07	1296,36
190,29	1257,45
190,51	1183,73
190,73	1216,49
190,95	1277,93
191,17	1269,74
191,39	1302,51
191,61	1304,56
191,84	1228,78
192,06	1263,60
192,28	1169,39
192,50	1251,31
192,72	1273,84
192,94	1196,01
193,16	1230,83
193,38	1243,12
193,60	1243,12
193,82	1273,84
194,04	1292,27
194,26	1216,49
194,48	1253,36
194,70	1251,31
194,92	1220,59
195,14	1249,26
195,36	1220,59
195,58	1327,08
195,80	1298,41
196,02	1269,74
196,24	1257,45
196,46	1263,60
196,69	1269,74
196,91	1286,12
197,13	1316,84
197,35	1259,50
197,57	1253,36
197,79	1247,21
198,01	1236,97
198,23	1257,45
198,45	1296,36
198,67	1222,64
198,89	1269,74
199,11	1251,31
199,33	1263,60
199,55	1339,37
199,77	1249,26
199,99	1271,79
200,21	1202,16
200,43	1304,56
200,65	1284,08
200,87	1306,60
201,09	1296,36
201,31	1265,64
201,53	1294,32
201,75	1290,22
201,97	1286,12
202,19	1275,88
202,41	1359,85
202,63	1257,45
202,85	1300,46
203,07	1261,55
203,29	1247,21
203,51	1277,93
203,73	1290,22
203,95	1304,56
204,17	1241,07
204,39	1310,70
204,61	1269,74
204,83	1212,40
205,05	1314,80
205,27	1318,89
205,49	1296,36
205,71	1304,56
205,93	1200,11
206,15	1232,88
206,37	1339,37
206,59	1230,83
206,81	1261,55
207,03	1253,36
207,25	1288,17
207,47	1251,31
207,69	1253,36
207,91	1181,68
208,13	1224,69
208,34	1232,88
208,56	1300,46
208,78	1243,12
209,00	1251,31
209,22	1200,11
209,44	1277,93
209,66	1302,51
209,88	1329,13
210,10	1255,40
210,32	1216,49
210,54	1255,40
210,76	1247,21
210,98	1226,73
211,20	1245,16
211,42	1232,88
211,64	1318,89
211,86	1220,59
212,08	1269,74
212,30	1339,37
212,52	1210,35
212,74	1294,32
212,96	1279,98
213,17	1257,45
213,39	1318,89
213,61	1220,59
213,83	1271,79
214,05	1386,47
214,27	1257,45
214,49	1204,21
214,71	1251,31
214,93	1292,27
215,15	1230,83
215,37	1257,45
215,59	1189,87
215,81	1255,40
216,03	1253,36
216,24	1212,40
216,46	1232,88
216,68	1302,51
216,90	1271,79
217,12	1230,83
217,34	1243,12
217,56	1269,74
217,78	1243,12
218,00	1232,88
218,22	1243,12
218,44	1214,45
218,66	1269,74
218,87	1279,98
219,09	1249,26
219,31	1193,97
219,53	1298,41
219,75	1337,32
219,97	1314,80
220,19	1273,84
220,41	1214,45
220,63	1196,01
220,85	1247,21
221,06	1239,02
221,28	1181,68
221,50	1294,32
221,72	1347,56
221,94	1230,83
222,16	1292,27
222,38	1214,45
222,60	1261,55
222,82	1370,09
223,03	1253,36
223,25	1273,84
223,47	1173,49
223,69	1288,17
223,91	1243,12
224,13	1220,59
224,35	1366,00
224,57	1245,16
224,78	1259,50
225,00	1257,45
225,22	1239,02
225,44	1282,03
225,66	1320,94
225,88	1306,60
226,10	1292,27
226,32	1255,40
226,53	1267,69
226,75	1251,31
226,97	1267,69
227,19	1312,75
227,41	1302,51
227,63	1181,68
227,85	1259,50
228,06	1345,52
228,28	1282,03
228,50	1253,36
228,72	1310,70
228,94	1269,74
229,16	1251,31
229,37	1314,80
229,59	1253,36
229,81	1251,31
230,03	1290,22
230,25	1267,69
230,47	1282,03
230,69	1320,94
230,90	1273,84
231,12	1228,78
231,34	1232,88
231,56	1288,17
231,78	1245,16
232,00	1279,98
232,21	1243,12
232,43	1353,71
232,65	1339,37
232,87	1255,40
233,09	1257,45
233,30	1198,06
233,52	1245,16
233,74	1265,64
233,96	1247,21
234,18	1292,27
234,40	1187,82
234,61	1255,40
234,83	1249,26
235,05	1310,70
235,27	1282,03
235,49	1306,60
235,70	1196,01
235,92	1304,56
236,14	1290,22
236,36	1226,73
236,58	1269,74
236,79	1241,07
237,01	1261,55
237,23	1271,79
237,45	1306,60
237,67	1230,83
237,88	1314,80
238,10	1247,21
238,32	1343,47
238,54	1286,12
238,76	1355,76
238,97	1312,75
239,19	1191,92
239,41	1355,76
239,63	1279,98
239,85	1298,41
240,06	1322,99
240,28	1298,41
240,50	1314,80
240,72	1269,74
240,93	1273,84
241,15	1335,28
241,37	1212,40
241,59	1282,03
241,81	1230,83
242,02	1241,07
242,24	1292,27
242,46	1298,41
242,68	1294,32
242,89	1273,84
243,11	1263,60
243,33	1331,18
243,55	1259,50
243,76	1273,84
243,98	1277,93
244,20	1263,60
244,42	1322,99
244,64	1341,42
244,85	1220,59
245,07	1355,76
245,29	1298,41
245,51	1279,98
245,72	1282,03
245,94	1230,83
246,16	1232,88
246,38	1345,52
246,59	1288,17
246,81	1277,93
247,03	1337,32
247,24	1302,51
247,46	1196,01
247,68	1239,02
247,90	1224,69
248,11	1331,18
248,33	1243,12
248,55	1232,88
248,77	1275,88
248,98	1314,80
249,20	1267,69
249,42	1290,22
249,64	1253,36
249,85	1210,35
250,07	1316,84
250,29	1290,22
250,50	1243,12
250,72	1259,50
250,94	1212,40
251,16	1224,69
251,37	1292,27
251,59	1288,17
251,81	1277,93
252,02	1267,69
252,24	1269,74
252,46	1347,56
252,68	1318,89
252,89	1275,88
253,11	1306,60
253,33	1284,08
253,54	1302,51
253,76	1261,55
253,98	1224,69
254,20	1288,17
254,41	1222,64
254,63	1261,55
254,85	1273,84
255,06	1279,98
255,28	1247,21
255,50	1312,75
255,71	1304,56
255,93	1230,83
256,15	1241,07
256,36	1282,03
256,58	1218,54
256,80	1286,12
257,02	1284,08
257,23	1245,16
257,45	1259,50
257,67	1277,93
257,88	1255,40
258,10	1273,84
258,32	1269,74
258,53	1282,03
258,75	1261,55
258,97	1320,94
259,18	1230,83
259,40	1253,36
259,62	1243,12
259,83	1269,74
260,05	1241,07
260,27	1273,84
260,48	1183,73
260,70	1298,41
260,92	1251,31
261,13	1298,41
261,35	1212,40
261,57	1279,98
261,78	1271,79
262,00	1273,84
262,22	1232,88
262,43	1187,82
262,65	1247,21
262,86	1282,03
263,08	1279,98
263,30	1306,60
263,51	1282,03
263,73	1255,40
263,95	1282,03
264,16	1198,06
264,38	1374,19
264,60	1339,37
264,81	1247,21
265,03	1331,18
265,25	1290,22
265,46	1220,59
265,68	1216,49
265,89	1232,88
266,11	1275,88
266,33	1226,73
266,54	1177,58
266,76	1290,22
266,98	1249,26
267,19	1222,64
267,41	1245,16
267,62	1243,12
267,84	1302,51
268,06	1245,16
268,27	1273,84
268,49	1259,50
268,70	1269,74
268,92	1257,45
269,14	1345,52
269,35	1290,22
269,57	1282,03
269,79	1249,26
270,00	1279,98
270,22	1247,21
270,43	1245,16
270,65	1247,21
270,87	1249,26
271,08	1253,36
271,30	1273,84
271,51	1302,51
271,73	1288,17
271,95	1222,64
272,16	1290,22
272,38	1232,88
272,59	1265,64
272,81	1259,50
273,02	1265,64
273,24	1298,41
273,46	1253,36
273,67	1228,78
273,89	1245,16
274,10	1200,11
274,32	1314,80
274,54	1314,80
274,75	1241,07
274,97	1279,98
275,18	1247,21
275,40	1265,64
275,61	1202,16
275,83	1196,01
276,05	1288,17
276,26	1249,26
276,48	1234,93
276,69	1218,54
276,91	1290,22
277,12	1236,97
277,34	1275,88
277,55	1318,89
277,77	1245,16
277,99	1312,75
278,20	1302,51
278,42	1239,02
278,63	1259,50
278,85	1165,29
279,06	1279,98
279,28	1282,03
279,49	1253,36
279,71	1251,31
279,93	1284,08
280,14	1286,12
280,36	1294,32
280,57	1206,25
280,79	1247,21
281,00	1259,50
281,22	1204,21
281,43	1232,88
281,65	1261,55
281,86	1290,22
282,08	1298,41
282,29	1294,32
282,51	1216,49
282,73	1300,46
282,94	1275,88
283,16	1265,64
283,37	1208,30
283,59	1212,40
283,80	1236,97
284,02	1294,32
284,23	1179,63
284,45	1271,79
284,66	1335,28
284,88	1294,32
285,09	1275,88
285,31	1277,93
285,52	1267,69
285,74	1187,82
285,95	1263,60
286,17	1304,56
286,38	1335,28
286,60	1251,31
286,81	1304,56
287,03	1359,85
287,24	1251,31
287,46	1314,80
287,67	1286,12
287,89	1294,32
288,10	1259,50
288,32	1193,97
288,53	1241,07
288,75	1232,88
288,96	1322,99
289,18	1306,60
289,39	1228,78
289,61	1243,12
289,82	1228,78
290,04	1294,32
290,25	1228,78
290,47	1308,65
290,68	1286,12
290,90	1269,74
291,11	1212,40
291,33	1290,22
291,54	1310,70
291,76	1306,60
291,97	1282,03
292,18	1261,55
292,40	1257,45
292,61	1271,79
292,83	1279,98
293,04	1249,26
293,26	1255,40
293,47	1275,88
293,69	1279,98
293,90	1249,26
294,12	1247,21
294,33	1247,21
294,55	1275,88
294,76	1329,13
294,97	1222,64
295,19	1288,17
295,40	1302,51
295,62	1279,98
295,83	1218,54
296,05	1204,21
296,26	1277,93
296,48	1230,83
296,69	1224,69
296,90	1265,64
297,12	1249,26
297,33	1286,12
297,55	1282,03
297,76	1234,93
297,98	1214,45
298,19	1206,25
298,41	1251,31
298,62	1318,89
298,83	1208,30
299,05	1292,27
299,26	1294,32
299,48	1284,08
299,69	1265,64
299,90	1236,97
300,12	1259,50
300,33	1331,18
300,55	1236,97
300,76	1286,12
300,98	1337,32
301,19	1224,69
301,40	1232,88
301,62	1322,99
301,83	1286,12
302,05	1310,70
302,26	1249,26
302,47	1306,60
302,69	1241,07
302,90	1349,61
303,12	1288,17
303,33	1277,93
303,54	1322,99
303,76	1167,34
303,97	1224,69
304,19	1320,94
304,40	1189,87
304,61	1206,25
304,83	1249,26
305,04	1310,70
305,26	1279,98
305,47	1265,64
305,68	1202,16
305,90	1241,07
306,11	1267,69
306,33	1325,04
306,54	1243,12
306,75	1230,83
306,97	1269,74
307,18	1245,16
307,39	1230,83
307,61	1273,84
307,82	1277,93
308,04	1263,60
308,25	1296,36
308,46	1306,60
308,68	1290,22
308,89	1245,16
309,10	1220,59
309,32	1236,97
309,53	1282,03
309,74	1320,94
309,96	1294,32
310,17	1232,88
310,39	1298,41
310,60	1253,36
310,81	1255,40
311,03	1277,93
311,24	1259,50
311,45	1279,98
311,67	1312,75
311,88	1204,21
312,09	1261,55
312,31	1261,55
312,52	1257,45
312,73	1232,88
312,95	1224,69
313,16	1263,60
313,37	1294,32
313,59	1269,74
313,80	1239,02
314,01	1216,49
314,23	1267,69
314,44	1282,03
314,65	1261,55
314,87	1267,69
315,08	1372,14
315,29	1263,60
315,51	1335,28
315,72	1218,54
315,93	1306,60
316,15	1247,21
316,36	1249,26
316,57	1249,26
316,79	1251,31
317,00	1247,21
317,21	1247,21
317,43	1300,46
317,64	1269,74
317,85	1247,21
318,07	1222,64
318,28	1277,93
318,49	1279,98
318,70	1241,07
318,92	1308,65
319,13	1282,03
319,34	1314,80
319,56	1241,07
319,77	1253,36
319,98	1249,26
320,20	1273,84
320,41	1251,31
320,62	1230,83
320,83	1253,36
321,05	1327,08
321,26	1259,50
321,47	1200,11
321,69	1294,32
321,90	1232,88
322,11	1327,08
322,32	1318,89
322,54	1228,78
322,75	1294,32
322,96	1341,42
323,18	1241,07
323,39	1277,93
323,60	1214,45
323,81	1267,69
324,03	1210,35
324,24	1185,77
324,45	1181,68
324,66	1271,79
324,88	1230,83
325,09	1331,18
325,30	1290,22
325,52	1228,78
325,73	1255,40
325,94	1282,03
326,15	1234,93
326,37	1329,13
326,58	1269,74
326,79	1232,88
327,00	1269,74
327,22	1265,64
327,43	1271,79
327,64	1228,78
327,85	1284,08
328,07	1288,17
328,28	1296,36
328,49	1220,59
328,70	1234,93
328,92	1286,12
329,13	1282,03
329,34	1282,03
329,55	1300,46
329,76	1259,50
329,98	1245,16
330,19	1241,07
330,40	1216,49
330,61	1255,40
330,83	1277,93
331,04	1351,66
331,25	1269,74
331,46	1208,30
331,68	1257,45
331,89	1302,51
332,10	1290,22
332,31	1165,29
332,52	1261,55
332,74	1269,74
332,95	1210,35
333,16	1265,64
333,37	1253,36
333,58	1284,08
333,80	1273,84
334,01	1263,60
334,22	1286,12
334,43	1302,51
334,64	1234,93
334,86	1261,55
335,07	1294,32
335,28	1296,36
335,49	1284,08
335,70	1251,31
335,92	1306,60
336,13	1290,22
336,34	1245,16
336,55	1206,25
336,76	1261,55
336,98	1306,60
337,19	1222,64
337,40	1253,36
337,61	1249,26
337,82	1304,56
338,04	1314,80
338,25	1224,69
338,46	1232,88
338,67	1282,03
338,88	1269,74
339,09	1245,16
339,31	1232,88
339,52	1271,79
339,73	1239,02
339,94	1325,04
340,15	1267,69
340,36	1322,99
340,58	1357,80
340,79	1325,04
341,00	1300,46
341,21	1290,22
341,42	1292,27
341,63	1333,23
341,85	1239,02
342,06	1292,27
342,27	1308,65
342,48	1236,97
342,69	1214,45
342,90	1234,93
343,12	1279,98
343,33	1339,37
343,54	1243,12
343,75	1269,74
343,96	1300,46
344,17	1320,94
344,38	1236,97
344,60	1267,69
344,81	1245,16
345,02	1253,36
345,23	1259,50
345,44	1249,26
345,65	1253,36
345,86	1181,68
346,07	1187,82
346,29	1226,73
346,50	1302,51
346,71	1232,88
346,92	1251,31
347,13	1255,40
347,34	1210,35
347,55	1234,93
347,76	1271,79
347,98	1275,88
348,19	1249,26
348,40	1273,84
348,61	1265,64
348,82	1259,50
349,03	1279,98
349,24	1239,02
349,45	1292,27
349,66	1251,31
349,88	1247,21
350,09	1282,03
350,30	1286,12
350,51	1249,26
350,72	1214,45
350,93	1214,45
351,14	1267,69
351,35	1243,12
351,56	1218,54
351,77	1255,40
351,99	1279,98
352,20	1343,47
352,41	1314,80
352,62	1255,40
352,83	1273,84
353,04	1241,07
353,25	1288,17
353,46	1279,98
353,67	1226,73
353,88	1241,07
354,09	1241,07
354,30	1210,35
354,52	1236,97
354,73	1298,41
354,94	1243,12
355,15	1181,68
355,36	1253,36
355,57	1257,45
355,78	1222,64
355,99	1273,84
356,20	1290,22
356,41	1314,80
356,62	1239,02
356,83	1345,52
357,04	1249,26
357,25	1279,98
357,46	1245,16
357,68	1236,97
357,89	1261,55
358,10	1236,97
358,31	1292,27
358,52	1247,21
358,73	1279,98
358,94	1279,98
359,15	1208,30
359,36	1228,78
359,57	1259,50
359,78	1306,60
359,99	1236,97
360,20	1300,46
360,41	1322,99
360,62	1296,36
360,83	1306,60
361,04	1255,40
361,25	1320,94
361,46	1273,84
361,67	1279,98
361,88	1247,21
362,09	1263,60
362,30	1230,83
362,51	1228,78
362,72	1288,17
362,93	1239,02
363,14	1273,84
363,35	1370,09
363,56	1357,80
363,78	1284,08
363,99	1271,79
364,20	1218,54
364,41	1300,46
364,62	1255,40
364,83	1298,41
365,04	1273,84
365,25	1255,40
365,46	1265,64
365,67	1312,75
365,88	1304,56
366,09	1224,69
366,30	1251,31
366,51	1288,17
366,72	1257,45
366,93	1191,92
367,14	1314,80
367,35	1314,80
367,56	1253,36
367,77	1206,25
367,98	1271,79
368,18	1339,37
368,39	1202,16
368,60	1204,21
368,81	1290,22
369,02	1241,07
369,23	1277,93
369,44	1263,60
369,65	1232,88
369,86	1286,12
370,07	1284,08
370,28	1263,60
370,49	1251,31
370,70	1349,61
370,91	1204,21
371,12	1329,13
371,33	1296,36
371,54	1247,21
371,75	1249,26
371,96	1249,26
372,17	1220,59
372,38	1257,45
372,59	1245,16
372,80	1306,60
373,01	1316,84
373,22	1282,03
373,43	1302,51
373,64	1257,45
373,85	1226,73
374,06	1292,27
374,26	1302,51
374,47	1259,50
374,68	1224,69
374,89	1257,45
375,10	1296,36
375,31	1253,36
375,52	1306,60
375,73	1202,16
375,94	1214,45
376,15	1275,88
376,36	1232,88
376,57	1288,17
376,78	1282,03
376,99	1302,51
377,20	1298,41
377,40	1191,92
377,61	1322,99
377,82	1304,56
378,03	1292,27
378,24	1212,40
378,45	1267,69
378,66	1263,60
378,87	1251,31
379,08	1282,03
379,29	1304,56
379,50	1269,74
379,71	1279,98
379,91	1290,22
380,12	1329,13
380,33	1202,16
380,54	1269,74
380,75	1359,85
380,96	1155,05
381,17	1251,31
381,38	1314,80
381,59	1277,93
381,80	1273,84
382,00	1255,40
382,21	1234,93
382,42	1296,36
382,63	1300,46
382,84	1245,16
383,05	1282,03
383,26	1249,26
383,47	1273,84
383,68	1269,74
383,88	1292,27
384,09	1236,97
384,30	1236,97
384,51	1329,13
384,72	1249,26
384,93	1353,71
385,14	1224,69
385,35	1220,59
385,55	1257,45
385,76	1271,79
385,97	1279,98
386,18	1318,89
386,39	1222,64
386,60	1298,41
386,81	1257,45
387,02	1263,60
387,22	1241,07
387,43	1218,54
387,64	1226,73
387,85	1308,65
388,06	1267,69
388,27	1234,93
388,48	1228,78
388,68	1263,60
388,89	1288,17
389,10	1255,40
389,31	1329,13
389,52	1265,64
389,73	1290,22
389,93	1329,13
390,14	1314,80
390,35	1247,21
390,56	1228,78
390,77	1304,56
390,98	1312,75
391,18	1331,18
391,39	1243,12
391,60	1277,93
391,81	1331,18
392,02	1341,42
392,23	1292,27
392,43	1304,56
392,64	1282,03
392,85	1284,08
393,06	1245,16
393,27	1353,71
393,47	1257,45
393,68	1255,40
393,89	1286,12
394,10	1255,40
394,31	1296,36
394,52	1290,22
394,72	1216,49
394,93	1298,41
395,14	1241,07
395,35	1261,55
395,56	1236,97
395,76	1271,79
395,97	1222,64
396,18	1265,64
396,39	1294,32
396,60	1320,94
396,80	1316,84
397,01	1236,97
397,22	1210,35
397,43	1286,12
397,64	1245,16
397,84	1267,69
398,05	1282,03
398,26	1263,60
398,47	1300,46
398,67	1320,94
398,88	1288,17
399,09	1259,50
399,30	1275,88
399,51	1310,70
399,71	1251,31
399,92	1306,60
400,13	1243,12
400,34	1243,12
400,54	1329,13
400,75	1241,07
400,96	1300,46
401,17	1255,40
401,37	1298,41
401,58	1296,36
401,79	1306,60
402,00	1239,02
402,21	1271,79
402,41	1255,40
402,62	1304,56
402,83	1298,41
403,04	1259,50
403,24	1318,89
403,45	1275,88
403,66	1282,03
403,87	1300,46
404,07	1290,22
404,28	1236,97
404,49	1296,36
404,70	1261,55
404,90	1296,36
405,11	1273,84
405,32	1255,40
405,52	1267,69
405,73	1239,02
405,94	1255,40
406,15	1271,79
406,35	1249,26
406,56	1316,84
406,77	1206,25
406,98	1286,12
407,18	1253,36
407,39	1271,79
407,60	1284,08
407,80	1236,97
408,01	1286,12
408,22	1316,84
408,43	1216,49
408,63	1298,41
408,84	1269,74
409,05	1288,17
409,25	1298,41
409,46	1288,17
409,67	1286,12
409,88	1298,41
410,08	1320,94
410,29	1224,69
410,50	1255,40
410,70	1345,52
410,91	1216,49
411,12	1331,18
411,32	1290,22
411,53	1241,07
411,74	1284,08
411,95	1255,40
412,15	1261,55
412,36	1206,25
412,57	1249,26
412,77	1196,01
412,98	1159,15
413,19	1232,88
413,39	1325,04
413,60	1343,47
413,81	1282,03
414,01	1282,03
414,22	1331,18
414,43	1306,60
414,63	1232,88
414,84	1304,56
415,05	1269,74
415,25	1273,84
415,46	1216,49
415,67	1273,84
415,87	1253,36
416,08	1271,79
416,29	1224,69
416,49	1282,03
416,70	1234,93
416,91	1228,78
417,11	1345,52
417,32	1232,88
417,53	1290,22
417,73	1308,65
417,94	1290,22
418,15	1243,12
418,35	1243,12
418,56	1322,99
418,77	1153,01
418,97	1263,60
419,18	1193,97
419,38	1251,31
419,59	1290,22
419,80	1267,69
420,00	1249,26
420,21	1279,98
420,42	1265,64
420,62	1259,50
420,83	1273,84
421,04	1236,97
421,24	1191,92
421,45	1187,82
421,65	1216,49
421,86	1279,98
422,07	1265,64
422,27	1308,65
422,48	1230,83
422,69	1302,51
422,89	1275,88
423,10	1232,88
423,30	1230,83
423,51	1282,03
423,72	1251,31
423,92	1269,74
424,13	1339,37
424,33	1265,64
424,54	1200,11
424,75	1249,26
424,95	1236,97
425,16	1208,30
425,36	1249,26
425,57	1277,93
425,78	1298,41
425,98	1234,93
426,19	1327,08
426,39	1251,31
426,60	1210,35
426,81	1224,69
427,01	1284,08
427,22	1267,69
427,42	1302,51
427,63	1302,51
427,83	1314,80
428,04	1306,60
428,25	1310,70
428,45	1239,02
428,66	1226,73
428,86	1275,88
429,07	1236,97
429,28	1314,80
429,48	1308,65
429,69	1243,12
429,89	1228,78
430,10	1224,69
430,30	1210,35
430,51	1271,79
430,71	1329,13
430,92	1269,74
431,13	1318,89
431,33	1191,92
431,54	1261,55
431,74	1216,49
431,95	1290,22
432,15	1210,35
432,36	1220,59
432,56	1253,36
432,77	1269,74
432,98	1361,90
433,18	1214,45
433,39	1271,79
433,59	1284,08
433,80	1255,40
434,00	1312,75
434,21	1224,69
434,41	1292,27
434,62	1329,13
434,82	1247,21
435,03	1245,16
435,23	1239,02
435,44	1171,44
435,64	1279,98
435,85	1257,45
436,06	1277,93
436,26	1298,41
436,47	1234,93
436,67	1150,96
436,88	1261,55
437,08	1314,80
437,29	1224,69
437,49	1241,07
437,70	1294,32
437,90	1273,84
438,11	1245,16
438,31	1259,50
438,52	1224,69
438,72	1191,92
438,93	1327,08
439,13	1269,74
439,34	1265,64
439,54	1251,31
439,75	1294,32
439,95	1273,84
440,16	1265,64
440,36	1208,30
440,57	1271,79
440,77	1351,66
440,98	1261,55
441,18	1239,02
441,39	1279,98
441,59	1273,84
441,80	1271,79
442,00	1314,80
442,21	1257,45
442,41	1255,40
442,62	1335,28
442,82	1288,17
443,02	1206,25
443,23	1325,04
443,43	1269,74
443,64	1249,26
443,84	1255,40
444,05	1357,80
444,25	1204,21
444,46	1267,69
444,66	1308,65
444,87	1208,30
445,07	1284,08
445,28	1251,31
445,48	1218,54
445,69	1345,52
445,89	1263,60
446,09	1288,17
446,30	1265,64
446,50	1255,40
446,71	1282,03
446,91	1288,17
447,12	1296,36
447,32	1282,03
447,53	1232,88
447,73	1341,42
447,93	1257,45
448,14	1294,32
448,34	1187,82
448,55	1249,26
448,75	1386,47
448,96	1331,18
449,16	1241,07
449,36	1279,98
449,57	1245,16
449,77	1255,40
449,98	1206,25
450,18	1273,84
450,39	1312,75
450,59	1239,02
450,79	1253,36
451,00	1277,93
451,20	1198,06
451,41	1247,21
451,61	1304,56
451,81	1249,26
452,02	1230,83
452,22	1284,08
452,43	1236,97
452,63	1257,45
452,84	1228,78
453,04	1292,27
453,24	1327,08
453,45	1255,40
453,65	1306,60
453,86	1286,12
454,06	1239,02
454,26	1269,74
454,47	1277,93
454,67	1265,64
454,87	1316,84
455,08	1220,59
455,28	1310,70
455,49	1212,40
455,69	1308,65
455,89	1325,04
456,10	1224,69
456,30	1345,52
456,51	1191,92
456,71	1265,64
456,91	1232,88
457,12	1273,84
457,32	1255,40
457,52	1312,75
457,73	1300,46
457,93	1230,83
458,14	1251,31
458,34	1271,79
458,54	1251,31
458,75	1355,76
458,95	1251,31
459,15	1294,32
459,36	1290,22
459,56	1212,40
459,76	1269,74
459,97	1292,27
460,17	1263,60
460,37	1320,94
460,58	1263,60
460,78	1257,45
460,99	1177,58
461,19	1249,26
461,39	1257,45
461,60	1331,18
461,80	1175,53
462,00	1185,77
462,21	1243,12
462,41	1314,80
462,61	1286,12
462,82	1263,60
463,02	1286,12
463,22	1333,23
463,43	1198,06
463,63	1214,45
463,83	1249,26
464,04	1183,73
464,24	1218,54
464,44	1310,70
464,64	1351,66
464,85	1302,51
465,05	1380,33
465,25	1216,49
465,46	1236,97
465,66	1298,41
465,86	1314,80
466,07	1230,83
466,27	1261,55
466,47	1273,84
466,68	1277,93
466,88	1300,46
467,08	1296,36
467,29	1306,60
467,49	1292,27
467,69	1257,45
467,89	1236,97
468,10	1316,84
468,30	1247,21
468,50	1191,92
468,71	1245,16
468,91	1284,08
469,11	1288,17
469,31	1251,31
469,52	1236,97
469,72	1288,17
469,92	1273,84
470,13	1179,63
470,33	1269,74
470,53	1316,84
470,73	1282,03
470,94	1247,21
471,14	1279,98
471,34	1253,36
471,54	1308,65
471,75	1271,79
471,95	1257,45
472,15	1179,63
472,36	1279,98
472,56	1212,40
472,76	1253,36
472,96	1296,36
473,17	1247,21
473,37	1243,12
473,57	1294,32
473,77	1290,22
473,98	1265,64
474,18	1249,26
474,38	1269,74
474,58	1263,60
474,79	1294,32
474,99	1331,18
475,19	1228,78
475,39	1212,40
475,60	1271,79
475,80	1245,16
476,00	1257,45
476,20	1191,92
476,41	1300,46
476,61	1273,84
476,81	1308,65
477,01	1273,84
477,21	1269,74
477,42	1255,40
477,62	1249,26
477,82	1298,41
478,02	1294,32
478,23	1279,98
478,43	1191,92
478,63	1239,02
478,83	1267,69
479,03	1286,12
479,24	1259,50
479,44	1210,35
479,64	1236,97
479,84	1310,70
480,04	1277,93
480,25	1337,32
480,45	1226,73
480,65	1236,97
480,85	1333,23
481,06	1282,03
481,26	1390,57
481,46	1310,70
481,66	1277,93
481,86	1286,12
482,06	1253,36
482,27	1239,02
482,47	1204,21
482,67	1286,12
482,87	1251,31
483,07	1267,69
483,28	1263,60
483,48	1259,50
483,68	1282,03
483,88	1275,88
484,08	1318,89
484,29	1273,84
484,49	1273,84
484,69	1298,41
484,89	1290,22
485,09	1267,69
485,29	1257,45
485,50	1296,36
485,70	1243,12
485,90	1200,11
486,10	1220,59
486,30	1241,07
486,50	1279,98
486,71	1216,49
486,91	1271,79
487,11	1267,69
487,31	1277,93
487,51	1239,02
487,71	1265,64
487,91	1306,60
488,12	1251,31
488,32	1316,84
488,52	1288,17
488,72	1267,69
488,92	1265,64
489,12	1304,56
489,32	1261,55
489,53	1302,51
489,73	1275,88
489,93	1259,50
490,13	1277,93
490,33	1216,49
490,53	1208,30
490,73	1193,97
490,94	1273,84
491,14	1366,00
491,34	1261,55
491,54	1249,26
491,74	1359,85
491,94	1308,65
492,14	1269,74
492,34	1292,27
492,54	1378,28
492,75	1230,83
492,95	1208,30
493,15	1290,22
493,35	1200,11
493,55	1288,17
493,75	1234,93
493,95	1286,12
494,15	1253,36
494,35	1220,59
494,56	1312,75
494,76	1253,36
494,96	1261,55
495,16	1124,33
495,36	1282,03
495,56	1267,69
495,76	1146,86
495,96	1306,60
496,16	1290,22
496,36	1306,60
496,56	1241,07
496,77	1294,32
496,97	1245,16
497,17	1216,49
497,37	1161,20
497,57	1279,98
497,77	1273,84
497,97	1257,45
498,17	1226,73
498,37	1298,41
498,57	1279,98
498,77	1196,01
498,97	1234,93
499,17	1304,56
499,38	1318,89
499,58	1206,25
499,78	1273,84
499,98	1288,17
500,18	1210,35
500,38	1198,06
500,58	1210,35
500,78	1357,80
500,98	1279,98
501,18	1241,07
501,38	1267,69
501,58	1298,41
501,78	1245,16
501,98	1263,60
502,18	1314,80
502,38	1296,36
502,58	1269,74
502,78	1249,26
502,98	1228,78
503,18	1220,59
503,38	1284,08
503,59	1259,50
503,79	1243,12
503,99	1277,93
504,19	1216,49
504,39	1302,51
504,59	1290,22
504,79	1335,28
504,99	1232,88
505,19	1284,08
505,39	1290,22
505,59	1310,70
505,79	1275,88
505,99	1298,41
506,19	1247,21
506,39	1292,27
506,59	1251,31
506,79	1288,17
506,99	1234,93
507,19	1261,55
507,39	1218,54
507,59	1320,94
507,79	1271,79
507,99	1257,45
508,19	1212,40
508,39	1271,79
508,59	1286,12
508,79	1273,84
508,99	1230,83
509,19	1232,88
509,39	1206,25
509,59	1286,12
509,79	1322,99
509,99	1312,75
510,19	1312,75
510,39	1255,40
510,59	1234,93
510,79	1249,26
510,99	1284,08
511,19	1271,79
511,39	1316,84
511,59	1320,94
511,79	1247,21
511,99	1302,51
512,19	1255,40
512,38	1247,21
512,58	1302,51
512,78	1249,26
512,98	1314,80
513,18	1300,46
513,38	1204,21
513,58	1290,22
513,78	1200,11
513,98	1177,58
514,18	1269,74
514,38	1302,51
514,58	1308,65
514,78	1306,60
514,98	1279,98
515,18	1320,94
515,38	1185,77
515,58	1310,70
515,78	1232,88
515,98	1193,97
516,18	1294,32
516,38	1290,22
516,57	1267,69
516,77	1312,75
516,97	1226,73
517,17	1314,80
517,37	1306,60
517,57	1202,16
517,77	1247,21
517,97	1290,22
518,17	1269,74
518,37	1290,22
518,57	1279,98
518,77	1306,60
518,97	1320,94
519,16	1296,36
519,36	1243,12
519,56	1239,02
519,76	1251,31
519,96	1269,74
520,16	1214,45
520,36	1296,36
520,56	1302,51
520,76	1267,69
520,96	1308,65
521,16	1249,26
521,35	1265,64
521,55	1243,12
521,75	1159,15
521,95	1294,32
522,15	1222,64
522,35	1216,49
522,55	1306,60
522,75	1320,94
522,95	1230,83
523,14	1271,79
523,34	1261,55
523,54	1271,79
523,74	1253,36
523,94	1279,98
524,14	1239,02
524,34	1263,60
524,54	1257,45
524,73	1218,54
524,93	1296,36
525,13	1243,12
525,33	1249,26
525,53	1198,06
525,73	1269,74
525,93	1304,56
526,13	1245,16
526,32	1275,88
526,52	1302,51
526,72	1179,63
526,92	1273,84
527,12	1282,03
527,32	1269,74
527,52	1216,49
527,71	1257,45
527,91	1259,50
528,11	1263,60
528,31	1263,60
528,51	1265,64
528,71	1239,02
528,90	1206,25
529,10	1206,25
529,30	1304,56
529,50	1271,79
529,70	1204,21
529,90	1322,99
530,09	1320,94
530,29	1298,41
530,49	1196,01
530,69	1314,80
530,89	1267,69
531,09	1261,55
531,28	1273,84
531,48	1279,98
531,68	1300,46
531,88	1271,79
532,08	1249,26
532,28	1222,64
532,47	1335,28
532,67	1308,65
532,87	1269,74
533,07	1257,45
533,27	1366,00
533,46	1277,93
533,66	1275,88
533,86	1265,64
534,06	1267,69
534,26	1241,07
534,45	1239,02
534,65	1290,22
534,85	1271,79
535,05	1259,50
535,25	1245,16
535,44	1226,73
535,64	1282,03
535,84	1234,93
536,04	1175,53
536,24	1279,98
536,43	1296,36
536,63	1300,46
536,83	1302,51
537,03	1251,31
537,22	1327,08
537,42	1298,41
537,62	1224,69
537,82	1337,32
538,02	1179,63
538,21	1222,64
538,41	1247,21
538,61	1361,90
538,81	1249,26
539,00	1294,32
539,20	1286,12
539,40	1306,60
539,60	1312,75
539,79	1245,16
539,99	1224,69
540,19	1290,22
540,39	1273,84
540,58	1331,18
540,78	1308,65
540,98	1247,21
541,18	1286,12
541,37	1253,36
541,57	1314,80
541,77	1257,45
541,97	1234,93
542,16	1236,97
542,36	1232,88
542,56	1312,75
542,76	1267,69
542,95	1282,03
543,15	1271,79
543,35	1232,88
543,54	1243,12
543,74	1234,93
543,94	1243,12
544,14	1308,65
544,33	1275,88
544,53	1210,35
544,73	1302,51
544,93	1329,13
545,12	1284,08
545,32	1273,84
545,52	1282,03
545,71	1234,93
545,91	1265,64
546,11	1333,23
546,30	1366,00
546,50	1247,21
546,70	1265,64
546,90	1302,51
547,09	1310,70
547,29	1232,88
547,49	1249,26
547,68	1271,79
547,88	1255,40
548,08	1284,08
548,27	1316,84
548,47	1290,22
548,67	1308,65
548,87	1282,03
549,06	1206,25
549,26	1284,08
549,46	1290,22
549,65	1290,22
549,85	1259,50
550,05	1271,79
550,24	1288,17
550,44	1308,65
550,64	1239,02
550,83	1357,80
551,03	1300,46
551,23	1298,41
551,42	1265,64
551,62	1288,17
551,82	1251,31
552,01	1230,83
552,21	1232,88
552,41	1353,71
552,60	1306,60
552,80	1165,29
553,00	1245,16
553,19	1312,75
553,39	1261,55
553,59	1261,55
553,78	1259,50
553,98	1222,64
554,17	1320,94
554,37	1277,93
554,57	1306,60
554,76	1222,64
554,96	1284,08
555,16	1267,69
555,35	1288,17
555,55	1251,31
555,75	1212,40
555,94	1214,45
556,14	1189,87
556,33	1257,45
556,53	1275,88
556,73	1265,64
556,92	1347,56
557,12	1277,93
557,32	1249,26
557,51	1263,60
557,71	1245,16
557,90	1271,79
558,10	1333,23
558,30	1267,69
558,49	1267,69
558,69	1298,41
558,88	1282,03
559,08	1312,75
559,28	1288,17
559,47	1216,49
559,67	1298,41
559,86	1306,60
560,06	1284,08
560,26	1206,25
560,45	1247,21
560,65	1314,80
560,84	1239,02
561,04	1300,46
561,24	1241,07
561,43	1206,25
561,63	1286,12
561,82	1222,64
562,02	1255,40
562,22	1290,22
562,41	1224,69
562,61	1269,74
562,80	1210,35
563,00	1325,04
563,19	1241,07
563,39	1296,36
563,59	1284,08
563,78	1257,45
563,98	1255,40
564,17	1263,60
564,37	1296,36
564,56	1302,51
564,76	1269,74
564,96	1343,47
565,15	1288,17
565,35	1306,60
565,54	1232,88
565,74	1294,32
565,93	1220,59
566,13	1322,99
566,32	1318,89
566,52	1290,22
566,71	1296,36
566,91	1241,07
567,11	1277,93
567,30	1271,79
567,50	1265,64
567,69	1298,41
567,89	1247,21
568,08	1228,78
568,28	1290,22
568,47	1300,46
568,67	1284,08
568,86	1249,26
569,06	1335,28
569,25	1255,40
569,45	1253,36
569,64	1257,45
569,84	1300,46
570,04	1251,31
570,23	1267,69
570,43	1232,88
570,62	1226,73
570,82	1306,60
571,01	1249,26
571,21	1204,21
571,40	1290,22
571,60	1224,69
571,79	1216,49
571,99	1263,60
572,18	1275,88
572,38	1349,61
572,57	1294,32
572,77	1273,84
572,96	1273,84
573,16	1206,25
573,35	1249,26
573,55	1249,26
573,74	1257,45
573,94	1286,12
574,13	1253,36
574,33	1294,32
574,52	1271,79
574,71	1304,56
574,91	1218,54
575,10	1183,73
575,30	1290,22
575,49	1277,93
575,69	1241,07
575,88	1267,69
576,08	1271,79
576,27	1333,23
576,47	1224,69
576,66	1236,97
576,86	1249,26
577,05	1296,36
577,25	1308,65
577,44	1296,36
577,64	1167,34
577,83	1245,16
578,02	1318,89
578,22	1300,46
578,41	1269,74
578,61	1312,75
578,80	1320,94
579,00	1263,60
579,19	1282,03
579,39	1296,36
579,58	1294,32
579,77	1306,60
579,97	1239,02
580,16	1249,26
580,36	1343,47
580,55	1298,41
580,75	1259,50
580,94	1308,65
581,13	1284,08
581,33	1339,37
581,52	1263,60
581,72	1259,50
581,91	1226,73
582,11	1271,79
582,30	1284,08
582,49	1253,36
582,69	1286,12
582,88	1253,36
583,08	1265,64
583,27	1271,79
583,47	1339,37
583,66	1247,21
583,85	1302,51
584,05	1345,52
584,24	1308,65
584,44	1216,49
584,63	1232,88
584,82	1249,26
585,02	1226,73
585,21	1247,21
585,41	1259,50
585,60	1247,21
585,79	1234,93
585,99	1318,89
586,18	1200,11
586,37	1314,80
586,57	1255,40
586,76	1279,98
586,96	1245,16
587,15	1304,56
587,34	1245,16
587,54	1308,65
587,73	1257,45
587,93	1261,55
588,12	1177,58
588,31	1322,99
588,51	1251,31
588,70	1216,49
588,89	1271,79
589,09	1208,30
589,28	1251,31
589,47	1263,60
589,67	1259,50
589,86	1257,45
590,06	1208,30
590,25	1261,55
590,44	1277,93
590,64	1279,98
590,83	1226,73
591,02	1296,36
591,22	1312,75
591,41	1314,80
591,60	1255,40
591,80	1216,49
591,99	1236,97
592,18	1198,06
592,38	1275,88
592,57	1329,13
592,76	1284,08
592,96	1339,37
593,15	1255,40
593,34	1267,69
593,54	1298,41
593,73	1275,88
593,92	1304,56
594,12	1210,35
594,31	1222,64
594,50	1228,78
594,70	1298,41
594,89	1255,40
595,08	1251,31
595,28	1337,32
595,47	1312,75
595,66	1230,83
595,86	1218,54
596,05	1279,98
596,24	1257,45
596,43	1294,32
596,63	1306,60
596,82	1232,88
597,01	1327,08
597,21	1282,03
597,40	1255,40
597,59	1191,92
597,79	1337,32
597,98	1292,27
598,17	1277,93
598,36	1284,08
598,56	1249,26
598,75	1288,17
598,94	1263,60
599,14	1322,99
599,33	1241,07
599,52	1286,12
599,71	1245,16
599,91	1232,88
600,10	1288,17
600,29	1249,26
600,48	1273,84
600,68	1230,83
600,87	1222,64
601,06	1257,45
601,26	1298,41
601,45	1314,80
601,64	1239,02
601,83	1304,56
602,03	1200,11
602,22	1308,65
602,41	1216,49
602,60	1232,88
602,80	1308,65
602,99	1216,49
603,18	1257,45
603,37	1329,13
603,57	1269,74
603,76	1277,93
603,95	1247,21
604,14	1345,52
604,34	1259,50
604,53	1298,41
604,72	1310,70
604,91	1286,12
605,10	1245,16
605,30	1282,03
605,49	1302,51
605,68	1316,84
605,87	1314,80
606,07	1279,98
606,26	1191,92
606,45	1282,03
606,64	1241,07
606,84	1322,99
607,03	1255,40
607,22	1312,75
607,41	1265,64
607,60	1259,50
607,80	1294,32
607,99	1259,50
608,18	1267,69
608,37	1251,31
608,56	1261,55
608,76	1300,46
608,95	1212,40
609,14	1300,46
609,33	1275,88
609,52	1288,17
609,72	1282,03
609,91	1214,45
610,10	1314,80
610,29	1243,12
610,48	1265,64
610,68	1314,80
610,87	1288,17
611,06	1263,60
611,25	1300,46
611,44	1253,36
611,63	1306,60
611,83	1329,13
612,02	1245,16
612,21	1308,65
612,40	1239,02
612,59	1247,21
612,79	1269,74
612,98	1239,02
613,17	1284,08
613,36	1206,25
613,55	1302,51
613,74	1329,13
613,93	1306,60
614,13	1263,60
614,32	1277,93
614,51	1298,41
614,70	1277,93
614,89	1198,06
615,08	1177,58
615,28	1312,75
615,47	1279,98
615,66	1263,60
615,85	1292,27
616,04	1327,08
616,23	1257,45
616,42	1255,40
616,62	1243,12
616,81	1314,80
617,00	1257,45
617,19	1275,88
617,38	1320,94
617,57	1288,17
617,76	1253,36
617,95	1226,73
618,15	1286,12
618,34	1349,61
618,53	1318,89
618,72	1249,26
618,91	1294,32
619,10	1306,60
619,29	1208,30
619,48	1325,04
619,68	1288,17
619,87	1214,45
620,06	1247,21
620,25	1239,02
620,44	1259,50
620,63	1277,93
620,82	1222,64
621,01	1179,63
621,20	1296,36
621,39	1312,75
621,59	1302,51
621,78	1277,93
621,97	1239,02
622,16	1349,61
622,35	1226,73
622,54	1288,17
622,73	1279,98
622,92	1265,64
623,11	1279,98
623,30	1286,12
623,49	1261,55
623,68	1343,47
623,88	1226,73
624,07	1236,97
624,26	1267,69
624,45	1304,56
624,64	1239,02
624,83	1329,13
625,02	1261,55
625,21	1304,56
625,40	1220,59
625,59	1288,17
625,78	1345,52
625,97	1279,98
626,16	1249,26
626,35	1294,32
626,54	1224,69
626,74	1327,08
626,93	1232,88
627,12	1267,69
627,31	1288,17
627,50	1314,80
627,69	1304,56
627,88	1312,75
628,07	1257,45
628,26	1314,80
628,45	1286,12
628,64	1292,27
628,83	1249,26
629,02	1337,32
629,21	1269,74
629,40	1275,88
629,59	1263,60
629,78	1202,16
629,97	1306,60
630,16	1304,56
630,35	1292,27
630,54	1253,36
630,73	1310,70
630,92	1261,55
631,11	1322,99
631,30	1368,04
631,49	1322,99
631,68	1667,05
631,87	6768,54
632,06	28307,02
632,25	59401,33
632,44	44733,78
632,63	29462,08
632,82	26953,32
633,01	6447,01
633,20	3321,81
633,39	2844,63
633,58	2525,15
633,77	1953,76
633,96	1955,81
634,15	1814,50
634,34	1753,06
634,53	1611,75
634,72	1638,38
634,91	1511,40
635,10	1511,40
635,29	1413,10
635,48	1552,36
635,67	1515,50
635,86	1476,59
636,05	1409,00
636,24	1304,56
636,43	1322,99
636,62	1306,60
636,81	1318,89
637,00	1388,52
637,19	1318,89
637,38	1402,86
637,57	1351,66
637,76	1290,22
637,95	1312,75
638,14	1331,18
638,33	1366,00
638,52	1390,57
638,71	1257,45
638,89	1318,89
639,08	1249,26
639,27	1345,52
639,46	1318,89
639,65	1339,37
639,84	1355,76
640,03	1337,32
640,22	1294,32
640,41	1255,40
640,60	1298,41
640,79	1337,32
640,98	1269,74
641,17	1292,27
641,36	1292,27
641,55	1275,88
641,74	1269,74
641,92	1298,41
642,11	1234,93
642,30	1298,41
642,49	1206,25
642,68	1347,56
642,87	1310,70
643,06	1269,74
643,25	1286,12
643,44	1271,79
643,63	1263,60
643,82	1259,50
644,00	1200,11
644,19	1239,02
644,38	1286,12
644,57	1298,41
644,76	1282,03
644,95	1271,79
645,14	1251,31
645,33	1327,08
645,52	1294,32
645,71	1265,64
645,89	1222,64
646,08	1275,88
646,27	1249,26
646,46	1304,56
646,65	1298,41
646,84	1282,03
647,03	1249,26
647,22	1322,99
647,40	1234,93
647,59	1304,56
647,78	1255,40
647,97	1282,03
648,16	1320,94
648,35	1220,59
648,54	1279,98
648,73	1216,49
648,91	1294,32
649,10	1228,78
649,29	1300,46
649,48	1239,02
649,67	1304,56
649,86	1216,49
650,05	1210,35
650,23	1263,60
650,42	1245,16
650,61	1273,84
650,80	1292,27
650,99	1234,93
651,18	1290,22
651,36	1308,65
651,55	1333,23
651,74	1253,36
651,93	1245,16
652,12	1224,69
652,31	1322,99
652,49	1286,12
652,68	1257,45
652,87	1206,25
653,06	1259,50
653,25	1292,27
653,44	1337,32
653,62	1314,80
653,81	1251,31
654,00	1255,40
654,19	1257,45
654,38	1316,84
654,56	1275,88
654,75	1261,55
654,94	1296,36
655,13	1318,89
655,32	1300,46
655,51	1279,98
655,69	1232,88
655,88	1263,60
656,07	1245,16
656,26	1298,41
656,45	1290,22
656,63	1232,88
656,82	1318,89
657,01	1228,78
657,20	1314,80
657,38	1224,69
657,57	1247,21
657,76	1224,69
657,95	1265,64
658,14	1286,12
658,32	1214,45
658,51	1288,17
658,70	1257,45
658,89	1288,17
659,08	1271,79
659,26	1255,40
659,45	1247,21
659,64	1257,45
659,83	1279,98
660,01	1298,41
660,20	1312,75
660,39	1204,21
660,58	1282,03
660,76	1198,06
660,95	1267,69
661,14	1257,45
661,33	1310,70
661,51	1247,21
661,70	1241,07
661,89	1216,49
662,08	1300,46
662,26	1284,08
662,45	1263,60
662,64	1275,88
662,83	1282,03
663,01	1275,88
663,20	1239,02
663,39	1325,04
663,58	1245,16
663,76	1288,17
663,95	1277,93
664,14	1290,22
664,32	1267,69
664,51	1298,41
664,70	1359,85
664,89	1286,12
665,07	1224,69
665,26	1286,12
665,45	1208,30
665,64	1380,33
665,82	1282,03
666,01	1249,26
666,20	1206,25
666,38	1279,98
666,57	1331,18
666,76	1361,90
666,95	1292,27
667,13	1243,12
667,32	1226,73
667,51	1292,27
667,69	1277,93
667,88	1224,69
668,07	1251,31
668,25	1288,17
668,44	1255,40
668,63	1277,93
668,81	1294,32
669,00	1218,54
669,19	1343,47
669,38	1257,45
669,56	1396,71
669,75	1296,36
669,94	1300,46
670,12	1257,45
670,31	1296,36
670,50	1286,12
670,68	1196,01
670,87	1212,40
671,06	1312,75
671,24	1232,88
671,43	1196,01
671,62	1253,36
671,80	1286,12
671,99	1255,40
672,18	1224,69
672,36	1200,11
672,55	1269,74
672,74	1257,45
672,92	1253,36
673,11	1267,69
673,29	1292,27
673,48	1337,32
673,67	1251,31
673,85	1327,08
674,04	1275,88
674,23	1273,84
674,41	1214,45
674,60	1304,56
674,79	1284,08
674,97	1290,22
675,16	1300,46
675,34	1341,42
675,53	1290,22
675,72	1257,45
675,90	1257,45
676,09	1290,22
676,28	1234,93
676,46	1226,73
676,65	1294,32
676,83	1234,93
677,02	1245,16
677,21	1316,84
677,39	1286,12
677,58	1306,60
677,77	1253,36
677,95	1296,36
678,14	1316,84
678,32	1202,16
678,51	1257,45
678,70	1300,46
678,88	1218,54
679,07	1322,99
679,25	1284,08
679,44	1255,40
679,63	1335,28
679,81	1271,79
680,00	1290,22
680,18	1249,26
680,37	1206,25
680,55	1261,55
680,74	1255,40
680,93	1312,75
681,11	1282,03
681,30	1273,84
681,48	1298,41
681,67	1325,04
681,85	1269,74
682,04	1234,93
682,23	1331,18
682,41	1236,97
682,60	1208,30
682,78	1296,36
682,97	1302,51
683,15	1247,21
683,34	1273,84
683,53	1298,41
683,71	1265,64
683,90	1308,65
684,08	1193,97
684,27	1271,79
684,45	1286,12
684,64	1200,11
684,82	1331,18
685,01	1247,21
685,19	1261,55
685,38	1320,94
685,57	1269,74
685,75	1284,08
685,94	1202,16
686,12	1292,27
686,31	1306,60
686,49	1290,22
686,68	1251,31
686,86	1267,69
687,05	1259,50
687,23	1222,64
687,42	1228,78
687,60	1265,64
687,79	1294,32
687,97	1263,60
688,16	1284,08
688,34	1298,41
688,53	1279,98
688,71	1269,74
688,90	1277,93
689,08	1236,97
689,27	1271,79
689,45	1269,74
689,64	1290,22
689,82	1300,46
690,01	1259,50
690,19	1210,35
690,38	1226,73
690,56	1304,56
690,75	1265,64
690,93	1208,30
691,12	1218,54
691,30	1245,16
691,49	1292,27
691,67	1271,79
691,86	1204,21
692,04	1249,26
692,23	1185,77
692,41	1286,12
692,60	1286,12
692,78	1288,17
692,97	1263,60
693,15	1290,22
693,34	1296,36
693,52	1263,60
693,71	1216,49
693,89	1322,99
694,08	1161,20
694,26	1286,12
694,44	1269,74
694,63	1419,24
694,81	1288,17
695,00	1206,25
695,18	1273,84
695,37	1302,51
695,55	1224,69
695,74	1306,60
695,92	1265,64
696,10	1279,98
696,29	1298,41
696,47	1296,36
696,66	1243,12
696,84	1284,08
697,03	1277,93
697,21	1296,36
697,40	1331,18
697,58	1277,93
697,76	1304,56
697,95	1230,83
698,13	1273,84
698,32	1343,47
698,50	1296,36
698,68	1273,84
698,87	1224,69
699,05	1236,97
699,24	1214,45
699,42	1296,36
699,61	1269,74
699,79	1261,55
699,97	1245,16
700,16	1220,59
700,34	1298,41
700,53	1253,36
700,71	1286,12
700,89	1212,40
701,08	1320,94
701,26	1220,59
701,45	1253,36
701,63	1282,03
701,81	1241,07
702,00	1206,25
702,18	1282,03
702,37	1312,75
702,55	1218,54
702,73	1282,03
702,92	1222,64
703,10	1269,74
703,28	1234,93
703,47	1234,93
703,65	1322,99
703,84	1179,63
704,02	1251,31
704,20	1271,79
704,39	1282,03
704,57	1339,37
704,75	1284,08
704,94	1236,97
705,12	1267,69
705,30	1232,88
705,49	1298,41
705,67	1239,02
705,86	1284,08
706,04	1241,07
706,22	1277,93
706,41	1316,84
706,59	1226,73
706,77	1226,73
706,96	1282,03
707,14	1239,02
707,32	1292,27
707,51	1284,08
707,69	1212,40
707,87	1273,84
708,06	1312,75
708,24	1304,56
708,42	1218,54
708,61	1206,25
708,79	1312,75
708,97	1374,19
709,16	1279,98
709,34	1261,55
709,52	1294,32
709,71	1318,89
709,89	1261,55
710,07	1208,30
710,26	1220,59
710,44	1259,50
710,62	1251,31
710,80	1241,07
710,99	1249,26
711,17	1277,93
711,35	1265,64
711,54	1320,94
711,72	1310,70
711,90	1292,27
712,09	1273,84
712,27	1284,08
712,45	1312,75
712,63	1247,21
712,82	1298,41
713,00	1306,60
713,18	1181,68
713,37	1296,36
713,55	1245,16
713,73	1204,21
713,91	1286,12
714,10	1277,93
714,28	1329,13
714,46	1230,83
714,65	1251,31
714,83	1271,79
715,01	1320,94
715,19	1187,82
715,38	1234,93
715,56	1247,21
715,74	1265,64
715,92	1306,60
716,11	1251,31
716,29	1245,16
716,47	1251,31
716,65	1245,16
716,84	1200,11
717,02	1308,65
717,20	1288,17
717,38	1273,84
717,57	1249,26
717,75	1206,25
717,93	1286,12
718,11	1239,02
718,30	1210,35
718,48	1306,60
718,66	1288,17
718,84	1212,40
719,03	1167,34
719,21	1263,60
719,39	1304,56
719,57	1236,97
719,75	1271,79
719,94	1259,50
720,12	1226,73
720,30	1314,80
720,48	1261,55
720,67	1214,45
720,85	1226,73
721,03	1322,99
721,21	1232,88
721,39	1251,31
721,58	1230,83
721,76	1208,30
721,94	1259,50
722,12	1282,03
722,30	1292,27
722,49	1253,36
722,67	1257,45
722,85	1232,88
723,03	1228,78
723,21	1273,84
723,40	1247,21
723,58	1273,84
723,76	1224,69
723,94	1222,64
724,12	1261,55
724,30	1263,60
724,49	1202,16
724,67	1304,56
724,85	1243,12
725,03	1243,12
725,21	1273,84
725,40	1275,88
725,58	1284,08
725,76	1247,21
725,94	1208,30
726,12	1236,97
726,30	1286,12
726,49	1249,26
726,67	1259,50
726,85	1296,36
727,03	1310,70
727,21	1265,64
727,39	1335,28
727,57	1279,98
727,76	1327,08
727,94	1279,98
728,12	1232,88
728,30	1249,26
728,48	1273,84
728,66	1306,60
728,84	1339,37
729,03	1312,75
729,21	1355,76
729,39	1263,60
729,57	1284,08
729,75	1200,11
729,93	1253,36
730,11	1331,18
730,30	1286,12
730,48	1249,26
730,66	1214,45
730,84	1273,84
731,02	1279,98
731,20	1247,21
731,38	1249,26
731,56	1282,03
731,74	1286,12
731,93	1255,40
732,11	1290,22
732,29	1224,69
732,47	1314,80
732,65	1290,22
732,83	1255,40
733,01	1294,32
733,19	1241,07
733,37	1241,07
733,56	1275,88
733,74	1292,27
733,92	1243,12
734,10	1232,88
734,28	1265,64
734,46	1310,70
734,64	1234,93
734,82	1247,21
735,00	1251,31
735,18	1296,36
735,36	1273,84
735,54	1312,75
735,73	1271,79
735,91	1282,03
736,09	1239,02
736,27	1249,26
736,45	1255,40
736,63	1298,41
736,81	1247,21
736,99	1300,46
737,17	1312,75
737,35	1341,42
737,53	1269,74
737,71	1269,74
737,89	1327,08
738,07	1228,78
738,25	1249,26
738,43	1269,74
738,61	1228,78
738,80	1267,69
738,98	1310,70
739,16	1275,88
739,34	1239,02
739,52	1273,84
739,70	1198,06
739,88	1302,51
740,06	1286,12
740,24	1224,69
740,42	1234,93
740,60	1230,83
740,78	1269,74
740,96	1267,69
741,14	1316,84
741,32	1333,23
741,50	1189,87
741,68	1304,56
741,86	1259,50
742,04	1263,60
742,22	1282,03
742,40	1271,79
742,58	1234,93
742,76	1316,84
742,94	1275,88
743,12	1249,26
743,30	1288,17
743,48	1312,75
743,66	1347,56
743,84	1241,07
744,02	1224,69
744,20	1247,21
744,38	1267,69
744,56	1247,21
744,74	1245,16
744,92	1261,55
745,10	1249,26
745,28	1282,03
745,46	1294,32
745,64	1296,36
745,82	1265,64
746,00	1228,78
746,18	1255,40
746,36	1232,88
746,54	1314,80
746,72	1304,56
746,90	1273,84
747,08	1286,12
747,26	1269,74
747,44	1210,35
747,62	1216,49
747,80	1241,07
747,98	1300,46
748,15	1265,64
748,33	1275,88
748,51	1249,26
748,69	1247,21
748,87	1239,02
749,05	1269,74
749,23	1236,97
749,41	1222,64
749,59	1335,28
749,77	1298,41
749,95	1236,97
750,13	1234,93
750,31	1284,08
750,49	1327,08
750,67	1269,74
750,85	1277,93
751,03	1282,03
751,20	1335,28
751,38	1271,79
751,56	1271,79
751,74	1290,22
751,92	1245,16
752,10	1249,26
752,28	1247,21
752,46	1222,64
752,64	1298,41
752,82	1312,75
753,00	1271,79
753,18	1273,84
753,35	1284,08
753,53	1187,82
753,71	1265,64
753,89	1257,45
754,07	1239,02
754,25	1306,60
754,43	1265,64
754,61	1275,88
754,79	1320,94
754,97	1269,74
755,14	1275,88
755,32	1255,40
755,50	1255,40
755,68	1255,40
755,86	1288,17
756,04	1271,79
756,22	1208,30
756,40	1282,03
756,57	1298,41
756,75	1255,40
756,93	1234,93
757,11	1288,17
757,29	1261,55
757,47	1239,02
757,65	1275,88
757,82	1261,55
758,00	1208,30
758,18	1296,36
758,36	1310,70
758,54	1243,12
758,72	1288,17
758,90	1241,07
759,07	1310,70
759,25	1316,84
759,43	1255,40
759,61	1294,32
759,79	1347,56
759,97	1355,76
760,15	1220,59
760,32	1251,31
760,50	1306,60
760,68	1292,27
760,86	1288,17
761,04	1259,50
761,22	1304,56
761,39	1255,40
761,57	1269,74
761,75	1318,89
761,93	1253,36
762,11	1218,54
762,28	1269,74
762,46	1277,93
762,64	1267,69
762,82	1275,88
763,00	1202,16
763,18	1275,88
763,35	1247,21
763,53	1320,94
763,71	1239,02
763,89	1273,84
764,07	1265,64
764,24	1333,23
764,42	1247,21
764,60	1257,45
764,78	1251,31
764,96	1271,79
765,13	1271,79
765,31	1234,93
765,49	1232,88
765,67	1249,26
765,84	1312,75
766,02	1253,36
766,20	1284,08
766,38	1298,41
766,56	1216,49
766,73	1255,40
766,91	1275,88
767,09	1236,97
767,27	1241,07
767,44	1222,64
767,62	1255,40
767,80	1249,26
767,98	1218,54
768,15	1216,49
768,33	1206,25
768,51	1314,80
768,69	1263,60
768,87	1345,52
769,04	1308,65
769,22	1273,84
769,40	1275,88
769,58	1372,14
769,75	1247,21
769,93	1265,64
770,11	1249,26
770,28	1218,54
770,46	1247,21
770,64	1189,87
770,82	1312,75
770,99	1368,04
771,17	1273,84
771,35	1220,59
771,53	1312,75
771,70	1314,80
771,88	1200,11
772,06	1275,88
772,23	1298,41
772,41	1236,97
772,59	1267,69
772,77	1298,41
772,94	1253,36
773,12	1279,98
773,30	1259,50
773,47	1253,36
773,65	1265,64
773,83	1222,64
774,01	1261,55
774,18	1312,75
774,36	1277,93
774,54	1290,22
774,71	1255,40
774,89	1226,73
775,07	1282,03
775,24	1269,74
775,42	1304,56
775,60	1247,21
775,78	1259,50
775,95	1255,40
776,13	1220,59
776,31	1234,93
776,48	1228,78
776,66	1279,98
776,84	1302,51
777,01	1253,36
777,19	1298,41
777,37	1196,01
777,54	1210,35
777,72	1273,84
777,90	1257,45
778,07	1312,75
778,25	1239,02
778,43	1282,03
778,60	1314,80
778,78	1245,16
778,96	1271,79
779,13	1257,45
779,31	1224,69
779,49	1271,79
779,66	1239,02
779,84	1259,50
780,01	1279,98
780,19	1320,94
780,37	1255,40
780,54	1275,88
780,72	1269,74
780,90	1288,17
781,07	1212,40
781,25	1320,94
781,43	1234,93
781,60	1298,41
781,78	1204,21
781,95	1236,97
782,13	1286,12
782,31	1288,17
782,48	1290,22
782,66	1286,12
782,83	1230,83
783,01	1306,60
783,19	1302,51
783,36	1216,49
783,54	1320,94
783,72	1224,69
783,89	1249,26
784,07	1271,79
784,24	1236,97
784,42	1314,80
784,60	1296,36
784,77	1257,45
784,95	1247,21
785,12	1265,64
785,30	1294,32
785,47	1257,45
785,65	1230,83
785,83	1327,08
786,00	1259,50
786,18	1279,98
786,35	1314,80
786,53	1288,17
786,71	1243,12
786,88	1275,88
787,06	1290,22
787,23	1236,97
787,41	1279,98
787,58	1267,69
787,76	1298,41
787,94	1292,27
788,11	1261,55
788,29	1255,40
788,46	1277,93
788,64	1236,97
788,81	1251,31
788,99	1255,40
789,16	1191,92
789,34	1265,64
789,52	1282,03
789,69	1259,50
789,87	1251,31
790,04	1271,79
790,22	1247,21
790,39	1292,27
790,57	1269,74
790,74	1216,49
790,92	1277,93
791,09	1292,27
791,27	1202,16
791,44	1263,60
791,62	1247,21
791,79	1183,73
791,97	1294,32
792,15	1329,13
792,32	1208,30
792,50	1304,56
792,67	1247,21
792,85	1302,51
793,02	1210,35
793,20	1216,49
793,37	1236,97
793,55	1206,25
793,72	1331,18
793,90	1292,27
794,07	1263,60
794,25	1273,84
794,42	1277,93
794,60	1292,27
794,77	1277,93
794,95	1292,27
795,12	1271,79
795,30	1288,17
795,47	1234,93
795,65	1333,23
795,82	1368,04
796,00	1239,02
796,17	1308,65
796,34	1241,07
796,52	1196,01
796,69	1263,60
796,87	1282,03
797,04	1245,16
797,22	1341,42
797,39	1347,56
797,57	1269,74
797,74	1265,64
797,92	1267,69
798,09	1294,32
798,27	1277,93
798,44	1245,16
798,62	1226,73
798,79	1279,98
798,96	1318,89
799,14	1265,64
799,31	1277,93
799,49	1277,93
799,66	1282,03
799,84	1300,46
800,01	1269,74
800,19	1173,49
800,36	1257,45
800,53	1298,41
800,71	1239,02
800,88	1273,84
801,06	1191,92
801,23	1341,42
801,41	1302,51
801,58	1239,02
801,75	1239,02
801,93	1318,89
802,10	1312,75
802,28	1300,46
802,45	1320,94
802,63	1284,08
802,80	1271,79
802,97	1191,92
803,15	1257,45
803,32	1224,69
803,50	1251,31
803,67	1247,21
803,84	1265,64
804,02	1253,36
804,19	1294,32
804,37	1331,18
804,54	1251,31
804,71	1202,16
804,89	1187,82
805,06	1245,16
805,24	1253,36
805,41	1261,55
805,58	1275,88
805,76	1271,79
805,93	1286,12
806,10	1247,21
806,28	1294,32
806,45	1312,75
806,63	1181,68
806,80	1329,13
806,97	1263,60
807,15	1298,41
807,32	1210,35
807,49	1275,88
807,67	1275,88
807,84	1304,56
808,01	1286,12
808,19	1292,27
808,36	1247,21
808,54	1312,75
808,71	1269,74
808,88	1271,79
809,06	1220,59
809,23	1316,84
809,40	1234,93
809,58	1306,60
809,75	1191,92
809,92	1204,21
810,10	1288,17
810,27	1214,45
810,44	1245,16
810,62	1325,04
810,79	1294,32
810,96	1236,97
811,14	1255,40
811,31	1306,60
811,48	1298,41
811,66	1247,21
811,83	1284,08
812,00	1269,74
812,18	1257,45
812,35	1349,61
812,52	1312,75
812,69	1290,22
812,87	1300,46
813,04	1279,98
813,21	1212,40
813,39	1269,74
813,56	1361,90
813,73	1331,18
813,91	1150,96
814,08	1267,69
814,25	1265,64
814,42	1239,02
814,60	1200,11
814,77	1236,97
814,94	1257,45
815,12	1288,17
815,29	1290,22
815,46	1282,03
815,63	1265,64
815,81	1236,97
815,98	1275,88
816,15	1253,36
816,33	1261,55
816,50	1304,56
816,67	1218,54
816,84	1218,54
817,02	1320,94
817,19	1204,21
817,36	1257,45
817,53	1198,06
817,71	1265,64
817,88	1271,79
818,05	1275,88
818,22	1214,45
818,40	1218,54
818,57	1210,35
818,74	1267,69
818,91	1318,89
819,09	1282,03
819,26	1218,54
819,43	1239,02
819,60	1218,54
819,78	1243,12
819,95	1251,31
820,12	1253,36
820,29	1318,89
820,47	1261,55
820,64	1320,94
820,81	1202,16
820,98	1245,16
821,15	1306,60
821,33	1345,52
821,50	1247,21
821,67	1269,74
821,84	1241,07
822,02	1239,02
822,19	1245,16
822,36	1277,93
822,53	1275,88
822,70	1253,36
822,88	1286,12
823,05	1277,93
823,22	1251,31
823,39	1273,84
823,56	1257,45
823,74	1314,80
823,91	1247,21
824,08	1304,56
824,25	1243,12
824,42	1277,93
824,60	1232,88
824,77	1296,36
824,94	1290,22
825,11	1279,98
825,28	1234,93
825,45	1282,03
825,63	1292,27
825,80	1286,12
825,97	1277,93
826,14	1212,40
826,31	1204,21
826,48	1198,06
826,66	1228,78
826,83	1243,12
827,00	1253,36
827,17	1269,74
827,34	1345,52
827,51	1241,07
827,69	1243,12
827,86	1304,56
828,03	1251,31
828,20	1230,83
828,37	1292,27
828,54	1355,76
828,71	1286,12
828,89	1253,36
829,06	1230,83
829,23	1271,79
829,40	1261,55
829,57	1261,55
829,74	1214,45
829,91	1325,04
830,09	1271,79
830,26	1241,07
830,43	1206,25
830,60	1349,61
830,77	1245,16
830,94	1284,08
831,11	1267,69
831,28	1263,60
831,46	1214,45
831,63	1249,26
831,80	1310,70
831,97	1310,70
832,14	1290,22
832,31	1253,36
832,48	1304,56
832,65	1337,32
832,82	1243,12
832,99	1341,42
833,17	1273,84
833,34	1253,36
833,51	1337,32
833,68	1269,74
833,85	1261,55
834,02	1265,64
834,19	1308,65
834,36	1224,69
834,53	1275,88
834,70	1255,40
834,87	1216,49
835,04	1232,88
835,22	1247,21
835,39	1263,60
835,56	1269,74
835,73	1249,26
835,90	1316,84
836,07	1253,36
836,24	1245,16
836,41	1294,32
836,58	1263,60
836,75	1273,84
836,92	1329,13
837,09	1318,89
837,26	1265,64
837,43	1312,75
837,60	1179,63
837,77	1257,45
837,94	1269,74
838,12	1318,89
838,29	1343,47
838,46	1269,74
838,63	1245,16
838,80	1159,15
838,97	1247,21
839,14	1286,12
839,31	1290,22
839,48	1193,97
839,65	1269,74
839,82	1259,50
839,99	1253,36
840,16	1316,84
840,33	1230,83
840,50	1249,26
840,67	1267,69
840,84	1257,45
841,01	1259,50
841,18	1286,12
841,35	1257,45
841,52	1230,83
841,69	1251,31
841,86	1245,16
842,03	1308,65
842,20	1306,60
842,37	1218,54
842,54	1222,64
842,71	1263,60
842,88	1265,64
843,05	1284,08
843,22	1306,60
843,39	1259,50
843,56	1320,94
843,73	1388,52
843,90	1257,45
844,07	1251,31
844,24	1271,79
844,41	1308,65
844,58	1271,79
844,75	1243,12
844,92	1269,74
845,09	1294,32
845,26	1200,11
845,43	1296,36
845,60	1218,54
845,77	1284,08
845,94	1263,60
846,10	1314,80
846,27	1232,88
846,44	1279,98
846,61	1296,36
846,78	1239,02
846,95	1255,40
847,12	1220,59
847,29	1345,52
847,46	1255,40
847,63	1312,75
847,80	1208,30
847,97	1255,40
848,14	1224,69
848,31	1232,88
848,48	1198,06
848,65	1282,03
848,82	1286,12
848,98	1316,84
849,15	1320,94
849,32	1275,88
849,49	1236,97
849,66	1314,80
849,83	1245,16
850,00	1196,01
850,17	1257,45
850,34	1275,88
850,51	1216,49
850,68	1290,22
850,85	1284,08
851,01	1232,88
851,18	1241,07
851,35	1298,41
851,52	1263,60
851,69	1255,40
851,86	1275,88
852,03	1316,84
852,20	1265,64
852,37	1298,41
852,53	1288,17
852,70	1310,70
852,87	1232,88
853,04	1292,27
853,21	1185,77
853,38	1378,28
853,55	1232,88
853,72	1232,88
853,89	1247,21
854,05	1279,98
854,22	1259,50
854,39	1208,30
854,56	1261,55
854,73	1351,66
854,90	1222,64
855,07	1218,54
855,23	1234,93
855,40	1353,71
855,57	1322,99
855,74	1216,49
855,91	1236,97
856,08	1279,98
856,25	1261,55
856,41	1261,55
856,58	1269,74
856,75	1200,11
856,92	1302,51
857,09	1337,32
857,26	1179,63
857,42	1273,84
857,59	1232,88
857,76	1306,60
857,93	1320,94
858,10	1181,68
858,27	1255,40
858,43	1286,12
858,60	1316,84
858,77	1214,45
858,94	1228,78
859,11	1271,79
859,27	1294,32
859,44	1306,60
859,61	1318,89
859,78	1218,54
859,95	1236,97
860,12	1216,49
860,28	1269,74
860,45	1282,03
860,62	1261,55
860,79	1325,04
860,95	1310,70
861,12	1255,40
861,29	1210,35
861,46	1271,79
861,63	1216,49
861,79	1300,46
861,96	1261,55
862,13	1220,59
862,30	1284,08
862,47	1273,84
862,63	1298,41
862,80	1265,64
862,97	1261,55
863,14	1224,69
863,30	1271,79
863,47	1288,17
863,64	1267,69
863,81	1253,36
863,97	1228,78
864,14	1273,84
864,31	1314,80
864,48	1261,55
864,65	1269,74
864,81	1261,55
864,98	1239,02
865,15	1322,99
865,32	1292,27
865,48	1265,64
865,65	1282,03
865,82	1286,12
865,98	1159,15
866,15	1255,40
866,32	1200,11
866,49	1288,17
866,65	1243,12
866,82	1306,60
866,99	1337,32
867,16	1251,31
867,32	1304,56
867,49	1241,07
867,66	1247,21
867,83	1212,40
867,99	1241,07
868,16	1284,08
868,33	1290,22
868,49	1277,93
868,66	1236,97
868,83	1296,36
868,99	1294,32
869,16	1232,88
869,33	1298,41
869,50	1232,88
869,66	1255,40
869,83	1306,60
870,00	1290,22
870,16	1273,84
870,33	1284,08
870,50	1339,37
870,66	1259,50
870,83	1228,78
871,00	1245,16
871,17	1310,70
871,33	1241,07
871,50	1243,12
871,67	1284,08
871,83	1200,11
872,00	1224,69
872,17	1316,84
872,33	1269,74
872,50	1304,56
872,67	1239,02
872,83	1300,46
873,00	1167,34
873,17	1277,93
873,33	1251,31
873,50	1333,23
873,67	1282,03
873,83	1208,30
874,00	1341,42
874,16	1310,70
874,33	1218,54
874,50	1300,46
874,66	1286,12
874,83	1337,32
875,00	1265,64
875,16	1279,98
875,33	1298,41
875,50	1306,60
875,66	1253,36
875,83	1419,24
875,99	1257,45
876,16	1273,84
876,33	1263,60
876,49	1247,21
876,66	1310,70
876,83	1314,80
876,99	1286,12
877,16	1230,83
877,32	1282,03
877,49	1271,79
877,66	1263,60
877,82	1261,55
877,99	1279,98
878,15	1245,16
878,32	1265,64
878,49	1290,22
878,65	1304,56
878,82	1239,02
878,98	1282,03
879,15	1322,99
879,32	1191,92
879,48	1292,27
879,65	1325,04
879,81	1314,80
879,98	1228,78
880,15	1208,30
880,31	1322,99
880,48	1224,69
880,64	1210,35
880,81	1212,40
880,97	1222,64
881,14	1247,21
881,31	1271,79
881,47	1239,02
881,64	1247,21
881,80	1318,89
881,97	1265,64
882,13	1298,41
882,30	1251,31
882,47	1214,45
882,63	1284,08
882,80	1228,78
882,96	1241,07
883,13	1345,52
883,29	1273,84
883,46	1284,08
883,62	1249,26
883,79	1286,12
883,95	1222,64
884,12	1279,98
884,29	1261,55
884,45	1298,41
884,62	1290,22
884,78	1267,69
884,95	1198,06
885,11	1198,06
885,28	1216,49
885,44	1298,41
885,61	1316,84
885,77	1216,49
885,94	1193,97
886,10	1224,69
886,27	1275,88
886,43	1269,74
886,60	1273,84
886,76	1275,88
886,93	1261,55
887,09	1308,65
887,26	1224,69
887,42	1226,73
887,59	1232,88
887,75	1220,59
887,92	1298,41
888,08	1275,88
888,25	1341,42
888,41	1312,75
888,58	1245,16
888,74	1208,30
888,91	1224,69
>>>>>End Processed Spectral Data<<<<<
