SpectraSuite Data File
++++++++++++++++++++++++++++++++++++
Date: Sun Apr 03 14:54:04 CEST 2016
User: root
Dark Spectrum Present: No
Reference Spectrum Present: No
Number of Sampled Component Spectra: 1
Spectrometers: USB4C02835
Integration Time (usec): 10000 (USB4C02835)
Spectra Averaged: 1 (USB4C02835)
Boxcar Smoothing: 0 (USB4C02835)
Correct for Electrical Dark: No (USB4C02835)
Strobe/Lamp Enabled: No (USB4C02835)
Correct for Detector Non-linearity: No (USB4C02835)
Correct for Stray Light: No (USB4C02835)
Number of Pixels in Processed Spectrum: 3648
>>>>>Begin Processed Spectral Data<<<<<
177,47	1183,73
177,69	1183,73
177,91	1183,73
178,13	1247,21
178,36	1341,42
178,58	1273,84
178,80	1282,03
179,02	1298,41
179,24	1236,97
179,46	1224,69
179,68	1353,71
179,90	1263,60
180,13	1239,02
180,35	1263,60
180,57	1277,93
180,79	1302,51
181,01	1339,37
181,23	1241,07
181,45	1263,60
181,67	1251,31
181,90	1249,26
182,12	1269,74
182,34	1282,03
182,56	1257,45
182,78	1279,98
183,00	1275,88
183,22	1284,08
183,44	1263,60
183,66	1273,84
183,89	1290,22
184,11	1224,69
184,33	1261,55
184,55	1341,42
184,77	1279,98
184,99	1257,45
185,21	1239,02
185,43	1306,60
185,65	1247,21
185,87	1239,02
186,10	1288,17
186,32	1339,37
186,54	1277,93
186,76	1286,12
186,98	1245,16
187,20	1204,21
187,42	1300,46
187,64	1269,74
187,86	1310,70
188,08	1282,03
188,30	1314,80
188,52	1253,36
188,75	1318,89
188,97	1257,45
189,19	1292,27
189,41	1173,49
189,63	1279,98
189,85	1226,73
190,07	1322,99
190,29	1314,80
190,51	1253,36
190,73	1271,79
190,95	1247,21
191,17	1257,45
191,39	1253,36
191,61	1411,05
191,84	1200,11
192,06	1279,98
192,28	1243,12
192,50	1249,26
192,72	1273,84
192,94	1255,40
193,16	1286,12
193,38	1318,89
193,60	1349,61
193,82	1245,16
194,04	1228,78
194,26	1232,88
194,48	1269,74
194,70	1277,93
194,92	1196,01
195,14	1298,41
195,36	1224,69
195,58	1257,45
195,80	1241,07
196,02	1335,28
196,24	1249,26
196,46	1193,97
196,69	1339,37
196,91	1267,69
197,13	1208,30
197,35	1343,47
197,57	1320,94
197,79	1347,56
198,01	1282,03
198,23	1261,55
198,45	1253,36
198,67	1206,25
198,89	1234,93
199,11	1316,84
199,33	1279,98
199,55	1210,35
199,77	1241,07
199,99	1314,80
200,21	1263,60
200,43	1271,79
200,65	1279,98
200,87	1265,64
201,09	1277,93
201,31	1333,23
201,53	1294,32
201,75	1251,31
201,97	1343,47
202,19	1314,80
202,41	1277,93
202,63	1343,47
202,85	1275,88
203,07	1269,74
203,29	1218,54
203,51	1316,84
203,73	1275,88
203,95	1343,47
204,17	1306,60
204,39	1300,46
204,61	1236,97
204,83	1265,64
205,05	1230,83
205,27	1294,32
205,49	1239,02
205,71	1320,94
205,93	1302,51
206,15	1226,73
206,37	1302,51
206,59	1257,45
206,81	1314,80
207,03	1226,73
207,25	1290,22
207,47	1251,31
207,69	1333,23
207,91	1193,97
208,13	1263,60
208,34	1275,88
208,56	1245,16
208,78	1331,18
209,00	1167,34
209,22	1298,41
209,44	1224,69
209,66	1335,28
209,88	1241,07
210,10	1314,80
210,32	1263,60
210,54	1277,93
210,76	1290,22
210,98	1300,46
211,20	1265,64
211,42	1208,30
211,64	1228,78
211,86	1306,60
212,08	1376,24
212,30	1302,51
212,52	1333,23
212,74	1275,88
212,96	1230,83
213,17	1337,32
213,39	1249,26
213,61	1239,02
213,83	1261,55
214,05	1261,55
214,27	1226,73
214,49	1232,88
214,71	1263,60
214,93	1208,30
215,15	1290,22
215,37	1312,75
215,59	1239,02
215,81	1292,27
216,03	1257,45
216,24	1308,65
216,46	1302,51
216,68	1277,93
216,90	1208,30
217,12	1218,54
217,34	1294,32
217,56	1273,84
217,78	1228,78
218,00	1294,32
218,22	1259,50
218,44	1325,04
218,66	1202,16
218,87	1331,18
219,09	1239,02
219,31	1279,98
219,53	1329,13
219,75	1308,65
219,97	1298,41
220,19	1173,49
220,41	1196,01
220,63	1269,74
220,85	1241,07
221,06	1259,50
221,28	1310,70
221,50	1296,36
221,72	1294,32
221,94	1255,40
222,16	1245,16
222,38	1290,22
222,60	1243,12
222,82	1304,56
223,03	1339,37
223,25	1296,36
223,47	1304,56
223,69	1255,40
223,91	1191,92
224,13	1253,36
224,35	1294,32
224,57	1261,55
224,78	1216,49
225,00	1224,69
225,22	1277,93
225,44	1228,78
225,66	1290,22
225,88	1198,06
226,10	1200,11
226,32	1253,36
226,53	1304,56
226,75	1304,56
226,97	1359,85
227,19	1298,41
227,41	1269,74
227,63	1308,65
227,85	1241,07
228,06	1277,93
228,28	1251,31
228,50	1298,41
228,72	1329,13
228,94	1273,84
229,16	1298,41
229,37	1312,75
229,59	1331,18
229,81	1363,95
230,03	1218,54
230,25	1298,41
230,47	1210,35
230,69	1277,93
230,90	1279,98
231,12	1310,70
231,34	1288,17
231,56	1290,22
231,78	1284,08
232,00	1257,45
232,21	1261,55
232,43	1343,47
232,65	1257,45
232,87	1292,27
233,09	1259,50
233,30	1298,41
233,52	1310,70
233,74	1284,08
233,96	1282,03
234,18	1251,31
234,40	1277,93
234,61	1337,32
234,83	1286,12
235,05	1255,40
235,27	1304,56
235,49	1292,27
235,70	1263,60
235,92	1261,55
236,14	1347,56
236,36	1257,45
236,58	1316,84
236,79	1314,80
237,01	1230,83
237,23	1318,89
237,45	1329,13
237,67	1263,60
237,88	1239,02
238,10	1236,97
238,32	1241,07
238,54	1275,88
238,76	1202,16
238,97	1247,21
239,19	1316,84
239,41	1257,45
239,63	1282,03
239,85	1288,17
240,06	1288,17
240,28	1259,50
240,50	1327,08
240,72	1298,41
240,93	1257,45
241,15	1298,41
241,37	1253,36
241,59	1282,03
241,81	1302,51
242,02	1298,41
242,24	1243,12
242,46	1198,06
242,68	1253,36
242,89	1251,31
243,11	1200,11
243,33	1253,36
243,55	1216,49
243,76	1306,60
243,98	1296,36
244,20	1300,46
244,42	1308,65
244,64	1318,89
244,85	1308,65
245,07	1310,70
245,29	1284,08
245,51	1265,64
245,72	1296,36
245,94	1277,93
246,16	1290,22
246,38	1286,12
246,59	1251,31
246,81	1239,02
247,03	1306,60
247,24	1230,83
247,46	1263,60
247,68	1216,49
247,90	1288,17
248,11	1187,82
248,33	1236,97
248,55	1306,60
248,77	1345,52
248,98	1247,21
249,20	1286,12
249,42	1263,60
249,64	1255,40
249,85	1243,12
250,07	1189,87
250,29	1279,98
250,50	1220,59
250,72	1224,69
250,94	1275,88
251,16	1347,56
251,37	1351,66
251,59	1232,88
251,81	1300,46
252,02	1249,26
252,24	1224,69
252,46	1187,82
252,68	1220,59
252,89	1222,64
253,11	1212,40
253,33	1316,84
253,54	1234,93
253,76	1247,21
253,98	1230,83
254,20	1228,78
254,41	1255,40
254,63	1292,27
254,85	1333,23
255,06	1273,84
255,28	1286,12
255,50	1273,84
255,71	1224,69
255,93	1183,73
256,15	1265,64
256,36	1259,50
256,58	1284,08
256,80	1222,64
257,02	1275,88
257,23	1290,22
257,45	1236,97
257,67	1345,52
257,88	1210,35
258,10	1269,74
258,32	1222,64
258,53	1261,55
258,75	1351,66
258,97	1290,22
259,18	1322,99
259,40	1214,45
259,62	1282,03
259,83	1239,02
260,05	1282,03
260,27	1214,45
260,48	1263,60
260,70	1230,83
260,92	1304,56
261,13	1279,98
261,35	1241,07
261,57	1335,28
261,78	1292,27
262,00	1298,41
262,22	1230,83
262,43	1300,46
262,65	1241,07
262,86	1271,79
263,08	1173,49
263,30	1263,60
263,51	1275,88
263,73	1314,80
263,95	1288,17
264,16	1322,99
264,38	1277,93
264,60	1241,07
264,81	1263,60
265,03	1247,21
265,25	1265,64
265,46	1314,80
265,68	1320,94
265,89	1265,64
266,11	1290,22
266,33	1239,02
266,54	1267,69
266,76	1316,84
266,98	1314,80
267,19	1325,04
267,41	1282,03
267,62	1288,17
267,84	1216,49
268,06	1294,32
268,27	1228,78
268,49	1193,97
268,70	1253,36
268,92	1322,99
269,14	1226,73
269,35	1263,60
269,57	1245,16
269,79	1290,22
270,00	1232,88
270,22	1210,35
270,43	1300,46
270,65	1218,54
270,87	1245,16
271,08	1349,61
271,30	1284,08
271,51	1243,12
271,73	1193,97
271,95	1277,93
272,16	1277,93
272,38	1200,11
272,59	1222,64
272,81	1255,40
273,02	1325,04
273,24	1236,97
273,46	1284,08
273,67	1249,26
273,89	1239,02
274,10	1275,88
274,32	1253,36
274,54	1294,32
274,75	1263,60
274,97	1220,59
275,18	1271,79
275,40	1183,73
275,61	1302,51
275,83	1257,45
276,05	1288,17
276,26	1247,21
276,48	1241,07
276,69	1261,55
276,91	1257,45
277,12	1259,50
277,34	1261,55
277,55	1322,99
277,77	1265,64
277,99	1294,32
278,20	1290,22
278,42	1200,11
278,63	1247,21
278,85	1232,88
279,06	1257,45
279,28	1290,22
279,49	1265,64
279,71	1279,98
279,93	1318,89
280,14	1284,08
280,36	1261,55
280,57	1261,55
280,79	1179,63
281,00	1265,64
281,22	1347,56
281,43	1314,80
281,65	1243,12
281,86	1257,45
282,08	1261,55
282,29	1298,41
282,51	1177,58
282,73	1282,03
282,94	1286,12
283,16	1290,22
283,37	1222,64
283,59	1298,41
283,80	1288,17
284,02	1277,93
284,23	1263,60
284,45	1292,27
284,66	1236,97
284,88	1312,75
285,09	1298,41
285,31	1257,45
285,52	1271,79
285,74	1216,49
285,95	1257,45
286,17	1263,60
286,38	1284,08
286,60	1331,18
286,81	1198,06
287,03	1265,64
287,24	1236,97
287,46	1210,35
287,67	1282,03
287,89	1255,40
288,10	1249,26
288,32	1304,56
288,53	1236,97
288,75	1261,55
288,96	1226,73
289,18	1263,60
289,39	1212,40
289,61	1347,56
289,82	1249,26
290,04	1249,26
290,25	1290,22
290,47	1253,36
290,68	1196,01
290,90	1275,88
291,11	1269,74
291,33	1331,18
291,54	1212,40
291,76	1386,47
291,97	1302,51
292,18	1265,64
292,40	1282,03
292,61	1257,45
292,83	1228,78
293,04	1275,88
293,26	1212,40
293,47	1292,27
293,69	1265,64
293,90	1259,50
294,12	1273,84
294,33	1236,97
294,55	1306,60
294,76	1261,55
294,97	1208,30
295,19	1257,45
295,40	1320,94
295,62	1347,56
295,83	1290,22
296,05	1189,87
296,26	1314,80
296,48	1261,55
296,69	1318,89
296,90	1290,22
297,12	1259,50
297,33	1263,60
297,55	1239,02
297,76	1263,60
297,98	1255,40
298,19	1241,07
298,41	1218,54
298,62	1261,55
298,83	1329,13
299,05	1241,07
299,26	1337,32
299,48	1163,25
299,69	1325,04
299,90	1298,41
300,12	1218,54
300,33	1232,88
300,55	1267,69
300,76	1404,91
300,98	1275,88
301,19	1243,12
301,40	1230,83
301,62	1300,46
301,83	1249,26
302,05	1290,22
302,26	1251,31
302,47	1310,70
302,69	1259,50
302,90	1259,50
303,12	1228,78
303,33	1263,60
303,54	1279,98
303,76	1314,80
303,97	1263,60
304,19	1243,12
304,40	1234,93
304,61	1245,16
304,83	1304,56
305,04	1241,07
305,26	1247,21
305,47	1269,74
305,68	1304,56
305,90	1232,88
306,11	1325,04
306,33	1290,22
306,54	1273,84
306,75	1314,80
306,97	1259,50
307,18	1263,60
307,39	1282,03
307,61	1273,84
307,82	1282,03
308,04	1329,13
308,25	1298,41
308,46	1298,41
308,68	1265,64
308,89	1257,45
309,10	1302,51
309,32	1251,31
309,53	1290,22
309,74	1271,79
309,96	1265,64
310,17	1269,74
310,39	1320,94
310,60	1298,41
310,81	1239,02
311,03	1257,45
311,24	1265,64
311,45	1261,55
311,67	1314,80
311,88	1320,94
312,09	1251,31
312,31	1277,93
312,52	1282,03
312,73	1269,74
312,95	1222,64
313,16	1286,12
313,37	1290,22
313,59	1355,76
313,80	1243,12
314,01	1208,30
314,23	1257,45
314,44	1269,74
314,65	1273,84
314,87	1251,31
315,08	1251,31
315,29	1322,99
315,51	1282,03
315,72	1222,64
315,93	1212,40
316,15	1210,35
316,36	1261,55
316,57	1234,93
316,79	1179,63
317,00	1271,79
317,21	1243,12
317,43	1300,46
317,64	1243,12
317,85	1322,99
318,07	1277,93
318,28	1275,88
318,49	1345,52
318,70	1249,26
318,92	1267,69
319,13	1331,18
319,34	1146,86
319,56	1261,55
319,77	1269,74
319,98	1314,80
320,20	1257,45
320,41	1271,79
320,62	1316,84
320,83	1286,12
321,05	1329,13
321,26	1236,97
321,47	1265,64
321,69	1263,60
321,90	1296,36
322,11	1259,50
322,32	1288,17
322,54	1220,59
322,75	1335,28
322,96	1306,60
323,18	1249,26
323,39	1241,07
323,60	1228,78
323,81	1265,64
324,03	1288,17
324,24	1284,08
324,45	1314,80
324,66	1271,79
324,88	1236,97
325,09	1271,79
325,30	1251,31
325,52	1300,46
325,73	1298,41
325,94	1314,80
326,15	1263,60
326,37	1284,08
326,58	1286,12
326,79	1253,36
327,00	1302,51
327,22	1241,07
327,43	1298,41
327,64	1187,82
327,85	1288,17
328,07	1265,64
328,28	1322,99
328,49	1277,93
328,70	1292,27
328,92	1255,40
329,13	1312,75
329,34	1261,55
329,55	1355,76
329,76	1257,45
329,98	1322,99
330,19	1243,12
330,40	1290,22
330,61	1284,08
330,83	1286,12
331,04	1185,77
331,25	1214,45
331,46	1345,52
331,68	1325,04
331,89	1232,88
332,10	1275,88
332,31	1263,60
332,52	1187,82
332,74	1339,37
332,95	1214,45
333,16	1253,36
333,37	1257,45
333,58	1337,32
333,80	1286,12
334,01	1198,06
334,22	1251,31
334,43	1300,46
334,64	1265,64
334,86	1249,26
335,07	1269,74
335,28	1273,84
335,49	1230,83
335,70	1290,22
335,92	1269,74
336,13	1273,84
336,34	1294,32
336,55	1302,51
336,76	1232,88
336,98	1241,07
337,19	1220,59
337,40	1247,21
337,61	1277,93
337,82	1196,01
338,04	1284,08
338,25	1290,22
338,46	1282,03
338,67	1314,80
338,88	1263,60
339,09	1245,16
339,31	1206,25
339,52	1339,37
339,73	1282,03
339,94	1259,50
340,15	1286,12
340,36	1265,64
340,58	1275,88
340,79	1261,55
341,00	1296,36
341,21	1263,60
341,42	1302,51
341,63	1322,99
341,85	1282,03
342,06	1234,93
342,27	1247,21
342,48	1294,32
342,69	1179,63
342,90	1259,50
343,12	1271,79
343,33	1298,41
343,54	1228,78
343,75	1331,18
343,96	1265,64
344,17	1224,69
344,38	1292,27
344,60	1267,69
344,81	1347,56
345,02	1273,84
345,23	1259,50
345,44	1361,90
345,65	1345,52
345,86	1253,36
346,07	1230,83
346,29	1267,69
346,50	1279,98
346,71	1224,69
346,92	1298,41
347,13	1259,50
347,34	1216,49
347,55	1263,60
347,76	1216,49
347,98	1257,45
348,19	1325,04
348,40	1339,37
348,61	1275,88
348,82	1331,18
349,03	1339,37
349,24	1306,60
349,45	1230,83
349,66	1255,40
349,88	1200,11
350,09	1302,51
350,30	1337,32
350,51	1216,49
350,72	1279,98
350,93	1247,21
351,14	1226,73
351,35	1234,93
351,56	1257,45
351,77	1253,36
351,99	1245,16
352,20	1259,50
352,41	1282,03
352,62	1282,03
352,83	1267,69
353,04	1265,64
353,25	1261,55
353,46	1302,51
353,67	1210,35
353,88	1265,64
354,09	1302,51
354,30	1273,84
354,52	1226,73
354,73	1345,52
354,94	1302,51
355,15	1220,59
355,36	1261,55
355,57	1232,88
355,78	1294,32
355,99	1282,03
356,20	1257,45
356,41	1239,02
356,62	1218,54
356,83	1306,60
357,04	1327,08
357,25	1232,88
357,46	1263,60
357,68	1296,36
357,89	1265,64
358,10	1347,56
358,31	1288,17
358,52	1255,40
358,73	1273,84
358,94	1204,21
359,15	1322,99
359,36	1345,52
359,57	1171,44
359,78	1337,32
359,99	1282,03
360,20	1267,69
360,41	1298,41
360,62	1200,11
360,83	1337,32
361,04	1273,84
361,25	1306,60
361,46	1271,79
361,67	1277,93
361,88	1208,30
362,09	1255,40
362,30	1314,80
362,51	1261,55
362,72	1275,88
362,93	1196,01
363,14	1257,45
363,35	1224,69
363,56	1228,78
363,78	1314,80
363,99	1320,94
364,20	1243,12
364,41	1322,99
364,62	1208,30
364,83	1282,03
365,04	1249,26
365,25	1302,51
365,46	1251,31
365,67	1271,79
365,88	1351,66
366,09	1271,79
366,30	1265,64
366,51	1239,02
366,72	1277,93
366,93	1257,45
367,14	1267,69
367,35	1275,88
367,56	1234,93
367,77	1282,03
367,98	1179,63
368,18	1341,42
368,39	1294,32
368,60	1322,99
368,81	1216,49
369,02	1208,30
369,23	1304,56
369,44	1212,40
369,65	1257,45
369,86	1284,08
370,07	1282,03
370,28	1314,80
370,49	1222,64
370,70	1345,52
370,91	1269,74
371,12	1284,08
371,33	1236,97
371,54	1253,36
371,75	1212,40
371,96	1296,36
372,17	1232,88
372,38	1257,45
372,59	1220,59
372,80	1318,89
373,01	1179,63
373,22	1273,84
373,43	1284,08
373,64	1191,92
373,85	1298,41
374,06	1355,76
374,26	1212,40
374,47	1325,04
374,68	1302,51
374,89	1243,12
375,10	1347,56
375,31	1208,30
375,52	1230,83
375,73	1282,03
375,94	1288,17
376,15	1249,26
376,36	1253,36
376,57	1279,98
376,78	1243,12
376,99	1302,51
377,20	1314,80
377,40	1304,56
377,61	1296,36
377,82	1325,04
378,03	1308,65
378,24	1286,12
378,45	1302,51
378,66	1343,47
378,87	1306,60
379,08	1298,41
379,29	1296,36
379,50	1224,69
379,71	1333,23
379,91	1243,12
380,12	1267,69
380,33	1277,93
380,54	1243,12
380,75	1302,51
380,96	1273,84
381,17	1284,08
381,38	1259,50
381,59	1304,56
381,80	1292,27
382,00	1265,64
382,21	1312,75
382,42	1310,70
382,63	1275,88
382,84	1239,02
383,05	1261,55
383,26	1271,79
383,47	1243,12
383,68	1312,75
383,88	1204,21
384,09	1284,08
384,30	1228,78
384,51	1255,40
384,72	1214,45
384,93	1296,36
385,14	1282,03
385,35	1232,88
385,55	1290,22
385,76	1261,55
385,97	1210,35
386,18	1247,21
386,39	1212,40
386,60	1214,45
386,81	1251,31
387,02	1263,60
387,22	1290,22
387,43	1273,84
387,64	1322,99
387,85	1284,08
388,06	1228,78
388,27	1255,40
388,48	1310,70
388,68	1239,02
388,89	1253,36
389,10	1294,32
389,31	1296,36
389,52	1234,93
389,73	1259,50
389,93	1316,84
390,14	1327,08
390,35	1265,64
390,56	1282,03
390,77	1265,64
390,98	1220,59
391,18	1333,23
391,39	1214,45
391,60	1243,12
391,81	1316,84
392,02	1251,31
392,23	1308,65
392,43	1273,84
392,64	1239,02
392,85	1304,56
393,06	1275,88
393,27	1271,79
393,47	1318,89
393,68	1247,21
393,89	1312,75
394,10	1294,32
394,31	1261,55
394,52	1226,73
394,72	1236,97
394,93	1277,93
395,14	1308,65
395,35	1236,97
395,56	1277,93
395,76	1236,97
395,97	1302,51
396,18	1243,12
396,39	1245,16
396,60	1255,40
396,80	1302,51
397,01	1265,64
397,22	1241,07
397,43	1257,45
397,64	1333,23
397,84	1259,50
398,05	1263,60
398,26	1325,04
398,47	1241,07
398,67	1357,80
398,88	1357,80
399,09	1253,36
399,30	1271,79
399,51	1335,28
399,71	1234,93
399,92	1339,37
400,13	1245,16
400,34	1310,70
400,54	1300,46
400,75	1316,84
400,96	1202,16
401,17	1282,03
401,37	1273,84
401,58	1232,88
401,79	1376,24
402,00	1249,26
402,21	1275,88
402,41	1208,30
402,62	1208,30
402,83	1261,55
403,04	1282,03
403,24	1265,64
403,45	1200,11
403,66	1337,32
403,87	1253,36
404,07	1292,27
404,28	1208,30
404,49	1259,50
404,70	1325,04
404,90	1318,89
405,11	1261,55
405,32	1298,41
405,52	1296,36
405,73	1288,17
405,94	1247,21
406,15	1277,93
406,35	1261,55
406,56	1228,78
406,77	1312,75
406,98	1304,56
407,18	1282,03
407,39	1275,88
407,60	1234,93
407,80	1308,65
408,01	1226,73
408,22	1255,40
408,43	1210,35
408,63	1312,75
408,84	1300,46
409,05	1314,80
409,25	1261,55
409,46	1212,40
409,67	1298,41
409,88	1257,45
410,08	1267,69
410,29	1208,30
410,50	1230,83
410,70	1288,17
410,91	1335,28
411,12	1265,64
411,32	1265,64
411,53	1279,98
411,74	1331,18
411,95	1275,88
412,15	1226,73
412,36	1310,70
412,57	1277,93
412,77	1247,21
412,98	1249,26
413,19	1239,02
413,39	1304,56
413,60	1230,83
413,81	1310,70
414,01	1232,88
414,22	1308,65
414,43	1251,31
414,63	1265,64
414,84	1243,12
415,05	1337,32
415,25	1288,17
415,46	1296,36
415,67	1349,61
415,87	1335,28
416,08	1302,51
416,29	1290,22
416,49	1308,65
416,70	1288,17
416,91	1273,84
417,11	1282,03
417,32	1265,64
417,53	1241,07
417,73	1284,08
417,94	1304,56
418,15	1216,49
418,35	1269,74
418,56	1273,84
418,77	1255,40
418,97	1241,07
419,18	1279,98
419,38	1261,55
419,59	1267,69
419,80	1288,17
420,00	1249,26
420,21	1279,98
420,42	1275,88
420,62	1312,75
420,83	1265,64
421,04	1329,13
421,24	1257,45
421,45	1230,83
421,65	1355,76
421,86	1269,74
422,07	1247,21
422,27	1196,01
422,48	1206,25
422,69	1212,40
422,89	1253,36
423,10	1306,60
423,30	1273,84
423,51	1282,03
423,72	1267,69
423,92	1249,26
424,13	1279,98
424,33	1230,83
424,54	1282,03
424,75	1288,17
424,95	1277,93
425,16	1249,26
425,36	1247,21
425,57	1236,97
425,78	1304,56
425,98	1322,99
426,19	1208,30
426,39	1232,88
426,60	1290,22
426,81	1310,70
427,01	1243,12
427,22	1236,97
427,42	1273,84
427,63	1359,85
427,83	1325,04
428,04	1177,58
428,25	1257,45
428,45	1265,64
428,66	1282,03
428,86	1263,60
429,07	1298,41
429,28	1267,69
429,48	1290,22
429,69	1292,27
429,89	1310,70
430,10	1214,45
430,30	1353,71
430,51	1296,36
430,71	1243,12
430,92	1265,64
431,13	1269,74
431,33	1253,36
431,54	1255,40
431,74	1177,58
431,95	1290,22
432,15	1282,03
432,36	1214,45
432,56	1339,37
432,77	1271,79
432,98	1335,28
433,18	1239,02
433,39	1216,49
433,59	1269,74
433,80	1239,02
434,00	1232,88
434,21	1263,60
434,41	1239,02
434,62	1279,98
434,82	1228,78
435,03	1290,22
435,23	1282,03
435,44	1282,03
435,64	1275,88
435,85	1263,60
436,06	1232,88
436,26	1355,76
436,47	1286,12
436,67	1294,32
436,88	1277,93
437,08	1206,25
437,29	1232,88
437,49	1255,40
437,70	1257,45
437,90	1255,40
438,11	1271,79
438,31	1277,93
438,52	1277,93
438,72	1286,12
438,93	1208,30
439,13	1230,83
439,34	1208,30
439,54	1222,64
439,75	1257,45
439,95	1288,17
440,16	1247,21
440,36	1279,98
440,57	1284,08
440,77	1163,25
440,98	1247,21
441,18	1345,52
441,39	1316,84
441,59	1282,03
441,80	1327,08
442,00	1249,26
442,21	1257,45
442,41	1298,41
442,62	1290,22
442,82	1310,70
443,02	1187,82
443,23	1318,89
443,43	1220,59
443,64	1292,27
443,84	1247,21
444,05	1249,26
444,25	1306,60
444,46	1255,40
444,66	1206,25
444,87	1306,60
445,07	1277,93
445,28	1294,32
445,48	1288,17
445,69	1257,45
445,89	1261,55
446,09	1290,22
446,30	1275,88
446,50	1296,36
446,71	1265,64
446,91	1304,56
447,12	1267,69
447,32	1273,84
447,53	1259,50
447,73	1273,84
447,93	1261,55
448,14	1298,41
448,34	1239,02
448,55	1306,60
448,75	1239,02
448,96	1339,37
449,16	1261,55
449,36	1370,09
449,57	1294,32
449,77	1327,08
449,98	1341,42
450,18	1286,12
450,39	1259,50
450,59	1271,79
450,79	1286,12
451,00	1296,36
451,20	1236,97
451,41	1253,36
451,61	1257,45
451,81	1271,79
452,02	1214,45
452,22	1269,74
452,43	1212,40
452,63	1288,17
452,84	1306,60
453,04	1279,98
453,24	1236,97
453,45	1308,65
453,65	1251,31
453,86	1292,27
454,06	1224,69
454,26	1265,64
454,47	1263,60
454,67	1329,13
454,87	1255,40
455,08	1247,21
455,28	1239,02
455,49	1220,59
455,69	1239,02
455,89	1282,03
456,10	1284,08
456,30	1263,60
456,51	1277,93
456,71	1273,84
456,91	1259,50
457,12	1275,88
457,32	1253,36
457,52	1298,41
457,73	1257,45
457,93	1273,84
458,14	1273,84
458,34	1220,59
458,54	1312,75
458,75	1218,54
458,95	1288,17
459,15	1296,36
459,36	1279,98
459,56	1271,79
459,76	1269,74
459,97	1255,40
460,17	1335,28
460,37	1282,03
460,58	1310,70
460,78	1302,51
460,99	1343,47
461,19	1288,17
461,39	1337,32
461,60	1253,36
461,80	1296,36
462,00	1345,52
462,21	1257,45
462,41	1290,22
462,61	1218,54
462,82	1306,60
463,02	1322,99
463,22	1232,88
463,43	1333,23
463,63	1271,79
463,83	1218,54
464,04	1331,18
464,24	1341,42
464,44	1241,07
464,64	1220,59
464,85	1247,21
465,05	1228,78
465,25	1282,03
465,46	1198,06
465,66	1333,23
465,86	1218,54
466,07	1277,93
466,27	1236,97
466,47	1279,98
466,68	1249,26
466,88	1193,97
467,08	1273,84
467,29	1269,74
467,49	1171,44
467,69	1245,16
467,89	1251,31
468,10	1263,60
468,30	1273,84
468,50	1292,27
468,71	1243,12
468,91	1239,02
469,11	1306,60
469,31	1304,56
469,52	1275,88
469,72	1279,98
469,92	1275,88
470,13	1222,64
470,33	1308,65
470,53	1214,45
470,73	1257,45
470,94	1253,36
471,14	1232,88
471,34	1306,60
471,54	1290,22
471,75	1232,88
471,95	1224,69
472,15	1331,18
472,36	1331,18
472,56	1318,89
472,76	1290,22
472,96	1245,16
473,17	1263,60
473,37	1261,55
473,57	1290,22
473,77	1224,69
473,98	1255,40
474,18	1249,26
474,38	1273,84
474,58	1239,02
474,79	1308,65
474,99	1292,27
475,19	1308,65
475,39	1304,56
475,60	1261,55
475,80	1249,26
476,00	1267,69
476,20	1273,84
476,41	1200,11
476,61	1298,41
476,81	1265,64
477,01	1286,12
477,21	1302,51
477,42	1300,46
477,62	1316,84
477,82	1359,85
478,02	1329,13
478,23	1200,11
478,43	1279,98
478,63	1187,82
478,83	1257,45
479,03	1282,03
479,24	1230,83
479,44	1331,18
479,64	1279,98
479,84	1239,02
480,04	1308,65
480,25	1275,88
480,45	1286,12
480,65	1208,30
480,85	1216,49
481,06	1200,11
481,26	1335,28
481,46	1259,50
481,66	1218,54
481,86	1343,47
482,06	1271,79
482,27	1247,21
482,47	1261,55
482,67	1232,88
482,87	1294,32
483,07	1216,49
483,28	1234,93
483,48	1282,03
483,68	1251,31
483,88	1198,06
484,08	1232,88
484,29	1298,41
484,49	1298,41
484,69	1226,73
484,89	1269,74
485,09	1279,98
485,29	1239,02
485,50	1257,45
485,70	1249,26
485,90	1292,27
486,10	1261,55
486,30	1249,26
486,50	1253,36
486,71	1214,45
486,91	1251,31
487,11	1308,65
487,31	1200,11
487,51	1275,88
487,71	1220,59
487,91	1288,17
488,12	1286,12
488,32	1236,97
488,52	1234,93
488,72	1212,40
488,92	1224,69
489,12	1261,55
489,32	1267,69
489,53	1273,84
489,73	1300,46
489,93	1294,32
490,13	1249,26
490,33	1261,55
490,53	1212,40
490,73	1273,84
490,94	1232,88
491,14	1302,51
491,34	1302,51
491,54	1292,27
491,74	1222,64
491,94	1310,70
492,14	1290,22
492,34	1306,60
492,54	1239,02
492,75	1232,88
492,95	1265,64
493,15	1298,41
493,35	1267,69
493,55	1308,65
493,75	1353,71
493,95	1300,46
494,15	1263,60
494,35	1271,79
494,56	1249,26
494,76	1249,26
494,96	1218,54
495,16	1294,32
495,36	1284,08
495,56	1208,30
495,76	1279,98
495,96	1257,45
496,16	1331,18
496,36	1224,69
496,56	1331,18
496,77	1331,18
496,97	1214,45
497,17	1269,74
497,37	1284,08
497,57	1253,36
497,77	1288,17
497,97	1216,49
498,17	1230,83
498,37	1302,51
498,57	1345,52
498,77	1249,26
498,97	1310,70
499,17	1259,50
499,38	1294,32
499,58	1296,36
499,78	1267,69
499,98	1263,60
500,18	1284,08
500,38	1257,45
500,58	1288,17
500,78	1302,51
500,98	1279,98
501,18	1247,21
501,38	1273,84
501,58	1226,73
501,78	1327,08
501,98	1282,03
502,18	1302,51
502,38	1263,60
502,58	1302,51
502,78	1290,22
502,98	1230,83
503,18	1255,40
503,38	1275,88
503,59	1230,83
503,79	1294,32
503,99	1341,42
504,19	1298,41
504,39	1282,03
504,59	1273,84
504,79	1292,27
504,99	1234,93
505,19	1331,18
505,39	1261,55
505,59	1202,16
505,79	1265,64
505,99	1263,60
506,19	1226,73
506,39	1228,78
506,59	1245,16
506,79	1271,79
506,99	1296,36
507,19	1187,82
507,39	1200,11
507,59	1224,69
507,79	1251,31
507,99	1230,83
508,19	1226,73
508,39	1310,70
508,59	1275,88
508,79	1314,80
508,99	1271,79
509,19	1320,94
509,39	1298,41
509,59	1300,46
509,79	1253,36
509,99	1269,74
510,19	1216,49
510,39	1228,78
510,59	1267,69
510,79	1279,98
510,99	1269,74
511,19	1322,99
511,39	1320,94
511,59	1177,58
511,79	1239,02
511,99	1249,26
512,19	1390,57
512,38	1288,17
512,58	1282,03
512,78	1200,11
512,98	1222,64
513,18	1279,98
513,38	1312,75
513,58	1241,07
513,78	1259,50
513,98	1259,50
514,18	1308,65
514,38	1255,40
514,58	1255,40
514,78	1214,45
514,98	1298,41
515,18	1267,69
515,38	1257,45
515,58	1265,64
515,78	1277,93
515,98	1234,93
516,18	1279,98
516,38	1279,98
516,57	1275,88
516,77	1302,51
516,97	1206,25
517,17	1277,93
517,37	1232,88
517,57	1310,70
517,77	1325,04
517,97	1273,84
518,17	1300,46
518,37	1286,12
518,57	1277,93
518,77	1288,17
518,97	1308,65
519,16	1304,56
519,36	1263,60
519,56	1265,64
519,76	1245,16
519,96	1214,45
520,16	1247,21
520,36	1216,49
520,56	1310,70
520,76	1318,89
520,96	1294,32
521,16	1253,36
521,35	1286,12
521,55	1292,27
521,75	1265,64
521,95	1318,89
522,15	1204,21
522,35	1314,80
522,55	1210,35
522,75	1249,26
522,95	1306,60
523,14	1255,40
523,34	1273,84
523,54	1241,07
523,74	1222,64
523,94	1241,07
524,14	1234,93
524,34	1222,64
524,54	1169,39
524,73	1236,97
524,93	1308,65
525,13	1163,25
525,33	1296,36
525,53	1312,75
525,73	1257,45
525,93	1239,02
526,13	1163,25
526,32	1232,88
526,52	1279,98
526,72	1331,18
526,92	1267,69
527,12	1306,60
527,32	1296,36
527,52	1230,83
527,71	1310,70
527,91	1181,68
528,11	1253,36
528,31	1288,17
528,51	1308,65
528,71	1306,60
528,90	1331,18
529,10	1353,71
529,30	1290,22
529,50	1310,70
529,70	1208,30
529,90	1288,17
530,09	1298,41
530,29	1298,41
530,49	1208,30
530,69	1257,45
530,89	1210,35
531,09	1228,78
531,28	1232,88
531,48	1322,99
531,68	1263,60
531,88	1294,32
532,08	1239,02
532,28	1294,32
532,47	1298,41
532,67	1294,32
532,87	1247,21
533,07	1302,51
533,27	1296,36
533,46	1243,12
533,66	1302,51
533,86	1294,32
534,06	1212,40
534,26	1263,60
534,45	1236,97
534,65	1216,49
534,85	1249,26
535,05	1273,84
535,25	1333,23
535,44	1273,84
535,64	1304,56
535,84	1226,73
536,04	1316,84
536,24	1257,45
536,43	1236,97
536,63	1263,60
536,83	1212,40
537,03	1292,27
537,22	1314,80
537,42	1230,83
537,62	1298,41
537,82	1200,11
538,02	1249,26
538,21	1249,26
538,41	1271,79
538,61	1275,88
538,81	1269,74
539,00	1282,03
539,20	1210,35
539,40	1325,04
539,60	1255,40
539,79	1267,69
539,99	1343,47
540,19	1253,36
540,39	1269,74
540,58	1316,84
540,78	1249,26
540,98	1253,36
541,18	1259,50
541,37	1226,73
541,57	1312,75
541,77	1282,03
541,97	1282,03
542,16	1243,12
542,36	1208,30
542,56	1265,64
542,76	1245,16
542,95	1208,30
543,15	1304,56
543,35	1265,64
543,54	1286,12
543,74	1222,64
543,94	1294,32
544,14	1259,50
544,33	1265,64
544,53	1318,89
544,73	1372,14
544,93	1230,83
545,12	1273,84
545,32	1290,22
545,52	1228,78
545,71	1286,12
545,91	1322,99
546,11	1196,01
546,30	1339,37
546,50	1271,79
546,70	1239,02
546,90	1343,47
547,09	1265,64
547,29	1277,93
547,49	1263,60
547,68	1288,17
547,88	1230,83
548,08	1298,41
548,27	1279,98
548,47	1251,31
548,67	1282,03
548,87	1241,07
549,06	1247,21
549,26	1275,88
549,46	1355,76
549,65	1282,03
549,85	1257,45
550,05	1292,27
550,24	1277,93
550,44	1212,40
550,64	1282,03
550,83	1296,36
551,03	1290,22
551,23	1265,64
551,42	1322,99
551,62	1222,64
551,82	1230,83
552,01	1243,12
552,21	1325,04
552,41	1300,46
552,60	1298,41
552,80	1241,07
553,00	1236,97
553,19	1386,47
553,39	1298,41
553,59	1349,61
553,78	1318,89
553,98	1271,79
554,17	1339,37
554,37	1253,36
554,57	1239,02
554,76	1245,16
554,96	1241,07
555,16	1306,60
555,35	1257,45
555,55	1236,97
555,75	1300,46
555,94	1218,54
556,14	1271,79
556,33	1206,25
556,53	1167,34
556,73	1343,47
556,92	1253,36
557,12	1236,97
557,32	1318,89
557,51	1257,45
557,71	1224,69
557,90	1345,52
558,10	1271,79
558,30	1368,04
558,49	1351,66
558,69	1294,32
558,88	1300,46
559,08	1265,64
559,28	1273,84
559,47	1296,36
559,67	1310,70
559,86	1286,12
560,06	1327,08
560,26	1216,49
560,45	1243,12
560,65	1357,80
560,84	1255,40
561,04	1363,95
561,24	1263,60
561,43	1255,40
561,63	1236,97
561,82	1230,83
562,02	1218,54
562,22	1261,55
562,41	1196,01
562,61	1267,69
562,80	1234,93
563,00	1245,16
563,19	1265,64
563,39	1247,21
563,59	1277,93
563,78	1314,80
563,98	1286,12
564,17	1236,97
564,37	1245,16
564,56	1265,64
564,76	1232,88
564,96	1271,79
565,15	1263,60
565,35	1300,46
565,54	1316,84
565,74	1298,41
565,93	1247,21
566,13	1239,02
566,32	1279,98
566,52	1257,45
566,71	1259,50
566,91	1243,12
567,11	1257,45
567,30	1236,97
567,50	1273,84
567,69	1296,36
567,89	1261,55
568,08	1245,16
568,28	1259,50
568,47	1267,69
568,67	1198,06
568,86	1327,08
569,06	1214,45
569,25	1261,55
569,45	1183,73
569,64	1239,02
569,84	1294,32
570,04	1322,99
570,23	1220,59
570,43	1236,97
570,62	1243,12
570,82	1279,98
571,01	1241,07
571,21	1239,02
571,40	1269,74
571,60	1259,50
571,79	1308,65
571,99	1306,60
572,18	1181,68
572,38	1325,04
572,57	1279,98
572,77	1259,50
572,96	1257,45
573,16	1234,93
573,35	1247,21
573,55	1282,03
573,74	1245,16
573,94	1277,93
574,13	1284,08
574,33	1193,97
574,52	1247,21
574,71	1247,21
574,91	1259,50
575,10	1247,21
575,30	1298,41
575,49	1298,41
575,69	1271,79
575,88	1314,80
576,08	1273,84
576,27	1259,50
576,47	1251,31
576,66	1345,52
576,86	1255,40
577,05	1241,07
577,25	1241,07
577,44	1271,79
577,64	1232,88
577,83	1239,02
578,02	1275,88
578,22	1232,88
578,41	1273,84
578,61	1263,60
578,80	1263,60
579,00	1322,99
579,19	1257,45
579,39	1294,32
579,58	1298,41
579,77	1241,07
579,97	1296,36
580,16	1290,22
580,36	1226,73
580,55	1339,37
580,75	1290,22
580,94	1306,60
581,13	1257,45
581,33	1302,51
581,52	1302,51
581,72	1288,17
581,91	1304,56
582,11	1300,46
582,30	1320,94
582,49	1255,40
582,69	1279,98
582,88	1259,50
583,08	1257,45
583,27	1277,93
583,47	1236,97
583,66	1261,55
583,85	1239,02
584,05	1222,64
584,24	1261,55
584,44	1275,88
584,63	1169,39
584,82	1290,22
585,02	1255,40
585,21	1310,70
585,41	1261,55
585,60	1341,42
585,79	1277,93
585,99	1275,88
586,18	1312,75
586,37	1230,83
586,57	1265,64
586,76	1261,55
586,96	1335,28
587,15	1347,56
587,34	1363,95
587,54	1228,78
587,73	1288,17
587,93	1181,68
588,12	1341,42
588,31	1296,36
588,51	1333,23
588,70	1259,50
588,89	1284,08
589,09	1347,56
589,28	1253,36
589,47	1251,31
589,67	1337,32
589,86	1308,65
590,06	1257,45
590,25	1282,03
590,44	1298,41
590,64	1177,58
590,83	1218,54
591,02	1296,36
591,22	1292,27
591,41	1308,65
591,60	1302,51
591,80	1288,17
591,99	1286,12
592,18	1245,16
592,38	1251,31
592,57	1208,30
592,76	1243,12
592,96	1269,74
593,15	1265,64
593,34	1247,21
593,54	1318,89
593,73	1265,64
593,92	1316,84
594,12	1251,31
594,31	1265,64
594,50	1325,04
594,70	1327,08
594,89	1261,55
595,08	1277,93
595,28	1294,32
595,47	1322,99
595,66	1208,30
595,86	1351,66
596,05	1234,93
596,24	1259,50
596,43	1271,79
596,63	1241,07
596,82	1253,36
597,01	1288,17
597,21	1304,56
597,40	1249,26
597,59	1239,02
597,79	1247,21
597,98	1286,12
598,17	1265,64
598,36	1265,64
598,56	1245,16
598,75	1314,80
598,94	1302,51
599,14	1228,78
599,33	1310,70
599,52	1241,07
599,71	1273,84
599,91	1261,55
600,10	1314,80
600,29	1329,13
600,48	1269,74
600,68	1212,40
600,87	1292,27
601,06	1259,50
601,26	1294,32
601,45	1275,88
601,64	1314,80
601,83	1296,36
602,03	1261,55
602,22	1279,98
602,41	1216,49
602,60	1288,17
602,80	1286,12
602,99	1304,56
603,18	1243,12
603,37	1243,12
603,57	1257,45
603,76	1255,40
603,95	1312,75
604,14	1243,12
604,34	1187,82
604,53	1265,64
604,72	1212,40
604,91	1290,22
605,10	1284,08
605,30	1230,83
605,49	1239,02
605,68	1243,12
605,87	1232,88
606,07	1239,02
606,26	1298,41
606,45	1263,60
606,64	1294,32
606,84	1282,03
607,03	1261,55
607,22	1273,84
607,41	1216,49
607,60	1273,84
607,80	1314,80
607,99	1298,41
608,18	1275,88
608,37	1245,16
608,56	1257,45
608,76	1306,60
608,95	1312,75
609,14	1255,40
609,33	1298,41
609,52	1204,21
609,72	1255,40
609,91	1304,56
610,10	1251,31
610,29	1288,17
610,48	1265,64
610,68	1284,08
610,87	1259,50
611,06	1333,23
611,25	1273,84
611,44	1314,80
611,63	1253,36
611,83	1269,74
612,02	1251,31
612,21	1355,76
612,40	1234,93
612,59	1292,27
612,79	1294,32
612,98	1232,88
613,17	1290,22
613,36	1277,93
613,55	1218,54
613,74	1241,07
613,93	1263,60
614,13	1306,60
614,32	1298,41
614,51	1294,32
614,70	1167,34
614,89	1226,73
615,08	1282,03
615,28	1322,99
615,47	1290,22
615,66	1290,22
615,85	1286,12
616,04	1312,75
616,23	1161,20
616,42	1282,03
616,62	1234,93
616,81	1279,98
617,00	1286,12
617,19	1320,94
617,38	1210,35
617,57	1292,27
617,76	1282,03
617,95	1310,70
618,15	1271,79
618,34	1316,84
618,53	1232,88
618,72	1292,27
618,91	1273,84
619,10	1265,64
619,29	1284,08
619,48	1318,89
619,68	1234,93
619,87	1320,94
620,06	1271,79
620,25	1218,54
620,44	1386,47
620,63	1337,32
620,82	1181,68
621,01	1220,59
621,20	1249,26
621,39	1275,88
621,59	1288,17
621,78	1245,16
621,97	1245,16
622,16	1294,32
622,35	1294,32
622,54	1230,83
622,73	1304,56
622,92	1263,60
623,11	1261,55
623,30	1306,60
623,49	1241,07
623,68	1253,36
623,88	1284,08
624,07	1226,73
624,26	1275,88
624,45	1296,36
624,64	1275,88
624,83	1187,82
625,02	1236,97
625,21	1353,71
625,40	1347,56
625,59	1257,45
625,78	1273,84
625,97	1304,56
626,16	1353,71
626,35	1232,88
626,54	1251,31
626,74	1286,12
626,93	1320,94
627,12	1320,94
627,31	1292,27
627,50	1392,62
627,69	1269,74
627,88	1320,94
628,07	1261,55
628,26	1310,70
628,45	1275,88
628,64	1261,55
628,83	1249,26
629,02	1300,46
629,21	1359,85
629,40	1339,37
629,59	1277,93
629,78	1245,16
629,97	1306,60
630,16	1335,28
630,35	1347,56
630,54	1325,04
630,73	1257,45
630,92	1241,07
631,11	1318,89
631,30	1335,28
631,49	1372,14
631,68	1990,63
631,87	6469,53
632,06	26191,47
632,25	55493,81
632,44	43212,14
632,63	28880,46
632,82	26431,08
633,01	6250,40
633,20	3385,29
633,39	3182,54
633,58	2629,59
633,77	2150,37
633,96	1947,62
634,15	1877,99
634,34	1820,64
634,53	1695,72
634,72	1624,04
634,91	1566,70
635,10	1550,31
635,29	1648,61
635,48	1435,63
635,67	1429,48
635,86	1478,63
636,05	1452,01
636,24	1417,19
636,43	1390,57
636,62	1363,95
636,81	1388,52
637,00	1318,89
637,19	1431,53
637,38	1437,67
637,57	1312,75
637,76	1363,95
637,95	1327,08
638,14	1282,03
638,33	1329,13
638,52	1286,12
638,71	1290,22
638,89	1245,16
639,08	1322,99
639,27	1312,75
639,46	1265,64
639,65	1290,22
639,84	1306,60
640,03	1267,69
640,22	1279,98
640,41	1236,97
640,60	1277,93
640,79	1279,98
640,98	1261,55
641,17	1304,56
641,36	1314,80
641,55	1249,26
641,74	1226,73
641,92	1232,88
642,11	1304,56
642,30	1253,36
642,49	1310,70
642,68	1259,50
642,87	1298,41
643,06	1243,12
643,25	1282,03
643,44	1202,16
643,63	1273,84
643,82	1257,45
644,00	1224,69
644,19	1247,21
644,38	1212,40
644,57	1296,36
644,76	1316,84
644,95	1263,60
645,14	1271,79
645,33	1331,18
645,52	1267,69
645,71	1302,51
645,89	1269,74
646,08	1220,59
646,27	1259,50
646,46	1206,25
646,65	1208,30
646,84	1230,83
647,03	1335,28
647,22	1269,74
647,40	1327,08
647,59	1241,07
647,78	1286,12
647,97	1218,54
648,16	1249,26
648,35	1306,60
648,54	1259,50
648,73	1325,04
648,91	1282,03
649,10	1286,12
649,29	1241,07
649,48	1312,75
649,67	1347,56
649,86	1243,12
650,05	1247,21
650,23	1263,60
650,42	1263,60
650,61	1267,69
650,80	1259,50
650,99	1282,03
651,18	1271,79
651,36	1288,17
651,55	1298,41
651,74	1300,46
651,93	1257,45
652,12	1304,56
652,31	1247,21
652,49	1325,04
652,68	1265,64
652,87	1282,03
653,06	1247,21
653,25	1279,98
653,44	1249,26
653,62	1329,13
653,81	1228,78
654,00	1277,93
654,19	1245,16
654,38	1357,80
654,56	1282,03
654,75	1279,98
654,94	1265,64
655,13	1302,51
655,32	1253,36
655,51	1318,89
655,69	1290,22
655,88	1339,37
656,07	1247,21
656,26	1298,41
656,45	1179,63
656,63	1265,64
656,82	1308,65
657,01	1282,03
657,20	1273,84
657,38	1247,21
657,57	1255,40
657,76	1347,56
657,95	1204,21
658,14	1265,64
658,32	1230,83
658,51	1302,51
658,70	1216,49
658,89	1253,36
659,08	1251,31
659,26	1257,45
659,45	1300,46
659,64	1269,74
659,83	1310,70
660,01	1265,64
660,20	1255,40
660,39	1247,21
660,58	1261,55
660,76	1306,60
660,95	1304,56
661,14	1357,80
661,33	1279,98
661,51	1232,88
661,70	1218,54
661,89	1312,75
662,08	1220,59
662,26	1263,60
662,45	1294,32
662,64	1337,32
662,83	1296,36
663,01	1273,84
663,20	1198,06
663,39	1286,12
663,58	1255,40
663,76	1314,80
663,95	1228,78
664,14	1304,56
664,32	1284,08
664,51	1273,84
664,70	1241,07
664,89	1337,32
665,07	1288,17
665,26	1243,12
665,45	1318,89
665,64	1224,69
665,82	1286,12
666,01	1183,73
666,20	1271,79
666,38	1296,36
666,57	1261,55
666,76	1312,75
666,95	1265,64
667,13	1296,36
667,32	1282,03
667,51	1290,22
667,69	1273,84
667,88	1277,93
668,07	1259,50
668,25	1298,41
668,44	1265,64
668,63	1314,80
668,81	1236,97
669,00	1294,32
669,19	1249,26
669,38	1222,64
669,56	1343,47
669,75	1282,03
669,94	1255,40
670,12	1282,03
670,31	1271,79
670,50	1282,03
670,68	1333,23
670,87	1294,32
671,06	1234,93
671,24	1191,92
671,43	1226,73
671,62	1273,84
671,80	1304,56
671,99	1300,46
672,18	1296,36
672,36	1329,13
672,55	1245,16
672,74	1259,50
672,92	1290,22
673,11	1277,93
673,29	1243,12
673,48	1310,70
673,67	1243,12
673,85	1173,49
674,04	1230,83
674,23	1310,70
674,41	1275,88
674,60	1271,79
674,79	1314,80
674,97	1267,69
675,16	1298,41
675,34	1286,12
675,53	1251,31
675,72	1363,95
675,90	1312,75
676,09	1325,04
676,28	1310,70
676,46	1267,69
676,65	1269,74
676,83	1275,88
677,02	1288,17
677,21	1273,84
677,39	1249,26
677,58	1284,08
677,77	1183,73
677,95	1216,49
678,14	1288,17
678,32	1243,12
678,51	1286,12
678,70	1263,60
678,88	1322,99
679,07	1286,12
679,25	1249,26
679,44	1282,03
679,63	1259,50
679,81	1267,69
680,00	1306,60
680,18	1312,75
680,37	1333,23
680,55	1312,75
680,74	1234,93
680,93	1216,49
681,11	1322,99
681,30	1249,26
681,48	1245,16
681,67	1243,12
681,85	1275,88
682,04	1327,08
682,23	1228,78
682,41	1263,60
682,60	1271,79
682,78	1286,12
682,97	1310,70
683,15	1341,42
683,34	1331,18
683,53	1286,12
683,71	1316,84
683,90	1372,14
684,08	1302,51
684,27	1286,12
684,45	1279,98
684,64	1202,16
684,82	1273,84
685,01	1232,88
685,19	1310,70
685,38	1296,36
685,57	1310,70
685,75	1249,26
685,94	1322,99
686,12	1300,46
686,31	1304,56
686,49	1236,97
686,68	1243,12
686,86	1251,31
687,05	1226,73
687,23	1261,55
687,42	1282,03
687,60	1261,55
687,79	1308,65
687,97	1253,36
688,16	1263,60
688,34	1355,76
688,53	1282,03
688,71	1290,22
688,90	1251,31
689,08	1275,88
689,27	1265,64
689,45	1300,46
689,64	1218,54
689,82	1312,75
690,01	1267,69
690,19	1290,22
690,38	1271,79
690,56	1265,64
690,75	1265,64
690,93	1245,16
691,12	1253,36
691,30	1220,59
691,49	1286,12
691,67	1239,02
691,86	1230,83
692,04	1282,03
692,23	1249,26
692,41	1288,17
692,60	1239,02
692,78	1228,78
692,97	1286,12
693,15	1230,83
693,34	1236,97
693,52	1245,16
693,71	1325,04
693,89	1189,87
694,08	1306,60
694,26	1228,78
694,44	1234,93
694,63	1306,60
694,81	1251,31
695,00	1249,26
695,18	1277,93
695,37	1314,80
695,55	1273,84
695,74	1282,03
695,92	1292,27
696,10	1253,36
696,29	1308,65
696,47	1312,75
696,66	1259,50
696,84	1222,64
697,03	1320,94
697,21	1267,69
697,40	1308,65
697,58	1290,22
697,76	1296,36
697,95	1288,17
698,13	1173,49
698,32	1269,74
698,50	1261,55
698,68	1216,49
698,87	1261,55
699,05	1310,70
699,24	1312,75
699,42	1347,56
699,61	1275,88
699,79	1241,07
699,97	1314,80
700,16	1318,89
700,34	1300,46
700,53	1288,17
700,71	1261,55
700,89	1312,75
701,08	1210,35
701,26	1232,88
701,45	1300,46
701,63	1292,27
701,81	1275,88
702,00	1298,41
702,18	1214,45
702,37	1271,79
702,55	1226,73
702,73	1273,84
702,92	1193,97
703,10	1304,56
703,28	1249,26
703,47	1265,64
703,65	1273,84
703,84	1286,12
704,02	1255,40
704,20	1249,26
704,39	1273,84
704,57	1277,93
704,75	1251,31
704,94	1312,75
705,12	1333,23
705,30	1304,56
705,49	1236,97
705,67	1409,00
705,86	1253,36
706,04	1189,87
706,22	1247,21
706,41	1308,65
706,59	1181,68
706,77	1333,23
706,96	1302,51
707,14	1218,54
707,32	1253,36
707,51	1239,02
707,69	1236,97
707,87	1288,17
708,06	1292,27
708,24	1257,45
708,42	1306,60
708,61	1335,28
708,79	1310,70
708,97	1275,88
709,16	1228,78
709,34	1296,36
709,52	1249,26
709,71	1294,32
709,89	1298,41
710,07	1198,06
710,26	1300,46
710,44	1308,65
710,62	1255,40
710,80	1304,56
710,99	1255,40
711,17	1261,55
711,35	1255,40
711,54	1329,13
711,72	1253,36
711,90	1265,64
712,09	1208,30
712,27	1302,51
712,45	1157,10
712,63	1216,49
712,82	1191,92
713,00	1310,70
713,18	1224,69
713,37	1251,31
713,55	1314,80
713,73	1232,88
713,91	1341,42
714,10	1318,89
714,28	1212,40
714,46	1275,88
714,65	1230,83
714,83	1177,58
715,01	1316,84
715,19	1265,64
715,38	1245,16
715,56	1171,44
715,74	1316,84
715,92	1314,80
716,11	1247,21
716,29	1241,07
716,47	1228,78
716,65	1357,80
716,84	1202,16
717,02	1261,55
717,20	1294,32
717,38	1322,99
717,57	1267,69
717,75	1249,26
717,93	1230,83
718,11	1351,66
718,30	1359,85
718,48	1312,75
718,66	1236,97
718,84	1183,73
719,03	1236,97
719,21	1271,79
719,39	1292,27
719,57	1257,45
719,75	1269,74
719,94	1243,12
720,12	1312,75
720,30	1263,60
720,48	1300,46
720,67	1290,22
720,85	1288,17
721,03	1322,99
721,21	1255,40
721,39	1249,26
721,58	1247,21
721,76	1257,45
721,94	1257,45
722,12	1296,36
722,30	1286,12
722,49	1259,50
722,67	1277,93
722,85	1279,98
723,03	1224,69
723,21	1232,88
723,40	1306,60
723,58	1312,75
723,76	1243,12
723,94	1228,78
724,12	1257,45
724,30	1282,03
724,49	1290,22
724,67	1284,08
724,85	1208,30
725,03	1284,08
725,21	1232,88
725,40	1234,93
725,58	1275,88
725,76	1259,50
725,94	1226,73
726,12	1335,28
726,30	1275,88
726,49	1314,80
726,67	1259,50
726,85	1273,84
727,03	1292,27
727,21	1312,75
727,39	1294,32
727,57	1286,12
727,76	1312,75
727,94	1302,51
728,12	1312,75
728,30	1230,83
728,48	1202,16
728,66	1275,88
728,84	1220,59
729,03	1204,21
729,21	1282,03
729,39	1255,40
729,57	1253,36
729,75	1288,17
729,93	1271,79
730,11	1265,64
730,30	1214,45
730,48	1337,32
730,66	1228,78
730,84	1282,03
731,02	1361,90
731,20	1257,45
731,38	1257,45
731,56	1275,88
731,74	1253,36
731,93	1255,40
732,11	1279,98
732,29	1230,83
732,47	1304,56
732,65	1331,18
732,83	1318,89
733,01	1232,88
733,19	1198,06
733,37	1261,55
733,56	1310,70
733,74	1282,03
733,92	1269,74
734,10	1259,50
734,28	1259,50
734,46	1277,93
734,64	1286,12
734,82	1300,46
735,00	1312,75
735,18	1263,60
735,36	1279,98
735,54	1239,02
735,73	1329,13
735,91	1161,20
736,09	1261,55
736,27	1312,75
736,45	1290,22
736,63	1247,21
736,81	1216,49
736,99	1214,45
737,17	1234,93
737,35	1277,93
737,53	1288,17
737,71	1288,17
737,89	1243,12
738,07	1292,27
738,25	1277,93
738,43	1292,27
738,61	1239,02
738,80	1288,17
738,98	1310,70
739,16	1230,83
739,34	1273,84
739,52	1327,08
739,70	1275,88
739,88	1273,84
740,06	1306,60
740,24	1302,51
740,42	1226,73
740,60	1261,55
740,78	1292,27
740,96	1271,79
741,14	1304,56
741,32	1282,03
741,50	1290,22
741,68	1279,98
741,86	1196,01
742,04	1239,02
742,22	1234,93
742,40	1261,55
742,58	1255,40
742,76	1335,28
742,94	1222,64
743,12	1198,06
743,30	1302,51
743,48	1259,50
743,66	1222,64
743,84	1320,94
744,02	1239,02
744,20	1273,84
744,38	1265,64
744,56	1253,36
744,74	1257,45
744,92	1271,79
745,10	1347,56
745,28	1275,88
745,46	1249,26
745,64	1265,64
745,82	1263,60
746,00	1253,36
746,18	1224,69
746,36	1247,21
746,54	1259,50
746,72	1296,36
746,90	1300,46
747,08	1261,55
747,26	1163,25
747,44	1234,93
747,62	1259,50
747,80	1253,36
747,98	1273,84
748,15	1296,36
748,33	1271,79
748,51	1292,27
748,69	1275,88
748,87	1314,80
749,05	1224,69
749,23	1236,97
749,41	1318,89
749,59	1232,88
749,77	1308,65
749,95	1312,75
750,13	1325,04
750,31	1208,30
750,49	1249,26
750,67	1308,65
750,85	1212,40
751,03	1251,31
751,20	1316,84
751,38	1236,97
751,56	1333,23
751,74	1210,35
751,92	1193,97
752,10	1191,92
752,28	1294,32
752,46	1296,36
752,64	1261,55
752,82	1255,40
753,00	1245,16
753,18	1253,36
753,35	1224,69
753,53	1279,98
753,71	1232,88
753,89	1320,94
754,07	1249,26
754,25	1202,16
754,43	1255,40
754,61	1251,31
754,79	1296,36
754,97	1275,88
755,14	1282,03
755,32	1261,55
755,50	1267,69
755,68	1277,93
755,86	1218,54
756,04	1296,36
756,22	1226,73
756,40	1277,93
756,57	1267,69
756,75	1236,97
756,93	1320,94
757,11	1265,64
757,29	1298,41
757,47	1251,31
757,65	1226,73
757,82	1298,41
758,00	1292,27
758,18	1212,40
758,36	1259,50
758,54	1249,26
758,72	1249,26
758,90	1282,03
759,07	1239,02
759,25	1288,17
759,43	1327,08
759,61	1294,32
759,79	1277,93
759,97	1286,12
760,15	1253,36
760,32	1202,16
760,50	1329,13
760,68	1290,22
760,86	1294,32
761,04	1378,28
761,22	1329,13
761,39	1288,17
761,57	1226,73
761,75	1277,93
761,93	1302,51
762,11	1220,59
762,28	1239,02
762,46	1226,73
762,64	1183,73
762,82	1288,17
763,00	1241,07
763,18	1273,84
763,35	1339,37
763,53	1228,78
763,71	1298,41
763,89	1327,08
764,07	1263,60
764,24	1347,56
764,42	1216,49
764,60	1288,17
764,78	1290,22
764,96	1292,27
765,13	1259,50
765,31	1322,99
765,49	1275,88
765,67	1155,05
765,84	1251,31
766,02	1255,40
766,20	1196,01
766,38	1298,41
766,56	1292,27
766,73	1279,98
766,91	1357,80
767,09	1310,70
767,27	1255,40
767,44	1294,32
767,62	1226,73
767,80	1253,36
767,98	1216,49
768,15	1331,18
768,33	1259,50
768,51	1259,50
768,69	1251,31
768,87	1245,16
769,04	1294,32
769,22	1327,08
769,40	1234,93
769,58	1265,64
769,75	1359,85
769,93	1271,79
770,11	1277,93
770,28	1284,08
770,46	1302,51
770,64	1234,93
770,82	1279,98
770,99	1279,98
771,17	1304,56
771,35	1224,69
771,53	1286,12
771,70	1239,02
771,88	1279,98
772,06	1226,73
772,23	1322,99
772,41	1249,26
772,59	1253,36
772,77	1257,45
772,94	1279,98
773,12	1230,83
773,30	1236,97
773,47	1282,03
773,65	1343,47
773,83	1298,41
774,01	1228,78
774,18	1314,80
774,36	1349,61
774,54	1222,64
774,71	1271,79
774,89	1292,27
775,07	1310,70
775,24	1181,68
775,42	1308,65
775,60	1298,41
775,78	1204,21
775,95	1310,70
776,13	1267,69
776,31	1236,97
776,48	1241,07
776,66	1296,36
776,84	1288,17
777,01	1267,69
777,19	1273,84
777,37	1224,69
777,54	1232,88
777,72	1243,12
777,90	1286,12
778,07	1265,64
778,25	1247,21
778,43	1271,79
778,60	1241,07
778,78	1318,89
778,96	1261,55
779,13	1261,55
779,31	1304,56
779,49	1271,79
779,66	1269,74
779,84	1294,32
780,01	1232,88
780,19	1300,46
780,37	1308,65
780,54	1226,73
780,72	1318,89
780,90	1361,90
781,07	1224,69
781,25	1286,12
781,43	1243,12
781,60	1226,73
781,78	1255,40
781,95	1265,64
782,13	1249,26
782,31	1261,55
782,48	1236,97
782,66	1306,60
782,83	1284,08
783,01	1263,60
783,19	1208,30
783,36	1322,99
783,54	1212,40
783,72	1273,84
783,89	1257,45
784,07	1257,45
784,24	1320,94
784,42	1226,73
784,60	1269,74
784,77	1288,17
784,95	1222,64
785,12	1282,03
785,30	1298,41
785,47	1265,64
785,65	1249,26
785,83	1279,98
786,00	1241,07
786,18	1337,32
786,35	1316,84
786,53	1226,73
786,71	1261,55
786,88	1265,64
787,06	1275,88
787,23	1216,49
787,41	1269,74
787,58	1198,06
787,76	1210,35
787,94	1341,42
788,11	1316,84
788,29	1245,16
788,46	1202,16
788,64	1226,73
788,81	1277,93
788,99	1245,16
789,16	1253,36
789,34	1263,60
789,52	1253,36
789,69	1316,84
789,87	1251,31
790,04	1234,93
790,22	1263,60
790,39	1257,45
790,57	1282,03
790,74	1257,45
790,92	1245,16
791,09	1284,08
791,27	1261,55
791,44	1286,12
791,62	1318,89
791,79	1320,94
791,97	1331,18
792,15	1306,60
792,32	1226,73
792,50	1259,50
792,67	1335,28
792,85	1224,69
793,02	1284,08
793,20	1245,16
793,37	1224,69
793,55	1333,23
793,72	1175,53
793,90	1286,12
794,07	1320,94
794,25	1236,97
794,42	1347,56
794,60	1249,26
794,77	1306,60
794,95	1230,83
795,12	1312,75
795,30	1275,88
795,47	1157,10
795,65	1269,74
795,82	1298,41
796,00	1269,74
796,17	1286,12
796,34	1255,40
796,52	1253,36
796,69	1210,35
796,87	1316,84
797,04	1222,64
797,22	1390,57
797,39	1208,30
797,57	1253,36
797,74	1316,84
797,92	1232,88
798,09	1275,88
798,27	1236,97
798,44	1273,84
798,62	1247,21
798,79	1214,45
798,96	1263,60
799,14	1253,36
799,31	1255,40
799,49	1261,55
799,66	1220,59
799,84	1316,84
800,01	1212,40
800,19	1269,74
800,36	1265,64
800,53	1298,41
800,71	1277,93
800,88	1271,79
801,06	1316,84
801,23	1292,27
801,41	1273,84
801,58	1230,83
801,75	1325,04
801,93	1279,98
802,10	1247,21
802,28	1212,40
802,45	1249,26
802,63	1279,98
802,80	1173,49
802,97	1325,04
803,15	1286,12
803,32	1236,97
803,50	1298,41
803,67	1271,79
803,84	1298,41
804,02	1302,51
804,19	1257,45
804,37	1349,61
804,54	1263,60
804,71	1337,32
804,89	1222,64
805,06	1277,93
805,24	1290,22
805,41	1298,41
805,58	1288,17
805,76	1306,60
805,93	1263,60
806,10	1275,88
806,28	1310,70
806,45	1241,07
806,63	1288,17
806,80	1241,07
806,97	1316,84
807,15	1269,74
807,32	1286,12
807,49	1339,37
807,67	1257,45
807,84	1282,03
808,01	1265,64
808,19	1249,26
808,36	1257,45
808,54	1294,32
808,71	1234,93
808,88	1277,93
809,06	1234,93
809,23	1347,56
809,40	1325,04
809,58	1288,17
809,75	1282,03
809,92	1239,02
810,10	1224,69
810,27	1243,12
810,44	1212,40
810,62	1341,42
810,79	1220,59
810,96	1310,70
811,14	1257,45
811,31	1257,45
811,48	1263,60
811,66	1179,63
811,83	1275,88
812,00	1249,26
812,18	1257,45
812,35	1181,68
812,52	1294,32
812,69	1314,80
812,87	1228,78
813,04	1314,80
813,21	1257,45
813,39	1216,49
813,56	1310,70
813,73	1335,28
813,91	1245,16
814,08	1277,93
814,25	1249,26
814,42	1247,21
814,60	1251,31
814,77	1267,69
814,94	1230,83
815,12	1286,12
815,29	1255,40
815,46	1247,21
815,63	1234,93
815,81	1318,89
815,98	1331,18
816,15	1294,32
816,33	1226,73
816,50	1185,77
816,67	1253,36
816,84	1294,32
817,02	1331,18
817,19	1277,93
817,36	1282,03
817,53	1288,17
817,71	1228,78
817,88	1267,69
818,05	1288,17
818,22	1320,94
818,40	1253,36
818,57	1239,02
818,74	1251,31
818,91	1273,84
819,09	1234,93
819,26	1232,88
819,43	1189,87
819,60	1271,79
819,78	1220,59
819,95	1200,11
820,12	1325,04
820,29	1296,36
820,47	1298,41
820,64	1314,80
820,81	1243,12
820,98	1198,06
821,15	1282,03
821,33	1312,75
821,50	1220,59
821,67	1249,26
821,84	1251,31
822,02	1361,90
822,19	1257,45
822,36	1212,40
822,53	1314,80
822,70	1271,79
822,88	1216,49
823,05	1271,79
823,22	1253,36
823,39	1245,16
823,56	1257,45
823,74	1318,89
823,91	1316,84
824,08	1282,03
824,25	1198,06
824,42	1273,84
824,60	1249,26
824,77	1196,01
824,94	1306,60
825,11	1265,64
825,28	1249,26
825,45	1294,32
825,63	1294,32
825,80	1279,98
825,97	1279,98
826,14	1206,25
826,31	1193,97
826,48	1224,69
826,66	1290,22
826,83	1220,59
827,00	1271,79
827,17	1306,60
827,34	1347,56
827,51	1243,12
827,69	1247,21
827,86	1257,45
828,03	1275,88
828,20	1363,95
828,37	1251,31
828,54	1261,55
828,71	1302,51
828,89	1267,69
829,06	1247,21
829,23	1294,32
829,40	1247,21
829,57	1306,60
829,74	1331,18
829,91	1292,27
830,09	1366,00
830,26	1277,93
830,43	1304,56
830,60	1255,40
830,77	1269,74
830,94	1304,56
831,11	1306,60
831,28	1275,88
831,46	1234,93
831,63	1249,26
831,80	1222,64
831,97	1335,28
832,14	1322,99
832,31	1286,12
832,48	1263,60
832,65	1230,83
832,82	1245,16
832,99	1241,07
833,17	1224,69
833,34	1279,98
833,51	1282,03
833,68	1267,69
833,85	1243,12
834,02	1298,41
834,19	1288,17
834,36	1333,23
834,53	1228,78
834,70	1300,46
834,87	1282,03
835,04	1263,60
835,22	1284,08
835,39	1210,35
835,56	1312,75
835,73	1286,12
835,90	1290,22
836,07	1271,79
836,24	1224,69
836,41	1355,76
836,58	1216,49
836,75	1357,80
836,92	1259,50
837,09	1273,84
837,26	1230,83
837,43	1222,64
837,60	1302,51
837,77	1247,21
837,94	1269,74
838,12	1308,65
838,29	1226,73
838,46	1292,27
838,63	1279,98
838,80	1339,37
838,97	1245,16
839,14	1288,17
839,31	1310,70
839,48	1220,59
839,65	1253,36
839,82	1245,16
839,99	1251,31
840,16	1298,41
840,33	1220,59
840,50	1300,46
840,67	1300,46
840,84	1210,35
841,01	1282,03
841,18	1230,83
841,35	1263,60
841,52	1241,07
841,69	1247,21
841,86	1247,21
842,03	1249,26
842,20	1298,41
842,37	1320,94
842,54	1263,60
842,71	1257,45
842,88	1236,97
843,05	1267,69
843,22	1257,45
843,39	1275,88
843,56	1277,93
843,73	1290,22
843,90	1198,06
844,07	1241,07
844,24	1298,41
844,41	1267,69
844,58	1259,50
844,75	1282,03
844,92	1239,02
845,09	1259,50
845,26	1314,80
845,43	1288,17
845,60	1277,93
845,77	1284,08
845,94	1288,17
846,10	1318,89
846,27	1277,93
846,44	1275,88
846,61	1175,53
846,78	1286,12
846,95	1226,73
847,12	1247,21
847,29	1261,55
847,46	1265,64
847,63	1308,65
847,80	1226,73
847,97	1294,32
848,14	1259,50
848,31	1247,21
848,48	1302,51
848,65	1239,02
848,82	1255,40
848,98	1218,54
849,15	1271,79
849,32	1316,84
849,49	1243,12
849,66	1257,45
849,83	1275,88
850,00	1288,17
850,17	1320,94
850,34	1239,02
850,51	1271,79
850,68	1241,07
850,85	1230,83
851,01	1265,64
851,18	1339,37
851,35	1251,31
851,52	1243,12
851,69	1200,11
851,86	1312,75
852,03	1267,69
852,20	1259,50
852,37	1312,75
852,53	1294,32
852,70	1337,32
852,87	1263,60
853,04	1341,42
853,21	1310,70
853,38	1267,69
853,55	1271,79
853,72	1261,55
853,89	1290,22
854,05	1259,50
854,22	1232,88
854,39	1279,98
854,56	1236,97
854,73	1286,12
854,90	1279,98
855,07	1341,42
855,23	1318,89
855,40	1224,69
855,57	1275,88
855,74	1261,55
855,91	1329,13
856,08	1349,61
856,25	1253,36
856,41	1214,45
856,58	1251,31
856,75	1275,88
856,92	1171,44
857,09	1316,84
857,26	1241,07
857,42	1173,49
857,59	1218,54
857,76	1314,80
857,93	1257,45
858,10	1224,69
858,27	1288,17
858,43	1202,16
858,60	1300,46
858,77	1286,12
858,94	1255,40
859,11	1263,60
859,27	1261,55
859,44	1292,27
859,61	1198,06
859,78	1234,93
859,95	1191,92
860,12	1253,36
860,28	1259,50
860,45	1298,41
860,62	1290,22
860,79	1140,72
860,95	1269,74
861,12	1279,98
861,29	1308,65
861,46	1232,88
861,63	1347,56
861,79	1247,21
861,96	1212,40
862,13	1318,89
862,30	1282,03
862,47	1249,26
862,63	1282,03
862,80	1224,69
862,97	1245,16
863,14	1269,74
863,30	1308,65
863,47	1312,75
863,64	1277,93
863,81	1298,41
863,97	1320,94
864,14	1331,18
864,31	1263,60
864,48	1269,74
864,65	1196,01
864,81	1282,03
864,98	1282,03
865,15	1296,36
865,32	1300,46
865,48	1298,41
865,65	1300,46
865,82	1292,27
865,98	1236,97
866,15	1273,84
866,32	1298,41
866,49	1392,62
866,65	1304,56
866,82	1218,54
866,99	1318,89
867,16	1284,08
867,32	1341,42
867,49	1267,69
867,66	1249,26
867,83	1222,64
867,99	1181,68
868,16	1320,94
868,33	1269,74
868,49	1245,16
868,66	1300,46
868,83	1279,98
868,99	1325,04
869,16	1263,60
869,33	1259,50
869,50	1255,40
869,66	1251,31
869,83	1284,08
870,00	1269,74
870,16	1312,75
870,33	1320,94
870,50	1273,84
870,66	1304,56
870,83	1300,46
871,00	1247,21
871,17	1279,98
871,33	1294,32
871,50	1247,21
871,67	1269,74
871,83	1282,03
872,00	1296,36
872,17	1337,32
872,33	1245,16
872,50	1230,83
872,67	1310,70
872,83	1292,27
873,00	1208,30
873,17	1296,36
873,33	1325,04
873,50	1269,74
873,67	1243,12
873,83	1228,78
874,00	1236,97
874,16	1243,12
874,33	1261,55
874,50	1202,16
874,66	1253,36
874,83	1290,22
875,00	1243,12
875,16	1322,99
875,33	1236,97
875,50	1220,59
875,66	1255,40
875,83	1202,16
875,99	1304,56
876,16	1296,36
876,33	1308,65
876,49	1239,02
876,66	1267,69
876,83	1247,21
876,99	1259,50
877,16	1189,87
877,32	1230,83
877,49	1306,60
877,66	1273,84
877,82	1282,03
877,99	1230,83
878,15	1210,35
878,32	1239,02
878,49	1269,74
878,65	1298,41
878,82	1273,84
878,98	1261,55
879,15	1298,41
879,32	1296,36
879,48	1253,36
879,65	1292,27
879,81	1290,22
879,98	1251,31
880,15	1277,93
880,31	1314,80
880,48	1257,45
880,64	1200,11
880,81	1292,27
880,97	1282,03
881,14	1312,75
881,31	1257,45
881,47	1318,89
881,64	1257,45
881,80	1339,37
881,97	1243,12
882,13	1304,56
882,30	1296,36
882,47	1296,36
882,63	1302,51
882,80	1374,19
882,96	1220,59
883,13	1277,93
883,29	1335,28
883,46	1279,98
883,62	1265,64
883,79	1288,17
883,95	1153,01
884,12	1241,07
884,29	1339,37
884,45	1269,74
884,62	1247,21
884,78	1224,69
884,95	1279,98
885,11	1249,26
885,28	1255,40
885,44	1286,12
885,61	1265,64
885,77	1304,56
885,94	1277,93
886,10	1335,28
886,27	1308,65
886,43	1331,18
886,60	1251,31
886,76	1251,31
886,93	1263,60
887,09	1273,84
887,26	1273,84
887,42	1284,08
887,59	1187,82
887,75	1249,26
887,92	1290,22
888,08	1288,17
888,25	1284,08
888,41	1224,69
888,58	1284,08
888,74	1257,45
888,91	1279,98
>>>>>End Processed Spectral Data<<<<<
