SpectraSuite Data File
++++++++++++++++++++++++++++++++++++
Date: Sun Apr 03 16:46:34 CEST 2016
User: root
Dark Spectrum Present: No
Reference Spectrum Present: No
Number of Sampled Component Spectra: 1
Spectrometers: USB4C02835
Integration Time (usec): 10000 (USB4C02835)
Spectra Averaged: 1 (USB4C02835)
Boxcar Smoothing: 0 (USB4C02835)
Correct for Electrical Dark: No (USB4C02835)
Strobe/Lamp Enabled: No (USB4C02835)
Correct for Detector Non-linearity: No (USB4C02835)
Correct for Stray Light: No (USB4C02835)
Number of Pixels in Processed Spectrum: 3648
>>>>>Begin Processed Spectral Data<<<<<
177,47	1226,73
177,69	1226,73
177,91	1226,73
178,13	1220,59
178,36	1290,22
178,58	1261,55
178,80	1279,98
179,02	1265,64
179,24	1265,64
179,46	1271,79
179,68	1243,12
179,90	1216,49
180,13	1255,40
180,35	1306,60
180,57	1253,36
180,79	1329,13
181,01	1273,84
181,23	1232,88
181,45	1271,79
181,67	1304,56
181,90	1282,03
182,12	1185,77
182,34	1222,64
182,56	1265,64
182,78	1273,84
183,00	1261,55
183,22	1220,59
183,44	1251,31
183,66	1230,83
183,89	1226,73
184,11	1318,89
184,33	1255,40
184,55	1267,69
184,77	1267,69
184,99	1282,03
185,21	1247,21
185,43	1298,41
185,65	1292,27
185,87	1304,56
186,10	1226,73
186,32	1198,06
186,54	1294,32
186,76	1294,32
186,98	1218,54
187,20	1249,26
187,42	1228,78
187,64	1243,12
187,86	1228,78
188,08	1271,79
188,30	1312,75
188,52	1198,06
188,75	1308,65
188,97	1181,68
189,19	1339,37
189,41	1216,49
189,63	1257,45
189,85	1290,22
190,07	1277,93
190,29	1277,93
190,51	1329,13
190,73	1255,40
190,95	1228,78
191,17	1290,22
191,39	1284,08
191,61	1253,36
191,84	1245,16
192,06	1331,18
192,28	1288,17
192,50	1267,69
192,72	1239,02
192,94	1267,69
193,16	1249,26
193,38	1296,36
193,60	1222,64
193,82	1222,64
194,04	1265,64
194,26	1284,08
194,48	1243,12
194,70	1253,36
194,92	1271,79
195,14	1216,49
195,36	1267,69
195,58	1241,07
195,80	1200,11
196,02	1284,08
196,24	1269,74
196,46	1343,47
196,69	1308,65
196,91	1228,78
197,13	1249,26
197,35	1298,41
197,57	1304,56
197,79	1251,31
198,01	1208,30
198,23	1277,93
198,45	1265,64
198,67	1263,60
198,89	1234,93
199,11	1153,01
199,33	1275,88
199,55	1236,97
199,77	1261,55
199,99	1312,75
200,21	1304,56
200,43	1294,32
200,65	1275,88
200,87	1226,73
201,09	1277,93
201,31	1302,51
201,53	1255,40
201,75	1265,64
201,97	1314,80
202,19	1294,32
202,41	1230,83
202,63	1318,89
202,85	1290,22
203,07	1312,75
203,29	1247,21
203,51	1331,18
203,73	1251,31
203,95	1222,64
204,17	1247,21
204,39	1226,73
204,61	1232,88
204,83	1228,78
205,05	1312,75
205,27	1277,93
205,49	1255,40
205,71	1329,13
205,93	1290,22
206,15	1236,97
206,37	1261,55
206,59	1259,50
206,81	1263,60
207,03	1300,46
207,25	1273,84
207,47	1234,93
207,69	1267,69
207,91	1275,88
208,13	1183,73
208,34	1234,93
208,56	1277,93
208,78	1193,97
209,00	1331,18
209,22	1200,11
209,44	1202,16
209,66	1214,45
209,88	1308,65
210,10	1353,71
210,32	1218,54
210,54	1347,56
210,76	1271,79
210,98	1150,96
211,20	1261,55
211,42	1251,31
211,64	1314,80
211,86	1228,78
212,08	1302,51
212,30	1222,64
212,52	1294,32
212,74	1314,80
212,96	1290,22
213,17	1339,37
213,39	1279,98
213,61	1200,11
213,83	1300,46
214,05	1249,26
214,27	1239,02
214,49	1318,89
214,71	1279,98
214,93	1320,94
215,15	1273,84
215,37	1243,12
215,59	1318,89
215,81	1396,71
216,03	1269,74
216,24	1284,08
216,46	1294,32
216,68	1318,89
216,90	1185,77
217,12	1300,46
217,34	1234,93
217,56	1210,35
217,78	1181,68
218,00	1296,36
218,22	1286,12
218,44	1212,40
218,66	1269,74
218,87	1247,21
219,09	1177,58
219,31	1279,98
219,53	1222,64
219,75	1286,12
219,97	1239,02
220,19	1288,17
220,41	1277,93
220,63	1259,50
220,85	1294,32
221,06	1288,17
221,28	1241,07
221,50	1288,17
221,72	1275,88
221,94	1257,45
222,16	1241,07
222,38	1370,09
222,60	1322,99
222,82	1226,73
223,03	1232,88
223,25	1318,89
223,47	1245,16
223,69	1245,16
223,91	1253,36
224,13	1351,66
224,35	1290,22
224,57	1343,47
224,78	1366,00
225,00	1267,69
225,22	1318,89
225,44	1290,22
225,66	1275,88
225,88	1353,71
226,10	1290,22
226,32	1271,79
226,53	1279,98
226,75	1206,25
226,97	1241,07
227,19	1230,83
227,41	1296,36
227,63	1300,46
227,85	1355,76
228,06	1290,22
228,28	1294,32
228,50	1296,36
228,72	1230,83
228,94	1224,69
229,16	1241,07
229,37	1257,45
229,59	1273,84
229,81	1265,64
230,03	1259,50
230,25	1308,65
230,47	1316,84
230,69	1253,36
230,90	1247,21
231,12	1298,41
231,34	1320,94
231,56	1263,60
231,78	1294,32
232,00	1275,88
232,21	1241,07
232,43	1349,61
232,65	1236,97
232,87	1218,54
233,09	1284,08
233,30	1302,51
233,52	1251,31
233,74	1279,98
233,96	1228,78
234,18	1327,08
234,40	1214,45
234,61	1294,32
234,83	1263,60
235,05	1347,56
235,27	1269,74
235,49	1224,69
235,70	1339,37
235,92	1253,36
236,14	1267,69
236,36	1267,69
236,58	1243,12
236,79	1267,69
237,01	1316,84
237,23	1222,64
237,45	1271,79
237,67	1243,12
237,88	1335,28
238,10	1306,60
238,32	1310,70
238,54	1226,73
238,76	1296,36
238,97	1267,69
239,19	1269,74
239,41	1208,30
239,63	1241,07
239,85	1271,79
240,06	1275,88
240,28	1247,21
240,50	1288,17
240,72	1337,32
240,93	1265,64
241,15	1335,28
241,37	1208,30
241,59	1241,07
241,81	1261,55
242,02	1282,03
242,24	1234,93
242,46	1306,60
242,68	1265,64
242,89	1273,84
243,11	1253,36
243,33	1271,79
243,55	1310,70
243,76	1288,17
243,98	1263,60
244,20	1339,37
244,42	1222,64
244,64	1296,36
244,85	1263,60
245,07	1226,73
245,29	1277,93
245,51	1288,17
245,72	1343,47
245,94	1255,40
246,16	1275,88
246,38	1329,13
246,59	1282,03
246,81	1255,40
247,03	1366,00
247,24	1251,31
247,46	1284,08
247,68	1230,83
247,90	1320,94
248,11	1253,36
248,33	1273,84
248,55	1249,26
248,77	1198,06
248,98	1296,36
249,20	1261,55
249,42	1279,98
249,64	1316,84
249,85	1282,03
250,07	1239,02
250,29	1327,08
250,50	1251,31
250,72	1232,88
250,94	1282,03
251,16	1269,74
251,37	1304,56
251,59	1279,98
251,81	1222,64
252,02	1294,32
252,24	1253,36
252,46	1294,32
252,68	1288,17
252,89	1214,45
253,11	1284,08
253,33	1263,60
253,54	1335,28
253,76	1337,32
253,98	1304,56
254,20	1310,70
254,41	1247,21
254,63	1275,88
254,85	1171,44
255,06	1310,70
255,28	1253,36
255,50	1341,42
255,71	1234,93
255,93	1304,56
256,15	1255,40
256,36	1249,26
256,58	1300,46
256,80	1271,79
257,02	1247,21
257,23	1263,60
257,45	1241,07
257,67	1312,75
257,88	1241,07
258,10	1298,41
258,32	1298,41
258,53	1263,60
258,75	1312,75
258,97	1204,21
259,18	1249,26
259,40	1288,17
259,62	1243,12
259,83	1263,60
260,05	1232,88
260,27	1292,27
260,48	1277,93
260,70	1220,59
260,92	1220,59
261,13	1245,16
261,35	1236,97
261,57	1306,60
261,78	1222,64
262,00	1310,70
262,22	1294,32
262,43	1212,40
262,65	1333,23
262,86	1241,07
263,08	1261,55
263,30	1214,45
263,51	1269,74
263,73	1300,46
263,95	1243,12
264,16	1253,36
264,38	1284,08
264,60	1282,03
264,81	1302,51
265,03	1314,80
265,25	1353,71
265,46	1255,40
265,68	1245,16
265,89	1230,83
266,11	1212,40
266,33	1296,36
266,54	1257,45
266,76	1265,64
266,98	1220,59
267,19	1247,21
267,41	1296,36
267,62	1255,40
267,84	1249,26
268,06	1216,49
268,27	1267,69
268,49	1302,51
268,70	1247,21
268,92	1257,45
269,14	1298,41
269,35	1267,69
269,57	1226,73
269,79	1271,79
270,00	1204,21
270,22	1273,84
270,43	1220,59
270,65	1253,36
270,87	1265,64
271,08	1359,85
271,30	1302,51
271,51	1259,50
271,73	1226,73
271,95	1269,74
272,16	1320,94
272,38	1263,60
272,59	1282,03
272,81	1218,54
273,02	1236,97
273,24	1232,88
273,46	1261,55
273,67	1316,84
273,89	1296,36
274,10	1261,55
274,32	1343,47
274,54	1251,31
274,75	1216,49
274,97	1263,60
275,18	1245,16
275,40	1249,26
275,61	1277,93
275,83	1288,17
276,05	1232,88
276,26	1212,40
276,48	1300,46
276,69	1314,80
276,91	1269,74
277,12	1273,84
277,34	1253,36
277,55	1300,46
277,77	1200,11
277,99	1325,04
278,20	1220,59
278,42	1239,02
278,63	1234,93
278,85	1255,40
279,06	1290,22
279,28	1277,93
279,49	1273,84
279,71	1193,97
279,93	1290,22
280,14	1294,32
280,36	1345,52
280,57	1275,88
280,79	1271,79
281,00	1241,07
281,22	1214,45
281,43	1333,23
281,65	1243,12
281,86	1355,76
282,08	1316,84
282,29	1312,75
282,51	1277,93
282,73	1298,41
282,94	1275,88
283,16	1279,98
283,37	1269,74
283,59	1263,60
283,80	1253,36
284,02	1273,84
284,23	1277,93
284,45	1318,89
284,66	1208,30
284,88	1302,51
285,09	1306,60
285,31	1226,73
285,52	1265,64
285,74	1271,79
285,95	1279,98
286,17	1241,07
286,38	1279,98
286,60	1277,93
286,81	1300,46
287,03	1279,98
287,24	1310,70
287,46	1243,12
287,67	1306,60
287,89	1230,83
288,10	1263,60
288,32	1306,60
288,53	1292,27
288,75	1275,88
288,96	1284,08
289,18	1286,12
289,39	1241,07
289,61	1200,11
289,82	1366,00
290,04	1282,03
290,25	1208,30
290,47	1402,86
290,68	1298,41
290,90	1284,08
291,11	1286,12
291,33	1296,36
291,54	1212,40
291,76	1308,65
291,97	1282,03
292,18	1232,88
292,40	1298,41
292,61	1286,12
292,83	1294,32
293,04	1279,98
293,26	1310,70
293,47	1337,32
293,69	1286,12
293,90	1226,73
294,12	1322,99
294,33	1312,75
294,55	1271,79
294,76	1351,66
294,97	1298,41
295,19	1273,84
295,40	1282,03
295,62	1304,56
295,83	1253,36
296,05	1200,11
296,26	1239,02
296,48	1329,13
296,69	1179,63
296,90	1243,12
297,12	1312,75
297,33	1308,65
297,55	1296,36
297,76	1245,16
297,98	1302,51
298,19	1314,80
298,41	1277,93
298,62	1320,94
298,83	1308,65
299,05	1277,93
299,26	1286,12
299,48	1261,55
299,69	1247,21
299,90	1363,95
300,12	1259,50
300,33	1316,84
300,55	1331,18
300,76	1257,45
300,98	1349,61
301,19	1284,08
301,40	1277,93
301,62	1304,56
301,83	1232,88
302,05	1212,40
302,26	1261,55
302,47	1304,56
302,69	1257,45
302,90	1279,98
303,12	1218,54
303,33	1263,60
303,54	1239,02
303,76	1304,56
303,97	1232,88
304,19	1232,88
304,40	1257,45
304,61	1277,93
304,83	1290,22
305,04	1310,70
305,26	1271,79
305,47	1220,59
305,68	1312,75
305,90	1288,17
306,11	1312,75
306,33	1214,45
306,54	1286,12
306,75	1277,93
306,97	1267,69
307,18	1265,64
307,39	1290,22
307,61	1282,03
307,82	1228,78
308,04	1296,36
308,25	1261,55
308,46	1296,36
308,68	1294,32
308,89	1304,56
309,10	1263,60
309,32	1263,60
309,53	1320,94
309,74	1290,22
309,96	1292,27
310,17	1226,73
310,39	1267,69
310,60	1241,07
310,81	1218,54
311,03	1257,45
311,24	1220,59
311,45	1239,02
311,67	1251,31
311,88	1282,03
312,09	1247,21
312,31	1322,99
312,52	1167,34
312,73	1257,45
312,95	1292,27
313,16	1290,22
313,37	1236,97
313,59	1228,78
313,80	1288,17
314,01	1355,76
314,23	1202,16
314,44	1335,28
314,65	1247,21
314,87	1247,21
315,08	1251,31
315,29	1208,30
315,51	1282,03
315,72	1312,75
315,93	1269,74
316,15	1288,17
316,36	1335,28
316,57	1363,95
316,79	1198,06
317,00	1265,64
317,21	1279,98
317,43	1247,21
317,64	1290,22
317,85	1331,18
318,07	1271,79
318,28	1265,64
318,49	1218,54
318,70	1304,56
318,92	1177,58
319,13	1255,40
319,34	1263,60
319,56	1234,93
319,77	1282,03
319,98	1249,26
320,20	1257,45
320,41	1253,36
320,62	1277,93
320,83	1398,76
321,05	1249,26
321,26	1146,86
321,47	1286,12
321,69	1271,79
321,90	1267,69
322,11	1267,69
322,32	1282,03
322,54	1226,73
322,75	1247,21
322,96	1298,41
323,18	1234,93
323,39	1249,26
323,60	1239,02
323,81	1232,88
324,03	1243,12
324,24	1277,93
324,45	1263,60
324,66	1263,60
324,88	1384,43
325,09	1347,56
325,30	1308,65
325,52	1347,56
325,73	1251,31
325,94	1271,79
326,15	1314,80
326,37	1284,08
326,58	1347,56
326,79	1314,80
327,00	1290,22
327,22	1212,40
327,43	1253,36
327,64	1247,21
327,85	1265,64
328,07	1306,60
328,28	1279,98
328,49	1320,94
328,70	1267,69
328,92	1253,36
329,13	1275,88
329,34	1257,45
329,55	1249,26
329,76	1224,69
329,98	1261,55
330,19	1294,32
330,40	1273,84
330,61	1304,56
330,83	1269,74
331,04	1239,02
331,25	1312,75
331,46	1261,55
331,68	1228,78
331,89	1212,40
332,10	1277,93
332,31	1173,49
332,52	1261,55
332,74	1292,27
332,95	1255,40
333,16	1282,03
333,37	1261,55
333,58	1292,27
333,80	1310,70
334,01	1273,84
334,22	1220,59
334,43	1292,27
334,64	1286,12
334,86	1216,49
335,07	1212,40
335,28	1236,97
335,49	1337,32
335,70	1243,12
335,92	1226,73
336,13	1245,16
336,34	1257,45
336,55	1282,03
336,76	1296,36
336,98	1273,84
337,19	1312,75
337,40	1341,42
337,61	1167,34
337,82	1236,97
338,04	1259,50
338,25	1259,50
338,46	1257,45
338,67	1249,26
338,88	1249,26
339,09	1310,70
339,31	1183,73
339,52	1249,26
339,73	1245,16
339,94	1325,04
340,15	1306,60
340,36	1298,41
340,58	1279,98
340,79	1255,40
341,00	1232,88
341,21	1247,21
341,42	1232,88
341,63	1267,69
341,85	1255,40
342,06	1263,60
342,27	1273,84
342,48	1253,36
342,69	1298,41
342,90	1286,12
343,12	1282,03
343,33	1204,21
343,54	1245,16
343,75	1349,61
343,96	1220,59
344,17	1232,88
344,38	1265,64
344,60	1191,92
344,81	1232,88
345,02	1214,45
345,23	1298,41
345,44	1290,22
345,65	1294,32
345,86	1302,51
346,07	1294,32
346,29	1298,41
346,50	1265,64
346,71	1271,79
346,92	1239,02
347,13	1314,80
347,34	1267,69
347,55	1296,36
347,76	1224,69
347,98	1312,75
348,19	1243,12
348,40	1243,12
348,61	1198,06
348,82	1304,56
349,03	1288,17
349,24	1255,40
349,45	1273,84
349,66	1265,64
349,88	1333,23
350,09	1267,69
350,30	1216,49
350,51	1263,60
350,72	1257,45
350,93	1282,03
351,14	1263,60
351,35	1296,36
351,56	1249,26
351,77	1193,97
351,99	1216,49
352,20	1298,41
352,41	1279,98
352,62	1214,45
352,83	1296,36
353,04	1253,36
353,25	1239,02
353,46	1306,60
353,67	1363,95
353,88	1288,17
354,09	1282,03
354,30	1214,45
354,52	1273,84
354,73	1366,00
354,94	1337,32
355,15	1273,84
355,36	1347,56
355,57	1298,41
355,78	1292,27
355,99	1253,36
356,20	1261,55
356,41	1241,07
356,62	1259,50
356,83	1275,88
357,04	1267,69
357,25	1232,88
357,46	1331,18
357,68	1310,70
357,89	1275,88
358,10	1290,22
358,31	1300,46
358,52	1259,50
358,73	1277,93
358,94	1314,80
359,15	1304,56
359,36	1327,08
359,57	1279,98
359,78	1236,97
359,99	1251,31
360,20	1296,36
360,41	1298,41
360,62	1265,64
360,83	1335,28
361,04	1196,01
361,25	1351,66
361,46	1329,13
361,67	1251,31
361,88	1275,88
362,09	1204,21
362,30	1294,32
362,51	1269,74
362,72	1228,78
362,93	1316,84
363,14	1245,16
363,35	1286,12
363,56	1257,45
363,78	1312,75
363,99	1265,64
364,20	1269,74
364,41	1255,40
364,62	1294,32
364,83	1277,93
365,04	1271,79
365,25	1212,40
365,46	1257,45
365,67	1322,99
365,88	1179,63
366,09	1253,36
366,30	1253,36
366,51	1306,60
366,72	1204,21
366,93	1269,74
367,14	1294,32
367,35	1245,16
367,56	1277,93
367,77	1343,47
367,98	1247,21
368,18	1249,26
368,39	1298,41
368,60	1259,50
368,81	1265,64
369,02	1255,40
369,23	1187,82
369,44	1269,74
369,65	1241,07
369,86	1290,22
370,07	1267,69
370,28	1286,12
370,49	1271,79
370,70	1251,31
370,91	1255,40
371,12	1277,93
371,33	1220,59
371,54	1310,70
371,75	1298,41
371,96	1230,83
372,17	1247,21
372,38	1265,64
372,59	1251,31
372,80	1292,27
373,01	1288,17
373,22	1275,88
373,43	1212,40
373,64	1247,21
373,85	1230,83
374,06	1202,16
374,26	1327,08
374,47	1271,79
374,68	1292,27
374,89	1279,98
375,10	1255,40
375,31	1329,13
375,52	1265,64
375,73	1312,75
375,94	1290,22
376,15	1251,31
376,36	1282,03
376,57	1251,31
376,78	1312,75
376,99	1320,94
377,20	1288,17
377,40	1337,32
377,61	1267,69
377,82	1230,83
378,03	1234,93
378,24	1294,32
378,45	1329,13
378,66	1214,45
378,87	1220,59
379,08	1232,88
379,29	1300,46
379,50	1331,18
379,71	1200,11
379,91	1239,02
380,12	1314,80
380,33	1269,74
380,54	1271,79
380,75	1255,40
380,96	1243,12
381,17	1286,12
381,38	1243,12
381,59	1249,26
381,80	1214,45
382,00	1308,65
382,21	1300,46
382,42	1226,73
382,63	1224,69
382,84	1271,79
383,05	1234,93
383,26	1300,46
383,47	1222,64
383,68	1329,13
383,88	1310,70
384,09	1263,60
384,30	1251,31
384,51	1355,76
384,72	1222,64
384,93	1232,88
385,14	1271,79
385,35	1269,74
385,55	1288,17
385,76	1279,98
385,97	1310,70
386,18	1218,54
386,39	1320,94
386,60	1341,42
386,81	1255,40
387,02	1259,50
387,22	1304,56
387,43	1279,98
387,64	1286,12
387,85	1259,50
388,06	1284,08
388,27	1212,40
388,48	1277,93
388,68	1308,65
388,89	1218,54
389,10	1284,08
389,31	1216,49
389,52	1273,84
389,73	1271,79
389,93	1241,07
390,14	1325,04
390,35	1193,97
390,56	1351,66
390,77	1179,63
390,98	1224,69
391,18	1259,50
391,39	1220,59
391,60	1157,10
391,81	1239,02
392,02	1247,21
392,23	1308,65
392,43	1261,55
392,64	1269,74
392,85	1279,98
393,06	1277,93
393,27	1284,08
393,47	1275,88
393,68	1239,02
393,89	1212,40
394,10	1228,78
394,31	1282,03
394,52	1310,70
394,72	1214,45
394,93	1247,21
395,14	1292,27
395,35	1335,28
395,56	1245,16
395,76	1282,03
395,97	1263,60
396,18	1245,16
396,39	1247,21
396,60	1306,60
396,80	1251,31
397,01	1236,97
397,22	1226,73
397,43	1273,84
397,64	1253,36
397,84	1273,84
398,05	1163,25
398,26	1300,46
398,47	1329,13
398,67	1284,08
398,88	1224,69
399,09	1239,02
399,30	1273,84
399,51	1267,69
399,71	1263,60
399,92	1261,55
400,13	1200,11
400,34	1275,88
400,54	1343,47
400,75	1318,89
400,96	1273,84
401,17	1286,12
401,37	1255,40
401,58	1306,60
401,79	1257,45
402,00	1298,41
402,21	1232,88
402,41	1277,93
402,62	1290,22
402,83	1296,36
403,04	1286,12
403,24	1255,40
403,45	1345,52
403,66	1247,21
403,87	1253,36
404,07	1234,93
404,28	1333,23
404,49	1273,84
404,70	1331,18
404,90	1341,42
405,11	1290,22
405,32	1284,08
405,52	1259,50
405,73	1198,06
405,94	1206,25
406,15	1279,98
406,35	1255,40
406,56	1288,17
406,77	1271,79
406,98	1210,35
407,18	1257,45
407,39	1296,36
407,60	1210,35
407,80	1263,60
408,01	1234,93
408,22	1292,27
408,43	1245,16
408,63	1279,98
408,84	1296,36
409,05	1288,17
409,25	1239,02
409,46	1279,98
409,67	1257,45
409,88	1335,28
410,08	1226,73
410,29	1277,93
410,50	1253,36
410,70	1292,27
410,91	1337,32
411,12	1335,28
411,32	1308,65
411,53	1312,75
411,74	1292,27
411,95	1300,46
412,15	1269,74
412,36	1234,93
412,57	1294,32
412,77	1173,49
412,98	1214,45
413,19	1220,59
413,39	1279,98
413,60	1349,61
413,81	1282,03
414,01	1241,07
414,22	1275,88
414,43	1261,55
414,63	1333,23
414,84	1247,21
415,05	1255,40
415,25	1232,88
415,46	1216,49
415,67	1271,79
415,87	1253,36
416,08	1265,64
416,29	1232,88
416,49	1241,07
416,70	1259,50
416,91	1269,74
417,11	1212,40
417,32	1331,18
417,53	1257,45
417,73	1300,46
417,94	1263,60
418,15	1322,99
418,35	1224,69
418,56	1298,41
418,77	1306,60
418,97	1257,45
419,18	1220,59
419,38	1298,41
419,59	1279,98
419,80	1208,30
420,00	1193,97
420,21	1243,12
420,42	1273,84
420,62	1294,32
420,83	1230,83
421,04	1312,75
421,24	1275,88
421,45	1282,03
421,65	1284,08
421,86	1261,55
422,07	1265,64
422,27	1267,69
422,48	1296,36
422,69	1322,99
422,89	1245,16
423,10	1325,04
423,30	1294,32
423,51	1253,36
423,72	1220,59
423,92	1271,79
424,13	1253,36
424,33	1239,02
424,54	1249,26
424,75	1296,36
424,95	1253,36
425,16	1325,04
425,36	1347,56
425,57	1312,75
425,78	1314,80
425,98	1279,98
426,19	1282,03
426,39	1312,75
426,60	1241,07
426,81	1308,65
427,01	1322,99
427,22	1277,93
427,42	1228,78
427,63	1150,96
427,83	1228,78
428,04	1267,69
428,25	1255,40
428,45	1279,98
428,66	1275,88
428,86	1296,36
429,07	1226,73
429,28	1263,60
429,48	1224,69
429,69	1290,22
429,89	1253,36
430,10	1310,70
430,30	1226,73
430,51	1331,18
430,71	1269,74
430,92	1279,98
431,13	1292,27
431,33	1263,60
431,54	1263,60
431,74	1300,46
431,95	1249,26
432,15	1261,55
432,36	1314,80
432,56	1257,45
432,77	1263,60
432,98	1300,46
433,18	1267,69
433,39	1298,41
433,59	1239,02
433,80	1290,22
434,00	1191,92
434,21	1234,93
434,41	1296,36
434,62	1282,03
434,82	1288,17
435,03	1312,75
435,23	1236,97
435,44	1286,12
435,64	1269,74
435,85	1251,31
436,06	1298,41
436,26	1316,84
436,47	1226,73
436,67	1222,64
436,88	1286,12
437,08	1298,41
437,29	1300,46
437,49	1273,84
437,70	1263,60
437,90	1292,27
438,11	1234,93
438,31	1282,03
438,52	1247,21
438,72	1273,84
438,93	1234,93
439,13	1273,84
439,34	1292,27
439,54	1222,64
439,75	1224,69
439,95	1308,65
440,16	1314,80
440,36	1267,69
440,57	1196,01
440,77	1232,88
440,98	1181,68
441,18	1234,93
441,39	1284,08
441,59	1294,32
441,80	1253,36
442,00	1253,36
442,21	1224,69
442,41	1232,88
442,62	1355,76
442,82	1263,60
443,02	1212,40
443,23	1261,55
443,43	1286,12
443,64	1277,93
443,84	1300,46
444,05	1339,37
444,25	1300,46
444,46	1239,02
444,66	1320,94
444,87	1296,36
445,07	1261,55
445,28	1257,45
445,48	1245,16
445,69	1269,74
445,89	1263,60
446,09	1191,92
446,30	1245,16
446,50	1345,52
446,71	1263,60
446,91	1249,26
447,12	1253,36
447,32	1167,34
447,53	1245,16
447,73	1298,41
447,93	1308,65
448,14	1288,17
448,34	1236,97
448,55	1333,23
448,75	1290,22
448,96	1214,45
449,16	1208,30
449,36	1261,55
449,57	1306,60
449,77	1273,84
449,98	1179,63
450,18	1271,79
450,39	1279,98
450,59	1300,46
450,79	1196,01
451,00	1273,84
451,20	1312,75
451,41	1185,77
451,61	1218,54
451,81	1226,73
452,02	1177,58
452,22	1316,84
452,43	1224,69
452,63	1345,52
452,84	1304,56
453,04	1335,28
453,24	1236,97
453,45	1288,17
453,65	1198,06
453,86	1224,69
454,06	1261,55
454,26	1239,02
454,47	1279,98
454,67	1306,60
454,87	1249,26
455,08	1206,25
455,28	1243,12
455,49	1304,56
455,69	1265,64
455,89	1265,64
456,10	1239,02
456,30	1298,41
456,51	1234,93
456,71	1298,41
456,91	1288,17
457,12	1310,70
457,32	1308,65
457,52	1263,60
457,73	1241,07
457,93	1257,45
458,14	1273,84
458,34	1255,40
458,54	1290,22
458,75	1216,49
458,95	1255,40
459,15	1300,46
459,36	1304,56
459,56	1265,64
459,76	1245,16
459,97	1226,73
460,17	1318,89
460,37	1298,41
460,58	1304,56
460,78	1236,97
460,99	1269,74
461,19	1175,53
461,39	1282,03
461,60	1292,27
461,80	1304,56
462,00	1222,64
462,21	1271,79
462,41	1304,56
462,61	1234,93
462,82	1265,64
463,02	1322,99
463,22	1230,83
463,43	1269,74
463,63	1339,37
463,83	1165,29
464,04	1257,45
464,24	1312,75
464,44	1273,84
464,64	1320,94
464,85	1288,17
465,05	1249,26
465,25	1300,46
465,46	1284,08
465,66	1288,17
465,86	1269,74
466,07	1322,99
466,27	1282,03
466,47	1261,55
466,68	1239,02
466,88	1275,88
467,08	1191,92
467,29	1288,17
467,49	1261,55
467,69	1249,26
467,89	1298,41
468,10	1185,77
468,30	1277,93
468,50	1253,36
468,71	1255,40
468,91	1294,32
469,11	1271,79
469,31	1290,22
469,52	1249,26
469,72	1193,97
469,92	1263,60
470,13	1269,74
470,33	1269,74
470,53	1224,69
470,73	1290,22
470,94	1226,73
471,14	1247,21
471,34	1249,26
471,54	1218,54
471,75	1271,79
471,95	1206,25
472,15	1279,98
472,36	1200,11
472,56	1320,94
472,76	1277,93
472,96	1243,12
473,17	1378,28
473,37	1335,28
473,57	1247,21
473,77	1236,97
473,98	1241,07
474,18	1306,60
474,38	1290,22
474,58	1269,74
474,79	1296,36
474,99	1234,93
475,19	1296,36
475,39	1181,68
475,60	1298,41
475,80	1316,84
476,00	1310,70
476,20	1304,56
476,41	1267,69
476,61	1261,55
476,81	1234,93
477,01	1279,98
477,21	1279,98
477,42	1288,17
477,62	1279,98
477,82	1374,19
478,02	1257,45
478,23	1224,69
478,43	1259,50
478,63	1355,76
478,83	1220,59
479,03	1288,17
479,24	1243,12
479,44	1279,98
479,64	1308,65
479,84	1298,41
480,04	1230,83
480,25	1335,28
480,45	1333,23
480,65	1224,69
480,85	1253,36
481,06	1265,64
481,26	1255,40
481,46	1290,22
481,66	1345,52
481,86	1243,12
482,06	1279,98
482,27	1251,31
482,47	1314,80
482,67	1337,32
482,87	1359,85
483,07	1312,75
483,28	1337,32
483,48	1224,69
483,68	1218,54
483,88	1306,60
484,08	1179,63
484,29	1282,03
484,49	1236,97
484,69	1228,78
484,89	1273,84
485,09	1224,69
485,29	1214,45
485,50	1236,97
485,70	1296,36
485,90	1312,75
486,10	1239,02
486,30	1329,13
486,50	1265,64
486,71	1255,40
486,91	1232,88
487,11	1247,21
487,31	1251,31
487,51	1204,21
487,71	1275,88
487,91	1261,55
488,12	1290,22
488,32	1294,32
488,52	1210,35
488,72	1284,08
488,92	1232,88
489,12	1288,17
489,32	1302,51
489,53	1222,64
489,73	1265,64
489,93	1208,30
490,13	1275,88
490,33	1232,88
490,53	1234,93
490,73	1271,79
490,94	1251,31
491,14	1325,04
491,34	1279,98
491,54	1288,17
491,74	1253,36
491,94	1226,73
492,14	1251,31
492,34	1314,80
492,54	1259,50
492,75	1226,73
492,95	1351,66
493,15	1290,22
493,35	1216,49
493,55	1257,45
493,75	1271,79
493,95	1282,03
494,15	1243,12
494,35	1275,88
494,56	1273,84
494,76	1279,98
494,96	1228,78
495,16	1312,75
495,36	1249,26
495,56	1271,79
495,76	1308,65
495,96	1273,84
496,16	1245,16
496,36	1284,08
496,56	1290,22
496,77	1234,93
496,97	1335,28
497,17	1279,98
497,37	1275,88
497,57	1279,98
497,77	1198,06
497,97	1304,56
498,17	1314,80
498,37	1263,60
498,57	1308,65
498,77	1255,40
498,97	1292,27
499,17	1296,36
499,38	1302,51
499,58	1234,93
499,78	1267,69
499,98	1259,50
500,18	1257,45
500,38	1357,80
500,58	1267,69
500,78	1267,69
500,98	1257,45
501,18	1273,84
501,38	1314,80
501,58	1298,41
501,78	1368,04
501,98	1279,98
502,18	1239,02
502,38	1261,55
502,58	1245,16
502,78	1337,32
502,98	1382,38
503,18	1243,12
503,38	1286,12
503,59	1277,93
503,79	1232,88
503,99	1296,36
504,19	1263,60
504,39	1275,88
504,59	1294,32
504,79	1236,97
504,99	1253,36
505,19	1232,88
505,39	1216,49
505,59	1275,88
505,79	1247,21
505,99	1275,88
506,19	1339,37
506,39	1241,07
506,59	1226,73
506,79	1339,37
506,99	1296,36
507,19	1228,78
507,39	1290,22
507,59	1232,88
507,79	1239,02
507,99	1292,27
508,19	1204,21
508,39	1327,08
508,59	1275,88
508,79	1253,36
508,99	1251,31
509,19	1345,52
509,39	1306,60
509,59	1271,79
509,79	1232,88
509,99	1247,21
510,19	1314,80
510,39	1304,56
510,59	1302,51
510,79	1200,11
510,99	1284,08
511,19	1263,60
511,39	1232,88
511,59	1239,02
511,79	1318,89
511,99	1243,12
512,19	1251,31
512,38	1208,30
512,58	1230,83
512,78	1226,73
512,98	1257,45
513,18	1279,98
513,38	1261,55
513,58	1302,51
513,78	1282,03
513,98	1286,12
514,18	1239,02
514,38	1361,90
514,58	1355,76
514,78	1261,55
514,98	1288,17
515,18	1210,35
515,38	1257,45
515,58	1222,64
515,78	1140,72
515,98	1298,41
516,18	1273,84
516,38	1265,64
516,57	1304,56
516,77	1216,49
516,97	1232,88
517,17	1275,88
517,37	1277,93
517,57	1339,37
517,77	1265,64
517,97	1216,49
518,17	1282,03
518,37	1345,52
518,57	1247,21
518,77	1304,56
518,97	1271,79
519,16	1265,64
519,36	1173,49
519,56	1159,15
519,76	1239,02
519,96	1279,98
520,16	1210,35
520,36	1241,07
520,56	1243,12
520,76	1206,25
520,96	1259,50
521,16	1224,69
521,35	1253,36
521,55	1261,55
521,75	1273,84
521,95	1279,98
522,15	1267,69
522,35	1325,04
522,55	1273,84
522,75	1210,35
522,95	1282,03
523,14	1265,64
523,34	1189,87
523,54	1306,60
523,74	1273,84
523,94	1302,51
524,14	1239,02
524,34	1296,36
524,54	1265,64
524,73	1273,84
524,93	1300,46
525,13	1204,21
525,33	1261,55
525,53	1228,78
525,73	1284,08
525,93	1267,69
526,13	1318,89
526,32	1296,36
526,52	1251,31
526,72	1302,51
526,92	1171,44
527,12	1275,88
527,32	1300,46
527,52	1282,03
527,71	1271,79
527,91	1298,41
528,11	1189,87
528,31	1210,35
528,51	1275,88
528,71	1265,64
528,90	1218,54
529,10	1198,06
529,30	1275,88
529,50	1222,64
529,70	1206,25
529,90	1206,25
530,09	1304,56
530,29	1271,79
530,49	1232,88
530,69	1265,64
530,89	1191,92
531,09	1265,64
531,28	1214,45
531,48	1249,26
531,68	1286,12
531,88	1310,70
532,08	1265,64
532,28	1224,69
532,47	1337,32
532,67	1265,64
532,87	1288,17
533,07	1241,07
533,27	1327,08
533,46	1300,46
533,66	1253,36
533,86	1230,83
534,06	1300,46
534,26	1249,26
534,45	1255,40
534,65	1298,41
534,85	1298,41
535,05	1300,46
535,25	1320,94
535,44	1341,42
535,64	1265,64
535,84	1314,80
536,04	1216,49
536,24	1196,01
536,43	1196,01
536,63	1257,45
536,83	1245,16
537,03	1288,17
537,22	1294,32
537,42	1286,12
537,62	1236,97
537,82	1277,93
538,02	1253,36
538,21	1251,31
538,41	1277,93
538,61	1314,80
538,81	1267,69
539,00	1314,80
539,20	1257,45
539,40	1212,40
539,60	1320,94
539,79	1304,56
539,99	1290,22
540,19	1286,12
540,39	1234,93
540,58	1259,50
540,78	1210,35
540,98	1316,84
541,18	1282,03
541,37	1249,26
541,57	1196,01
541,77	1341,42
541,97	1257,45
542,16	1308,65
542,36	1220,59
542,56	1263,60
542,76	1257,45
542,95	1314,80
543,15	1284,08
543,35	1296,36
543,54	1284,08
543,74	1312,75
543,94	1310,70
544,14	1296,36
544,33	1189,87
544,53	1255,40
544,73	1198,06
544,93	1212,40
545,12	1273,84
545,32	1316,84
545,52	1320,94
545,71	1239,02
545,91	1247,21
546,11	1298,41
546,30	1198,06
546,50	1263,60
546,70	1251,31
546,90	1368,04
547,09	1267,69
547,29	1196,01
547,49	1279,98
547,68	1282,03
547,88	1279,98
548,08	1224,69
548,27	1322,99
548,47	1204,21
548,67	1261,55
548,87	1214,45
549,06	1271,79
549,26	1312,75
549,46	1204,21
549,65	1288,17
549,85	1275,88
550,05	1247,21
550,24	1243,12
550,44	1245,16
550,64	1216,49
550,83	1251,31
551,03	1216,49
551,23	1189,87
551,42	1292,27
551,62	1288,17
551,82	1222,64
552,01	1148,91
552,21	1282,03
552,41	1220,59
552,60	1325,04
552,80	1239,02
553,00	1216,49
553,19	1331,18
553,39	1189,87
553,59	1306,60
553,78	1292,27
553,98	1310,70
554,17	1277,93
554,37	1329,13
554,57	1284,08
554,76	1288,17
554,96	1269,74
555,16	1216,49
555,35	1263,60
555,55	1241,07
555,75	1212,40
555,94	1320,94
556,14	1253,36
556,33	1243,12
556,53	1298,41
556,73	1279,98
556,92	1261,55
557,12	1298,41
557,32	1236,97
557,51	1239,02
557,71	1312,75
557,90	1322,99
558,10	1257,45
558,30	1329,13
558,49	1290,22
558,69	1251,31
558,88	1316,84
559,08	1284,08
559,28	1218,54
559,47	1185,77
559,67	1193,97
559,86	1284,08
560,06	1263,60
560,26	1304,56
560,45	1208,30
560,65	1253,36
560,84	1224,69
561,04	1249,26
561,24	1296,36
561,43	1312,75
561,63	1261,55
561,82	1269,74
562,02	1185,77
562,22	1257,45
562,41	1267,69
562,61	1292,27
562,80	1183,73
563,00	1296,36
563,19	1247,21
563,39	1304,56
563,59	1271,79
563,78	1298,41
563,98	1286,12
564,17	1251,31
564,37	1286,12
564,56	1296,36
564,76	1269,74
564,96	1337,32
565,15	1314,80
565,35	1310,70
565,54	1284,08
565,74	1165,29
565,93	1288,17
566,13	1234,93
566,32	1249,26
566,52	1263,60
566,71	1318,89
566,91	1300,46
567,11	1216,49
567,30	1288,17
567,50	1331,18
567,69	1267,69
567,89	1318,89
568,08	1263,60
568,28	1226,73
568,47	1214,45
568,67	1282,03
568,86	1288,17
569,06	1304,56
569,25	1224,69
569,45	1241,07
569,64	1228,78
569,84	1279,98
570,04	1273,84
570,23	1210,35
570,43	1282,03
570,62	1286,12
570,82	1267,69
571,01	1277,93
571,21	1277,93
571,40	1310,70
571,60	1327,08
571,79	1329,13
571,99	1251,31
572,18	1263,60
572,38	1259,50
572,57	1314,80
572,77	1267,69
572,96	1349,61
573,16	1204,21
573,35	1232,88
573,55	1245,16
573,74	1220,59
573,94	1290,22
574,13	1312,75
574,33	1335,28
574,52	1329,13
574,71	1296,36
574,91	1296,36
575,10	1275,88
575,30	1228,78
575,49	1243,12
575,69	1245,16
575,88	1271,79
576,08	1284,08
576,27	1198,06
576,47	1243,12
576,66	1292,27
576,86	1226,73
577,05	1333,23
577,25	1234,93
577,44	1259,50
577,64	1232,88
577,83	1306,60
578,02	1265,64
578,22	1308,65
578,41	1241,07
578,61	1269,74
578,80	1282,03
579,00	1290,22
579,19	1277,93
579,39	1284,08
579,58	1224,69
579,77	1249,26
579,97	1294,32
580,16	1257,45
580,36	1263,60
580,55	1279,98
580,75	1310,70
580,94	1243,12
581,13	1286,12
581,33	1286,12
581,52	1273,84
581,72	1245,16
581,91	1259,50
582,11	1298,41
582,30	1253,36
582,49	1226,73
582,69	1267,69
582,88	1314,80
583,08	1282,03
583,27	1300,46
583,47	1206,25
583,66	1191,92
583,85	1269,74
584,05	1208,30
584,24	1279,98
584,44	1247,21
584,63	1222,64
584,82	1380,33
585,02	1214,45
585,21	1279,98
585,41	1294,32
585,60	1302,51
585,79	1284,08
585,99	1298,41
586,18	1224,69
586,37	1265,64
586,57	1216,49
586,76	1259,50
586,96	1239,02
587,15	1308,65
587,34	1167,34
587,54	1304,56
587,73	1298,41
587,93	1288,17
588,12	1273,84
588,31	1290,22
588,51	1200,11
588,70	1212,40
588,89	1290,22
589,09	1292,27
589,28	1253,36
589,47	1269,74
589,67	1306,60
589,86	1306,60
590,06	1189,87
590,25	1312,75
590,44	1198,06
590,64	1208,30
590,83	1234,93
591,02	1349,61
591,22	1263,60
591,41	1243,12
591,60	1284,08
591,80	1290,22
591,99	1257,45
592,18	1337,32
592,38	1337,32
592,57	1310,70
592,76	1257,45
592,96	1314,80
593,15	1306,60
593,34	1327,08
593,54	1228,78
593,73	1247,21
593,92	1257,45
594,12	1318,89
594,31	1314,80
594,50	1200,11
594,70	1288,17
594,89	1222,64
595,08	1259,50
595,28	1343,47
595,47	1236,97
595,66	1318,89
595,86	1273,84
596,05	1294,32
596,24	1234,93
596,43	1241,07
596,63	1314,80
596,82	1249,26
597,01	1310,70
597,21	1230,83
597,40	1267,69
597,59	1320,94
597,79	1263,60
597,98	1318,89
598,17	1271,79
598,36	1282,03
598,56	1304,56
598,75	1249,26
598,94	1310,70
599,14	1314,80
599,33	1288,17
599,52	1241,07
599,71	1257,45
599,91	1335,28
600,10	1253,36
600,29	1273,84
600,48	1310,70
600,68	1277,93
600,87	1277,93
601,06	1277,93
601,26	1218,54
601,45	1259,50
601,64	1247,21
601,83	1286,12
602,03	1257,45
602,22	1292,27
602,41	1277,93
602,60	1249,26
602,80	1304,56
602,99	1273,84
603,18	1247,21
603,37	1345,52
603,57	1267,69
603,76	1290,22
603,95	1288,17
604,14	1239,02
604,34	1232,88
604,53	1236,97
604,72	1267,69
604,91	1339,37
605,10	1306,60
605,30	1232,88
605,49	1306,60
605,68	1300,46
605,87	1206,25
606,07	1216,49
606,26	1259,50
606,45	1290,22
606,64	1294,32
606,84	1331,18
607,03	1247,21
607,22	1345,52
607,41	1222,64
607,60	1282,03
607,80	1267,69
607,99	1247,21
608,18	1329,13
608,37	1255,40
608,56	1310,70
608,76	1290,22
608,95	1300,46
609,14	1255,40
609,33	1273,84
609,52	1275,88
609,72	1265,64
609,91	1275,88
610,10	1284,08
610,29	1271,79
610,48	1261,55
610,68	1333,23
610,87	1257,45
611,06	1220,59
611,25	1253,36
611,44	1216,49
611,63	1251,31
611,83	1269,74
612,02	1273,84
612,21	1282,03
612,40	1224,69
612,59	1241,07
612,79	1322,99
612,98	1249,26
613,17	1308,65
613,36	1214,45
613,55	1257,45
613,74	1318,89
613,93	1292,27
614,13	1314,80
614,32	1286,12
614,51	1271,79
614,70	1234,93
614,89	1296,36
615,08	1282,03
615,28	1343,47
615,47	1224,69
615,66	1296,36
615,85	1267,69
616,04	1253,36
616,23	1320,94
616,42	1249,26
616,62	1286,12
616,81	1343,47
617,00	1253,36
617,19	1312,75
617,38	1257,45
617,57	1320,94
617,76	1267,69
617,95	1243,12
618,15	1277,93
618,34	1263,60
618,53	1198,06
618,72	1304,56
618,91	1316,84
619,10	1333,23
619,29	1198,06
619,48	1245,16
619,68	1241,07
619,87	1322,99
620,06	1220,59
620,25	1234,93
620,44	1341,42
620,63	1306,60
620,82	1284,08
621,01	1257,45
621,20	1273,84
621,39	1298,41
621,59	1265,64
621,78	1261,55
621,97	1206,25
622,16	1316,84
622,35	1245,16
622,54	1296,36
622,73	1273,84
622,92	1269,74
623,11	1306,60
623,30	1269,74
623,49	1318,89
623,68	1265,64
623,88	1290,22
624,07	1226,73
624,26	1294,32
624,45	1341,42
624,64	1189,87
624,83	1185,77
625,02	1322,99
625,21	1230,83
625,40	1226,73
625,59	1263,60
625,78	1271,79
625,97	1304,56
626,16	1314,80
626,35	1288,17
626,54	1306,60
626,74	1302,51
626,93	1286,12
627,12	1269,74
627,31	1284,08
627,50	1241,07
627,69	1333,23
627,88	1271,79
628,07	1243,12
628,26	1333,23
628,45	1333,23
628,64	1267,69
628,83	1232,88
629,02	1222,64
629,21	1220,59
629,40	1273,84
629,59	1245,16
629,78	1314,80
629,97	1277,93
630,16	1302,51
630,35	1222,64
630,54	1294,32
630,73	1382,38
630,92	1333,23
631,11	1302,51
631,30	1243,12
631,49	1404,91
631,68	1613,80
631,87	2031,58
632,06	2750,42
632,25	2531,29
632,44	2944,98
632,63	3309,52
632,82	4403,13
633,01	6000,55
633,20	13825,84
633,39	23752,34
633,58	25925,24
633,77	21108,41
633,96	13547,31
634,15	7124,88
634,34	4122,56
634,53	3293,13
634,72	2486,23
634,91	1925,09
635,10	1808,36
635,29	1761,25
635,48	1751,01
635,67	1613,80
635,86	1527,78
636,05	1478,63
636,24	1417,19
636,43	1388,52
636,62	1363,95
636,81	1390,57
637,00	1361,90
637,19	1329,13
637,38	1300,46
637,57	1228,78
637,76	1304,56
637,95	1284,08
638,14	1245,16
638,33	1236,97
638,52	1298,41
638,71	1220,59
638,89	1279,98
639,08	1366,00
639,27	1259,50
639,46	1245,16
639,65	1314,80
639,84	1263,60
640,03	1245,16
640,22	1273,84
640,41	1351,66
640,60	1345,52
640,79	1337,32
640,98	1214,45
641,17	1204,21
641,36	1314,80
641,55	1267,69
641,74	1257,45
641,92	1220,59
642,11	1306,60
642,30	1310,70
642,49	1234,93
642,68	1251,31
642,87	1329,13
643,06	1265,64
643,25	1337,32
643,44	1333,23
643,63	1318,89
643,82	1318,89
644,00	1277,93
644,19	1265,64
644,38	1253,36
644,57	1320,94
644,76	1298,41
644,95	1198,06
645,14	1298,41
645,33	1222,64
645,52	1208,30
645,71	1259,50
645,89	1271,79
646,08	1265,64
646,27	1298,41
646,46	1308,65
646,65	1257,45
646,84	1314,80
647,03	1290,22
647,22	1193,97
647,40	1277,93
647,59	1296,36
647,78	1257,45
647,97	1298,41
648,16	1265,64
648,35	1347,56
648,54	1267,69
648,73	1181,68
648,91	1261,55
649,10	1290,22
649,29	1245,16
649,48	1304,56
649,67	1243,12
649,86	1320,94
650,05	1243,12
650,23	1251,31
650,42	1284,08
650,61	1298,41
650,80	1290,22
650,99	1273,84
651,18	1327,08
651,36	1239,02
651,55	1208,30
651,74	1265,64
651,93	1196,01
652,12	1253,36
652,31	1290,22
652,49	1312,75
652,68	1230,83
652,87	1261,55
653,06	1196,01
653,25	1277,93
653,44	1241,07
653,62	1273,84
653,81	1232,88
654,00	1327,08
654,19	1277,93
654,38	1288,17
654,56	1282,03
654,75	1200,11
654,94	1282,03
655,13	1222,64
655,32	1271,79
655,51	1300,46
655,69	1236,97
655,88	1267,69
656,07	1267,69
656,26	1263,60
656,45	1232,88
656,63	1279,98
656,82	1355,76
657,01	1273,84
657,20	1288,17
657,38	1282,03
657,57	1228,78
657,76	1265,64
657,95	1232,88
658,14	1204,21
658,32	1296,36
658,51	1286,12
658,70	1275,88
658,89	1335,28
659,08	1251,31
659,26	1288,17
659,45	1224,69
659,64	1288,17
659,83	1196,01
660,01	1296,36
660,20	1294,32
660,39	1329,13
660,58	1273,84
660,76	1265,64
660,95	1189,87
661,14	1320,94
661,33	1224,69
661,51	1220,59
661,70	1310,70
661,89	1310,70
662,08	1300,46
662,26	1243,12
662,45	1298,41
662,64	1263,60
662,83	1296,36
663,01	1300,46
663,20	1228,78
663,39	1181,68
663,58	1247,21
663,76	1306,60
663,95	1224,69
664,14	1165,29
664,32	1245,16
664,51	1320,94
664,70	1245,16
664,89	1234,93
665,07	1181,68
665,26	1271,79
665,45	1253,36
665,64	1322,99
665,82	1232,88
666,01	1298,41
666,20	1265,64
666,38	1265,64
666,57	1165,29
666,76	1284,08
666,95	1308,65
667,13	1320,94
667,32	1251,31
667,51	1312,75
667,69	1234,93
667,88	1245,16
668,07	1216,49
668,25	1306,60
668,44	1329,13
668,63	1304,56
668,81	1277,93
669,00	1198,06
669,19	1222,64
669,38	1279,98
669,56	1245,16
669,75	1279,98
669,94	1245,16
670,12	1296,36
670,31	1302,51
670,50	1243,12
670,68	1191,92
670,87	1232,88
671,06	1304,56
671,24	1312,75
671,43	1298,41
671,62	1269,74
671,80	1255,40
671,99	1290,22
672,18	1349,61
672,36	1304,56
672,55	1322,99
672,74	1312,75
672,92	1288,17
673,11	1327,08
673,29	1286,12
673,48	1298,41
673,67	1224,69
673,85	1339,37
674,04	1282,03
674,23	1314,80
674,41	1314,80
674,60	1298,41
674,79	1261,55
674,97	1288,17
675,16	1275,88
675,34	1349,61
675,53	1261,55
675,72	1304,56
675,90	1275,88
676,09	1234,93
676,28	1282,03
676,46	1267,69
676,65	1220,59
676,83	1236,97
677,02	1226,73
677,21	1267,69
677,39	1259,50
677,58	1253,36
677,77	1310,70
677,95	1206,25
678,14	1273,84
678,32	1255,40
678,51	1255,40
678,70	1277,93
678,88	1251,31
679,07	1241,07
679,25	1282,03
679,44	1314,80
679,63	1284,08
679,81	1243,12
680,00	1210,35
680,18	1284,08
680,37	1320,94
680,55	1275,88
680,74	1265,64
680,93	1239,02
681,11	1218,54
681,30	1279,98
681,48	1212,40
681,67	1335,28
681,85	1310,70
682,04	1269,74
682,23	1273,84
682,41	1370,09
682,60	1265,64
682,78	1249,26
682,97	1239,02
683,15	1279,98
683,34	1296,36
683,53	1271,79
683,71	1204,21
683,90	1273,84
684,08	1288,17
684,27	1275,88
684,45	1292,27
684,64	1247,21
684,82	1273,84
685,01	1320,94
685,19	1220,59
685,38	1304,56
685,57	1275,88
685,75	1230,83
685,94	1273,84
686,12	1265,64
686,31	1322,99
686,49	1351,66
686,68	1284,08
686,86	1304,56
687,05	1247,21
687,23	1239,02
687,42	1288,17
687,60	1251,31
687,79	1312,75
687,97	1245,16
688,16	1239,02
688,34	1284,08
688,53	1200,11
688,71	1279,98
688,90	1302,51
689,08	1294,32
689,27	1284,08
689,45	1232,88
689,64	1261,55
689,82	1265,64
690,01	1224,69
690,19	1269,74
690,38	1269,74
690,56	1325,04
690,75	1298,41
690,93	1308,65
691,12	1267,69
691,30	1288,17
691,49	1294,32
691,67	1181,68
691,86	1316,84
692,04	1236,97
692,23	1255,40
692,41	1304,56
692,60	1288,17
692,78	1304,56
692,97	1210,35
693,15	1294,32
693,34	1288,17
693,52	1257,45
693,71	1261,55
693,89	1259,50
694,08	1198,06
694,26	1294,32
694,44	1294,32
694,63	1234,93
694,81	1279,98
695,00	1282,03
695,18	1198,06
695,37	1277,93
695,55	1314,80
695,74	1214,45
695,92	1253,36
696,10	1288,17
696,29	1228,78
696,47	1255,40
696,66	1263,60
696,84	1325,04
697,03	1257,45
697,21	1347,56
697,40	1327,08
697,58	1239,02
697,76	1286,12
697,95	1191,92
698,13	1304,56
698,32	1239,02
698,50	1325,04
698,68	1308,65
698,87	1255,40
699,05	1212,40
699,24	1179,63
699,42	1277,93
699,61	1335,28
699,79	1267,69
699,97	1290,22
700,16	1290,22
700,34	1314,80
700,53	1230,83
700,71	1277,93
700,89	1251,31
701,08	1261,55
701,26	1290,22
701,45	1273,84
701,63	1314,80
701,81	1263,60
702,00	1308,65
702,18	1335,28
702,37	1282,03
702,55	1271,79
702,73	1222,64
702,92	1253,36
703,10	1214,45
703,28	1220,59
703,47	1296,36
703,65	1236,97
703,84	1261,55
704,02	1236,97
704,20	1284,08
704,39	1290,22
704,57	1331,18
704,75	1318,89
704,94	1288,17
705,12	1261,55
705,30	1189,87
705,49	1292,27
705,67	1290,22
705,86	1290,22
706,04	1208,30
706,22	1187,82
706,41	1232,88
706,59	1298,41
706,77	1228,78
706,96	1216,49
707,14	1339,37
707,32	1261,55
707,51	1290,22
707,69	1277,93
707,87	1271,79
708,06	1255,40
708,24	1282,03
708,42	1261,55
708,61	1302,51
708,79	1216,49
708,97	1273,84
709,16	1282,03
709,34	1273,84
709,52	1247,21
709,71	1255,40
709,89	1257,45
710,07	1286,12
710,26	1220,59
710,44	1345,52
710,62	1277,93
710,80	1269,74
710,99	1198,06
711,17	1288,17
711,35	1343,47
711,54	1155,05
711,72	1333,23
711,90	1247,21
712,09	1241,07
712,27	1273,84
712,45	1284,08
712,63	1300,46
712,82	1308,65
713,00	1284,08
713,18	1261,55
713,37	1232,88
713,55	1245,16
713,73	1294,32
713,91	1327,08
714,10	1234,93
714,28	1343,47
714,46	1290,22
714,65	1275,88
714,83	1290,22
715,01	1298,41
715,19	1265,64
715,38	1245,16
715,56	1300,46
715,74	1230,83
715,92	1335,28
716,11	1247,21
716,29	1271,79
716,47	1230,83
716,65	1245,16
716,84	1228,78
717,02	1296,36
717,20	1310,70
717,38	1277,93
717,57	1261,55
717,75	1304,56
717,93	1269,74
718,11	1259,50
718,30	1286,12
718,48	1312,75
718,66	1212,40
718,84	1337,32
719,03	1294,32
719,21	1257,45
719,39	1306,60
719,57	1322,99
719,75	1185,77
719,94	1286,12
720,12	1275,88
720,30	1353,71
720,48	1273,84
720,67	1390,57
720,85	1245,16
721,03	1341,42
721,21	1322,99
721,39	1277,93
721,58	1253,36
721,76	1257,45
721,94	1298,41
722,12	1320,94
722,30	1363,95
722,49	1277,93
722,67	1171,44
722,85	1290,22
723,03	1214,45
723,21	1273,84
723,40	1243,12
723,58	1220,59
723,76	1196,01
723,94	1196,01
724,12	1257,45
724,30	1335,28
724,49	1314,80
724,67	1234,93
724,85	1247,21
725,03	1271,79
725,21	1294,32
725,40	1210,35
725,58	1218,54
725,76	1269,74
725,94	1234,93
726,12	1239,02
726,30	1304,56
726,49	1284,08
726,67	1228,78
726,85	1312,75
727,03	1273,84
727,21	1290,22
727,39	1261,55
727,57	1314,80
727,76	1290,22
727,94	1269,74
728,12	1286,12
728,30	1302,51
728,48	1159,15
728,66	1279,98
728,84	1279,98
729,03	1220,59
729,21	1273,84
729,39	1288,17
729,57	1273,84
729,75	1247,21
729,93	1310,70
730,11	1257,45
730,30	1245,16
730,48	1296,36
730,66	1288,17
730,84	1275,88
731,02	1247,21
731,20	1259,50
731,38	1275,88
731,56	1279,98
731,74	1269,74
731,93	1228,78
732,11	1220,59
732,29	1200,11
732,47	1220,59
732,65	1322,99
732,83	1282,03
733,01	1259,50
733,19	1335,28
733,37	1220,59
733,56	1255,40
733,74	1232,88
733,92	1259,50
734,10	1306,60
734,28	1226,73
734,46	1284,08
734,64	1239,02
734,82	1228,78
735,00	1308,65
735,18	1253,36
735,36	1282,03
735,54	1193,97
735,73	1312,75
735,91	1265,64
736,09	1236,97
736,27	1288,17
736,45	1236,97
736,63	1347,56
736,81	1269,74
736,99	1208,30
737,17	1282,03
737,35	1234,93
737,53	1224,69
737,71	1312,75
737,89	1228,78
738,07	1279,98
738,25	1236,97
738,43	1232,88
738,61	1257,45
738,80	1241,07
738,98	1239,02
739,16	1253,36
739,34	1236,97
739,52	1251,31
739,70	1314,80
739,88	1261,55
740,06	1249,26
740,24	1196,01
740,42	1306,60
740,60	1269,74
740,78	1234,93
740,96	1296,36
741,14	1269,74
741,32	1312,75
741,50	1267,69
741,68	1228,78
741,86	1243,12
742,04	1212,40
742,22	1212,40
742,40	1198,06
742,58	1308,65
742,76	1253,36
742,94	1224,69
743,12	1277,93
743,30	1265,64
743,48	1292,27
743,66	1286,12
743,84	1259,50
744,02	1253,36
744,20	1175,53
744,38	1284,08
744,56	1259,50
744,74	1333,23
744,92	1277,93
745,10	1294,32
745,28	1269,74
745,46	1296,36
745,64	1214,45
745,82	1265,64
746,00	1304,56
746,18	1304,56
746,36	1290,22
746,54	1325,04
746,72	1290,22
746,90	1279,98
747,08	1341,42
747,26	1296,36
747,44	1234,93
747,62	1241,07
747,80	1241,07
747,98	1267,69
748,15	1239,02
748,33	1202,16
748,51	1308,65
748,69	1261,55
748,87	1308,65
749,05	1290,22
749,23	1232,88
749,41	1308,65
749,59	1296,36
749,77	1239,02
749,95	1265,64
750,13	1325,04
750,31	1210,35
750,49	1234,93
750,67	1259,50
750,85	1277,93
751,03	1300,46
751,20	1230,83
751,38	1243,12
751,56	1234,93
751,74	1234,93
751,92	1273,84
752,10	1236,97
752,28	1357,80
752,46	1230,83
752,64	1302,51
752,82	1228,78
753,00	1239,02
753,18	1269,74
753,35	1277,93
753,53	1351,66
753,71	1265,64
753,89	1245,16
754,07	1269,74
754,25	1318,89
754,43	1292,27
754,61	1347,56
754,79	1302,51
754,97	1327,08
755,14	1263,60
755,32	1236,97
755,50	1228,78
755,68	1241,07
755,86	1267,69
756,04	1290,22
756,22	1271,79
756,40	1249,26
756,57	1251,31
756,75	1245,16
756,93	1298,41
757,11	1249,26
757,29	1212,40
757,47	1241,07
757,65	1263,60
757,82	1239,02
758,00	1277,93
758,18	1200,11
758,36	1314,80
758,54	1290,22
758,72	1245,16
758,90	1210,35
759,07	1322,99
759,25	1241,07
759,43	1255,40
759,61	1271,79
759,79	1282,03
759,97	1296,36
760,15	1210,35
760,32	1294,32
760,50	1257,45
760,68	1277,93
760,86	1294,32
761,04	1341,42
761,22	1284,08
761,39	1239,02
761,57	1277,93
761,75	1296,36
761,93	1269,74
762,11	1230,83
762,28	1259,50
762,46	1271,79
762,64	1292,27
762,82	1210,35
763,00	1273,84
763,18	1288,17
763,35	1282,03
763,53	1282,03
763,71	1306,60
763,89	1279,98
764,07	1228,78
764,24	1261,55
764,42	1294,32
764,60	1296,36
764,78	1263,60
764,96	1282,03
765,13	1241,07
765,31	1279,98
765,49	1300,46
765,67	1241,07
765,84	1257,45
766,02	1290,22
766,20	1273,84
766,38	1230,83
766,56	1275,88
766,73	1286,12
766,91	1255,40
767,09	1306,60
767,27	1282,03
767,44	1273,84
767,62	1257,45
767,80	1318,89
767,98	1243,12
768,15	1257,45
768,33	1253,36
768,51	1282,03
768,69	1265,64
768,87	1288,17
769,04	1304,56
769,22	1277,93
769,40	1288,17
769,58	1312,75
769,75	1320,94
769,93	1208,30
770,11	1269,74
770,28	1208,30
770,46	1226,73
770,64	1202,16
770,82	1302,51
770,99	1308,65
771,17	1247,21
771,35	1200,11
771,53	1316,84
771,70	1320,94
771,88	1318,89
772,06	1273,84
772,23	1230,83
772,41	1220,59
772,59	1253,36
772,77	1271,79
772,94	1236,97
773,12	1263,60
773,30	1269,74
773,47	1243,12
773,65	1265,64
773,83	1310,70
774,01	1224,69
774,18	1257,45
774,36	1234,93
774,54	1230,83
774,71	1247,21
774,89	1253,36
775,07	1267,69
775,24	1277,93
775,42	1167,34
775,60	1259,50
775,78	1277,93
775,95	1267,69
776,13	1296,36
776,31	1271,79
776,48	1355,76
776,66	1245,16
776,84	1275,88
777,01	1261,55
777,19	1337,32
777,37	1259,50
777,54	1277,93
777,72	1216,49
777,90	1302,51
778,07	1255,40
778,25	1284,08
778,43	1275,88
778,60	1218,54
778,78	1249,26
778,96	1271,79
779,13	1312,75
779,31	1216,49
779,49	1179,63
779,66	1277,93
779,84	1249,26
780,01	1279,98
780,19	1218,54
780,37	1322,99
780,54	1241,07
780,72	1224,69
780,90	1273,84
781,07	1302,51
781,25	1355,76
781,43	1216,49
781,60	1298,41
781,78	1263,60
781,95	1255,40
782,13	1271,79
782,31	1275,88
782,48	1243,12
782,66	1306,60
782,83	1314,80
783,01	1243,12
783,19	1290,22
783,36	1296,36
783,54	1253,36
783,72	1249,26
783,89	1279,98
784,07	1306,60
784,24	1300,46
784,42	1288,17
784,60	1296,36
784,77	1253,36
784,95	1318,89
785,12	1279,98
785,30	1210,35
785,47	1247,21
785,65	1279,98
785,83	1347,56
786,00	1341,42
786,18	1271,79
786,35	1325,04
786,53	1290,22
786,71	1222,64
786,88	1222,64
787,06	1265,64
787,23	1294,32
787,41	1241,07
787,58	1187,82
787,76	1322,99
787,94	1329,13
788,11	1212,40
788,29	1273,84
788,46	1247,21
788,64	1296,36
788,81	1210,35
788,99	1269,74
789,16	1232,88
789,34	1259,50
789,52	1220,59
789,69	1337,32
789,87	1261,55
790,04	1181,68
790,22	1300,46
790,39	1296,36
790,57	1163,25
790,74	1220,59
790,92	1273,84
791,09	1273,84
791,27	1277,93
791,44	1312,75
791,62	1335,28
791,79	1290,22
791,97	1243,12
792,15	1310,70
792,32	1236,97
792,50	1263,60
792,67	1267,69
792,85	1220,59
793,02	1239,02
793,20	1335,28
793,37	1284,08
793,55	1298,41
793,72	1302,51
793,90	1202,16
794,07	1282,03
794,25	1247,21
794,42	1327,08
794,60	1257,45
794,77	1226,73
794,95	1327,08
795,12	1284,08
795,30	1284,08
795,47	1236,97
795,65	1271,79
795,82	1218,54
796,00	1306,60
796,17	1339,37
796,34	1241,07
796,52	1257,45
796,69	1255,40
796,87	1279,98
797,04	1306,60
797,22	1290,22
797,39	1239,02
797,57	1189,87
797,74	1304,56
797,92	1269,74
798,09	1329,13
798,27	1320,94
798,44	1228,78
798,62	1255,40
798,79	1261,55
798,96	1318,89
799,14	1286,12
799,31	1220,59
799,49	1275,88
799,66	1257,45
799,84	1255,40
800,01	1308,65
800,19	1193,97
800,36	1245,16
800,53	1261,55
800,71	1224,69
800,88	1312,75
801,06	1267,69
801,23	1241,07
801,41	1249,26
801,58	1275,88
801,75	1302,51
801,93	1259,50
802,10	1302,51
802,28	1265,64
802,45	1198,06
802,63	1214,45
802,80	1216,49
802,97	1249,26
803,15	1277,93
803,32	1292,27
803,50	1275,88
803,67	1167,34
803,84	1290,22
804,02	1265,64
804,19	1265,64
804,37	1275,88
804,54	1282,03
804,71	1198,06
804,89	1267,69
805,06	1277,93
805,24	1204,21
805,41	1286,12
805,58	1273,84
805,76	1314,80
805,93	1298,41
806,10	1220,59
806,28	1265,64
806,45	1255,40
806,63	1243,12
806,80	1255,40
806,97	1349,61
807,15	1226,73
807,32	1267,69
807,49	1261,55
807,67	1282,03
807,84	1279,98
808,01	1351,66
808,19	1273,84
808,36	1234,93
808,54	1261,55
808,71	1245,16
808,88	1253,36
809,06	1191,92
809,23	1286,12
809,40	1220,59
809,58	1322,99
809,75	1193,97
809,92	1327,08
810,10	1335,28
810,27	1306,60
810,44	1261,55
810,62	1288,17
810,79	1312,75
810,96	1284,08
811,14	1333,23
811,31	1322,99
811,48	1294,32
811,66	1191,92
811,83	1247,21
812,00	1343,47
812,18	1304,56
812,35	1284,08
812,52	1277,93
812,69	1284,08
812,87	1279,98
813,04	1296,36
813,21	1308,65
813,39	1191,92
813,56	1234,93
813,73	1308,65
813,91	1261,55
814,08	1239,02
814,25	1314,80
814,42	1288,17
814,60	1255,40
814,77	1236,97
814,94	1220,59
815,12	1312,75
815,29	1239,02
815,46	1271,79
815,63	1241,07
815,81	1341,42
815,98	1183,73
816,15	1304,56
816,33	1300,46
816,50	1191,92
816,67	1304,56
816,84	1222,64
817,02	1263,60
817,19	1288,17
817,36	1290,22
817,53	1296,36
817,71	1327,08
817,88	1220,59
818,05	1302,51
818,22	1253,36
818,40	1298,41
818,57	1261,55
818,74	1236,97
818,91	1210,35
819,09	1290,22
819,26	1282,03
819,43	1183,73
819,60	1355,76
819,78	1327,08
819,95	1249,26
820,12	1335,28
820,29	1298,41
820,47	1259,50
820,64	1263,60
820,81	1308,65
820,98	1265,64
821,15	1191,92
821,33	1257,45
821,50	1271,79
821,67	1243,12
821,84	1277,93
822,02	1282,03
822,19	1368,04
822,36	1269,74
822,53	1193,97
822,70	1230,83
822,88	1271,79
823,05	1292,27
823,22	1310,70
823,39	1253,36
823,56	1335,28
823,74	1284,08
823,91	1296,36
824,08	1228,78
824,25	1308,65
824,42	1216,49
824,60	1263,60
824,77	1228,78
824,94	1282,03
825,11	1263,60
825,28	1257,45
825,45	1257,45
825,63	1198,06
825,80	1290,22
825,97	1269,74
826,14	1265,64
826,31	1267,69
826,48	1310,70
826,66	1314,80
826,83	1279,98
827,00	1255,40
827,17	1300,46
827,34	1224,69
827,51	1286,12
827,69	1239,02
827,86	1230,83
828,03	1290,22
828,20	1247,21
828,37	1290,22
828,54	1282,03
828,71	1300,46
828,89	1259,50
829,06	1243,12
829,23	1232,88
829,40	1200,11
829,57	1236,97
829,74	1257,45
829,91	1341,42
830,09	1239,02
830,26	1277,93
830,43	1265,64
830,60	1345,52
830,77	1247,21
830,94	1286,12
831,11	1282,03
831,28	1193,97
831,46	1255,40
831,63	1288,17
831,80	1308,65
831,97	1296,36
832,14	1279,98
832,31	1263,60
832,48	1259,50
832,65	1218,54
832,82	1216,49
832,99	1165,29
833,17	1345,52
833,34	1294,32
833,51	1239,02
833,68	1284,08
833,85	1345,52
834,02	1302,51
834,19	1212,40
834,36	1345,52
834,53	1210,35
834,70	1296,36
834,87	1226,73
835,04	1288,17
835,22	1277,93
835,39	1245,16
835,56	1277,93
835,73	1294,32
835,90	1189,87
836,07	1316,84
836,24	1222,64
836,41	1257,45
836,58	1267,69
836,75	1247,21
836,92	1331,18
837,09	1269,74
837,26	1265,64
837,43	1273,84
837,60	1273,84
837,77	1296,36
837,94	1153,01
838,12	1234,93
838,29	1298,41
838,46	1261,55
838,63	1222,64
838,80	1257,45
838,97	1261,55
839,14	1310,70
839,31	1253,36
839,48	1257,45
839,65	1185,77
839,82	1312,75
839,99	1259,50
840,16	1267,69
840,33	1320,94
840,50	1275,88
840,67	1212,40
840,84	1257,45
841,01	1290,22
841,18	1341,42
841,35	1257,45
841,52	1351,66
841,69	1249,26
841,86	1255,40
842,03	1230,83
842,20	1304,56
842,37	1290,22
842,54	1302,51
842,71	1273,84
842,88	1198,06
843,05	1312,75
843,22	1228,78
843,39	1308,65
843,56	1253,36
843,73	1241,07
843,90	1294,32
844,07	1316,84
844,24	1259,50
844,41	1220,59
844,58	1302,51
844,75	1275,88
844,92	1345,52
845,09	1232,88
845,26	1243,12
845,43	1316,84
845,60	1277,93
845,77	1226,73
845,94	1267,69
846,10	1290,22
846,27	1181,68
846,44	1210,35
846,61	1275,88
846,78	1224,69
846,95	1257,45
847,12	1335,28
847,29	1312,75
847,46	1232,88
847,63	1308,65
847,80	1310,70
847,97	1236,97
848,14	1245,16
848,31	1263,60
848,48	1198,06
848,65	1302,51
848,82	1232,88
848,98	1239,02
849,15	1306,60
849,32	1302,51
849,49	1327,08
849,66	1267,69
849,83	1343,47
850,00	1206,25
850,17	1224,69
850,34	1247,21
850,51	1298,41
850,68	1300,46
850,85	1198,06
851,01	1257,45
851,18	1249,26
851,35	1255,40
851,52	1206,25
851,69	1253,36
851,86	1275,88
852,03	1198,06
852,20	1298,41
852,37	1249,26
852,53	1249,26
852,70	1265,64
852,87	1284,08
853,04	1261,55
853,21	1212,40
853,38	1232,88
853,55	1277,93
853,72	1282,03
853,89	1286,12
854,05	1279,98
854,22	1241,07
854,39	1294,32
854,56	1267,69
854,73	1298,41
854,90	1255,40
855,07	1255,40
855,23	1208,30
855,40	1236,97
855,57	1193,97
855,74	1226,73
855,91	1239,02
856,08	1361,90
856,25	1173,49
856,41	1284,08
856,58	1277,93
856,75	1310,70
856,92	1284,08
857,09	1253,36
857,26	1245,16
857,42	1306,60
857,59	1298,41
857,76	1263,60
857,93	1200,11
858,10	1261,55
858,27	1247,21
858,43	1255,40
858,60	1329,13
858,77	1265,64
858,94	1316,84
859,11	1298,41
859,27	1308,65
859,44	1249,26
859,61	1267,69
859,78	1292,27
859,95	1241,07
860,12	1253,36
860,28	1292,27
860,45	1296,36
860,62	1214,45
860,79	1255,40
860,95	1232,88
861,12	1265,64
861,29	1243,12
861,46	1230,83
861,63	1228,78
861,79	1300,46
861,96	1224,69
862,13	1304,56
862,30	1284,08
862,47	1224,69
862,63	1251,31
862,80	1300,46
862,97	1239,02
863,14	1298,41
863,30	1196,01
863,47	1290,22
863,64	1210,35
863,81	1249,26
863,97	1279,98
864,14	1251,31
864,31	1322,99
864,48	1222,64
864,65	1322,99
864,81	1269,74
864,98	1232,88
865,15	1228,78
865,32	1236,97
865,48	1296,36
865,65	1318,89
865,82	1253,36
865,98	1263,60
866,15	1269,74
866,32	1310,70
866,49	1257,45
866,65	1263,60
866,82	1261,55
866,99	1234,93
867,16	1265,64
867,32	1277,93
867,49	1239,02
867,66	1255,40
867,83	1273,84
867,99	1261,55
868,16	1259,50
868,33	1271,79
868,49	1271,79
868,66	1304,56
868,83	1288,17
868,99	1331,18
869,16	1290,22
869,33	1271,79
869,50	1316,84
869,66	1202,16
869,83	1363,95
870,00	1216,49
870,16	1257,45
870,33	1249,26
870,50	1261,55
870,66	1277,93
870,83	1273,84
871,00	1210,35
871,17	1335,28
871,33	1236,97
871,50	1265,64
871,67	1257,45
871,83	1193,97
872,00	1298,41
872,17	1269,74
872,33	1298,41
872,50	1316,84
872,67	1206,25
872,83	1282,03
873,00	1306,60
873,17	1236,97
873,33	1322,99
873,50	1222,64
873,67	1257,45
873,83	1273,84
874,00	1249,26
874,16	1234,93
874,33	1247,21
874,50	1271,79
874,66	1288,17
874,83	1277,93
875,00	1226,73
875,16	1175,53
875,33	1343,47
875,50	1269,74
875,66	1265,64
875,83	1245,16
875,99	1218,54
876,16	1265,64
876,33	1247,21
876,49	1243,12
876,66	1306,60
876,83	1263,60
876,99	1247,21
877,16	1337,32
877,32	1226,73
877,49	1247,21
877,66	1236,97
877,82	1263,60
877,99	1318,89
878,15	1288,17
878,32	1308,65
878,49	1327,08
878,65	1279,98
878,82	1236,97
878,98	1320,94
879,15	1296,36
879,32	1314,80
879,48	1296,36
879,65	1257,45
879,81	1263,60
879,98	1257,45
880,15	1212,40
880,31	1206,25
880,48	1265,64
880,64	1230,83
880,81	1331,18
880,97	1310,70
881,14	1222,64
881,31	1294,32
881,47	1302,51
881,64	1292,27
881,80	1224,69
881,97	1245,16
882,13	1288,17
882,30	1267,69
882,47	1329,13
882,63	1277,93
882,80	1230,83
882,96	1279,98
883,13	1255,40
883,29	1312,75
883,46	1296,36
883,62	1284,08
883,79	1236,97
883,95	1228,78
884,12	1255,40
884,29	1253,36
884,45	1222,64
884,62	1234,93
884,78	1236,97
884,95	1331,18
885,11	1296,36
885,28	1259,50
885,44	1294,32
885,61	1214,45
885,77	1212,40
885,94	1263,60
886,10	1339,37
886,27	1234,93
886,43	1271,79
886,60	1224,69
886,76	1300,46
886,93	1241,07
887,09	1196,01
887,26	1269,74
887,42	1325,04
887,59	1253,36
887,75	1232,88
887,92	1228,78
888,08	1157,10
888,25	1322,99
888,41	1345,52
888,58	1261,55
888,74	1288,17
888,91	1251,31
>>>>>End Processed Spectral Data<<<<<
