SpectraSuite Data File
++++++++++++++++++++++++++++++++++++
Date: Sun Apr 03 15:29:04 CEST 2016
User: root
Dark Spectrum Present: No
Reference Spectrum Present: No
Number of Sampled Component Spectra: 1
Spectrometers: USB4C02835
Integration Time (usec): 10000 (USB4C02835)
Spectra Averaged: 1 (USB4C02835)
Boxcar Smoothing: 0 (USB4C02835)
Correct for Electrical Dark: No (USB4C02835)
Strobe/Lamp Enabled: No (USB4C02835)
Correct for Detector Non-linearity: No (USB4C02835)
Correct for Stray Light: No (USB4C02835)
Number of Pixels in Processed Spectrum: 3648
>>>>>Begin Processed Spectral Data<<<<<
177,47	1269,74
177,69	1269,74
177,91	1269,74
178,13	1277,93
178,36	1183,73
178,58	1273,84
178,80	1214,45
179,02	1228,78
179,24	1245,16
179,46	1282,03
179,68	1396,71
179,90	1269,74
180,13	1331,18
180,35	1298,41
180,57	1286,12
180,79	1253,36
181,01	1314,80
181,23	1269,74
181,45	1308,65
181,67	1208,30
181,90	1232,88
182,12	1236,97
182,34	1243,12
182,56	1247,21
182,78	1257,45
183,00	1277,93
183,22	1392,62
183,44	1273,84
183,66	1351,66
183,89	1329,13
184,11	1241,07
184,33	1239,02
184,55	1286,12
184,77	1277,93
184,99	1212,40
185,21	1279,98
185,43	1279,98
185,65	1234,93
185,87	1216,49
186,10	1247,21
186,32	1282,03
186,54	1226,73
186,76	1249,26
186,98	1173,49
187,20	1300,46
187,42	1255,40
187,64	1343,47
187,86	1302,51
188,08	1277,93
188,30	1239,02
188,52	1271,79
188,75	1241,07
188,97	1208,30
189,19	1310,70
189,41	1329,13
189,63	1245,16
189,85	1302,51
190,07	1263,60
190,29	1249,26
190,51	1271,79
190,73	1298,41
190,95	1230,83
191,17	1241,07
191,39	1288,17
191,61	1236,97
191,84	1163,25
192,06	1290,22
192,28	1273,84
192,50	1284,08
192,72	1200,11
192,94	1265,64
193,16	1259,50
193,38	1277,93
193,60	1222,64
193,82	1322,99
194,04	1265,64
194,26	1169,39
194,48	1271,79
194,70	1267,69
194,92	1263,60
195,14	1288,17
195,36	1263,60
195,58	1236,97
195,80	1259,50
196,02	1226,73
196,24	1314,80
196,46	1224,69
196,69	1224,69
196,91	1200,11
197,13	1226,73
197,35	1300,46
197,57	1253,36
197,79	1282,03
198,01	1224,69
198,23	1261,55
198,45	1216,49
198,67	1316,84
198,89	1255,40
199,11	1255,40
199,33	1261,55
199,55	1265,64
199,77	1300,46
199,99	1191,92
200,21	1187,82
200,43	1187,82
200,65	1206,25
200,87	1239,02
201,09	1286,12
201,31	1282,03
201,53	1327,08
201,75	1279,98
201,97	1249,26
202,19	1282,03
202,41	1282,03
202,63	1261,55
202,85	1282,03
203,07	1224,69
203,29	1212,40
203,51	1284,08
203,73	1282,03
203,95	1296,36
204,17	1175,53
204,39	1249,26
204,61	1228,78
204,83	1288,17
205,05	1259,50
205,27	1228,78
205,49	1300,46
205,71	1255,40
205,93	1222,64
206,15	1243,12
206,37	1257,45
206,59	1263,60
206,81	1261,55
207,03	1259,50
207,25	1316,84
207,47	1284,08
207,69	1236,97
207,91	1271,79
208,13	1337,32
208,34	1292,27
208,56	1247,21
208,78	1202,16
209,00	1306,60
209,22	1257,45
209,44	1298,41
209,66	1279,98
209,88	1349,61
210,10	1208,30
210,32	1288,17
210,54	1196,01
210,76	1296,36
210,98	1267,69
211,20	1269,74
211,42	1296,36
211,64	1249,26
211,86	1292,27
212,08	1228,78
212,30	1294,32
212,52	1261,55
212,74	1279,98
212,96	1329,13
213,17	1247,21
213,39	1232,88
213,61	1308,65
213,83	1200,11
214,05	1292,27
214,27	1255,40
214,49	1271,79
214,71	1269,74
214,93	1273,84
215,15	1267,69
215,37	1282,03
215,59	1216,49
215,81	1306,60
216,03	1226,73
216,24	1302,51
216,46	1243,12
216,68	1333,23
216,90	1329,13
217,12	1370,09
217,34	1247,21
217,56	1273,84
217,78	1226,73
218,00	1277,93
218,22	1308,65
218,44	1271,79
218,66	1290,22
218,87	1380,33
219,09	1263,60
219,31	1308,65
219,53	1325,04
219,75	1314,80
219,97	1331,18
220,19	1282,03
220,41	1247,21
220,63	1230,83
220,85	1218,54
221,06	1312,75
221,28	1282,03
221,50	1322,99
221,72	1294,32
221,94	1208,30
222,16	1257,45
222,38	1257,45
222,60	1312,75
222,82	1282,03
223,03	1232,88
223,25	1261,55
223,47	1253,36
223,69	1322,99
223,91	1241,07
224,13	1267,69
224,35	1294,32
224,57	1290,22
224,78	1288,17
225,00	1273,84
225,22	1273,84
225,44	1333,23
225,66	1253,36
225,88	1230,83
226,10	1284,08
226,32	1335,28
226,53	1282,03
226,75	1232,88
226,97	1224,69
227,19	1216,49
227,41	1261,55
227,63	1322,99
227,85	1243,12
228,06	1290,22
228,28	1304,56
228,50	1380,33
228,72	1243,12
228,94	1296,36
229,16	1286,12
229,37	1230,83
229,59	1236,97
229,81	1253,36
230,03	1277,93
230,25	1245,16
230,47	1245,16
230,69	1284,08
230,90	1284,08
231,12	1257,45
231,34	1286,12
231,56	1214,45
231,78	1290,22
232,00	1259,50
232,21	1253,36
232,43	1306,60
232,65	1263,60
232,87	1269,74
233,09	1282,03
233,30	1335,28
233,52	1331,18
233,74	1241,07
233,96	1273,84
234,18	1302,51
234,40	1224,69
234,61	1296,36
234,83	1239,02
235,05	1284,08
235,27	1265,64
235,49	1310,70
235,70	1212,40
235,92	1331,18
236,14	1271,79
236,36	1271,79
236,58	1261,55
236,79	1257,45
237,01	1294,32
237,23	1290,22
237,45	1318,89
237,67	1265,64
237,88	1259,50
238,10	1183,73
238,32	1300,46
238,54	1335,28
238,76	1298,41
238,97	1282,03
239,19	1318,89
239,41	1253,36
239,63	1220,59
239,85	1189,87
240,06	1286,12
240,28	1308,65
240,50	1327,08
240,72	1300,46
240,93	1273,84
241,15	1290,22
241,37	1214,45
241,59	1277,93
241,81	1216,49
242,02	1261,55
242,24	1370,09
242,46	1327,08
242,68	1208,30
242,89	1224,69
243,11	1271,79
243,33	1288,17
243,55	1212,40
243,76	1296,36
243,98	1271,79
244,20	1185,77
244,42	1294,32
244,64	1177,58
244,85	1273,84
245,07	1302,51
245,29	1290,22
245,51	1243,12
245,72	1241,07
245,94	1304,56
246,16	1277,93
246,38	1222,64
246,59	1257,45
246,81	1308,65
247,03	1208,30
247,24	1333,23
247,46	1271,79
247,68	1339,37
247,90	1308,65
248,11	1255,40
248,33	1279,98
248,55	1273,84
248,77	1353,71
248,98	1292,27
249,20	1218,54
249,42	1245,16
249,64	1265,64
249,85	1269,74
250,07	1329,13
250,29	1312,75
250,50	1282,03
250,72	1251,31
250,94	1306,60
251,16	1325,04
251,37	1366,00
251,59	1261,55
251,81	1263,60
252,02	1306,60
252,24	1224,69
252,46	1275,88
252,68	1251,31
252,89	1288,17
253,11	1335,28
253,33	1286,12
253,54	1294,32
253,76	1322,99
253,98	1341,42
254,20	1296,36
254,41	1245,16
254,63	1282,03
254,85	1230,83
255,06	1294,32
255,28	1275,88
255,50	1216,49
255,71	1306,60
255,93	1286,12
256,15	1220,59
256,36	1253,36
256,58	1304,56
256,80	1335,28
257,02	1345,52
257,23	1212,40
257,45	1355,76
257,67	1241,07
257,88	1226,73
258,10	1288,17
258,32	1228,78
258,53	1247,21
258,75	1255,40
258,97	1253,36
259,18	1279,98
259,40	1296,36
259,62	1347,56
259,83	1239,02
260,05	1263,60
260,27	1310,70
260,48	1241,07
260,70	1269,74
260,92	1263,60
261,13	1263,60
261,35	1304,56
261,57	1294,32
261,78	1230,83
262,00	1331,18
262,22	1261,55
262,43	1282,03
262,65	1204,21
262,86	1312,75
263,08	1187,82
263,30	1288,17
263,51	1267,69
263,73	1312,75
263,95	1257,45
264,16	1273,84
264,38	1210,35
264,60	1249,26
264,81	1226,73
265,03	1220,59
265,25	1331,18
265,46	1236,97
265,68	1251,31
265,89	1241,07
266,11	1232,88
266,33	1298,41
266,54	1290,22
266,76	1232,88
266,98	1282,03
267,19	1308,65
267,41	1261,55
267,62	1337,32
267,84	1335,28
268,06	1329,13
268,27	1288,17
268,49	1222,64
268,70	1343,47
268,92	1253,36
269,14	1271,79
269,35	1314,80
269,57	1290,22
269,79	1298,41
270,00	1236,97
270,22	1316,84
270,43	1236,97
270,65	1247,21
270,87	1236,97
271,08	1310,70
271,30	1284,08
271,51	1275,88
271,73	1247,21
271,95	1308,65
272,16	1273,84
272,38	1212,40
272,59	1292,27
272,81	1241,07
273,02	1302,51
273,24	1337,32
273,46	1247,21
273,67	1249,26
273,89	1236,97
274,10	1345,52
274,32	1325,04
274,54	1380,33
274,75	1204,21
274,97	1224,69
275,18	1294,32
275,40	1206,25
275,61	1228,78
275,83	1206,25
276,05	1300,46
276,26	1249,26
276,48	1316,84
276,69	1331,18
276,91	1322,99
277,12	1300,46
277,34	1329,13
277,55	1320,94
277,77	1251,31
277,99	1232,88
278,20	1253,36
278,42	1265,64
278,63	1222,64
278,85	1312,75
279,06	1228,78
279,28	1304,56
279,49	1290,22
279,71	1255,40
279,93	1314,80
280,14	1234,93
280,36	1232,88
280,57	1286,12
280,79	1298,41
281,00	1243,12
281,22	1183,73
281,43	1290,22
281,65	1214,45
281,86	1265,64
282,08	1245,16
282,29	1314,80
282,51	1277,93
282,73	1251,31
282,94	1198,06
283,16	1232,88
283,37	1322,99
283,59	1294,32
283,80	1202,16
284,02	1269,74
284,23	1245,16
284,45	1196,01
284,66	1222,64
284,88	1249,26
285,09	1282,03
285,31	1302,51
285,52	1261,55
285,74	1312,75
285,95	1353,71
286,17	1234,93
286,38	1243,12
286,60	1286,12
286,81	1343,47
287,03	1263,60
287,24	1267,69
287,46	1279,98
287,67	1228,78
287,89	1351,66
288,10	1267,69
288,32	1259,50
288,53	1271,79
288,75	1216,49
288,96	1368,04
289,18	1296,36
289,39	1298,41
289,61	1333,23
289,82	1339,37
290,04	1312,75
290,25	1296,36
290,47	1279,98
290,68	1265,64
290,90	1290,22
291,11	1245,16
291,33	1191,92
291,54	1259,50
291,76	1277,93
291,97	1286,12
292,18	1318,89
292,40	1253,36
292,61	1222,64
292,83	1243,12
293,04	1308,65
293,26	1232,88
293,47	1275,88
293,69	1277,93
293,90	1335,28
294,12	1263,60
294,33	1318,89
294,55	1253,36
294,76	1282,03
294,97	1310,70
295,19	1277,93
295,40	1282,03
295,62	1290,22
295,83	1314,80
296,05	1243,12
296,26	1232,88
296,48	1302,51
296,69	1251,31
296,90	1198,06
297,12	1279,98
297,33	1286,12
297,55	1214,45
297,76	1226,73
297,98	1214,45
298,19	1218,54
298,41	1208,30
298,62	1341,42
298,83	1294,32
299,05	1320,94
299,26	1232,88
299,48	1263,60
299,69	1249,26
299,90	1271,79
300,12	1265,64
300,33	1259,50
300,55	1267,69
300,76	1232,88
300,98	1222,64
301,19	1226,73
301,40	1245,16
301,62	1275,88
301,83	1239,02
302,05	1322,99
302,26	1277,93
302,47	1265,64
302,69	1259,50
302,90	1300,46
303,12	1241,07
303,33	1259,50
303,54	1296,36
303,76	1298,41
303,97	1335,28
304,19	1230,83
304,40	1243,12
304,61	1243,12
304,83	1263,60
305,04	1318,89
305,26	1296,36
305,47	1247,21
305,68	1218,54
305,90	1284,08
306,11	1296,36
306,33	1222,64
306,54	1216,49
306,75	1286,12
306,97	1232,88
307,18	1284,08
307,39	1318,89
307,61	1265,64
307,82	1277,93
308,04	1214,45
308,25	1335,28
308,46	1273,84
308,68	1288,17
308,89	1282,03
309,10	1204,21
309,32	1306,60
309,53	1177,58
309,74	1273,84
309,96	1333,23
310,17	1224,69
310,39	1300,46
310,60	1282,03
310,81	1261,55
311,03	1249,26
311,24	1292,27
311,45	1335,28
311,67	1241,07
311,88	1265,64
312,09	1275,88
312,31	1298,41
312,52	1296,36
312,73	1288,17
312,95	1226,73
313,16	1243,12
313,37	1345,52
313,59	1234,93
313,80	1345,52
314,01	1361,90
314,23	1267,69
314,44	1345,52
314,65	1181,68
314,87	1241,07
315,08	1269,74
315,29	1306,60
315,51	1234,93
315,72	1343,47
315,93	1208,30
316,15	1288,17
316,36	1214,45
316,57	1255,40
316,79	1214,45
317,00	1234,93
317,21	1204,21
317,43	1239,02
317,64	1292,27
317,85	1265,64
318,07	1312,75
318,28	1290,22
318,49	1202,16
318,70	1232,88
318,92	1206,25
319,13	1241,07
319,34	1343,47
319,56	1228,78
319,77	1216,49
319,98	1241,07
320,20	1279,98
320,41	1230,83
320,62	1228,78
320,83	1249,26
321,05	1302,51
321,26	1294,32
321,47	1282,03
321,69	1265,64
321,90	1263,60
322,11	1288,17
322,32	1191,92
322,54	1265,64
322,75	1230,83
322,96	1290,22
323,18	1241,07
323,39	1239,02
323,60	1234,93
323,81	1318,89
324,03	1271,79
324,24	1259,50
324,45	1208,30
324,66	1169,39
324,88	1265,64
325,09	1288,17
325,30	1232,88
325,52	1279,98
325,73	1249,26
325,94	1236,97
326,15	1277,93
326,37	1255,40
326,58	1255,40
326,79	1259,50
327,00	1282,03
327,22	1288,17
327,43	1292,27
327,64	1263,60
327,85	1210,35
328,07	1255,40
328,28	1298,41
328,49	1216,49
328,70	1327,08
328,92	1216,49
329,13	1265,64
329,34	1273,84
329,55	1255,40
329,76	1236,97
329,98	1271,79
330,19	1253,36
330,40	1269,74
330,61	1331,18
330,83	1273,84
331,04	1175,53
331,25	1224,69
331,46	1331,18
331,68	1284,08
331,89	1198,06
332,10	1247,21
332,31	1331,18
332,52	1243,12
332,74	1329,13
332,95	1220,59
333,16	1267,69
333,37	1273,84
333,58	1288,17
333,80	1259,50
334,01	1275,88
334,22	1249,26
334,43	1335,28
334,64	1216,49
334,86	1279,98
335,07	1202,16
335,28	1296,36
335,49	1241,07
335,70	1220,59
335,92	1277,93
336,13	1187,82
336,34	1308,65
336,55	1292,27
336,76	1243,12
336,98	1243,12
337,19	1308,65
337,40	1300,46
337,61	1322,99
337,82	1304,56
338,04	1257,45
338,25	1261,55
338,46	1193,97
338,67	1230,83
338,88	1284,08
339,09	1316,84
339,31	1228,78
339,52	1267,69
339,73	1339,37
339,94	1189,87
340,15	1294,32
340,36	1298,41
340,58	1247,21
340,79	1236,97
341,00	1304,56
341,21	1216,49
341,42	1282,03
341,63	1284,08
341,85	1253,36
342,06	1294,32
342,27	1322,99
342,48	1241,07
342,69	1310,70
342,90	1345,52
343,12	1261,55
343,33	1241,07
343,54	1218,54
343,75	1302,51
343,96	1349,61
344,17	1224,69
344,38	1273,84
344,60	1224,69
344,81	1263,60
345,02	1333,23
345,23	1277,93
345,44	1271,79
345,65	1265,64
345,86	1269,74
346,07	1292,27
346,29	1292,27
346,50	1220,59
346,71	1316,84
346,92	1294,32
347,13	1322,99
347,34	1214,45
347,55	1259,50
347,76	1288,17
347,98	1267,69
348,19	1277,93
348,40	1249,26
348,61	1269,74
348,82	1247,21
349,03	1310,70
349,24	1253,36
349,45	1394,67
349,66	1239,02
349,88	1253,36
350,09	1337,32
350,30	1288,17
350,51	1288,17
350,72	1314,80
350,93	1200,11
351,14	1200,11
351,35	1349,61
351,56	1218,54
351,77	1292,27
351,99	1290,22
352,20	1253,36
352,41	1257,45
352,62	1294,32
352,83	1261,55
353,04	1304,56
353,25	1226,73
353,46	1353,71
353,67	1234,93
353,88	1273,84
354,09	1251,31
354,30	1333,23
354,52	1292,27
354,73	1263,60
354,94	1224,69
355,15	1198,06
355,36	1277,93
355,57	1318,89
355,78	1331,18
355,99	1241,07
356,20	1265,64
356,41	1318,89
356,62	1288,17
356,83	1361,90
357,04	1294,32
357,25	1279,98
357,46	1302,51
357,68	1288,17
357,89	1183,73
358,10	1284,08
358,31	1327,08
358,52	1327,08
358,73	1286,12
358,94	1353,71
359,15	1257,45
359,36	1310,70
359,57	1245,16
359,78	1302,51
359,99	1253,36
360,20	1318,89
360,41	1269,74
360,62	1302,51
360,83	1290,22
361,04	1296,36
361,25	1322,99
361,46	1257,45
361,67	1284,08
361,88	1187,82
362,09	1284,08
362,30	1288,17
362,51	1245,16
362,72	1304,56
362,93	1261,55
363,14	1304,56
363,35	1271,79
363,56	1216,49
363,78	1259,50
363,99	1200,11
364,20	1265,64
364,41	1308,65
364,62	1263,60
364,83	1263,60
365,04	1286,12
365,25	1314,80
365,46	1249,26
365,67	1247,21
365,88	1284,08
366,09	1273,84
366,30	1236,97
366,51	1243,12
366,72	1271,79
366,93	1298,41
367,14	1333,23
367,35	1300,46
367,56	1212,40
367,77	1294,32
367,98	1269,74
368,18	1275,88
368,39	1269,74
368,60	1290,22
368,81	1282,03
369,02	1345,52
369,23	1241,07
369,44	1230,83
369,65	1216,49
369,86	1261,55
370,07	1331,18
370,28	1187,82
370,49	1279,98
370,70	1282,03
370,91	1196,01
371,12	1310,70
371,33	1298,41
371,54	1230,83
371,75	1234,93
371,96	1286,12
372,17	1322,99
372,38	1257,45
372,59	1345,52
372,80	1325,04
373,01	1265,64
373,22	1232,88
373,43	1380,33
373,64	1249,26
373,85	1265,64
374,06	1267,69
374,26	1224,69
374,47	1325,04
374,68	1263,60
374,89	1306,60
375,10	1239,02
375,31	1253,36
375,52	1251,31
375,73	1263,60
375,94	1257,45
376,15	1279,98
376,36	1327,08
376,57	1288,17
376,78	1273,84
376,99	1282,03
377,20	1228,78
377,40	1232,88
377,61	1345,52
377,82	1277,93
378,03	1275,88
378,24	1251,31
378,45	1273,84
378,66	1232,88
378,87	1273,84
379,08	1298,41
379,29	1269,74
379,50	1259,50
379,71	1263,60
379,91	1316,84
380,12	1318,89
380,33	1277,93
380,54	1320,94
380,75	1314,80
380,96	1239,02
381,17	1269,74
381,38	1277,93
381,59	1251,31
381,80	1331,18
382,00	1337,32
382,21	1322,99
382,42	1320,94
382,63	1310,70
382,84	1271,79
383,05	1226,73
383,26	1255,40
383,47	1269,74
383,68	1292,27
383,88	1253,36
384,09	1275,88
384,30	1294,32
384,51	1325,04
384,72	1290,22
384,93	1363,95
385,14	1294,32
385,35	1312,75
385,55	1269,74
385,76	1284,08
385,97	1290,22
386,18	1245,16
386,39	1296,36
386,60	1255,40
386,81	1181,68
387,02	1261,55
387,22	1325,04
387,43	1228,78
387,64	1257,45
387,85	1308,65
388,06	1288,17
388,27	1351,66
388,48	1232,88
388,68	1247,21
388,89	1247,21
389,10	1220,59
389,31	1200,11
389,52	1222,64
389,73	1255,40
389,93	1255,40
390,14	1253,36
390,35	1282,03
390,56	1306,60
390,77	1210,35
390,98	1279,98
391,18	1308,65
391,39	1271,79
391,60	1300,46
391,81	1316,84
392,02	1279,98
392,23	1316,84
392,43	1275,88
392,64	1296,36
392,85	1263,60
393,06	1327,08
393,27	1298,41
393,47	1214,45
393,68	1257,45
393,89	1226,73
394,10	1263,60
394,31	1208,30
394,52	1230,83
394,72	1234,93
394,93	1310,70
395,14	1277,93
395,35	1232,88
395,56	1212,40
395,76	1302,51
395,97	1282,03
396,18	1249,26
396,39	1224,69
396,60	1255,40
396,80	1257,45
397,01	1298,41
397,22	1271,79
397,43	1265,64
397,64	1300,46
397,84	1318,89
398,05	1316,84
398,26	1255,40
398,47	1241,07
398,67	1255,40
398,88	1214,45
399,09	1320,94
399,30	1316,84
399,51	1275,88
399,71	1298,41
399,92	1316,84
400,13	1290,22
400,34	1286,12
400,54	1257,45
400,75	1300,46
400,96	1245,16
401,17	1253,36
401,37	1304,56
401,58	1294,32
401,79	1265,64
402,00	1239,02
402,21	1253,36
402,41	1232,88
402,62	1273,84
402,83	1249,26
403,04	1236,97
403,24	1290,22
403,45	1263,60
403,66	1320,94
403,87	1298,41
404,07	1292,27
404,28	1292,27
404,49	1255,40
404,70	1222,64
404,90	1265,64
405,11	1247,21
405,32	1261,55
405,52	1210,35
405,73	1296,36
405,94	1255,40
406,15	1273,84
406,35	1200,11
406,56	1302,51
406,77	1279,98
406,98	1296,36
407,18	1236,97
407,39	1306,60
407,60	1277,93
407,80	1275,88
408,01	1257,45
408,22	1304,56
408,43	1249,26
408,63	1316,84
408,84	1282,03
409,05	1198,06
409,25	1241,07
409,46	1241,07
409,67	1294,32
409,88	1296,36
410,08	1218,54
410,29	1327,08
410,50	1230,83
410,70	1271,79
410,91	1304,56
411,12	1275,88
411,32	1306,60
411,53	1269,74
411,74	1302,51
411,95	1288,17
412,15	1206,25
412,36	1202,16
412,57	1298,41
412,77	1269,74
412,98	1304,56
413,19	1304,56
413,39	1341,42
413,60	1302,51
413,81	1273,84
414,01	1271,79
414,22	1247,21
414,43	1249,26
414,63	1298,41
414,84	1343,47
415,05	1298,41
415,25	1245,16
415,46	1224,69
415,67	1269,74
415,87	1322,99
416,08	1239,02
416,29	1290,22
416,49	1212,40
416,70	1255,40
416,91	1228,78
417,11	1267,69
417,32	1255,40
417,53	1275,88
417,73	1259,50
417,94	1261,55
418,15	1183,73
418,35	1228,78
418,56	1294,32
418,77	1304,56
418,97	1288,17
419,18	1310,70
419,38	1257,45
419,59	1282,03
419,80	1331,18
420,00	1298,41
420,21	1349,61
420,42	1265,64
420,62	1298,41
420,83	1302,51
421,04	1327,08
421,24	1216,49
421,45	1288,17
421,65	1277,93
421,86	1314,80
422,07	1353,71
422,27	1271,79
422,48	1310,70
422,69	1259,50
422,89	1402,86
423,10	1177,58
423,30	1253,36
423,51	1269,74
423,72	1228,78
423,92	1259,50
424,13	1249,26
424,33	1288,17
424,54	1290,22
424,75	1282,03
424,95	1312,75
425,16	1306,60
425,36	1318,89
425,57	1406,95
425,78	1257,45
425,98	1347,56
426,19	1318,89
426,39	1327,08
426,60	1249,26
426,81	1265,64
427,01	1214,45
427,22	1304,56
427,42	1249,26
427,63	1290,22
427,83	1236,97
428,04	1249,26
428,25	1181,68
428,45	1290,22
428,66	1267,69
428,86	1265,64
429,07	1306,60
429,28	1273,84
429,48	1271,79
429,69	1345,52
429,89	1159,15
430,10	1277,93
430,30	1249,26
430,51	1275,88
430,71	1243,12
430,92	1265,64
431,13	1230,83
431,33	1196,01
431,54	1267,69
431,74	1290,22
431,95	1210,35
432,15	1294,32
432,36	1269,74
432,56	1269,74
432,77	1329,13
432,98	1257,45
433,18	1306,60
433,39	1261,55
433,59	1314,80
433,80	1265,64
434,00	1277,93
434,21	1298,41
434,41	1241,07
434,62	1196,01
434,82	1247,21
435,03	1269,74
435,23	1173,49
435,44	1296,36
435,64	1316,84
435,85	1261,55
436,06	1284,08
436,26	1286,12
436,47	1261,55
436,67	1265,64
436,88	1265,64
437,08	1261,55
437,29	1236,97
437,49	1282,03
437,70	1331,18
437,90	1314,80
438,11	1261,55
438,31	1298,41
438,52	1216,49
438,72	1243,12
438,93	1228,78
439,13	1255,40
439,34	1220,59
439,54	1226,73
439,75	1314,80
439,95	1255,40
440,16	1288,17
440,36	1304,56
440,57	1279,98
440,77	1288,17
440,98	1191,92
441,18	1251,31
441,39	1275,88
441,59	1286,12
441,80	1282,03
442,00	1292,27
442,21	1298,41
442,41	1298,41
442,62	1271,79
442,82	1261,55
443,02	1257,45
443,23	1288,17
443,43	1259,50
443,64	1241,07
443,84	1200,11
444,05	1279,98
444,25	1294,32
444,46	1210,35
444,66	1232,88
444,87	1222,64
445,07	1273,84
445,28	1236,97
445,48	1398,76
445,69	1279,98
445,89	1247,21
446,09	1296,36
446,30	1251,31
446,50	1220,59
446,71	1271,79
446,91	1265,64
447,12	1290,22
447,32	1341,42
447,53	1331,18
447,73	1251,31
447,93	1228,78
448,14	1245,16
448,34	1292,27
448,55	1230,83
448,75	1265,64
448,96	1275,88
449,16	1290,22
449,36	1265,64
449,57	1212,40
449,77	1271,79
449,98	1277,93
450,18	1279,98
450,39	1298,41
450,59	1290,22
450,79	1314,80
451,00	1234,93
451,20	1310,70
451,41	1269,74
451,61	1308,65
451,81	1239,02
452,02	1228,78
452,22	1327,08
452,43	1277,93
452,63	1279,98
452,84	1269,74
453,04	1314,80
453,24	1245,16
453,45	1247,21
453,65	1288,17
453,86	1243,12
454,06	1214,45
454,26	1349,61
454,47	1296,36
454,67	1284,08
454,87	1206,25
455,08	1269,74
455,28	1243,12
455,49	1271,79
455,69	1310,70
455,89	1308,65
456,10	1220,59
456,30	1265,64
456,51	1300,46
456,71	1265,64
456,91	1277,93
457,12	1273,84
457,32	1290,22
457,52	1243,12
457,73	1157,10
457,93	1243,12
458,14	1220,59
458,34	1279,98
458,54	1243,12
458,75	1257,45
458,95	1222,64
459,15	1271,79
459,36	1236,97
459,56	1320,94
459,76	1245,16
459,97	1236,97
460,17	1300,46
460,37	1298,41
460,58	1300,46
460,78	1308,65
460,99	1277,93
461,19	1290,22
461,39	1214,45
461,60	1273,84
461,80	1228,78
462,00	1255,40
462,21	1204,21
462,41	1222,64
462,61	1271,79
462,82	1198,06
463,02	1251,31
463,22	1314,80
463,43	1253,36
463,63	1251,31
463,83	1253,36
464,04	1247,21
464,24	1300,46
464,44	1202,16
464,64	1200,11
464,85	1228,78
465,05	1198,06
465,25	1249,26
465,46	1218,54
465,66	1249,26
465,86	1277,93
466,07	1202,16
466,27	1288,17
466,47	1249,26
466,68	1269,74
466,88	1290,22
467,08	1282,03
467,29	1288,17
467,49	1124,33
467,69	1251,31
467,89	1198,06
468,10	1327,08
468,30	1202,16
468,50	1247,21
468,71	1273,84
468,91	1380,33
469,11	1322,99
469,31	1251,31
469,52	1306,60
469,72	1273,84
469,92	1224,69
470,13	1277,93
470,33	1277,93
470,53	1277,93
470,73	1282,03
470,94	1331,18
471,14	1247,21
471,34	1253,36
471,54	1224,69
471,75	1288,17
471,95	1234,93
472,15	1204,21
472,36	1234,93
472,56	1298,41
472,76	1257,45
472,96	1265,64
473,17	1241,07
473,37	1253,36
473,57	1279,98
473,77	1263,60
473,98	1249,26
474,18	1267,69
474,38	1294,32
474,58	1247,21
474,79	1312,75
474,99	1261,55
475,19	1331,18
475,39	1273,84
475,60	1279,98
475,80	1298,41
476,00	1253,36
476,20	1292,27
476,41	1277,93
476,61	1310,70
476,81	1224,69
477,01	1234,93
477,21	1298,41
477,42	1310,70
477,62	1239,02
477,82	1304,56
478,02	1265,64
478,23	1224,69
478,43	1327,08
478,63	1245,16
478,83	1255,40
479,03	1279,98
479,24	1296,36
479,44	1298,41
479,64	1257,45
479,84	1322,99
480,04	1282,03
480,25	1302,51
480,45	1245,16
480,65	1249,26
480,85	1286,12
481,06	1271,79
481,26	1396,71
481,46	1296,36
481,66	1222,64
481,86	1290,22
482,06	1257,45
482,27	1226,73
482,47	1286,12
482,67	1261,55
482,87	1351,66
483,07	1290,22
483,28	1296,36
483,48	1271,79
483,68	1296,36
483,88	1193,97
484,08	1249,26
484,29	1243,12
484,49	1261,55
484,69	1259,50
484,89	1312,75
485,09	1290,22
485,29	1282,03
485,50	1222,64
485,70	1251,31
485,90	1343,47
486,10	1290,22
486,30	1259,50
486,50	1294,32
486,71	1228,78
486,91	1269,74
487,11	1271,79
487,31	1193,97
487,51	1267,69
487,71	1253,36
487,91	1290,22
488,12	1208,30
488,32	1218,54
488,52	1220,59
488,72	1234,93
488,92	1263,60
489,12	1306,60
489,32	1294,32
489,53	1255,40
489,73	1224,69
489,93	1218,54
490,13	1249,26
490,33	1255,40
490,53	1118,19
490,73	1294,32
490,94	1259,50
491,14	1306,60
491,34	1271,79
491,54	1310,70
491,74	1304,56
491,94	1308,65
492,14	1271,79
492,34	1310,70
492,54	1230,83
492,75	1263,60
492,95	1241,07
493,15	1306,60
493,35	1290,22
493,55	1333,23
493,75	1294,32
493,95	1312,75
494,15	1298,41
494,35	1263,60
494,56	1263,60
494,76	1267,69
494,96	1347,56
495,16	1249,26
495,36	1314,80
495,56	1269,74
495,76	1206,25
495,96	1314,80
496,16	1343,47
496,36	1339,37
496,56	1232,88
496,77	1284,08
496,97	1322,99
497,17	1239,02
497,37	1198,06
497,57	1310,70
497,77	1230,83
497,97	1298,41
498,17	1290,22
498,37	1218,54
498,57	1267,69
498,77	1306,60
498,97	1251,31
499,17	1267,69
499,38	1232,88
499,58	1310,70
499,78	1316,84
499,98	1372,14
500,18	1300,46
500,38	1241,07
500,58	1320,94
500,78	1216,49
500,98	1279,98
501,18	1296,36
501,38	1261,55
501,58	1294,32
501,78	1263,60
501,98	1257,45
502,18	1220,59
502,38	1236,97
502,58	1230,83
502,78	1181,68
502,98	1251,31
503,18	1257,45
503,38	1239,02
503,59	1253,36
503,79	1310,70
503,99	1306,60
504,19	1249,26
504,39	1327,08
504,59	1275,88
504,79	1366,00
504,99	1339,37
505,19	1265,64
505,39	1208,30
505,59	1298,41
505,79	1288,17
505,99	1310,70
506,19	1247,21
506,39	1310,70
506,59	1290,22
506,79	1282,03
506,99	1304,56
507,19	1253,36
507,39	1236,97
507,59	1294,32
507,79	1316,84
507,99	1243,12
508,19	1275,88
508,39	1214,45
508,59	1271,79
508,79	1341,42
508,99	1245,16
509,19	1273,84
509,39	1306,60
509,59	1282,03
509,79	1275,88
509,99	1316,84
510,19	1241,07
510,39	1279,98
510,59	1265,64
510,79	1228,78
510,99	1239,02
511,19	1212,40
511,39	1241,07
511,59	1208,30
511,79	1261,55
511,99	1304,56
512,19	1277,93
512,38	1286,12
512,58	1286,12
512,78	1282,03
512,98	1263,60
513,18	1273,84
513,38	1279,98
513,58	1343,47
513,78	1271,79
513,98	1312,75
514,18	1316,84
514,38	1249,26
514,58	1318,89
514,78	1273,84
514,98	1234,93
515,18	1247,21
515,38	1286,12
515,58	1263,60
515,78	1290,22
515,98	1310,70
516,18	1279,98
516,38	1241,07
516,57	1200,11
516,77	1226,73
516,97	1245,16
517,17	1202,16
517,37	1173,49
517,57	1318,89
517,77	1236,97
517,97	1314,80
518,17	1191,92
518,37	1294,32
518,57	1310,70
518,77	1255,40
518,97	1218,54
519,16	1286,12
519,36	1288,17
519,56	1247,21
519,76	1257,45
519,96	1310,70
520,16	1239,02
520,36	1271,79
520,56	1331,18
520,76	1234,93
520,96	1308,65
521,16	1298,41
521,35	1322,99
521,55	1255,40
521,75	1296,36
521,95	1210,35
522,15	1230,83
522,35	1259,50
522,55	1261,55
522,75	1249,26
522,95	1292,27
523,14	1322,99
523,34	1226,73
523,54	1259,50
523,74	1302,51
523,94	1206,25
524,14	1269,74
524,34	1245,16
524,54	1257,45
524,73	1296,36
524,93	1279,98
525,13	1331,18
525,33	1269,74
525,53	1222,64
525,73	1277,93
525,93	1232,88
526,13	1263,60
526,32	1255,40
526,52	1226,73
526,72	1239,02
526,92	1320,94
527,12	1300,46
527,32	1196,01
527,52	1296,36
527,71	1331,18
527,91	1294,32
528,11	1288,17
528,31	1296,36
528,51	1306,60
528,71	1339,37
528,90	1273,84
529,10	1239,02
529,30	1245,16
529,50	1257,45
529,70	1249,26
529,90	1249,26
530,09	1308,65
530,29	1239,02
530,49	1234,93
530,69	1298,41
530,89	1208,30
531,09	1232,88
531,28	1261,55
531,48	1263,60
531,68	1253,36
531,88	1300,46
532,08	1196,01
532,28	1290,22
532,47	1286,12
532,67	1302,51
532,87	1239,02
533,07	1320,94
533,27	1245,16
533,46	1273,84
533,66	1294,32
533,86	1230,83
534,06	1314,80
534,26	1267,69
534,45	1298,41
534,65	1290,22
534,85	1224,69
535,05	1263,60
535,25	1267,69
535,44	1294,32
535,64	1275,88
535,84	1314,80
536,04	1269,74
536,24	1247,21
536,43	1286,12
536,63	1265,64
536,83	1314,80
537,03	1259,50
537,22	1210,35
537,42	1316,84
537,62	1308,65
537,82	1198,06
538,02	1308,65
538,21	1357,80
538,41	1290,22
538,61	1191,92
538,81	1320,94
539,00	1279,98
539,20	1304,56
539,40	1271,79
539,60	1236,97
539,79	1357,80
539,99	1228,78
540,19	1322,99
540,39	1200,11
540,58	1249,26
540,78	1284,08
540,98	1279,98
541,18	1288,17
541,37	1345,52
541,57	1212,40
541,77	1144,81
541,97	1284,08
542,16	1247,21
542,36	1236,97
542,56	1263,60
542,76	1310,70
542,95	1232,88
543,15	1290,22
543,35	1308,65
543,54	1298,41
543,74	1304,56
543,94	1282,03
544,14	1282,03
544,33	1265,64
544,53	1222,64
544,73	1216,49
544,93	1257,45
545,12	1249,26
545,32	1265,64
545,52	1302,51
545,71	1335,28
545,91	1245,16
546,11	1220,59
546,30	1255,40
546,50	1312,75
546,70	1290,22
546,90	1302,51
547,09	1265,64
547,29	1243,12
547,49	1273,84
547,68	1310,70
547,88	1298,41
548,08	1286,12
548,27	1290,22
548,47	1257,45
548,67	1279,98
548,87	1222,64
549,06	1327,08
549,26	1202,16
549,46	1312,75
549,65	1232,88
549,85	1294,32
550,05	1271,79
550,24	1216,49
550,44	1282,03
550,64	1277,93
550,83	1181,68
551,03	1230,83
551,23	1296,36
551,42	1314,80
551,62	1298,41
551,82	1318,89
552,01	1271,79
552,21	1302,51
552,41	1306,60
552,60	1269,74
552,80	1290,22
553,00	1245,16
553,19	1234,93
553,39	1277,93
553,59	1343,47
553,78	1257,45
553,98	1273,84
554,17	1294,32
554,37	1279,98
554,57	1284,08
554,76	1265,64
554,96	1271,79
555,16	1300,46
555,35	1273,84
555,55	1257,45
555,75	1263,60
555,94	1376,24
556,14	1267,69
556,33	1222,64
556,53	1193,97
556,73	1335,28
556,92	1302,51
557,12	1275,88
557,32	1286,12
557,51	1206,25
557,71	1339,37
557,90	1308,65
558,10	1226,73
558,30	1263,60
558,49	1232,88
558,69	1286,12
558,88	1300,46
559,08	1288,17
559,28	1232,88
559,47	1230,83
559,67	1282,03
559,86	1277,93
560,06	1200,11
560,26	1183,73
560,45	1277,93
560,65	1253,36
560,84	1277,93
561,04	1282,03
561,24	1267,69
561,43	1306,60
561,63	1329,13
561,82	1267,69
562,02	1245,16
562,22	1232,88
562,41	1322,99
562,61	1304,56
562,80	1249,26
563,00	1292,27
563,19	1275,88
563,39	1243,12
563,59	1239,02
563,78	1241,07
563,98	1296,36
564,17	1337,32
564,37	1279,98
564,56	1222,64
564,76	1253,36
564,96	1247,21
565,15	1259,50
565,35	1245,16
565,54	1284,08
565,74	1249,26
565,93	1208,30
566,13	1230,83
566,32	1253,36
566,52	1331,18
566,71	1351,66
566,91	1331,18
567,11	1261,55
567,30	1255,40
567,50	1208,30
567,69	1279,98
567,89	1279,98
568,08	1247,21
568,28	1232,88
568,47	1314,80
568,67	1228,78
568,86	1275,88
569,06	1239,02
569,25	1312,75
569,45	1243,12
569,64	1269,74
569,84	1286,12
570,04	1290,22
570,23	1249,26
570,43	1277,93
570,62	1308,65
570,82	1286,12
571,01	1249,26
571,21	1279,98
571,40	1271,79
571,60	1271,79
571,79	1341,42
571,99	1208,30
572,18	1292,27
572,38	1255,40
572,57	1277,93
572,77	1247,21
572,96	1322,99
573,16	1247,21
573,35	1288,17
573,55	1236,97
573,74	1214,45
573,94	1286,12
574,13	1273,84
574,33	1230,83
574,52	1277,93
574,71	1267,69
574,91	1236,97
575,10	1241,07
575,30	1298,41
575,49	1247,21
575,69	1261,55
575,88	1310,70
576,08	1241,07
576,27	1282,03
576,47	1271,79
576,66	1255,40
576,86	1241,07
577,05	1261,55
577,25	1202,16
577,44	1355,76
577,64	1247,21
577,83	1247,21
578,02	1363,95
578,22	1304,56
578,41	1222,64
578,61	1306,60
578,80	1247,21
579,00	1306,60
579,19	1284,08
579,39	1210,35
579,58	1220,59
579,77	1228,78
579,97	1251,31
580,16	1282,03
580,36	1185,77
580,55	1339,37
580,75	1288,17
580,94	1279,98
581,13	1312,75
581,33	1339,37
581,52	1300,46
581,72	1296,36
581,91	1255,40
582,11	1288,17
582,30	1296,36
582,49	1263,60
582,69	1222,64
582,88	1241,07
583,08	1179,63
583,27	1261,55
583,47	1255,40
583,66	1179,63
583,85	1267,69
584,05	1251,31
584,24	1224,69
584,44	1257,45
584,63	1325,04
584,82	1247,21
585,02	1247,21
585,21	1249,26
585,41	1218,54
585,60	1294,32
585,79	1208,30
585,99	1232,88
586,18	1275,88
586,37	1269,74
586,57	1345,52
586,76	1347,56
586,96	1241,07
587,15	1290,22
587,34	1322,99
587,54	1263,60
587,73	1255,40
587,93	1296,36
588,12	1239,02
588,31	1253,36
588,51	1253,36
588,70	1255,40
588,89	1224,69
589,09	1284,08
589,28	1253,36
589,47	1241,07
589,67	1224,69
589,86	1234,93
590,06	1310,70
590,25	1282,03
590,44	1349,61
590,64	1296,36
590,83	1236,97
591,02	1282,03
591,22	1232,88
591,41	1265,64
591,60	1286,12
591,80	1267,69
591,99	1279,98
592,18	1224,69
592,38	1292,27
592,57	1236,97
592,76	1259,50
592,96	1253,36
593,15	1243,12
593,34	1267,69
593,54	1292,27
593,73	1253,36
593,92	1236,97
594,12	1314,80
594,31	1296,36
594,50	1189,87
594,70	1298,41
594,89	1253,36
595,08	1204,21
595,28	1282,03
595,47	1275,88
595,66	1286,12
595,86	1312,75
596,05	1271,79
596,24	1302,51
596,43	1247,21
596,63	1282,03
596,82	1312,75
597,01	1232,88
597,21	1288,17
597,40	1206,25
597,59	1267,69
597,79	1261,55
597,98	1255,40
598,17	1271,79
598,36	1269,74
598,56	1245,16
598,75	1253,36
598,94	1257,45
599,14	1282,03
599,33	1314,80
599,52	1296,36
599,71	1277,93
599,91	1366,00
600,10	1320,94
600,29	1345,52
600,48	1222,64
600,68	1273,84
600,87	1212,40
601,06	1286,12
601,26	1277,93
601,45	1271,79
601,64	1236,97
601,83	1286,12
602,03	1325,04
602,22	1347,56
602,41	1306,60
602,60	1325,04
602,80	1247,21
602,99	1261,55
603,18	1214,45
603,37	1226,73
603,57	1210,35
603,76	1275,88
603,95	1267,69
604,14	1343,47
604,34	1183,73
604,53	1302,51
604,72	1234,93
604,91	1316,84
605,10	1230,83
605,30	1306,60
605,49	1273,84
605,68	1263,60
605,87	1290,22
606,07	1345,52
606,26	1282,03
606,45	1218,54
606,64	1212,40
606,84	1302,51
607,03	1253,36
607,22	1261,55
607,41	1261,55
607,60	1267,69
607,80	1267,69
607,99	1224,69
608,18	1259,50
608,37	1220,59
608,56	1327,08
608,76	1261,55
608,95	1239,02
609,14	1296,36
609,33	1234,93
609,52	1249,26
609,72	1204,21
609,91	1292,27
610,10	1263,60
610,29	1345,52
610,48	1314,80
610,68	1279,98
610,87	1243,12
611,06	1286,12
611,25	1247,21
611,44	1292,27
611,63	1355,76
611,83	1273,84
612,02	1292,27
612,21	1331,18
612,40	1226,73
612,59	1290,22
612,79	1204,21
612,98	1259,50
613,17	1279,98
613,36	1267,69
613,55	1216,49
613,74	1243,12
613,93	1265,64
614,13	1259,50
614,32	1232,88
614,51	1306,60
614,70	1284,08
614,89	1177,58
615,08	1271,79
615,28	1191,92
615,47	1277,93
615,66	1318,89
615,85	1239,02
616,04	1294,32
616,23	1257,45
616,42	1243,12
616,62	1308,65
616,81	1202,16
617,00	1277,93
617,19	1290,22
617,38	1206,25
617,57	1284,08
617,76	1296,36
617,95	1296,36
618,15	1361,90
618,34	1308,65
618,53	1249,26
618,72	1282,03
618,91	1298,41
619,10	1320,94
619,29	1232,88
619,48	1314,80
619,68	1214,45
619,87	1355,76
620,06	1275,88
620,25	1255,40
620,44	1204,21
620,63	1306,60
620,82	1347,56
621,01	1265,64
621,20	1273,84
621,39	1296,36
621,59	1228,78
621,78	1282,03
621,97	1277,93
622,16	1312,75
622,35	1271,79
622,54	1269,74
622,73	1376,24
622,92	1290,22
623,11	1265,64
623,30	1267,69
623,49	1355,76
623,68	1267,69
623,88	1265,64
624,07	1253,36
624,26	1288,17
624,45	1282,03
624,64	1204,21
624,83	1271,79
625,02	1234,93
625,21	1230,83
625,40	1261,55
625,59	1296,36
625,78	1290,22
625,97	1290,22
626,16	1273,84
626,35	1396,71
626,54	1218,54
626,74	1286,12
626,93	1257,45
627,12	1273,84
627,31	1302,51
627,50	1312,75
627,69	1355,76
627,88	1312,75
628,07	1337,32
628,26	1265,64
628,45	1251,31
628,64	1304,56
628,83	1300,46
629,02	1286,12
629,21	1361,90
629,40	1296,36
629,59	1263,60
629,78	1306,60
629,97	1386,47
630,16	1310,70
630,35	1257,45
630,54	1292,27
630,73	1347,56
630,92	1339,37
631,11	1366,00
631,30	1363,95
631,49	1372,14
631,68	1671,14
631,87	3030,99
632,06	7929,74
632,25	8970,10
632,44	14874,40
632,63	21769,91
632,82	33631,74
633,01	65535,00
633,20	65535,00
633,39	65535,00
633,58	65535,00
633,77	44170,59
633,96	18466,53
634,15	8957,82
634,34	6940,57
634,53	4865,97
634,72	2791,38
634,91	1929,19
635,10	1886,18
635,29	1871,84
635,48	1724,39
635,67	1679,33
635,86	1501,16
636,05	1427,43
636,24	1394,67
636,43	1355,76
636,62	1331,18
636,81	1355,76
637,00	1288,17
637,19	1282,03
637,38	1355,76
637,57	1368,04
637,76	1337,32
637,95	1310,70
638,14	1290,22
638,33	1333,23
638,52	1333,23
638,71	1374,19
638,89	1322,99
639,08	1263,60
639,27	1310,70
639,46	1234,93
639,65	1314,80
639,84	1333,23
640,03	1312,75
640,22	1327,08
640,41	1265,64
640,60	1306,60
640,79	1345,52
640,98	1271,79
641,17	1325,04
641,36	1267,69
641,55	1265,64
641,74	1322,99
641,92	1300,46
642,11	1253,36
642,30	1329,13
642,49	1290,22
642,68	1302,51
642,87	1224,69
643,06	1236,97
643,25	1263,60
643,44	1267,69
643,63	1267,69
643,82	1273,84
644,00	1249,26
644,19	1302,51
644,38	1208,30
644,57	1314,80
644,76	1288,17
644,95	1298,41
645,14	1339,37
645,33	1388,52
645,52	1253,36
645,71	1298,41
645,89	1345,52
646,08	1255,40
646,27	1282,03
646,46	1302,51
646,65	1253,36
646,84	1384,43
647,03	1269,74
647,22	1292,27
647,40	1286,12
647,59	1306,60
647,78	1253,36
647,97	1288,17
648,16	1204,21
648,35	1292,27
648,54	1325,04
648,73	1257,45
648,91	1255,40
649,10	1316,84
649,29	1232,88
649,48	1269,74
649,67	1300,46
649,86	1300,46
650,05	1273,84
650,23	1247,21
650,42	1275,88
650,61	1255,40
650,80	1322,99
650,99	1277,93
651,18	1265,64
651,36	1269,74
651,55	1185,77
651,74	1255,40
651,93	1327,08
652,12	1271,79
652,31	1310,70
652,49	1300,46
652,68	1218,54
652,87	1314,80
653,06	1282,03
653,25	1243,12
653,44	1292,27
653,62	1288,17
653,81	1220,59
654,00	1214,45
654,19	1257,45
654,38	1290,22
654,56	1210,35
654,75	1284,08
654,94	1222,64
655,13	1325,04
655,32	1249,26
655,51	1308,65
655,69	1322,99
655,88	1253,36
656,07	1286,12
656,26	1366,00
656,45	1236,97
656,63	1275,88
656,82	1331,18
657,01	1279,98
657,20	1251,31
657,38	1296,36
657,57	1251,31
657,76	1282,03
657,95	1279,98
658,14	1271,79
658,32	1273,84
658,51	1265,64
658,70	1331,18
658,89	1273,84
659,08	1259,50
659,26	1267,69
659,45	1310,70
659,64	1273,84
659,83	1239,02
660,01	1306,60
660,20	1234,93
660,39	1257,45
660,58	1296,36
660,76	1232,88
660,95	1308,65
661,14	1265,64
661,33	1243,12
661,51	1214,45
661,70	1282,03
661,89	1282,03
662,08	1200,11
662,26	1294,32
662,45	1271,79
662,64	1316,84
662,83	1357,80
663,01	1181,68
663,20	1275,88
663,39	1296,36
663,58	1277,93
663,76	1232,88
663,95	1294,32
664,14	1273,84
664,32	1241,07
664,51	1261,55
664,70	1220,59
664,89	1320,94
665,07	1241,07
665,26	1316,84
665,45	1279,98
665,64	1222,64
665,82	1302,51
666,01	1320,94
666,20	1232,88
666,38	1216,49
666,57	1232,88
666,76	1257,45
666,95	1288,17
667,13	1269,74
667,32	1341,42
667,51	1304,56
667,69	1296,36
667,88	1220,59
668,07	1212,40
668,25	1224,69
668,44	1308,65
668,63	1273,84
668,81	1261,55
669,00	1253,36
669,19	1267,69
669,38	1292,27
669,56	1282,03
669,75	1306,60
669,94	1277,93
670,12	1310,70
670,31	1202,16
670,50	1322,99
670,68	1282,03
670,87	1251,31
671,06	1265,64
671,24	1253,36
671,43	1247,21
671,62	1239,02
671,80	1343,47
671,99	1279,98
672,18	1296,36
672,36	1257,45
672,55	1263,60
672,74	1261,55
672,92	1253,36
673,11	1333,23
673,29	1253,36
673,48	1241,07
673,67	1226,73
673,85	1216,49
674,04	1288,17
674,23	1249,26
674,41	1353,71
674,60	1335,28
674,79	1232,88
674,97	1290,22
675,16	1251,31
675,34	1255,40
675,53	1302,51
675,72	1296,36
675,90	1271,79
676,09	1267,69
676,28	1259,50
676,46	1241,07
676,65	1224,69
676,83	1316,84
677,02	1253,36
677,21	1314,80
677,39	1247,21
677,58	1279,98
677,77	1249,26
677,95	1265,64
678,14	1282,03
678,32	1339,37
678,51	1292,27
678,70	1181,68
678,88	1320,94
679,07	1216,49
679,25	1241,07
679,44	1267,69
679,63	1196,01
679,81	1261,55
680,00	1312,75
680,18	1253,36
680,37	1310,70
680,55	1304,56
680,74	1257,45
680,93	1277,93
681,11	1339,37
681,30	1279,98
681,48	1267,69
681,67	1271,79
681,85	1316,84
682,04	1318,89
682,23	1347,56
682,41	1331,18
682,60	1232,88
682,78	1298,41
682,97	1214,45
683,15	1286,12
683,34	1245,16
683,53	1292,27
683,71	1310,70
683,90	1296,36
684,08	1314,80
684,27	1335,28
684,45	1216,49
684,64	1226,73
684,82	1277,93
685,01	1267,69
685,19	1261,55
685,38	1320,94
685,57	1322,99
685,75	1312,75
685,94	1277,93
686,12	1269,74
686,31	1345,52
686,49	1306,60
686,68	1288,17
686,86	1196,01
687,05	1249,26
687,23	1294,32
687,42	1279,98
687,60	1259,50
687,79	1245,16
687,97	1265,64
688,16	1335,28
688,34	1345,52
688,53	1251,31
688,71	1363,95
688,90	1273,84
689,08	1253,36
689,27	1292,27
689,45	1296,36
689,64	1318,89
689,82	1249,26
690,01	1327,08
690,19	1290,22
690,38	1282,03
690,56	1294,32
690,75	1325,04
690,93	1214,45
691,12	1290,22
691,30	1288,17
691,49	1312,75
691,67	1312,75
691,86	1347,56
692,04	1310,70
692,23	1265,64
692,41	1249,26
692,60	1241,07
692,78	1226,73
692,97	1230,83
693,15	1304,56
693,34	1290,22
693,52	1288,17
693,71	1271,79
693,89	1239,02
694,08	1241,07
694,26	1296,36
694,44	1208,30
694,63	1339,37
694,81	1163,25
695,00	1249,26
695,18	1267,69
695,37	1224,69
695,55	1206,25
695,74	1267,69
695,92	1241,07
696,10	1288,17
696,29	1316,84
696,47	1304,56
696,66	1206,25
696,84	1282,03
697,03	1304,56
697,21	1249,26
697,40	1302,51
697,58	1263,60
697,76	1273,84
697,95	1222,64
698,13	1230,83
698,32	1222,64
698,50	1261,55
698,68	1275,88
698,87	1261,55
699,05	1273,84
699,24	1337,32
699,42	1257,45
699,61	1306,60
699,79	1277,93
699,97	1239,02
700,16	1279,98
700,34	1320,94
700,53	1302,51
700,71	1329,13
700,89	1251,31
701,08	1263,60
701,26	1185,77
701,45	1249,26
701,63	1273,84
701,81	1300,46
702,00	1288,17
702,18	1224,69
702,37	1218,54
702,55	1243,12
702,73	1196,01
702,92	1196,01
703,10	1288,17
703,28	1191,92
703,47	1282,03
703,65	1310,70
703,84	1320,94
704,02	1236,97
704,20	1345,52
704,39	1226,73
704,57	1263,60
704,75	1286,12
704,94	1296,36
705,12	1263,60
705,30	1241,07
705,49	1220,59
705,67	1267,69
705,86	1314,80
706,04	1316,84
706,22	1261,55
706,41	1316,84
706,59	1294,32
706,77	1255,40
706,96	1226,73
707,14	1327,08
707,32	1277,93
707,51	1204,21
707,69	1253,36
707,87	1331,18
708,06	1214,45
708,24	1304,56
708,42	1286,12
708,61	1210,35
708,79	1265,64
708,97	1234,93
709,16	1251,31
709,34	1343,47
709,52	1282,03
709,71	1286,12
709,89	1320,94
710,07	1292,27
710,26	1212,40
710,44	1320,94
710,62	1290,22
710,80	1243,12
710,99	1177,58
711,17	1236,97
711,35	1253,36
711,54	1282,03
711,72	1306,60
711,90	1273,84
712,09	1253,36
712,27	1245,16
712,45	1298,41
712,63	1267,69
712,82	1263,60
713,00	1265,64
713,18	1292,27
713,37	1306,60
713,55	1263,60
713,73	1292,27
713,91	1261,55
714,10	1312,75
714,28	1212,40
714,46	1271,79
714,65	1333,23
714,83	1265,64
715,01	1257,45
715,19	1298,41
715,38	1302,51
715,56	1316,84
715,74	1366,00
715,92	1294,32
716,11	1226,73
716,29	1269,74
716,47	1257,45
716,65	1269,74
716,84	1275,88
717,02	1234,93
717,20	1239,02
717,38	1236,97
717,57	1255,40
717,75	1234,93
717,93	1273,84
718,11	1325,04
718,30	1269,74
718,48	1236,97
718,66	1261,55
718,84	1206,25
719,03	1214,45
719,21	1200,11
719,39	1282,03
719,57	1251,31
719,75	1322,99
719,94	1249,26
720,12	1288,17
720,30	1322,99
720,48	1275,88
720,67	1228,78
720,85	1290,22
721,03	1318,89
721,21	1271,79
721,39	1347,56
721,58	1216,49
721,76	1245,16
721,94	1243,12
722,12	1306,60
722,30	1325,04
722,49	1216,49
722,67	1290,22
722,85	1249,26
723,03	1277,93
723,21	1271,79
723,40	1216,49
723,58	1265,64
723,76	1224,69
723,94	1325,04
724,12	1273,84
724,30	1263,60
724,49	1310,70
724,67	1263,60
724,85	1255,40
725,03	1232,88
725,21	1236,97
725,40	1302,51
725,58	1228,78
725,76	1261,55
725,94	1290,22
726,12	1232,88
726,30	1251,31
726,49	1304,56
726,67	1290,22
726,85	1247,21
727,03	1318,89
727,21	1263,60
727,39	1273,84
727,57	1261,55
727,76	1310,70
727,94	1257,45
728,12	1292,27
728,30	1228,78
728,48	1267,69
728,66	1230,83
728,84	1288,17
729,03	1241,07
729,21	1294,32
729,39	1277,93
729,57	1243,12
729,75	1263,60
729,93	1253,36
730,11	1259,50
730,30	1304,56
730,48	1234,93
730,66	1218,54
730,84	1249,26
731,02	1257,45
731,20	1247,21
731,38	1253,36
731,56	1236,97
731,74	1277,93
731,93	1355,76
732,11	1355,76
732,29	1232,88
732,47	1241,07
732,65	1370,09
732,83	1310,70
733,01	1300,46
733,19	1277,93
733,37	1275,88
733,56	1239,02
733,74	1368,04
733,92	1312,75
734,10	1249,26
734,28	1234,93
734,46	1331,18
734,64	1345,52
734,82	1230,83
735,00	1277,93
735,18	1193,97
735,36	1232,88
735,54	1257,45
735,73	1236,97
735,91	1314,80
736,09	1351,66
736,27	1220,59
736,45	1271,79
736,63	1349,61
736,81	1273,84
736,99	1277,93
737,17	1259,50
737,35	1273,84
737,53	1226,73
737,71	1255,40
737,89	1253,36
738,07	1327,08
738,25	1234,93
738,43	1288,17
738,61	1216,49
738,80	1314,80
738,98	1245,16
739,16	1245,16
739,34	1335,28
739,52	1255,40
739,70	1243,12
739,88	1292,27
740,06	1386,47
740,24	1345,52
740,42	1296,36
740,60	1255,40
740,78	1196,01
740,96	1267,69
741,14	1294,32
741,32	1255,40
741,50	1265,64
741,68	1232,88
741,86	1249,26
742,04	1249,26
742,22	1204,21
742,40	1236,97
742,58	1282,03
742,76	1265,64
742,94	1267,69
743,12	1251,31
743,30	1241,07
743,48	1306,60
743,66	1206,25
743,84	1302,51
744,02	1302,51
744,20	1312,75
744,38	1322,99
744,56	1226,73
744,74	1263,60
744,92	1241,07
745,10	1286,12
745,28	1263,60
745,46	1282,03
745,64	1279,98
745,82	1249,26
746,00	1234,93
746,18	1298,41
746,36	1318,89
746,54	1271,79
746,72	1263,60
746,90	1294,32
747,08	1226,73
747,26	1300,46
747,44	1232,88
747,62	1261,55
747,80	1216,49
747,98	1331,18
748,15	1355,76
748,33	1251,31
748,51	1259,50
748,69	1288,17
748,87	1263,60
749,05	1241,07
749,23	1249,26
749,41	1290,22
749,59	1300,46
749,77	1286,12
749,95	1222,64
750,13	1177,58
750,31	1310,70
750,49	1243,12
750,67	1292,27
750,85	1304,56
751,03	1277,93
751,20	1224,69
751,38	1347,56
751,56	1294,32
751,74	1249,26
751,92	1273,84
752,10	1273,84
752,28	1265,64
752,46	1288,17
752,64	1247,21
752,82	1279,98
753,00	1239,02
753,18	1251,31
753,35	1228,78
753,53	1232,88
753,71	1216,49
753,89	1243,12
754,07	1236,97
754,25	1290,22
754,43	1298,41
754,61	1290,22
754,79	1310,70
754,97	1265,64
755,14	1255,40
755,32	1255,40
755,50	1304,56
755,68	1298,41
755,86	1251,31
756,04	1277,93
756,22	1181,68
756,40	1224,69
756,57	1247,21
756,75	1247,21
756,93	1247,21
757,11	1308,65
757,29	1236,97
757,47	1226,73
757,65	1265,64
757,82	1284,08
758,00	1302,51
758,18	1269,74
758,36	1261,55
758,54	1216,49
758,72	1265,64
758,90	1271,79
759,07	1329,13
759,25	1296,36
759,43	1253,36
759,61	1259,50
759,79	1273,84
759,97	1282,03
760,15	1236,97
760,32	1298,41
760,50	1314,80
760,68	1284,08
760,86	1247,21
761,04	1300,46
761,22	1325,04
761,39	1249,26
761,57	1275,88
761,75	1288,17
761,93	1257,45
762,11	1259,50
762,28	1204,21
762,46	1304,56
762,64	1288,17
762,82	1214,45
763,00	1325,04
763,18	1277,93
763,35	1353,71
763,53	1234,93
763,71	1243,12
763,89	1255,40
764,07	1263,60
764,24	1214,45
764,42	1251,31
764,60	1318,89
764,78	1251,31
764,96	1279,98
765,13	1302,51
765,31	1286,12
765,49	1331,18
765,67	1298,41
765,84	1222,64
766,02	1249,26
766,20	1239,02
766,38	1282,03
766,56	1224,69
766,73	1282,03
766,91	1224,69
767,09	1288,17
767,27	1220,59
767,44	1302,51
767,62	1263,60
767,80	1282,03
767,98	1306,60
768,15	1271,79
768,33	1202,16
768,51	1286,12
768,69	1296,36
768,87	1331,18
769,04	1261,55
769,22	1183,73
769,40	1265,64
769,58	1292,27
769,75	1269,74
769,93	1255,40
770,11	1249,26
770,28	1263,60
770,46	1247,21
770,64	1243,12
770,82	1239,02
770,99	1241,07
771,17	1247,21
771,35	1261,55
771,53	1290,22
771,70	1232,88
771,88	1279,98
772,06	1298,41
772,23	1282,03
772,41	1259,50
772,59	1222,64
772,77	1191,92
772,94	1253,36
773,12	1232,88
773,30	1320,94
773,47	1306,60
773,65	1265,64
773,83	1308,65
774,01	1282,03
774,18	1294,32
774,36	1202,16
774,54	1331,18
774,71	1269,74
774,89	1265,64
775,07	1234,93
775,24	1255,40
775,42	1234,93
775,60	1312,75
775,78	1282,03
775,95	1306,60
776,13	1247,21
776,31	1251,31
776,48	1202,16
776,66	1290,22
776,84	1253,36
777,01	1247,21
777,19	1304,56
777,37	1271,79
777,54	1298,41
777,72	1255,40
777,90	1226,73
778,07	1251,31
778,25	1265,64
778,43	1320,94
778,60	1310,70
778,78	1265,64
778,96	1298,41
779,13	1241,07
779,31	1241,07
779,49	1206,25
779,66	1292,27
779,84	1294,32
780,01	1208,30
780,19	1322,99
780,37	1220,59
780,54	1339,37
780,72	1296,36
780,90	1288,17
781,07	1263,60
781,25	1279,98
781,43	1304,56
781,60	1306,60
781,78	1282,03
781,95	1310,70
782,13	1228,78
782,31	1177,58
782,48	1277,93
782,66	1232,88
782,83	1273,84
783,01	1298,41
783,19	1204,21
783,36	1282,03
783,54	1220,59
783,72	1312,75
783,89	1267,69
784,07	1228,78
784,24	1247,21
784,42	1318,89
784,60	1228,78
784,77	1249,26
784,95	1349,61
785,12	1259,50
785,30	1261,55
785,47	1284,08
785,65	1277,93
785,83	1314,80
786,00	1378,28
786,18	1263,60
786,35	1273,84
786,53	1236,97
786,71	1249,26
786,88	1298,41
787,06	1325,04
787,23	1247,21
787,41	1302,51
787,58	1355,76
787,76	1318,89
787,94	1271,79
788,11	1325,04
788,29	1263,60
788,46	1267,69
788,64	1241,07
788,81	1310,70
788,99	1273,84
789,16	1279,98
789,34	1222,64
789,52	1302,51
789,69	1243,12
789,87	1257,45
790,04	1257,45
790,22	1249,26
790,39	1279,98
790,57	1267,69
790,74	1339,37
790,92	1318,89
791,09	1210,35
791,27	1298,41
791,44	1275,88
791,62	1202,16
791,79	1255,40
791,97	1325,04
792,15	1210,35
792,32	1220,59
792,50	1296,36
792,67	1200,11
792,85	1312,75
793,02	1314,80
793,20	1327,08
793,37	1263,60
793,55	1320,94
793,72	1298,41
793,90	1337,32
794,07	1263,60
794,25	1253,36
794,42	1269,74
794,60	1294,32
794,77	1208,30
794,95	1259,50
795,12	1265,64
795,30	1312,75
795,47	1298,41
795,65	1222,64
795,82	1322,99
796,00	1173,49
796,17	1271,79
796,34	1271,79
796,52	1249,26
796,69	1210,35
796,87	1294,32
797,04	1284,08
797,22	1239,02
797,39	1259,50
797,57	1251,31
797,74	1310,70
797,92	1279,98
798,09	1310,70
798,27	1314,80
798,44	1241,07
798,62	1275,88
798,79	1331,18
798,96	1253,36
799,14	1271,79
799,31	1222,64
799,49	1241,07
799,66	1243,12
799,84	1257,45
800,01	1271,79
800,19	1277,93
800,36	1269,74
800,53	1302,51
800,71	1212,40
800,88	1267,69
801,06	1273,84
801,23	1300,46
801,41	1253,36
801,58	1290,22
801,75	1251,31
801,93	1337,32
802,10	1271,79
802,28	1325,04
802,45	1347,56
802,63	1245,16
802,80	1261,55
802,97	1259,50
803,15	1181,68
803,32	1185,77
803,50	1288,17
803,67	1337,32
803,84	1247,21
804,02	1271,79
804,19	1341,42
804,37	1236,97
804,54	1247,21
804,71	1239,02
804,89	1257,45
805,06	1325,04
805,24	1185,77
805,41	1282,03
805,58	1249,26
805,76	1290,22
805,93	1308,65
806,10	1314,80
806,28	1247,21
806,45	1257,45
806,63	1269,74
806,80	1290,22
806,97	1232,88
807,15	1263,60
807,32	1273,84
807,49	1304,56
807,67	1226,73
807,84	1247,21
808,01	1320,94
808,19	1261,55
808,36	1284,08
808,54	1273,84
808,71	1312,75
808,88	1253,36
809,06	1275,88
809,23	1322,99
809,40	1251,31
809,58	1298,41
809,75	1257,45
809,92	1269,74
810,10	1298,41
810,27	1214,45
810,44	1228,78
810,62	1265,64
810,79	1288,17
810,96	1239,02
811,14	1292,27
811,31	1224,69
811,48	1310,70
811,66	1314,80
811,83	1249,26
812,00	1220,59
812,18	1236,97
812,35	1271,79
812,52	1277,93
812,69	1257,45
812,87	1222,64
813,04	1329,13
813,21	1261,55
813,39	1255,40
813,56	1304,56
813,73	1255,40
813,91	1230,83
814,08	1275,88
814,25	1306,60
814,42	1234,93
814,60	1320,94
814,77	1245,16
814,94	1245,16
815,12	1308,65
815,29	1284,08
815,46	1243,12
815,63	1259,50
815,81	1269,74
815,98	1310,70
816,15	1200,11
816,33	1263,60
816,50	1337,32
816,67	1259,50
816,84	1298,41
817,02	1224,69
817,19	1222,64
817,36	1370,09
817,53	1247,21
817,71	1327,08
817,88	1216,49
818,05	1249,26
818,22	1304,56
818,40	1312,75
818,57	1325,04
818,74	1269,74
818,91	1269,74
819,09	1304,56
819,26	1290,22
819,43	1259,50
819,60	1306,60
819,78	1306,60
819,95	1298,41
820,12	1294,32
820,29	1243,12
820,47	1187,82
820,64	1224,69
820,81	1142,77
820,98	1247,21
821,15	1273,84
821,33	1296,36
821,50	1263,60
821,67	1292,27
821,84	1302,51
822,02	1296,36
822,19	1265,64
822,36	1347,56
822,53	1351,66
822,70	1249,26
822,88	1263,60
823,05	1255,40
823,22	1222,64
823,39	1226,73
823,56	1314,80
823,74	1273,84
823,91	1269,74
824,08	1236,97
824,25	1224,69
824,42	1279,98
824,60	1228,78
824,77	1251,31
824,94	1265,64
825,11	1251,31
825,28	1294,32
825,45	1271,79
825,63	1302,51
825,80	1253,36
825,97	1261,55
826,14	1292,27
826,31	1216,49
826,48	1318,89
826,66	1189,87
826,83	1273,84
827,00	1265,64
827,17	1349,61
827,34	1329,13
827,51	1243,12
827,69	1210,35
827,86	1312,75
828,03	1183,73
828,20	1275,88
828,37	1251,31
828,54	1267,69
828,71	1308,65
828,89	1277,93
829,06	1253,36
829,23	1234,93
829,40	1249,26
829,57	1253,36
829,74	1282,03
829,91	1263,60
830,09	1222,64
830,26	1263,60
830,43	1263,60
830,60	1257,45
830,77	1249,26
830,94	1247,21
831,11	1322,99
831,28	1314,80
831,46	1290,22
831,63	1361,90
831,80	1247,21
831,97	1226,73
832,14	1286,12
832,31	1302,51
832,48	1196,01
832,65	1263,60
832,82	1218,54
832,99	1290,22
833,17	1273,84
833,34	1282,03
833,51	1249,26
833,68	1263,60
833,85	1279,98
834,02	1220,59
834,19	1210,35
834,36	1271,79
834,53	1257,45
834,70	1239,02
834,87	1312,75
835,04	1329,13
835,22	1261,55
835,39	1318,89
835,56	1236,97
835,73	1312,75
835,90	1300,46
836,07	1310,70
836,24	1255,40
836,41	1316,84
836,58	1286,12
836,75	1263,60
836,92	1210,35
837,09	1271,79
837,26	1198,06
837,43	1271,79
837,60	1263,60
837,77	1247,21
837,94	1277,93
838,12	1241,07
838,29	1308,65
838,46	1206,25
838,63	1296,36
838,80	1310,70
838,97	1300,46
839,14	1257,45
839,31	1288,17
839,48	1269,74
839,65	1337,32
839,82	1275,88
839,99	1282,03
840,16	1265,64
840,33	1343,47
840,50	1265,64
840,67	1255,40
840,84	1239,02
841,01	1312,75
841,18	1232,88
841,35	1220,59
841,52	1294,32
841,69	1290,22
841,86	1247,21
842,03	1279,98
842,20	1275,88
842,37	1232,88
842,54	1296,36
842,71	1265,64
842,88	1263,60
843,05	1255,40
843,22	1245,16
843,39	1232,88
843,56	1267,69
843,73	1275,88
843,90	1298,41
844,07	1273,84
844,24	1275,88
844,41	1265,64
844,58	1306,60
844,75	1320,94
844,92	1251,31
845,09	1286,12
845,26	1261,55
845,43	1275,88
845,60	1253,36
845,77	1265,64
845,94	1247,21
846,10	1210,35
846,27	1329,13
846,44	1322,99
846,61	1306,60
846,78	1316,84
846,95	1267,69
847,12	1218,54
847,29	1271,79
847,46	1236,97
847,63	1247,21
847,80	1288,17
847,97	1390,57
848,14	1273,84
848,31	1241,07
848,48	1261,55
848,65	1247,21
848,82	1267,69
848,98	1318,89
849,15	1232,88
849,32	1259,50
849,49	1257,45
849,66	1230,83
849,83	1279,98
850,00	1267,69
850,17	1239,02
850,34	1300,46
850,51	1226,73
850,68	1259,50
850,85	1304,56
851,01	1265,64
851,18	1296,36
851,35	1222,64
851,52	1251,31
851,69	1261,55
851,86	1335,28
852,03	1241,07
852,20	1259,50
852,37	1312,75
852,53	1265,64
852,70	1333,23
852,87	1230,83
853,04	1273,84
853,21	1228,78
853,38	1255,40
853,55	1337,32
853,72	1284,08
853,89	1298,41
854,05	1271,79
854,22	1298,41
854,39	1259,50
854,56	1286,12
854,73	1282,03
854,90	1267,69
855,07	1306,60
855,23	1220,59
855,40	1245,16
855,57	1310,70
855,74	1202,16
855,91	1269,74
856,08	1257,45
856,25	1245,16
856,41	1257,45
856,58	1220,59
856,75	1290,22
856,92	1286,12
857,09	1239,02
857,26	1312,75
857,42	1253,36
857,59	1294,32
857,76	1279,98
857,93	1298,41
858,10	1228,78
858,27	1232,88
858,43	1257,45
858,60	1191,92
858,77	1257,45
858,94	1257,45
859,11	1251,31
859,27	1306,60
859,44	1236,97
859,61	1273,84
859,78	1249,26
859,95	1200,11
860,12	1249,26
860,28	1261,55
860,45	1224,69
860,62	1183,73
860,79	1249,26
860,95	1251,31
861,12	1224,69
861,29	1249,26
861,46	1185,77
861,63	1331,18
861,79	1296,36
861,96	1245,16
862,13	1310,70
862,30	1310,70
862,47	1222,64
862,63	1253,36
862,80	1228,78
862,97	1257,45
863,14	1320,94
863,30	1243,12
863,47	1265,64
863,64	1257,45
863,81	1247,21
863,97	1224,69
864,14	1261,55
864,31	1208,30
864,48	1312,75
864,65	1269,74
864,81	1282,03
864,98	1236,97
865,15	1232,88
865,32	1298,41
865,48	1277,93
865,65	1247,21
865,82	1282,03
865,98	1269,74
866,15	1273,84
866,32	1277,93
866,49	1265,64
866,65	1263,60
866,82	1302,51
866,99	1230,83
867,16	1322,99
867,32	1329,13
867,49	1265,64
867,66	1312,75
867,83	1273,84
867,99	1304,56
868,16	1251,31
868,33	1200,11
868,49	1320,94
868,66	1292,27
868,83	1320,94
868,99	1193,97
869,16	1216,49
869,33	1333,23
869,50	1286,12
869,66	1294,32
869,83	1304,56
870,00	1232,88
870,16	1292,27
870,33	1316,84
870,50	1290,22
870,66	1290,22
870,83	1302,51
871,00	1282,03
871,17	1292,27
871,33	1208,30
871,50	1226,73
871,67	1196,01
871,83	1247,21
872,00	1310,70
872,17	1255,40
872,33	1259,50
872,50	1304,56
872,67	1259,50
872,83	1273,84
873,00	1249,26
873,17	1265,64
873,33	1335,28
873,50	1232,88
873,67	1290,22
873,83	1292,27
874,00	1249,26
874,16	1314,80
874,33	1273,84
874,50	1243,12
874,66	1284,08
874,83	1269,74
875,00	1259,50
875,16	1253,36
875,33	1316,84
875,50	1265,64
875,66	1286,12
875,83	1329,13
875,99	1255,40
876,16	1220,59
876,33	1239,02
876,49	1318,89
876,66	1304,56
876,83	1290,22
876,99	1193,97
877,16	1222,64
877,32	1239,02
877,49	1279,98
877,66	1257,45
877,82	1288,17
877,99	1234,93
878,15	1241,07
878,32	1261,55
878,49	1337,32
878,65	1226,73
878,82	1265,64
878,98	1200,11
879,15	1341,42
879,32	1253,36
879,48	1220,59
879,65	1212,40
879,81	1265,64
879,98	1243,12
880,15	1320,94
880,31	1314,80
880,48	1265,64
880,64	1308,65
880,81	1275,88
880,97	1345,52
881,14	1241,07
881,31	1251,31
881,47	1304,56
881,64	1279,98
881,80	1279,98
881,97	1263,60
882,13	1259,50
882,30	1228,78
882,47	1234,93
882,63	1249,26
882,80	1296,36
882,96	1302,51
883,13	1275,88
883,29	1296,36
883,46	1218,54
883,62	1243,12
883,79	1249,26
883,95	1181,68
884,12	1265,64
884,29	1302,51
884,45	1290,22
884,62	1232,88
884,78	1300,46
884,95	1331,18
885,11	1277,93
885,28	1228,78
885,44	1308,65
885,61	1302,51
885,77	1249,26
885,94	1230,83
886,10	1243,12
886,27	1300,46
886,43	1296,36
886,60	1306,60
886,76	1218,54
886,93	1349,61
887,09	1292,27
887,26	1269,74
887,42	1349,61
887,59	1288,17
887,75	1275,88
887,92	1290,22
888,08	1329,13
888,25	1316,84
888,41	1241,07
888,58	1251,31
888,74	1220,59
888,91	1306,60
>>>>>End Processed Spectral Data<<<<<
