SpectraSuite Data File
++++++++++++++++++++++++++++++++++++
Date: Sun Apr 03 15:51:34 CEST 2016
User: root
Dark Spectrum Present: No
Reference Spectrum Present: No
Number of Sampled Component Spectra: 1
Spectrometers: USB4C02835
Integration Time (usec): 10000 (USB4C02835)
Spectra Averaged: 1 (USB4C02835)
Boxcar Smoothing: 0 (USB4C02835)
Correct for Electrical Dark: No (USB4C02835)
Strobe/Lamp Enabled: No (USB4C02835)
Correct for Detector Non-linearity: No (USB4C02835)
Correct for Stray Light: No (USB4C02835)
Number of Pixels in Processed Spectrum: 3648
>>>>>Begin Processed Spectral Data<<<<<
177,47	1257,45
177,69	1257,45
177,91	1257,45
178,13	1214,45
178,36	1214,45
178,58	1290,22
178,80	1339,37
179,02	1220,59
179,24	1239,02
179,46	1296,36
179,68	1245,16
179,90	1296,36
180,13	1222,64
180,35	1300,46
180,57	1253,36
180,79	1302,51
181,01	1191,92
181,23	1216,49
181,45	1265,64
181,67	1273,84
181,90	1212,40
182,12	1212,40
182,34	1230,83
182,56	1249,26
182,78	1228,78
183,00	1277,93
183,22	1273,84
183,44	1296,36
183,66	1239,02
183,89	1245,16
184,11	1353,71
184,33	1208,30
184,55	1353,71
184,77	1185,77
184,99	1318,89
185,21	1290,22
185,43	1318,89
185,65	1279,98
185,87	1208,30
186,10	1263,60
186,32	1247,21
186,54	1318,89
186,76	1216,49
186,98	1249,26
187,20	1273,84
187,42	1302,51
187,64	1279,98
187,86	1312,75
188,08	1232,88
188,30	1273,84
188,52	1306,60
188,75	1249,26
188,97	1279,98
189,19	1279,98
189,41	1288,17
189,63	1247,21
189,85	1327,08
190,07	1271,79
190,29	1359,85
190,51	1277,93
190,73	1265,64
190,95	1222,64
191,17	1310,70
191,39	1206,25
191,61	1255,40
191,84	1216,49
192,06	1277,93
192,28	1275,88
192,50	1318,89
192,72	1277,93
192,94	1312,75
193,16	1267,69
193,38	1245,16
193,60	1277,93
193,82	1286,12
194,04	1267,69
194,26	1273,84
194,48	1308,65
194,70	1226,73
194,92	1202,16
195,14	1255,40
195,36	1218,54
195,58	1296,36
195,80	1247,21
196,02	1269,74
196,24	1255,40
196,46	1226,73
196,69	1218,54
196,91	1269,74
197,13	1257,45
197,35	1245,16
197,57	1300,46
197,79	1251,31
198,01	1304,56
198,23	1269,74
198,45	1279,98
198,67	1292,27
198,89	1282,03
199,11	1263,60
199,33	1271,79
199,55	1263,60
199,77	1273,84
199,99	1304,56
200,21	1284,08
200,43	1255,40
200,65	1247,21
200,87	1271,79
201,09	1347,56
201,31	1279,98
201,53	1384,43
201,75	1214,45
201,97	1236,97
202,19	1335,28
202,41	1232,88
202,63	1271,79
202,85	1249,26
203,07	1273,84
203,29	1259,50
203,51	1282,03
203,73	1218,54
203,95	1263,60
204,17	1308,65
204,39	1277,93
204,61	1316,84
204,83	1282,03
205,05	1228,78
205,27	1224,69
205,49	1263,60
205,71	1243,12
205,93	1282,03
206,15	1318,89
206,37	1196,01
206,59	1279,98
206,81	1282,03
207,03	1212,40
207,25	1284,08
207,47	1271,79
207,69	1329,13
207,91	1241,07
208,13	1282,03
208,34	1267,69
208,56	1191,92
208,78	1239,02
209,00	1335,28
209,22	1304,56
209,44	1249,26
209,66	1292,27
209,88	1279,98
210,10	1228,78
210,32	1333,23
210,54	1228,78
210,76	1282,03
210,98	1282,03
211,20	1247,21
211,42	1251,31
211,64	1247,21
211,86	1322,99
212,08	1271,79
212,30	1243,12
212,52	1263,60
212,74	1302,51
212,96	1314,80
213,17	1296,36
213,39	1257,45
213,61	1308,65
213,83	1267,69
214,05	1230,83
214,27	1275,88
214,49	1255,40
214,71	1306,60
214,93	1298,41
215,15	1271,79
215,37	1288,17
215,59	1259,50
215,81	1267,69
216,03	1269,74
216,24	1224,69
216,46	1294,32
216,68	1241,07
216,90	1290,22
217,12	1306,60
217,34	1181,68
217,56	1265,64
217,78	1234,93
218,00	1351,66
218,22	1241,07
218,44	1218,54
218,66	1265,64
218,87	1236,97
219,09	1218,54
219,31	1239,02
219,53	1251,31
219,75	1296,36
219,97	1275,88
220,19	1230,83
220,41	1284,08
220,63	1304,56
220,85	1355,76
221,06	1208,30
221,28	1243,12
221,50	1259,50
221,72	1333,23
221,94	1298,41
222,16	1277,93
222,38	1271,79
222,60	1298,41
222,82	1304,56
223,03	1222,64
223,25	1251,31
223,47	1314,80
223,69	1282,03
223,91	1318,89
224,13	1271,79
224,35	1269,74
224,57	1282,03
224,78	1269,74
225,00	1210,35
225,22	1243,12
225,44	1255,40
225,66	1261,55
225,88	1284,08
226,10	1241,07
226,32	1333,23
226,53	1277,93
226,75	1331,18
226,97	1271,79
227,19	1273,84
227,41	1228,78
227,63	1269,74
227,85	1259,50
228,06	1312,75
228,28	1253,36
228,50	1189,87
228,72	1320,94
228,94	1312,75
229,16	1263,60
229,37	1288,17
229,59	1277,93
229,81	1322,99
230,03	1300,46
230,25	1292,27
230,47	1257,45
230,69	1286,12
230,90	1245,16
231,12	1200,11
231,34	1300,46
231,56	1288,17
231,78	1241,07
232,00	1255,40
232,21	1284,08
232,43	1271,79
232,65	1327,08
232,87	1239,02
233,09	1214,45
233,30	1269,74
233,52	1247,21
233,74	1265,64
233,96	1185,77
234,18	1376,24
234,40	1294,32
234,61	1310,70
234,83	1288,17
235,05	1245,16
235,27	1284,08
235,49	1284,08
235,70	1196,01
235,92	1279,98
236,14	1220,59
236,36	1296,36
236,58	1300,46
236,79	1232,88
237,01	1273,84
237,23	1304,56
237,45	1304,56
237,67	1269,74
237,88	1257,45
238,10	1220,59
238,32	1210,35
238,54	1298,41
238,76	1273,84
238,97	1249,26
239,19	1249,26
239,41	1216,49
239,63	1204,21
239,85	1329,13
240,06	1208,30
240,28	1294,32
240,50	1208,30
240,72	1269,74
240,93	1269,74
241,15	1325,04
241,37	1253,36
241,59	1282,03
241,81	1329,13
242,02	1247,21
242,24	1292,27
242,46	1273,84
242,68	1288,17
242,89	1322,99
243,11	1222,64
243,33	1265,64
243,55	1255,40
243,76	1267,69
243,98	1296,36
244,20	1214,45
244,42	1200,11
244,64	1208,30
244,85	1243,12
245,07	1329,13
245,29	1253,36
245,51	1273,84
245,72	1196,01
245,94	1243,12
246,16	1279,98
246,38	1226,73
246,59	1234,93
246,81	1279,98
247,03	1288,17
247,24	1249,26
247,46	1261,55
247,68	1298,41
247,90	1220,59
248,11	1257,45
248,33	1193,97
248,55	1294,32
248,77	1175,53
248,98	1294,32
249,20	1277,93
249,42	1286,12
249,64	1234,93
249,85	1320,94
250,07	1308,65
250,29	1292,27
250,50	1247,21
250,72	1329,13
250,94	1279,98
251,16	1198,06
251,37	1298,41
251,59	1277,93
251,81	1261,55
252,02	1310,70
252,24	1259,50
252,46	1234,93
252,68	1314,80
252,89	1214,45
253,11	1273,84
253,33	1290,22
253,54	1236,97
253,76	1216,49
253,98	1335,28
254,20	1318,89
254,41	1269,74
254,63	1267,69
254,85	1284,08
255,06	1318,89
255,28	1304,56
255,50	1239,02
255,71	1228,78
255,93	1273,84
256,15	1228,78
256,36	1253,36
256,58	1265,64
256,80	1253,36
257,02	1230,83
257,23	1327,08
257,45	1267,69
257,67	1259,50
257,88	1239,02
258,10	1279,98
258,32	1294,32
258,53	1329,13
258,75	1335,28
258,97	1298,41
259,18	1282,03
259,40	1333,23
259,62	1261,55
259,83	1267,69
260,05	1282,03
260,27	1368,04
260,48	1247,21
260,70	1251,31
260,92	1273,84
261,13	1298,41
261,35	1325,04
261,57	1306,60
261,78	1325,04
262,00	1243,12
262,22	1224,69
262,43	1320,94
262,65	1286,12
262,86	1361,90
263,08	1265,64
263,30	1279,98
263,51	1294,32
263,73	1273,84
263,95	1314,80
264,16	1296,36
264,38	1241,07
264,60	1263,60
264,81	1198,06
265,03	1271,79
265,25	1286,12
265,46	1232,88
265,68	1255,40
265,89	1306,60
266,11	1277,93
266,33	1257,45
266,54	1273,84
266,76	1257,45
266,98	1263,60
267,19	1361,90
267,41	1247,21
267,62	1284,08
267,84	1275,88
268,06	1269,74
268,27	1331,18
268,49	1318,89
268,70	1210,35
268,92	1265,64
269,14	1210,35
269,35	1251,31
269,57	1316,84
269,79	1322,99
270,00	1335,28
270,22	1232,88
270,43	1284,08
270,65	1314,80
270,87	1253,36
271,08	1286,12
271,30	1230,83
271,51	1193,97
271,73	1245,16
271,95	1239,02
272,16	1263,60
272,38	1282,03
272,59	1329,13
272,81	1277,93
273,02	1220,59
273,24	1284,08
273,46	1314,80
273,67	1263,60
273,89	1239,02
274,10	1282,03
274,32	1230,83
274,54	1279,98
274,75	1300,46
274,97	1298,41
275,18	1290,22
275,40	1218,54
275,61	1271,79
275,83	1187,82
276,05	1185,77
276,26	1288,17
276,48	1279,98
276,69	1220,59
276,91	1236,97
277,12	1306,60
277,34	1265,64
277,55	1230,83
277,77	1331,18
277,99	1320,94
278,20	1282,03
278,42	1241,07
278,63	1263,60
278,85	1271,79
279,06	1193,97
279,28	1290,22
279,49	1282,03
279,71	1294,32
279,93	1306,60
280,14	1249,26
280,36	1212,40
280,57	1239,02
280,79	1322,99
281,00	1271,79
281,22	1257,45
281,43	1310,70
281,65	1277,93
281,86	1327,08
282,08	1269,74
282,29	1310,70
282,51	1284,08
282,73	1267,69
282,94	1155,05
283,16	1267,69
283,37	1269,74
283,59	1241,07
283,80	1279,98
284,02	1318,89
284,23	1269,74
284,45	1218,54
284,66	1253,36
284,88	1312,75
285,09	1300,46
285,31	1290,22
285,52	1257,45
285,74	1232,88
285,95	1279,98
286,17	1216,49
286,38	1210,35
286,60	1249,26
286,81	1284,08
287,03	1322,99
287,24	1228,78
287,46	1257,45
287,67	1277,93
287,89	1279,98
288,10	1271,79
288,32	1200,11
288,53	1288,17
288,75	1286,12
288,96	1239,02
289,18	1259,50
289,39	1232,88
289,61	1232,88
289,82	1300,46
290,04	1306,60
290,25	1253,36
290,47	1265,64
290,68	1288,17
290,90	1335,28
291,11	1239,02
291,33	1267,69
291,54	1245,16
291,76	1302,51
291,97	1292,27
292,18	1370,09
292,40	1306,60
292,61	1257,45
292,83	1282,03
293,04	1294,32
293,26	1214,45
293,47	1253,36
293,69	1271,79
293,90	1282,03
294,12	1357,80
294,33	1255,40
294,55	1277,93
294,76	1282,03
294,97	1245,16
295,19	1241,07
295,40	1267,69
295,62	1226,73
295,83	1312,75
296,05	1253,36
296,26	1320,94
296,48	1239,02
296,69	1316,84
296,90	1222,64
297,12	1343,47
297,33	1224,69
297,55	1312,75
297,76	1224,69
297,98	1224,69
298,19	1269,74
298,41	1255,40
298,62	1214,45
298,83	1265,64
299,05	1239,02
299,26	1302,51
299,48	1271,79
299,69	1228,78
299,90	1271,79
300,12	1273,84
300,33	1275,88
300,55	1241,07
300,76	1322,99
300,98	1271,79
301,19	1322,99
301,40	1226,73
301,62	1286,12
301,83	1257,45
302,05	1269,74
302,26	1247,21
302,47	1220,59
302,69	1298,41
302,90	1265,64
303,12	1273,84
303,33	1288,17
303,54	1263,60
303,76	1173,49
303,97	1304,56
304,19	1230,83
304,40	1206,25
304,61	1279,98
304,83	1290,22
305,04	1247,21
305,26	1294,32
305,47	1214,45
305,68	1306,60
305,90	1273,84
306,11	1230,83
306,33	1277,93
306,54	1263,60
306,75	1294,32
306,97	1261,55
307,18	1271,79
307,39	1263,60
307,61	1241,07
307,82	1308,65
308,04	1304,56
308,25	1273,84
308,46	1282,03
308,68	1228,78
308,89	1261,55
309,10	1228,78
309,32	1269,74
309,53	1298,41
309,74	1300,46
309,96	1304,56
310,17	1325,04
310,39	1331,18
310,60	1304,56
310,81	1275,88
311,03	1292,27
311,24	1253,36
311,45	1314,80
311,67	1316,84
311,88	1245,16
312,09	1198,06
312,31	1296,36
312,52	1308,65
312,73	1286,12
312,95	1304,56
313,16	1306,60
313,37	1284,08
313,59	1232,88
313,80	1310,70
314,01	1259,50
314,23	1286,12
314,44	1275,88
314,65	1288,17
314,87	1232,88
315,08	1302,51
315,29	1296,36
315,51	1292,27
315,72	1286,12
315,93	1331,18
316,15	1273,84
316,36	1216,49
316,57	1296,36
316,79	1279,98
317,00	1245,16
317,21	1302,51
317,43	1292,27
317,64	1282,03
317,85	1314,80
318,07	1214,45
318,28	1263,60
318,49	1239,02
318,70	1275,88
318,92	1277,93
319,13	1269,74
319,34	1269,74
319,56	1318,89
319,77	1230,83
319,98	1249,26
320,20	1339,37
320,41	1294,32
320,62	1228,78
320,83	1247,21
321,05	1286,12
321,26	1304,56
321,47	1304,56
321,69	1312,75
321,90	1206,25
322,11	1314,80
322,32	1253,36
322,54	1269,74
322,75	1275,88
322,96	1259,50
323,18	1236,97
323,39	1232,88
323,60	1243,12
323,81	1292,27
324,03	1249,26
324,24	1249,26
324,45	1310,70
324,66	1300,46
324,88	1322,99
325,09	1288,17
325,30	1273,84
325,52	1241,07
325,73	1282,03
325,94	1271,79
326,15	1339,37
326,37	1255,40
326,58	1257,45
326,79	1257,45
327,00	1300,46
327,22	1245,16
327,43	1220,59
327,64	1263,60
327,85	1302,51
328,07	1288,17
328,28	1308,65
328,49	1316,84
328,70	1216,49
328,92	1282,03
329,13	1245,16
329,34	1273,84
329,55	1236,97
329,76	1253,36
329,98	1220,59
330,19	1318,89
330,40	1265,64
330,61	1302,51
330,83	1273,84
331,04	1261,55
331,25	1259,50
331,46	1343,47
331,68	1245,16
331,89	1245,16
332,10	1275,88
332,31	1224,69
332,52	1208,30
332,74	1232,88
332,95	1277,93
333,16	1322,99
333,37	1331,18
333,58	1253,36
333,80	1202,16
334,01	1259,50
334,22	1269,74
334,43	1245,16
334,64	1335,28
334,86	1277,93
335,07	1236,97
335,28	1253,36
335,49	1320,94
335,70	1294,32
335,92	1267,69
336,13	1294,32
336,34	1314,80
336,55	1236,97
336,76	1273,84
336,98	1282,03
337,19	1241,07
337,40	1232,88
337,61	1345,52
337,82	1275,88
338,04	1187,82
338,25	1220,59
338,46	1312,75
338,67	1245,16
338,88	1243,12
339,09	1198,06
339,31	1275,88
339,52	1284,08
339,73	1271,79
339,94	1249,26
340,15	1253,36
340,36	1279,98
340,58	1325,04
340,79	1261,55
341,00	1265,64
341,21	1271,79
341,42	1286,12
341,63	1345,52
341,85	1230,83
342,06	1255,40
342,27	1294,32
342,48	1271,79
342,69	1222,64
342,90	1277,93
343,12	1273,84
343,33	1308,65
343,54	1290,22
343,75	1273,84
343,96	1239,02
344,17	1243,12
344,38	1282,03
344,60	1234,93
344,81	1234,93
345,02	1339,37
345,23	1265,64
345,44	1306,60
345,65	1333,23
345,86	1325,04
346,07	1249,26
346,29	1257,45
346,50	1232,88
346,71	1232,88
346,92	1363,95
347,13	1292,27
347,34	1294,32
347,55	1265,64
347,76	1363,95
347,98	1327,08
348,19	1218,54
348,40	1335,28
348,61	1267,69
348,82	1263,60
349,03	1318,89
349,24	1214,45
349,45	1282,03
349,66	1273,84
349,88	1263,60
350,09	1271,79
350,30	1304,56
350,51	1265,64
350,72	1269,74
350,93	1230,83
351,14	1298,41
351,35	1234,93
351,56	1220,59
351,77	1302,51
351,99	1247,21
352,20	1271,79
352,41	1333,23
352,62	1218,54
352,83	1253,36
353,04	1253,36
353,25	1271,79
353,46	1284,08
353,67	1243,12
353,88	1292,27
354,09	1267,69
354,30	1277,93
354,52	1251,31
354,73	1282,03
354,94	1304,56
355,15	1290,22
355,36	1284,08
355,57	1286,12
355,78	1308,65
355,99	1327,08
356,20	1259,50
356,41	1249,26
356,62	1189,87
356,83	1284,08
357,04	1265,64
357,25	1312,75
357,46	1239,02
357,68	1279,98
357,89	1306,60
358,10	1282,03
358,31	1271,79
358,52	1263,60
358,73	1255,40
358,94	1310,70
359,15	1322,99
359,36	1277,93
359,57	1263,60
359,78	1263,60
359,99	1245,16
360,20	1249,26
360,41	1228,78
360,62	1279,98
360,83	1259,50
361,04	1300,46
361,25	1331,18
361,46	1265,64
361,67	1271,79
361,88	1277,93
362,09	1306,60
362,30	1271,79
362,51	1290,22
362,72	1275,88
362,93	1316,84
363,14	1271,79
363,35	1239,02
363,56	1255,40
363,78	1243,12
363,99	1267,69
364,20	1269,74
364,41	1232,88
364,62	1241,07
364,83	1253,36
365,04	1220,59
365,25	1247,21
365,46	1261,55
365,67	1236,97
365,88	1282,03
366,09	1279,98
366,30	1247,21
366,51	1312,75
366,72	1214,45
366,93	1292,27
367,14	1259,50
367,35	1257,45
367,56	1269,74
367,77	1279,98
367,98	1290,22
368,18	1308,65
368,39	1234,93
368,60	1261,55
368,81	1263,60
369,02	1241,07
369,23	1226,73
369,44	1296,36
369,65	1329,13
369,86	1224,69
370,07	1204,21
370,28	1224,69
370,49	1222,64
370,70	1339,37
370,91	1249,26
371,12	1329,13
371,33	1312,75
371,54	1284,08
371,75	1304,56
371,96	1267,69
372,17	1220,59
372,38	1249,26
372,59	1273,84
372,80	1232,88
373,01	1243,12
373,22	1318,89
373,43	1239,02
373,64	1292,27
373,85	1230,83
374,06	1204,21
374,26	1263,60
374,47	1314,80
374,68	1325,04
374,89	1306,60
375,10	1310,70
375,31	1247,21
375,52	1255,40
375,73	1214,45
375,94	1175,53
376,15	1325,04
376,36	1300,46
376,57	1284,08
376,78	1265,64
376,99	1345,52
377,20	1224,69
377,40	1247,21
377,61	1335,28
377,82	1277,93
378,03	1347,56
378,24	1245,16
378,45	1320,94
378,66	1302,51
378,87	1253,36
379,08	1251,31
379,29	1212,40
379,50	1294,32
379,71	1179,63
379,91	1292,27
380,12	1298,41
380,33	1310,70
380,54	1261,55
380,75	1251,31
380,96	1343,47
381,17	1267,69
381,38	1363,95
381,59	1243,12
381,80	1331,18
382,00	1259,50
382,21	1304,56
382,42	1279,98
382,63	1230,83
382,84	1245,16
383,05	1253,36
383,26	1279,98
383,47	1236,97
383,68	1314,80
383,88	1247,21
384,09	1267,69
384,30	1247,21
384,51	1320,94
384,72	1277,93
384,93	1312,75
385,14	1245,16
385,35	1314,80
385,55	1286,12
385,76	1277,93
385,97	1282,03
386,18	1314,80
386,39	1239,02
386,60	1277,93
386,81	1249,26
387,02	1232,88
387,22	1275,88
387,43	1325,04
387,64	1298,41
387,85	1245,16
388,06	1220,59
388,27	1245,16
388,48	1234,93
388,68	1232,88
388,89	1245,16
389,10	1253,36
389,31	1222,64
389,52	1345,52
389,73	1257,45
389,93	1325,04
390,14	1245,16
390,35	1239,02
390,56	1253,36
390,77	1251,31
390,98	1265,64
391,18	1284,08
391,39	1232,88
391,60	1275,88
391,81	1193,97
392,02	1236,97
392,23	1261,55
392,43	1292,27
392,64	1259,50
392,85	1230,83
393,06	1277,93
393,27	1308,65
393,47	1290,22
393,68	1290,22
393,89	1275,88
394,10	1335,28
394,31	1316,84
394,52	1296,36
394,72	1245,16
394,93	1353,71
395,14	1257,45
395,35	1337,32
395,56	1247,21
395,76	1337,32
395,97	1204,21
396,18	1318,89
396,39	1259,50
396,60	1255,40
396,80	1251,31
397,01	1302,51
397,22	1257,45
397,43	1312,75
397,64	1282,03
397,84	1288,17
398,05	1349,61
398,26	1288,17
398,47	1259,50
398,67	1325,04
398,88	1308,65
399,09	1236,97
399,30	1202,16
399,51	1322,99
399,71	1261,55
399,92	1259,50
400,13	1269,74
400,34	1310,70
400,54	1247,21
400,75	1306,60
400,96	1296,36
401,17	1312,75
401,37	1366,00
401,58	1282,03
401,79	1222,64
402,00	1245,16
402,21	1249,26
402,41	1214,45
402,62	1255,40
402,83	1261,55
403,04	1228,78
403,24	1230,83
403,45	1241,07
403,66	1236,97
403,87	1261,55
404,07	1290,22
404,28	1300,46
404,49	1310,70
404,70	1286,12
404,90	1363,95
405,11	1257,45
405,32	1298,41
405,52	1263,60
405,73	1322,99
405,94	1255,40
406,15	1292,27
406,35	1243,12
406,56	1273,84
406,77	1310,70
406,98	1294,32
407,18	1294,32
407,39	1204,21
407,60	1308,65
407,80	1249,26
408,01	1333,23
408,22	1261,55
408,43	1279,98
408,63	1337,32
408,84	1247,21
409,05	1331,18
409,25	1277,93
409,46	1294,32
409,67	1273,84
409,88	1296,36
410,08	1165,29
410,29	1218,54
410,50	1284,08
410,70	1232,88
410,91	1286,12
411,12	1335,28
411,32	1255,40
411,53	1224,69
411,74	1261,55
411,95	1349,61
412,15	1232,88
412,36	1265,64
412,57	1279,98
412,77	1329,13
412,98	1249,26
413,19	1249,26
413,39	1265,64
413,60	1279,98
413,81	1257,45
414,01	1267,69
414,22	1263,60
414,43	1288,17
414,63	1292,27
414,84	1331,18
415,05	1302,51
415,25	1263,60
415,46	1279,98
415,67	1214,45
415,87	1306,60
416,08	1279,98
416,29	1267,69
416,49	1286,12
416,70	1271,79
416,91	1284,08
417,11	1255,40
417,32	1284,08
417,53	1269,74
417,73	1261,55
417,94	1298,41
418,15	1277,93
418,35	1302,51
418,56	1288,17
418,77	1327,08
418,97	1245,16
419,18	1273,84
419,38	1191,92
419,59	1228,78
419,80	1277,93
420,00	1218,54
420,21	1265,64
420,42	1253,36
420,62	1230,83
420,83	1206,25
421,04	1273,84
421,24	1218,54
421,45	1288,17
421,65	1310,70
421,86	1222,64
422,07	1273,84
422,27	1239,02
422,48	1284,08
422,69	1222,64
422,89	1226,73
423,10	1241,07
423,30	1259,50
423,51	1282,03
423,72	1255,40
423,92	1255,40
424,13	1243,12
424,33	1241,07
424,54	1286,12
424,75	1234,93
424,95	1290,22
425,16	1300,46
425,36	1318,89
425,57	1259,50
425,78	1318,89
425,98	1251,31
426,19	1304,56
426,39	1318,89
426,60	1282,03
426,81	1259,50
427,01	1253,36
427,22	1232,88
427,42	1228,78
427,63	1261,55
427,83	1275,88
428,04	1298,41
428,25	1312,75
428,45	1282,03
428,66	1355,76
428,86	1296,36
429,07	1310,70
429,28	1214,45
429,48	1206,25
429,69	1245,16
429,89	1294,32
430,10	1263,60
430,30	1279,98
430,51	1239,02
430,71	1253,36
430,92	1288,17
431,13	1284,08
431,33	1300,46
431,54	1265,64
431,74	1279,98
431,95	1284,08
432,15	1282,03
432,36	1341,42
432,56	1236,97
432,77	1275,88
432,98	1290,22
433,18	1359,85
433,39	1243,12
433,59	1275,88
433,80	1253,36
434,00	1335,28
434,21	1245,16
434,41	1282,03
434,62	1361,90
434,82	1259,50
435,03	1255,40
435,23	1230,83
435,44	1236,97
435,64	1230,83
435,85	1353,71
436,06	1322,99
436,26	1200,11
436,47	1267,69
436,67	1241,07
436,88	1265,64
437,08	1310,70
437,29	1224,69
437,49	1275,88
437,70	1269,74
437,90	1245,16
438,11	1345,52
438,31	1212,40
438,52	1257,45
438,72	1294,32
438,93	1337,32
439,13	1261,55
439,34	1257,45
439,54	1255,40
439,75	1206,25
439,95	1331,18
440,16	1236,97
440,36	1200,11
440,57	1300,46
440,77	1277,93
440,98	1269,74
441,18	1325,04
441,39	1204,21
441,59	1306,60
441,80	1224,69
442,00	1292,27
442,21	1230,83
442,41	1230,83
442,62	1351,66
442,82	1243,12
443,02	1196,01
443,23	1243,12
443,43	1282,03
443,64	1257,45
443,84	1249,26
444,05	1249,26
444,25	1284,08
444,46	1236,97
444,66	1286,12
444,87	1249,26
445,07	1251,31
445,28	1329,13
445,48	1245,16
445,69	1214,45
445,89	1212,40
446,09	1255,40
446,30	1267,69
446,50	1265,64
446,71	1277,93
446,91	1275,88
447,12	1236,97
447,32	1325,04
447,53	1370,09
447,73	1333,23
447,93	1255,40
448,14	1263,60
448,34	1234,93
448,55	1282,03
448,75	1314,80
448,96	1257,45
449,16	1292,27
449,36	1255,40
449,57	1218,54
449,77	1282,03
449,98	1294,32
450,18	1279,98
450,39	1210,35
450,59	1292,27
450,79	1198,06
451,00	1253,36
451,20	1271,79
451,41	1325,04
451,61	1224,69
451,81	1318,89
452,02	1224,69
452,22	1273,84
452,43	1269,74
452,63	1282,03
452,84	1259,50
453,04	1273,84
453,24	1320,94
453,45	1302,51
453,65	1279,98
453,86	1302,51
454,06	1290,22
454,26	1312,75
454,47	1236,97
454,67	1191,92
454,87	1279,98
455,08	1288,17
455,28	1286,12
455,49	1251,31
455,69	1261,55
455,89	1292,27
456,10	1245,16
456,30	1345,52
456,51	1263,60
456,71	1331,18
456,91	1232,88
457,12	1294,32
457,32	1296,36
457,52	1316,84
457,73	1300,46
457,93	1300,46
458,14	1282,03
458,34	1261,55
458,54	1269,74
458,75	1263,60
458,95	1316,84
459,15	1251,31
459,36	1261,55
459,56	1277,93
459,76	1253,36
459,97	1310,70
460,17	1304,56
460,37	1247,21
460,58	1224,69
460,78	1243,12
460,99	1282,03
461,19	1212,40
461,39	1245,16
461,60	1247,21
461,80	1208,30
462,00	1312,75
462,21	1308,65
462,41	1216,49
462,61	1277,93
462,82	1179,63
463,02	1300,46
463,22	1277,93
463,43	1284,08
463,63	1259,50
463,83	1296,36
464,04	1298,41
464,24	1241,07
464,44	1247,21
464,64	1306,60
464,85	1224,69
465,05	1214,45
465,25	1245,16
465,46	1296,36
465,66	1263,60
465,86	1251,31
466,07	1267,69
466,27	1318,89
466,47	1243,12
466,68	1249,26
466,88	1232,88
467,08	1226,73
467,29	1316,84
467,49	1255,40
467,69	1226,73
467,89	1286,12
468,10	1218,54
468,30	1267,69
468,50	1302,51
468,71	1300,46
468,91	1216,49
469,11	1277,93
469,31	1214,45
469,52	1273,84
469,72	1325,04
469,92	1308,65
470,13	1282,03
470,33	1269,74
470,53	1263,60
470,73	1277,93
470,94	1298,41
471,14	1216,49
471,34	1314,80
471,54	1333,23
471,75	1239,02
471,95	1271,79
472,15	1308,65
472,36	1288,17
472,56	1277,93
472,76	1265,64
472,96	1259,50
473,17	1245,16
473,37	1267,69
473,57	1253,36
473,77	1257,45
473,98	1267,69
474,18	1239,02
474,38	1263,60
474,58	1222,64
474,79	1232,88
474,99	1261,55
475,19	1273,84
475,39	1243,12
475,60	1288,17
475,80	1271,79
476,00	1236,97
476,20	1255,40
476,41	1296,36
476,61	1265,64
476,81	1255,40
477,01	1271,79
477,21	1271,79
477,42	1347,56
477,62	1243,12
477,82	1318,89
478,02	1216,49
478,23	1312,75
478,43	1282,03
478,63	1284,08
478,83	1255,40
479,03	1265,64
479,24	1312,75
479,44	1304,56
479,64	1261,55
479,84	1298,41
480,04	1296,36
480,25	1314,80
480,45	1253,36
480,65	1349,61
480,85	1273,84
481,06	1241,07
481,26	1269,74
481,46	1239,02
481,66	1253,36
481,86	1255,40
482,06	1355,76
482,27	1261,55
482,47	1271,79
482,67	1253,36
482,87	1187,82
483,07	1208,30
483,28	1298,41
483,48	1290,22
483,68	1204,21
483,88	1282,03
484,08	1265,64
484,29	1345,52
484,49	1255,40
484,69	1345,52
484,89	1282,03
485,09	1318,89
485,29	1284,08
485,50	1273,84
485,70	1282,03
485,90	1298,41
486,10	1359,85
486,30	1255,40
486,50	1273,84
486,71	1298,41
486,91	1314,80
487,11	1277,93
487,31	1320,94
487,51	1265,64
487,71	1325,04
487,91	1286,12
488,12	1269,74
488,32	1288,17
488,52	1251,31
488,72	1284,08
488,92	1298,41
489,12	1200,11
489,32	1277,93
489,53	1316,84
489,73	1255,40
489,93	1265,64
490,13	1243,12
490,33	1208,30
490,53	1302,51
490,73	1286,12
490,94	1277,93
491,14	1290,22
491,34	1263,60
491,54	1263,60
491,74	1263,60
491,94	1273,84
492,14	1294,32
492,34	1288,17
492,54	1296,36
492,75	1241,07
492,95	1267,69
493,15	1273,84
493,35	1277,93
493,55	1253,36
493,75	1316,84
493,95	1247,21
494,15	1191,92
494,35	1318,89
494,56	1306,60
494,76	1327,08
494,96	1314,80
495,16	1312,75
495,36	1257,45
495,56	1226,73
495,76	1290,22
495,96	1255,40
496,16	1234,93
496,36	1241,07
496,56	1312,75
496,77	1345,52
496,97	1234,93
497,17	1318,89
497,37	1265,64
497,57	1249,26
497,77	1261,55
497,97	1269,74
498,17	1310,70
498,37	1228,78
498,57	1261,55
498,77	1247,21
498,97	1288,17
499,17	1298,41
499,38	1273,84
499,58	1288,17
499,78	1243,12
499,98	1245,16
500,18	1267,69
500,38	1230,83
500,58	1302,51
500,78	1239,02
500,98	1298,41
501,18	1277,93
501,38	1263,60
501,58	1259,50
501,78	1208,30
501,98	1247,21
502,18	1269,74
502,38	1271,79
502,58	1245,16
502,78	1306,60
502,98	1243,12
503,18	1247,21
503,38	1251,31
503,59	1310,70
503,79	1269,74
503,99	1257,45
504,19	1255,40
504,39	1265,64
504,59	1325,04
504,79	1277,93
504,99	1286,12
505,19	1261,55
505,39	1232,88
505,59	1224,69
505,79	1179,63
505,99	1298,41
506,19	1218,54
506,39	1314,80
506,59	1189,87
506,79	1322,99
506,99	1224,69
507,19	1208,30
507,39	1312,75
507,59	1245,16
507,79	1312,75
507,99	1271,79
508,19	1239,02
508,39	1273,84
508,59	1282,03
508,79	1261,55
508,99	1239,02
509,19	1263,60
509,39	1198,06
509,59	1329,13
509,79	1277,93
509,99	1210,35
510,19	1230,83
510,39	1333,23
510,59	1224,69
510,79	1345,52
510,99	1284,08
511,19	1187,82
511,39	1290,22
511,59	1296,36
511,79	1322,99
511,99	1232,88
512,19	1294,32
512,38	1329,13
512,58	1261,55
512,78	1271,79
512,98	1300,46
513,18	1314,80
513,38	1294,32
513,58	1222,64
513,78	1322,99
513,98	1234,93
514,18	1239,02
514,38	1322,99
514,58	1294,32
514,78	1320,94
514,98	1333,23
515,18	1273,84
515,38	1304,56
515,58	1214,45
515,78	1236,97
515,98	1304,56
516,18	1253,36
516,38	1222,64
516,57	1316,84
516,77	1265,64
516,97	1275,88
517,17	1314,80
517,37	1331,18
517,57	1279,98
517,77	1310,70
517,97	1232,88
518,17	1236,97
518,37	1269,74
518,57	1218,54
518,77	1273,84
518,97	1296,36
519,16	1327,08
519,36	1294,32
519,56	1214,45
519,76	1222,64
519,96	1302,51
520,16	1294,32
520,36	1331,18
520,56	1243,12
520,76	1198,06
520,96	1259,50
521,16	1265,64
521,35	1251,31
521,55	1249,26
521,75	1249,26
521,95	1222,64
522,15	1269,74
522,35	1322,99
522,55	1273,84
522,75	1259,50
522,95	1208,30
523,14	1263,60
523,34	1185,77
523,54	1271,79
523,74	1259,50
523,94	1230,83
524,14	1257,45
524,34	1273,84
524,54	1236,97
524,73	1261,55
524,93	1294,32
525,13	1241,07
525,33	1220,59
525,53	1247,21
525,73	1273,84
525,93	1263,60
526,13	1294,32
526,32	1275,88
526,52	1210,35
526,72	1208,30
526,92	1316,84
527,12	1255,40
527,32	1230,83
527,52	1265,64
527,71	1312,75
527,91	1325,04
528,11	1290,22
528,31	1357,80
528,51	1279,98
528,71	1290,22
528,90	1286,12
529,10	1294,32
529,30	1314,80
529,50	1329,13
529,70	1241,07
529,90	1253,36
530,09	1335,28
530,29	1275,88
530,49	1261,55
530,69	1306,60
530,89	1241,07
531,09	1292,27
531,28	1255,40
531,48	1288,17
531,68	1277,93
531,88	1255,40
532,08	1327,08
532,28	1204,21
532,47	1255,40
532,67	1320,94
532,87	1312,75
533,07	1292,27
533,27	1245,16
533,46	1263,60
533,66	1269,74
533,86	1306,60
534,06	1298,41
534,26	1236,97
534,45	1269,74
534,65	1271,79
534,85	1263,60
535,05	1277,93
535,25	1236,97
535,44	1263,60
535,64	1206,25
535,84	1214,45
536,04	1259,50
536,24	1236,97
536,43	1171,44
536,63	1232,88
536,83	1259,50
537,03	1329,13
537,22	1191,92
537,42	1251,31
537,62	1216,49
537,82	1247,21
538,02	1376,24
538,21	1249,26
538,41	1263,60
538,61	1257,45
538,81	1273,84
539,00	1273,84
539,20	1239,02
539,40	1306,60
539,60	1198,06
539,79	1245,16
539,99	1232,88
540,19	1290,22
540,39	1208,30
540,58	1259,50
540,78	1277,93
540,98	1243,12
541,18	1282,03
541,37	1279,98
541,57	1273,84
541,77	1206,25
541,97	1316,84
542,16	1249,26
542,36	1255,40
542,56	1282,03
542,76	1312,75
542,95	1335,28
543,15	1208,30
543,35	1298,41
543,54	1216,49
543,74	1310,70
543,94	1265,64
544,14	1279,98
544,33	1265,64
544,53	1249,26
544,73	1251,31
544,93	1257,45
545,12	1304,56
545,32	1277,93
545,52	1257,45
545,71	1304,56
545,91	1284,08
546,11	1253,36
546,30	1288,17
546,50	1277,93
546,70	1284,08
546,90	1257,45
547,09	1273,84
547,29	1277,93
547,49	1271,79
547,68	1298,41
547,88	1296,36
548,08	1255,40
548,27	1210,35
548,47	1275,88
548,67	1273,84
548,87	1239,02
549,06	1290,22
549,26	1288,17
549,46	1298,41
549,65	1198,06
549,85	1351,66
550,05	1249,26
550,24	1257,45
550,44	1339,37
550,64	1222,64
550,83	1202,16
551,03	1335,28
551,23	1255,40
551,42	1249,26
551,62	1267,69
551,82	1257,45
552,01	1314,80
552,21	1271,79
552,41	1314,80
552,60	1282,03
552,80	1249,26
553,00	1290,22
553,19	1218,54
553,39	1361,90
553,59	1286,12
553,78	1304,56
553,98	1290,22
554,17	1273,84
554,37	1222,64
554,57	1224,69
554,76	1273,84
554,96	1298,41
555,16	1282,03
555,35	1261,55
555,55	1265,64
555,75	1261,55
555,94	1314,80
556,14	1216,49
556,33	1286,12
556,53	1243,12
556,73	1255,40
556,92	1302,51
557,12	1230,83
557,32	1286,12
557,51	1284,08
557,71	1279,98
557,90	1255,40
558,10	1224,69
558,30	1265,64
558,49	1232,88
558,69	1314,80
558,88	1181,68
559,08	1200,11
559,28	1325,04
559,47	1376,24
559,67	1255,40
559,86	1314,80
560,06	1212,40
560,26	1329,13
560,45	1286,12
560,65	1275,88
560,84	1296,36
561,04	1265,64
561,24	1198,06
561,43	1234,93
561,63	1275,88
561,82	1273,84
562,02	1210,35
562,22	1218,54
562,41	1267,69
562,61	1251,31
562,80	1286,12
563,00	1261,55
563,19	1210,35
563,39	1288,17
563,59	1257,45
563,78	1277,93
563,98	1124,33
564,17	1269,74
564,37	1247,21
564,56	1200,11
564,76	1300,46
564,96	1245,16
565,15	1230,83
565,35	1255,40
565,54	1314,80
565,74	1243,12
565,93	1363,95
566,13	1286,12
566,32	1257,45
566,52	1284,08
566,71	1267,69
566,91	1277,93
567,11	1239,02
567,30	1261,55
567,50	1310,70
567,69	1310,70
567,89	1224,69
568,08	1296,36
568,28	1288,17
568,47	1249,26
568,67	1284,08
568,86	1279,98
569,06	1245,16
569,25	1255,40
569,45	1267,69
569,64	1310,70
569,84	1259,50
570,04	1325,04
570,23	1349,61
570,43	1335,28
570,62	1267,69
570,82	1265,64
571,01	1243,12
571,21	1206,25
571,40	1259,50
571,60	1247,21
571,79	1300,46
571,99	1267,69
572,18	1290,22
572,38	1286,12
572,57	1267,69
572,77	1282,03
572,96	1320,94
573,16	1261,55
573,35	1286,12
573,55	1316,84
573,74	1329,13
573,94	1279,98
574,13	1282,03
574,33	1234,93
574,52	1271,79
574,71	1247,21
574,91	1384,43
575,10	1241,07
575,30	1282,03
575,49	1318,89
575,69	1239,02
575,88	1265,64
576,08	1318,89
576,27	1224,69
576,47	1325,04
576,66	1349,61
576,86	1327,08
577,05	1273,84
577,25	1314,80
577,44	1267,69
577,64	1222,64
577,83	1239,02
578,02	1298,41
578,22	1304,56
578,41	1306,60
578,61	1267,69
578,80	1304,56
579,00	1200,11
579,19	1351,66
579,39	1263,60
579,58	1298,41
579,77	1222,64
579,97	1214,45
580,16	1253,36
580,36	1269,74
580,55	1230,83
580,75	1312,75
580,94	1318,89
581,13	1300,46
581,33	1318,89
581,52	1279,98
581,72	1255,40
581,91	1249,26
582,11	1247,21
582,30	1288,17
582,49	1345,52
582,69	1253,36
582,88	1239,02
583,08	1239,02
583,27	1292,27
583,47	1282,03
583,66	1236,97
583,85	1304,56
584,05	1259,50
584,24	1220,59
584,44	1325,04
584,63	1273,84
584,82	1271,79
585,02	1271,79
585,21	1247,21
585,41	1273,84
585,60	1363,95
585,79	1282,03
585,99	1245,16
586,18	1279,98
586,37	1267,69
586,57	1312,75
586,76	1296,36
586,96	1230,83
587,15	1331,18
587,34	1210,35
587,54	1263,60
587,73	1263,60
587,93	1230,83
588,12	1253,36
588,31	1245,16
588,51	1290,22
588,70	1325,04
588,89	1277,93
589,09	1271,79
589,28	1193,97
589,47	1247,21
589,67	1179,63
589,86	1290,22
590,06	1251,31
590,25	1292,27
590,44	1310,70
590,64	1255,40
590,83	1341,42
591,02	1329,13
591,22	1226,73
591,41	1288,17
591,60	1284,08
591,80	1290,22
591,99	1263,60
592,18	1279,98
592,38	1247,21
592,57	1222,64
592,76	1349,61
592,96	1325,04
593,15	1294,32
593,34	1320,94
593,54	1322,99
593,73	1243,12
593,92	1312,75
594,12	1335,28
594,31	1271,79
594,50	1234,93
594,70	1202,16
594,89	1320,94
595,08	1247,21
595,28	1300,46
595,47	1269,74
595,66	1255,40
595,86	1267,69
596,05	1259,50
596,24	1251,31
596,43	1288,17
596,63	1286,12
596,82	1226,73
597,01	1290,22
597,21	1292,27
597,40	1206,25
597,59	1241,07
597,79	1312,75
597,98	1304,56
598,17	1292,27
598,36	1265,64
598,56	1288,17
598,75	1296,36
598,94	1251,31
599,14	1374,19
599,33	1290,22
599,52	1286,12
599,71	1259,50
599,91	1271,79
600,10	1286,12
600,29	1228,78
600,48	1255,40
600,68	1282,03
600,87	1239,02
601,06	1224,69
601,26	1261,55
601,45	1314,80
601,64	1224,69
601,83	1273,84
602,03	1316,84
602,22	1230,83
602,41	1230,83
602,60	1292,27
602,80	1296,36
602,99	1243,12
603,18	1345,52
603,37	1255,40
603,57	1275,88
603,76	1296,36
603,95	1173,49
604,14	1261,55
604,34	1257,45
604,53	1282,03
604,72	1378,28
604,91	1241,07
605,10	1230,83
605,30	1265,64
605,49	1271,79
605,68	1288,17
605,87	1298,41
606,07	1372,14
606,26	1277,93
606,45	1253,36
606,64	1261,55
606,84	1214,45
607,03	1259,50
607,22	1214,45
607,41	1224,69
607,60	1349,61
607,80	1271,79
607,99	1239,02
608,18	1257,45
608,37	1269,74
608,56	1234,93
608,76	1265,64
608,95	1318,89
609,14	1245,16
609,33	1232,88
609,52	1322,99
609,72	1286,12
609,91	1257,45
610,10	1232,88
610,29	1277,93
610,48	1212,40
610,68	1341,42
610,87	1288,17
611,06	1261,55
611,25	1228,78
611,44	1273,84
611,63	1220,59
611,83	1306,60
612,02	1337,32
612,21	1288,17
612,40	1298,41
612,59	1314,80
612,79	1245,16
612,98	1306,60
613,17	1243,12
613,36	1363,95
613,55	1271,79
613,74	1312,75
613,93	1286,12
614,13	1296,36
614,32	1239,02
614,51	1312,75
614,70	1316,84
614,89	1239,02
615,08	1251,31
615,28	1249,26
615,47	1265,64
615,66	1224,69
615,85	1269,74
616,04	1308,65
616,23	1339,37
616,42	1226,73
616,62	1290,22
616,81	1249,26
617,00	1241,07
617,19	1314,80
617,38	1284,08
617,57	1349,61
617,76	1230,83
617,95	1241,07
618,15	1327,08
618,34	1368,04
618,53	1177,58
618,72	1253,36
618,91	1224,69
619,10	1271,79
619,29	1296,36
619,48	1302,51
619,68	1257,45
619,87	1302,51
620,06	1228,78
620,25	1265,64
620,44	1290,22
620,63	1261,55
620,82	1282,03
621,01	1249,26
621,20	1214,45
621,39	1296,36
621,59	1288,17
621,78	1294,32
621,97	1284,08
622,16	1218,54
622,35	1351,66
622,54	1230,83
622,73	1294,32
622,92	1198,06
623,11	1292,27
623,30	1259,50
623,49	1306,60
623,68	1226,73
623,88	1269,74
624,07	1298,41
624,26	1230,83
624,45	1208,30
624,64	1294,32
624,83	1263,60
625,02	1329,13
625,21	1177,58
625,40	1322,99
625,59	1275,88
625,78	1263,60
625,97	1279,98
626,16	1230,83
626,35	1232,88
626,54	1298,41
626,74	1239,02
626,93	1277,93
627,12	1284,08
627,31	1355,76
627,50	1335,28
627,69	1304,56
627,88	1257,45
628,07	1257,45
628,26	1320,94
628,45	1271,79
628,64	1279,98
628,83	1263,60
629,02	1300,46
629,21	1320,94
629,40	1263,60
629,59	1251,31
629,78	1267,69
629,97	1286,12
630,16	1308,65
630,35	1253,36
630,54	1374,19
630,73	1314,80
630,92	1359,85
631,11	1298,41
631,30	1320,94
631,49	1343,47
631,68	1509,35
631,87	3764,17
632,06	12681,02
632,25	25560,70
632,44	18980,57
632,63	11751,24
632,82	9666,41
633,01	3536,84
633,20	2660,31
633,39	2117,60
633,58	1937,38
633,77	1843,17
633,96	1794,02
634,15	1791,97
634,34	1703,91
634,53	1628,14
634,72	1667,05
634,91	1499,11
635,10	1511,40
635,29	1578,98
635,48	1554,41
635,67	1452,01
635,86	1423,34
636,05	1400,81
636,24	1421,29
636,43	1304,56
636,62	1308,65
636,81	1341,42
637,00	1378,28
637,19	1329,13
637,38	1316,84
637,57	1292,27
637,76	1282,03
637,95	1380,33
638,14	1376,24
638,33	1339,37
638,52	1236,97
638,71	1216,49
638,89	1343,47
639,08	1241,07
639,27	1351,66
639,46	1296,36
639,65	1331,18
639,84	1290,22
640,03	1341,42
640,22	1269,74
640,41	1286,12
640,60	1267,69
640,79	1273,84
640,98	1271,79
641,17	1314,80
641,36	1265,64
641,55	1220,59
641,74	1265,64
641,92	1290,22
642,11	1298,41
642,30	1288,17
642,49	1322,99
642,68	1302,51
642,87	1271,79
643,06	1273,84
643,25	1271,79
643,44	1292,27
643,63	1282,03
643,82	1290,22
644,00	1322,99
644,19	1241,07
644,38	1279,98
644,57	1314,80
644,76	1216,49
644,95	1263,60
645,14	1247,21
645,33	1271,79
645,52	1300,46
645,71	1226,73
645,89	1265,64
646,08	1249,26
646,27	1222,64
646,46	1282,03
646,65	1269,74
646,84	1224,69
647,03	1226,73
647,22	1228,78
647,40	1271,79
647,59	1249,26
647,78	1329,13
647,97	1265,64
648,16	1355,76
648,35	1216,49
648,54	1290,22
648,73	1232,88
648,91	1269,74
649,10	1216,49
649,29	1269,74
649,48	1271,79
649,67	1216,49
649,86	1247,21
650,05	1214,45
650,23	1304,56
650,42	1265,64
650,61	1243,12
650,80	1290,22
650,99	1255,40
651,18	1257,45
651,36	1284,08
651,55	1263,60
651,74	1232,88
651,93	1222,64
652,12	1259,50
652,31	1351,66
652,49	1228,78
652,68	1275,88
652,87	1277,93
653,06	1286,12
653,25	1308,65
653,44	1245,16
653,62	1273,84
653,81	1210,35
654,00	1294,32
654,19	1261,55
654,38	1318,89
654,56	1322,99
654,75	1249,26
654,94	1273,84
655,13	1304,56
655,32	1304,56
655,51	1251,31
655,69	1290,22
655,88	1290,22
656,07	1349,61
656,26	1267,69
656,45	1269,74
656,63	1282,03
656,82	1279,98
657,01	1222,64
657,20	1216,49
657,38	1382,38
657,57	1255,40
657,76	1206,25
657,95	1374,19
658,14	1310,70
658,32	1292,27
658,51	1255,40
658,70	1298,41
658,89	1275,88
659,08	1220,59
659,26	1339,37
659,45	1279,98
659,64	1335,28
659,83	1308,65
660,01	1277,93
660,20	1208,30
660,39	1290,22
660,58	1253,36
660,76	1239,02
660,95	1325,04
661,14	1277,93
661,33	1279,98
661,51	1263,60
661,70	1200,11
661,89	1333,23
662,08	1214,45
662,26	1290,22
662,45	1277,93
662,64	1265,64
662,83	1337,32
663,01	1253,36
663,20	1255,40
663,39	1226,73
663,58	1191,92
663,76	1232,88
663,95	1310,70
664,14	1236,97
664,32	1224,69
664,51	1306,60
664,70	1273,84
664,89	1187,82
665,07	1275,88
665,26	1282,03
665,45	1269,74
665,64	1273,84
665,82	1232,88
666,01	1298,41
666,20	1271,79
666,38	1277,93
666,57	1314,80
666,76	1232,88
666,95	1290,22
667,13	1241,07
667,32	1224,69
667,51	1273,84
667,69	1259,50
667,88	1368,04
668,07	1310,70
668,25	1390,57
668,44	1279,98
668,63	1232,88
668,81	1218,54
669,00	1230,83
669,19	1140,72
669,38	1181,68
669,56	1312,75
669,75	1312,75
669,94	1236,97
670,12	1322,99
670,31	1228,78
670,50	1318,89
670,68	1257,45
670,87	1228,78
671,06	1218,54
671,24	1273,84
671,43	1253,36
671,62	1347,56
671,80	1292,27
671,99	1249,26
672,18	1255,40
672,36	1267,69
672,55	1251,31
672,74	1247,21
672,92	1261,55
673,11	1318,89
673,29	1218,54
673,48	1249,26
673,67	1204,21
673,85	1339,37
674,04	1347,56
674,23	1216,49
674,41	1292,27
674,60	1271,79
674,79	1298,41
674,97	1232,88
675,16	1322,99
675,34	1249,26
675,53	1236,97
675,72	1282,03
675,90	1261,55
676,09	1353,71
676,28	1318,89
676,46	1275,88
676,65	1294,32
676,83	1294,32
677,02	1322,99
677,21	1230,83
677,39	1290,22
677,58	1292,27
677,77	1269,74
677,95	1298,41
678,14	1345,52
678,32	1284,08
678,51	1230,83
678,70	1259,50
678,88	1302,51
679,07	1351,66
679,25	1210,35
679,44	1275,88
679,63	1222,64
679,81	1263,60
680,00	1376,24
680,18	1273,84
680,37	1230,83
680,55	1257,45
680,74	1277,93
680,93	1290,22
681,11	1234,93
681,30	1241,07
681,48	1333,23
681,67	1300,46
681,85	1226,73
682,04	1239,02
682,23	1208,30
682,41	1277,93
682,60	1226,73
682,78	1267,69
682,97	1290,22
683,15	1296,36
683,34	1261,55
683,53	1269,74
683,71	1257,45
683,90	1245,16
684,08	1288,17
684,27	1261,55
684,45	1273,84
684,64	1273,84
684,82	1271,79
685,01	1302,51
685,19	1316,84
685,38	1253,36
685,57	1251,31
685,75	1298,41
685,94	1279,98
686,12	1308,65
686,31	1271,79
686,49	1302,51
686,68	1304,56
686,86	1302,51
687,05	1294,32
687,23	1263,60
687,42	1239,02
687,60	1290,22
687,79	1284,08
687,97	1265,64
688,16	1253,36
688,34	1275,88
688,53	1279,98
688,71	1212,40
688,90	1275,88
689,08	1318,89
689,27	1255,40
689,45	1282,03
689,64	1251,31
689,82	1263,60
690,01	1249,26
690,19	1230,83
690,38	1253,36
690,56	1263,60
690,75	1144,81
690,93	1302,51
691,12	1269,74
691,30	1329,13
691,49	1288,17
691,67	1347,56
691,86	1277,93
692,04	1265,64
692,23	1273,84
692,41	1232,88
692,60	1208,30
692,78	1247,21
692,97	1284,08
693,15	1273,84
693,34	1228,78
693,52	1290,22
693,71	1284,08
693,89	1292,27
694,08	1251,31
694,26	1247,21
694,44	1282,03
694,63	1261,55
694,81	1206,25
695,00	1245,16
695,18	1241,07
695,37	1263,60
695,55	1327,08
695,74	1218,54
695,92	1275,88
696,10	1249,26
696,29	1259,50
696,47	1290,22
696,66	1263,60
696,84	1312,75
697,03	1284,08
697,21	1265,64
697,40	1292,27
697,58	1261,55
697,76	1220,59
697,95	1292,27
698,13	1308,65
698,32	1234,93
698,50	1345,52
698,68	1292,27
698,87	1306,60
699,05	1294,32
699,24	1284,08
699,42	1279,98
699,61	1353,71
699,79	1294,32
699,97	1269,74
700,16	1298,41
700,34	1249,26
700,53	1345,52
700,71	1198,06
700,89	1263,60
701,08	1185,77
701,26	1277,93
701,45	1263,60
701,63	1271,79
701,81	1273,84
702,00	1279,98
702,18	1314,80
702,37	1257,45
702,55	1275,88
702,73	1298,41
702,92	1279,98
703,10	1239,02
703,28	1179,63
703,47	1282,03
703,65	1204,21
703,84	1251,31
704,02	1243,12
704,20	1282,03
704,39	1296,36
704,57	1275,88
704,75	1220,59
704,94	1308,65
705,12	1253,36
705,30	1275,88
705,49	1322,99
705,67	1247,21
705,86	1304,56
706,04	1279,98
706,22	1286,12
706,41	1271,79
706,59	1308,65
706,77	1267,69
706,96	1265,64
707,14	1255,40
707,32	1265,64
707,51	1241,07
707,69	1347,56
707,87	1208,30
708,06	1269,74
708,24	1249,26
708,42	1300,46
708,61	1298,41
708,79	1216,49
708,97	1232,88
709,16	1355,76
709,34	1210,35
709,52	1271,79
709,71	1302,51
709,89	1310,70
710,07	1314,80
710,26	1253,36
710,44	1269,74
710,62	1228,78
710,80	1304,56
710,99	1271,79
711,17	1347,56
711,35	1247,21
711,54	1306,60
711,72	1314,80
711,90	1259,50
712,09	1220,59
712,27	1314,80
712,45	1318,89
712,63	1308,65
712,82	1189,87
713,00	1290,22
713,18	1247,21
713,37	1253,36
713,55	1267,69
713,73	1224,69
713,91	1282,03
714,10	1222,64
714,28	1277,93
714,46	1294,32
714,65	1322,99
714,83	1277,93
715,01	1249,26
715,19	1320,94
715,38	1208,30
715,56	1292,27
715,74	1220,59
715,92	1286,12
716,11	1302,51
716,29	1212,40
716,47	1286,12
716,65	1232,88
716,84	1290,22
717,02	1359,85
717,20	1355,76
717,38	1232,88
717,57	1300,46
717,75	1269,74
717,93	1230,83
718,11	1292,27
718,30	1241,07
718,48	1261,55
718,66	1230,83
718,84	1267,69
719,03	1325,04
719,21	1245,16
719,39	1318,89
719,57	1273,84
719,75	1234,93
719,94	1286,12
720,12	1255,40
720,30	1282,03
720,48	1271,79
720,67	1257,45
720,85	1282,03
721,03	1241,07
721,21	1327,08
721,39	1277,93
721,58	1257,45
721,76	1288,17
721,94	1322,99
722,12	1253,36
722,30	1308,65
722,49	1277,93
722,67	1257,45
722,85	1341,42
723,03	1239,02
723,21	1306,60
723,40	1255,40
723,58	1304,56
723,76	1218,54
723,94	1290,22
724,12	1251,31
724,30	1257,45
724,49	1253,36
724,67	1304,56
724,85	1275,88
725,03	1249,26
725,21	1218,54
725,40	1298,41
725,58	1247,21
725,76	1304,56
725,94	1267,69
726,12	1265,64
726,30	1232,88
726,49	1273,84
726,67	1253,36
726,85	1271,79
727,03	1318,89
727,21	1263,60
727,39	1265,64
727,57	1341,42
727,76	1228,78
727,94	1249,26
728,12	1271,79
728,30	1210,35
728,48	1234,93
728,66	1292,27
728,84	1245,16
729,03	1263,60
729,21	1267,69
729,39	1196,01
729,57	1316,84
729,75	1241,07
729,93	1245,16
730,11	1320,94
730,30	1257,45
730,48	1243,12
730,66	1294,32
730,84	1308,65
731,02	1265,64
731,20	1247,21
731,38	1339,37
731,56	1255,40
731,74	1265,64
731,93	1290,22
732,11	1241,07
732,29	1306,60
732,47	1216,49
732,65	1312,75
732,83	1198,06
733,01	1273,84
733,19	1275,88
733,37	1173,49
733,56	1267,69
733,74	1230,83
733,92	1300,46
734,10	1247,21
734,28	1304,56
734,46	1243,12
734,64	1288,17
734,82	1224,69
735,00	1275,88
735,18	1265,64
735,36	1257,45
735,54	1261,55
735,73	1376,24
735,91	1343,47
736,09	1322,99
736,27	1314,80
736,45	1261,55
736,63	1243,12
736,81	1302,51
736,99	1273,84
737,17	1239,02
737,35	1269,74
737,53	1363,95
737,71	1273,84
737,89	1261,55
738,07	1249,26
738,25	1257,45
738,43	1259,50
738,61	1245,16
738,80	1212,40
738,98	1212,40
739,16	1236,97
739,34	1218,54
739,52	1357,80
739,70	1275,88
739,88	1290,22
740,06	1310,70
740,24	1249,26
740,42	1255,40
740,60	1286,12
740,78	1306,60
740,96	1269,74
741,14	1294,32
741,32	1265,64
741,50	1308,65
741,68	1282,03
741,86	1296,36
742,04	1230,83
742,22	1243,12
742,40	1300,46
742,58	1329,13
742,76	1320,94
742,94	1216,49
743,12	1300,46
743,30	1296,36
743,48	1322,99
743,66	1304,56
743,84	1267,69
744,02	1277,93
744,20	1316,84
744,38	1341,42
744,56	1288,17
744,74	1314,80
744,92	1271,79
745,10	1306,60
745,28	1302,51
745,46	1288,17
745,64	1269,74
745,82	1265,64
746,00	1271,79
746,18	1222,64
746,36	1206,25
746,54	1226,73
746,72	1255,40
746,90	1247,21
747,08	1304,56
747,26	1247,21
747,44	1288,17
747,62	1275,88
747,80	1255,40
747,98	1361,90
748,15	1294,32
748,33	1230,83
748,51	1232,88
748,69	1306,60
748,87	1304,56
749,05	1224,69
749,23	1286,12
749,41	1212,40
749,59	1249,26
749,77	1241,07
749,95	1181,68
750,13	1265,64
750,31	1273,84
750,49	1245,16
750,67	1284,08
750,85	1282,03
751,03	1204,21
751,20	1314,80
751,38	1286,12
751,56	1306,60
751,74	1271,79
751,92	1232,88
752,10	1343,47
752,28	1312,75
752,46	1220,59
752,64	1239,02
752,82	1208,30
753,00	1322,99
753,18	1331,18
753,35	1249,26
753,53	1343,47
753,71	1230,83
753,89	1255,40
754,07	1310,70
754,25	1273,84
754,43	1232,88
754,61	1265,64
754,79	1290,22
754,97	1302,51
755,14	1214,45
755,32	1335,28
755,50	1335,28
755,68	1331,18
755,86	1224,69
756,04	1306,60
756,22	1304,56
756,40	1282,03
756,57	1306,60
756,75	1249,26
756,93	1202,16
757,11	1341,42
757,29	1230,83
757,47	1286,12
757,65	1290,22
757,82	1230,83
758,00	1273,84
758,18	1204,21
758,36	1232,88
758,54	1331,18
758,72	1253,36
758,90	1290,22
759,07	1206,25
759,25	1288,17
759,43	1239,02
759,61	1239,02
759,79	1298,41
759,97	1298,41
760,15	1198,06
760,32	1267,69
760,50	1312,75
760,68	1292,27
760,86	1294,32
761,04	1296,36
761,22	1218,54
761,39	1314,80
761,57	1222,64
761,75	1243,12
761,93	1232,88
762,11	1277,93
762,28	1265,64
762,46	1271,79
762,64	1304,56
762,82	1226,73
763,00	1253,36
763,18	1239,02
763,35	1253,36
763,53	1302,51
763,71	1277,93
763,89	1241,07
764,07	1216,49
764,24	1234,93
764,42	1245,16
764,60	1265,64
764,78	1290,22
764,96	1251,31
765,13	1263,60
765,31	1228,78
765,49	1267,69
765,67	1255,40
765,84	1267,69
766,02	1261,55
766,20	1224,69
766,38	1316,84
766,56	1249,26
766,73	1179,63
766,91	1294,32
767,09	1273,84
767,27	1245,16
767,44	1335,28
767,62	1271,79
767,80	1318,89
767,98	1245,16
768,15	1310,70
768,33	1275,88
768,51	1308,65
768,69	1310,70
768,87	1288,17
769,04	1265,64
769,22	1351,66
769,40	1298,41
769,58	1316,84
769,75	1347,56
769,93	1292,27
770,11	1290,22
770,28	1253,36
770,46	1271,79
770,64	1196,01
770,82	1222,64
770,99	1267,69
771,17	1239,02
771,35	1249,26
771,53	1275,88
771,70	1261,55
771,88	1255,40
772,06	1271,79
772,23	1320,94
772,41	1322,99
772,59	1265,64
772,77	1312,75
772,94	1310,70
773,12	1284,08
773,30	1290,22
773,47	1208,30
773,65	1279,98
773,83	1218,54
774,01	1253,36
774,18	1255,40
774,36	1337,32
774,54	1271,79
774,71	1228,78
774,89	1314,80
775,07	1265,64
775,24	1288,17
775,42	1292,27
775,60	1265,64
775,78	1353,71
775,95	1282,03
776,13	1232,88
776,31	1245,16
776,48	1239,02
776,66	1331,18
776,84	1292,27
777,01	1224,69
777,19	1271,79
777,37	1304,56
777,54	1347,56
777,72	1296,36
777,90	1218,54
778,07	1230,83
778,25	1255,40
778,43	1243,12
778,60	1374,19
778,78	1243,12
778,96	1288,17
779,13	1228,78
779,31	1202,16
779,49	1247,21
779,66	1282,03
779,84	1304,56
780,01	1286,12
780,19	1308,65
780,37	1331,18
780,54	1198,06
780,72	1267,69
780,90	1304,56
781,07	1288,17
781,25	1331,18
781,43	1288,17
781,60	1265,64
781,78	1308,65
781,95	1294,32
782,13	1302,51
782,31	1175,53
782,48	1183,73
782,66	1288,17
782,83	1306,60
783,01	1282,03
783,19	1302,51
783,36	1189,87
783,54	1314,80
783,72	1300,46
783,89	1279,98
784,07	1243,12
784,24	1300,46
784,42	1257,45
784,60	1261,55
784,77	1206,25
784,95	1183,73
785,12	1232,88
785,30	1259,50
785,47	1243,12
785,65	1202,16
785,83	1247,21
786,00	1191,92
786,18	1241,07
786,35	1282,03
786,53	1224,69
786,71	1214,45
786,88	1298,41
787,06	1294,32
787,23	1228,78
787,41	1290,22
787,58	1308,65
787,76	1187,82
787,94	1236,97
788,11	1329,13
788,29	1220,59
788,46	1298,41
788,64	1239,02
788,81	1204,21
788,99	1273,84
789,16	1263,60
789,34	1267,69
789,52	1290,22
789,69	1347,56
789,87	1269,74
790,04	1218,54
790,22	1253,36
790,39	1259,50
790,57	1251,31
790,74	1312,75
790,92	1273,84
791,09	1251,31
791,27	1236,97
791,44	1359,85
791,62	1245,16
791,79	1271,79
791,97	1224,69
792,15	1331,18
792,32	1232,88
792,50	1267,69
792,67	1290,22
792,85	1296,36
793,02	1239,02
793,20	1196,01
793,37	1269,74
793,55	1284,08
793,72	1282,03
793,90	1232,88
794,07	1290,22
794,25	1327,08
794,42	1269,74
794,60	1386,47
794,77	1271,79
794,95	1286,12
795,12	1257,45
795,30	1232,88
795,47	1220,59
795,65	1341,42
795,82	1269,74
796,00	1325,04
796,17	1228,78
796,34	1273,84
796,52	1226,73
796,69	1218,54
796,87	1191,92
797,04	1275,88
797,22	1232,88
797,39	1284,08
797,57	1273,84
797,74	1273,84
797,92	1341,42
798,09	1226,73
798,27	1212,40
798,44	1232,88
798,62	1236,97
798,79	1312,75
798,96	1275,88
799,14	1331,18
799,31	1316,84
799,49	1249,26
799,66	1255,40
799,84	1288,17
800,01	1267,69
800,19	1322,99
800,36	1265,64
800,53	1300,46
800,71	1292,27
800,88	1298,41
801,06	1232,88
801,23	1286,12
801,41	1267,69
801,58	1275,88
801,75	1294,32
801,93	1239,02
802,10	1230,83
802,28	1325,04
802,45	1273,84
802,63	1253,36
802,80	1306,60
802,97	1331,18
803,15	1273,84
803,32	1239,02
803,50	1282,03
803,67	1251,31
803,84	1206,25
804,02	1271,79
804,19	1304,56
804,37	1179,63
804,54	1204,21
804,71	1320,94
804,89	1286,12
805,06	1183,73
805,24	1290,22
805,41	1216,49
805,58	1204,21
805,76	1239,02
805,93	1239,02
806,10	1259,50
806,28	1316,84
806,45	1267,69
806,63	1236,97
806,80	1337,32
806,97	1269,74
807,15	1343,47
807,32	1284,08
807,49	1265,64
807,67	1275,88
807,84	1308,65
808,01	1247,21
808,19	1298,41
808,36	1261,55
808,54	1304,56
808,71	1273,84
808,88	1288,17
809,06	1329,13
809,23	1202,16
809,40	1265,64
809,58	1241,07
809,75	1269,74
809,92	1288,17
810,10	1277,93
810,27	1282,03
810,44	1310,70
810,62	1296,36
810,79	1232,88
810,96	1236,97
811,14	1230,83
811,31	1361,90
811,48	1224,69
811,66	1265,64
811,83	1273,84
812,00	1288,17
812,18	1306,60
812,35	1271,79
812,52	1265,64
812,69	1337,32
812,87	1249,26
813,04	1361,90
813,21	1202,16
813,39	1277,93
813,56	1337,32
813,73	1300,46
813,91	1300,46
814,08	1296,36
814,25	1308,65
814,42	1286,12
814,60	1265,64
814,77	1292,27
814,94	1263,60
815,12	1261,55
815,29	1257,45
815,46	1312,75
815,63	1294,32
815,81	1267,69
815,98	1202,16
816,15	1183,73
816,33	1255,40
816,50	1226,73
816,67	1259,50
816,84	1138,67
817,02	1206,25
817,19	1275,88
817,36	1220,59
817,53	1275,88
817,71	1277,93
817,88	1312,75
818,05	1249,26
818,22	1241,07
818,40	1284,08
818,57	1216,49
818,74	1286,12
818,91	1179,63
819,09	1286,12
819,26	1273,84
819,43	1271,79
819,60	1230,83
819,78	1228,78
819,95	1298,41
820,12	1312,75
820,29	1224,69
820,47	1306,60
820,64	1286,12
820,81	1245,16
820,98	1193,97
821,15	1206,25
821,33	1314,80
821,50	1308,65
821,67	1267,69
821,84	1300,46
822,02	1282,03
822,19	1322,99
822,36	1277,93
822,53	1257,45
822,70	1234,93
822,88	1234,93
823,05	1214,45
823,22	1257,45
823,39	1243,12
823,56	1294,32
823,74	1304,56
823,91	1236,97
824,08	1239,02
824,25	1277,93
824,42	1318,89
824,60	1271,79
824,77	1224,69
824,94	1261,55
825,11	1228,78
825,28	1275,88
825,45	1296,36
825,63	1337,32
825,80	1263,60
825,97	1263,60
826,14	1290,22
826,31	1263,60
826,48	1296,36
826,66	1269,74
826,83	1230,83
827,00	1265,64
827,17	1263,60
827,34	1226,73
827,51	1255,40
827,69	1253,36
827,86	1327,08
828,03	1232,88
828,20	1296,36
828,37	1249,26
828,54	1259,50
828,71	1255,40
828,89	1318,89
829,06	1214,45
829,23	1300,46
829,40	1286,12
829,57	1236,97
829,74	1257,45
829,91	1292,27
830,09	1228,78
830,26	1277,93
830,43	1325,04
830,60	1316,84
830,77	1249,26
830,94	1296,36
831,11	1279,98
831,28	1290,22
831,46	1249,26
831,63	1282,03
831,80	1232,88
831,97	1267,69
832,14	1267,69
832,31	1257,45
832,48	1243,12
832,65	1198,06
832,82	1189,87
832,99	1257,45
833,17	1226,73
833,34	1316,84
833,51	1312,75
833,68	1187,82
833,85	1310,70
834,02	1212,40
834,19	1241,07
834,36	1189,87
834,53	1257,45
834,70	1314,80
834,87	1245,16
835,04	1222,64
835,22	1320,94
835,39	1239,02
835,56	1263,60
835,73	1208,30
835,90	1253,36
836,07	1253,36
836,24	1243,12
836,41	1196,01
836,58	1259,50
836,75	1257,45
836,92	1247,21
837,09	1282,03
837,26	1310,70
837,43	1159,15
837,60	1222,64
837,77	1322,99
837,94	1265,64
838,12	1224,69
838,29	1279,98
838,46	1279,98
838,63	1277,93
838,80	1263,60
838,97	1230,83
839,14	1241,07
839,31	1304,56
839,48	1247,21
839,65	1267,69
839,82	1245,16
839,99	1261,55
840,16	1290,22
840,33	1302,51
840,50	1284,08
840,67	1255,40
840,84	1277,93
841,01	1226,73
841,18	1249,26
841,35	1263,60
841,52	1249,26
841,69	1282,03
841,86	1288,17
842,03	1247,21
842,20	1275,88
842,37	1224,69
842,54	1318,89
842,71	1284,08
842,88	1269,74
843,05	1275,88
843,22	1253,36
843,39	1282,03
843,56	1312,75
843,73	1300,46
843,90	1269,74
844,07	1239,02
844,24	1335,28
844,41	1288,17
844,58	1269,74
844,75	1249,26
844,92	1290,22
845,09	1355,76
845,26	1241,07
845,43	1245,16
845,60	1249,26
845,77	1255,40
845,94	1310,70
846,10	1247,21
846,27	1234,93
846,44	1259,50
846,61	1308,65
846,78	1288,17
846,95	1263,60
847,12	1253,36
847,29	1341,42
847,46	1290,22
847,63	1363,95
847,80	1198,06
847,97	1290,22
848,14	1300,46
848,31	1267,69
848,48	1253,36
848,65	1310,70
848,82	1284,08
848,98	1218,54
849,15	1200,11
849,32	1300,46
849,49	1247,21
849,66	1255,40
849,83	1220,59
850,00	1224,69
850,17	1214,45
850,34	1224,69
850,51	1296,36
850,68	1263,60
850,85	1249,26
851,01	1273,84
851,18	1277,93
851,35	1191,92
851,52	1316,84
851,69	1220,59
851,86	1257,45
852,03	1273,84
852,20	1271,79
852,37	1216,49
852,53	1206,25
852,70	1267,69
852,87	1302,51
853,04	1275,88
853,21	1273,84
853,38	1224,69
853,55	1333,23
853,72	1316,84
853,89	1290,22
854,05	1296,36
854,22	1273,84
854,39	1284,08
854,56	1288,17
854,73	1247,21
854,90	1277,93
855,07	1277,93
855,23	1230,83
855,40	1249,26
855,57	1271,79
855,74	1208,30
855,91	1198,06
856,08	1312,75
856,25	1191,92
856,41	1288,17
856,58	1284,08
856,75	1288,17
856,92	1253,36
857,09	1277,93
857,26	1253,36
857,42	1249,26
857,59	1234,93
857,76	1337,32
857,93	1148,91
858,10	1331,18
858,27	1265,64
858,43	1234,93
858,60	1230,83
858,77	1325,04
858,94	1181,68
859,11	1263,60
859,27	1316,84
859,44	1265,64
859,61	1331,18
859,78	1255,40
859,95	1288,17
860,12	1249,26
860,28	1361,90
860,45	1322,99
860,62	1239,02
860,79	1232,88
860,95	1349,61
861,12	1243,12
861,29	1253,36
861,46	1282,03
861,63	1292,27
861,79	1204,21
861,96	1232,88
862,13	1298,41
862,30	1245,16
862,47	1292,27
862,63	1255,40
862,80	1329,13
862,97	1210,35
863,14	1325,04
863,30	1337,32
863,47	1302,51
863,64	1284,08
863,81	1294,32
863,97	1306,60
864,14	1234,93
864,31	1269,74
864,48	1288,17
864,65	1288,17
864,81	1259,50
864,98	1304,56
865,15	1361,90
865,32	1257,45
865,48	1294,32
865,65	1255,40
865,82	1226,73
865,98	1253,36
866,15	1298,41
866,32	1277,93
866,49	1294,32
866,65	1269,74
866,82	1282,03
866,99	1257,45
867,16	1337,32
867,32	1167,34
867,49	1222,64
867,66	1298,41
867,83	1255,40
867,99	1306,60
868,16	1282,03
868,33	1253,36
868,49	1322,99
868,66	1249,26
868,83	1196,01
868,99	1228,78
869,16	1286,12
869,33	1314,80
869,50	1277,93
869,66	1308,65
869,83	1380,33
870,00	1269,74
870,16	1275,88
870,33	1296,36
870,50	1222,64
870,66	1308,65
870,83	1335,28
871,00	1292,27
871,17	1204,21
871,33	1267,69
871,50	1255,40
871,67	1253,36
871,83	1218,54
872,00	1247,21
872,17	1185,77
872,33	1204,21
872,50	1273,84
872,67	1308,65
872,83	1277,93
873,00	1249,26
873,17	1288,17
873,33	1335,28
873,50	1316,84
873,67	1300,46
873,83	1290,22
874,00	1204,21
874,16	1226,73
874,33	1265,64
874,50	1380,33
874,66	1306,60
874,83	1312,75
875,00	1298,41
875,16	1271,79
875,33	1243,12
875,50	1275,88
875,66	1286,12
875,83	1304,56
875,99	1202,16
876,16	1247,21
876,33	1236,97
876,49	1300,46
876,66	1257,45
876,83	1282,03
876,99	1204,21
877,16	1304,56
877,32	1232,88
877,49	1275,88
877,66	1294,32
877,82	1265,64
877,99	1286,12
878,15	1210,35
878,32	1294,32
878,49	1327,08
878,65	1353,71
878,82	1304,56
878,98	1288,17
879,15	1314,80
879,32	1314,80
879,48	1198,06
879,65	1247,21
879,81	1226,73
879,98	1300,46
880,15	1325,04
880,31	1220,59
880,48	1296,36
880,64	1159,15
880,81	1290,22
880,97	1216,49
881,14	1257,45
881,31	1300,46
881,47	1308,65
881,64	1241,07
881,80	1261,55
881,97	1255,40
882,13	1294,32
882,30	1273,84
882,47	1214,45
882,63	1288,17
882,80	1169,39
882,96	1257,45
883,13	1333,23
883,29	1230,83
883,46	1269,74
883,62	1275,88
883,79	1277,93
883,95	1271,79
884,12	1282,03
884,29	1257,45
884,45	1179,63
884,62	1279,98
884,78	1257,45
884,95	1353,71
885,11	1302,51
885,28	1298,41
885,44	1298,41
885,61	1263,60
885,77	1261,55
885,94	1222,64
886,10	1337,32
886,27	1310,70
886,43	1214,45
886,60	1261,55
886,76	1282,03
886,93	1253,36
887,09	1255,40
887,26	1257,45
887,42	1284,08
887,59	1265,64
887,75	1310,70
887,92	1247,21
888,08	1284,08
888,25	1234,93
888,41	1345,52
888,58	1335,28
888,74	1243,12
888,91	1273,84
>>>>>End Processed Spectral Data<<<<<
