SpectraSuite Data File
++++++++++++++++++++++++++++++++++++
Date: Sun Apr 03 15:56:34 CEST 2016
User: root
Dark Spectrum Present: No
Reference Spectrum Present: No
Number of Sampled Component Spectra: 1
Spectrometers: USB4C02835
Integration Time (usec): 10000 (USB4C02835)
Spectra Averaged: 1 (USB4C02835)
Boxcar Smoothing: 0 (USB4C02835)
Correct for Electrical Dark: No (USB4C02835)
Strobe/Lamp Enabled: No (USB4C02835)
Correct for Detector Non-linearity: No (USB4C02835)
Correct for Stray Light: No (USB4C02835)
Number of Pixels in Processed Spectrum: 3648
>>>>>Begin Processed Spectral Data<<<<<
177,47	1249,26
177,69	1249,26
177,91	1249,26
178,13	1239,02
178,36	1253,36
178,58	1316,84
178,80	1277,93
179,02	1236,97
179,24	1241,07
179,46	1236,97
179,68	1306,60
179,90	1308,65
180,13	1335,28
180,35	1210,35
180,57	1273,84
180,79	1269,74
181,01	1288,17
181,23	1296,36
181,45	1273,84
181,67	1298,41
181,90	1335,28
182,12	1298,41
182,34	1333,23
182,56	1232,88
182,78	1245,16
183,00	1261,55
183,22	1308,65
183,44	1267,69
183,66	1279,98
183,89	1249,26
184,11	1255,40
184,33	1279,98
184,55	1212,40
184,77	1271,79
184,99	1257,45
185,21	1191,92
185,43	1327,08
185,65	1241,07
185,87	1331,18
186,10	1271,79
186,32	1320,94
186,54	1261,55
186,76	1294,32
186,98	1267,69
187,20	1304,56
187,42	1304,56
187,64	1363,95
187,86	1271,79
188,08	1255,40
188,30	1253,36
188,52	1302,51
188,75	1263,60
188,97	1247,21
189,19	1232,88
189,41	1263,60
189,63	1282,03
189,85	1247,21
190,07	1222,64
190,29	1241,07
190,51	1290,22
190,73	1228,78
190,95	1300,46
191,17	1241,07
191,39	1271,79
191,61	1255,40
191,84	1241,07
192,06	1251,31
192,28	1251,31
192,50	1306,60
192,72	1273,84
192,94	1333,23
193,16	1234,93
193,38	1279,98
193,60	1241,07
193,82	1277,93
194,04	1298,41
194,26	1275,88
194,48	1255,40
194,70	1279,98
194,92	1269,74
195,14	1230,83
195,36	1189,87
195,58	1325,04
195,80	1226,73
196,02	1286,12
196,24	1249,26
196,46	1257,45
196,69	1331,18
196,91	1349,61
197,13	1298,41
197,35	1239,02
197,57	1249,26
197,79	1288,17
198,01	1300,46
198,23	1271,79
198,45	1269,74
198,67	1257,45
198,89	1253,36
199,11	1247,21
199,33	1298,41
199,55	1275,88
199,77	1249,26
199,99	1267,69
200,21	1273,84
200,43	1304,56
200,65	1175,53
200,87	1306,60
201,09	1187,82
201,31	1331,18
201,53	1304,56
201,75	1290,22
201,97	1282,03
202,19	1331,18
202,41	1331,18
202,63	1325,04
202,85	1277,93
203,07	1265,64
203,29	1312,75
203,51	1292,27
203,73	1191,92
203,95	1339,37
204,17	1279,98
204,39	1224,69
204,61	1290,22
204,83	1302,51
205,05	1277,93
205,27	1290,22
205,49	1277,93
205,71	1257,45
205,93	1239,02
206,15	1171,44
206,37	1234,93
206,59	1286,12
206,81	1290,22
207,03	1255,40
207,25	1286,12
207,47	1206,25
207,69	1267,69
207,91	1298,41
208,13	1234,93
208,34	1314,80
208,56	1257,45
208,78	1296,36
209,00	1267,69
209,22	1224,69
209,44	1204,21
209,66	1232,88
209,88	1267,69
210,10	1304,56
210,32	1275,88
210,54	1241,07
210,76	1345,52
210,98	1230,83
211,20	1269,74
211,42	1236,97
211,64	1232,88
211,86	1247,21
212,08	1265,64
212,30	1232,88
212,52	1335,28
212,74	1308,65
212,96	1259,50
213,17	1279,98
213,39	1370,09
213,61	1263,60
213,83	1257,45
214,05	1302,51
214,27	1310,70
214,49	1232,88
214,71	1257,45
214,93	1345,52
215,15	1249,26
215,37	1253,36
215,59	1255,40
215,81	1277,93
216,03	1282,03
216,24	1212,40
216,46	1228,78
216,68	1314,80
216,90	1247,21
217,12	1255,40
217,34	1308,65
217,56	1314,80
217,78	1249,26
218,00	1265,64
218,22	1288,17
218,44	1286,12
218,66	1241,07
218,87	1269,74
219,09	1290,22
219,31	1318,89
219,53	1230,83
219,75	1294,32
219,97	1275,88
220,19	1329,13
220,41	1327,08
220,63	1220,59
220,85	1216,49
221,06	1353,71
221,28	1273,84
221,50	1290,22
221,72	1279,98
221,94	1257,45
222,16	1257,45
222,38	1345,52
222,60	1275,88
222,82	1228,78
223,03	1265,64
223,25	1292,27
223,47	1220,59
223,69	1331,18
223,91	1241,07
224,13	1220,59
224,35	1191,92
224,57	1282,03
224,78	1206,25
225,00	1316,84
225,22	1202,16
225,44	1269,74
225,66	1302,51
225,88	1282,03
226,10	1265,64
226,32	1181,68
226,53	1249,26
226,75	1247,21
226,97	1288,17
227,19	1202,16
227,41	1239,02
227,63	1279,98
227,85	1271,79
228,06	1236,97
228,28	1282,03
228,50	1267,69
228,72	1302,51
228,94	1284,08
229,16	1273,84
229,37	1343,47
229,59	1279,98
229,81	1265,64
230,03	1290,22
230,25	1239,02
230,47	1263,60
230,69	1290,22
230,90	1314,80
231,12	1267,69
231,34	1308,65
231,56	1279,98
231,78	1277,93
232,00	1232,88
232,21	1312,75
232,43	1228,78
232,65	1282,03
232,87	1269,74
233,09	1271,79
233,30	1290,22
233,52	1251,31
233,74	1347,56
233,96	1228,78
234,18	1296,36
234,40	1296,36
234,61	1282,03
234,83	1265,64
235,05	1261,55
235,27	1370,09
235,49	1320,94
235,70	1298,41
235,92	1298,41
236,14	1265,64
236,36	1335,28
236,58	1290,22
236,79	1263,60
237,01	1335,28
237,23	1271,79
237,45	1341,42
237,67	1318,89
237,88	1296,36
238,10	1333,23
238,32	1230,83
238,54	1259,50
238,76	1286,12
238,97	1279,98
239,19	1265,64
239,41	1236,97
239,63	1312,75
239,85	1271,79
240,06	1339,37
240,28	1275,88
240,50	1308,65
240,72	1257,45
240,93	1247,21
241,15	1292,27
241,37	1234,93
241,59	1228,78
241,81	1251,31
242,02	1296,36
242,24	1239,02
242,46	1316,84
242,68	1204,21
242,89	1300,46
243,11	1284,08
243,33	1271,79
243,55	1193,97
243,76	1259,50
243,98	1275,88
244,20	1294,32
244,42	1306,60
244,64	1269,74
244,85	1261,55
245,07	1269,74
245,29	1300,46
245,51	1245,16
245,72	1339,37
245,94	1202,16
246,16	1261,55
246,38	1165,29
246,59	1322,99
246,81	1167,34
247,03	1239,02
247,24	1290,22
247,46	1216,49
247,68	1273,84
247,90	1265,64
248,11	1226,73
248,33	1202,16
248,55	1312,75
248,77	1269,74
248,98	1316,84
249,20	1243,12
249,42	1232,88
249,64	1243,12
249,85	1210,35
250,07	1267,69
250,29	1322,99
250,50	1261,55
250,72	1228,78
250,94	1298,41
251,16	1284,08
251,37	1290,22
251,59	1241,07
251,81	1224,69
252,02	1271,79
252,24	1288,17
252,46	1288,17
252,68	1189,87
252,89	1312,75
253,11	1298,41
253,33	1312,75
253,54	1265,64
253,76	1294,32
253,98	1294,32
254,20	1288,17
254,41	1249,26
254,63	1255,40
254,85	1249,26
255,06	1263,60
255,28	1216,49
255,50	1261,55
255,71	1245,16
255,93	1300,46
256,15	1269,74
256,36	1304,56
256,58	1239,02
256,80	1259,50
257,02	1224,69
257,23	1247,21
257,45	1286,12
257,67	1288,17
257,88	1263,60
258,10	1306,60
258,32	1243,12
258,53	1267,69
258,75	1286,12
258,97	1245,16
259,18	1214,45
259,40	1275,88
259,62	1216,49
259,83	1265,64
260,05	1341,42
260,27	1288,17
260,48	1193,97
260,70	1314,80
260,92	1179,63
261,13	1306,60
261,35	1241,07
261,57	1290,22
261,78	1312,75
262,00	1232,88
262,22	1239,02
262,43	1345,52
262,65	1318,89
262,86	1304,56
263,08	1245,16
263,30	1232,88
263,51	1210,35
263,73	1347,56
263,95	1271,79
264,16	1200,11
264,38	1335,28
264,60	1247,21
264,81	1347,56
265,03	1300,46
265,25	1263,60
265,46	1232,88
265,68	1314,80
265,89	1230,83
266,11	1302,51
266,33	1230,83
266,54	1290,22
266,76	1339,37
266,98	1222,64
267,19	1212,40
267,41	1300,46
267,62	1259,50
267,84	1333,23
268,06	1292,27
268,27	1175,53
268,49	1220,59
268,70	1212,40
268,92	1269,74
269,14	1282,03
269,35	1208,30
269,57	1298,41
269,79	1288,17
270,00	1198,06
270,22	1312,75
270,43	1279,98
270,65	1189,87
270,87	1251,31
271,08	1208,30
271,30	1316,84
271,51	1214,45
271,73	1282,03
271,95	1294,32
272,16	1226,73
272,38	1308,65
272,59	1239,02
272,81	1284,08
273,02	1279,98
273,24	1230,83
273,46	1228,78
273,67	1220,59
273,89	1298,41
274,10	1259,50
274,32	1304,56
274,54	1292,27
274,75	1181,68
274,97	1255,40
275,18	1288,17
275,40	1320,94
275,61	1331,18
275,83	1296,36
276,05	1196,01
276,26	1322,99
276,48	1279,98
276,69	1273,84
276,91	1271,79
277,12	1294,32
277,34	1279,98
277,55	1316,84
277,77	1277,93
277,99	1247,21
278,20	1267,69
278,42	1279,98
278,63	1292,27
278,85	1232,88
279,06	1189,87
279,28	1286,12
279,49	1294,32
279,71	1312,75
279,93	1312,75
280,14	1249,26
280,36	1228,78
280,57	1282,03
280,79	1320,94
281,00	1251,31
281,22	1273,84
281,43	1298,41
281,65	1208,30
281,86	1228,78
282,08	1269,74
282,29	1290,22
282,51	1257,45
282,73	1249,26
282,94	1294,32
283,16	1300,46
283,37	1294,32
283,59	1251,31
283,80	1277,93
284,02	1239,02
284,23	1314,80
284,45	1345,52
284,66	1308,65
284,88	1282,03
285,09	1251,31
285,31	1357,80
285,52	1249,26
285,74	1282,03
285,95	1271,79
286,17	1271,79
286,38	1298,41
286,60	1263,60
286,81	1232,88
287,03	1265,64
287,24	1261,55
287,46	1363,95
287,67	1277,93
287,89	1302,51
288,10	1265,64
288,32	1306,60
288,53	1271,79
288,75	1318,89
288,96	1234,93
289,18	1288,17
289,39	1316,84
289,61	1271,79
289,82	1193,97
290,04	1310,70
290,25	1263,60
290,47	1304,56
290,68	1292,27
290,90	1267,69
291,11	1212,40
291,33	1236,97
291,54	1261,55
291,76	1202,16
291,97	1236,97
292,18	1273,84
292,40	1300,46
292,61	1304,56
292,83	1294,32
293,04	1232,88
293,26	1267,69
293,47	1347,56
293,69	1275,88
293,90	1284,08
294,12	1257,45
294,33	1277,93
294,55	1239,02
294,76	1234,93
294,97	1349,61
295,19	1263,60
295,40	1224,69
295,62	1251,31
295,83	1271,79
296,05	1253,36
296,26	1327,08
296,48	1290,22
296,69	1316,84
296,90	1243,12
297,12	1329,13
297,33	1232,88
297,55	1267,69
297,76	1245,16
297,98	1284,08
298,19	1318,89
298,41	1259,50
298,62	1292,27
298,83	1232,88
299,05	1304,56
299,26	1275,88
299,48	1241,07
299,69	1277,93
299,90	1282,03
300,12	1259,50
300,33	1304,56
300,55	1267,69
300,76	1222,64
300,98	1263,60
301,19	1282,03
301,40	1245,16
301,62	1257,45
301,83	1279,98
302,05	1320,94
302,26	1300,46
302,47	1288,17
302,69	1298,41
302,90	1232,88
303,12	1273,84
303,33	1341,42
303,54	1185,77
303,76	1341,42
303,97	1290,22
304,19	1185,77
304,40	1247,21
304,61	1282,03
304,83	1308,65
305,04	1249,26
305,26	1269,74
305,47	1318,89
305,68	1271,79
305,90	1290,22
306,11	1320,94
306,33	1318,89
306,54	1308,65
306,75	1302,51
306,97	1290,22
307,18	1253,36
307,39	1234,93
307,61	1249,26
307,82	1284,08
308,04	1243,12
308,25	1171,44
308,46	1271,79
308,68	1302,51
308,89	1261,55
309,10	1241,07
309,32	1288,17
309,53	1351,66
309,74	1351,66
309,96	1253,36
310,17	1251,31
310,39	1290,22
310,60	1218,54
310,81	1347,56
311,03	1257,45
311,24	1304,56
311,45	1271,79
311,67	1294,32
311,88	1261,55
312,09	1222,64
312,31	1288,17
312,52	1282,03
312,73	1255,40
312,95	1333,23
313,16	1257,45
313,37	1314,80
313,59	1263,60
313,80	1277,93
314,01	1265,64
314,23	1220,59
314,44	1239,02
314,65	1261,55
314,87	1204,21
315,08	1263,60
315,29	1294,32
315,51	1327,08
315,72	1322,99
315,93	1273,84
316,15	1314,80
316,36	1306,60
316,57	1245,16
316,79	1288,17
317,00	1257,45
317,21	1247,21
317,43	1257,45
317,64	1189,87
317,85	1251,31
318,07	1245,16
318,28	1279,98
318,49	1265,64
318,70	1304,56
318,92	1245,16
319,13	1226,73
319,34	1228,78
319,56	1234,93
319,77	1257,45
319,98	1259,50
320,20	1361,90
320,41	1247,21
320,62	1284,08
320,83	1265,64
321,05	1245,16
321,26	1294,32
321,47	1241,07
321,69	1296,36
321,90	1351,66
322,11	1253,36
322,32	1247,21
322,54	1228,78
322,75	1249,26
322,96	1228,78
323,18	1206,25
323,39	1288,17
323,60	1202,16
323,81	1222,64
324,03	1290,22
324,24	1216,49
324,45	1306,60
324,66	1245,16
324,88	1224,69
325,09	1290,22
325,30	1204,21
325,52	1273,84
325,73	1251,31
325,94	1296,36
326,15	1282,03
326,37	1230,83
326,58	1277,93
326,79	1271,79
327,00	1245,16
327,22	1302,51
327,43	1239,02
327,64	1308,65
327,85	1222,64
328,07	1302,51
328,28	1257,45
328,49	1234,93
328,70	1320,94
328,92	1230,83
329,13	1259,50
329,34	1216,49
329,55	1257,45
329,76	1279,98
329,98	1292,27
330,19	1267,69
330,40	1202,16
330,61	1265,64
330,83	1255,40
331,04	1300,46
331,25	1245,16
331,46	1202,16
331,68	1269,74
331,89	1218,54
332,10	1284,08
332,31	1275,88
332,52	1261,55
332,74	1308,65
332,95	1349,61
333,16	1249,26
333,37	1204,21
333,58	1339,37
333,80	1267,69
334,01	1302,51
334,22	1255,40
334,43	1255,40
334,64	1308,65
334,86	1228,78
335,07	1275,88
335,28	1290,22
335,49	1279,98
335,70	1241,07
335,92	1230,83
336,13	1214,45
336,34	1318,89
336,55	1277,93
336,76	1253,36
336,98	1263,60
337,19	1226,73
337,40	1218,54
337,61	1286,12
337,82	1298,41
338,04	1349,61
338,25	1230,83
338,46	1282,03
338,67	1234,93
338,88	1198,06
339,09	1265,64
339,31	1230,83
339,52	1290,22
339,73	1316,84
339,94	1325,04
340,15	1300,46
340,36	1230,83
340,58	1282,03
340,79	1308,65
341,00	1282,03
341,21	1314,80
341,42	1294,32
341,63	1241,07
341,85	1359,85
342,06	1279,98
342,27	1253,36
342,48	1247,21
342,69	1247,21
342,90	1282,03
343,12	1306,60
343,33	1234,93
343,54	1302,51
343,75	1286,12
343,96	1337,32
344,17	1208,30
344,38	1294,32
344,60	1312,75
344,81	1308,65
345,02	1310,70
345,23	1255,40
345,44	1255,40
345,65	1265,64
345,86	1222,64
346,07	1239,02
346,29	1249,26
346,50	1259,50
346,71	1304,56
346,92	1304,56
347,13	1214,45
347,34	1269,74
347,55	1204,21
347,76	1261,55
347,98	1263,60
348,19	1277,93
348,40	1275,88
348,61	1261,55
348,82	1288,17
349,03	1282,03
349,24	1306,60
349,45	1316,84
349,66	1314,80
349,88	1290,22
350,09	1294,32
350,30	1265,64
350,51	1275,88
350,72	1298,41
350,93	1292,27
351,14	1269,74
351,35	1288,17
351,56	1245,16
351,77	1271,79
351,99	1296,36
352,20	1228,78
352,41	1253,36
352,62	1261,55
352,83	1322,99
353,04	1269,74
353,25	1275,88
353,46	1230,83
353,67	1220,59
353,88	1273,84
354,09	1339,37
354,30	1200,11
354,52	1282,03
354,73	1318,89
354,94	1257,45
355,15	1337,32
355,36	1232,88
355,57	1304,56
355,78	1226,73
355,99	1284,08
356,20	1249,26
356,41	1236,97
356,62	1306,60
356,83	1263,60
357,04	1347,56
357,25	1284,08
357,46	1296,36
357,68	1288,17
357,89	1230,83
358,10	1345,52
358,31	1314,80
358,52	1271,79
358,73	1243,12
358,94	1273,84
359,15	1275,88
359,36	1288,17
359,57	1310,70
359,78	1179,63
359,99	1263,60
360,20	1247,21
360,41	1261,55
360,62	1308,65
360,83	1253,36
361,04	1277,93
361,25	1300,46
361,46	1230,83
361,67	1216,49
361,88	1232,88
362,09	1294,32
362,30	1282,03
362,51	1253,36
362,72	1245,16
362,93	1269,74
363,14	1249,26
363,35	1300,46
363,56	1288,17
363,78	1271,79
363,99	1298,41
364,20	1185,77
364,41	1271,79
364,62	1273,84
364,83	1306,60
365,04	1269,74
365,25	1282,03
365,46	1247,21
365,67	1259,50
365,88	1335,28
366,09	1212,40
366,30	1263,60
366,51	1271,79
366,72	1286,12
366,93	1275,88
367,14	1226,73
367,35	1271,79
367,56	1302,51
367,77	1236,97
367,98	1355,76
368,18	1212,40
368,39	1255,40
368,60	1296,36
368,81	1232,88
369,02	1247,21
369,23	1232,88
369,44	1247,21
369,65	1251,31
369,86	1251,31
370,07	1267,69
370,28	1320,94
370,49	1253,36
370,70	1255,40
370,91	1247,21
371,12	1265,64
371,33	1288,17
371,54	1230,83
371,75	1218,54
371,96	1226,73
372,17	1314,80
372,38	1273,84
372,59	1249,26
372,80	1185,77
373,01	1249,26
373,22	1300,46
373,43	1222,64
373,64	1234,93
373,85	1263,60
374,06	1325,04
374,26	1259,50
374,47	1292,27
374,68	1275,88
374,89	1302,51
375,10	1298,41
375,31	1191,92
375,52	1290,22
375,73	1208,30
375,94	1269,74
376,15	1308,65
376,36	1228,78
376,57	1241,07
376,78	1220,59
376,99	1310,70
377,20	1296,36
377,40	1243,12
377,61	1282,03
377,82	1380,33
378,03	1267,69
378,24	1275,88
378,45	1234,93
378,66	1302,51
378,87	1171,44
379,08	1228,78
379,29	1275,88
379,50	1282,03
379,71	1257,45
379,91	1271,79
380,12	1243,12
380,33	1308,65
380,54	1200,11
380,75	1257,45
380,96	1245,16
381,17	1277,93
381,38	1196,01
381,59	1279,98
381,80	1286,12
382,00	1306,60
382,21	1230,83
382,42	1318,89
382,63	1214,45
382,84	1247,21
383,05	1153,01
383,26	1318,89
383,47	1267,69
383,68	1282,03
383,88	1288,17
384,09	1318,89
384,30	1310,70
384,51	1234,93
384,72	1263,60
384,93	1241,07
385,14	1232,88
385,35	1271,79
385,55	1378,28
385,76	1222,64
385,97	1359,85
386,18	1255,40
386,39	1214,45
386,60	1241,07
386,81	1249,26
387,02	1243,12
387,22	1316,84
387,43	1298,41
387,64	1251,31
387,85	1239,02
388,06	1245,16
388,27	1249,26
388,48	1271,79
388,68	1282,03
388,89	1314,80
389,10	1322,99
389,31	1271,79
389,52	1318,89
389,73	1288,17
389,93	1267,69
390,14	1263,60
390,35	1277,93
390,56	1202,16
390,77	1232,88
390,98	1314,80
391,18	1210,35
391,39	1271,79
391,60	1239,02
391,81	1230,83
392,02	1224,69
392,23	1277,93
392,43	1267,69
392,64	1253,36
392,85	1204,21
393,06	1290,22
393,27	1265,64
393,47	1257,45
393,68	1249,26
393,89	1304,56
394,10	1304,56
394,31	1269,74
394,52	1284,08
394,72	1282,03
394,93	1273,84
395,14	1282,03
395,35	1269,74
395,56	1220,59
395,76	1372,14
395,97	1267,69
396,18	1320,94
396,39	1288,17
396,60	1208,30
396,80	1228,78
397,01	1327,08
397,22	1308,65
397,43	1267,69
397,64	1298,41
397,84	1327,08
398,05	1312,75
398,26	1353,71
398,47	1327,08
398,67	1214,45
398,88	1175,53
399,09	1294,32
399,30	1218,54
399,51	1296,36
399,71	1239,02
399,92	1277,93
400,13	1234,93
400,34	1267,69
400,54	1224,69
400,75	1322,99
400,96	1296,36
401,17	1310,70
401,37	1249,26
401,58	1296,36
401,79	1302,51
402,00	1216,49
402,21	1200,11
402,41	1325,04
402,62	1275,88
402,83	1239,02
403,04	1245,16
403,24	1249,26
403,45	1218,54
403,66	1241,07
403,87	1306,60
404,07	1275,88
404,28	1236,97
404,49	1359,85
404,70	1214,45
404,90	1228,78
405,11	1279,98
405,32	1220,59
405,52	1294,32
405,73	1282,03
405,94	1271,79
406,15	1257,45
406,35	1271,79
406,56	1232,88
406,77	1196,01
406,98	1316,84
407,18	1189,87
407,39	1294,32
407,60	1277,93
407,80	1275,88
408,01	1245,16
408,22	1226,73
408,43	1279,98
408,63	1296,36
408,84	1230,83
409,05	1290,22
409,25	1228,78
409,46	1302,51
409,67	1259,50
409,88	1255,40
410,08	1241,07
410,29	1306,60
410,50	1296,36
410,70	1218,54
410,91	1200,11
411,12	1249,26
411,32	1255,40
411,53	1239,02
411,74	1304,56
411,95	1359,85
412,15	1261,55
412,36	1210,35
412,57	1341,42
412,77	1329,13
412,98	1249,26
413,19	1318,89
413,39	1198,06
413,60	1286,12
413,81	1320,94
414,01	1257,45
414,22	1288,17
414,43	1247,21
414,63	1343,47
414,84	1189,87
415,05	1212,40
415,25	1265,64
415,46	1253,36
415,67	1275,88
415,87	1325,04
416,08	1253,36
416,29	1259,50
416,49	1318,89
416,70	1269,74
416,91	1304,56
417,11	1288,17
417,32	1296,36
417,53	1304,56
417,73	1310,70
417,94	1269,74
418,15	1298,41
418,35	1298,41
418,56	1247,21
418,77	1243,12
418,97	1177,58
419,18	1277,93
419,38	1267,69
419,59	1239,02
419,80	1296,36
420,00	1279,98
420,21	1335,28
420,42	1273,84
420,62	1222,64
420,83	1306,60
421,04	1318,89
421,24	1222,64
421,45	1228,78
421,65	1312,75
421,86	1193,97
422,07	1310,70
422,27	1245,16
422,48	1277,93
422,69	1275,88
422,89	1257,45
423,10	1243,12
423,30	1249,26
423,51	1284,08
423,72	1286,12
423,92	1282,03
424,13	1277,93
424,33	1308,65
424,54	1210,35
424,75	1290,22
424,95	1271,79
425,16	1341,42
425,36	1294,32
425,57	1243,12
425,78	1222,64
425,98	1279,98
426,19	1265,64
426,39	1314,80
426,60	1282,03
426,81	1275,88
427,01	1279,98
427,22	1247,21
427,42	1327,08
427,63	1306,60
427,83	1224,69
428,04	1294,32
428,25	1251,31
428,45	1275,88
428,66	1298,41
428,86	1193,97
429,07	1163,25
429,28	1296,36
429,48	1298,41
429,69	1241,07
429,89	1275,88
430,10	1302,51
430,30	1232,88
430,51	1236,97
430,71	1241,07
430,92	1335,28
431,13	1241,07
431,33	1277,93
431,54	1187,82
431,74	1378,28
431,95	1300,46
432,15	1271,79
432,36	1314,80
432,56	1239,02
432,77	1249,26
432,98	1261,55
433,18	1224,69
433,39	1230,83
433,59	1239,02
433,80	1249,26
434,00	1261,55
434,21	1198,06
434,41	1243,12
434,62	1310,70
434,82	1284,08
435,03	1259,50
435,23	1277,93
435,44	1269,74
435,64	1243,12
435,85	1265,64
436,06	1210,35
436,26	1200,11
436,47	1288,17
436,67	1255,40
436,88	1249,26
437,08	1239,02
437,29	1234,93
437,49	1269,74
437,70	1236,97
437,90	1308,65
438,11	1343,47
438,31	1286,12
438,52	1218,54
438,72	1269,74
438,93	1267,69
439,13	1267,69
439,34	1282,03
439,54	1279,98
439,75	1243,12
439,95	1273,84
440,16	1327,08
440,36	1296,36
440,57	1267,69
440,77	1267,69
440,98	1206,25
441,18	1243,12
441,39	1234,93
441,59	1247,21
441,80	1298,41
442,00	1224,69
442,21	1259,50
442,41	1269,74
442,62	1302,51
442,82	1236,97
443,02	1257,45
443,23	1318,89
443,43	1267,69
443,64	1232,88
443,84	1187,82
444,05	1296,36
444,25	1327,08
444,46	1292,27
444,66	1265,64
444,87	1259,50
445,07	1245,16
445,28	1255,40
445,48	1263,60
445,69	1263,60
445,89	1290,22
446,09	1193,97
446,30	1216,49
446,50	1286,12
446,71	1210,35
446,91	1279,98
447,12	1331,18
447,32	1318,89
447,53	1275,88
447,73	1271,79
447,93	1257,45
448,14	1220,59
448,34	1273,84
448,55	1230,83
448,75	1234,93
448,96	1345,52
449,16	1314,80
449,36	1239,02
449,57	1255,40
449,77	1296,36
449,98	1290,22
450,18	1296,36
450,39	1282,03
450,59	1222,64
450,79	1177,58
451,00	1202,16
451,20	1335,28
451,41	1255,40
451,61	1322,99
451,81	1253,36
452,02	1302,51
452,22	1236,97
452,43	1312,75
452,63	1318,89
452,84	1263,60
453,04	1249,26
453,24	1269,74
453,45	1245,16
453,65	1286,12
453,86	1253,36
454,06	1271,79
454,26	1226,73
454,47	1282,03
454,67	1257,45
454,87	1263,60
455,08	1216,49
455,28	1302,51
455,49	1363,95
455,69	1286,12
455,89	1247,21
456,10	1255,40
456,30	1286,12
456,51	1269,74
456,71	1322,99
456,91	1325,04
457,12	1263,60
457,32	1210,35
457,52	1257,45
457,73	1271,79
457,93	1265,64
458,14	1286,12
458,34	1304,56
458,54	1210,35
458,75	1282,03
458,95	1286,12
459,15	1288,17
459,36	1329,13
459,56	1241,07
459,76	1279,98
459,97	1279,98
460,17	1296,36
460,37	1259,50
460,58	1310,70
460,78	1279,98
460,99	1253,36
461,19	1267,69
461,39	1241,07
461,60	1187,82
461,80	1265,64
462,00	1288,17
462,21	1271,79
462,41	1279,98
462,61	1220,59
462,82	1292,27
463,02	1259,50
463,22	1286,12
463,43	1230,83
463,63	1224,69
463,83	1277,93
464,04	1306,60
464,24	1273,84
464,44	1257,45
464,64	1286,12
464,85	1282,03
465,05	1302,51
465,25	1335,28
465,46	1259,50
465,66	1247,21
465,86	1249,26
466,07	1284,08
466,27	1290,22
466,47	1312,75
466,68	1288,17
466,88	1279,98
467,08	1267,69
467,29	1269,74
467,49	1335,28
467,69	1282,03
467,89	1269,74
468,10	1347,56
468,30	1204,21
468,50	1302,51
468,71	1269,74
468,91	1296,36
469,11	1279,98
469,31	1239,02
469,52	1228,78
469,72	1275,88
469,92	1265,64
470,13	1275,88
470,33	1312,75
470,53	1277,93
470,73	1327,08
470,94	1255,40
471,14	1236,97
471,34	1230,83
471,54	1212,40
471,75	1294,32
471,95	1279,98
472,15	1224,69
472,36	1261,55
472,56	1271,79
472,76	1286,12
472,96	1294,32
473,17	1282,03
473,37	1308,65
473,57	1300,46
473,77	1259,50
473,98	1275,88
474,18	1294,32
474,38	1296,36
474,58	1312,75
474,79	1277,93
474,99	1275,88
475,19	1271,79
475,39	1378,28
475,60	1243,12
475,80	1218,54
476,00	1208,30
476,20	1306,60
476,41	1318,89
476,61	1265,64
476,81	1202,16
477,01	1316,84
477,21	1247,21
477,42	1259,50
477,62	1273,84
477,82	1304,56
478,02	1247,21
478,23	1288,17
478,43	1236,97
478,63	1265,64
478,83	1249,26
479,03	1241,07
479,24	1269,74
479,44	1284,08
479,64	1271,79
479,84	1245,16
480,04	1226,73
480,25	1245,16
480,45	1247,21
480,65	1241,07
480,85	1284,08
481,06	1220,59
481,26	1267,69
481,46	1243,12
481,66	1241,07
481,86	1200,11
482,06	1245,16
482,27	1325,04
482,47	1271,79
482,67	1329,13
482,87	1255,40
483,07	1230,83
483,28	1230,83
483,48	1277,93
483,68	1222,64
483,88	1191,92
484,08	1249,26
484,29	1218,54
484,49	1284,08
484,69	1372,14
484,89	1286,12
485,09	1294,32
485,29	1312,75
485,50	1282,03
485,70	1353,71
485,90	1198,06
486,10	1290,22
486,30	1253,36
486,50	1251,31
486,71	1232,88
486,91	1218,54
487,11	1296,36
487,31	1296,36
487,51	1294,32
487,71	1230,83
487,91	1261,55
488,12	1325,04
488,32	1239,02
488,52	1308,65
488,72	1304,56
488,92	1312,75
489,12	1249,26
489,32	1277,93
489,53	1286,12
489,73	1275,88
489,93	1208,30
490,13	1245,16
490,33	1239,02
490,53	1316,84
490,73	1273,84
490,94	1255,40
491,14	1282,03
491,34	1255,40
491,54	1345,52
491,74	1275,88
491,94	1378,28
492,14	1277,93
492,34	1304,56
492,54	1304,56
492,75	1202,16
492,95	1284,08
493,15	1279,98
493,35	1236,97
493,55	1331,18
493,75	1279,98
493,95	1288,17
494,15	1325,04
494,35	1253,36
494,56	1226,73
494,76	1243,12
494,96	1257,45
495,16	1314,80
495,36	1206,25
495,56	1247,21
495,76	1310,70
495,96	1218,54
496,16	1325,04
496,36	1331,18
496,56	1230,83
496,77	1277,93
496,97	1263,60
497,17	1277,93
497,37	1206,25
497,57	1282,03
497,77	1351,66
497,97	1236,97
498,17	1275,88
498,37	1286,12
498,57	1187,82
498,77	1282,03
498,97	1247,21
499,17	1251,31
499,38	1282,03
499,58	1308,65
499,78	1241,07
499,98	1349,61
500,18	1267,69
500,38	1241,07
500,58	1196,01
500,78	1284,08
500,98	1347,56
501,18	1265,64
501,38	1257,45
501,58	1308,65
501,78	1298,41
501,98	1304,56
502,18	1269,74
502,38	1279,98
502,58	1222,64
502,78	1239,02
502,98	1218,54
503,18	1279,98
503,38	1216,49
503,59	1216,49
503,79	1298,41
503,99	1247,21
504,19	1290,22
504,39	1243,12
504,59	1222,64
504,79	1243,12
504,99	1257,45
505,19	1304,56
505,39	1267,69
505,59	1241,07
505,79	1269,74
505,99	1255,40
506,19	1308,65
506,39	1370,09
506,59	1290,22
506,79	1234,93
506,99	1247,21
507,19	1218,54
507,39	1290,22
507,59	1263,60
507,79	1226,73
507,99	1273,84
508,19	1294,32
508,39	1284,08
508,59	1279,98
508,79	1243,12
508,99	1290,22
509,19	1345,52
509,39	1310,70
509,59	1275,88
509,79	1249,26
509,99	1308,65
510,19	1271,79
510,39	1261,55
510,59	1308,65
510,79	1193,97
510,99	1222,64
511,19	1157,10
511,39	1355,76
511,59	1255,40
511,79	1277,93
511,99	1300,46
512,19	1318,89
512,38	1300,46
512,58	1257,45
512,78	1318,89
512,98	1204,21
513,18	1202,16
513,38	1288,17
513,58	1265,64
513,78	1343,47
513,98	1263,60
514,18	1202,16
514,38	1239,02
514,58	1191,92
514,78	1284,08
514,98	1277,93
515,18	1314,80
515,38	1198,06
515,58	1296,36
515,78	1230,83
515,98	1232,88
516,18	1202,16
516,38	1288,17
516,57	1277,93
516,77	1271,79
516,97	1275,88
517,17	1239,02
517,37	1275,88
517,57	1226,73
517,77	1214,45
517,97	1269,74
518,17	1239,02
518,37	1302,51
518,57	1232,88
518,77	1234,93
518,97	1232,88
519,16	1224,69
519,36	1341,42
519,56	1267,69
519,76	1243,12
519,96	1279,98
520,16	1282,03
520,36	1245,16
520,56	1325,04
520,76	1282,03
520,96	1261,55
521,16	1257,45
521,35	1257,45
521,55	1308,65
521,75	1282,03
521,95	1249,26
522,15	1247,21
522,35	1288,17
522,55	1230,83
522,75	1261,55
522,95	1251,31
523,14	1318,89
523,34	1279,98
523,54	1228,78
523,74	1236,97
523,94	1263,60
524,14	1286,12
524,34	1275,88
524,54	1298,41
524,73	1292,27
524,93	1245,16
525,13	1271,79
525,33	1302,51
525,53	1245,16
525,73	1236,97
525,93	1241,07
526,13	1259,50
526,32	1230,83
526,52	1310,70
526,72	1249,26
526,92	1310,70
527,12	1224,69
527,32	1239,02
527,52	1259,50
527,71	1320,94
527,91	1251,31
528,11	1232,88
528,31	1239,02
528,51	1245,16
528,71	1300,46
528,90	1253,36
529,10	1265,64
529,30	1245,16
529,50	1320,94
529,70	1261,55
529,90	1304,56
530,09	1312,75
530,29	1308,65
530,49	1265,64
530,69	1312,75
530,89	1300,46
531,09	1331,18
531,28	1279,98
531,48	1269,74
531,68	1290,22
531,88	1337,32
532,08	1189,87
532,28	1236,97
532,47	1247,21
532,67	1290,22
532,87	1216,49
533,07	1351,66
533,27	1294,32
533,46	1253,36
533,66	1269,74
533,86	1273,84
534,06	1253,36
534,26	1263,60
534,45	1249,26
534,65	1306,60
534,85	1277,93
535,05	1277,93
535,25	1298,41
535,44	1300,46
535,64	1191,92
535,84	1380,33
536,04	1322,99
536,24	1236,97
536,43	1257,45
536,63	1257,45
536,83	1302,51
537,03	1245,16
537,22	1236,97
537,42	1259,50
537,62	1206,25
537,82	1273,84
538,02	1320,94
538,21	1316,84
538,41	1269,74
538,61	1302,51
538,81	1218,54
539,00	1290,22
539,20	1232,88
539,40	1251,31
539,60	1265,64
539,79	1224,69
539,99	1253,36
540,19	1208,30
540,39	1214,45
540,58	1304,56
540,78	1224,69
540,98	1302,51
541,18	1296,36
541,37	1245,16
541,57	1273,84
541,77	1292,27
541,97	1222,64
542,16	1247,21
542,36	1253,36
542,56	1310,70
542,76	1261,55
542,95	1325,04
543,15	1247,21
543,35	1251,31
543,54	1261,55
543,74	1288,17
543,94	1339,37
544,14	1183,73
544,33	1241,07
544,53	1253,36
544,73	1208,30
544,93	1261,55
545,12	1269,74
545,32	1282,03
545,52	1251,31
545,71	1204,21
545,91	1222,64
546,11	1253,36
546,30	1275,88
546,50	1269,74
546,70	1191,92
546,90	1259,50
547,09	1312,75
547,29	1292,27
547,49	1208,30
547,68	1251,31
547,88	1286,12
548,08	1316,84
548,27	1239,02
548,47	1288,17
548,67	1245,16
548,87	1239,02
549,06	1322,99
549,26	1251,31
549,46	1214,45
549,65	1247,21
549,85	1290,22
550,05	1279,98
550,24	1255,40
550,44	1261,55
550,64	1279,98
550,83	1347,56
551,03	1255,40
551,23	1259,50
551,42	1277,93
551,62	1275,88
551,82	1165,29
552,01	1251,31
552,21	1265,64
552,41	1245,16
552,60	1286,12
552,80	1191,92
553,00	1263,60
553,19	1318,89
553,39	1314,80
553,59	1273,84
553,78	1271,79
553,98	1298,41
554,17	1335,28
554,37	1230,83
554,57	1175,53
554,76	1251,31
554,96	1159,15
555,16	1318,89
555,35	1306,60
555,55	1296,36
555,75	1265,64
555,94	1200,11
556,14	1249,26
556,33	1232,88
556,53	1222,64
556,73	1296,36
556,92	1232,88
557,12	1339,37
557,32	1245,16
557,51	1284,08
557,71	1292,27
557,90	1253,36
558,10	1273,84
558,30	1300,46
558,49	1290,22
558,69	1239,02
558,88	1214,45
559,08	1171,44
559,28	1284,08
559,47	1236,97
559,67	1304,56
559,86	1320,94
560,06	1251,31
560,26	1337,32
560,45	1232,88
560,65	1222,64
560,84	1308,65
561,04	1288,17
561,24	1294,32
561,43	1271,79
561,63	1224,69
561,82	1312,75
562,02	1263,60
562,22	1249,26
562,41	1163,25
562,61	1296,36
562,80	1189,87
563,00	1282,03
563,19	1267,69
563,39	1318,89
563,59	1286,12
563,78	1273,84
563,98	1267,69
564,17	1261,55
564,37	1269,74
564,56	1312,75
564,76	1222,64
564,96	1329,13
565,15	1263,60
565,35	1345,52
565,54	1351,66
565,74	1325,04
565,93	1247,21
566,13	1236,97
566,32	1247,21
566,52	1306,60
566,71	1243,12
566,91	1316,84
567,11	1290,22
567,30	1310,70
567,50	1204,21
567,69	1249,26
567,89	1253,36
568,08	1310,70
568,28	1241,07
568,47	1249,26
568,67	1306,60
568,86	1294,32
569,06	1275,88
569,25	1210,35
569,45	1183,73
569,64	1222,64
569,84	1376,24
570,04	1239,02
570,23	1292,27
570,43	1290,22
570,62	1316,84
570,82	1314,80
571,01	1253,36
571,21	1304,56
571,40	1216,49
571,60	1277,93
571,79	1247,21
571,99	1241,07
572,18	1320,94
572,38	1265,64
572,57	1200,11
572,77	1218,54
572,96	1335,28
573,16	1265,64
573,35	1239,02
573,55	1273,84
573,74	1337,32
573,94	1230,83
574,13	1222,64
574,33	1304,56
574,52	1284,08
574,71	1288,17
574,91	1228,78
575,10	1224,69
575,30	1325,04
575,49	1304,56
575,69	1230,83
575,88	1271,79
576,08	1196,01
576,27	1251,31
576,47	1251,31
576,66	1236,97
576,86	1290,22
577,05	1308,65
577,25	1171,44
577,44	1247,21
577,64	1210,35
577,83	1316,84
578,02	1239,02
578,22	1298,41
578,41	1320,94
578,61	1298,41
578,80	1206,25
579,00	1263,60
579,19	1275,88
579,39	1261,55
579,58	1210,35
579,77	1259,50
579,97	1251,31
580,16	1230,83
580,36	1327,08
580,55	1271,79
580,75	1310,70
580,94	1296,36
581,13	1390,57
581,33	1300,46
581,52	1243,12
581,72	1318,89
581,91	1322,99
582,11	1273,84
582,30	1220,59
582,49	1173,49
582,69	1337,32
582,88	1249,26
583,08	1277,93
583,27	1259,50
583,47	1255,40
583,66	1265,64
583,85	1316,84
584,05	1249,26
584,24	1282,03
584,44	1236,97
584,63	1228,78
584,82	1253,36
585,02	1282,03
585,21	1304,56
585,41	1232,88
585,60	1218,54
585,79	1298,41
585,99	1218,54
586,18	1265,64
586,37	1347,56
586,57	1226,73
586,76	1259,50
586,96	1263,60
587,15	1216,49
587,34	1257,45
587,54	1255,40
587,73	1271,79
587,93	1257,45
588,12	1267,69
588,31	1241,07
588,51	1298,41
588,70	1275,88
588,89	1271,79
589,09	1230,83
589,28	1249,26
589,47	1316,84
589,67	1312,75
589,86	1312,75
590,06	1253,36
590,25	1255,40
590,44	1251,31
590,64	1265,64
590,83	1245,16
591,02	1196,01
591,22	1296,36
591,41	1341,42
591,60	1230,83
591,80	1302,51
591,99	1255,40
592,18	1277,93
592,38	1333,23
592,57	1255,40
592,76	1208,30
592,96	1310,70
593,15	1316,84
593,34	1200,11
593,54	1275,88
593,73	1269,74
593,92	1304,56
594,12	1282,03
594,31	1267,69
594,50	1214,45
594,70	1298,41
594,89	1269,74
595,08	1300,46
595,28	1284,08
595,47	1282,03
595,66	1271,79
595,86	1296,36
596,05	1208,30
596,24	1202,16
596,43	1331,18
596,63	1300,46
596,82	1257,45
597,01	1232,88
597,21	1255,40
597,40	1257,45
597,59	1210,35
597,79	1335,28
597,98	1265,64
598,17	1320,94
598,36	1304,56
598,56	1220,59
598,75	1239,02
598,94	1257,45
599,14	1271,79
599,33	1214,45
599,52	1314,80
599,71	1279,98
599,91	1302,51
600,10	1288,17
600,29	1288,17
600,48	1310,70
600,68	1282,03
600,87	1282,03
601,06	1273,84
601,26	1273,84
601,45	1318,89
601,64	1239,02
601,83	1320,94
602,03	1241,07
602,22	1259,50
602,41	1216,49
602,60	1298,41
602,80	1282,03
602,99	1312,75
603,18	1146,86
603,37	1257,45
603,57	1294,32
603,76	1302,51
603,95	1253,36
604,14	1206,25
604,34	1322,99
604,53	1335,28
604,72	1232,88
604,91	1273,84
605,10	1193,97
605,30	1337,32
605,49	1288,17
605,68	1265,64
605,87	1214,45
606,07	1241,07
606,26	1232,88
606,45	1325,04
606,64	1273,84
606,84	1249,26
607,03	1265,64
607,22	1245,16
607,41	1277,93
607,60	1296,36
607,80	1234,93
607,99	1263,60
608,18	1193,97
608,37	1251,31
608,56	1204,21
608,76	1345,52
608,95	1329,13
609,14	1273,84
609,33	1234,93
609,52	1210,35
609,72	1234,93
609,91	1292,27
610,10	1292,27
610,29	1255,40
610,48	1298,41
610,68	1263,60
610,87	1261,55
611,06	1230,83
611,25	1265,64
611,44	1232,88
611,63	1269,74
611,83	1200,11
612,02	1275,88
612,21	1212,40
612,40	1243,12
612,59	1236,97
612,79	1241,07
612,98	1359,85
613,17	1304,56
613,36	1249,26
613,55	1308,65
613,74	1279,98
613,93	1239,02
614,13	1286,12
614,32	1288,17
614,51	1312,75
614,70	1327,08
614,89	1249,26
615,08	1290,22
615,28	1325,04
615,47	1304,56
615,66	1310,70
615,85	1265,64
616,04	1290,22
616,23	1181,68
616,42	1288,17
616,62	1310,70
616,81	1247,21
617,00	1284,08
617,19	1316,84
617,38	1230,83
617,57	1232,88
617,76	1314,80
617,95	1234,93
618,15	1271,79
618,34	1253,36
618,53	1322,99
618,72	1284,08
618,91	1257,45
619,10	1271,79
619,29	1273,84
619,48	1294,32
619,68	1267,69
619,87	1273,84
620,06	1222,64
620,25	1318,89
620,44	1191,92
620,63	1308,65
620,82	1261,55
621,01	1210,35
621,20	1277,93
621,39	1312,75
621,59	1288,17
621,78	1312,75
621,97	1290,22
622,16	1251,31
622,35	1304,56
622,54	1185,77
622,73	1271,79
622,92	1271,79
623,11	1243,12
623,30	1345,52
623,49	1294,32
623,68	1300,46
623,88	1243,12
624,07	1214,45
624,26	1241,07
624,45	1286,12
624,64	1310,70
624,83	1306,60
625,02	1232,88
625,21	1261,55
625,40	1292,27
625,59	1296,36
625,78	1253,36
625,97	1263,60
626,16	1259,50
626,35	1259,50
626,54	1302,51
626,74	1386,47
626,93	1325,04
627,12	1239,02
627,31	1255,40
627,50	1353,71
627,69	1224,69
627,88	1296,36
628,07	1357,80
628,26	1261,55
628,45	1257,45
628,64	1310,70
628,83	1357,80
629,02	1298,41
629,21	1263,60
629,40	1300,46
629,59	1306,60
629,78	1296,36
629,97	1267,69
630,16	1290,22
630,35	1376,24
630,54	1327,08
630,73	1245,16
630,92	1288,17
631,11	1355,76
631,30	1355,76
631,49	1359,85
631,68	1574,89
631,87	2105,31
632,06	3616,71
632,25	2883,54
632,44	3678,15
632,63	4839,35
632,82	9588,59
633,01	9539,44
633,20	16920,32
633,39	38843,82
633,58	57506,96
633,77	65535,00
633,96	65535,00
634,15	63448,12
634,34	43767,14
634,53	23670,42
634,72	12914,49
634,91	6666,14
635,10	3499,98
635,29	2232,29
635,48	1765,35
635,67	1593,32
635,86	1503,21
636,05	1474,54
636,24	1298,41
636,43	1384,43
636,62	1429,48
636,81	1294,32
637,00	1335,28
637,19	1421,29
637,38	1331,18
637,57	1314,80
637,76	1314,80
637,95	1363,95
638,14	1347,56
638,33	1318,89
638,52	1249,26
638,71	1282,03
638,89	1296,36
639,08	1284,08
639,27	1271,79
639,46	1275,88
639,65	1222,64
639,84	1312,75
640,03	1320,94
640,22	1343,47
640,41	1294,32
640,60	1312,75
640,79	1232,88
640,98	1310,70
641,17	1320,94
641,36	1257,45
641,55	1284,08
641,74	1282,03
641,92	1273,84
642,11	1316,84
642,30	1275,88
642,49	1265,64
642,68	1294,32
642,87	1296,36
643,06	1247,21
643,25	1259,50
643,44	1329,13
643,63	1282,03
643,82	1273,84
644,00	1333,23
644,19	1288,17
644,38	1253,36
644,57	1275,88
644,76	1333,23
644,95	1273,84
645,14	1271,79
645,33	1284,08
645,52	1271,79
645,71	1298,41
645,89	1263,60
646,08	1265,64
646,27	1247,21
646,46	1224,69
646,65	1206,25
646,84	1351,66
647,03	1200,11
647,22	1329,13
647,40	1257,45
647,59	1304,56
647,78	1261,55
647,97	1314,80
648,16	1236,97
648,35	1220,59
648,54	1226,73
648,73	1247,21
648,91	1241,07
649,10	1329,13
649,29	1304,56
649,48	1282,03
649,67	1234,93
649,86	1304,56
650,05	1284,08
650,23	1320,94
650,42	1243,12
650,61	1288,17
650,80	1275,88
650,99	1349,61
651,18	1202,16
651,36	1265,64
651,55	1261,55
651,74	1277,93
651,93	1302,51
652,12	1302,51
652,31	1198,06
652,49	1282,03
652,68	1210,35
652,87	1234,93
653,06	1269,74
653,25	1214,45
653,44	1302,51
653,62	1372,14
653,81	1298,41
654,00	1249,26
654,19	1300,46
654,38	1282,03
654,56	1320,94
654,75	1298,41
654,94	1212,40
655,13	1339,37
655,32	1306,60
655,51	1296,36
655,69	1290,22
655,88	1261,55
656,07	1245,16
656,26	1247,21
656,45	1253,36
656,63	1234,93
656,82	1271,79
657,01	1241,07
657,20	1339,37
657,38	1269,74
657,57	1335,28
657,76	1320,94
657,95	1257,45
658,14	1210,35
658,32	1257,45
658,51	1269,74
658,70	1251,31
658,89	1251,31
659,08	1325,04
659,26	1241,07
659,45	1232,88
659,64	1302,51
659,83	1253,36
660,01	1255,40
660,20	1265,64
660,39	1249,26
660,58	1249,26
660,76	1257,45
660,95	1236,97
661,14	1290,22
661,33	1230,83
661,51	1273,84
661,70	1241,07
661,89	1347,56
662,08	1304,56
662,26	1228,78
662,45	1277,93
662,64	1316,84
662,83	1308,65
663,01	1294,32
663,20	1236,97
663,39	1288,17
663,58	1308,65
663,76	1222,64
663,95	1351,66
664,14	1255,40
664,32	1245,16
664,51	1314,80
664,70	1288,17
664,89	1279,98
665,07	1253,36
665,26	1302,51
665,45	1296,36
665,64	1228,78
665,82	1263,60
666,01	1331,18
666,20	1263,60
666,38	1341,42
666,57	1306,60
666,76	1284,08
666,95	1288,17
667,13	1265,64
667,32	1200,11
667,51	1247,21
667,69	1198,06
667,88	1269,74
668,07	1261,55
668,25	1304,56
668,44	1316,84
668,63	1310,70
668,81	1288,17
669,00	1249,26
669,19	1279,98
669,38	1349,61
669,56	1228,78
669,75	1253,36
669,94	1271,79
670,12	1214,45
670,31	1214,45
670,50	1251,31
670,68	1228,78
670,87	1239,02
671,06	1355,76
671,24	1257,45
671,43	1234,93
671,62	1279,98
671,80	1298,41
671,99	1290,22
672,18	1265,64
672,36	1282,03
672,55	1228,78
672,74	1286,12
672,92	1357,80
673,11	1267,69
673,29	1316,84
673,48	1339,37
673,67	1249,26
673,85	1191,92
674,04	1316,84
674,23	1279,98
674,41	1275,88
674,60	1296,36
674,79	1206,25
674,97	1263,60
675,16	1290,22
675,34	1288,17
675,53	1304,56
675,72	1212,40
675,90	1267,69
676,09	1257,45
676,28	1226,73
676,46	1306,60
676,65	1208,30
676,83	1296,36
677,02	1204,21
677,21	1306,60
677,39	1187,82
677,58	1234,93
677,77	1298,41
677,95	1267,69
678,14	1224,69
678,32	1288,17
678,51	1298,41
678,70	1204,21
678,88	1251,31
679,07	1214,45
679,25	1273,84
679,44	1310,70
679,63	1251,31
679,81	1325,04
680,00	1288,17
680,18	1275,88
680,37	1343,47
680,55	1284,08
680,74	1255,40
680,93	1288,17
681,11	1255,40
681,30	1296,36
681,48	1314,80
681,67	1267,69
681,85	1271,79
682,04	1298,41
682,23	1310,70
682,41	1259,50
682,60	1236,97
682,78	1218,54
682,97	1308,65
683,15	1337,32
683,34	1316,84
683,53	1196,01
683,71	1306,60
683,90	1279,98
684,08	1265,64
684,27	1247,21
684,45	1337,32
684,64	1292,27
684,82	1284,08
685,01	1218,54
685,19	1200,11
685,38	1302,51
685,57	1290,22
685,75	1277,93
685,94	1216,49
686,12	1214,45
686,31	1265,64
686,49	1320,94
686,68	1226,73
686,86	1302,51
687,05	1181,68
687,23	1296,36
687,42	1265,64
687,60	1261,55
687,79	1234,93
687,97	1296,36
688,16	1318,89
688,34	1302,51
688,53	1226,73
688,71	1359,85
688,90	1253,36
689,08	1259,50
689,27	1232,88
689,45	1273,84
689,64	1290,22
689,82	1255,40
690,01	1222,64
690,19	1265,64
690,38	1296,36
690,56	1243,12
690,75	1136,62
690,93	1300,46
691,12	1314,80
691,30	1322,99
691,49	1232,88
691,67	1249,26
691,86	1218,54
692,04	1257,45
692,23	1351,66
692,41	1255,40
692,60	1273,84
692,78	1273,84
692,97	1267,69
693,15	1267,69
693,34	1269,74
693,52	1261,55
693,71	1286,12
693,89	1275,88
694,08	1312,75
694,26	1290,22
694,44	1325,04
694,63	1232,88
694,81	1282,03
695,00	1261,55
695,18	1202,16
695,37	1273,84
695,55	1214,45
695,74	1312,75
695,92	1251,31
696,10	1337,32
696,29	1298,41
696,47	1292,27
696,66	1322,99
696,84	1302,51
697,03	1232,88
697,21	1318,89
697,40	1294,32
697,58	1257,45
697,76	1345,52
697,95	1251,31
698,13	1288,17
698,32	1271,79
698,50	1257,45
698,68	1300,46
698,87	1216,49
699,05	1273,84
699,24	1249,26
699,42	1282,03
699,61	1325,04
699,79	1263,60
699,97	1277,93
700,16	1232,88
700,34	1279,98
700,53	1290,22
700,71	1298,41
700,89	1234,93
701,08	1263,60
701,26	1228,78
701,45	1318,89
701,63	1179,63
701,81	1257,45
702,00	1206,25
702,18	1224,69
702,37	1271,79
702,55	1316,84
702,73	1241,07
702,92	1214,45
703,10	1263,60
703,28	1241,07
703,47	1273,84
703,65	1306,60
703,84	1282,03
704,02	1267,69
704,20	1230,83
704,39	1290,22
704,57	1251,31
704,75	1290,22
704,94	1312,75
705,12	1257,45
705,30	1265,64
705,49	1263,60
705,67	1271,79
705,86	1275,88
706,04	1308,65
706,22	1230,83
706,41	1257,45
706,59	1228,78
706,77	1148,91
706,96	1220,59
707,14	1230,83
707,32	1290,22
707,51	1279,98
707,69	1277,93
707,87	1304,56
708,06	1216,49
708,24	1228,78
708,42	1312,75
708,61	1243,12
708,79	1314,80
708,97	1286,12
709,16	1208,30
709,34	1286,12
709,52	1230,83
709,71	1226,73
709,89	1255,40
710,07	1312,75
710,26	1245,16
710,44	1279,98
710,62	1243,12
710,80	1265,64
710,99	1267,69
711,17	1259,50
711,35	1261,55
711,54	1191,92
711,72	1265,64
711,90	1320,94
712,09	1267,69
712,27	1263,60
712,45	1298,41
712,63	1255,40
712,82	1269,74
713,00	1220,59
713,18	1214,45
713,37	1290,22
713,55	1273,84
713,73	1300,46
713,91	1253,36
714,10	1329,13
714,28	1243,12
714,46	1320,94
714,65	1288,17
714,83	1259,50
715,01	1273,84
715,19	1337,32
715,38	1284,08
715,56	1261,55
715,74	1251,31
715,92	1279,98
716,11	1236,97
716,29	1216,49
716,47	1292,27
716,65	1220,59
716,84	1263,60
717,02	1333,23
717,20	1220,59
717,38	1290,22
717,57	1282,03
717,75	1306,60
717,93	1298,41
718,11	1261,55
718,30	1230,83
718,48	1261,55
718,66	1286,12
718,84	1232,88
719,03	1228,78
719,21	1304,56
719,39	1265,64
719,57	1251,31
719,75	1206,25
719,94	1271,79
720,12	1232,88
720,30	1269,74
720,48	1255,40
720,67	1241,07
720,85	1228,78
721,03	1312,75
721,21	1286,12
721,39	1296,36
721,58	1286,12
721,76	1255,40
721,94	1202,16
722,12	1294,32
722,30	1406,95
722,49	1298,41
722,67	1255,40
722,85	1257,45
723,03	1279,98
723,21	1220,59
723,40	1296,36
723,58	1245,16
723,76	1261,55
723,94	1243,12
724,12	1282,03
724,30	1259,50
724,49	1204,21
724,67	1318,89
724,85	1253,36
725,03	1261,55
725,21	1277,93
725,40	1265,64
725,58	1288,17
725,76	1259,50
725,94	1243,12
726,12	1284,08
726,30	1241,07
726,49	1320,94
726,67	1298,41
726,85	1261,55
727,03	1312,75
727,21	1259,50
727,39	1298,41
727,57	1222,64
727,76	1304,56
727,94	1288,17
728,12	1206,25
728,30	1277,93
728,48	1261,55
728,66	1245,16
728,84	1357,80
729,03	1222,64
729,21	1304,56
729,39	1255,40
729,57	1212,40
729,75	1232,88
729,93	1241,07
730,11	1247,21
730,30	1259,50
730,48	1210,35
730,66	1335,28
730,84	1189,87
731,02	1286,12
731,20	1339,37
731,38	1267,69
731,56	1228,78
731,74	1286,12
731,93	1269,74
732,11	1292,27
732,29	1253,36
732,47	1232,88
732,65	1241,07
732,83	1251,31
733,01	1273,84
733,19	1304,56
733,37	1189,87
733,56	1253,36
733,74	1298,41
733,92	1316,84
734,10	1265,64
734,28	1273,84
734,46	1249,26
734,64	1300,46
734,82	1275,88
735,00	1318,89
735,18	1273,84
735,36	1327,08
735,54	1239,02
735,73	1263,60
735,91	1216,49
736,09	1173,49
736,27	1296,36
736,45	1279,98
736,63	1218,54
736,81	1251,31
736,99	1208,30
737,17	1339,37
737,35	1269,74
737,53	1257,45
737,71	1249,26
737,89	1288,17
738,07	1310,70
738,25	1222,64
738,43	1302,51
738,61	1210,35
738,80	1271,79
738,98	1327,08
739,16	1234,93
739,34	1232,88
739,52	1359,85
739,70	1249,26
739,88	1275,88
740,06	1214,45
740,24	1271,79
740,42	1290,22
740,60	1263,60
740,78	1314,80
740,96	1259,50
741,14	1290,22
741,32	1263,60
741,50	1249,26
741,68	1236,97
741,86	1284,08
742,04	1316,84
742,22	1259,50
742,40	1243,12
742,58	1286,12
742,76	1320,94
742,94	1245,16
743,12	1224,69
743,30	1198,06
743,48	1312,75
743,66	1243,12
743,84	1310,70
744,02	1265,64
744,20	1298,41
744,38	1277,93
744,56	1265,64
744,74	1318,89
744,92	1376,24
745,10	1310,70
745,28	1298,41
745,46	1298,41
745,64	1269,74
745,82	1245,16
746,00	1277,93
746,18	1282,03
746,36	1249,26
746,54	1267,69
746,72	1288,17
746,90	1247,21
747,08	1273,84
747,26	1279,98
747,44	1243,12
747,62	1308,65
747,80	1329,13
747,98	1169,39
748,15	1191,92
748,33	1228,78
748,51	1320,94
748,69	1282,03
748,87	1208,30
749,05	1241,07
749,23	1353,71
749,41	1279,98
749,59	1216,49
749,77	1251,31
749,95	1284,08
750,13	1222,64
750,31	1247,21
750,49	1236,97
750,67	1257,45
750,85	1284,08
751,03	1327,08
751,20	1304,56
751,38	1243,12
751,56	1245,16
751,74	1255,40
751,92	1316,84
752,10	1249,26
752,28	1351,66
752,46	1185,77
752,64	1316,84
752,82	1290,22
753,00	1269,74
753,18	1249,26
753,35	1298,41
753,53	1302,51
753,71	1241,07
753,89	1331,18
754,07	1277,93
754,25	1390,57
754,43	1294,32
754,61	1286,12
754,79	1224,69
754,97	1273,84
755,14	1327,08
755,32	1273,84
755,50	1312,75
755,68	1196,01
755,86	1286,12
756,04	1277,93
756,22	1181,68
756,40	1282,03
756,57	1277,93
756,75	1243,12
756,93	1304,56
757,11	1282,03
757,29	1320,94
757,47	1277,93
757,65	1263,60
757,82	1226,73
758,00	1224,69
758,18	1300,46
758,36	1335,28
758,54	1347,56
758,72	1318,89
758,90	1314,80
759,07	1359,85
759,25	1259,50
759,43	1257,45
759,61	1322,99
759,79	1327,08
759,97	1333,23
760,15	1265,64
760,32	1370,09
760,50	1331,18
760,68	1269,74
760,86	1304,56
761,04	1273,84
761,22	1292,27
761,39	1259,50
761,57	1269,74
761,75	1331,18
761,93	1308,65
762,11	1247,21
762,28	1306,60
762,46	1230,83
762,64	1320,94
762,82	1312,75
763,00	1271,79
763,18	1234,93
763,35	1279,98
763,53	1241,07
763,71	1316,84
763,89	1337,32
764,07	1284,08
764,24	1339,37
764,42	1339,37
764,60	1273,84
764,78	1304,56
764,96	1241,07
765,13	1343,47
765,31	1249,26
765,49	1302,51
765,67	1282,03
765,84	1329,13
766,02	1296,36
766,20	1196,01
766,38	1279,98
766,56	1220,59
766,73	1298,41
766,91	1265,64
767,09	1304,56
767,27	1257,45
767,44	1247,21
767,62	1263,60
767,80	1277,93
767,98	1226,73
768,15	1292,27
768,33	1282,03
768,51	1290,22
768,69	1355,76
768,87	1247,21
769,04	1196,01
769,22	1327,08
769,40	1300,46
769,58	1302,51
769,75	1210,35
769,93	1333,23
770,11	1282,03
770,28	1267,69
770,46	1341,42
770,64	1286,12
770,82	1251,31
770,99	1277,93
771,17	1267,69
771,35	1273,84
771,53	1316,84
771,70	1294,32
771,88	1341,42
772,06	1255,40
772,23	1249,26
772,41	1304,56
772,59	1314,80
772,77	1331,18
772,94	1269,74
773,12	1304,56
773,30	1265,64
773,47	1261,55
773,65	1222,64
773,83	1269,74
774,01	1292,27
774,18	1286,12
774,36	1368,04
774,54	1292,27
774,71	1245,16
774,89	1243,12
775,07	1312,75
775,24	1208,30
775,42	1327,08
775,60	1261,55
775,78	1220,59
775,95	1263,60
776,13	1220,59
776,31	1279,98
776,48	1329,13
776,66	1271,79
776,84	1331,18
777,01	1275,88
777,19	1247,21
777,37	1279,98
777,54	1355,76
777,72	1300,46
777,90	1308,65
778,07	1263,60
778,25	1302,51
778,43	1296,36
778,60	1318,89
778,78	1314,80
778,96	1193,97
779,13	1261,55
779,31	1286,12
779,49	1337,32
779,66	1204,21
779,84	1265,64
780,01	1322,99
780,19	1243,12
780,37	1316,84
780,54	1257,45
780,72	1222,64
780,90	1316,84
781,07	1308,65
781,25	1271,79
781,43	1253,36
781,60	1241,07
781,78	1232,88
781,95	1230,83
782,13	1232,88
782,31	1243,12
782,48	1306,60
782,66	1271,79
782,83	1265,64
783,01	1269,74
783,19	1318,89
783,36	1263,60
783,54	1275,88
783,72	1282,03
783,89	1263,60
784,07	1298,41
784,24	1282,03
784,42	1251,31
784,60	1206,25
784,77	1247,21
784,95	1300,46
785,12	1286,12
785,30	1267,69
785,47	1337,32
785,65	1271,79
785,83	1292,27
786,00	1198,06
786,18	1208,30
786,35	1316,84
786,53	1273,84
786,71	1257,45
786,88	1353,71
787,06	1193,97
787,23	1292,27
787,41	1269,74
787,58	1275,88
787,76	1265,64
787,94	1331,18
788,11	1224,69
788,29	1298,41
788,46	1216,49
788,64	1228,78
788,81	1261,55
788,99	1284,08
789,16	1232,88
789,34	1216,49
789,52	1173,49
789,69	1249,26
789,87	1263,60
790,04	1263,60
790,22	1265,64
790,39	1331,18
790,57	1290,22
790,74	1325,04
790,92	1259,50
791,09	1187,82
791,27	1275,88
791,44	1249,26
791,62	1290,22
791,79	1277,93
791,97	1245,16
792,15	1351,66
792,32	1318,89
792,50	1292,27
792,67	1251,31
792,85	1267,69
793,02	1175,53
793,20	1255,40
793,37	1265,64
793,55	1275,88
793,72	1288,17
793,90	1253,36
794,07	1218,54
794,25	1284,08
794,42	1232,88
794,60	1171,44
794,77	1200,11
794,95	1243,12
795,12	1265,64
795,30	1296,36
795,47	1273,84
795,65	1241,07
795,82	1275,88
796,00	1306,60
796,17	1251,31
796,34	1157,10
796,52	1310,70
796,69	1269,74
796,87	1232,88
797,04	1263,60
797,22	1331,18
797,39	1245,16
797,57	1206,25
797,74	1294,32
797,92	1220,59
798,09	1251,31
798,27	1312,75
798,44	1222,64
798,62	1269,74
798,79	1320,94
798,96	1241,07
799,14	1265,64
799,31	1277,93
799,49	1277,93
799,66	1277,93
799,84	1259,50
800,01	1310,70
800,19	1304,56
800,36	1275,88
800,53	1245,16
800,71	1312,75
800,88	1251,31
801,06	1179,63
801,23	1304,56
801,41	1275,88
801,58	1306,60
801,75	1271,79
801,93	1241,07
802,10	1327,08
802,28	1376,24
802,45	1257,45
802,63	1329,13
802,80	1255,40
802,97	1220,59
803,15	1230,83
803,32	1290,22
803,50	1198,06
803,67	1261,55
803,84	1239,02
804,02	1222,64
804,19	1343,47
804,37	1265,64
804,54	1286,12
804,71	1196,01
804,89	1273,84
805,06	1218,54
805,24	1255,40
805,41	1269,74
805,58	1247,21
805,76	1288,17
805,93	1271,79
806,10	1259,50
806,28	1275,88
806,45	1325,04
806,63	1314,80
806,80	1239,02
806,97	1251,31
807,15	1304,56
807,32	1312,75
807,49	1279,98
807,67	1308,65
807,84	1282,03
808,01	1193,97
808,19	1286,12
808,36	1279,98
808,54	1228,78
808,71	1304,56
808,88	1243,12
809,06	1318,89
809,23	1302,51
809,40	1236,97
809,58	1345,52
809,75	1241,07
809,92	1300,46
810,10	1296,36
810,27	1257,45
810,44	1282,03
810,62	1243,12
810,79	1314,80
810,96	1286,12
811,14	1253,36
811,31	1339,37
811,48	1224,69
811,66	1265,64
811,83	1290,22
812,00	1284,08
812,18	1245,16
812,35	1355,76
812,52	1329,13
812,69	1282,03
812,87	1253,36
813,04	1267,69
813,21	1296,36
813,39	1273,84
813,56	1294,32
813,73	1247,21
813,91	1228,78
814,08	1249,26
814,25	1241,07
814,42	1361,90
814,60	1372,14
814,77	1286,12
814,94	1265,64
815,12	1292,27
815,29	1255,40
815,46	1306,60
815,63	1322,99
815,81	1335,28
815,98	1271,79
816,15	1163,25
816,33	1259,50
816,50	1263,60
816,67	1331,18
816,84	1277,93
817,02	1236,97
817,19	1292,27
817,36	1320,94
817,53	1288,17
817,71	1153,01
817,88	1374,19
818,05	1292,27
818,22	1253,36
818,40	1257,45
818,57	1267,69
818,74	1286,12
818,91	1245,16
819,09	1284,08
819,26	1261,55
819,43	1214,45
819,60	1286,12
819,78	1253,36
819,95	1282,03
820,12	1279,98
820,29	1255,40
820,47	1243,12
820,64	1271,79
820,81	1183,73
820,98	1300,46
821,15	1273,84
821,33	1290,22
821,50	1245,16
821,67	1351,66
821,84	1259,50
822,02	1234,93
822,19	1308,65
822,36	1294,32
822,53	1159,15
822,70	1337,32
822,88	1269,74
823,05	1255,40
823,22	1220,59
823,39	1216,49
823,56	1204,21
823,74	1279,98
823,91	1314,80
824,08	1284,08
824,25	1230,83
824,42	1290,22
824,60	1282,03
824,77	1214,45
824,94	1204,21
825,11	1249,26
825,28	1243,12
825,45	1232,88
825,63	1294,32
825,80	1372,14
825,97	1343,47
826,14	1329,13
826,31	1142,77
826,48	1290,22
826,66	1236,97
826,83	1239,02
827,00	1316,84
827,17	1269,74
827,34	1286,12
827,51	1275,88
827,69	1273,84
827,86	1255,40
828,03	1265,64
828,20	1241,07
828,37	1322,99
828,54	1267,69
828,71	1322,99
828,89	1214,45
829,06	1245,16
829,23	1325,04
829,40	1267,69
829,57	1220,59
829,74	1288,17
829,91	1306,60
830,09	1322,99
830,26	1273,84
830,43	1232,88
830,60	1308,65
830,77	1294,32
830,94	1255,40
831,11	1290,22
831,28	1284,08
831,46	1234,93
831,63	1322,99
831,80	1255,40
831,97	1292,27
832,14	1265,64
832,31	1290,22
832,48	1314,80
832,65	1298,41
832,82	1322,99
832,99	1343,47
833,17	1165,29
833,34	1222,64
833,51	1265,64
833,68	1255,40
833,85	1292,27
834,02	1366,00
834,19	1263,60
834,36	1234,93
834,53	1282,03
834,70	1271,79
834,87	1261,55
835,04	1290,22
835,22	1290,22
835,39	1259,50
835,56	1255,40
835,73	1228,78
835,90	1318,89
836,07	1320,94
836,24	1247,21
836,41	1269,74
836,58	1249,26
836,75	1275,88
836,92	1216,49
837,09	1255,40
837,26	1277,93
837,43	1277,93
837,60	1247,21
837,77	1292,27
837,94	1245,16
838,12	1196,01
838,29	1267,69
838,46	1282,03
838,63	1255,40
838,80	1312,75
838,97	1232,88
839,14	1239,02
839,31	1216,49
839,48	1331,18
839,65	1249,26
839,82	1269,74
839,99	1279,98
840,16	1316,84
840,33	1292,27
840,50	1314,80
840,67	1234,93
840,84	1288,17
841,01	1298,41
841,18	1282,03
841,35	1189,87
841,52	1239,02
841,69	1284,08
841,86	1261,55
842,03	1275,88
842,20	1316,84
842,37	1282,03
842,54	1204,21
842,71	1271,79
842,88	1300,46
843,05	1243,12
843,22	1320,94
843,39	1271,79
843,56	1230,83
843,73	1279,98
843,90	1228,78
844,07	1306,60
844,24	1286,12
844,41	1241,07
844,58	1329,13
844,75	1236,97
844,92	1251,31
845,09	1245,16
845,26	1302,51
845,43	1261,55
845,60	1304,56
845,77	1312,75
845,94	1269,74
846,10	1282,03
846,27	1257,45
846,44	1239,02
846,61	1222,64
846,78	1257,45
846,95	1304,56
847,12	1269,74
847,29	1273,84
847,46	1288,17
847,63	1259,50
847,80	1314,80
847,97	1296,36
848,14	1304,56
848,31	1275,88
848,48	1294,32
848,65	1247,21
848,82	1224,69
848,98	1193,97
849,15	1255,40
849,32	1296,36
849,49	1253,36
849,66	1322,99
849,83	1302,51
850,00	1218,54
850,17	1329,13
850,34	1271,79
850,51	1265,64
850,68	1294,32
850,85	1325,04
851,01	1316,84
851,18	1298,41
851,35	1286,12
851,52	1271,79
851,69	1239,02
851,86	1216,49
852,03	1286,12
852,20	1241,07
852,37	1310,70
852,53	1220,59
852,70	1269,74
852,87	1320,94
853,04	1312,75
853,21	1200,11
853,38	1277,93
853,55	1261,55
853,72	1157,10
853,89	1288,17
854,05	1261,55
854,22	1304,56
854,39	1306,60
854,56	1255,40
854,73	1325,04
854,90	1236,97
855,07	1279,98
855,23	1239,02
855,40	1251,31
855,57	1329,13
855,74	1298,41
855,91	1312,75
856,08	1357,80
856,25	1294,32
856,41	1296,36
856,58	1355,76
856,75	1261,55
856,92	1234,93
857,09	1327,08
857,26	1271,79
857,42	1259,50
857,59	1222,64
857,76	1214,45
857,93	1273,84
858,10	1247,21
858,27	1222,64
858,43	1312,75
858,60	1282,03
858,77	1288,17
858,94	1257,45
859,11	1372,14
859,27	1271,79
859,44	1224,69
859,61	1224,69
859,78	1249,26
859,95	1234,93
860,12	1230,83
860,28	1316,84
860,45	1255,40
860,62	1196,01
860,79	1245,16
860,95	1204,21
861,12	1329,13
861,29	1265,64
861,46	1171,44
861,63	1245,16
861,79	1183,73
861,96	1245,16
862,13	1320,94
862,30	1273,84
862,47	1222,64
862,63	1245,16
862,80	1261,55
862,97	1187,82
863,14	1378,28
863,30	1318,89
863,47	1306,60
863,64	1255,40
863,81	1257,45
863,97	1251,31
864,14	1253,36
864,31	1286,12
864,48	1300,46
864,65	1343,47
864,81	1212,40
864,98	1259,50
865,15	1298,41
865,32	1282,03
865,48	1241,07
865,65	1296,36
865,82	1273,84
865,98	1206,25
866,15	1282,03
866,32	1257,45
866,49	1296,36
866,65	1290,22
866,82	1265,64
866,99	1290,22
867,16	1357,80
867,32	1253,36
867,49	1269,74
867,66	1310,70
867,83	1335,28
867,99	1277,93
868,16	1200,11
868,33	1259,50
868,49	1378,28
868,66	1173,49
868,83	1263,60
868,99	1257,45
869,16	1228,78
869,33	1236,97
869,50	1224,69
869,66	1308,65
869,83	1230,83
870,00	1247,21
870,16	1232,88
870,33	1286,12
870,50	1306,60
870,66	1310,70
870,83	1343,47
871,00	1259,50
871,17	1288,17
871,33	1345,52
871,50	1306,60
871,67	1236,97
871,83	1288,17
872,00	1322,99
872,17	1288,17
872,33	1298,41
872,50	1193,97
872,67	1322,99
872,83	1294,32
873,00	1320,94
873,17	1366,00
873,33	1263,60
873,50	1249,26
873,67	1306,60
873,83	1304,56
874,00	1200,11
874,16	1306,60
874,33	1224,69
874,50	1236,97
874,66	1257,45
874,83	1241,07
875,00	1284,08
875,16	1325,04
875,33	1302,51
875,50	1290,22
875,66	1306,60
875,83	1331,18
875,99	1296,36
876,16	1273,84
876,33	1277,93
876,49	1267,69
876,66	1232,88
876,83	1275,88
876,99	1339,37
877,16	1290,22
877,32	1257,45
877,49	1304,56
877,66	1230,83
877,82	1263,60
877,99	1284,08
878,15	1302,51
878,32	1253,36
878,49	1220,59
878,65	1271,79
878,82	1308,65
878,98	1269,74
879,15	1320,94
879,32	1286,12
879,48	1304,56
879,65	1247,21
879,81	1249,26
879,98	1130,48
880,15	1273,84
880,31	1273,84
880,48	1267,69
880,64	1245,16
880,81	1200,11
880,97	1288,17
881,14	1257,45
881,31	1179,63
881,47	1302,51
881,64	1267,69
881,80	1239,02
881,97	1294,32
882,13	1333,23
882,30	1345,52
882,47	1271,79
882,63	1173,49
882,80	1245,16
882,96	1181,68
883,13	1284,08
883,29	1196,01
883,46	1357,80
883,62	1257,45
883,79	1271,79
883,95	1241,07
884,12	1255,40
884,29	1325,04
884,45	1312,75
884,62	1325,04
884,78	1234,93
884,95	1306,60
885,11	1222,64
885,28	1320,94
885,44	1347,56
885,61	1200,11
885,77	1275,88
885,94	1220,59
886,10	1308,65
886,27	1292,27
886,43	1353,71
886,60	1263,60
886,76	1279,98
886,93	1216,49
887,09	1292,27
887,26	1263,60
887,42	1329,13
887,59	1212,40
887,75	1290,22
887,92	1304,56
888,08	1322,99
888,25	1304,56
888,41	1222,64
888,58	1259,50
888,74	1349,61
888,91	1284,08
>>>>>End Processed Spectral Data<<<<<
