SpectraSuite Data File
++++++++++++++++++++++++++++++++++++
Date: Sun Apr 03 14:26:04 CEST 2016
User: root
Dark Spectrum Present: No
Reference Spectrum Present: No
Number of Sampled Component Spectra: 1
Spectrometers: USB4C02835
Integration Time (usec): 10000 (USB4C02835)
Spectra Averaged: 1 (USB4C02835)
Boxcar Smoothing: 0 (USB4C02835)
Correct for Electrical Dark: No (USB4C02835)
Strobe/Lamp Enabled: No (USB4C02835)
Correct for Detector Non-linearity: No (USB4C02835)
Correct for Stray Light: No (USB4C02835)
Number of Pixels in Processed Spectrum: 3648
>>>>>Begin Processed Spectral Data<<<<<
177,47	1228,78
177,69	1228,78
177,91	1228,78
178,13	1220,59
178,36	1216,49
178,58	1224,69
178,80	1318,89
179,02	1247,21
179,24	1204,21
179,46	1318,89
179,68	1245,16
179,90	1243,12
180,13	1261,55
180,35	1236,97
180,57	1322,99
180,79	1308,65
181,01	1216,49
181,23	1294,32
181,45	1210,35
181,67	1314,80
181,90	1239,02
182,12	1284,08
182,34	1222,64
182,56	1335,28
182,78	1306,60
183,00	1265,64
183,22	1249,26
183,44	1294,32
183,66	1331,18
183,89	1290,22
184,11	1302,51
184,33	1253,36
184,55	1279,98
184,77	1277,93
184,99	1228,78
185,21	1185,77
185,43	1226,73
185,65	1232,88
185,87	1286,12
186,10	1255,40
186,32	1306,60
186,54	1271,79
186,76	1228,78
186,98	1355,76
187,20	1312,75
187,42	1292,27
187,64	1331,18
187,86	1267,69
188,08	1275,88
188,30	1239,02
188,52	1331,18
188,75	1269,74
188,97	1279,98
189,19	1218,54
189,41	1243,12
189,63	1300,46
189,85	1284,08
190,07	1259,50
190,29	1234,93
190,51	1273,84
190,73	1322,99
190,95	1282,03
191,17	1322,99
191,39	1251,31
191,61	1314,80
191,84	1265,64
192,06	1273,84
192,28	1226,73
192,50	1335,28
192,72	1302,51
192,94	1241,07
193,16	1312,75
193,38	1306,60
193,60	1308,65
193,82	1306,60
194,04	1224,69
194,26	1279,98
194,48	1271,79
194,70	1351,66
194,92	1212,40
195,14	1302,51
195,36	1208,30
195,58	1265,64
195,80	1241,07
196,02	1234,93
196,24	1273,84
196,46	1265,64
196,69	1263,60
196,91	1294,32
197,13	1277,93
197,35	1292,27
197,57	1269,74
197,79	1292,27
198,01	1327,08
198,23	1279,98
198,45	1282,03
198,67	1288,17
198,89	1298,41
199,11	1247,21
199,33	1202,16
199,55	1304,56
199,77	1273,84
199,99	1357,80
200,21	1234,93
200,43	1245,16
200,65	1322,99
200,87	1208,30
201,09	1210,35
201,31	1243,12
201,53	1257,45
201,75	1327,08
201,97	1189,87
202,19	1292,27
202,41	1359,85
202,63	1253,36
202,85	1312,75
203,07	1349,61
203,29	1269,74
203,51	1257,45
203,73	1267,69
203,95	1273,84
204,17	1228,78
204,39	1222,64
204,61	1314,80
204,83	1322,99
205,05	1284,08
205,27	1327,08
205,49	1241,07
205,71	1273,84
205,93	1282,03
206,15	1239,02
206,37	1406,95
206,59	1275,88
206,81	1255,40
207,03	1236,97
207,25	1220,59
207,47	1271,79
207,69	1234,93
207,91	1212,40
208,13	1333,23
208,34	1368,04
208,56	1290,22
208,78	1234,93
209,00	1273,84
209,22	1271,79
209,44	1234,93
209,66	1230,83
209,88	1343,47
210,10	1298,41
210,32	1286,12
210,54	1173,49
210,76	1331,18
210,98	1298,41
211,20	1253,36
211,42	1292,27
211,64	1261,55
211,86	1236,97
212,08	1277,93
212,30	1306,60
212,52	1220,59
212,74	1239,02
212,96	1286,12
213,17	1294,32
213,39	1282,03
213,61	1263,60
213,83	1239,02
214,05	1228,78
214,27	1292,27
214,49	1306,60
214,71	1275,88
214,93	1257,45
215,15	1277,93
215,37	1273,84
215,59	1265,64
215,81	1284,08
216,03	1355,76
216,24	1271,79
216,46	1286,12
216,68	1224,69
216,90	1294,32
217,12	1302,51
217,34	1267,69
217,56	1257,45
217,78	1322,99
218,00	1290,22
218,22	1290,22
218,44	1314,80
218,66	1247,21
218,87	1236,97
219,09	1306,60
219,31	1298,41
219,53	1234,93
219,75	1304,56
219,97	1243,12
220,19	1314,80
220,41	1318,89
220,63	1265,64
220,85	1284,08
221,06	1296,36
221,28	1228,78
221,50	1271,79
221,72	1286,12
221,94	1259,50
222,16	1245,16
222,38	1320,94
222,60	1230,83
222,82	1286,12
223,03	1263,60
223,25	1257,45
223,47	1296,36
223,69	1257,45
223,91	1224,69
224,13	1239,02
224,35	1298,41
224,57	1232,88
224,78	1257,45
225,00	1269,74
225,22	1298,41
225,44	1259,50
225,66	1304,56
225,88	1304,56
226,10	1282,03
226,32	1226,73
226,53	1275,88
226,75	1257,45
226,97	1286,12
227,19	1286,12
227,41	1224,69
227,63	1249,26
227,85	1236,97
228,06	1300,46
228,28	1339,37
228,50	1284,08
228,72	1232,88
228,94	1208,30
229,16	1245,16
229,37	1210,35
229,59	1226,73
229,81	1314,80
230,03	1239,02
230,25	1232,88
230,47	1263,60
230,69	1230,83
230,90	1306,60
231,12	1243,12
231,34	1296,36
231,56	1241,07
231,78	1279,98
232,00	1255,40
232,21	1290,22
232,43	1339,37
232,65	1288,17
232,87	1269,74
233,09	1300,46
233,30	1298,41
233,52	1296,36
233,74	1245,16
233,96	1318,89
234,18	1312,75
234,40	1224,69
234,61	1275,88
234,83	1245,16
235,05	1300,46
235,27	1253,36
235,49	1277,93
235,70	1337,32
235,92	1306,60
236,14	1228,78
236,36	1331,18
236,58	1304,56
236,79	1304,56
237,01	1277,93
237,23	1224,69
237,45	1271,79
237,67	1253,36
237,88	1277,93
238,10	1245,16
238,32	1239,02
238,54	1249,26
238,76	1343,47
238,97	1185,77
239,19	1261,55
239,41	1253,36
239,63	1275,88
239,85	1341,42
240,06	1249,26
240,28	1286,12
240,50	1265,64
240,72	1290,22
240,93	1269,74
241,15	1171,44
241,37	1157,10
241,59	1302,51
241,81	1253,36
242,02	1273,84
242,24	1273,84
242,46	1269,74
242,68	1155,05
242,89	1325,04
243,11	1277,93
243,33	1271,79
243,55	1288,17
243,76	1196,01
243,98	1333,23
244,20	1288,17
244,42	1255,40
244,64	1296,36
244,85	1245,16
245,07	1286,12
245,29	1202,16
245,51	1288,17
245,72	1243,12
245,94	1257,45
246,16	1282,03
246,38	1363,95
246,59	1298,41
246,81	1290,22
247,03	1255,40
247,24	1193,97
247,46	1249,26
247,68	1218,54
247,90	1308,65
248,11	1271,79
248,33	1284,08
248,55	1232,88
248,77	1239,02
248,98	1257,45
249,20	1343,47
249,42	1193,97
249,64	1259,50
249,85	1226,73
250,07	1265,64
250,29	1345,52
250,50	1259,50
250,72	1253,36
250,94	1329,13
251,16	1234,93
251,37	1292,27
251,59	1234,93
251,81	1384,43
252,02	1247,21
252,24	1255,40
252,46	1259,50
252,68	1243,12
252,89	1269,74
253,11	1222,64
253,33	1314,80
253,54	1220,59
253,76	1353,71
253,98	1239,02
254,20	1228,78
254,41	1277,93
254,63	1177,58
254,85	1351,66
255,06	1247,21
255,28	1239,02
255,50	1314,80
255,71	1288,17
255,93	1261,55
256,15	1253,36
256,36	1257,45
256,58	1277,93
256,80	1267,69
257,02	1318,89
257,23	1271,79
257,45	1230,83
257,67	1226,73
257,88	1249,26
258,10	1251,31
258,32	1255,40
258,53	1310,70
258,75	1218,54
258,97	1269,74
259,18	1372,14
259,40	1279,98
259,62	1232,88
259,83	1292,27
260,05	1279,98
260,27	1288,17
260,48	1286,12
260,70	1333,23
260,92	1269,74
261,13	1263,60
261,35	1255,40
261,57	1269,74
261,78	1306,60
262,00	1320,94
262,22	1290,22
262,43	1308,65
262,65	1286,12
262,86	1300,46
263,08	1273,84
263,30	1263,60
263,51	1273,84
263,73	1236,97
263,95	1292,27
264,16	1302,51
264,38	1265,64
264,60	1331,18
264,81	1251,31
265,03	1277,93
265,25	1261,55
265,46	1292,27
265,68	1247,21
265,89	1284,08
266,11	1224,69
266,33	1247,21
266,54	1292,27
266,76	1325,04
266,98	1255,40
267,19	1347,56
267,41	1277,93
267,62	1247,21
267,84	1212,40
268,06	1337,32
268,27	1249,26
268,49	1286,12
268,70	1232,88
268,92	1265,64
269,14	1196,01
269,35	1306,60
269,57	1331,18
269,79	1253,36
270,00	1296,36
270,22	1273,84
270,43	1239,02
270,65	1290,22
270,87	1222,64
271,08	1345,52
271,30	1279,98
271,51	1267,69
271,73	1249,26
271,95	1298,41
272,16	1257,45
272,38	1245,16
272,59	1234,93
272,81	1243,12
273,02	1245,16
273,24	1294,32
273,46	1300,46
273,67	1230,83
273,89	1232,88
274,10	1279,98
274,32	1316,84
274,54	1271,79
274,75	1290,22
274,97	1337,32
275,18	1257,45
275,40	1318,89
275,61	1279,98
275,83	1327,08
276,05	1292,27
276,26	1316,84
276,48	1257,45
276,69	1312,75
276,91	1298,41
277,12	1310,70
277,34	1247,21
277,55	1298,41
277,77	1253,36
277,99	1261,55
278,20	1308,65
278,42	1265,64
278,63	1302,51
278,85	1245,16
279,06	1247,21
279,28	1261,55
279,49	1269,74
279,71	1300,46
279,93	1290,22
280,14	1284,08
280,36	1243,12
280,57	1306,60
280,79	1243,12
281,00	1255,40
281,22	1236,97
281,43	1269,74
281,65	1331,18
281,86	1220,59
282,08	1249,26
282,29	1306,60
282,51	1275,88
282,73	1253,36
282,94	1267,69
283,16	1259,50
283,37	1322,99
283,59	1259,50
283,80	1275,88
284,02	1249,26
284,23	1265,64
284,45	1298,41
284,66	1267,69
284,88	1253,36
285,09	1284,08
285,31	1261,55
285,52	1329,13
285,74	1277,93
285,95	1261,55
286,17	1253,36
286,38	1335,28
286,60	1255,40
286,81	1265,64
287,03	1257,45
287,24	1296,36
287,46	1257,45
287,67	1300,46
287,89	1265,64
288,10	1282,03
288,32	1290,22
288,53	1232,88
288,75	1251,31
288,96	1261,55
289,18	1279,98
289,39	1261,55
289,61	1279,98
289,82	1306,60
290,04	1222,64
290,25	1277,93
290,47	1265,64
290,68	1257,45
290,90	1181,68
291,11	1212,40
291,33	1308,65
291,54	1314,80
291,76	1214,45
291,97	1253,36
292,18	1302,51
292,40	1204,21
292,61	1253,36
292,83	1277,93
293,04	1282,03
293,26	1243,12
293,47	1339,37
293,69	1294,32
293,90	1224,69
294,12	1318,89
294,33	1333,23
294,55	1232,88
294,76	1306,60
294,97	1236,97
295,19	1296,36
295,40	1269,74
295,62	1245,16
295,83	1329,13
296,05	1273,84
296,26	1247,21
296,48	1302,51
296,69	1224,69
296,90	1300,46
297,12	1265,64
297,33	1241,07
297,55	1251,31
297,76	1279,98
297,98	1312,75
298,19	1226,73
298,41	1265,64
298,62	1259,50
298,83	1267,69
299,05	1265,64
299,26	1226,73
299,48	1298,41
299,69	1290,22
299,90	1269,74
300,12	1222,64
300,33	1206,25
300,55	1253,36
300,76	1263,60
300,98	1404,91
301,19	1284,08
301,40	1255,40
301,62	1214,45
301,83	1277,93
302,05	1269,74
302,26	1245,16
302,47	1329,13
302,69	1304,56
302,90	1232,88
303,12	1251,31
303,33	1306,60
303,54	1288,17
303,76	1306,60
303,97	1318,89
304,19	1222,64
304,40	1234,93
304,61	1296,36
304,83	1304,56
305,04	1288,17
305,26	1320,94
305,47	1353,71
305,68	1239,02
305,90	1245,16
306,11	1247,21
306,33	1294,32
306,54	1368,04
306,75	1284,08
306,97	1339,37
307,18	1189,87
307,39	1290,22
307,61	1282,03
307,82	1253,36
308,04	1298,41
308,25	1177,58
308,46	1279,98
308,68	1212,40
308,89	1239,02
309,10	1232,88
309,32	1306,60
309,53	1210,35
309,74	1259,50
309,96	1314,80
310,17	1282,03
310,39	1243,12
310,60	1216,49
310,81	1228,78
311,03	1273,84
311,24	1255,40
311,45	1314,80
311,67	1261,55
311,88	1320,94
312,09	1322,99
312,31	1253,36
312,52	1220,59
312,73	1271,79
312,95	1292,27
313,16	1294,32
313,37	1339,37
313,59	1351,66
313,80	1255,40
314,01	1226,73
314,23	1325,04
314,44	1282,03
314,65	1214,45
314,87	1206,25
315,08	1267,69
315,29	1292,27
315,51	1138,67
315,72	1273,84
315,93	1220,59
316,15	1331,18
316,36	1230,83
316,57	1286,12
316,79	1245,16
317,00	1290,22
317,21	1271,79
317,43	1353,71
317,64	1228,78
317,85	1304,56
318,07	1269,74
318,28	1331,18
318,49	1253,36
318,70	1284,08
318,92	1232,88
319,13	1341,42
319,34	1253,36
319,56	1306,60
319,77	1232,88
319,98	1267,69
320,20	1239,02
320,41	1314,80
320,62	1341,42
320,83	1269,74
321,05	1331,18
321,26	1290,22
321,47	1263,60
321,69	1296,36
321,90	1296,36
322,11	1282,03
322,32	1249,26
322,54	1232,88
322,75	1333,23
322,96	1263,60
323,18	1234,93
323,39	1185,77
323,60	1306,60
323,81	1304,56
324,03	1302,51
324,24	1312,75
324,45	1249,26
324,66	1224,69
324,88	1245,16
325,09	1257,45
325,30	1304,56
325,52	1329,13
325,73	1228,78
325,94	1292,27
326,15	1269,74
326,37	1259,50
326,58	1257,45
326,79	1222,64
327,00	1253,36
327,22	1255,40
327,43	1298,41
327,64	1310,70
327,85	1351,66
328,07	1259,50
328,28	1327,08
328,49	1304,56
328,70	1259,50
328,92	1255,40
329,13	1312,75
329,34	1232,88
329,55	1277,93
329,76	1335,28
329,98	1286,12
330,19	1175,53
330,40	1181,68
330,61	1259,50
330,83	1282,03
331,04	1241,07
331,25	1308,65
331,46	1296,36
331,68	1265,64
331,89	1353,71
332,10	1277,93
332,31	1206,25
332,52	1267,69
332,74	1380,33
332,95	1331,18
333,16	1265,64
333,37	1271,79
333,58	1304,56
333,80	1275,88
334,01	1290,22
334,22	1316,84
334,43	1249,26
334,64	1226,73
334,86	1286,12
335,07	1279,98
335,28	1261,55
335,49	1312,75
335,70	1302,51
335,92	1320,94
336,13	1316,84
336,34	1294,32
336,55	1196,01
336,76	1279,98
336,98	1335,28
337,19	1349,61
337,40	1277,93
337,61	1294,32
337,82	1312,75
338,04	1216,49
338,25	1267,69
338,46	1300,46
338,67	1259,50
338,88	1212,40
339,09	1251,31
339,31	1232,88
339,52	1304,56
339,73	1214,45
339,94	1261,55
340,15	1314,80
340,36	1232,88
340,58	1271,79
340,79	1294,32
341,00	1263,60
341,21	1226,73
341,42	1191,92
341,63	1232,88
341,85	1273,84
342,06	1267,69
342,27	1261,55
342,48	1304,56
342,69	1314,80
342,90	1269,74
343,12	1337,32
343,33	1302,51
343,54	1267,69
343,75	1345,52
343,96	1322,99
344,17	1228,78
344,38	1236,97
344,60	1226,73
344,81	1284,08
345,02	1290,22
345,23	1234,93
345,44	1294,32
345,65	1269,74
345,86	1273,84
346,07	1282,03
346,29	1220,59
346,50	1224,69
346,71	1322,99
346,92	1228,78
347,13	1302,51
347,34	1253,36
347,55	1312,75
347,76	1296,36
347,98	1224,69
348,19	1245,16
348,40	1241,07
348,61	1259,50
348,82	1273,84
349,03	1282,03
349,24	1265,64
349,45	1282,03
349,66	1224,69
349,88	1243,12
350,09	1300,46
350,30	1257,45
350,51	1286,12
350,72	1232,88
350,93	1222,64
351,14	1263,60
351,35	1277,93
351,56	1368,04
351,77	1247,21
351,99	1271,79
352,20	1265,64
352,41	1284,08
352,62	1279,98
352,83	1265,64
353,04	1288,17
353,25	1228,78
353,46	1267,69
353,67	1263,60
353,88	1239,02
354,09	1236,97
354,30	1288,17
354,52	1282,03
354,73	1279,98
354,94	1265,64
355,15	1243,12
355,36	1259,50
355,57	1257,45
355,78	1277,93
355,99	1214,45
356,20	1236,97
356,41	1208,30
356,62	1204,21
356,83	1222,64
357,04	1296,36
357,25	1327,08
357,46	1257,45
357,68	1263,60
357,89	1306,60
358,10	1253,36
358,31	1329,13
358,52	1271,79
358,73	1226,73
358,94	1290,22
359,15	1294,32
359,36	1277,93
359,57	1273,84
359,78	1241,07
359,99	1255,40
360,20	1296,36
360,41	1263,60
360,62	1337,32
360,83	1185,77
361,04	1269,74
361,25	1269,74
361,46	1282,03
361,67	1249,26
361,88	1288,17
362,09	1253,36
362,30	1312,75
362,51	1368,04
362,72	1282,03
362,93	1341,42
363,14	1222,64
363,35	1253,36
363,56	1361,90
363,78	1331,18
363,99	1359,85
364,20	1296,36
364,41	1216,49
364,62	1255,40
364,83	1296,36
365,04	1241,07
365,25	1261,55
365,46	1265,64
365,67	1341,42
365,88	1286,12
366,09	1322,99
366,30	1243,12
366,51	1210,35
366,72	1333,23
366,93	1284,08
367,14	1239,02
367,35	1318,89
367,56	1318,89
367,77	1259,50
367,98	1247,21
368,18	1267,69
368,39	1318,89
368,60	1277,93
368,81	1310,70
369,02	1269,74
369,23	1253,36
369,44	1306,60
369,65	1302,51
369,86	1263,60
370,07	1220,59
370,28	1284,08
370,49	1329,13
370,70	1273,84
370,91	1296,36
371,12	1249,26
371,33	1255,40
371,54	1310,70
371,75	1241,07
371,96	1269,74
372,17	1292,27
372,38	1304,56
372,59	1292,27
372,80	1249,26
373,01	1220,59
373,22	1259,50
373,43	1239,02
373,64	1286,12
373,85	1335,28
374,06	1234,93
374,26	1189,87
374,47	1261,55
374,68	1318,89
374,89	1290,22
375,10	1247,21
375,31	1290,22
375,52	1243,12
375,73	1208,30
375,94	1236,97
376,15	1339,37
376,36	1255,40
376,57	1331,18
376,78	1214,45
376,99	1282,03
377,20	1335,28
377,40	1236,97
377,61	1265,64
377,82	1302,51
378,03	1312,75
378,24	1275,88
378,45	1261,55
378,66	1232,88
378,87	1234,93
379,08	1335,28
379,29	1310,70
379,50	1261,55
379,71	1245,16
379,91	1247,21
380,12	1230,83
380,33	1208,30
380,54	1249,26
380,75	1210,35
380,96	1300,46
381,17	1230,83
381,38	1275,88
381,59	1361,90
381,80	1216,49
382,00	1232,88
382,21	1247,21
382,42	1265,64
382,63	1261,55
382,84	1241,07
383,05	1265,64
383,26	1282,03
383,47	1269,74
383,68	1218,54
383,88	1296,36
384,09	1318,89
384,30	1187,82
384,51	1306,60
384,72	1224,69
384,93	1241,07
385,14	1208,30
385,35	1259,50
385,55	1249,26
385,76	1269,74
385,97	1189,87
386,18	1245,16
386,39	1318,89
386,60	1253,36
386,81	1339,37
387,02	1257,45
387,22	1247,21
387,43	1322,99
387,64	1189,87
387,85	1327,08
388,06	1308,65
388,27	1216,49
388,48	1214,45
388,68	1296,36
388,89	1261,55
389,10	1306,60
389,31	1282,03
389,52	1277,93
389,73	1261,55
389,93	1232,88
390,14	1265,64
390,35	1214,45
390,56	1308,65
390,77	1251,31
390,98	1290,22
391,18	1234,93
391,39	1339,37
391,60	1259,50
391,81	1243,12
392,02	1322,99
392,23	1322,99
392,43	1239,02
392,64	1306,60
392,85	1306,60
393,06	1236,97
393,27	1265,64
393,47	1232,88
393,68	1327,08
393,89	1261,55
394,10	1271,79
394,31	1306,60
394,52	1296,36
394,72	1257,45
394,93	1282,03
395,14	1236,97
395,35	1273,84
395,56	1247,21
395,76	1249,26
395,97	1331,18
396,18	1222,64
396,39	1298,41
396,60	1226,73
396,80	1271,79
397,01	1322,99
397,22	1228,78
397,43	1241,07
397,64	1249,26
397,84	1259,50
398,05	1370,09
398,26	1298,41
398,47	1277,93
398,67	1220,59
398,88	1259,50
399,09	1300,46
399,30	1239,02
399,51	1222,64
399,71	1290,22
399,92	1290,22
400,13	1218,54
400,34	1306,60
400,54	1222,64
400,75	1304,56
400,96	1284,08
401,17	1304,56
401,37	1279,98
401,58	1327,08
401,79	1292,27
402,00	1241,07
402,21	1343,47
402,41	1271,79
402,62	1277,93
402,83	1257,45
403,04	1284,08
403,24	1257,45
403,45	1273,84
403,66	1282,03
403,87	1286,12
404,07	1220,59
404,28	1337,32
404,49	1347,56
404,70	1269,74
404,90	1288,17
405,11	1314,80
405,32	1273,84
405,52	1253,36
405,73	1294,32
405,94	1222,64
406,15	1251,31
406,35	1355,76
406,56	1316,84
406,77	1206,25
406,98	1265,64
407,18	1282,03
407,39	1265,64
407,60	1249,26
407,80	1253,36
408,01	1361,90
408,22	1224,69
408,43	1261,55
408,63	1333,23
408,84	1234,93
409,05	1312,75
409,25	1273,84
409,46	1361,90
409,67	1316,84
409,88	1255,40
410,08	1245,16
410,29	1286,12
410,50	1267,69
410,70	1241,07
410,91	1294,32
411,12	1296,36
411,32	1279,98
411,53	1263,60
411,74	1249,26
411,95	1290,22
412,15	1261,55
412,36	1339,37
412,57	1257,45
412,77	1290,22
412,98	1249,26
413,19	1277,93
413,39	1208,30
413,60	1292,27
413,81	1251,31
414,01	1284,08
414,22	1282,03
414,43	1232,88
414,63	1241,07
414,84	1322,99
415,05	1226,73
415,25	1296,36
415,46	1329,13
415,67	1263,60
415,87	1249,26
416,08	1294,32
416,29	1236,97
416,49	1267,69
416,70	1310,70
416,91	1275,88
417,11	1173,49
417,32	1271,79
417,53	1279,98
417,73	1261,55
417,94	1265,64
418,15	1304,56
418,35	1206,25
418,56	1261,55
418,77	1267,69
418,97	1310,70
419,18	1294,32
419,38	1253,36
419,59	1294,32
419,80	1253,36
420,00	1343,47
420,21	1296,36
420,42	1308,65
420,62	1351,66
420,83	1261,55
421,04	1316,84
421,24	1298,41
421,45	1279,98
421,65	1290,22
421,86	1292,27
422,07	1318,89
422,27	1263,60
422,48	1232,88
422,69	1298,41
422,89	1245,16
423,10	1271,79
423,30	1236,97
423,51	1218,54
423,72	1275,88
423,92	1265,64
424,13	1302,51
424,33	1273,84
424,54	1275,88
424,75	1320,94
424,95	1265,64
425,16	1279,98
425,36	1245,16
425,57	1290,22
425,78	1277,93
425,98	1269,74
426,19	1298,41
426,39	1200,11
426,60	1245,16
426,81	1208,30
427,01	1322,99
427,22	1267,69
427,42	1243,12
427,63	1277,93
427,83	1232,88
428,04	1376,24
428,25	1204,21
428,45	1275,88
428,66	1236,97
428,86	1279,98
429,07	1257,45
429,28	1302,51
429,48	1269,74
429,69	1224,69
429,89	1239,02
430,10	1273,84
430,30	1271,79
430,51	1290,22
430,71	1232,88
430,92	1355,76
431,13	1279,98
431,33	1306,60
431,54	1292,27
431,74	1296,36
431,95	1173,49
432,15	1206,25
432,36	1257,45
432,56	1234,93
432,77	1253,36
432,98	1286,12
433,18	1249,26
433,39	1331,18
433,59	1284,08
433,80	1269,74
434,00	1255,40
434,21	1304,56
434,41	1304,56
434,62	1316,84
434,82	1288,17
435,03	1226,73
435,23	1269,74
435,44	1243,12
435,64	1273,84
435,85	1249,26
436,06	1249,26
436,26	1331,18
436,47	1232,88
436,67	1300,46
436,88	1271,79
437,08	1308,65
437,29	1292,27
437,49	1267,69
437,70	1206,25
437,90	1251,31
438,11	1253,36
438,31	1261,55
438,52	1257,45
438,72	1331,18
438,93	1273,84
439,13	1212,40
439,34	1247,21
439,54	1249,26
439,75	1257,45
439,95	1294,32
440,16	1200,11
440,36	1253,36
440,57	1282,03
440,77	1306,60
440,98	1232,88
441,18	1226,73
441,39	1308,65
441,59	1206,25
441,80	1343,47
442,00	1316,84
442,21	1255,40
442,41	1378,28
442,62	1261,55
442,82	1255,40
443,02	1245,16
443,23	1318,89
443,43	1255,40
443,64	1298,41
443,84	1259,50
444,05	1210,35
444,25	1249,26
444,46	1349,61
444,66	1282,03
444,87	1247,21
445,07	1355,76
445,28	1275,88
445,48	1284,08
445,69	1255,40
445,89	1245,16
446,09	1318,89
446,30	1261,55
446,50	1265,64
446,71	1261,55
446,91	1279,98
447,12	1374,19
447,32	1306,60
447,53	1302,51
447,73	1257,45
447,93	1234,93
448,14	1251,31
448,34	1316,84
448,55	1265,64
448,75	1314,80
448,96	1275,88
449,16	1263,60
449,36	1310,70
449,57	1335,28
449,77	1214,45
449,98	1339,37
450,18	1220,59
450,39	1277,93
450,59	1267,69
450,79	1306,60
451,00	1277,93
451,20	1269,74
451,41	1206,25
451,61	1247,21
451,81	1286,12
452,02	1282,03
452,22	1200,11
452,43	1239,02
452,63	1230,83
452,84	1253,36
453,04	1294,32
453,24	1257,45
453,45	1277,93
453,65	1241,07
453,86	1251,31
454,06	1230,83
454,26	1228,78
454,47	1253,36
454,67	1374,19
454,87	1341,42
455,08	1261,55
455,28	1282,03
455,49	1269,74
455,69	1286,12
455,89	1290,22
456,10	1253,36
456,30	1355,76
456,51	1282,03
456,71	1251,31
456,91	1271,79
457,12	1249,26
457,32	1267,69
457,52	1339,37
457,73	1265,64
457,93	1251,31
458,14	1208,30
458,34	1273,84
458,54	1241,07
458,75	1279,98
458,95	1245,16
459,15	1302,51
459,36	1261,55
459,56	1253,36
459,76	1208,30
459,97	1314,80
460,17	1320,94
460,37	1314,80
460,58	1232,88
460,78	1320,94
460,99	1306,60
461,19	1353,71
461,39	1210,35
461,60	1310,70
461,80	1290,22
462,00	1318,89
462,21	1257,45
462,41	1304,56
462,61	1286,12
462,82	1282,03
463,02	1308,65
463,22	1218,54
463,43	1288,17
463,63	1196,01
463,83	1271,79
464,04	1230,83
464,24	1269,74
464,44	1269,74
464,64	1304,56
464,85	1279,98
465,05	1322,99
465,25	1214,45
465,46	1247,21
465,66	1271,79
465,86	1314,80
466,07	1212,40
466,27	1259,50
466,47	1331,18
466,68	1310,70
466,88	1243,12
467,08	1284,08
467,29	1249,26
467,49	1273,84
467,69	1282,03
467,89	1269,74
468,10	1308,65
468,30	1202,16
468,50	1249,26
468,71	1279,98
468,91	1277,93
469,11	1265,64
469,31	1296,36
469,52	1282,03
469,72	1312,75
469,92	1265,64
470,13	1232,88
470,33	1222,64
470,53	1214,45
470,73	1236,97
470,94	1265,64
471,14	1327,08
471,34	1259,50
471,54	1202,16
471,75	1265,64
471,95	1314,80
472,15	1247,21
472,36	1271,79
472,56	1263,60
472,76	1239,02
472,96	1253,36
473,17	1249,26
473,37	1306,60
473,57	1245,16
473,77	1251,31
473,98	1263,60
474,18	1200,11
474,38	1251,31
474,58	1322,99
474,79	1329,13
474,99	1312,75
475,19	1337,32
475,39	1255,40
475,60	1279,98
475,80	1261,55
476,00	1331,18
476,20	1241,07
476,41	1265,64
476,61	1300,46
476,81	1251,31
477,01	1247,21
477,21	1265,64
477,42	1322,99
477,62	1253,36
477,82	1331,18
478,02	1304,56
478,23	1302,51
478,43	1284,08
478,63	1226,73
478,83	1253,36
479,03	1306,60
479,24	1302,51
479,44	1204,21
479,64	1265,64
479,84	1306,60
480,04	1306,60
480,25	1275,88
480,45	1277,93
480,65	1337,32
480,85	1275,88
481,06	1341,42
481,26	1222,64
481,46	1294,32
481,66	1314,80
481,86	1261,55
482,06	1284,08
482,27	1277,93
482,47	1306,60
482,67	1331,18
482,87	1294,32
483,07	1224,69
483,28	1316,84
483,48	1302,51
483,68	1255,40
483,88	1275,88
484,08	1282,03
484,29	1296,36
484,49	1259,50
484,69	1230,83
484,89	1327,08
485,09	1255,40
485,29	1273,84
485,50	1263,60
485,70	1298,41
485,90	1329,13
486,10	1275,88
486,30	1220,59
486,50	1271,79
486,71	1296,36
486,91	1202,16
487,11	1247,21
487,31	1263,60
487,51	1224,69
487,71	1224,69
487,91	1294,32
488,12	1253,36
488,32	1325,04
488,52	1255,40
488,72	1331,18
488,92	1253,36
489,12	1269,74
489,32	1241,07
489,53	1279,98
489,73	1200,11
489,93	1234,93
490,13	1255,40
490,33	1386,47
490,53	1271,79
490,73	1290,22
490,94	1357,80
491,14	1277,93
491,34	1318,89
491,54	1177,58
491,74	1282,03
491,94	1304,56
492,14	1298,41
492,34	1230,83
492,54	1286,12
492,75	1232,88
492,95	1284,08
493,15	1210,35
493,35	1304,56
493,55	1273,84
493,75	1331,18
493,95	1351,66
494,15	1263,60
494,35	1228,78
494,56	1243,12
494,76	1259,50
494,96	1282,03
495,16	1228,78
495,36	1288,17
495,56	1337,32
495,76	1298,41
495,96	1230,83
496,16	1302,51
496,36	1275,88
496,56	1241,07
496,77	1224,69
496,97	1241,07
497,17	1277,93
497,37	1267,69
497,57	1279,98
497,77	1236,97
497,97	1236,97
498,17	1257,45
498,37	1275,88
498,57	1275,88
498,77	1265,64
498,97	1265,64
499,17	1222,64
499,38	1206,25
499,58	1275,88
499,78	1273,84
499,98	1292,27
500,18	1175,53
500,38	1269,74
500,58	1296,36
500,78	1304,56
500,98	1210,35
501,18	1320,94
501,38	1335,28
501,58	1200,11
501,78	1202,16
501,98	1314,80
502,18	1257,45
502,38	1318,89
502,58	1288,17
502,78	1259,50
502,98	1216,49
503,18	1241,07
503,38	1314,80
503,59	1314,80
503,79	1204,21
503,99	1298,41
504,19	1255,40
504,39	1302,51
504,59	1202,16
504,79	1290,22
504,99	1263,60
505,19	1286,12
505,39	1325,04
505,59	1337,32
505,79	1239,02
505,99	1249,26
506,19	1273,84
506,39	1257,45
506,59	1185,77
506,79	1288,17
506,99	1275,88
507,19	1298,41
507,39	1165,29
507,59	1290,22
507,79	1236,97
507,99	1282,03
508,19	1304,56
508,39	1230,83
508,59	1304,56
508,79	1339,37
508,99	1271,79
509,19	1263,60
509,39	1273,84
509,59	1245,16
509,79	1232,88
509,99	1302,51
510,19	1206,25
510,39	1312,75
510,59	1202,16
510,79	1224,69
510,99	1306,60
511,19	1310,70
511,39	1271,79
511,59	1245,16
511,79	1288,17
511,99	1318,89
512,19	1257,45
512,38	1239,02
512,58	1220,59
512,78	1251,31
512,98	1282,03
513,18	1366,00
513,38	1251,31
513,58	1259,50
513,78	1284,08
513,98	1273,84
514,18	1304,56
514,38	1308,65
514,58	1236,97
514,78	1239,02
514,98	1239,02
515,18	1290,22
515,38	1245,16
515,58	1325,04
515,78	1320,94
515,98	1290,22
516,18	1230,83
516,38	1277,93
516,57	1247,21
516,77	1343,47
516,97	1204,21
517,17	1271,79
517,37	1222,64
517,57	1269,74
517,77	1290,22
517,97	1286,12
518,17	1265,64
518,37	1273,84
518,57	1286,12
518,77	1306,60
518,97	1241,07
519,16	1368,04
519,36	1253,36
519,56	1255,40
519,76	1234,93
519,96	1222,64
520,16	1318,89
520,36	1218,54
520,56	1239,02
520,76	1214,45
520,96	1253,36
521,16	1273,84
521,35	1249,26
521,55	1230,83
521,75	1269,74
521,95	1290,22
522,15	1302,51
522,35	1273,84
522,55	1290,22
522,75	1284,08
522,95	1241,07
523,14	1320,94
523,34	1300,46
523,54	1292,27
523,74	1353,71
523,94	1273,84
524,14	1259,50
524,34	1327,08
524,54	1310,70
524,73	1253,36
524,93	1294,32
525,13	1275,88
525,33	1245,16
525,53	1245,16
525,73	1273,84
525,93	1241,07
526,13	1282,03
526,32	1286,12
526,52	1263,60
526,72	1353,71
526,92	1169,39
527,12	1304,56
527,32	1265,64
527,52	1282,03
527,71	1267,69
527,91	1241,07
528,11	1183,73
528,31	1265,64
528,51	1294,32
528,71	1200,11
528,90	1382,38
529,10	1275,88
529,30	1286,12
529,50	1257,45
529,70	1236,97
529,90	1286,12
530,09	1310,70
530,29	1265,64
530,49	1253,36
530,69	1208,30
530,89	1267,69
531,09	1310,70
531,28	1269,74
531,48	1249,26
531,68	1286,12
531,88	1304,56
532,08	1300,46
532,28	1224,69
532,47	1236,97
532,67	1290,22
532,87	1204,21
533,07	1255,40
533,27	1243,12
533,46	1279,98
533,66	1277,93
533,86	1224,69
534,06	1310,70
534,26	1271,79
534,45	1216,49
534,65	1220,59
534,85	1269,74
535,05	1241,07
535,25	1298,41
535,44	1318,89
535,64	1208,30
535,84	1269,74
536,04	1202,16
536,24	1286,12
536,43	1286,12
536,63	1288,17
536,83	1269,74
537,03	1171,44
537,22	1241,07
537,42	1251,31
537,62	1212,40
537,82	1300,46
538,02	1236,97
538,21	1173,49
538,41	1294,32
538,61	1327,08
538,81	1265,64
539,00	1200,11
539,20	1300,46
539,40	1228,78
539,60	1214,45
539,79	1239,02
539,99	1349,61
540,19	1298,41
540,39	1316,84
540,58	1282,03
540,78	1366,00
540,98	1341,42
541,18	1306,60
541,37	1310,70
541,57	1322,99
541,77	1206,25
541,97	1224,69
542,16	1232,88
542,36	1187,82
542,56	1228,78
542,76	1286,12
542,95	1247,21
543,15	1345,52
543,35	1265,64
543,54	1210,35
543,74	1363,95
543,94	1331,18
544,14	1224,69
544,33	1271,79
544,53	1312,75
544,73	1277,93
544,93	1271,79
545,12	1310,70
545,32	1263,60
545,52	1322,99
545,71	1263,60
545,91	1198,06
546,11	1325,04
546,30	1249,26
546,50	1306,60
546,70	1366,00
546,90	1249,26
547,09	1251,31
547,29	1243,12
547,49	1269,74
547,68	1265,64
547,88	1265,64
548,08	1296,36
548,27	1331,18
548,47	1286,12
548,67	1279,98
548,87	1320,94
549,06	1292,27
549,26	1220,59
549,46	1249,26
549,65	1294,32
549,85	1273,84
550,05	1247,21
550,24	1359,85
550,44	1302,51
550,64	1304,56
550,83	1296,36
551,03	1239,02
551,23	1253,36
551,42	1294,32
551,62	1312,75
551,82	1284,08
552,01	1335,28
552,21	1312,75
552,41	1300,46
552,60	1271,79
552,80	1296,36
553,00	1232,88
553,19	1263,60
553,39	1232,88
553,59	1302,51
553,78	1327,08
553,98	1236,97
554,17	1277,93
554,37	1351,66
554,57	1261,55
554,76	1282,03
554,96	1241,07
555,16	1269,74
555,35	1304,56
555,55	1302,51
555,75	1279,98
555,94	1310,70
556,14	1363,95
556,33	1251,31
556,53	1253,36
556,73	1277,93
556,92	1275,88
557,12	1191,92
557,32	1214,45
557,51	1308,65
557,71	1191,92
557,90	1208,30
558,10	1230,83
558,30	1325,04
558,49	1249,26
558,69	1304,56
558,88	1296,36
559,08	1310,70
559,28	1335,28
559,47	1325,04
559,67	1298,41
559,86	1273,84
560,06	1208,30
560,26	1282,03
560,45	1275,88
560,65	1249,26
560,84	1259,50
561,04	1312,75
561,24	1257,45
561,43	1277,93
561,63	1310,70
561,82	1251,31
562,02	1275,88
562,22	1316,84
562,41	1249,26
562,61	1282,03
562,80	1304,56
563,00	1290,22
563,19	1224,69
563,39	1257,45
563,59	1265,64
563,78	1224,69
563,98	1236,97
564,17	1390,57
564,37	1247,21
564,56	1269,74
564,76	1279,98
564,96	1322,99
565,15	1247,21
565,35	1290,22
565,54	1290,22
565,74	1253,36
565,93	1210,35
566,13	1343,47
566,32	1286,12
566,52	1314,80
566,71	1275,88
566,91	1200,11
567,11	1241,07
567,30	1224,69
567,50	1286,12
567,69	1298,41
567,89	1261,55
568,08	1306,60
568,28	1230,83
568,47	1314,80
568,67	1241,07
568,86	1302,51
569,06	1241,07
569,25	1294,32
569,45	1239,02
569,64	1296,36
569,84	1243,12
570,04	1316,84
570,23	1327,08
570,43	1271,79
570,62	1210,35
570,82	1312,75
571,01	1298,41
571,21	1267,69
571,40	1288,17
571,60	1267,69
571,79	1310,70
571,99	1208,30
572,18	1288,17
572,38	1275,88
572,57	1253,36
572,77	1277,93
572,96	1345,52
573,16	1269,74
573,35	1177,58
573,55	1302,51
573,74	1308,65
573,94	1222,64
574,13	1273,84
574,33	1265,64
574,52	1253,36
574,71	1286,12
574,91	1236,97
575,10	1306,60
575,30	1275,88
575,49	1224,69
575,69	1175,53
575,88	1271,79
576,08	1294,32
576,27	1288,17
576,47	1243,12
576,66	1286,12
576,86	1267,69
577,05	1343,47
577,25	1275,88
577,44	1271,79
577,64	1318,89
577,83	1241,07
578,02	1212,40
578,22	1322,99
578,41	1298,41
578,61	1230,83
578,80	1269,74
579,00	1302,51
579,19	1245,16
579,39	1222,64
579,58	1316,84
579,77	1212,40
579,97	1222,64
580,16	1329,13
580,36	1269,74
580,55	1204,21
580,75	1241,07
580,94	1202,16
581,13	1257,45
581,33	1232,88
581,52	1265,64
581,72	1273,84
581,91	1261,55
582,11	1288,17
582,30	1198,06
582,49	1226,73
582,69	1243,12
582,88	1216,49
583,08	1286,12
583,27	1261,55
583,47	1306,60
583,66	1339,37
583,85	1228,78
584,05	1200,11
584,24	1331,18
584,44	1259,50
584,63	1331,18
584,82	1239,02
585,02	1232,88
585,21	1210,35
585,41	1222,64
585,60	1263,60
585,79	1249,26
585,99	1212,40
586,18	1245,16
586,37	1222,64
586,57	1204,21
586,76	1261,55
586,96	1243,12
587,15	1253,36
587,34	1196,01
587,54	1261,55
587,73	1341,42
587,93	1302,51
588,12	1265,64
588,31	1273,84
588,51	1325,04
588,70	1308,65
588,89	1294,32
589,09	1263,60
589,28	1306,60
589,47	1296,36
589,67	1222,64
589,86	1279,98
590,06	1253,36
590,25	1290,22
590,44	1333,23
590,64	1294,32
590,83	1286,12
591,02	1292,27
591,22	1304,56
591,41	1363,95
591,60	1294,32
591,80	1218,54
591,99	1249,26
592,18	1226,73
592,38	1306,60
592,57	1314,80
592,76	1286,12
592,96	1286,12
593,15	1196,01
593,34	1294,32
593,54	1292,27
593,73	1316,84
593,92	1282,03
594,12	1298,41
594,31	1241,07
594,50	1320,94
594,70	1298,41
594,89	1318,89
595,08	1253,36
595,28	1282,03
595,47	1298,41
595,66	1271,79
595,86	1245,16
596,05	1259,50
596,24	1261,55
596,43	1243,12
596,63	1376,24
596,82	1271,79
597,01	1253,36
597,21	1279,98
597,40	1261,55
597,59	1314,80
597,79	1286,12
597,98	1282,03
598,17	1296,36
598,36	1261,55
598,56	1275,88
598,75	1298,41
598,94	1353,71
599,14	1284,08
599,33	1296,36
599,52	1304,56
599,71	1230,83
599,91	1257,45
600,10	1239,02
600,29	1269,74
600,48	1232,88
600,68	1206,25
600,87	1255,40
601,06	1341,42
601,26	1329,13
601,45	1277,93
601,64	1320,94
601,83	1263,60
602,03	1279,98
602,22	1212,40
602,41	1290,22
602,60	1351,66
602,80	1232,88
602,99	1361,90
603,18	1292,27
603,37	1282,03
603,57	1224,69
603,76	1286,12
603,95	1310,70
604,14	1314,80
604,34	1241,07
604,53	1208,30
604,72	1251,31
604,91	1222,64
605,10	1212,40
605,30	1314,80
605,49	1349,61
605,68	1273,84
605,87	1290,22
606,07	1255,40
606,26	1267,69
606,45	1302,51
606,64	1255,40
606,84	1312,75
607,03	1214,45
607,22	1267,69
607,41	1286,12
607,60	1265,64
607,80	1308,65
607,99	1259,50
608,18	1267,69
608,37	1249,26
608,56	1243,12
608,76	1212,40
608,95	1306,60
609,14	1269,74
609,33	1312,75
609,52	1271,79
609,72	1232,88
609,91	1322,99
610,10	1368,04
610,29	1239,02
610,48	1275,88
610,68	1294,32
610,87	1255,40
611,06	1302,51
611,25	1300,46
611,44	1298,41
611,63	1212,40
611,83	1316,84
612,02	1206,25
612,21	1294,32
612,40	1273,84
612,59	1249,26
612,79	1296,36
612,98	1263,60
613,17	1255,40
613,36	1255,40
613,55	1290,22
613,74	1300,46
613,93	1290,22
614,13	1232,88
614,32	1208,30
614,51	1247,21
614,70	1273,84
614,89	1314,80
615,08	1191,92
615,28	1290,22
615,47	1347,56
615,66	1325,04
615,85	1345,52
616,04	1316,84
616,23	1310,70
616,42	1284,08
616,62	1208,30
616,81	1232,88
617,00	1247,21
617,19	1267,69
617,38	1275,88
617,57	1296,36
617,76	1228,78
617,95	1251,31
618,15	1247,21
618,34	1347,56
618,53	1265,64
618,72	1228,78
618,91	1269,74
619,10	1292,27
619,29	1265,64
619,48	1265,64
619,68	1286,12
619,87	1271,79
620,06	1331,18
620,25	1292,27
620,44	1279,98
620,63	1286,12
620,82	1304,56
621,01	1269,74
621,20	1200,11
621,39	1304,56
621,59	1232,88
621,78	1249,26
621,97	1273,84
622,16	1310,70
622,35	1304,56
622,54	1187,82
622,73	1228,78
622,92	1255,40
623,11	1263,60
623,30	1298,41
623,49	1251,31
623,68	1302,51
623,88	1302,51
624,07	1249,26
624,26	1247,21
624,45	1267,69
624,64	1282,03
624,83	1316,84
625,02	1296,36
625,21	1298,41
625,40	1263,60
625,59	1306,60
625,78	1298,41
625,97	1312,75
626,16	1288,17
626,35	1320,94
626,54	1251,31
626,74	1294,32
626,93	1308,65
627,12	1255,40
627,31	1212,40
627,50	1316,84
627,69	1263,60
627,88	1263,60
628,07	1284,08
628,26	1273,84
628,45	1271,79
628,64	1325,04
628,83	1271,79
629,02	1249,26
629,21	1243,12
629,40	1325,04
629,59	1282,03
629,78	1273,84
629,97	1273,84
630,16	1275,88
630,35	1325,04
630,54	1261,55
630,73	1216,49
630,92	1298,41
631,11	1366,00
631,30	1302,51
631,49	1335,28
631,68	1279,98
631,87	1460,20
632,06	1556,46
632,25	1507,30
632,44	1507,30
632,63	1515,50
632,82	1611,75
633,01	1724,39
633,20	1632,23
633,39	1648,61
633,58	1607,66
633,77	1601,51
633,96	1568,74
634,15	1599,46
634,34	1617,90
634,53	1712,10
634,72	1611,75
634,91	1570,79
635,10	1556,46
635,29	1564,65
635,48	1529,83
635,67	1501,16
635,86	1517,54
636,05	1411,05
636,24	1470,44
636,43	1372,14
636,62	1396,71
636,81	1374,19
637,00	1423,34
637,19	1316,84
637,38	1331,18
637,57	1339,37
637,76	1296,36
637,95	1322,99
638,14	1290,22
638,33	1349,61
638,52	1298,41
638,71	1343,47
638,89	1304,56
639,08	1355,76
639,27	1267,69
639,46	1267,69
639,65	1282,03
639,84	1259,50
640,03	1273,84
640,22	1277,93
640,41	1249,26
640,60	1327,08
640,79	1300,46
640,98	1259,50
641,17	1327,08
641,36	1210,35
641,55	1251,31
641,74	1273,84
641,92	1230,83
642,11	1308,65
642,30	1265,64
642,49	1196,01
642,68	1230,83
642,87	1327,08
643,06	1282,03
643,25	1288,17
643,44	1263,60
643,63	1200,11
643,82	1345,52
644,00	1318,89
644,19	1308,65
644,38	1187,82
644,57	1259,50
644,76	1257,45
644,95	1263,60
645,14	1298,41
645,33	1366,00
645,52	1312,75
645,71	1304,56
645,89	1298,41
646,08	1253,36
646,27	1404,91
646,46	1343,47
646,65	1255,40
646,84	1312,75
647,03	1234,93
647,22	1308,65
647,40	1273,84
647,59	1320,94
647,78	1294,32
647,97	1249,26
648,16	1300,46
648,35	1245,16
648,54	1226,73
648,73	1302,51
648,91	1279,98
649,10	1259,50
649,29	1320,94
649,48	1302,51
649,67	1239,02
649,86	1329,13
650,05	1314,80
650,23	1337,32
650,42	1296,36
650,61	1255,40
650,80	1318,89
650,99	1284,08
651,18	1255,40
651,36	1290,22
651,55	1218,54
651,74	1310,70
651,93	1279,98
652,12	1222,64
652,31	1234,93
652,49	1241,07
652,68	1325,04
652,87	1318,89
653,06	1216,49
653,25	1292,27
653,44	1234,93
653,62	1245,16
653,81	1308,65
654,00	1249,26
654,19	1279,98
654,38	1245,16
654,56	1243,12
654,75	1226,73
654,94	1288,17
655,13	1259,50
655,32	1241,07
655,51	1294,32
655,69	1228,78
655,88	1259,50
656,07	1298,41
656,26	1318,89
656,45	1284,08
656,63	1263,60
656,82	1247,21
657,01	1282,03
657,20	1277,93
657,38	1288,17
657,57	1337,32
657,76	1255,40
657,95	1292,27
658,14	1243,12
658,32	1286,12
658,51	1310,70
658,70	1282,03
658,89	1269,74
659,08	1212,40
659,26	1314,80
659,45	1234,93
659,64	1331,18
659,83	1243,12
660,01	1263,60
660,20	1341,42
660,39	1212,40
660,58	1220,59
660,76	1269,74
660,95	1257,45
661,14	1232,88
661,33	1302,51
661,51	1273,84
661,70	1300,46
661,89	1316,84
662,08	1255,40
662,26	1325,04
662,45	1402,86
662,64	1226,73
662,83	1249,26
663,01	1253,36
663,20	1239,02
663,39	1302,51
663,58	1210,35
663,76	1292,27
663,95	1286,12
664,14	1236,97
664,32	1249,26
664,51	1275,88
664,70	1261,55
664,89	1288,17
665,07	1347,56
665,26	1284,08
665,45	1277,93
665,64	1316,84
665,82	1347,56
666,01	1300,46
666,20	1267,69
666,38	1282,03
666,57	1253,36
666,76	1255,40
666,95	1286,12
667,13	1265,64
667,32	1224,69
667,51	1302,51
667,69	1241,07
667,88	1318,89
668,07	1241,07
668,25	1241,07
668,44	1210,35
668,63	1269,74
668,81	1271,79
669,00	1310,70
669,19	1267,69
669,38	1239,02
669,56	1232,88
669,75	1247,21
669,94	1322,99
670,12	1239,02
670,31	1204,21
670,50	1198,06
670,68	1243,12
670,87	1261,55
671,06	1265,64
671,24	1232,88
671,43	1228,78
671,62	1169,39
671,80	1249,26
671,99	1288,17
672,18	1239,02
672,36	1243,12
672,55	1245,16
672,74	1226,73
672,92	1247,21
673,11	1249,26
673,29	1267,69
673,48	1263,60
673,67	1257,45
673,85	1312,75
674,04	1273,84
674,23	1249,26
674,41	1232,88
674,60	1230,83
674,79	1228,78
674,97	1249,26
675,16	1259,50
675,34	1257,45
675,53	1269,74
675,72	1279,98
675,90	1300,46
676,09	1294,32
676,28	1312,75
676,46	1271,79
676,65	1286,12
676,83	1247,21
677,02	1226,73
677,21	1259,50
677,39	1339,37
677,58	1277,93
677,77	1204,21
677,95	1337,32
678,14	1265,64
678,32	1232,88
678,51	1236,97
678,70	1263,60
678,88	1290,22
679,07	1312,75
679,25	1282,03
679,44	1333,23
679,63	1230,83
679,81	1191,92
680,00	1318,89
680,18	1308,65
680,37	1279,98
680,55	1228,78
680,74	1198,06
680,93	1239,02
681,11	1366,00
681,30	1382,38
681,48	1243,12
681,67	1275,88
681,85	1257,45
682,04	1316,84
682,23	1257,45
682,41	1345,52
682,60	1245,16
682,78	1216,49
682,97	1314,80
683,15	1212,40
683,34	1265,64
683,53	1245,16
683,71	1257,45
683,90	1310,70
684,08	1245,16
684,27	1298,41
684,45	1159,15
684,64	1230,83
684,82	1257,45
685,01	1230,83
685,19	1269,74
685,38	1208,30
685,57	1294,32
685,75	1236,97
685,94	1275,88
686,12	1282,03
686,31	1282,03
686,49	1296,36
686,68	1265,64
686,86	1331,18
687,05	1290,22
687,23	1259,50
687,42	1230,83
687,60	1263,60
687,79	1284,08
687,97	1286,12
688,16	1290,22
688,34	1259,50
688,53	1255,40
688,71	1290,22
688,90	1263,60
689,08	1290,22
689,27	1236,97
689,45	1245,16
689,64	1275,88
689,82	1284,08
690,01	1286,12
690,19	1298,41
690,38	1267,69
690,56	1253,36
690,75	1239,02
690,93	1259,50
691,12	1261,55
691,30	1304,56
691,49	1347,56
691,67	1247,21
691,86	1206,25
692,04	1279,98
692,23	1265,64
692,41	1261,55
692,60	1191,92
692,78	1277,93
692,97	1241,07
693,15	1251,31
693,34	1265,64
693,52	1296,36
693,71	1257,45
693,89	1347,56
694,08	1302,51
694,26	1300,46
694,44	1253,36
694,63	1236,97
694,81	1247,21
695,00	1349,61
695,18	1290,22
695,37	1222,64
695,55	1257,45
695,74	1288,17
695,92	1202,16
696,10	1253,36
696,29	1322,99
696,47	1191,92
696,66	1275,88
696,84	1290,22
697,03	1296,36
697,21	1279,98
697,40	1353,71
697,58	1269,74
697,76	1230,83
697,95	1269,74
698,13	1286,12
698,32	1345,52
698,50	1206,25
698,68	1279,98
698,87	1275,88
699,05	1273,84
699,24	1320,94
699,42	1312,75
699,61	1304,56
699,79	1325,04
699,97	1234,93
700,16	1269,74
700,34	1249,26
700,53	1304,56
700,71	1298,41
700,89	1239,02
701,08	1302,51
701,26	1267,69
701,45	1282,03
701,63	1245,16
701,81	1298,41
702,00	1232,88
702,18	1220,59
702,37	1292,27
702,55	1245,16
702,73	1286,12
702,92	1228,78
703,10	1210,35
703,28	1181,68
703,47	1286,12
703,65	1261,55
703,84	1259,50
704,02	1275,88
704,20	1277,93
704,39	1253,36
704,57	1204,21
704,75	1288,17
704,94	1263,60
705,12	1284,08
705,30	1288,17
705,49	1245,16
705,67	1298,41
705,86	1253,36
706,04	1226,73
706,22	1267,69
706,41	1189,87
706,59	1249,26
706,77	1327,08
706,96	1339,37
707,14	1335,28
707,32	1290,22
707,51	1222,64
707,69	1171,44
707,87	1284,08
708,06	1279,98
708,24	1204,21
708,42	1257,45
708,61	1255,40
708,79	1325,04
708,97	1286,12
709,16	1288,17
709,34	1230,83
709,52	1273,84
709,71	1212,40
709,89	1204,21
710,07	1322,99
710,26	1247,21
710,44	1257,45
710,62	1290,22
710,80	1224,69
710,99	1302,51
711,17	1282,03
711,35	1279,98
711,54	1312,75
711,72	1253,36
711,90	1273,84
712,09	1228,78
712,27	1288,17
712,45	1234,93
712,63	1269,74
712,82	1273,84
713,00	1239,02
713,18	1216,49
713,37	1269,74
713,55	1288,17
713,73	1359,85
713,91	1279,98
714,10	1228,78
714,28	1316,84
714,46	1273,84
714,65	1282,03
714,83	1255,40
715,01	1257,45
715,19	1271,79
715,38	1271,79
715,56	1267,69
715,74	1325,04
715,92	1236,97
716,11	1279,98
716,29	1292,27
716,47	1298,41
716,65	1322,99
716,84	1245,16
717,02	1298,41
717,20	1239,02
717,38	1267,69
717,57	1189,87
717,75	1314,80
717,93	1265,64
718,11	1269,74
718,30	1257,45
718,48	1304,56
718,66	1191,92
718,84	1308,65
719,03	1341,42
719,21	1282,03
719,39	1239,02
719,57	1259,50
719,75	1253,36
719,94	1343,47
720,12	1271,79
720,30	1202,16
720,48	1306,60
720,67	1294,32
720,85	1304,56
721,03	1265,64
721,21	1296,36
721,39	1220,59
721,58	1222,64
721,76	1329,13
721,94	1228,78
722,12	1261,55
722,30	1267,69
722,49	1327,08
722,67	1212,40
722,85	1271,79
723,03	1230,83
723,21	1339,37
723,40	1232,88
723,58	1239,02
723,76	1271,79
723,94	1228,78
724,12	1241,07
724,30	1245,16
724,49	1277,93
724,67	1318,89
724,85	1290,22
725,03	1218,54
725,21	1257,45
725,40	1273,84
725,58	1298,41
725,76	1290,22
725,94	1267,69
726,12	1251,31
726,30	1335,28
726,49	1224,69
726,67	1193,97
726,85	1251,31
727,03	1310,70
727,21	1337,32
727,39	1353,71
727,57	1191,92
727,76	1236,97
727,94	1282,03
728,12	1247,21
728,30	1228,78
728,48	1314,80
728,66	1277,93
728,84	1210,35
729,03	1306,60
729,21	1255,40
729,39	1253,36
729,57	1249,26
729,75	1255,40
729,93	1312,75
730,11	1275,88
730,30	1234,93
730,48	1273,84
730,66	1312,75
730,84	1181,68
731,02	1318,89
731,20	1267,69
731,38	1249,26
731,56	1239,02
731,74	1241,07
731,93	1265,64
732,11	1306,60
732,29	1284,08
732,47	1236,97
732,65	1372,14
732,83	1271,79
733,01	1343,47
733,19	1300,46
733,37	1259,50
733,56	1298,41
733,74	1341,42
733,92	1267,69
734,10	1224,69
734,28	1249,26
734,46	1290,22
734,64	1206,25
734,82	1304,56
735,00	1308,65
735,18	1265,64
735,36	1290,22
735,54	1263,60
735,73	1247,21
735,91	1318,89
736,09	1296,36
736,27	1241,07
736,45	1267,69
736,63	1296,36
736,81	1212,40
736,99	1208,30
737,17	1292,27
737,35	1282,03
737,53	1218,54
737,71	1331,18
737,89	1263,60
738,07	1214,45
738,25	1304,56
738,43	1282,03
738,61	1263,60
738,80	1230,83
738,98	1298,41
739,16	1312,75
739,34	1277,93
739,52	1208,30
739,70	1288,17
739,88	1273,84
740,06	1230,83
740,24	1241,07
740,42	1247,21
740,60	1312,75
740,78	1234,93
740,96	1269,74
741,14	1253,36
741,32	1267,69
741,50	1255,40
741,68	1265,64
741,86	1304,56
742,04	1171,44
742,22	1200,11
742,40	1286,12
742,58	1259,50
742,76	1230,83
742,94	1263,60
743,12	1236,97
743,30	1333,23
743,48	1216,49
743,66	1277,93
743,84	1259,50
744,02	1327,08
744,20	1193,97
744,38	1298,41
744,56	1263,60
744,74	1302,51
744,92	1298,41
745,10	1308,65
745,28	1298,41
745,46	1327,08
745,64	1183,73
745,82	1296,36
746,00	1243,12
746,18	1288,17
746,36	1273,84
746,54	1325,04
746,72	1261,55
746,90	1222,64
747,08	1355,76
747,26	1247,21
747,44	1216,49
747,62	1216,49
747,80	1318,89
747,98	1275,88
748,15	1171,44
748,33	1253,36
748,51	1273,84
748,69	1234,93
748,87	1239,02
749,05	1198,06
749,23	1257,45
749,41	1263,60
749,59	1230,83
749,77	1277,93
749,95	1296,36
750,13	1239,02
750,31	1316,84
750,49	1318,89
750,67	1286,12
750,85	1243,12
751,03	1306,60
751,20	1322,99
751,38	1261,55
751,56	1263,60
751,74	1218,54
751,92	1228,78
752,10	1179,63
752,28	1339,37
752,46	1249,26
752,64	1282,03
752,82	1232,88
753,00	1263,60
753,18	1306,60
753,35	1339,37
753,53	1273,84
753,71	1245,16
753,89	1257,45
754,07	1259,50
754,25	1294,32
754,43	1277,93
754,61	1279,98
754,79	1320,94
754,97	1322,99
755,14	1255,40
755,32	1271,79
755,50	1196,01
755,68	1224,69
755,86	1251,31
756,04	1286,12
756,22	1232,88
756,40	1288,17
756,57	1245,16
756,75	1265,64
756,93	1257,45
757,11	1255,40
757,29	1318,89
757,47	1290,22
757,65	1218,54
757,82	1265,64
758,00	1241,07
758,18	1329,13
758,36	1230,83
758,54	1245,16
758,72	1271,79
758,90	1368,04
759,07	1269,74
759,25	1277,93
759,43	1294,32
759,61	1253,36
759,79	1282,03
759,97	1263,60
760,15	1245,16
760,32	1167,34
760,50	1216,49
760,68	1277,93
760,86	1302,51
761,04	1298,41
761,22	1232,88
761,39	1312,75
761,57	1265,64
761,75	1372,14
761,93	1202,16
762,11	1308,65
762,28	1298,41
762,46	1228,78
762,64	1257,45
762,82	1206,25
763,00	1251,31
763,18	1308,65
763,35	1243,12
763,53	1267,69
763,71	1261,55
763,89	1247,21
764,07	1249,26
764,24	1167,34
764,42	1298,41
764,60	1308,65
764,78	1273,84
764,96	1187,82
765,13	1253,36
765,31	1294,32
765,49	1296,36
765,67	1288,17
765,84	1308,65
766,02	1312,75
766,20	1292,27
766,38	1290,22
766,56	1228,78
766,73	1263,60
766,91	1187,82
767,09	1302,51
767,27	1267,69
767,44	1329,13
767,62	1228,78
767,80	1173,49
767,98	1241,07
768,15	1288,17
768,33	1292,27
768,51	1320,94
768,69	1273,84
768,87	1284,08
769,04	1300,46
769,22	1273,84
769,40	1255,40
769,58	1290,22
769,75	1288,17
769,93	1374,19
770,11	1290,22
770,28	1185,77
770,46	1208,30
770,64	1255,40
770,82	1241,07
770,99	1251,31
771,17	1245,16
771,35	1290,22
771,53	1261,55
771,70	1224,69
771,88	1318,89
772,06	1288,17
772,23	1284,08
772,41	1288,17
772,59	1245,16
772,77	1304,56
772,94	1298,41
773,12	1247,21
773,30	1300,46
773,47	1243,12
773,65	1245,16
773,83	1253,36
774,01	1284,08
774,18	1265,64
774,36	1316,84
774,54	1282,03
774,71	1253,36
774,89	1271,79
775,07	1275,88
775,24	1263,60
775,42	1255,40
775,60	1306,60
775,78	1265,64
775,95	1314,80
776,13	1230,83
776,31	1310,70
776,48	1243,12
776,66	1306,60
776,84	1259,50
777,01	1265,64
777,19	1249,26
777,37	1226,73
777,54	1269,74
777,72	1341,42
777,90	1263,60
778,07	1245,16
778,25	1169,39
778,43	1249,26
778,60	1286,12
778,78	1224,69
778,96	1218,54
779,13	1279,98
779,31	1265,64
779,49	1306,60
779,66	1224,69
779,84	1222,64
780,01	1314,80
780,19	1318,89
780,37	1204,21
780,54	1239,02
780,72	1261,55
780,90	1206,25
781,07	1247,21
781,25	1222,64
781,43	1267,69
781,60	1327,08
781,78	1337,32
781,95	1312,75
782,13	1333,23
782,31	1273,84
782,48	1275,88
782,66	1220,59
782,83	1357,80
783,01	1263,60
783,19	1257,45
783,36	1185,77
783,54	1327,08
783,72	1320,94
783,89	1290,22
784,07	1232,88
784,24	1339,37
784,42	1314,80
784,60	1284,08
784,77	1259,50
784,95	1304,56
785,12	1292,27
785,30	1255,40
785,47	1249,26
785,65	1282,03
785,83	1265,64
786,00	1263,60
786,18	1329,13
786,35	1267,69
786,53	1300,46
786,71	1337,32
786,88	1288,17
787,06	1277,93
787,23	1253,36
787,41	1282,03
787,58	1243,12
787,76	1282,03
787,94	1275,88
788,11	1228,78
788,29	1294,32
788,46	1218,54
788,64	1292,27
788,81	1249,26
788,99	1208,30
789,16	1292,27
789,34	1316,84
789,52	1267,69
789,69	1265,64
789,87	1220,59
790,04	1263,60
790,22	1333,23
790,39	1232,88
790,57	1212,40
790,74	1308,65
790,92	1282,03
791,09	1298,41
791,27	1232,88
791,44	1245,16
791,62	1296,36
791,79	1290,22
791,97	1282,03
792,15	1294,32
792,32	1247,21
792,50	1312,75
792,67	1247,21
792,85	1329,13
793,02	1282,03
793,20	1255,40
793,37	1255,40
793,55	1282,03
793,72	1247,21
793,90	1228,78
794,07	1232,88
794,25	1298,41
794,42	1241,07
794,60	1222,64
794,77	1226,73
794,95	1333,23
795,12	1284,08
795,30	1214,45
795,47	1247,21
795,65	1277,93
795,82	1224,69
796,00	1304,56
796,17	1247,21
796,34	1259,50
796,52	1247,21
796,69	1304,56
796,87	1239,02
797,04	1351,66
797,22	1271,79
797,39	1271,79
797,57	1247,21
797,74	1228,78
797,92	1296,36
798,09	1200,11
798,27	1212,40
798,44	1312,75
798,62	1239,02
798,79	1255,40
798,96	1239,02
799,14	1273,84
799,31	1363,95
799,49	1290,22
799,66	1306,60
799,84	1191,92
800,01	1243,12
800,19	1322,99
800,36	1263,60
800,53	1320,94
800,71	1316,84
800,88	1257,45
801,06	1263,60
801,23	1277,93
801,41	1275,88
801,58	1234,93
801,75	1265,64
801,93	1251,31
802,10	1224,69
802,28	1275,88
802,45	1271,79
802,63	1210,35
802,80	1232,88
802,97	1261,55
803,15	1302,51
803,32	1212,40
803,50	1251,31
803,67	1302,51
803,84	1224,69
804,02	1312,75
804,19	1331,18
804,37	1232,88
804,54	1351,66
804,71	1275,88
804,89	1279,98
805,06	1210,35
805,24	1200,11
805,41	1273,84
805,58	1239,02
805,76	1290,22
805,93	1269,74
806,10	1224,69
806,28	1275,88
806,45	1282,03
806,63	1269,74
806,80	1302,51
806,97	1290,22
807,15	1236,97
807,32	1320,94
807,49	1245,16
807,67	1279,98
807,84	1271,79
808,01	1239,02
808,19	1279,98
808,36	1253,36
808,54	1286,12
808,71	1318,89
808,88	1290,22
809,06	1218,54
809,23	1271,79
809,40	1306,60
809,58	1259,50
809,75	1261,55
809,92	1273,84
810,10	1316,84
810,27	1253,36
810,44	1279,98
810,62	1304,56
810,79	1257,45
810,96	1247,21
811,14	1257,45
811,31	1310,70
811,48	1191,92
811,66	1312,75
811,83	1222,64
812,00	1230,83
812,18	1241,07
812,35	1353,71
812,52	1288,17
812,69	1298,41
812,87	1255,40
813,04	1296,36
813,21	1265,64
813,39	1263,60
813,56	1232,88
813,73	1335,28
813,91	1314,80
814,08	1230,83
814,25	1263,60
814,42	1320,94
814,60	1249,26
814,77	1241,07
814,94	1249,26
815,12	1241,07
815,29	1316,84
815,46	1273,84
815,63	1259,50
815,81	1261,55
815,98	1277,93
816,15	1261,55
816,33	1279,98
816,50	1239,02
816,67	1257,45
816,84	1263,60
817,02	1245,16
817,19	1202,16
817,36	1269,74
817,53	1294,32
817,71	1292,27
817,88	1304,56
818,05	1325,04
818,22	1333,23
818,40	1290,22
818,57	1232,88
818,74	1308,65
818,91	1224,69
819,09	1327,08
819,26	1271,79
819,43	1232,88
819,60	1245,16
819,78	1210,35
819,95	1226,73
820,12	1282,03
820,29	1304,56
820,47	1306,60
820,64	1327,08
820,81	1316,84
820,98	1263,60
821,15	1230,83
821,33	1279,98
821,50	1310,70
821,67	1279,98
821,84	1249,26
822,02	1202,16
822,19	1253,36
822,36	1189,87
822,53	1286,12
822,70	1298,41
822,88	1249,26
823,05	1284,08
823,22	1306,60
823,39	1322,99
823,56	1206,25
823,74	1286,12
823,91	1210,35
824,08	1253,36
824,25	1261,55
824,42	1265,64
824,60	1318,89
824,77	1306,60
824,94	1163,25
825,11	1271,79
825,28	1306,60
825,45	1288,17
825,63	1222,64
825,80	1183,73
825,97	1339,37
826,14	1298,41
826,31	1318,89
826,48	1275,88
826,66	1304,56
826,83	1310,70
827,00	1216,49
827,17	1302,51
827,34	1255,40
827,51	1277,93
827,69	1179,63
827,86	1288,17
828,03	1224,69
828,20	1329,13
828,37	1257,45
828,54	1249,26
828,71	1282,03
828,89	1306,60
829,06	1259,50
829,23	1288,17
829,40	1300,46
829,57	1234,93
829,74	1245,16
829,91	1251,31
830,09	1259,50
830,26	1185,77
830,43	1261,55
830,60	1302,51
830,77	1306,60
830,94	1302,51
831,11	1208,30
831,28	1308,65
831,46	1292,27
831,63	1288,17
831,80	1282,03
831,97	1236,97
832,14	1261,55
832,31	1271,79
832,48	1251,31
832,65	1239,02
832,82	1220,59
832,99	1286,12
833,17	1261,55
833,34	1259,50
833,51	1218,54
833,68	1265,64
833,85	1257,45
834,02	1247,21
834,19	1196,01
834,36	1261,55
834,53	1277,93
834,70	1288,17
834,87	1204,21
835,04	1308,65
835,22	1251,31
835,39	1296,36
835,56	1234,93
835,73	1279,98
835,90	1284,08
836,07	1202,16
836,24	1259,50
836,41	1214,45
836,58	1212,40
836,75	1249,26
836,92	1284,08
837,09	1331,18
837,26	1249,26
837,43	1306,60
837,60	1282,03
837,77	1214,45
837,94	1251,31
838,12	1279,98
838,29	1310,70
838,46	1249,26
838,63	1320,94
838,80	1208,30
838,97	1247,21
839,14	1253,36
839,31	1327,08
839,48	1357,80
839,65	1282,03
839,82	1261,55
839,99	1183,73
840,16	1288,17
840,33	1316,84
840,50	1241,07
840,67	1191,92
840,84	1298,41
841,01	1322,99
841,18	1308,65
841,35	1294,32
841,52	1247,21
841,69	1204,21
841,86	1308,65
842,03	1253,36
842,20	1337,32
842,37	1236,97
842,54	1320,94
842,71	1243,12
842,88	1243,12
843,05	1273,84
843,22	1339,37
843,39	1306,60
843,56	1277,93
843,73	1273,84
843,90	1251,31
844,07	1269,74
844,24	1265,64
844,41	1292,27
844,58	1273,84
844,75	1290,22
844,92	1306,60
845,09	1359,85
845,26	1306,60
845,43	1245,16
845,60	1345,52
845,77	1232,88
845,94	1292,27
846,10	1312,75
846,27	1335,28
846,44	1191,92
846,61	1277,93
846,78	1267,69
846,95	1247,21
847,12	1259,50
847,29	1224,69
847,46	1310,70
847,63	1255,40
847,80	1292,27
847,97	1259,50
848,14	1304,56
848,31	1300,46
848,48	1335,28
848,65	1241,07
848,82	1224,69
848,98	1327,08
849,15	1243,12
849,32	1333,23
849,49	1216,49
849,66	1327,08
849,83	1277,93
850,00	1239,02
850,17	1210,35
850,34	1298,41
850,51	1277,93
850,68	1222,64
850,85	1236,97
851,01	1288,17
851,18	1306,60
851,35	1265,64
851,52	1226,73
851,69	1265,64
851,86	1249,26
852,03	1316,84
852,20	1312,75
852,37	1273,84
852,53	1290,22
852,70	1226,73
852,87	1212,40
853,04	1259,50
853,21	1259,50
853,38	1255,40
853,55	1320,94
853,72	1263,60
853,89	1193,97
854,05	1253,36
854,22	1269,74
854,39	1265,64
854,56	1232,88
854,73	1279,98
854,90	1251,31
855,07	1339,37
855,23	1310,70
855,40	1232,88
855,57	1318,89
855,74	1249,26
855,91	1284,08
856,08	1288,17
856,25	1282,03
856,41	1292,27
856,58	1214,45
856,75	1300,46
856,92	1273,84
857,09	1249,26
857,26	1275,88
857,42	1273,84
857,59	1243,12
857,76	1316,84
857,93	1312,75
858,10	1230,83
858,27	1177,58
858,43	1273,84
858,60	1232,88
858,77	1224,69
858,94	1306,60
859,11	1245,16
859,27	1263,60
859,44	1245,16
859,61	1257,45
859,78	1290,22
859,95	1243,12
860,12	1200,11
860,28	1241,07
860,45	1202,16
860,62	1273,84
860,79	1298,41
860,95	1273,84
861,12	1284,08
861,29	1286,12
861,46	1279,98
861,63	1249,26
861,79	1353,71
861,96	1351,66
862,13	1320,94
862,30	1316,84
862,47	1320,94
862,63	1210,35
862,80	1339,37
862,97	1308,65
863,14	1322,99
863,30	1300,46
863,47	1247,21
863,64	1314,80
863,81	1345,52
863,97	1275,88
864,14	1241,07
864,31	1269,74
864,48	1259,50
864,65	1263,60
864,81	1314,80
864,98	1275,88
865,15	1269,74
865,32	1284,08
865,48	1368,04
865,65	1243,12
865,82	1208,30
865,98	1210,35
866,15	1292,27
866,32	1308,65
866,49	1312,75
866,65	1251,31
866,82	1322,99
866,99	1335,28
867,16	1249,26
867,32	1257,45
867,49	1226,73
867,66	1333,23
867,83	1282,03
867,99	1347,56
868,16	1300,46
868,33	1269,74
868,49	1337,32
868,66	1275,88
868,83	1288,17
868,99	1208,30
869,16	1302,51
869,33	1267,69
869,50	1279,98
869,66	1263,60
869,83	1304,56
870,00	1251,31
870,16	1329,13
870,33	1224,69
870,50	1253,36
870,66	1157,10
870,83	1261,55
871,00	1273,84
871,17	1316,84
871,33	1265,64
871,50	1269,74
871,67	1257,45
871,83	1236,97
872,00	1249,26
872,17	1296,36
872,33	1294,32
872,50	1286,12
872,67	1255,40
872,83	1198,06
873,00	1273,84
873,17	1257,45
873,33	1247,21
873,50	1284,08
873,67	1292,27
873,83	1216,49
874,00	1245,16
874,16	1327,08
874,33	1224,69
874,50	1368,04
874,66	1247,21
874,83	1312,75
875,00	1290,22
875,16	1273,84
875,33	1267,69
875,50	1245,16
875,66	1372,14
875,83	1220,59
875,99	1327,08
876,16	1173,49
876,33	1232,88
876,49	1243,12
876,66	1357,80
876,83	1318,89
876,99	1257,45
877,16	1312,75
877,32	1224,69
877,49	1255,40
877,66	1245,16
877,82	1325,04
877,99	1275,88
878,15	1191,92
878,32	1271,79
878,49	1271,79
878,65	1243,12
878,82	1304,56
878,98	1261,55
879,15	1288,17
879,32	1290,22
879,48	1269,74
879,65	1247,21
879,81	1275,88
879,98	1234,93
880,15	1308,65
880,31	1226,73
880,48	1329,13
880,64	1273,84
880,81	1230,83
880,97	1306,60
881,14	1306,60
881,31	1255,40
881,47	1232,88
881,64	1277,93
881,80	1255,40
881,97	1234,93
882,13	1216,49
882,30	1228,78
882,47	1239,02
882,63	1220,59
882,80	1288,17
882,96	1224,69
883,13	1290,22
883,29	1204,21
883,46	1325,04
883,62	1271,79
883,79	1243,12
883,95	1257,45
884,12	1239,02
884,29	1273,84
884,45	1220,59
884,62	1261,55
884,78	1189,87
884,95	1294,32
885,11	1290,22
885,28	1288,17
885,44	1202,16
885,61	1232,88
885,77	1273,84
885,94	1267,69
886,10	1320,94
886,27	1239,02
886,43	1265,64
886,60	1226,73
886,76	1232,88
886,93	1279,98
887,09	1290,22
887,26	1288,17
887,42	1193,97
887,59	1226,73
887,75	1273,84
887,92	1220,59
888,08	1296,36
888,25	1325,04
888,41	1269,74
888,58	1284,08
888,74	1322,99
888,91	1234,93
>>>>>End Processed Spectral Data<<<<<
