SpectraSuite Data File
++++++++++++++++++++++++++++++++++++
Date: Sun Apr 03 14:37:04 CEST 2016
User: root
Dark Spectrum Present: No
Reference Spectrum Present: No
Number of Sampled Component Spectra: 1
Spectrometers: USB4C02835
Integration Time (usec): 10000 (USB4C02835)
Spectra Averaged: 1 (USB4C02835)
Boxcar Smoothing: 0 (USB4C02835)
Correct for Electrical Dark: No (USB4C02835)
Strobe/Lamp Enabled: No (USB4C02835)
Correct for Detector Non-linearity: No (USB4C02835)
Correct for Stray Light: No (USB4C02835)
Number of Pixels in Processed Spectrum: 3648
>>>>>Begin Processed Spectral Data<<<<<
177,47	1243,12
177,69	1243,12
177,91	1243,12
178,13	1269,74
178,36	1210,35
178,58	1269,74
178,80	1265,64
179,02	1253,36
179,24	1241,07
179,46	1279,98
179,68	1290,22
179,90	1273,84
180,13	1279,98
180,35	1206,25
180,57	1306,60
180,79	1322,99
181,01	1206,25
181,23	1236,97
181,45	1335,28
181,67	1214,45
181,90	1282,03
182,12	1279,98
182,34	1273,84
182,56	1257,45
182,78	1263,60
183,00	1263,60
183,22	1241,07
183,44	1263,60
183,66	1345,52
183,89	1187,82
184,11	1298,41
184,33	1314,80
184,55	1267,69
184,77	1251,31
184,99	1288,17
185,21	1292,27
185,43	1288,17
185,65	1245,16
185,87	1265,64
186,10	1228,78
186,32	1359,85
186,54	1275,88
186,76	1288,17
186,98	1265,64
187,20	1257,45
187,42	1228,78
187,64	1234,93
187,86	1222,64
188,08	1366,00
188,30	1347,56
188,52	1232,88
188,75	1210,35
188,97	1353,71
189,19	1210,35
189,41	1183,73
189,63	1286,12
189,85	1306,60
190,07	1220,59
190,29	1230,83
190,51	1277,93
190,73	1269,74
190,95	1339,37
191,17	1165,29
191,39	1261,55
191,61	1175,53
191,84	1236,97
192,06	1322,99
192,28	1327,08
192,50	1286,12
192,72	1290,22
192,94	1290,22
193,16	1345,52
193,38	1325,04
193,60	1275,88
193,82	1282,03
194,04	1271,79
194,26	1263,60
194,48	1286,12
194,70	1204,21
194,92	1314,80
195,14	1265,64
195,36	1347,56
195,58	1265,64
195,80	1288,17
196,02	1249,26
196,24	1306,60
196,46	1251,31
196,69	1282,03
196,91	1314,80
197,13	1273,84
197,35	1265,64
197,57	1249,26
197,79	1271,79
198,01	1259,50
198,23	1347,56
198,45	1210,35
198,67	1277,93
198,89	1300,46
199,11	1253,36
199,33	1275,88
199,55	1236,97
199,77	1226,73
199,99	1261,55
200,21	1247,21
200,43	1318,89
200,65	1257,45
200,87	1306,60
201,09	1366,00
201,31	1267,69
201,53	1314,80
201,75	1267,69
201,97	1273,84
202,19	1288,17
202,41	1249,26
202,63	1247,21
202,85	1228,78
203,07	1173,49
203,29	1288,17
203,51	1228,78
203,73	1310,70
203,95	1259,50
204,17	1318,89
204,39	1294,32
204,61	1257,45
204,83	1249,26
205,05	1286,12
205,27	1265,64
205,49	1202,16
205,71	1273,84
205,93	1247,21
206,15	1273,84
206,37	1216,49
206,59	1200,11
206,81	1257,45
207,03	1232,88
207,25	1284,08
207,47	1290,22
207,69	1294,32
207,91	1239,02
208,13	1259,50
208,34	1279,98
208,56	1265,64
208,78	1273,84
209,00	1253,36
209,22	1302,51
209,44	1302,51
209,66	1298,41
209,88	1253,36
210,10	1288,17
210,32	1189,87
210,54	1331,18
210,76	1300,46
210,98	1206,25
211,20	1241,07
211,42	1263,60
211,64	1316,84
211,86	1214,45
212,08	1222,64
212,30	1275,88
212,52	1220,59
212,74	1239,02
212,96	1218,54
213,17	1261,55
213,39	1263,60
213,61	1288,17
213,83	1261,55
214,05	1226,73
214,27	1277,93
214,49	1243,12
214,71	1275,88
214,93	1284,08
215,15	1277,93
215,37	1312,75
215,59	1251,31
215,81	1249,26
216,03	1271,79
216,24	1265,64
216,46	1267,69
216,68	1320,94
216,90	1261,55
217,12	1257,45
217,34	1177,58
217,56	1306,60
217,78	1306,60
218,00	1306,60
218,22	1249,26
218,44	1275,88
218,66	1247,21
218,87	1329,13
219,09	1273,84
219,31	1269,74
219,53	1267,69
219,75	1236,97
219,97	1282,03
220,19	1236,97
220,41	1200,11
220,63	1255,40
220,85	1329,13
221,06	1243,12
221,28	1288,17
221,50	1277,93
221,72	1277,93
221,94	1279,98
222,16	1259,50
222,38	1273,84
222,60	1263,60
222,82	1208,30
223,03	1294,32
223,25	1265,64
223,47	1232,88
223,69	1259,50
223,91	1275,88
224,13	1230,83
224,35	1228,78
224,57	1224,69
224,78	1232,88
225,00	1175,53
225,22	1308,65
225,44	1218,54
225,66	1282,03
225,88	1236,97
226,10	1263,60
226,32	1255,40
226,53	1302,51
226,75	1284,08
226,97	1288,17
227,19	1222,64
227,41	1263,60
227,63	1284,08
227,85	1249,26
228,06	1304,56
228,28	1298,41
228,50	1265,64
228,72	1294,32
228,94	1290,22
229,16	1251,31
229,37	1300,46
229,59	1224,69
229,81	1226,73
230,03	1294,32
230,25	1236,97
230,47	1300,46
230,69	1296,36
230,90	1302,51
231,12	1212,40
231,34	1327,08
231,56	1263,60
231,78	1257,45
232,00	1267,69
232,21	1300,46
232,43	1290,22
232,65	1273,84
232,87	1265,64
233,09	1286,12
233,30	1320,94
233,52	1253,36
233,74	1255,40
233,96	1271,79
234,18	1300,46
234,40	1312,75
234,61	1296,36
234,83	1271,79
235,05	1189,87
235,27	1302,51
235,49	1253,36
235,70	1198,06
235,92	1191,92
236,14	1288,17
236,36	1251,31
236,58	1239,02
236,79	1259,50
237,01	1241,07
237,23	1277,93
237,45	1228,78
237,67	1249,26
237,88	1296,36
238,10	1302,51
238,32	1179,63
238,54	1306,60
238,76	1282,03
238,97	1298,41
239,19	1247,21
239,41	1339,37
239,63	1249,26
239,85	1284,08
240,06	1282,03
240,28	1308,65
240,50	1331,18
240,72	1284,08
240,93	1288,17
241,15	1286,12
241,37	1290,22
241,59	1292,27
241,81	1224,69
242,02	1265,64
242,24	1349,61
242,46	1247,21
242,68	1296,36
242,89	1208,30
243,11	1294,32
243,33	1261,55
243,55	1239,02
243,76	1279,98
243,98	1331,18
244,20	1288,17
244,42	1294,32
244,64	1257,45
244,85	1279,98
245,07	1247,21
245,29	1267,69
245,51	1298,41
245,72	1241,07
245,94	1263,60
246,16	1232,88
246,38	1320,94
246,59	1298,41
246,81	1298,41
247,03	1318,89
247,24	1261,55
247,46	1310,70
247,68	1208,30
247,90	1288,17
248,11	1193,97
248,33	1247,21
248,55	1306,60
248,77	1310,70
248,98	1253,36
249,20	1296,36
249,42	1224,69
249,64	1308,65
249,85	1325,04
250,07	1339,37
250,29	1357,80
250,50	1216,49
250,72	1247,21
250,94	1251,31
251,16	1273,84
251,37	1308,65
251,59	1349,61
251,81	1271,79
252,02	1312,75
252,24	1304,56
252,46	1345,52
252,68	1257,45
252,89	1300,46
253,11	1230,83
253,33	1236,97
253,54	1277,93
253,76	1275,88
253,98	1279,98
254,20	1304,56
254,41	1286,12
254,63	1224,69
254,85	1279,98
255,06	1282,03
255,28	1271,79
255,50	1316,84
255,71	1200,11
255,93	1273,84
256,15	1366,00
256,36	1247,21
256,58	1249,26
256,80	1273,84
257,02	1224,69
257,23	1269,74
257,45	1247,21
257,67	1224,69
257,88	1308,65
258,10	1302,51
258,32	1310,70
258,53	1292,27
258,75	1310,70
258,97	1275,88
259,18	1236,97
259,40	1263,60
259,62	1239,02
259,83	1257,45
260,05	1333,23
260,27	1208,30
260,48	1288,17
260,70	1263,60
260,92	1286,12
261,13	1279,98
261,35	1236,97
261,57	1306,60
261,78	1226,73
262,00	1259,50
262,22	1263,60
262,43	1265,64
262,65	1251,31
262,86	1228,78
263,08	1337,32
263,30	1302,51
263,51	1269,74
263,73	1308,65
263,95	1318,89
264,16	1314,80
264,38	1216,49
264,60	1271,79
264,81	1247,21
265,03	1271,79
265,25	1210,35
265,46	1296,36
265,68	1210,35
265,89	1282,03
266,11	1206,25
266,33	1372,14
266,54	1249,26
266,76	1304,56
266,98	1204,21
267,19	1325,04
267,41	1198,06
267,62	1208,30
267,84	1257,45
268,06	1267,69
268,27	1232,88
268,49	1292,27
268,70	1245,16
268,92	1234,93
269,14	1216,49
269,35	1271,79
269,57	1286,12
269,79	1263,60
270,00	1218,54
270,22	1220,59
270,43	1234,93
270,65	1263,60
270,87	1273,84
271,08	1263,60
271,30	1267,69
271,51	1243,12
271,73	1275,88
271,95	1228,78
272,16	1216,49
272,38	1271,79
272,59	1263,60
272,81	1290,22
273,02	1265,64
273,24	1269,74
273,46	1308,65
273,67	1267,69
273,89	1347,56
274,10	1239,02
274,32	1239,02
274,54	1282,03
274,75	1265,64
274,97	1357,80
275,18	1204,21
275,40	1224,69
275,61	1282,03
275,83	1345,52
276,05	1294,32
276,26	1216,49
276,48	1226,73
276,69	1282,03
276,91	1165,29
277,12	1288,17
277,34	1296,36
277,55	1224,69
277,77	1251,31
277,99	1236,97
278,20	1355,76
278,42	1308,65
278,63	1228,78
278,85	1286,12
279,06	1290,22
279,28	1304,56
279,49	1253,36
279,71	1333,23
279,93	1267,69
280,14	1284,08
280,36	1222,64
280,57	1245,16
280,79	1165,29
281,00	1288,17
281,22	1277,93
281,43	1241,07
281,65	1284,08
281,86	1220,59
282,08	1279,98
282,29	1269,74
282,51	1251,31
282,73	1282,03
282,94	1234,93
283,16	1251,31
283,37	1284,08
283,59	1325,04
283,80	1265,64
284,02	1241,07
284,23	1279,98
284,45	1339,37
284,66	1271,79
284,88	1325,04
285,09	1372,14
285,31	1302,51
285,52	1300,46
285,74	1214,45
285,95	1370,09
286,17	1316,84
286,38	1314,80
286,60	1247,21
286,81	1224,69
287,03	1308,65
287,24	1245,16
287,46	1212,40
287,67	1241,07
287,89	1314,80
288,10	1292,27
288,32	1263,60
288,53	1269,74
288,75	1282,03
288,96	1247,21
289,18	1286,12
289,39	1239,02
289,61	1282,03
289,82	1255,40
290,04	1232,88
290,25	1292,27
290,47	1167,34
290,68	1331,18
290,90	1263,60
291,11	1239,02
291,33	1249,26
291,54	1251,31
291,76	1282,03
291,97	1292,27
292,18	1286,12
292,40	1224,69
292,61	1269,74
292,83	1333,23
293,04	1284,08
293,26	1288,17
293,47	1339,37
293,69	1245,16
293,90	1257,45
294,12	1288,17
294,33	1269,74
294,55	1167,34
294,76	1247,21
294,97	1232,88
295,19	1300,46
295,40	1226,73
295,62	1220,59
295,83	1271,79
296,05	1267,69
296,26	1210,35
296,48	1232,88
296,69	1294,32
296,90	1271,79
297,12	1335,28
297,33	1277,93
297,55	1269,74
297,76	1253,36
297,98	1193,97
298,19	1296,36
298,41	1236,97
298,62	1290,22
298,83	1302,51
299,05	1339,37
299,26	1269,74
299,48	1294,32
299,69	1345,52
299,90	1267,69
300,12	1275,88
300,33	1257,45
300,55	1230,83
300,76	1257,45
300,98	1249,26
301,19	1236,97
301,40	1286,12
301,62	1259,50
301,83	1318,89
302,05	1255,40
302,26	1263,60
302,47	1261,55
302,69	1275,88
302,90	1298,41
303,12	1292,27
303,33	1286,12
303,54	1316,84
303,76	1277,93
303,97	1247,21
304,19	1253,36
304,40	1204,21
304,61	1247,21
304,83	1222,64
305,04	1294,32
305,26	1277,93
305,47	1286,12
305,68	1290,22
305,90	1298,41
306,11	1370,09
306,33	1300,46
306,54	1331,18
306,75	1239,02
306,97	1245,16
307,18	1282,03
307,39	1310,70
307,61	1302,51
307,82	1325,04
308,04	1271,79
308,25	1220,59
308,46	1265,64
308,68	1316,84
308,89	1275,88
309,10	1251,31
309,32	1220,59
309,53	1271,79
309,74	1312,75
309,96	1263,60
310,17	1282,03
310,39	1284,08
310,60	1306,60
310,81	1263,60
311,03	1316,84
311,24	1243,12
311,45	1269,74
311,67	1275,88
311,88	1314,80
312,09	1322,99
312,31	1251,31
312,52	1210,35
312,73	1298,41
312,95	1232,88
313,16	1224,69
313,37	1275,88
313,59	1198,06
313,80	1234,93
314,01	1212,40
314,23	1290,22
314,44	1232,88
314,65	1239,02
314,87	1292,27
315,08	1220,59
315,29	1263,60
315,51	1245,16
315,72	1251,31
315,93	1286,12
316,15	1275,88
316,36	1271,79
316,57	1282,03
316,79	1239,02
317,00	1210,35
317,21	1214,45
317,43	1241,07
317,64	1255,40
317,85	1282,03
318,07	1245,16
318,28	1277,93
318,49	1298,41
318,70	1273,84
318,92	1251,31
319,13	1374,19
319,34	1259,50
319,56	1243,12
319,77	1273,84
319,98	1249,26
320,20	1243,12
320,41	1312,75
320,62	1251,31
320,83	1318,89
321,05	1298,41
321,26	1187,82
321,47	1286,12
321,69	1271,79
321,90	1189,87
322,11	1218,54
322,32	1230,83
322,54	1296,36
322,75	1318,89
322,96	1269,74
323,18	1273,84
323,39	1314,80
323,60	1279,98
323,81	1290,22
324,03	1259,50
324,24	1271,79
324,45	1259,50
324,66	1222,64
324,88	1224,69
325,09	1282,03
325,30	1255,40
325,52	1247,21
325,73	1292,27
325,94	1239,02
326,15	1282,03
326,37	1257,45
326,58	1236,97
326,79	1298,41
327,00	1255,40
327,22	1214,45
327,43	1306,60
327,64	1230,83
327,85	1249,26
328,07	1322,99
328,28	1220,59
328,49	1216,49
328,70	1261,55
328,92	1335,28
329,13	1218,54
329,34	1273,84
329,55	1298,41
329,76	1236,97
329,98	1327,08
330,19	1306,60
330,40	1275,88
330,61	1290,22
330,83	1243,12
331,04	1290,22
331,25	1279,98
331,46	1290,22
331,68	1249,26
331,89	1271,79
332,10	1247,21
332,31	1282,03
332,52	1241,07
332,74	1314,80
332,95	1314,80
333,16	1218,54
333,37	1363,95
333,58	1275,88
333,80	1265,64
334,01	1279,98
334,22	1292,27
334,43	1234,93
334,64	1239,02
334,86	1271,79
335,07	1277,93
335,28	1273,84
335,49	1312,75
335,70	1247,21
335,92	1273,84
336,13	1273,84
336,34	1282,03
336,55	1288,17
336,76	1279,98
336,98	1249,26
337,19	1232,88
337,40	1290,22
337,61	1228,78
337,82	1294,32
338,04	1198,06
338,25	1267,69
338,46	1265,64
338,67	1269,74
338,88	1306,60
339,09	1320,94
339,31	1296,36
339,52	1282,03
339,73	1216,49
339,94	1296,36
340,15	1271,79
340,36	1269,74
340,58	1247,21
340,79	1255,40
341,00	1247,21
341,21	1163,25
341,42	1333,23
341,63	1216,49
341,85	1310,70
342,06	1263,60
342,27	1349,61
342,48	1288,17
342,69	1329,13
342,90	1269,74
343,12	1220,59
343,33	1271,79
343,54	1230,83
343,75	1370,09
343,96	1255,40
344,17	1306,60
344,38	1302,51
344,60	1286,12
344,81	1300,46
345,02	1275,88
345,23	1241,07
345,44	1314,80
345,65	1245,16
345,86	1234,93
346,07	1257,45
346,29	1327,08
346,50	1253,36
346,71	1208,30
346,92	1298,41
347,13	1304,56
347,34	1298,41
347,55	1300,46
347,76	1275,88
347,98	1261,55
348,19	1234,93
348,40	1322,99
348,61	1290,22
348,82	1277,93
349,03	1294,32
349,24	1279,98
349,45	1261,55
349,66	1257,45
349,88	1335,28
350,09	1224,69
350,30	1288,17
350,51	1183,73
350,72	1282,03
350,93	1175,53
351,14	1308,65
351,35	1193,97
351,56	1271,79
351,77	1265,64
351,99	1353,71
352,20	1247,21
352,41	1310,70
352,62	1269,74
352,83	1292,27
353,04	1314,80
353,25	1316,84
353,46	1275,88
353,67	1255,40
353,88	1255,40
354,09	1232,88
354,30	1314,80
354,52	1253,36
354,73	1261,55
354,94	1316,84
355,15	1241,07
355,36	1218,54
355,57	1241,07
355,78	1335,28
355,99	1322,99
356,20	1267,69
356,41	1247,21
356,62	1271,79
356,83	1220,59
357,04	1292,27
357,25	1210,35
357,46	1239,02
357,68	1304,56
357,89	1269,74
358,10	1304,56
358,31	1284,08
358,52	1277,93
358,73	1318,89
358,94	1259,50
359,15	1273,84
359,36	1286,12
359,57	1255,40
359,78	1310,70
359,99	1341,42
360,20	1267,69
360,41	1267,69
360,62	1282,03
360,83	1269,74
361,04	1259,50
361,25	1308,65
361,46	1337,32
361,67	1251,31
361,88	1329,13
362,09	1218,54
362,30	1259,50
362,51	1298,41
362,72	1243,12
362,93	1265,64
363,14	1263,60
363,35	1257,45
363,56	1294,32
363,78	1304,56
363,99	1261,55
364,20	1228,78
364,41	1279,98
364,62	1275,88
364,83	1265,64
365,04	1277,93
365,25	1279,98
365,46	1312,75
365,67	1316,84
365,88	1296,36
366,09	1271,79
366,30	1222,64
366,51	1243,12
366,72	1314,80
366,93	1286,12
367,14	1159,15
367,35	1247,21
367,56	1228,78
367,77	1273,84
367,98	1230,83
368,18	1318,89
368,39	1220,59
368,60	1273,84
368,81	1308,65
369,02	1292,27
369,23	1294,32
369,44	1298,41
369,65	1279,98
369,86	1220,59
370,07	1271,79
370,28	1279,98
370,49	1337,32
370,70	1263,60
370,91	1259,50
371,12	1241,07
371,33	1286,12
371,54	1265,64
371,75	1288,17
371,96	1253,36
372,17	1290,22
372,38	1249,26
372,59	1267,69
372,80	1261,55
373,01	1257,45
373,22	1363,95
373,43	1325,04
373,64	1255,40
373,85	1269,74
374,06	1265,64
374,26	1288,17
374,47	1296,36
374,68	1232,88
374,89	1292,27
375,10	1314,80
375,31	1306,60
375,52	1290,22
375,73	1294,32
375,94	1245,16
376,15	1247,21
376,36	1279,98
376,57	1271,79
376,78	1251,31
376,99	1265,64
377,20	1245,16
377,40	1286,12
377,61	1214,45
377,82	1222,64
378,03	1296,36
378,24	1290,22
378,45	1300,46
378,66	1265,64
378,87	1288,17
379,08	1282,03
379,29	1320,94
379,50	1335,28
379,71	1259,50
379,91	1253,36
380,12	1306,60
380,33	1249,26
380,54	1296,36
380,75	1277,93
380,96	1318,89
381,17	1208,30
381,38	1310,70
381,59	1316,84
381,80	1191,92
382,00	1239,02
382,21	1259,50
382,42	1298,41
382,63	1200,11
382,84	1206,25
383,05	1263,60
383,26	1257,45
383,47	1261,55
383,68	1288,17
383,88	1271,79
384,09	1327,08
384,30	1347,56
384,51	1275,88
384,72	1308,65
384,93	1292,27
385,14	1222,64
385,35	1304,56
385,55	1253,36
385,76	1298,41
385,97	1306,60
386,18	1222,64
386,39	1327,08
386,60	1279,98
386,81	1259,50
387,02	1271,79
387,22	1263,60
387,43	1259,50
387,64	1318,89
387,85	1275,88
388,06	1220,59
388,27	1253,36
388,48	1308,65
388,68	1314,80
388,89	1300,46
389,10	1300,46
389,31	1298,41
389,52	1214,45
389,73	1269,74
389,93	1357,80
390,14	1232,88
390,35	1294,32
390,56	1275,88
390,77	1314,80
390,98	1228,78
391,18	1230,83
391,39	1286,12
391,60	1214,45
391,81	1271,79
392,02	1214,45
392,23	1339,37
392,43	1232,88
392,64	1146,86
392,85	1267,69
393,06	1226,73
393,27	1247,21
393,47	1234,93
393,68	1230,83
393,89	1310,70
394,10	1279,98
394,31	1294,32
394,52	1269,74
394,72	1277,93
394,93	1286,12
395,14	1249,26
395,35	1189,87
395,56	1265,64
395,76	1263,60
395,97	1279,98
396,18	1249,26
396,39	1273,84
396,60	1306,60
396,80	1290,22
397,01	1239,02
397,22	1224,69
397,43	1314,80
397,64	1286,12
397,84	1273,84
398,05	1261,55
398,26	1255,40
398,47	1277,93
398,67	1232,88
398,88	1269,74
399,09	1282,03
399,30	1212,40
399,51	1277,93
399,71	1288,17
399,92	1241,07
400,13	1228,78
400,34	1232,88
400,54	1300,46
400,75	1320,94
400,96	1263,60
401,17	1226,73
401,37	1230,83
401,58	1226,73
401,79	1216,49
402,00	1343,47
402,21	1337,32
402,41	1220,59
402,62	1288,17
402,83	1261,55
403,04	1210,35
403,24	1288,17
403,45	1255,40
403,66	1243,12
403,87	1306,60
404,07	1265,64
404,28	1259,50
404,49	1318,89
404,70	1296,36
404,90	1298,41
405,11	1275,88
405,32	1265,64
405,52	1290,22
405,73	1247,21
405,94	1243,12
406,15	1255,40
406,35	1247,21
406,56	1279,98
406,77	1222,64
406,98	1247,21
407,18	1206,25
407,39	1298,41
407,60	1222,64
407,80	1247,21
408,01	1200,11
408,22	1325,04
408,43	1230,83
408,63	1241,07
408,84	1253,36
409,05	1255,40
409,25	1236,97
409,46	1298,41
409,67	1292,27
409,88	1261,55
410,08	1267,69
410,29	1259,50
410,50	1257,45
410,70	1277,93
410,91	1284,08
411,12	1275,88
411,32	1273,84
411,53	1263,60
411,74	1243,12
411,95	1241,07
412,15	1322,99
412,36	1296,36
412,57	1290,22
412,77	1322,99
412,98	1241,07
413,19	1310,70
413,39	1300,46
413,60	1259,50
413,81	1298,41
414,01	1298,41
414,22	1351,66
414,43	1228,78
414,63	1253,36
414,84	1259,50
415,05	1257,45
415,25	1327,08
415,46	1200,11
415,67	1290,22
415,87	1271,79
416,08	1263,60
416,29	1290,22
416,49	1294,32
416,70	1247,21
416,91	1329,13
417,11	1218,54
417,32	1265,64
417,53	1267,69
417,73	1263,60
417,94	1257,45
418,15	1296,36
418,35	1271,79
418,56	1241,07
418,77	1247,21
418,97	1241,07
419,18	1279,98
419,38	1255,40
419,59	1157,10
419,80	1249,26
420,00	1245,16
420,21	1302,51
420,42	1218,54
420,62	1290,22
420,83	1245,16
421,04	1273,84
421,24	1341,42
421,45	1232,88
421,65	1255,40
421,86	1198,06
422,07	1259,50
422,27	1318,89
422,48	1269,74
422,69	1279,98
422,89	1314,80
423,10	1253,36
423,30	1261,55
423,51	1259,50
423,72	1271,79
423,92	1267,69
424,13	1288,17
424,33	1271,79
424,54	1183,73
424,75	1361,90
424,95	1255,40
425,16	1290,22
425,36	1249,26
425,57	1261,55
425,78	1253,36
425,98	1269,74
426,19	1239,02
426,39	1277,93
426,60	1218,54
426,81	1322,99
427,01	1335,28
427,22	1228,78
427,42	1239,02
427,63	1331,18
427,83	1312,75
428,04	1288,17
428,25	1271,79
428,45	1320,94
428,66	1316,84
428,86	1298,41
429,07	1345,52
429,28	1265,64
429,48	1275,88
429,69	1236,97
429,89	1228,78
430,10	1255,40
430,30	1261,55
430,51	1228,78
430,71	1249,26
430,92	1335,28
431,13	1208,30
431,33	1259,50
431,54	1247,21
431,74	1228,78
431,95	1327,08
432,15	1292,27
432,36	1263,60
432,56	1294,32
432,77	1279,98
432,98	1255,40
433,18	1257,45
433,39	1288,17
433,59	1304,56
433,80	1259,50
434,00	1267,69
434,21	1255,40
434,41	1249,26
434,62	1236,97
434,82	1275,88
435,03	1320,94
435,23	1273,84
435,44	1271,79
435,64	1284,08
435,85	1208,30
436,06	1294,32
436,26	1230,83
436,47	1361,90
436,67	1251,31
436,88	1308,65
437,08	1234,93
437,29	1261,55
437,49	1265,64
437,70	1298,41
437,90	1286,12
438,11	1267,69
438,31	1228,78
438,52	1296,36
438,72	1228,78
438,93	1284,08
439,13	1263,60
439,34	1255,40
439,54	1253,36
439,75	1220,59
439,95	1259,50
440,16	1302,51
440,36	1357,80
440,57	1265,64
440,77	1263,60
440,98	1177,58
441,18	1304,56
441,39	1314,80
441,59	1316,84
441,80	1247,21
442,00	1261,55
442,21	1234,93
442,41	1314,80
442,62	1230,83
442,82	1232,88
443,02	1224,69
443,23	1310,70
443,43	1290,22
443,64	1314,80
443,84	1245,16
444,05	1247,21
444,25	1267,69
444,46	1282,03
444,66	1257,45
444,87	1243,12
445,07	1318,89
445,28	1200,11
445,48	1267,69
445,69	1290,22
445,89	1282,03
446,09	1275,88
446,30	1298,41
446,50	1245,16
446,71	1298,41
446,91	1271,79
447,12	1282,03
447,32	1247,21
447,53	1347,56
447,73	1251,31
447,93	1310,70
448,14	1286,12
448,34	1189,87
448,55	1189,87
448,75	1306,60
448,96	1359,85
449,16	1275,88
449,36	1273,84
449,57	1247,21
449,77	1271,79
449,98	1345,52
450,18	1230,83
450,39	1363,95
450,59	1265,64
450,79	1265,64
451,00	1296,36
451,20	1292,27
451,41	1275,88
451,61	1253,36
451,81	1189,87
452,02	1241,07
452,22	1292,27
452,43	1263,60
452,63	1261,55
452,84	1261,55
453,04	1296,36
453,24	1271,79
453,45	1267,69
453,65	1273,84
453,86	1312,75
454,06	1296,36
454,26	1265,64
454,47	1298,41
454,67	1261,55
454,87	1333,23
455,08	1230,83
455,28	1257,45
455,49	1296,36
455,69	1290,22
455,89	1298,41
456,10	1243,12
456,30	1212,40
456,51	1269,74
456,71	1298,41
456,91	1220,59
457,12	1259,50
457,32	1247,21
457,52	1259,50
457,73	1304,56
457,93	1296,36
458,14	1218,54
458,34	1232,88
458,54	1306,60
458,75	1257,45
458,95	1220,59
459,15	1265,64
459,36	1290,22
459,56	1271,79
459,76	1312,75
459,97	1273,84
460,17	1187,82
460,37	1249,26
460,58	1234,93
460,78	1376,24
460,99	1306,60
461,19	1302,51
461,39	1310,70
461,60	1214,45
461,80	1259,50
462,00	1241,07
462,21	1275,88
462,41	1218,54
462,61	1245,16
462,82	1255,40
463,02	1275,88
463,22	1196,01
463,43	1327,08
463,63	1290,22
463,83	1269,74
464,04	1290,22
464,24	1308,65
464,44	1357,80
464,64	1222,64
464,85	1253,36
465,05	1247,21
465,25	1345,52
465,46	1267,69
465,66	1339,37
465,86	1314,80
466,07	1286,12
466,27	1224,69
466,47	1222,64
466,68	1261,55
466,88	1296,36
467,08	1306,60
467,29	1284,08
467,49	1265,64
467,69	1226,73
467,89	1249,26
468,10	1345,52
468,30	1277,93
468,50	1292,27
468,71	1263,60
468,91	1282,03
469,11	1327,08
469,31	1265,64
469,52	1327,08
469,72	1277,93
469,92	1265,64
470,13	1228,78
470,33	1333,23
470,53	1284,08
470,73	1284,08
470,94	1224,69
471,14	1241,07
471,34	1247,21
471,54	1267,69
471,75	1288,17
471,95	1273,84
472,15	1296,36
472,36	1279,98
472,56	1230,83
472,76	1292,27
472,96	1196,01
473,17	1306,60
473,37	1310,70
473,57	1257,45
473,77	1345,52
473,98	1306,60
474,18	1353,71
474,38	1216,49
474,58	1275,88
474,79	1275,88
474,99	1298,41
475,19	1302,51
475,39	1198,06
475,60	1236,97
475,80	1298,41
476,00	1310,70
476,20	1245,16
476,41	1206,25
476,61	1282,03
476,81	1282,03
477,01	1239,02
477,21	1257,45
477,42	1306,60
477,62	1286,12
477,82	1243,12
478,02	1292,27
478,23	1239,02
478,43	1269,74
478,63	1263,60
478,83	1185,77
479,03	1214,45
479,24	1234,93
479,44	1282,03
479,64	1292,27
479,84	1261,55
480,04	1247,21
480,25	1230,83
480,45	1320,94
480,65	1296,36
480,85	1273,84
481,06	1312,75
481,26	1277,93
481,46	1347,56
481,66	1269,74
481,86	1335,28
482,06	1236,97
482,27	1265,64
482,47	1239,02
482,67	1265,64
482,87	1206,25
483,07	1304,56
483,28	1304,56
483,48	1290,22
483,68	1277,93
483,88	1267,69
484,08	1290,22
484,29	1279,98
484,49	1222,64
484,69	1290,22
484,89	1288,17
485,09	1236,97
485,29	1228,78
485,50	1292,27
485,70	1288,17
485,90	1312,75
486,10	1247,21
486,30	1265,64
486,50	1245,16
486,71	1290,22
486,91	1279,98
487,11	1245,16
487,31	1269,74
487,51	1359,85
487,71	1271,79
487,91	1241,07
488,12	1249,26
488,32	1273,84
488,52	1243,12
488,72	1189,87
488,92	1331,18
489,12	1296,36
489,32	1249,26
489,53	1339,37
489,73	1230,83
489,93	1279,98
490,13	1347,56
490,33	1316,84
490,53	1380,33
490,73	1269,74
490,94	1347,56
491,14	1220,59
491,34	1282,03
491,54	1222,64
491,74	1259,50
491,94	1212,40
492,14	1292,27
492,34	1236,97
492,54	1320,94
492,75	1265,64
492,95	1245,16
493,15	1279,98
493,35	1282,03
493,55	1265,64
493,75	1247,21
493,95	1320,94
494,15	1212,40
494,35	1265,64
494,56	1232,88
494,76	1257,45
494,96	1230,83
495,16	1267,69
495,36	1239,02
495,56	1345,52
495,76	1216,49
495,96	1337,32
496,16	1277,93
496,36	1312,75
496,56	1282,03
496,77	1275,88
496,97	1181,68
497,17	1206,25
497,37	1290,22
497,57	1296,36
497,77	1261,55
497,97	1259,50
498,17	1259,50
498,37	1292,27
498,57	1312,75
498,77	1329,13
498,97	1347,56
499,17	1294,32
499,38	1318,89
499,58	1329,13
499,78	1259,50
499,98	1300,46
500,18	1228,78
500,38	1206,25
500,58	1282,03
500,78	1236,97
500,98	1298,41
501,18	1304,56
501,38	1355,76
501,58	1232,88
501,78	1279,98
501,98	1247,21
502,18	1224,69
502,38	1259,50
502,58	1318,89
502,78	1167,34
502,98	1273,84
503,18	1216,49
503,38	1273,84
503,59	1189,87
503,79	1337,32
503,99	1333,23
504,19	1261,55
504,39	1288,17
504,59	1218,54
504,79	1175,53
504,99	1249,26
505,19	1306,60
505,39	1228,78
505,59	1327,08
505,79	1275,88
505,99	1273,84
506,19	1277,93
506,39	1347,56
506,59	1263,60
506,79	1259,50
506,99	1247,21
507,19	1312,75
507,39	1249,26
507,59	1257,45
507,79	1251,31
507,99	1226,73
508,19	1263,60
508,39	1298,41
508,59	1263,60
508,79	1251,31
508,99	1292,27
509,19	1288,17
509,39	1384,43
509,59	1290,22
509,79	1337,32
509,99	1236,97
510,19	1329,13
510,39	1322,99
510,59	1228,78
510,79	1226,73
510,99	1179,63
511,19	1277,93
511,39	1314,80
511,59	1263,60
511,79	1210,35
511,99	1236,97
512,19	1271,79
512,38	1339,37
512,58	1163,25
512,78	1296,36
512,98	1251,31
513,18	1257,45
513,38	1265,64
513,58	1265,64
513,78	1290,22
513,98	1341,42
514,18	1271,79
514,38	1239,02
514,58	1302,51
514,78	1314,80
514,98	1263,60
515,18	1206,25
515,38	1286,12
515,58	1249,26
515,78	1290,22
515,98	1279,98
516,18	1314,80
516,38	1339,37
516,57	1214,45
516,77	1175,53
516,97	1282,03
517,17	1259,50
517,37	1255,40
517,57	1300,46
517,77	1206,25
517,97	1245,16
518,17	1249,26
518,37	1261,55
518,57	1224,69
518,77	1249,26
518,97	1275,88
519,16	1245,16
519,36	1259,50
519,56	1267,69
519,76	1224,69
519,96	1308,65
520,16	1265,64
520,36	1218,54
520,56	1314,80
520,76	1208,30
520,96	1263,60
521,16	1228,78
521,35	1212,40
521,55	1239,02
521,75	1232,88
521,95	1261,55
522,15	1247,21
522,35	1206,25
522,55	1310,70
522,75	1355,76
522,95	1292,27
523,14	1304,56
523,34	1296,36
523,54	1259,50
523,74	1257,45
523,94	1169,39
524,14	1249,26
524,34	1333,23
524,54	1245,16
524,73	1357,80
524,93	1294,32
525,13	1298,41
525,33	1322,99
525,53	1253,36
525,73	1279,98
525,93	1312,75
526,13	1263,60
526,32	1292,27
526,52	1251,31
526,72	1320,94
526,92	1241,07
527,12	1361,90
527,32	1243,12
527,52	1247,21
527,71	1273,84
527,91	1218,54
528,11	1316,84
528,31	1241,07
528,51	1275,88
528,71	1245,16
528,90	1284,08
529,10	1271,79
529,30	1318,89
529,50	1282,03
529,70	1273,84
529,90	1269,74
530,09	1267,69
530,29	1241,07
530,49	1267,69
530,69	1300,46
530,89	1308,65
531,09	1251,31
531,28	1284,08
531,48	1290,22
531,68	1261,55
531,88	1314,80
532,08	1267,69
532,28	1271,79
532,47	1298,41
532,67	1251,31
532,87	1325,04
533,07	1294,32
533,27	1304,56
533,46	1239,02
533,66	1333,23
533,86	1259,50
534,06	1267,69
534,26	1304,56
534,45	1232,88
534,65	1224,69
534,85	1284,08
535,05	1259,50
535,25	1267,69
535,44	1224,69
535,64	1210,35
535,84	1265,64
536,04	1269,74
536,24	1241,07
536,43	1247,21
536,63	1308,65
536,83	1265,64
537,03	1290,22
537,22	1339,37
537,42	1320,94
537,62	1243,12
537,82	1220,59
538,02	1282,03
538,21	1277,93
538,41	1314,80
538,61	1359,85
538,81	1312,75
539,00	1286,12
539,20	1273,84
539,40	1239,02
539,60	1220,59
539,79	1282,03
539,99	1273,84
540,19	1275,88
540,39	1267,69
540,58	1253,36
540,78	1271,79
540,98	1347,56
541,18	1222,64
541,37	1206,25
541,57	1232,88
541,77	1308,65
541,97	1236,97
542,16	1282,03
542,36	1216,49
542,56	1310,70
542,76	1314,80
542,95	1228,78
543,15	1249,26
543,35	1241,07
543,54	1245,16
543,74	1220,59
543,94	1302,51
544,14	1329,13
544,33	1275,88
544,53	1312,75
544,73	1292,27
544,93	1253,36
545,12	1312,75
545,32	1368,04
545,52	1228,78
545,71	1243,12
545,91	1222,64
546,11	1255,40
546,30	1273,84
546,50	1261,55
546,70	1271,79
546,90	1284,08
547,09	1279,98
547,29	1261,55
547,49	1249,26
547,68	1243,12
547,88	1236,97
548,08	1292,27
548,27	1279,98
548,47	1226,73
548,67	1216,49
548,87	1282,03
549,06	1265,64
549,26	1273,84
549,46	1279,98
549,65	1153,01
549,85	1253,36
550,05	1249,26
550,24	1302,51
550,44	1259,50
550,64	1296,36
550,83	1241,07
551,03	1290,22
551,23	1327,08
551,42	1282,03
551,62	1290,22
551,82	1228,78
552,01	1277,93
552,21	1241,07
552,41	1322,99
552,60	1247,21
552,80	1275,88
553,00	1253,36
553,19	1206,25
553,39	1277,93
553,59	1288,17
553,78	1265,64
553,98	1286,12
554,17	1241,07
554,37	1245,16
554,57	1257,45
554,76	1296,36
554,96	1329,13
555,16	1251,31
555,35	1300,46
555,55	1249,26
555,75	1277,93
555,94	1298,41
556,14	1234,93
556,33	1253,36
556,53	1239,02
556,73	1310,70
556,92	1376,24
557,12	1288,17
557,32	1275,88
557,51	1298,41
557,71	1257,45
557,90	1325,04
558,10	1220,59
558,30	1282,03
558,49	1261,55
558,69	1226,73
558,88	1226,73
559,08	1259,50
559,28	1214,45
559,47	1271,79
559,67	1267,69
559,86	1277,93
560,06	1234,93
560,26	1304,56
560,45	1234,93
560,65	1296,36
560,84	1275,88
561,04	1245,16
561,24	1267,69
561,43	1325,04
561,63	1292,27
561,82	1318,89
562,02	1265,64
562,22	1292,27
562,41	1236,97
562,61	1279,98
562,80	1247,21
563,00	1275,88
563,19	1271,79
563,39	1277,93
563,59	1249,26
563,78	1304,56
563,98	1275,88
564,17	1275,88
564,37	1243,12
564,56	1228,78
564,76	1308,65
564,96	1265,64
565,15	1259,50
565,35	1310,70
565,54	1290,22
565,74	1343,47
565,93	1316,84
566,13	1288,17
566,32	1181,68
566,52	1304,56
566,71	1243,12
566,91	1304,56
567,11	1263,60
567,30	1247,21
567,50	1267,69
567,69	1279,98
567,89	1288,17
568,08	1236,97
568,28	1236,97
568,47	1337,32
568,67	1312,75
568,86	1322,99
569,06	1271,79
569,25	1312,75
569,45	1300,46
569,64	1243,12
569,84	1316,84
570,04	1312,75
570,23	1214,45
570,43	1232,88
570,62	1329,13
570,82	1363,95
571,01	1273,84
571,21	1339,37
571,40	1327,08
571,60	1290,22
571,79	1228,78
571,99	1314,80
572,18	1347,56
572,38	1261,55
572,57	1277,93
572,77	1310,70
572,96	1226,73
573,16	1261,55
573,35	1286,12
573,55	1300,46
573,74	1259,50
573,94	1257,45
574,13	1308,65
574,33	1249,26
574,52	1273,84
574,71	1282,03
574,91	1247,21
575,10	1290,22
575,30	1306,60
575,49	1282,03
575,69	1232,88
575,88	1331,18
576,08	1263,60
576,27	1226,73
576,47	1241,07
576,66	1269,74
576,86	1269,74
577,05	1298,41
577,25	1239,02
577,44	1261,55
577,64	1245,16
577,83	1294,32
578,02	1261,55
578,22	1271,79
578,41	1288,17
578,61	1275,88
578,80	1288,17
579,00	1300,46
579,19	1275,88
579,39	1335,28
579,58	1251,31
579,77	1282,03
579,97	1261,55
580,16	1269,74
580,36	1282,03
580,55	1234,93
580,75	1310,70
580,94	1286,12
581,13	1236,97
581,33	1214,45
581,52	1366,00
581,72	1255,40
581,91	1288,17
582,11	1216,49
582,30	1230,83
582,49	1271,79
582,69	1292,27
582,88	1255,40
583,08	1314,80
583,27	1273,84
583,47	1298,41
583,66	1294,32
583,85	1222,64
584,05	1226,73
584,24	1271,79
584,44	1282,03
584,63	1230,83
584,82	1243,12
585,02	1302,51
585,21	1191,92
585,41	1267,69
585,60	1241,07
585,79	1294,32
585,99	1245,16
586,18	1249,26
586,37	1259,50
586,57	1193,97
586,76	1261,55
586,96	1263,60
587,15	1239,02
587,34	1255,40
587,54	1306,60
587,73	1279,98
587,93	1263,60
588,12	1331,18
588,31	1318,89
588,51	1261,55
588,70	1296,36
588,89	1277,93
589,09	1259,50
589,28	1288,17
589,47	1253,36
589,67	1230,83
589,86	1290,22
590,06	1304,56
590,25	1247,21
590,44	1277,93
590,64	1241,07
590,83	1298,41
591,02	1288,17
591,22	1265,64
591,41	1257,45
591,60	1269,74
591,80	1353,71
591,99	1314,80
592,18	1249,26
592,38	1284,08
592,57	1241,07
592,76	1265,64
592,96	1247,21
593,15	1286,12
593,34	1224,69
593,54	1331,18
593,73	1320,94
593,92	1302,51
594,12	1322,99
594,31	1216,49
594,50	1273,84
594,70	1208,30
594,89	1368,04
595,08	1357,80
595,28	1245,16
595,47	1245,16
595,66	1261,55
595,86	1236,97
596,05	1269,74
596,24	1261,55
596,43	1304,56
596,63	1322,99
596,82	1308,65
597,01	1253,36
597,21	1288,17
597,40	1277,93
597,59	1249,26
597,79	1130,48
597,98	1288,17
598,17	1306,60
598,36	1292,27
598,56	1306,60
598,75	1249,26
598,94	1271,79
599,14	1286,12
599,33	1294,32
599,52	1214,45
599,71	1337,32
599,91	1249,26
600,10	1220,59
600,29	1306,60
600,48	1296,36
600,68	1282,03
600,87	1251,31
601,06	1214,45
601,26	1294,32
601,45	1288,17
601,64	1230,83
601,83	1310,70
602,03	1318,89
602,22	1275,88
602,41	1288,17
602,60	1273,84
602,80	1300,46
602,99	1351,66
603,18	1279,98
603,37	1318,89
603,57	1271,79
603,76	1361,90
603,95	1230,83
604,14	1277,93
604,34	1316,84
604,53	1247,21
604,72	1304,56
604,91	1271,79
605,10	1318,89
605,30	1216,49
605,49	1351,66
605,68	1263,60
605,87	1261,55
606,07	1331,18
606,26	1286,12
606,45	1282,03
606,64	1226,73
606,84	1230,83
607,03	1269,74
607,22	1277,93
607,41	1294,32
607,60	1269,74
607,80	1247,21
607,99	1337,32
608,18	1333,23
608,37	1271,79
608,56	1245,16
608,76	1251,31
608,95	1294,32
609,14	1251,31
609,33	1251,31
609,52	1259,50
609,72	1236,97
609,91	1306,60
610,10	1275,88
610,29	1302,51
610,48	1333,23
610,68	1292,27
610,87	1275,88
611,06	1277,93
611,25	1236,97
611,44	1275,88
611,63	1314,80
611,83	1296,36
612,02	1310,70
612,21	1271,79
612,40	1271,79
612,59	1345,52
612,79	1290,22
612,98	1198,06
613,17	1271,79
613,36	1253,36
613,55	1247,21
613,74	1279,98
613,93	1212,40
614,13	1257,45
614,32	1269,74
614,51	1243,12
614,70	1220,59
614,89	1292,27
615,08	1277,93
615,28	1310,70
615,47	1277,93
615,66	1271,79
615,85	1298,41
616,04	1234,93
616,23	1245,16
616,42	1308,65
616,62	1288,17
616,81	1261,55
617,00	1284,08
617,19	1310,70
617,38	1308,65
617,57	1224,69
617,76	1333,23
617,95	1279,98
618,15	1300,46
618,34	1322,99
618,53	1310,70
618,72	1253,36
618,91	1277,93
619,10	1257,45
619,29	1224,69
619,48	1298,41
619,68	1322,99
619,87	1228,78
620,06	1206,25
620,25	1228,78
620,44	1286,12
620,63	1214,45
620,82	1286,12
621,01	1308,65
621,20	1216,49
621,39	1267,69
621,59	1290,22
621,78	1218,54
621,97	1255,40
622,16	1257,45
622,35	1282,03
622,54	1249,26
622,73	1310,70
622,92	1263,60
623,11	1255,40
623,30	1296,36
623,49	1286,12
623,68	1318,89
623,88	1216,49
624,07	1370,09
624,26	1214,45
624,45	1255,40
624,64	1216,49
624,83	1224,69
625,02	1316,84
625,21	1279,98
625,40	1310,70
625,59	1394,67
625,78	1366,00
625,97	1273,84
626,16	1236,97
626,35	1322,99
626,54	1230,83
626,74	1269,74
626,93	1282,03
627,12	1310,70
627,31	1243,12
627,50	1345,52
627,69	1339,37
627,88	1318,89
628,07	1292,27
628,26	1282,03
628,45	1265,64
628,64	1257,45
628,83	1282,03
629,02	1275,88
629,21	1298,41
629,40	1255,40
629,59	1224,69
629,78	1312,75
629,97	1320,94
630,16	1271,79
630,35	1279,98
630,54	1325,04
630,73	1271,79
630,92	1333,23
631,11	1355,76
631,30	1314,80
631,49	1347,56
631,68	2054,11
631,87	6307,74
632,06	25685,62
632,25	54002,89
632,44	42204,54
632,63	30053,94
632,82	26261,10
633,01	6381,47
633,20	3479,50
633,39	3203,02
633,58	2758,61
633,77	2238,43
633,96	2062,30
634,15	1966,05
634,34	1843,17
634,53	1687,53
634,72	1746,92
634,91	1630,18
635,10	1593,32
635,29	1482,73
635,48	1572,84
635,67	1490,92
635,86	1503,21
636,05	1398,76
636,24	1443,82
636,43	1378,28
636,62	1357,80
636,81	1409,00
637,00	1384,43
637,19	1284,08
637,38	1368,04
637,57	1359,85
637,76	1357,80
637,95	1277,93
638,14	1310,70
638,33	1327,08
638,52	1290,22
638,71	1318,89
638,89	1241,07
639,08	1331,18
639,27	1355,76
639,46	1359,85
639,65	1316,84
639,84	1290,22
640,03	1343,47
640,22	1259,50
640,41	1273,84
640,60	1347,56
640,79	1345,52
640,98	1357,80
641,17	1325,04
641,36	1294,32
641,55	1331,18
641,74	1290,22
641,92	1247,21
642,11	1312,75
642,30	1220,59
642,49	1327,08
642,68	1282,03
642,87	1333,23
643,06	1259,50
643,25	1329,13
643,44	1247,21
643,63	1214,45
643,82	1277,93
644,00	1261,55
644,19	1312,75
644,38	1234,93
644,57	1314,80
644,76	1263,60
644,95	1239,02
645,14	1265,64
645,33	1310,70
645,52	1271,79
645,71	1263,60
645,89	1368,04
646,08	1284,08
646,27	1222,64
646,46	1253,36
646,65	1261,55
646,84	1241,07
647,03	1286,12
647,22	1216,49
647,40	1265,64
647,59	1265,64
647,78	1316,84
647,97	1341,42
648,16	1261,55
648,35	1198,06
648,54	1294,32
648,73	1249,26
648,91	1236,97
649,10	1349,61
649,29	1239,02
649,48	1257,45
649,67	1331,18
649,86	1284,08
650,05	1224,69
650,23	1271,79
650,42	1361,90
650,61	1232,88
650,80	1224,69
650,99	1284,08
651,18	1292,27
651,36	1247,21
651,55	1263,60
651,74	1273,84
651,93	1247,21
652,12	1265,64
652,31	1222,64
652,49	1255,40
652,68	1286,12
652,87	1245,16
653,06	1255,40
653,25	1296,36
653,44	1228,78
653,62	1247,21
653,81	1284,08
654,00	1308,65
654,19	1236,97
654,38	1279,98
654,56	1220,59
654,75	1243,12
654,94	1257,45
655,13	1271,79
655,32	1314,80
655,51	1306,60
655,69	1304,56
655,88	1279,98
656,07	1282,03
656,26	1298,41
656,45	1314,80
656,63	1224,69
656,82	1275,88
657,01	1257,45
657,20	1222,64
657,38	1314,80
657,57	1196,01
657,76	1239,02
657,95	1290,22
658,14	1265,64
658,32	1255,40
658,51	1380,33
658,70	1230,83
658,89	1308,65
659,08	1308,65
659,26	1239,02
659,45	1273,84
659,64	1310,70
659,83	1257,45
660,01	1267,69
660,20	1259,50
660,39	1251,31
660,58	1224,69
660,76	1277,93
660,95	1345,52
661,14	1322,99
661,33	1251,31
661,51	1282,03
661,70	1267,69
661,89	1290,22
662,08	1290,22
662,26	1286,12
662,45	1302,51
662,64	1236,97
662,83	1335,28
663,01	1187,82
663,20	1279,98
663,39	1275,88
663,58	1259,50
663,76	1349,61
663,95	1351,66
664,14	1241,07
664,32	1304,56
664,51	1214,45
664,70	1271,79
664,89	1218,54
665,07	1294,32
665,26	1273,84
665,45	1298,41
665,64	1245,16
665,82	1335,28
666,01	1275,88
666,20	1183,73
666,38	1267,69
666,57	1327,08
666,76	1214,45
666,95	1273,84
667,13	1220,59
667,32	1277,93
667,51	1243,12
667,69	1267,69
667,88	1271,79
668,07	1236,97
668,25	1300,46
668,44	1331,18
668,63	1245,16
668,81	1302,51
669,00	1282,03
669,19	1241,07
669,38	1216,49
669,56	1312,75
669,75	1232,88
669,94	1288,17
670,12	1298,41
670,31	1275,88
670,50	1259,50
670,68	1345,52
670,87	1239,02
671,06	1298,41
671,24	1253,36
671,43	1298,41
671,62	1263,60
671,80	1318,89
671,99	1357,80
672,18	1247,21
672,36	1282,03
672,55	1302,51
672,74	1228,78
672,92	1249,26
673,11	1249,26
673,29	1304,56
673,48	1273,84
673,67	1271,79
673,85	1325,04
674,04	1261,55
674,23	1269,74
674,41	1265,64
674,60	1279,98
674,79	1255,40
674,97	1304,56
675,16	1255,40
675,34	1304,56
675,53	1335,28
675,72	1277,93
675,90	1226,73
676,09	1273,84
676,28	1269,74
676,46	1234,93
676,65	1314,80
676,83	1308,65
677,02	1306,60
677,21	1279,98
677,39	1263,60
677,58	1312,75
677,77	1327,08
677,95	1275,88
678,14	1220,59
678,32	1245,16
678,51	1253,36
678,70	1286,12
678,88	1263,60
679,07	1271,79
679,25	1304,56
679,44	1318,89
679,63	1253,36
679,81	1296,36
680,00	1331,18
680,18	1251,31
680,37	1308,65
680,55	1296,36
680,74	1302,51
680,93	1300,46
681,11	1277,93
681,30	1200,11
681,48	1191,92
681,67	1236,97
681,85	1265,64
682,04	1273,84
682,23	1208,30
682,41	1228,78
682,60	1263,60
682,78	1267,69
682,97	1308,65
683,15	1193,97
683,34	1232,88
683,53	1267,69
683,71	1275,88
683,90	1269,74
684,08	1257,45
684,27	1298,41
684,45	1306,60
684,64	1259,50
684,82	1320,94
685,01	1241,07
685,19	1232,88
685,38	1243,12
685,57	1271,79
685,75	1245,16
685,94	1243,12
686,12	1202,16
686,31	1286,12
686,49	1351,66
686,68	1239,02
686,86	1226,73
687,05	1302,51
687,23	1257,45
687,42	1327,08
687,60	1243,12
687,79	1306,60
687,97	1265,64
688,16	1298,41
688,34	1273,84
688,53	1290,22
688,71	1279,98
688,90	1185,77
689,08	1267,69
689,27	1265,64
689,45	1234,93
689,64	1259,50
689,82	1224,69
690,01	1288,17
690,19	1282,03
690,38	1206,25
690,56	1282,03
690,75	1214,45
690,93	1306,60
691,12	1337,32
691,30	1220,59
691,49	1329,13
691,67	1202,16
691,86	1322,99
692,04	1251,31
692,23	1214,45
692,41	1273,84
692,60	1282,03
692,78	1241,07
692,97	1255,40
693,15	1296,36
693,34	1296,36
693,52	1292,27
693,71	1255,40
693,89	1318,89
694,08	1230,83
694,26	1204,21
694,44	1236,97
694,63	1306,60
694,81	1341,42
695,00	1224,69
695,18	1279,98
695,37	1265,64
695,55	1275,88
695,74	1282,03
695,92	1263,60
696,10	1247,21
696,29	1351,66
696,47	1259,50
696,66	1318,89
696,84	1232,88
697,03	1300,46
697,21	1345,52
697,40	1318,89
697,58	1282,03
697,76	1257,45
697,95	1312,75
698,13	1245,16
698,32	1296,36
698,50	1327,08
698,68	1273,84
698,87	1302,51
699,05	1261,55
699,24	1230,83
699,42	1304,56
699,61	1196,01
699,79	1269,74
699,97	1271,79
700,16	1302,51
700,34	1279,98
700,53	1318,89
700,71	1322,99
700,89	1183,73
701,08	1259,50
701,26	1271,79
701,45	1363,95
701,63	1247,21
701,81	1230,83
702,00	1265,64
702,18	1271,79
702,37	1271,79
702,55	1284,08
702,73	1320,94
702,92	1249,26
703,10	1263,60
703,28	1329,13
703,47	1202,16
703,65	1288,17
703,84	1290,22
704,02	1253,36
704,20	1261,55
704,39	1226,73
704,57	1327,08
704,75	1218,54
704,94	1288,17
705,12	1196,01
705,30	1234,93
705,49	1189,87
705,67	1241,07
705,86	1314,80
706,04	1261,55
706,22	1249,26
706,41	1224,69
706,59	1261,55
706,77	1241,07
706,96	1282,03
707,14	1224,69
707,32	1232,88
707,51	1308,65
707,69	1234,93
707,87	1271,79
708,06	1253,36
708,24	1255,40
708,42	1304,56
708,61	1282,03
708,79	1296,36
708,97	1320,94
709,16	1245,16
709,34	1314,80
709,52	1304,56
709,71	1284,08
709,89	1253,36
710,07	1243,12
710,26	1279,98
710,44	1304,56
710,62	1255,40
710,80	1308,65
710,99	1331,18
711,17	1267,69
711,35	1222,64
711,54	1230,83
711,72	1259,50
711,90	1261,55
712,09	1271,79
712,27	1189,87
712,45	1249,26
712,63	1302,51
712,82	1234,93
713,00	1273,84
713,18	1261,55
713,37	1269,74
713,55	1286,12
713,73	1343,47
713,91	1277,93
714,10	1202,16
714,28	1247,21
714,46	1310,70
714,65	1259,50
714,83	1298,41
715,01	1236,97
715,19	1398,76
715,38	1271,79
715,56	1259,50
715,74	1204,21
715,92	1302,51
716,11	1286,12
716,29	1290,22
716,47	1294,32
716,65	1288,17
716,84	1228,78
717,02	1314,80
717,20	1183,73
717,38	1234,93
717,57	1263,60
717,75	1312,75
717,93	1249,26
718,11	1294,32
718,30	1353,71
718,48	1269,74
718,66	1200,11
718,84	1361,90
719,03	1251,31
719,21	1189,87
719,39	1320,94
719,57	1294,32
719,75	1273,84
719,94	1265,64
720,12	1325,04
720,30	1288,17
720,48	1290,22
720,67	1269,74
720,85	1196,01
721,03	1243,12
721,21	1241,07
721,39	1298,41
721,58	1243,12
721,76	1306,60
721,94	1216,49
722,12	1204,21
722,30	1304,56
722,49	1214,45
722,67	1257,45
722,85	1232,88
723,03	1236,97
723,21	1247,21
723,40	1241,07
723,58	1263,60
723,76	1236,97
723,94	1314,80
724,12	1224,69
724,30	1292,27
724,49	1232,88
724,67	1288,17
724,85	1329,13
725,03	1347,56
725,21	1257,45
725,40	1298,41
725,58	1265,64
725,76	1314,80
725,94	1353,71
726,12	1279,98
726,30	1273,84
726,49	1306,60
726,67	1312,75
726,85	1241,07
727,03	1316,84
727,21	1224,69
727,39	1337,32
727,57	1290,22
727,76	1212,40
727,94	1257,45
728,12	1239,02
728,30	1271,79
728,48	1273,84
728,66	1249,26
728,84	1282,03
729,03	1257,45
729,21	1286,12
729,39	1232,88
729,57	1359,85
729,75	1284,08
729,93	1304,56
730,11	1191,92
730,30	1247,21
730,48	1253,36
730,66	1224,69
730,84	1245,16
731,02	1208,30
731,20	1257,45
731,38	1249,26
731,56	1304,56
731,74	1245,16
731,93	1222,64
732,11	1218,54
732,29	1265,64
732,47	1282,03
732,65	1290,22
732,83	1290,22
733,01	1320,94
733,19	1236,97
733,37	1339,37
733,56	1251,31
733,74	1298,41
733,92	1314,80
734,10	1296,36
734,28	1292,27
734,46	1257,45
734,64	1333,23
734,82	1263,60
735,00	1216,49
735,18	1271,79
735,36	1265,64
735,54	1277,93
735,73	1216,49
735,91	1198,06
736,09	1257,45
736,27	1282,03
736,45	1228,78
736,63	1265,64
736,81	1247,21
736,99	1298,41
737,17	1304,56
737,35	1282,03
737,53	1265,64
737,71	1286,12
737,89	1284,08
738,07	1226,73
738,25	1347,56
738,43	1263,60
738,61	1347,56
738,80	1241,07
738,98	1312,75
739,16	1232,88
739,34	1269,74
739,52	1159,15
739,70	1234,93
739,88	1327,08
740,06	1298,41
740,24	1306,60
740,42	1304,56
740,60	1269,74
740,78	1257,45
740,96	1230,83
741,14	1212,40
741,32	1204,21
741,50	1286,12
741,68	1261,55
741,86	1335,28
742,04	1275,88
742,22	1308,65
742,40	1216,49
742,58	1302,51
742,76	1232,88
742,94	1265,64
743,12	1253,36
743,30	1333,23
743,48	1312,75
743,66	1284,08
743,84	1284,08
744,02	1267,69
744,20	1304,56
744,38	1292,27
744,56	1312,75
744,74	1273,84
744,92	1325,04
745,10	1208,30
745,28	1191,92
745,46	1282,03
745,64	1226,73
745,82	1353,71
746,00	1247,21
746,18	1269,74
746,36	1353,71
746,54	1241,07
746,72	1243,12
746,90	1249,26
747,08	1316,84
747,26	1234,93
747,44	1298,41
747,62	1335,28
747,80	1173,49
747,98	1308,65
748,15	1298,41
748,33	1310,70
748,51	1175,53
748,69	1300,46
748,87	1269,74
749,05	1232,88
749,23	1261,55
749,41	1306,60
749,59	1298,41
749,77	1329,13
749,95	1216,49
750,13	1269,74
750,31	1228,78
750,49	1271,79
750,67	1271,79
750,85	1261,55
751,03	1322,99
751,20	1286,12
751,38	1314,80
751,56	1230,83
751,74	1167,34
751,92	1198,06
752,10	1331,18
752,28	1267,69
752,46	1279,98
752,64	1202,16
752,82	1222,64
753,00	1253,36
753,18	1298,41
753,35	1320,94
753,53	1275,88
753,71	1263,60
753,89	1265,64
754,07	1255,40
754,25	1279,98
754,43	1316,84
754,61	1239,02
754,79	1257,45
754,97	1267,69
755,14	1325,04
755,32	1290,22
755,50	1193,97
755,68	1230,83
755,86	1191,92
756,04	1257,45
756,22	1249,26
756,40	1230,83
756,57	1329,13
756,75	1253,36
756,93	1265,64
757,11	1243,12
757,29	1259,50
757,47	1308,65
757,65	1312,75
757,82	1286,12
758,00	1249,26
758,18	1261,55
758,36	1290,22
758,54	1271,79
758,72	1337,32
758,90	1257,45
759,07	1249,26
759,25	1226,73
759,43	1314,80
759,61	1183,73
759,79	1296,36
759,97	1310,70
760,15	1322,99
760,32	1259,50
760,50	1314,80
760,68	1339,37
760,86	1228,78
761,04	1265,64
761,22	1271,79
761,39	1255,40
761,57	1282,03
761,75	1290,22
761,93	1210,35
762,11	1296,36
762,28	1241,07
762,46	1271,79
762,64	1263,60
762,82	1204,21
763,00	1384,43
763,18	1208,30
763,35	1314,80
763,53	1347,56
763,71	1300,46
763,89	1290,22
764,07	1284,08
764,24	1214,45
764,42	1298,41
764,60	1337,32
764,78	1310,70
764,96	1220,59
765,13	1294,32
765,31	1298,41
765,49	1253,36
765,67	1208,30
765,84	1226,73
766,02	1282,03
766,20	1224,69
766,38	1257,45
766,56	1286,12
766,73	1263,60
766,91	1345,52
767,09	1245,16
767,27	1208,30
767,44	1251,31
767,62	1249,26
767,80	1273,84
767,98	1308,65
768,15	1370,09
768,33	1294,32
768,51	1210,35
768,69	1292,27
768,87	1255,40
769,04	1241,07
769,22	1263,60
769,40	1320,94
769,58	1251,31
769,75	1286,12
769,93	1253,36
770,11	1234,93
770,28	1226,73
770,46	1310,70
770,64	1310,70
770,82	1224,69
770,99	1320,94
771,17	1265,64
771,35	1296,36
771,53	1286,12
771,70	1202,16
771,88	1257,45
772,06	1298,41
772,23	1304,56
772,41	1249,26
772,59	1234,93
772,77	1253,36
772,94	1314,80
773,12	1320,94
773,30	1189,87
773,47	1345,52
773,65	1327,08
773,83	1310,70
774,01	1298,41
774,18	1290,22
774,36	1247,21
774,54	1234,93
774,71	1236,97
774,89	1394,67
775,07	1228,78
775,24	1277,93
775,42	1267,69
775,60	1282,03
775,78	1282,03
775,95	1318,89
776,13	1224,69
776,31	1259,50
776,48	1232,88
776,66	1249,26
776,84	1239,02
777,01	1210,35
777,19	1245,16
777,37	1200,11
777,54	1279,98
777,72	1261,55
777,90	1216,49
778,07	1222,64
778,25	1284,08
778,43	1259,50
778,60	1263,60
778,78	1269,74
778,96	1314,80
779,13	1243,12
779,31	1243,12
779,49	1224,69
779,66	1298,41
779,84	1308,65
780,01	1263,60
780,19	1267,69
780,37	1234,93
780,54	1251,31
780,72	1243,12
780,90	1300,46
781,07	1196,01
781,25	1277,93
781,43	1257,45
781,60	1230,83
781,78	1331,18
781,95	1236,97
782,13	1239,02
782,31	1322,99
782,48	1202,16
782,66	1341,42
782,83	1228,78
783,01	1284,08
783,19	1212,40
783,36	1279,98
783,54	1251,31
783,72	1243,12
783,89	1208,30
784,07	1314,80
784,24	1292,27
784,42	1251,31
784,60	1245,16
784,77	1259,50
784,95	1216,49
785,12	1257,45
785,30	1320,94
785,47	1216,49
785,65	1257,45
785,83	1204,21
786,00	1314,80
786,18	1232,88
786,35	1279,98
786,53	1255,40
786,71	1275,88
786,88	1316,84
787,06	1257,45
787,23	1306,60
787,41	1351,66
787,58	1296,36
787,76	1239,02
787,94	1236,97
788,11	1300,46
788,29	1269,74
788,46	1265,64
788,64	1239,02
788,81	1279,98
788,99	1288,17
789,16	1294,32
789,34	1277,93
789,52	1181,68
789,69	1304,56
789,87	1343,47
790,04	1224,69
790,22	1322,99
790,39	1279,98
790,57	1249,26
790,74	1236,97
790,92	1294,32
791,09	1298,41
791,27	1294,32
791,44	1345,52
791,62	1232,88
791,79	1265,64
791,97	1265,64
792,15	1300,46
792,32	1300,46
792,50	1241,07
792,67	1204,21
792,85	1239,02
793,02	1271,79
793,20	1247,21
793,37	1269,74
793,55	1296,36
793,72	1249,26
793,90	1257,45
794,07	1200,11
794,25	1302,51
794,42	1251,31
794,60	1273,84
794,77	1282,03
794,95	1273,84
795,12	1253,36
795,30	1296,36
795,47	1294,32
795,65	1320,94
795,82	1318,89
796,00	1314,80
796,17	1224,69
796,34	1230,83
796,52	1204,21
796,69	1288,17
796,87	1292,27
797,04	1331,18
797,22	1261,55
797,39	1255,40
797,57	1241,07
797,74	1286,12
797,92	1265,64
798,09	1286,12
798,27	1269,74
798,44	1220,59
798,62	1210,35
798,79	1273,84
798,96	1220,59
799,14	1255,40
799,31	1232,88
799,49	1265,64
799,66	1290,22
799,84	1320,94
800,01	1282,03
800,19	1366,00
800,36	1173,49
800,53	1284,08
800,71	1259,50
800,88	1314,80
801,06	1200,11
801,23	1339,37
801,41	1267,69
801,58	1249,26
801,75	1249,26
801,93	1263,60
802,10	1224,69
802,28	1204,21
802,45	1263,60
802,63	1247,21
802,80	1265,64
802,97	1218,54
803,15	1247,21
803,32	1296,36
803,50	1228,78
803,67	1234,93
803,84	1267,69
804,02	1267,69
804,19	1275,88
804,37	1288,17
804,54	1290,22
804,71	1230,83
804,89	1257,45
805,06	1265,64
805,24	1251,31
805,41	1179,63
805,58	1267,69
805,76	1286,12
805,93	1243,12
806,10	1259,50
806,28	1306,60
806,45	1304,56
806,63	1249,26
806,80	1271,79
806,97	1165,29
807,15	1275,88
807,32	1290,22
807,49	1220,59
807,67	1267,69
807,84	1251,31
808,01	1273,84
808,19	1277,93
808,36	1202,16
808,54	1294,32
808,71	1314,80
808,88	1249,26
809,06	1261,55
809,23	1245,16
809,40	1267,69
809,58	1239,02
809,75	1212,40
809,92	1261,55
810,10	1267,69
810,27	1208,30
810,44	1259,50
810,62	1343,47
810,79	1269,74
810,96	1298,41
811,14	1259,50
811,31	1265,64
811,48	1241,07
811,66	1306,60
811,83	1310,70
812,00	1273,84
812,18	1286,12
812,35	1273,84
812,52	1312,75
812,69	1216,49
812,87	1243,12
813,04	1228,78
813,21	1243,12
813,39	1230,83
813,56	1251,31
813,73	1325,04
813,91	1286,12
814,08	1292,27
814,25	1314,80
814,42	1306,60
814,60	1284,08
814,77	1269,74
814,94	1310,70
815,12	1236,97
815,29	1267,69
815,46	1234,93
815,63	1257,45
815,81	1294,32
815,98	1290,22
816,15	1306,60
816,33	1292,27
816,50	1288,17
816,67	1310,70
816,84	1275,88
817,02	1318,89
817,19	1288,17
817,36	1314,80
817,53	1277,93
817,71	1263,60
817,88	1271,79
818,05	1267,69
818,22	1247,21
818,40	1298,41
818,57	1288,17
818,74	1200,11
818,91	1193,97
819,09	1312,75
819,26	1277,93
819,43	1310,70
819,60	1304,56
819,78	1241,07
819,95	1337,32
820,12	1347,56
820,29	1241,07
820,47	1271,79
820,64	1251,31
820,81	1331,18
820,98	1247,21
821,15	1218,54
821,33	1310,70
821,50	1212,40
821,67	1224,69
821,84	1228,78
822,02	1312,75
822,19	1284,08
822,36	1265,64
822,53	1327,08
822,70	1308,65
822,88	1343,47
823,05	1322,99
823,22	1271,79
823,39	1296,36
823,56	1243,12
823,74	1277,93
823,91	1261,55
824,08	1222,64
824,25	1232,88
824,42	1249,26
824,60	1255,40
824,77	1247,21
824,94	1236,97
825,11	1298,41
825,28	1284,08
825,45	1349,61
825,63	1249,26
825,80	1214,45
825,97	1279,98
826,14	1310,70
826,31	1265,64
826,48	1232,88
826,66	1249,26
826,83	1273,84
827,00	1286,12
827,17	1345,52
827,34	1263,60
827,51	1325,04
827,69	1304,56
827,86	1273,84
828,03	1290,22
828,20	1241,07
828,37	1273,84
828,54	1243,12
828,71	1226,73
828,89	1275,88
829,06	1318,89
829,23	1306,60
829,40	1308,65
829,57	1279,98
829,74	1271,79
829,91	1318,89
830,09	1239,02
830,26	1292,27
830,43	1261,55
830,60	1331,18
830,77	1306,60
830,94	1269,74
831,11	1267,69
831,28	1243,12
831,46	1286,12
831,63	1210,35
831,80	1208,30
831,97	1251,31
832,14	1314,80
832,31	1282,03
832,48	1208,30
832,65	1282,03
832,82	1325,04
832,99	1314,80
833,17	1200,11
833,34	1236,97
833,51	1259,50
833,68	1232,88
833,85	1241,07
834,02	1230,83
834,19	1245,16
834,36	1282,03
834,53	1306,60
834,70	1320,94
834,87	1265,64
835,04	1273,84
835,22	1247,21
835,39	1257,45
835,56	1228,78
835,73	1198,06
835,90	1247,21
836,07	1249,26
836,24	1308,65
836,41	1325,04
836,58	1241,07
836,75	1378,28
836,92	1273,84
837,09	1253,36
837,26	1302,51
837,43	1271,79
837,60	1329,13
837,77	1314,80
837,94	1277,93
838,12	1327,08
838,29	1249,26
838,46	1292,27
838,63	1234,93
838,80	1335,28
838,97	1290,22
839,14	1304,56
839,31	1300,46
839,48	1296,36
839,65	1253,36
839,82	1327,08
839,99	1327,08
840,16	1325,04
840,33	1290,22
840,50	1257,45
840,67	1257,45
840,84	1298,41
841,01	1232,88
841,18	1259,50
841,35	1292,27
841,52	1253,36
841,69	1267,69
841,86	1255,40
842,03	1261,55
842,20	1245,16
842,37	1206,25
842,54	1249,26
842,71	1288,17
842,88	1273,84
843,05	1312,75
843,22	1253,36
843,39	1261,55
843,56	1304,56
843,73	1218,54
843,90	1249,26
844,07	1191,92
844,24	1204,21
844,41	1290,22
844,58	1265,64
844,75	1282,03
844,92	1249,26
845,09	1230,83
845,26	1230,83
845,43	1198,06
845,60	1263,60
845,77	1196,01
845,94	1206,25
846,10	1249,26
846,27	1320,94
846,44	1239,02
846,61	1257,45
846,78	1245,16
846,95	1247,21
847,12	1206,25
847,29	1308,65
847,46	1320,94
847,63	1355,76
847,80	1308,65
847,97	1232,88
848,14	1282,03
848,31	1294,32
848,48	1239,02
848,65	1241,07
848,82	1239,02
848,98	1286,12
849,15	1308,65
849,32	1308,65
849,49	1236,97
849,66	1279,98
849,83	1247,21
850,00	1384,43
850,17	1177,58
850,34	1247,21
850,51	1271,79
850,68	1241,07
850,85	1296,36
851,01	1296,36
851,18	1296,36
851,35	1167,34
851,52	1263,60
851,69	1241,07
851,86	1294,32
852,03	1298,41
852,20	1290,22
852,37	1308,65
852,53	1214,45
852,70	1277,93
852,87	1241,07
853,04	1302,51
853,21	1253,36
853,38	1243,12
853,55	1284,08
853,72	1177,58
853,89	1275,88
854,05	1265,64
854,22	1218,54
854,39	1304,56
854,56	1337,32
854,73	1318,89
854,90	1257,45
855,07	1347,56
855,23	1290,22
855,40	1216,49
855,57	1243,12
855,74	1304,56
855,91	1370,09
856,08	1255,40
856,25	1214,45
856,41	1355,76
856,58	1337,32
856,75	1282,03
856,92	1271,79
857,09	1275,88
857,26	1259,50
857,42	1302,51
857,59	1355,76
857,76	1271,79
857,93	1239,02
858,10	1312,75
858,27	1245,16
858,43	1335,28
858,60	1302,51
858,77	1216,49
858,94	1322,99
859,11	1400,81
859,27	1273,84
859,44	1290,22
859,61	1259,50
859,78	1282,03
859,95	1263,60
860,12	1302,51
860,28	1271,79
860,45	1298,41
860,62	1241,07
860,79	1314,80
860,95	1251,31
861,12	1333,23
861,29	1249,26
861,46	1288,17
861,63	1251,31
861,79	1282,03
861,96	1316,84
862,13	1255,40
862,30	1292,27
862,47	1273,84
862,63	1273,84
862,80	1273,84
862,97	1361,90
863,14	1261,55
863,30	1257,45
863,47	1234,93
863,64	1243,12
863,81	1265,64
863,97	1333,23
864,14	1339,37
864,31	1302,51
864,48	1255,40
864,65	1302,51
864,81	1290,22
864,98	1204,21
865,15	1286,12
865,32	1243,12
865,48	1257,45
865,65	1255,40
865,82	1302,51
865,98	1263,60
866,15	1308,65
866,32	1224,69
866,49	1294,32
866,65	1294,32
866,82	1263,60
866,99	1232,88
867,16	1288,17
867,32	1290,22
867,49	1327,08
867,66	1294,32
867,83	1251,31
867,99	1339,37
868,16	1255,40
868,33	1208,30
868,49	1245,16
868,66	1286,12
868,83	1263,60
868,99	1279,98
869,16	1282,03
869,33	1175,53
869,50	1320,94
869,66	1200,11
869,83	1288,17
870,00	1224,69
870,16	1286,12
870,33	1255,40
870,50	1279,98
870,66	1218,54
870,83	1294,32
871,00	1273,84
871,17	1312,75
871,33	1296,36
871,50	1263,60
871,67	1222,64
871,83	1300,46
872,00	1316,84
872,17	1275,88
872,33	1310,70
872,50	1239,02
872,67	1296,36
872,83	1251,31
873,00	1290,22
873,17	1245,16
873,33	1269,74
873,50	1234,93
873,67	1245,16
873,83	1279,98
874,00	1234,93
874,16	1302,51
874,33	1243,12
874,50	1302,51
874,66	1372,14
874,83	1310,70
875,00	1325,04
875,16	1300,46
875,33	1239,02
875,50	1361,90
875,66	1232,88
875,83	1314,80
875,99	1253,36
876,16	1236,97
876,33	1314,80
876,49	1263,60
876,66	1409,00
876,83	1290,22
876,99	1263,60
877,16	1284,08
877,32	1249,26
877,49	1273,84
877,66	1306,60
877,82	1224,69
877,99	1282,03
878,15	1273,84
878,32	1333,23
878,49	1306,60
878,65	1282,03
878,82	1282,03
878,98	1255,40
879,15	1288,17
879,32	1277,93
879,48	1320,94
879,65	1165,29
879,81	1259,50
879,98	1257,45
880,15	1304,56
880,31	1322,99
880,48	1275,88
880,64	1277,93
880,81	1290,22
880,97	1245,16
881,14	1322,99
881,31	1236,97
881,47	1273,84
881,64	1247,21
881,80	1353,71
881,97	1296,36
882,13	1243,12
882,30	1226,73
882,47	1271,79
882,63	1249,26
882,80	1269,74
882,96	1290,22
883,13	1249,26
883,29	1255,40
883,46	1376,24
883,62	1288,17
883,79	1253,36
883,95	1236,97
884,12	1249,26
884,29	1271,79
884,45	1261,55
884,62	1380,33
884,78	1212,40
884,95	1249,26
885,11	1241,07
885,28	1271,79
885,44	1222,64
885,61	1189,87
885,77	1226,73
885,94	1355,76
886,10	1282,03
886,27	1220,59
886,43	1306,60
886,60	1200,11
886,76	1273,84
886,93	1261,55
887,09	1210,35
887,26	1251,31
887,42	1259,50
887,59	1259,50
887,75	1257,45
887,92	1279,98
888,08	1183,73
888,25	1261,55
888,41	1306,60
888,58	1288,17
888,74	1275,88
888,91	1294,32
>>>>>End Processed Spectral Data<<<<<
