SpectraSuite Data File
++++++++++++++++++++++++++++++++++++
Date: Sun Apr 03 18:12:04 CEST 2016
User: root
Dark Spectrum Present: No
Reference Spectrum Present: No
Number of Sampled Component Spectra: 1
Spectrometers: USB4C02835
Integration Time (usec): 10000 (USB4C02835)
Spectra Averaged: 1 (USB4C02835)
Boxcar Smoothing: 0 (USB4C02835)
Correct for Electrical Dark: No (USB4C02835)
Strobe/Lamp Enabled: No (USB4C02835)
Correct for Detector Non-linearity: No (USB4C02835)
Correct for Stray Light: No (USB4C02835)
Number of Pixels in Processed Spectrum: 3648
>>>>>Begin Processed Spectral Data<<<<<
177,47	1279,98
177,69	1279,98
177,91	1279,98
178,13	1224,69
178,36	1204,21
178,58	1312,75
178,80	1216,49
179,02	1236,97
179,24	1232,88
179,46	1214,45
179,68	1343,47
179,90	1296,36
180,13	1261,55
180,35	1212,40
180,57	1320,94
180,79	1251,31
181,01	1224,69
181,23	1265,64
181,45	1314,80
181,67	1255,40
181,90	1241,07
182,12	1294,32
182,34	1241,07
182,56	1257,45
182,78	1245,16
183,00	1286,12
183,22	1226,73
183,44	1193,97
183,66	1241,07
183,89	1220,59
184,11	1239,02
184,33	1239,02
184,55	1337,32
184,77	1277,93
184,99	1261,55
185,21	1288,17
185,43	1239,02
185,65	1196,01
185,87	1257,45
186,10	1216,49
186,32	1279,98
186,54	1202,16
186,76	1232,88
186,98	1353,71
187,20	1212,40
187,42	1292,27
187,64	1263,60
187,86	1292,27
188,08	1275,88
188,30	1300,46
188,52	1300,46
188,75	1222,64
188,97	1204,21
189,19	1300,46
189,41	1224,69
189,63	1241,07
189,85	1318,89
190,07	1255,40
190,29	1277,93
190,51	1173,49
190,73	1296,36
190,95	1279,98
191,17	1255,40
191,39	1212,40
191,61	1247,21
191,84	1243,12
192,06	1236,97
192,28	1173,49
192,50	1249,26
192,72	1241,07
192,94	1249,26
193,16	1224,69
193,38	1286,12
193,60	1282,03
193,82	1220,59
194,04	1288,17
194,26	1210,35
194,48	1273,84
194,70	1294,32
194,92	1251,31
195,14	1206,25
195,36	1208,30
195,58	1239,02
195,80	1267,69
196,02	1269,74
196,24	1288,17
196,46	1255,40
196,69	1222,64
196,91	1347,56
197,13	1298,41
197,35	1245,16
197,57	1179,63
197,79	1329,13
198,01	1306,60
198,23	1236,97
198,45	1249,26
198,67	1222,64
198,89	1257,45
199,11	1290,22
199,33	1247,21
199,55	1261,55
199,77	1271,79
199,99	1306,60
200,21	1243,12
200,43	1185,77
200,65	1232,88
200,87	1222,64
201,09	1279,98
201,31	1312,75
201,53	1314,80
201,75	1181,68
201,97	1308,65
202,19	1189,87
202,41	1251,31
202,63	1282,03
202,85	1282,03
203,07	1243,12
203,29	1290,22
203,51	1265,64
203,73	1228,78
203,95	1271,79
204,17	1298,41
204,39	1288,17
204,61	1187,82
204,83	1261,55
205,05	1204,21
205,27	1200,11
205,49	1337,32
205,71	1296,36
205,93	1271,79
206,15	1341,42
206,37	1220,59
206,59	1298,41
206,81	1267,69
207,03	1259,50
207,25	1224,69
207,47	1294,32
207,69	1255,40
207,91	1300,46
208,13	1349,61
208,34	1167,34
208,56	1261,55
208,78	1191,92
209,00	1241,07
209,22	1249,26
209,44	1261,55
209,66	1216,49
209,88	1306,60
210,10	1247,21
210,32	1173,49
210,54	1304,56
210,76	1255,40
210,98	1290,22
211,20	1284,08
211,42	1234,93
211,64	1224,69
211,86	1218,54
212,08	1257,45
212,30	1255,40
212,52	1265,64
212,74	1257,45
212,96	1294,32
213,17	1275,88
213,39	1234,93
213,61	1245,16
213,83	1312,75
214,05	1288,17
214,27	1273,84
214,49	1230,83
214,71	1300,46
214,93	1347,56
215,15	1286,12
215,37	1273,84
215,59	1275,88
215,81	1318,89
216,03	1212,40
216,24	1251,31
216,46	1208,30
216,68	1243,12
216,90	1265,64
217,12	1312,75
217,34	1257,45
217,56	1277,93
217,78	1251,31
218,00	1300,46
218,22	1259,50
218,44	1304,56
218,66	1331,18
218,87	1271,79
219,09	1218,54
219,31	1265,64
219,53	1300,46
219,75	1226,73
219,97	1193,97
220,19	1208,30
220,41	1210,35
220,63	1296,36
220,85	1232,88
221,06	1255,40
221,28	1333,23
221,50	1331,18
221,72	1294,32
221,94	1267,69
222,16	1282,03
222,38	1282,03
222,60	1239,02
222,82	1294,32
223,03	1255,40
223,25	1296,36
223,47	1300,46
223,69	1288,17
223,91	1282,03
224,13	1308,65
224,35	1214,45
224,57	1245,16
224,78	1257,45
225,00	1255,40
225,22	1320,94
225,44	1269,74
225,66	1290,22
225,88	1271,79
226,10	1325,04
226,32	1265,64
226,53	1249,26
226,75	1292,27
226,97	1253,36
227,19	1286,12
227,41	1206,25
227,63	1200,11
227,85	1279,98
228,06	1347,56
228,28	1335,28
228,50	1271,79
228,72	1257,45
228,94	1329,13
229,16	1304,56
229,37	1349,61
229,59	1327,08
229,81	1300,46
230,03	1335,28
230,25	1277,93
230,47	1222,64
230,69	1308,65
230,90	1265,64
231,12	1200,11
231,34	1275,88
231,56	1245,16
231,78	1241,07
232,00	1259,50
232,21	1210,35
232,43	1286,12
232,65	1187,82
232,87	1251,31
233,09	1290,22
233,30	1263,60
233,52	1290,22
233,74	1349,61
233,96	1239,02
234,18	1239,02
234,40	1236,97
234,61	1236,97
234,83	1253,36
235,05	1302,51
235,27	1253,36
235,49	1257,45
235,70	1204,21
235,92	1265,64
236,14	1236,97
236,36	1300,46
236,58	1222,64
236,79	1284,08
237,01	1271,79
237,23	1241,07
237,45	1239,02
237,67	1282,03
237,88	1142,77
238,10	1271,79
238,32	1302,51
238,54	1275,88
238,76	1288,17
238,97	1261,55
239,19	1234,93
239,41	1204,21
239,63	1245,16
239,85	1212,40
240,06	1284,08
240,28	1241,07
240,50	1298,41
240,72	1372,14
240,93	1292,27
241,15	1263,60
241,37	1267,69
241,59	1208,30
241,81	1306,60
242,02	1257,45
242,24	1327,08
242,46	1304,56
242,68	1257,45
242,89	1263,60
243,11	1284,08
243,33	1306,60
243,55	1288,17
243,76	1298,41
243,98	1277,93
244,20	1329,13
244,42	1269,74
244,64	1284,08
244,85	1230,83
245,07	1308,65
245,29	1200,11
245,51	1296,36
245,72	1245,16
245,94	1288,17
246,16	1300,46
246,38	1198,06
246,59	1173,49
246,81	1257,45
247,03	1282,03
247,24	1300,46
247,46	1273,84
247,68	1206,25
247,90	1263,60
248,11	1269,74
248,33	1228,78
248,55	1257,45
248,77	1294,32
248,98	1275,88
249,20	1370,09
249,42	1292,27
249,64	1257,45
249,85	1161,20
250,07	1183,73
250,29	1302,51
250,50	1308,65
250,72	1230,83
250,94	1277,93
251,16	1230,83
251,37	1261,55
251,59	1236,97
251,81	1261,55
252,02	1298,41
252,24	1277,93
252,46	1212,40
252,68	1325,04
252,89	1263,60
253,11	1214,45
253,33	1314,80
253,54	1239,02
253,76	1239,02
253,98	1257,45
254,20	1247,21
254,41	1290,22
254,63	1277,93
254,85	1245,16
255,06	1271,79
255,28	1232,88
255,50	1224,69
255,71	1245,16
255,93	1234,93
256,15	1286,12
256,36	1290,22
256,58	1294,32
256,80	1275,88
257,02	1206,25
257,23	1312,75
257,45	1243,12
257,67	1249,26
257,88	1314,80
258,10	1296,36
258,32	1228,78
258,53	1329,13
258,75	1232,88
258,97	1226,73
259,18	1273,84
259,40	1261,55
259,62	1220,59
259,83	1329,13
260,05	1304,56
260,27	1255,40
260,48	1304,56
260,70	1148,91
260,92	1265,64
261,13	1247,21
261,35	1251,31
261,57	1304,56
261,78	1245,16
262,00	1259,50
262,22	1183,73
262,43	1290,22
262,65	1292,27
262,86	1282,03
263,08	1312,75
263,30	1282,03
263,51	1284,08
263,73	1245,16
263,95	1265,64
264,16	1290,22
264,38	1269,74
264,60	1212,40
264,81	1267,69
265,03	1228,78
265,25	1226,73
265,46	1327,08
265,68	1236,97
265,89	1292,27
266,11	1294,32
266,33	1275,88
266,54	1257,45
266,76	1208,30
266,98	1236,97
267,19	1275,88
267,41	1193,97
267,62	1208,30
267,84	1339,37
268,06	1296,36
268,27	1234,93
268,49	1316,84
268,70	1249,26
268,92	1292,27
269,14	1196,01
269,35	1312,75
269,57	1263,60
269,79	1279,98
270,00	1218,54
270,22	1224,69
270,43	1267,69
270,65	1277,93
270,87	1282,03
271,08	1243,12
271,30	1255,40
271,51	1290,22
271,73	1239,02
271,95	1232,88
272,16	1282,03
272,38	1230,83
272,59	1232,88
272,81	1273,84
273,02	1296,36
273,24	1255,40
273,46	1230,83
273,67	1296,36
273,89	1298,41
274,10	1243,12
274,32	1273,84
274,54	1208,30
274,75	1310,70
274,97	1234,93
275,18	1271,79
275,40	1247,21
275,61	1226,73
275,83	1273,84
276,05	1214,45
276,26	1241,07
276,48	1259,50
276,69	1222,64
276,91	1286,12
277,12	1249,26
277,34	1282,03
277,55	1284,08
277,77	1306,60
277,99	1314,80
278,20	1236,97
278,42	1282,03
278,63	1296,36
278,85	1259,50
279,06	1312,75
279,28	1251,31
279,49	1224,69
279,71	1263,60
279,93	1302,51
280,14	1239,02
280,36	1286,12
280,57	1206,25
280,79	1304,56
281,00	1298,41
281,22	1249,26
281,43	1296,36
281,65	1269,74
281,86	1271,79
282,08	1277,93
282,29	1298,41
282,51	1226,73
282,73	1300,46
282,94	1196,01
283,16	1329,13
283,37	1320,94
283,59	1247,21
283,80	1300,46
284,02	1279,98
284,23	1226,73
284,45	1255,40
284,66	1279,98
284,88	1259,50
285,09	1337,32
285,31	1331,18
285,52	1275,88
285,74	1284,08
285,95	1220,59
286,17	1247,21
286,38	1263,60
286,60	1325,04
286,81	1222,64
287,03	1179,63
287,24	1306,60
287,46	1286,12
287,67	1282,03
287,89	1271,79
288,10	1286,12
288,32	1339,37
288,53	1234,93
288,75	1263,60
288,96	1298,41
289,18	1318,89
289,39	1236,97
289,61	1275,88
289,82	1294,32
290,04	1363,95
290,25	1294,32
290,47	1232,88
290,68	1251,31
290,90	1284,08
291,11	1236,97
291,33	1286,12
291,54	1275,88
291,76	1226,73
291,97	1206,25
292,18	1216,49
292,40	1214,45
292,61	1306,60
292,83	1257,45
293,04	1318,89
293,26	1284,08
293,47	1249,26
293,69	1288,17
293,90	1312,75
294,12	1314,80
294,33	1253,36
294,55	1239,02
294,76	1228,78
294,97	1253,36
295,19	1320,94
295,40	1290,22
295,62	1267,69
295,83	1273,84
296,05	1191,92
296,26	1269,74
296,48	1286,12
296,69	1236,97
296,90	1298,41
297,12	1261,55
297,33	1347,56
297,55	1263,60
297,76	1216,49
297,98	1206,25
298,19	1269,74
298,41	1296,36
298,62	1273,84
298,83	1232,88
299,05	1304,56
299,26	1269,74
299,48	1255,40
299,69	1198,06
299,90	1267,69
300,12	1300,46
300,33	1265,64
300,55	1277,93
300,76	1249,26
300,98	1220,59
301,19	1277,93
301,40	1257,45
301,62	1271,79
301,83	1279,98
302,05	1167,34
302,26	1236,97
302,47	1286,12
302,69	1302,51
302,90	1290,22
303,12	1222,64
303,33	1263,60
303,54	1253,36
303,76	1314,80
303,97	1284,08
304,19	1304,56
304,40	1259,50
304,61	1255,40
304,83	1228,78
305,04	1320,94
305,26	1230,83
305,47	1273,84
305,68	1257,45
305,90	1226,73
306,11	1245,16
306,33	1294,32
306,54	1243,12
306,75	1247,21
306,97	1249,26
307,18	1196,01
307,39	1249,26
307,61	1241,07
307,82	1255,40
308,04	1202,16
308,25	1239,02
308,46	1314,80
308,68	1230,83
308,89	1271,79
309,10	1236,97
309,32	1370,09
309,53	1296,36
309,74	1249,26
309,96	1304,56
310,17	1226,73
310,39	1214,45
310,60	1196,01
310,81	1218,54
311,03	1191,92
311,24	1167,34
311,45	1263,60
311,67	1232,88
311,88	1150,96
312,09	1257,45
312,31	1163,25
312,52	1259,50
312,73	1304,56
312,95	1257,45
313,16	1249,26
313,37	1269,74
313,59	1282,03
313,80	1259,50
314,01	1325,04
314,23	1234,93
314,44	1208,30
314,65	1284,08
314,87	1314,80
315,08	1232,88
315,29	1249,26
315,51	1277,93
315,72	1282,03
315,93	1234,93
316,15	1282,03
316,36	1239,02
316,57	1273,84
316,79	1339,37
317,00	1312,75
317,21	1308,65
317,43	1261,55
317,64	1234,93
317,85	1290,22
318,07	1275,88
318,28	1331,18
318,49	1218,54
318,70	1263,60
318,92	1271,79
319,13	1261,55
319,34	1286,12
319,56	1245,16
319,77	1271,79
319,98	1228,78
320,20	1239,02
320,41	1341,42
320,62	1222,64
320,83	1220,59
321,05	1282,03
321,26	1306,60
321,47	1302,51
321,69	1343,47
321,90	1288,17
322,11	1224,69
322,32	1261,55
322,54	1288,17
322,75	1249,26
322,96	1314,80
323,18	1251,31
323,39	1302,51
323,60	1257,45
323,81	1226,73
324,03	1253,36
324,24	1320,94
324,45	1267,69
324,66	1187,82
324,88	1259,50
325,09	1228,78
325,30	1249,26
325,52	1202,16
325,73	1271,79
325,94	1249,26
326,15	1208,30
326,37	1222,64
326,58	1339,37
326,79	1243,12
327,00	1232,88
327,22	1257,45
327,43	1312,75
327,64	1224,69
327,85	1343,47
328,07	1275,88
328,28	1273,84
328,49	1290,22
328,70	1232,88
328,92	1296,36
329,13	1288,17
329,34	1224,69
329,55	1173,49
329,76	1232,88
329,98	1288,17
330,19	1243,12
330,40	1234,93
330,61	1312,75
330,83	1249,26
331,04	1255,40
331,25	1261,55
331,46	1218,54
331,68	1302,51
331,89	1245,16
332,10	1347,56
332,31	1239,02
332,52	1230,83
332,74	1255,40
332,95	1222,64
333,16	1241,07
333,37	1257,45
333,58	1265,64
333,80	1208,30
334,01	1261,55
334,22	1236,97
334,43	1214,45
334,64	1216,49
334,86	1269,74
335,07	1220,59
335,28	1253,36
335,49	1337,32
335,70	1232,88
335,92	1284,08
336,13	1247,21
336,34	1247,21
336,55	1271,79
336,76	1236,97
336,98	1294,32
337,19	1224,69
337,40	1296,36
337,61	1243,12
337,82	1226,73
338,04	1273,84
338,25	1230,83
338,46	1275,88
338,67	1271,79
338,88	1310,70
339,09	1277,93
339,31	1253,36
339,52	1337,32
339,73	1196,01
339,94	1292,27
340,15	1198,06
340,36	1290,22
340,58	1282,03
340,79	1294,32
341,00	1257,45
341,21	1263,60
341,42	1277,93
341,63	1271,79
341,85	1370,09
342,06	1247,21
342,27	1302,51
342,48	1253,36
342,69	1300,46
342,90	1271,79
343,12	1247,21
343,33	1331,18
343,54	1202,16
343,75	1257,45
343,96	1253,36
344,17	1249,26
344,38	1302,51
344,60	1304,56
344,81	1226,73
345,02	1173,49
345,23	1261,55
345,44	1226,73
345,65	1284,08
345,86	1306,60
346,07	1232,88
346,29	1306,60
346,50	1310,70
346,71	1302,51
346,92	1316,84
347,13	1302,51
347,34	1163,25
347,55	1263,60
347,76	1335,28
347,98	1322,99
348,19	1292,27
348,40	1234,93
348,61	1204,21
348,82	1148,91
349,03	1359,85
349,24	1202,16
349,45	1267,69
349,66	1337,32
349,88	1265,64
350,09	1224,69
350,30	1253,36
350,51	1296,36
350,72	1263,60
350,93	1306,60
351,14	1234,93
351,35	1263,60
351,56	1279,98
351,77	1286,12
351,99	1279,98
352,20	1300,46
352,41	1273,84
352,62	1249,26
352,83	1306,60
353,04	1294,32
353,25	1241,07
353,46	1273,84
353,67	1232,88
353,88	1204,21
354,09	1228,78
354,30	1273,84
354,52	1333,23
354,73	1316,84
354,94	1218,54
355,15	1286,12
355,36	1308,65
355,57	1308,65
355,78	1257,45
355,99	1279,98
356,20	1310,70
356,41	1296,36
356,62	1236,97
356,83	1300,46
357,04	1208,30
357,25	1206,25
357,46	1288,17
357,68	1261,55
357,89	1204,21
358,10	1282,03
358,31	1273,84
358,52	1304,56
358,73	1220,59
358,94	1333,23
359,15	1267,69
359,36	1257,45
359,57	1257,45
359,78	1228,78
359,99	1267,69
360,20	1241,07
360,41	1148,91
360,62	1298,41
360,83	1253,36
361,04	1271,79
361,25	1271,79
361,46	1335,28
361,67	1247,21
361,88	1257,45
362,09	1234,93
362,30	1304,56
362,51	1255,40
362,72	1269,74
362,93	1239,02
363,14	1249,26
363,35	1259,50
363,56	1261,55
363,78	1271,79
363,99	1249,26
364,20	1347,56
364,41	1267,69
364,62	1322,99
364,83	1363,95
365,04	1288,17
365,25	1212,40
365,46	1279,98
365,67	1269,74
365,88	1284,08
366,09	1279,98
366,30	1306,60
366,51	1189,87
366,72	1279,98
366,93	1232,88
367,14	1255,40
367,35	1282,03
367,56	1282,03
367,77	1290,22
367,98	1245,16
368,18	1316,84
368,39	1288,17
368,60	1263,60
368,81	1277,93
369,02	1210,35
369,23	1163,25
369,44	1286,12
369,65	1290,22
369,86	1296,36
370,07	1288,17
370,28	1284,08
370,49	1232,88
370,70	1261,55
370,91	1263,60
371,12	1251,31
371,33	1294,32
371,54	1302,51
371,75	1232,88
371,96	1292,27
372,17	1277,93
372,38	1247,21
372,59	1241,07
372,80	1216,49
373,01	1304,56
373,22	1339,37
373,43	1267,69
373,64	1230,83
373,85	1339,37
374,06	1318,89
374,26	1308,65
374,47	1251,31
374,68	1265,64
374,89	1308,65
375,10	1253,36
375,31	1288,17
375,52	1257,45
375,73	1241,07
375,94	1167,34
376,15	1232,88
376,36	1218,54
376,57	1263,60
376,78	1271,79
376,99	1265,64
377,20	1292,27
377,40	1300,46
377,61	1265,64
377,82	1292,27
378,03	1357,80
378,24	1243,12
378,45	1267,69
378,66	1271,79
378,87	1265,64
379,08	1253,36
379,29	1290,22
379,50	1245,16
379,71	1236,97
379,91	1300,46
380,12	1167,34
380,33	1271,79
380,54	1181,68
380,75	1245,16
380,96	1306,60
381,17	1245,16
381,38	1308,65
381,59	1282,03
381,80	1239,02
382,00	1351,66
382,21	1267,69
382,42	1247,21
382,63	1239,02
382,84	1269,74
383,05	1243,12
383,26	1224,69
383,47	1224,69
383,68	1257,45
383,88	1316,84
384,09	1282,03
384,30	1189,87
384,51	1261,55
384,72	1337,32
384,93	1290,22
385,14	1224,69
385,35	1368,04
385,55	1277,93
385,76	1265,64
385,97	1224,69
386,18	1275,88
386,39	1181,68
386,60	1230,83
386,81	1183,73
387,02	1249,26
387,22	1261,55
387,43	1241,07
387,64	1243,12
387,85	1290,22
388,06	1249,26
388,27	1259,50
388,48	1263,60
388,68	1279,98
388,89	1263,60
389,10	1329,13
389,31	1263,60
389,52	1267,69
389,73	1157,10
389,93	1288,17
390,14	1298,41
390,35	1247,21
390,56	1292,27
390,77	1282,03
390,98	1279,98
391,18	1222,64
391,39	1335,28
391,60	1302,51
391,81	1265,64
392,02	1247,21
392,23	1224,69
392,43	1267,69
392,64	1263,60
392,85	1269,74
393,06	1257,45
393,27	1312,75
393,47	1290,22
393,68	1284,08
393,89	1267,69
394,10	1298,41
394,31	1198,06
394,52	1210,35
394,72	1241,07
394,93	1236,97
395,14	1220,59
395,35	1259,50
395,56	1202,16
395,76	1267,69
395,97	1265,64
396,18	1208,30
396,39	1230,83
396,60	1322,99
396,80	1245,16
397,01	1296,36
397,22	1263,60
397,43	1226,73
397,64	1247,21
397,84	1236,97
398,05	1275,88
398,26	1261,55
398,47	1288,17
398,67	1239,02
398,88	1294,32
399,09	1261,55
399,30	1255,40
399,51	1327,08
399,71	1279,98
399,92	1318,89
400,13	1193,97
400,34	1302,51
400,54	1290,22
400,75	1279,98
400,96	1286,12
401,17	1331,18
401,37	1288,17
401,58	1300,46
401,79	1247,21
402,00	1277,93
402,21	1275,88
402,41	1263,60
402,62	1265,64
402,83	1198,06
403,04	1269,74
403,24	1294,32
403,45	1198,06
403,66	1222,64
403,87	1343,47
404,07	1257,45
404,28	1257,45
404,49	1247,21
404,70	1269,74
404,90	1306,60
405,11	1290,22
405,32	1269,74
405,52	1236,97
405,73	1232,88
405,94	1263,60
406,15	1239,02
406,35	1267,69
406,56	1269,74
406,77	1282,03
406,98	1351,66
407,18	1308,65
407,39	1273,84
407,60	1212,40
407,80	1331,18
408,01	1269,74
408,22	1294,32
408,43	1282,03
408,63	1271,79
408,84	1306,60
409,05	1251,31
409,25	1267,69
409,46	1316,84
409,67	1214,45
409,88	1271,79
410,08	1333,23
410,29	1298,41
410,50	1304,56
410,70	1216,49
410,91	1341,42
411,12	1277,93
411,32	1261,55
411,53	1206,25
411,74	1265,64
411,95	1230,83
412,15	1261,55
412,36	1214,45
412,57	1275,88
412,77	1320,94
412,98	1318,89
413,19	1265,64
413,39	1316,84
413,60	1306,60
413,81	1306,60
414,01	1286,12
414,22	1236,97
414,43	1296,36
414,63	1236,97
414,84	1157,10
415,05	1261,55
415,25	1282,03
415,46	1255,40
415,67	1296,36
415,87	1327,08
416,08	1193,97
416,29	1236,97
416,49	1288,17
416,70	1304,56
416,91	1333,23
417,11	1273,84
417,32	1282,03
417,53	1249,26
417,73	1267,69
417,94	1220,59
418,15	1306,60
418,35	1263,60
418,56	1269,74
418,77	1271,79
418,97	1304,56
419,18	1259,50
419,38	1306,60
419,59	1239,02
419,80	1267,69
420,00	1253,36
420,21	1335,28
420,42	1228,78
420,62	1325,04
420,83	1249,26
421,04	1259,50
421,24	1177,58
421,45	1275,88
421,65	1206,25
421,86	1294,32
422,07	1216,49
422,27	1228,78
422,48	1320,94
422,69	1249,26
422,89	1261,55
423,10	1241,07
423,30	1275,88
423,51	1241,07
423,72	1232,88
423,92	1222,64
424,13	1253,36
424,33	1249,26
424,54	1210,35
424,75	1212,40
424,95	1249,26
425,16	1208,30
425,36	1247,21
425,57	1257,45
425,78	1271,79
425,98	1265,64
426,19	1206,25
426,39	1335,28
426,60	1279,98
426,81	1253,36
427,01	1251,31
427,22	1222,64
427,42	1187,82
427,63	1378,28
427,83	1263,60
428,04	1267,69
428,25	1241,07
428,45	1282,03
428,66	1298,41
428,86	1234,93
429,07	1327,08
429,28	1243,12
429,48	1193,97
429,69	1259,50
429,89	1333,23
430,10	1140,72
430,30	1269,74
430,51	1286,12
430,71	1325,04
430,92	1339,37
431,13	1251,31
431,33	1337,32
431,54	1234,93
431,74	1212,40
431,95	1234,93
432,15	1308,65
432,36	1269,74
432,56	1232,88
432,77	1331,18
432,98	1193,97
433,18	1300,46
433,39	1273,84
433,59	1296,36
433,80	1226,73
434,00	1322,99
434,21	1322,99
434,41	1228,78
434,62	1257,45
434,82	1279,98
435,03	1312,75
435,23	1249,26
435,44	1304,56
435,64	1259,50
435,85	1339,37
436,06	1230,83
436,26	1232,88
436,47	1253,36
436,67	1261,55
436,88	1247,21
437,08	1257,45
437,29	1241,07
437,49	1187,82
437,70	1339,37
437,90	1292,27
438,11	1243,12
438,31	1273,84
438,52	1261,55
438,72	1224,69
438,93	1210,35
439,13	1257,45
439,34	1224,69
439,54	1232,88
439,75	1318,89
439,95	1292,27
440,16	1277,93
440,36	1306,60
440,57	1241,07
440,77	1249,26
440,98	1253,36
441,18	1267,69
441,39	1263,60
441,59	1349,61
441,80	1263,60
442,00	1191,92
442,21	1220,59
442,41	1298,41
442,62	1277,93
442,82	1212,40
443,02	1279,98
443,23	1273,84
443,43	1271,79
443,64	1236,97
443,84	1294,32
444,05	1302,51
444,25	1236,97
444,46	1298,41
444,66	1202,16
444,87	1198,06
445,07	1300,46
445,28	1255,40
445,48	1279,98
445,69	1220,59
445,89	1198,06
446,09	1290,22
446,30	1245,16
446,50	1257,45
446,71	1212,40
446,91	1273,84
447,12	1288,17
447,32	1273,84
447,53	1204,21
447,73	1296,36
447,93	1224,69
448,14	1304,56
448,34	1306,60
448,55	1273,84
448,75	1282,03
448,96	1220,59
449,16	1220,59
449,36	1277,93
449,57	1296,36
449,77	1320,94
449,98	1232,88
450,18	1298,41
450,39	1224,69
450,59	1255,40
450,79	1243,12
451,00	1296,36
451,20	1202,16
451,41	1292,27
451,61	1222,64
451,81	1241,07
452,02	1232,88
452,22	1165,29
452,43	1232,88
452,63	1277,93
452,84	1304,56
453,04	1296,36
453,24	1290,22
453,45	1183,73
453,65	1292,27
453,86	1302,51
454,06	1327,08
454,26	1236,97
454,47	1273,84
454,67	1261,55
454,87	1208,30
455,08	1265,64
455,28	1273,84
455,49	1267,69
455,69	1220,59
455,89	1236,97
456,10	1288,17
456,30	1245,16
456,51	1316,84
456,71	1261,55
456,91	1189,87
457,12	1179,63
457,32	1191,92
457,52	1296,36
457,73	1212,40
457,93	1208,30
458,14	1241,07
458,34	1304,56
458,54	1247,21
458,75	1312,75
458,95	1294,32
459,15	1159,15
459,36	1249,26
459,56	1206,25
459,76	1257,45
459,97	1253,36
460,17	1228,78
460,37	1253,36
460,58	1292,27
460,78	1232,88
460,99	1286,12
461,19	1222,64
461,39	1273,84
461,60	1245,16
461,80	1302,51
462,00	1216,49
462,21	1232,88
462,41	1222,64
462,61	1275,88
462,82	1232,88
463,02	1314,80
463,22	1282,03
463,43	1218,54
463,63	1282,03
463,83	1316,84
464,04	1214,45
464,24	1220,59
464,44	1271,79
464,64	1273,84
464,85	1290,22
465,05	1335,28
465,25	1247,21
465,46	1177,58
465,66	1271,79
465,86	1304,56
466,07	1275,88
466,27	1279,98
466,47	1300,46
466,68	1288,17
466,88	1335,28
467,08	1228,78
467,29	1255,40
467,49	1228,78
467,69	1273,84
467,89	1241,07
468,10	1325,04
468,30	1263,60
468,50	1304,56
468,71	1288,17
468,91	1212,40
469,11	1263,60
469,31	1282,03
469,52	1308,65
469,72	1222,64
469,92	1269,74
470,13	1288,17
470,33	1273,84
470,53	1232,88
470,73	1245,16
470,94	1312,75
471,14	1261,55
471,34	1312,75
471,54	1245,16
471,75	1236,97
471,95	1265,64
472,15	1322,99
472,36	1259,50
472,56	1327,08
472,76	1226,73
472,96	1273,84
473,17	1243,12
473,37	1325,04
473,57	1275,88
473,77	1300,46
473,98	1286,12
474,18	1173,49
474,38	1331,18
474,58	1261,55
474,79	1298,41
474,99	1306,60
475,19	1245,16
475,39	1286,12
475,60	1304,56
475,80	1243,12
476,00	1269,74
476,20	1216,49
476,41	1269,74
476,61	1204,21
476,81	1331,18
477,01	1175,53
477,21	1208,30
477,42	1284,08
477,62	1286,12
477,82	1196,01
478,02	1210,35
478,23	1284,08
478,43	1228,78
478,63	1232,88
478,83	1304,56
479,03	1222,64
479,24	1200,11
479,44	1271,79
479,64	1210,35
479,84	1208,30
480,04	1251,31
480,25	1245,16
480,45	1220,59
480,65	1277,93
480,85	1279,98
481,06	1279,98
481,26	1322,99
481,46	1279,98
481,66	1228,78
481,86	1316,84
482,06	1196,01
482,27	1284,08
482,47	1282,03
482,67	1208,30
482,87	1273,84
483,07	1286,12
483,28	1261,55
483,48	1239,02
483,68	1249,26
483,88	1249,26
484,08	1241,07
484,29	1236,97
484,49	1296,36
484,69	1259,50
484,89	1292,27
485,09	1255,40
485,29	1257,45
485,50	1302,51
485,70	1220,59
485,90	1259,50
486,10	1247,21
486,30	1257,45
486,50	1290,22
486,71	1224,69
486,91	1257,45
487,11	1269,74
487,31	1185,77
487,51	1269,74
487,71	1253,36
487,91	1271,79
488,12	1257,45
488,32	1304,56
488,52	1286,12
488,72	1273,84
488,92	1271,79
489,12	1243,12
489,32	1232,88
489,53	1337,32
489,73	1302,51
489,93	1263,60
490,13	1214,45
490,33	1292,27
490,53	1271,79
490,73	1318,89
490,94	1306,60
491,14	1325,04
491,34	1249,26
491,54	1304,56
491,74	1290,22
491,94	1327,08
492,14	1284,08
492,34	1200,11
492,54	1263,60
492,75	1374,19
492,95	1277,93
493,15	1292,27
493,35	1327,08
493,55	1249,26
493,75	1282,03
493,95	1318,89
494,15	1316,84
494,35	1282,03
494,56	1314,80
494,76	1298,41
494,96	1271,79
495,16	1329,13
495,36	1198,06
495,56	1335,28
495,76	1353,71
495,96	1282,03
496,16	1286,12
496,36	1288,17
496,56	1265,64
496,77	1183,73
496,97	1267,69
497,17	1314,80
497,37	1224,69
497,57	1282,03
497,77	1226,73
497,97	1247,21
498,17	1200,11
498,37	1339,37
498,57	1212,40
498,77	1312,75
498,97	1314,80
499,17	1286,12
499,38	1259,50
499,58	1284,08
499,78	1290,22
499,98	1275,88
500,18	1300,46
500,38	1275,88
500,58	1247,21
500,78	1290,22
500,98	1279,98
501,18	1257,45
501,38	1249,26
501,58	1292,27
501,78	1257,45
501,98	1232,88
502,18	1306,60
502,38	1245,16
502,58	1257,45
502,78	1241,07
502,98	1218,54
503,18	1257,45
503,38	1259,50
503,59	1265,64
503,79	1234,93
503,99	1304,56
504,19	1224,69
504,39	1298,41
504,59	1218,54
504,79	1288,17
504,99	1300,46
505,19	1335,28
505,39	1212,40
505,59	1279,98
505,79	1232,88
505,99	1275,88
506,19	1279,98
506,39	1179,63
506,59	1259,50
506,79	1277,93
506,99	1232,88
507,19	1318,89
507,39	1232,88
507,59	1251,31
507,79	1247,21
507,99	1269,74
508,19	1316,84
508,39	1251,31
508,59	1214,45
508,79	1216,49
508,99	1269,74
509,19	1296,36
509,39	1245,16
509,59	1269,74
509,79	1251,31
509,99	1320,94
510,19	1226,73
510,39	1292,27
510,59	1224,69
510,79	1275,88
510,99	1247,21
511,19	1222,64
511,39	1245,16
511,59	1286,12
511,79	1316,84
511,99	1198,06
512,19	1265,64
512,38	1320,94
512,58	1222,64
512,78	1339,37
512,98	1214,45
513,18	1243,12
513,38	1257,45
513,58	1325,04
513,78	1169,39
513,98	1247,21
514,18	1216,49
514,38	1232,88
514,58	1249,26
514,78	1243,12
514,98	1286,12
515,18	1251,31
515,38	1247,21
515,58	1279,98
515,78	1247,21
515,98	1247,21
516,18	1241,07
516,38	1165,29
516,57	1212,40
516,77	1253,36
516,97	1300,46
517,17	1230,83
517,37	1271,79
517,57	1202,16
517,77	1234,93
517,97	1288,17
518,17	1251,31
518,37	1279,98
518,57	1269,74
518,77	1257,45
518,97	1226,73
519,16	1257,45
519,36	1277,93
519,56	1302,51
519,76	1171,44
519,96	1179,63
520,16	1214,45
520,36	1243,12
520,56	1267,69
520,76	1253,36
520,96	1232,88
521,16	1294,32
521,35	1255,40
521,55	1187,82
521,75	1210,35
521,95	1234,93
522,15	1216,49
522,35	1306,60
522,55	1239,02
522,75	1187,82
522,95	1239,02
523,14	1189,87
523,34	1286,12
523,54	1232,88
523,74	1239,02
523,94	1202,16
524,14	1232,88
524,34	1294,32
524,54	1316,84
524,73	1259,50
524,93	1296,36
525,13	1232,88
525,33	1292,27
525,53	1286,12
525,73	1273,84
525,93	1290,22
526,13	1269,74
526,32	1251,31
526,52	1331,18
526,72	1196,01
526,92	1249,26
527,12	1251,31
527,32	1169,39
527,52	1257,45
527,71	1236,97
527,91	1337,32
528,11	1290,22
528,31	1232,88
528,51	1247,21
528,71	1271,79
528,90	1255,40
529,10	1322,99
529,30	1341,42
529,50	1247,21
529,70	1286,12
529,90	1226,73
530,09	1290,22
530,29	1200,11
530,49	1288,17
530,69	1331,18
530,89	1275,88
531,09	1310,70
531,28	1267,69
531,48	1320,94
531,68	1279,98
531,88	1230,83
532,08	1263,60
532,28	1257,45
532,47	1292,27
532,67	1224,69
532,87	1255,40
533,07	1220,59
533,27	1282,03
533,46	1265,64
533,66	1251,31
533,86	1306,60
534,06	1243,12
534,26	1327,08
534,45	1282,03
534,65	1290,22
534,85	1239,02
535,05	1204,21
535,25	1245,16
535,44	1304,56
535,64	1288,17
535,84	1312,75
536,04	1269,74
536,24	1267,69
536,43	1226,73
536,63	1300,46
536,83	1265,64
537,03	1314,80
537,22	1214,45
537,42	1288,17
537,62	1269,74
537,82	1257,45
538,02	1263,60
538,21	1249,26
538,41	1316,84
538,61	1273,84
538,81	1279,98
539,00	1265,64
539,20	1230,83
539,40	1216,49
539,60	1284,08
539,79	1259,50
539,99	1251,31
540,19	1322,99
540,39	1226,73
540,58	1277,93
540,78	1286,12
540,98	1239,02
541,18	1288,17
541,37	1310,70
541,57	1288,17
541,77	1312,75
541,97	1327,08
542,16	1271,79
542,36	1247,21
542,56	1259,50
542,76	1249,26
542,95	1277,93
543,15	1226,73
543,35	1261,55
543,54	1257,45
543,74	1271,79
543,94	1312,75
544,14	1202,16
544,33	1269,74
544,53	1218,54
544,73	1236,97
544,93	1271,79
545,12	1265,64
545,32	1200,11
545,52	1265,64
545,71	1282,03
545,91	1273,84
546,11	1212,40
546,30	1271,79
546,50	1245,16
546,70	1236,97
546,90	1263,60
547,09	1286,12
547,29	1208,30
547,49	1269,74
547,68	1267,69
547,88	1236,97
548,08	1259,50
548,27	1251,31
548,47	1255,40
548,67	1288,17
548,87	1325,04
549,06	1263,60
549,26	1329,13
549,46	1304,56
549,65	1224,69
549,85	1187,82
550,05	1265,64
550,24	1325,04
550,44	1345,52
550,64	1322,99
550,83	1320,94
551,03	1279,98
551,23	1255,40
551,42	1265,64
551,62	1331,18
551,82	1294,32
552,01	1275,88
552,21	1167,34
552,41	1286,12
552,60	1300,46
552,80	1298,41
553,00	1239,02
553,19	1247,21
553,39	1306,60
553,59	1241,07
553,78	1304,56
553,98	1284,08
554,17	1236,97
554,37	1298,41
554,57	1331,18
554,76	1304,56
554,96	1202,16
555,16	1363,95
555,35	1241,07
555,55	1236,97
555,75	1292,27
555,94	1273,84
556,14	1329,13
556,33	1288,17
556,53	1314,80
556,73	1298,41
556,92	1316,84
557,12	1286,12
557,32	1310,70
557,51	1241,07
557,71	1265,64
557,90	1255,40
558,10	1294,32
558,30	1241,07
558,49	1239,02
558,69	1216,49
558,88	1298,41
559,08	1222,64
559,28	1271,79
559,47	1249,26
559,67	1249,26
559,86	1255,40
560,06	1286,12
560,26	1304,56
560,45	1255,40
560,65	1239,02
560,84	1267,69
561,04	1241,07
561,24	1290,22
561,43	1271,79
561,63	1208,30
561,82	1312,75
562,02	1325,04
562,22	1200,11
562,41	1290,22
562,61	1351,66
562,80	1249,26
563,00	1245,16
563,19	1204,21
563,39	1243,12
563,59	1300,46
563,78	1241,07
563,98	1259,50
564,17	1228,78
564,37	1247,21
564,56	1239,02
564,76	1206,25
564,96	1247,21
565,15	1241,07
565,35	1298,41
565,54	1275,88
565,74	1279,98
565,93	1228,78
566,13	1198,06
566,32	1275,88
566,52	1234,93
566,71	1236,97
566,91	1263,60
567,11	1265,64
567,30	1312,75
567,50	1279,98
567,69	1208,30
567,89	1257,45
568,08	1273,84
568,28	1257,45
568,47	1294,32
568,67	1302,51
568,86	1216,49
569,06	1187,82
569,25	1228,78
569,45	1302,51
569,64	1243,12
569,84	1202,16
570,04	1232,88
570,23	1230,83
570,43	1279,98
570,62	1202,16
570,82	1261,55
571,01	1286,12
571,21	1273,84
571,40	1288,17
571,60	1345,52
571,79	1282,03
571,99	1327,08
572,18	1267,69
572,38	1322,99
572,57	1251,31
572,77	1187,82
572,96	1318,89
573,16	1320,94
573,35	1304,56
573,55	1243,12
573,74	1232,88
573,94	1239,02
574,13	1273,84
574,33	1247,21
574,52	1208,30
574,71	1325,04
574,91	1384,43
575,10	1279,98
575,30	1308,65
575,49	1273,84
575,69	1212,40
575,88	1257,45
576,08	1300,46
576,27	1271,79
576,47	1200,11
576,66	1243,12
576,86	1239,02
577,05	1288,17
577,25	1273,84
577,44	1298,41
577,64	1245,16
577,83	1210,35
578,02	1327,08
578,22	1282,03
578,41	1298,41
578,61	1335,28
578,80	1294,32
579,00	1249,26
579,19	1247,21
579,39	1294,32
579,58	1279,98
579,77	1288,17
579,97	1273,84
580,16	1261,55
580,36	1234,93
580,55	1310,70
580,75	1210,35
580,94	1175,53
581,13	1243,12
581,33	1290,22
581,52	1232,88
581,72	1273,84
581,91	1306,60
582,11	1224,69
582,30	1226,73
582,49	1208,30
582,69	1279,98
582,88	1267,69
583,08	1304,56
583,27	1271,79
583,47	1179,63
583,66	1257,45
583,85	1314,80
584,05	1263,60
584,24	1239,02
584,44	1277,93
584,63	1286,12
584,82	1265,64
585,02	1175,53
585,21	1247,21
585,41	1243,12
585,60	1275,88
585,79	1249,26
585,99	1353,71
586,18	1304,56
586,37	1218,54
586,57	1255,40
586,76	1204,21
586,96	1224,69
587,15	1304,56
587,34	1322,99
587,54	1263,60
587,73	1257,45
587,93	1290,22
588,12	1269,74
588,31	1316,84
588,51	1269,74
588,70	1220,59
588,89	1292,27
589,09	1159,15
589,28	1286,12
589,47	1243,12
589,67	1277,93
589,86	1228,78
590,06	1249,26
590,25	1277,93
590,44	1204,21
590,64	1257,45
590,83	1226,73
591,02	1378,28
591,22	1228,78
591,41	1331,18
591,60	1275,88
591,80	1255,40
591,99	1216,49
592,18	1191,92
592,38	1202,16
592,57	1224,69
592,76	1241,07
592,96	1304,56
593,15	1253,36
593,34	1245,16
593,54	1206,25
593,73	1349,61
593,92	1263,60
594,12	1339,37
594,31	1292,27
594,50	1222,64
594,70	1271,79
594,89	1279,98
595,08	1271,79
595,28	1245,16
595,47	1257,45
595,66	1300,46
595,86	1277,93
596,05	1302,51
596,24	1259,50
596,43	1318,89
596,63	1206,25
596,82	1271,79
597,01	1351,66
597,21	1298,41
597,40	1310,70
597,59	1247,21
597,79	1279,98
597,98	1232,88
598,17	1249,26
598,36	1251,31
598,56	1294,32
598,75	1257,45
598,94	1284,08
599,14	1247,21
599,33	1279,98
599,52	1288,17
599,71	1206,25
599,91	1257,45
600,10	1355,76
600,29	1191,92
600,48	1267,69
600,68	1327,08
600,87	1337,32
601,06	1230,83
601,26	1253,36
601,45	1312,75
601,64	1331,18
601,83	1234,93
602,03	1363,95
602,22	1267,69
602,41	1325,04
602,60	1304,56
602,80	1251,31
602,99	1236,97
603,18	1257,45
603,37	1298,41
603,57	1310,70
603,76	1273,84
603,95	1282,03
604,14	1304,56
604,34	1335,28
604,53	1298,41
604,72	1206,25
604,91	1257,45
605,10	1304,56
605,30	1282,03
605,49	1267,69
605,68	1216,49
605,87	1247,21
606,07	1224,69
606,26	1304,56
606,45	1261,55
606,64	1255,40
606,84	1271,79
607,03	1269,74
607,22	1220,59
607,41	1261,55
607,60	1210,35
607,80	1294,32
607,99	1193,97
608,18	1230,83
608,37	1277,93
608,56	1239,02
608,76	1228,78
608,95	1277,93
609,14	1271,79
609,33	1251,31
609,52	1361,90
609,72	1314,80
609,91	1279,98
610,10	1273,84
610,29	1359,85
610,48	1185,77
610,68	1253,36
610,87	1239,02
611,06	1271,79
611,25	1261,55
611,44	1296,36
611,63	1273,84
611,83	1300,46
612,02	1243,12
612,21	1304,56
612,40	1331,18
612,59	1288,17
612,79	1300,46
612,98	1241,07
613,17	1353,71
613,36	1181,68
613,55	1318,89
613,74	1286,12
613,93	1312,75
614,13	1232,88
614,32	1265,64
614,51	1257,45
614,70	1257,45
614,89	1282,03
615,08	1216,49
615,28	1357,80
615,47	1284,08
615,66	1312,75
615,85	1308,65
616,04	1230,83
616,23	1255,40
616,42	1290,22
616,62	1300,46
616,81	1277,93
617,00	1257,45
617,19	1263,60
617,38	1208,30
617,57	1222,64
617,76	1275,88
617,95	1234,93
618,15	1292,27
618,34	1261,55
618,53	1298,41
618,72	1241,07
618,91	1206,25
619,10	1288,17
619,29	1277,93
619,48	1298,41
619,68	1259,50
619,87	1261,55
620,06	1200,11
620,25	1200,11
620,44	1226,73
620,63	1282,03
620,82	1247,21
621,01	1329,13
621,20	1271,79
621,39	1208,30
621,59	1269,74
621,78	1310,70
621,97	1247,21
622,16	1257,45
622,35	1310,70
622,54	1286,12
622,73	1251,31
622,92	1312,75
623,11	1294,32
623,30	1314,80
623,49	1290,22
623,68	1290,22
623,88	1267,69
624,07	1290,22
624,26	1245,16
624,45	1349,61
624,64	1296,36
624,83	1292,27
625,02	1243,12
625,21	1232,88
625,40	1355,76
625,59	1245,16
625,78	1384,43
625,97	1300,46
626,16	1302,51
626,35	1251,31
626,54	1261,55
626,74	1339,37
626,93	1261,55
627,12	1228,78
627,31	1294,32
627,50	1269,74
627,69	1259,50
627,88	1251,31
628,07	1275,88
628,26	1296,36
628,45	1306,60
628,64	1322,99
628,83	1255,40
629,02	1302,51
629,21	1277,93
629,40	1302,51
629,59	1239,02
629,78	1300,46
629,97	1273,84
630,16	1325,04
630,35	1273,84
630,54	1370,09
630,73	1292,27
630,92	1331,18
631,11	1251,31
631,30	1312,75
631,49	1236,97
631,68	1300,46
631,87	1353,71
632,06	1437,67
632,25	1359,85
632,44	1466,35
632,63	1433,58
632,82	1480,68
633,01	1429,48
633,20	1435,63
633,39	1374,19
633,58	1419,24
633,77	1454,06
633,96	1509,35
634,15	1519,59
634,34	1753,06
634,53	2129,89
634,72	1671,14
634,91	1454,06
635,10	1435,63
635,29	1869,80
635,48	2170,85
635,67	2234,33
635,86	2084,83
636,05	1812,45
636,24	1591,27
636,43	1488,87
636,62	1417,19
636,81	1374,19
637,00	1398,76
637,19	1343,47
637,38	1345,52
637,57	1347,56
637,76	1306,60
637,95	1257,45
638,14	1345,52
638,33	1271,79
638,52	1310,70
638,71	1294,32
638,89	1331,18
639,08	1325,04
639,27	1347,56
639,46	1236,97
639,65	1210,35
639,84	1243,12
640,03	1212,40
640,22	1306,60
640,41	1218,54
640,60	1290,22
640,79	1322,99
640,98	1284,08
641,17	1239,02
641,36	1318,89
641,55	1249,26
641,74	1253,36
641,92	1269,74
642,11	1255,40
642,30	1284,08
642,49	1304,56
642,68	1341,42
642,87	1253,36
643,06	1269,74
643,25	1224,69
643,44	1222,64
643,63	1282,03
643,82	1265,64
644,00	1273,84
644,19	1331,18
644,38	1224,69
644,57	1325,04
644,76	1265,64
644,95	1261,55
645,14	1220,59
645,33	1259,50
645,52	1302,51
645,71	1290,22
645,89	1277,93
646,08	1341,42
646,27	1277,93
646,46	1228,78
646,65	1255,40
646,84	1294,32
647,03	1312,75
647,22	1273,84
647,40	1255,40
647,59	1279,98
647,78	1245,16
647,97	1261,55
648,16	1206,25
648,35	1294,32
648,54	1271,79
648,73	1200,11
648,91	1216,49
649,10	1298,41
649,29	1232,88
649,48	1282,03
649,67	1316,84
649,86	1267,69
650,05	1245,16
650,23	1284,08
650,42	1224,69
650,61	1230,83
650,80	1214,45
650,99	1296,36
651,18	1271,79
651,36	1208,30
651,55	1284,08
651,74	1189,87
651,93	1261,55
652,12	1279,98
652,31	1255,40
652,49	1284,08
652,68	1308,65
652,87	1208,30
653,06	1257,45
653,25	1351,66
653,44	1214,45
653,62	1327,08
653,81	1263,60
654,00	1216,49
654,19	1185,77
654,38	1292,27
654,56	1247,21
654,75	1331,18
654,94	1288,17
655,13	1325,04
655,32	1251,31
655,51	1206,25
655,69	1249,26
655,88	1234,93
656,07	1279,98
656,26	1337,32
656,45	1239,02
656,63	1239,02
656,82	1296,36
657,01	1277,93
657,20	1265,64
657,38	1261,55
657,57	1245,16
657,76	1204,21
657,95	1288,17
658,14	1271,79
658,32	1290,22
658,51	1259,50
658,70	1314,80
658,89	1230,83
659,08	1245,16
659,26	1226,73
659,45	1255,40
659,64	1273,84
659,83	1220,59
660,01	1290,22
660,20	1245,16
660,39	1228,78
660,58	1239,02
660,76	1288,17
660,95	1257,45
661,14	1265,64
661,33	1271,79
661,51	1243,12
661,70	1298,41
661,89	1273,84
662,08	1230,83
662,26	1392,62
662,45	1210,35
662,64	1208,30
662,83	1204,21
663,01	1236,97
663,20	1279,98
663,39	1251,31
663,58	1253,36
663,76	1265,64
663,95	1253,36
664,14	1271,79
664,32	1198,06
664,51	1212,40
664,70	1279,98
664,89	1265,64
665,07	1269,74
665,26	1216,49
665,45	1304,56
665,64	1306,60
665,82	1251,31
666,01	1284,08
666,20	1255,40
666,38	1294,32
666,57	1275,88
666,76	1286,12
666,95	1306,60
667,13	1239,02
667,32	1290,22
667,51	1249,26
667,69	1253,36
667,88	1273,84
668,07	1300,46
668,25	1224,69
668,44	1263,60
668,63	1206,25
668,81	1243,12
669,00	1304,56
669,19	1265,64
669,38	1198,06
669,56	1318,89
669,75	1298,41
669,94	1222,64
670,12	1245,16
670,31	1304,56
670,50	1298,41
670,68	1255,40
670,87	1265,64
671,06	1239,02
671,24	1257,45
671,43	1247,21
671,62	1325,04
671,80	1298,41
671,99	1288,17
672,18	1269,74
672,36	1273,84
672,55	1259,50
672,74	1234,93
672,92	1245,16
673,11	1292,27
673,29	1232,88
673,48	1312,75
673,67	1245,16
673,85	1296,36
674,04	1322,99
674,23	1298,41
674,41	1232,88
674,60	1279,98
674,79	1271,79
674,97	1273,84
675,16	1288,17
675,34	1269,74
675,53	1333,23
675,72	1292,27
675,90	1206,25
676,09	1329,13
676,28	1308,65
676,46	1251,31
676,65	1292,27
676,83	1251,31
677,02	1173,49
677,21	1204,21
677,39	1302,51
677,58	1259,50
677,77	1265,64
677,95	1306,60
678,14	1275,88
678,32	1331,18
678,51	1292,27
678,70	1300,46
678,88	1247,21
679,07	1220,59
679,25	1322,99
679,44	1259,50
679,63	1318,89
679,81	1259,50
680,00	1249,26
680,18	1304,56
680,37	1247,21
680,55	1316,84
680,74	1306,60
680,93	1263,60
681,11	1224,69
681,30	1255,40
681,48	1335,28
681,67	1290,22
681,85	1318,89
682,04	1232,88
682,23	1275,88
682,41	1294,32
682,60	1265,64
682,78	1327,08
682,97	1241,07
683,15	1302,51
683,34	1269,74
683,53	1345,52
683,71	1277,93
683,90	1249,26
684,08	1224,69
684,27	1282,03
684,45	1261,55
684,64	1312,75
684,82	1208,30
685,01	1269,74
685,19	1298,41
685,38	1259,50
685,57	1298,41
685,75	1273,84
685,94	1257,45
686,12	1265,64
686,31	1247,21
686,49	1202,16
686,68	1224,69
686,86	1271,79
687,05	1243,12
687,23	1275,88
687,42	1222,64
687,60	1284,08
687,79	1251,31
687,97	1247,21
688,16	1234,93
688,34	1286,12
688,53	1296,36
688,71	1218,54
688,90	1259,50
689,08	1239,02
689,27	1265,64
689,45	1273,84
689,64	1292,27
689,82	1265,64
690,01	1269,74
690,19	1306,60
690,38	1210,35
690,56	1310,70
690,75	1355,76
690,93	1306,60
691,12	1277,93
691,30	1265,64
691,49	1325,04
691,67	1232,88
691,86	1316,84
692,04	1269,74
692,23	1249,26
692,41	1259,50
692,60	1224,69
692,78	1253,36
692,97	1298,41
693,15	1318,89
693,34	1273,84
693,52	1349,61
693,71	1218,54
693,89	1251,31
694,08	1251,31
694,26	1267,69
694,44	1310,70
694,63	1222,64
694,81	1277,93
695,00	1230,83
695,18	1294,32
695,37	1294,32
695,55	1271,79
695,74	1308,65
695,92	1245,16
696,10	1214,45
696,29	1249,26
696,47	1198,06
696,66	1257,45
696,84	1259,50
697,03	1245,16
697,21	1243,12
697,40	1288,17
697,58	1171,44
697,76	1200,11
697,95	1282,03
698,13	1304,56
698,32	1314,80
698,50	1263,60
698,68	1269,74
698,87	1284,08
699,05	1251,31
699,24	1320,94
699,42	1275,88
699,61	1290,22
699,79	1222,64
699,97	1320,94
700,16	1247,21
700,34	1255,40
700,53	1269,74
700,71	1208,30
700,89	1265,64
701,08	1218,54
701,26	1253,36
701,45	1247,21
701,63	1265,64
701,81	1236,97
702,00	1257,45
702,18	1290,22
702,37	1232,88
702,55	1284,08
702,73	1271,79
702,92	1284,08
703,10	1200,11
703,28	1241,07
703,47	1204,21
703,65	1269,74
703,84	1314,80
704,02	1224,69
704,20	1232,88
704,39	1302,51
704,57	1284,08
704,75	1241,07
704,94	1312,75
705,12	1292,27
705,30	1306,60
705,49	1277,93
705,67	1263,60
705,86	1208,30
706,04	1288,17
706,22	1290,22
706,41	1257,45
706,59	1308,65
706,77	1243,12
706,96	1308,65
707,14	1292,27
707,32	1304,56
707,51	1243,12
707,69	1232,88
707,87	1275,88
708,06	1234,93
708,24	1298,41
708,42	1343,47
708,61	1290,22
708,79	1296,36
708,97	1327,08
709,16	1226,73
709,34	1294,32
709,52	1296,36
709,71	1239,02
709,89	1302,51
710,07	1265,64
710,26	1255,40
710,44	1337,32
710,62	1255,40
710,80	1343,47
710,99	1243,12
711,17	1273,84
711,35	1243,12
711,54	1310,70
711,72	1279,98
711,90	1263,60
712,09	1224,69
712,27	1320,94
712,45	1296,36
712,63	1251,31
712,82	1228,78
713,00	1290,22
713,18	1294,32
713,37	1206,25
713,55	1214,45
713,73	1230,83
713,91	1247,21
714,10	1300,46
714,28	1181,68
714,46	1271,79
714,65	1310,70
714,83	1298,41
715,01	1239,02
715,19	1259,50
715,38	1179,63
715,56	1247,21
715,74	1267,69
715,92	1374,19
716,11	1255,40
716,29	1226,73
716,47	1257,45
716,65	1322,99
716,84	1257,45
717,02	1200,11
717,20	1267,69
717,38	1249,26
717,57	1267,69
717,75	1273,84
717,93	1327,08
718,11	1214,45
718,30	1243,12
718,48	1322,99
718,66	1312,75
718,84	1257,45
719,03	1302,51
719,21	1257,45
719,39	1296,36
719,57	1284,08
719,75	1253,36
719,94	1218,54
720,12	1304,56
720,30	1288,17
720,48	1228,78
720,67	1294,32
720,85	1310,70
721,03	1220,59
721,21	1302,51
721,39	1230,83
721,58	1230,83
721,76	1288,17
721,94	1306,60
722,12	1335,28
722,30	1331,18
722,49	1241,07
722,67	1261,55
722,85	1255,40
723,03	1271,79
723,21	1187,82
723,40	1247,21
723,58	1298,41
723,76	1267,69
723,94	1271,79
724,12	1296,36
724,30	1298,41
724,49	1216,49
724,67	1224,69
724,85	1257,45
725,03	1239,02
725,21	1269,74
725,40	1325,04
725,58	1239,02
725,76	1269,74
725,94	1253,36
726,12	1304,56
726,30	1224,69
726,49	1249,26
726,67	1294,32
726,85	1232,88
727,03	1224,69
727,21	1234,93
727,39	1241,07
727,57	1269,74
727,76	1130,48
727,94	1314,80
728,12	1216,49
728,30	1279,98
728,48	1165,29
728,66	1216,49
728,84	1163,25
729,03	1224,69
729,21	1216,49
729,39	1273,84
729,57	1257,45
729,75	1247,21
729,93	1249,26
730,11	1318,89
730,30	1232,88
730,48	1247,21
730,66	1335,28
730,84	1310,70
731,02	1222,64
731,20	1296,36
731,38	1236,97
731,56	1224,69
731,74	1271,79
731,93	1239,02
732,11	1210,35
732,29	1220,59
732,47	1224,69
732,65	1277,93
732,83	1302,51
733,01	1300,46
733,19	1230,83
733,37	1218,54
733,56	1271,79
733,74	1245,16
733,92	1226,73
734,10	1236,97
734,28	1241,07
734,46	1286,12
734,64	1304,56
734,82	1292,27
735,00	1228,78
735,18	1261,55
735,36	1282,03
735,54	1249,26
735,73	1236,97
735,91	1253,36
736,09	1294,32
736,27	1247,21
736,45	1239,02
736,63	1241,07
736,81	1265,64
736,99	1302,51
737,17	1253,36
737,35	1269,74
737,53	1343,47
737,71	1230,83
737,89	1218,54
738,07	1247,21
738,25	1249,26
738,43	1261,55
738,61	1230,83
738,80	1212,40
738,98	1206,25
739,16	1312,75
739,34	1234,93
739,52	1282,03
739,70	1273,84
739,88	1253,36
740,06	1243,12
740,24	1220,59
740,42	1181,68
740,60	1271,79
740,78	1277,93
740,96	1259,50
741,14	1273,84
741,32	1310,70
741,50	1286,12
741,68	1302,51
741,86	1171,44
742,04	1239,02
742,22	1202,16
742,40	1298,41
742,58	1275,88
742,76	1234,93
742,94	1322,99
743,12	1216,49
743,30	1257,45
743,48	1279,98
743,66	1236,97
743,84	1279,98
744,02	1232,88
744,20	1331,18
744,38	1273,84
744,56	1202,16
744,74	1318,89
744,92	1245,16
745,10	1206,25
745,28	1261,55
745,46	1232,88
745,64	1224,69
745,82	1214,45
746,00	1275,88
746,18	1286,12
746,36	1187,82
746,54	1306,60
746,72	1265,64
746,90	1249,26
747,08	1253,36
747,26	1284,08
747,44	1292,27
747,62	1230,83
747,80	1288,17
747,98	1357,80
748,15	1310,70
748,33	1230,83
748,51	1329,13
748,69	1265,64
748,87	1249,26
749,05	1343,47
749,23	1304,56
749,41	1310,70
749,59	1269,74
749,77	1267,69
749,95	1331,18
750,13	1210,35
750,31	1273,84
750,49	1247,21
750,67	1300,46
750,85	1339,37
751,03	1304,56
751,20	1249,26
751,38	1245,16
751,56	1284,08
751,74	1277,93
751,92	1267,69
752,10	1232,88
752,28	1288,17
752,46	1259,50
752,64	1236,97
752,82	1325,04
753,00	1228,78
753,18	1296,36
753,35	1210,35
753,53	1343,47
753,71	1259,50
753,89	1198,06
754,07	1204,21
754,25	1175,53
754,43	1259,50
754,61	1263,60
754,79	1271,79
754,97	1279,98
755,14	1257,45
755,32	1308,65
755,50	1282,03
755,68	1302,51
755,86	1271,79
756,04	1214,45
756,22	1232,88
756,40	1290,22
756,57	1288,17
756,75	1169,39
756,93	1171,44
757,11	1300,46
757,29	1263,60
757,47	1259,50
757,65	1247,21
757,82	1284,08
758,00	1224,69
758,18	1224,69
758,36	1228,78
758,54	1273,84
758,72	1251,31
758,90	1216,49
759,07	1239,02
759,25	1294,32
759,43	1259,50
759,61	1282,03
759,79	1273,84
759,97	1273,84
760,15	1216,49
760,32	1290,22
760,50	1239,02
760,68	1292,27
760,86	1374,19
761,04	1265,64
761,22	1226,73
761,39	1232,88
761,57	1265,64
761,75	1269,74
761,93	1259,50
762,11	1243,12
762,28	1245,16
762,46	1269,74
762,64	1296,36
762,82	1267,69
763,00	1255,40
763,18	1282,03
763,35	1318,89
763,53	1288,17
763,71	1257,45
763,89	1290,22
764,07	1279,98
764,24	1196,01
764,42	1257,45
764,60	1265,64
764,78	1320,94
764,96	1265,64
765,13	1271,79
765,31	1220,59
765,49	1236,97
765,67	1341,42
765,84	1245,16
766,02	1267,69
766,20	1241,07
766,38	1316,84
766,56	1263,60
766,73	1286,12
766,91	1247,21
767,09	1290,22
767,27	1304,56
767,44	1298,41
767,62	1320,94
767,80	1249,26
767,98	1251,31
768,15	1296,36
768,33	1292,27
768,51	1226,73
768,69	1245,16
768,87	1228,78
769,04	1275,88
769,22	1320,94
769,40	1269,74
769,58	1294,32
769,75	1251,31
769,93	1243,12
770,11	1292,27
770,28	1255,40
770,46	1288,17
770,64	1259,50
770,82	1279,98
770,99	1245,16
771,17	1269,74
771,35	1316,84
771,53	1286,12
771,70	1253,36
771,88	1255,40
772,06	1331,18
772,23	1322,99
772,41	1279,98
772,59	1275,88
772,77	1255,40
772,94	1243,12
773,12	1220,59
773,30	1243,12
773,47	1263,60
773,65	1216,49
773,83	1236,97
774,01	1296,36
774,18	1200,11
774,36	1302,51
774,54	1269,74
774,71	1239,02
774,89	1284,08
775,07	1224,69
775,24	1263,60
775,42	1228,78
775,60	1212,40
775,78	1247,21
775,95	1241,07
776,13	1259,50
776,31	1234,93
776,48	1243,12
776,66	1320,94
776,84	1290,22
777,01	1312,75
777,19	1273,84
777,37	1230,83
777,54	1265,64
777,72	1347,56
777,90	1255,40
778,07	1263,60
778,25	1253,36
778,43	1191,92
778,60	1312,75
778,78	1306,60
778,96	1279,98
779,13	1302,51
779,31	1222,64
779,49	1269,74
779,66	1232,88
779,84	1345,52
780,01	1245,16
780,19	1302,51
780,37	1253,36
780,54	1343,47
780,72	1273,84
780,90	1279,98
781,07	1282,03
781,25	1310,70
781,43	1224,69
781,60	1140,72
781,78	1208,30
781,95	1259,50
782,13	1265,64
782,31	1249,26
782,48	1206,25
782,66	1208,30
782,83	1306,60
783,01	1241,07
783,19	1257,45
783,36	1304,56
783,54	1304,56
783,72	1183,73
783,89	1200,11
784,07	1277,93
784,24	1232,88
784,42	1210,35
784,60	1341,42
784,77	1255,40
784,95	1249,26
785,12	1292,27
785,30	1310,70
785,47	1251,31
785,65	1306,60
785,83	1267,69
786,00	1292,27
786,18	1273,84
786,35	1257,45
786,53	1265,64
786,71	1255,40
786,88	1236,97
787,06	1253,36
787,23	1265,64
787,41	1234,93
787,58	1245,16
787,76	1339,37
787,94	1282,03
788,11	1245,16
788,29	1284,08
788,46	1284,08
788,64	1255,40
788,81	1239,02
788,99	1269,74
789,16	1347,56
789,34	1216,49
789,52	1247,21
789,69	1196,01
789,87	1243,12
790,04	1251,31
790,22	1200,11
790,39	1273,84
790,57	1208,30
790,74	1353,71
790,92	1300,46
791,09	1327,08
791,27	1300,46
791,44	1263,60
791,62	1286,12
791,79	1273,84
791,97	1253,36
792,15	1314,80
792,32	1284,08
792,50	1249,26
792,67	1378,28
792,85	1216,49
793,02	1206,25
793,20	1222,64
793,37	1239,02
793,55	1245,16
793,72	1314,80
793,90	1232,88
794,07	1269,74
794,25	1296,36
794,42	1294,32
794,60	1253,36
794,77	1300,46
794,95	1294,32
795,12	1261,55
795,30	1259,50
795,47	1226,73
795,65	1310,70
795,82	1193,97
796,00	1224,69
796,17	1306,60
796,34	1273,84
796,52	1312,75
796,69	1314,80
796,87	1230,83
797,04	1308,65
797,22	1282,03
797,39	1290,22
797,57	1333,23
797,74	1212,40
797,92	1312,75
798,09	1247,21
798,27	1255,40
798,44	1243,12
798,62	1257,45
798,79	1230,83
798,96	1302,51
799,14	1249,26
799,31	1265,64
799,49	1335,28
799,66	1249,26
799,84	1249,26
800,01	1288,17
800,19	1249,26
800,36	1284,08
800,53	1228,78
800,71	1282,03
800,88	1292,27
801,06	1294,32
801,23	1339,37
801,41	1257,45
801,58	1292,27
801,75	1210,35
801,93	1284,08
802,10	1257,45
802,28	1339,37
802,45	1316,84
802,63	1273,84
802,80	1214,45
802,97	1269,74
803,15	1228,78
803,32	1312,75
803,50	1306,60
803,67	1277,93
803,84	1222,64
804,02	1241,07
804,19	1236,97
804,37	1241,07
804,54	1271,79
804,71	1282,03
804,89	1267,69
805,06	1239,02
805,24	1226,73
805,41	1277,93
805,58	1234,93
805,76	1286,12
805,93	1232,88
806,10	1228,78
806,28	1249,26
806,45	1322,99
806,63	1169,39
806,80	1222,64
806,97	1198,06
807,15	1214,45
807,32	1224,69
807,49	1288,17
807,67	1288,17
807,84	1216,49
808,01	1284,08
808,19	1290,22
808,36	1245,16
808,54	1298,41
808,71	1226,73
808,88	1335,28
809,06	1294,32
809,23	1290,22
809,40	1314,80
809,58	1202,16
809,75	1226,73
809,92	1243,12
810,10	1339,37
810,27	1249,26
810,44	1214,45
810,62	1230,83
810,79	1243,12
810,96	1282,03
811,14	1271,79
811,31	1304,56
811,48	1232,88
811,66	1263,60
811,83	1267,69
812,00	1265,64
812,18	1259,50
812,35	1294,32
812,52	1261,55
812,69	1265,64
812,87	1200,11
813,04	1251,31
813,21	1288,17
813,39	1312,75
813,56	1241,07
813,73	1314,80
813,91	1329,13
814,08	1363,95
814,25	1273,84
814,42	1282,03
814,60	1325,04
814,77	1292,27
814,94	1220,59
815,12	1320,94
815,29	1292,27
815,46	1181,68
815,63	1290,22
815,81	1327,08
815,98	1257,45
816,15	1314,80
816,33	1212,40
816,50	1275,88
816,67	1257,45
816,84	1284,08
817,02	1269,74
817,19	1310,70
817,36	1294,32
817,53	1204,21
817,71	1292,27
817,88	1275,88
818,05	1226,73
818,22	1232,88
818,40	1245,16
818,57	1347,56
818,74	1294,32
818,91	1304,56
819,09	1316,84
819,26	1259,50
819,43	1232,88
819,60	1239,02
819,78	1298,41
819,95	1335,28
820,12	1277,93
820,29	1247,21
820,47	1320,94
820,64	1251,31
820,81	1265,64
820,98	1259,50
821,15	1267,69
821,33	1308,65
821,50	1249,26
821,67	1263,60
821,84	1255,40
822,02	1226,73
822,19	1316,84
822,36	1359,85
822,53	1294,32
822,70	1249,26
822,88	1245,16
823,05	1253,36
823,22	1241,07
823,39	1292,27
823,56	1232,88
823,74	1316,84
823,91	1312,75
824,08	1249,26
824,25	1269,74
824,42	1245,16
824,60	1306,60
824,77	1265,64
824,94	1243,12
825,11	1226,73
825,28	1214,45
825,45	1198,06
825,63	1224,69
825,80	1263,60
825,97	1249,26
826,14	1286,12
826,31	1257,45
826,48	1255,40
826,66	1290,22
826,83	1263,60
827,00	1226,73
827,17	1380,33
827,34	1253,36
827,51	1284,08
827,69	1249,26
827,86	1277,93
828,03	1234,93
828,20	1218,54
828,37	1251,31
828,54	1282,03
828,71	1212,40
828,89	1306,60
829,06	1218,54
829,23	1308,65
829,40	1245,16
829,57	1247,21
829,74	1271,79
829,91	1294,32
830,09	1239,02
830,26	1273,84
830,43	1271,79
830,60	1318,89
830,77	1230,83
830,94	1275,88
831,11	1222,64
831,28	1249,26
831,46	1216,49
831,63	1355,76
831,80	1269,74
831,97	1257,45
832,14	1206,25
832,31	1239,02
832,48	1282,03
832,65	1292,27
832,82	1232,88
832,99	1290,22
833,17	1296,36
833,34	1308,65
833,51	1284,08
833,68	1208,30
833,85	1296,36
834,02	1230,83
834,19	1318,89
834,36	1263,60
834,53	1198,06
834,70	1361,90
834,87	1236,97
835,04	1210,35
835,22	1312,75
835,39	1200,11
835,56	1318,89
835,73	1273,84
835,90	1286,12
836,07	1298,41
836,24	1282,03
836,41	1296,36
836,58	1212,40
836,75	1294,32
836,92	1310,70
837,09	1255,40
837,26	1290,22
837,43	1222,64
837,60	1253,36
837,77	1277,93
837,94	1312,75
838,12	1296,36
838,29	1232,88
838,46	1249,26
838,63	1284,08
838,80	1216,49
838,97	1312,75
839,14	1212,40
839,31	1284,08
839,48	1296,36
839,65	1183,73
839,82	1271,79
839,99	1288,17
840,16	1273,84
840,33	1251,31
840,50	1322,99
840,67	1222,64
840,84	1247,21
841,01	1241,07
841,18	1310,70
841,35	1200,11
841,52	1277,93
841,69	1298,41
841,86	1204,21
842,03	1322,99
842,20	1179,63
842,37	1318,89
842,54	1300,46
842,71	1241,07
842,88	1316,84
843,05	1251,31
843,22	1253,36
843,39	1253,36
843,56	1228,78
843,73	1247,21
843,90	1249,26
844,07	1220,59
844,24	1259,50
844,41	1267,69
844,58	1234,93
844,75	1277,93
844,92	1318,89
845,09	1300,46
845,26	1320,94
845,43	1361,90
845,60	1232,88
845,77	1241,07
845,94	1171,44
846,10	1236,97
846,27	1294,32
846,44	1236,97
846,61	1257,45
846,78	1271,79
846,95	1327,08
847,12	1239,02
847,29	1282,03
847,46	1265,64
847,63	1257,45
847,80	1292,27
847,97	1267,69
848,14	1284,08
848,31	1234,93
848,48	1224,69
848,65	1368,04
848,82	1245,16
848,98	1282,03
849,15	1288,17
849,32	1302,51
849,49	1196,01
849,66	1322,99
849,83	1253,36
850,00	1290,22
850,17	1318,89
850,34	1206,25
850,51	1298,41
850,68	1314,80
850,85	1304,56
851,01	1284,08
851,18	1316,84
851,35	1308,65
851,52	1255,40
851,69	1320,94
851,86	1179,63
852,03	1335,28
852,20	1273,84
852,37	1339,37
852,53	1208,30
852,70	1273,84
852,87	1257,45
853,04	1257,45
853,21	1327,08
853,38	1302,51
853,55	1230,83
853,72	1255,40
853,89	1216,49
854,05	1318,89
854,22	1314,80
854,39	1327,08
854,56	1222,64
854,73	1298,41
854,90	1239,02
855,07	1316,84
855,23	1253,36
855,40	1327,08
855,57	1224,69
855,74	1294,32
855,91	1374,19
856,08	1294,32
856,25	1239,02
856,41	1273,84
856,58	1318,89
856,75	1200,11
856,92	1331,18
857,09	1269,74
857,26	1249,26
857,42	1249,26
857,59	1306,60
857,76	1239,02
857,93	1288,17
858,10	1273,84
858,27	1232,88
858,43	1257,45
858,60	1243,12
858,77	1196,01
858,94	1269,74
859,11	1320,94
859,27	1298,41
859,44	1247,21
859,61	1236,97
859,78	1265,64
859,95	1286,12
860,12	1284,08
860,28	1343,47
860,45	1318,89
860,62	1286,12
860,79	1273,84
860,95	1282,03
861,12	1318,89
861,29	1249,26
861,46	1273,84
861,63	1243,12
861,79	1257,45
861,96	1339,37
862,13	1329,13
862,30	1341,42
862,47	1253,36
862,63	1282,03
862,80	1230,83
862,97	1245,16
863,14	1271,79
863,30	1239,02
863,47	1306,60
863,64	1204,21
863,81	1249,26
863,97	1247,21
864,14	1232,88
864,31	1286,12
864,48	1292,27
864,65	1239,02
864,81	1277,93
864,98	1267,69
865,15	1251,31
865,32	1269,74
865,48	1282,03
865,65	1284,08
865,82	1284,08
865,98	1310,70
866,15	1304,56
866,32	1239,02
866,49	1232,88
866,65	1296,36
866,82	1265,64
866,99	1310,70
867,16	1165,29
867,32	1318,89
867,49	1273,84
867,66	1239,02
867,83	1269,74
867,99	1265,64
868,16	1275,88
868,33	1234,93
868,49	1253,36
868,66	1259,50
868,83	1245,16
868,99	1349,61
869,16	1245,16
869,33	1275,88
869,50	1216,49
869,66	1273,84
869,83	1198,06
870,00	1269,74
870,16	1327,08
870,33	1224,69
870,50	1241,07
870,66	1316,84
870,83	1241,07
871,00	1236,97
871,17	1263,60
871,33	1374,19
871,50	1284,08
871,67	1239,02
871,83	1294,32
872,00	1218,54
872,17	1314,80
872,33	1200,11
872,50	1282,03
872,67	1322,99
872,83	1320,94
873,00	1200,11
873,17	1212,40
873,33	1275,88
873,50	1214,45
873,67	1241,07
873,83	1230,83
874,00	1224,69
874,16	1286,12
874,33	1255,40
874,50	1282,03
874,66	1284,08
874,83	1271,79
875,00	1224,69
875,16	1320,94
875,33	1290,22
875,50	1302,51
875,66	1204,21
875,83	1337,32
875,99	1294,32
876,16	1318,89
876,33	1181,68
876,49	1255,40
876,66	1251,31
876,83	1320,94
876,99	1273,84
877,16	1241,07
877,32	1247,21
877,49	1263,60
877,66	1224,69
877,82	1271,79
877,99	1331,18
878,15	1253,36
878,32	1239,02
878,49	1220,59
878,65	1277,93
878,82	1255,40
878,98	1239,02
879,15	1271,79
879,32	1261,55
879,48	1236,97
879,65	1308,65
879,81	1253,36
879,98	1304,56
880,15	1282,03
880,31	1228,78
880,48	1249,26
880,64	1210,35
880,81	1218,54
880,97	1243,12
881,14	1290,22
881,31	1290,22
881,47	1298,41
881,64	1228,78
881,80	1265,64
881,97	1308,65
882,13	1259,50
882,30	1230,83
882,47	1263,60
882,63	1327,08
882,80	1259,50
882,96	1230,83
883,13	1224,69
883,29	1290,22
883,46	1304,56
883,62	1263,60
883,79	1245,16
883,95	1349,61
884,12	1236,97
884,29	1271,79
884,45	1286,12
884,62	1355,76
884,78	1273,84
884,95	1261,55
885,11	1239,02
885,28	1167,34
885,44	1234,93
885,61	1273,84
885,77	1245,16
885,94	1335,28
886,10	1286,12
886,27	1353,71
886,43	1245,16
886,60	1187,82
886,76	1263,60
886,93	1193,97
887,09	1265,64
887,26	1261,55
887,42	1263,60
887,59	1269,74
887,75	1273,84
887,92	1265,64
888,08	1320,94
888,25	1296,36
888,41	1308,65
888,58	1306,60
888,74	1241,07
888,91	1286,12
>>>>>End Processed Spectral Data<<<<<
