SpectraSuite Data File
++++++++++++++++++++++++++++++++++++
Date: Sun Apr 03 15:47:34 CEST 2016
User: root
Dark Spectrum Present: No
Reference Spectrum Present: No
Number of Sampled Component Spectra: 1
Spectrometers: USB4C02835
Integration Time (usec): 10000 (USB4C02835)
Spectra Averaged: 1 (USB4C02835)
Boxcar Smoothing: 0 (USB4C02835)
Correct for Electrical Dark: No (USB4C02835)
Strobe/Lamp Enabled: No (USB4C02835)
Correct for Detector Non-linearity: No (USB4C02835)
Correct for Stray Light: No (USB4C02835)
Number of Pixels in Processed Spectrum: 3648
>>>>>Begin Processed Spectral Data<<<<<
177,47	1183,73
177,69	1183,73
177,91	1183,73
178,13	1271,79
178,36	1255,40
178,58	1216,49
178,80	1251,31
179,02	1218,54
179,24	1232,88
179,46	1245,16
179,68	1228,78
179,90	1259,50
180,13	1243,12
180,35	1241,07
180,57	1263,60
180,79	1271,79
181,01	1265,64
181,23	1263,60
181,45	1265,64
181,67	1304,56
181,90	1290,22
182,12	1257,45
182,34	1196,01
182,56	1275,88
182,78	1284,08
183,00	1325,04
183,22	1265,64
183,44	1271,79
183,66	1282,03
183,89	1267,69
184,11	1263,60
184,33	1224,69
184,55	1222,64
184,77	1177,58
184,99	1249,26
185,21	1249,26
185,43	1363,95
185,65	1255,40
185,87	1230,83
186,10	1234,93
186,32	1286,12
186,54	1331,18
186,76	1236,97
186,98	1243,12
187,20	1277,93
187,42	1275,88
187,64	1292,27
187,86	1165,29
188,08	1304,56
188,30	1241,07
188,52	1265,64
188,75	1214,45
188,97	1273,84
189,19	1247,21
189,41	1298,41
189,63	1288,17
189,85	1271,79
190,07	1282,03
190,29	1308,65
190,51	1220,59
190,73	1236,97
190,95	1253,36
191,17	1302,51
191,39	1232,88
191,61	1259,50
191,84	1259,50
192,06	1277,93
192,28	1329,13
192,50	1304,56
192,72	1300,46
192,94	1333,23
193,16	1306,60
193,38	1251,31
193,60	1236,97
193,82	1282,03
194,04	1345,52
194,26	1318,89
194,48	1296,36
194,70	1273,84
194,92	1249,26
195,14	1279,98
195,36	1271,79
195,58	1337,32
195,80	1263,60
196,02	1279,98
196,24	1247,21
196,46	1308,65
196,69	1282,03
196,91	1292,27
197,13	1275,88
197,35	1249,26
197,57	1265,64
197,79	1165,29
198,01	1245,16
198,23	1302,51
198,45	1322,99
198,67	1282,03
198,89	1259,50
199,11	1269,74
199,33	1261,55
199,55	1241,07
199,77	1255,40
199,99	1208,30
200,21	1308,65
200,43	1312,75
200,65	1257,45
200,87	1269,74
201,09	1269,74
201,31	1255,40
201,53	1167,34
201,75	1320,94
201,97	1279,98
202,19	1329,13
202,41	1306,60
202,63	1304,56
202,85	1200,11
203,07	1357,80
203,29	1304,56
203,51	1286,12
203,73	1214,45
203,95	1304,56
204,17	1304,56
204,39	1241,07
204,61	1249,26
204,83	1331,18
205,05	1261,55
205,27	1251,31
205,49	1290,22
205,71	1265,64
205,93	1247,21
206,15	1308,65
206,37	1292,27
206,59	1320,94
206,81	1247,21
207,03	1298,41
207,25	1263,60
207,47	1296,36
207,69	1275,88
207,91	1282,03
208,13	1259,50
208,34	1290,22
208,56	1243,12
208,78	1298,41
209,00	1212,40
209,22	1306,60
209,44	1277,93
209,66	1351,66
209,88	1263,60
210,10	1253,36
210,32	1228,78
210,54	1357,80
210,76	1204,21
210,98	1290,22
211,20	1312,75
211,42	1232,88
211,64	1296,36
211,86	1386,47
212,08	1230,83
212,30	1234,93
212,52	1210,35
212,74	1273,84
212,96	1269,74
213,17	1228,78
213,39	1282,03
213,61	1263,60
213,83	1322,99
214,05	1251,31
214,27	1290,22
214,49	1312,75
214,71	1271,79
214,93	1275,88
215,15	1366,00
215,37	1337,32
215,59	1318,89
215,81	1239,02
216,03	1282,03
216,24	1304,56
216,46	1212,40
216,68	1273,84
216,90	1214,45
217,12	1294,32
217,34	1318,89
217,56	1273,84
217,78	1261,55
218,00	1245,16
218,22	1265,64
218,44	1308,65
218,66	1210,35
218,87	1255,40
219,09	1284,08
219,31	1200,11
219,53	1253,36
219,75	1282,03
219,97	1271,79
220,19	1304,56
220,41	1292,27
220,63	1310,70
220,85	1294,32
221,06	1288,17
221,28	1263,60
221,50	1259,50
221,72	1234,93
221,94	1277,93
222,16	1275,88
222,38	1331,18
222,60	1214,45
222,82	1304,56
223,03	1220,59
223,25	1284,08
223,47	1247,21
223,69	1337,32
223,91	1261,55
224,13	1355,76
224,35	1220,59
224,57	1243,12
224,78	1249,26
225,00	1282,03
225,22	1216,49
225,44	1290,22
225,66	1335,28
225,88	1263,60
226,10	1196,01
226,32	1302,51
226,53	1363,95
226,75	1376,24
226,97	1269,74
227,19	1277,93
227,41	1239,02
227,63	1261,55
227,85	1234,93
228,06	1247,21
228,28	1245,16
228,50	1251,31
228,72	1247,21
228,94	1273,84
229,16	1228,78
229,37	1314,80
229,59	1269,74
229,81	1304,56
230,03	1228,78
230,25	1269,74
230,47	1298,41
230,69	1261,55
230,90	1230,83
231,12	1261,55
231,34	1329,13
231,56	1271,79
231,78	1251,31
232,00	1253,36
232,21	1222,64
232,43	1296,36
232,65	1216,49
232,87	1316,84
233,09	1247,21
233,30	1282,03
233,52	1275,88
233,74	1257,45
233,96	1269,74
234,18	1322,99
234,40	1185,77
234,61	1232,88
234,83	1222,64
235,05	1245,16
235,27	1271,79
235,49	1378,28
235,70	1251,31
235,92	1228,78
236,14	1290,22
236,36	1255,40
236,58	1345,52
236,79	1241,07
237,01	1202,16
237,23	1271,79
237,45	1236,97
237,67	1273,84
237,88	1286,12
238,10	1257,45
238,32	1351,66
238,54	1329,13
238,76	1253,36
238,97	1296,36
239,19	1300,46
239,41	1331,18
239,63	1273,84
239,85	1255,40
240,06	1288,17
240,28	1314,80
240,50	1284,08
240,72	1265,64
240,93	1253,36
241,15	1243,12
241,37	1251,31
241,59	1282,03
241,81	1286,12
242,02	1265,64
242,24	1261,55
242,46	1304,56
242,68	1300,46
242,89	1220,59
243,11	1224,69
243,33	1265,64
243,55	1318,89
243,76	1296,36
243,98	1196,01
244,20	1253,36
244,42	1263,60
244,64	1304,56
244,85	1265,64
245,07	1255,40
245,29	1298,41
245,51	1300,46
245,72	1310,70
245,94	1347,56
246,16	1294,32
246,38	1208,30
246,59	1290,22
246,81	1208,30
247,03	1232,88
247,24	1290,22
247,46	1228,78
247,68	1288,17
247,90	1275,88
248,11	1249,26
248,33	1292,27
248,55	1220,59
248,77	1331,18
248,98	1253,36
249,20	1279,98
249,42	1230,83
249,64	1222,64
249,85	1228,78
250,07	1314,80
250,29	1292,27
250,50	1204,21
250,72	1245,16
250,94	1243,12
251,16	1239,02
251,37	1183,73
251,59	1290,22
251,81	1320,94
252,02	1308,65
252,24	1236,97
252,46	1216,49
252,68	1204,21
252,89	1343,47
253,11	1253,36
253,33	1294,32
253,54	1181,68
253,76	1290,22
253,98	1206,25
254,20	1214,45
254,41	1177,58
254,63	1265,64
254,85	1308,65
255,06	1249,26
255,28	1267,69
255,50	1320,94
255,71	1290,22
255,93	1271,79
256,15	1339,37
256,36	1290,22
256,58	1243,12
256,80	1298,41
257,02	1232,88
257,23	1269,74
257,45	1296,36
257,67	1294,32
257,88	1265,64
258,10	1255,40
258,32	1279,98
258,53	1218,54
258,75	1249,26
258,97	1284,08
259,18	1236,97
259,40	1286,12
259,62	1327,08
259,83	1316,84
260,05	1277,93
260,27	1234,93
260,48	1255,40
260,70	1288,17
260,92	1249,26
261,13	1249,26
261,35	1286,12
261,57	1245,16
261,78	1196,01
262,00	1228,78
262,22	1282,03
262,43	1298,41
262,65	1245,16
262,86	1318,89
263,08	1275,88
263,30	1282,03
263,51	1294,32
263,73	1284,08
263,95	1286,12
264,16	1271,79
264,38	1257,45
264,60	1265,64
264,81	1206,25
265,03	1314,80
265,25	1245,16
265,46	1265,64
265,68	1245,16
265,89	1232,88
266,11	1325,04
266,33	1271,79
266,54	1253,36
266,76	1267,69
266,98	1327,08
267,19	1294,32
267,41	1335,28
267,62	1298,41
267,84	1253,36
268,06	1241,07
268,27	1284,08
268,49	1273,84
268,70	1296,36
268,92	1273,84
269,14	1218,54
269,35	1282,03
269,57	1226,73
269,79	1241,07
270,00	1245,16
270,22	1310,70
270,43	1261,55
270,65	1263,60
270,87	1320,94
271,08	1232,88
271,30	1232,88
271,51	1210,35
271,73	1198,06
271,95	1290,22
272,16	1277,93
272,38	1236,97
272,59	1288,17
272,81	1253,36
273,02	1294,32
273,24	1316,84
273,46	1284,08
273,67	1245,16
273,89	1206,25
274,10	1300,46
274,32	1247,21
274,54	1257,45
274,75	1245,16
274,97	1265,64
275,18	1277,93
275,40	1312,75
275,61	1302,51
275,83	1314,80
276,05	1241,07
276,26	1232,88
276,48	1220,59
276,69	1226,73
276,91	1325,04
277,12	1224,69
277,34	1249,26
277,55	1292,27
277,77	1226,73
277,99	1282,03
278,20	1310,70
278,42	1241,07
278,63	1273,84
278,85	1216,49
279,06	1261,55
279,28	1236,97
279,49	1202,16
279,71	1310,70
279,93	1255,40
280,14	1261,55
280,36	1275,88
280,57	1236,97
280,79	1294,32
281,00	1275,88
281,22	1226,73
281,43	1331,18
281,65	1314,80
281,86	1294,32
282,08	1232,88
282,29	1306,60
282,51	1300,46
282,73	1292,27
282,94	1327,08
283,16	1249,26
283,37	1298,41
283,59	1228,78
283,80	1236,97
284,02	1271,79
284,23	1202,16
284,45	1333,23
284,66	1273,84
284,88	1290,22
285,09	1251,31
285,31	1314,80
285,52	1312,75
285,74	1263,60
285,95	1331,18
286,17	1292,27
286,38	1357,80
286,60	1347,56
286,81	1290,22
287,03	1290,22
287,24	1249,26
287,46	1191,92
287,67	1335,28
287,89	1312,75
288,10	1245,16
288,32	1318,89
288,53	1284,08
288,75	1259,50
288,96	1232,88
289,18	1261,55
289,39	1312,75
289,61	1236,97
289,82	1294,32
290,04	1265,64
290,25	1218,54
290,47	1263,60
290,68	1310,70
290,90	1282,03
291,11	1267,69
291,33	1312,75
291,54	1251,31
291,76	1200,11
291,97	1355,76
292,18	1296,36
292,40	1302,51
292,61	1259,50
292,83	1288,17
293,04	1298,41
293,26	1249,26
293,47	1322,99
293,69	1290,22
293,90	1294,32
294,12	1306,60
294,33	1304,56
294,55	1298,41
294,76	1247,21
294,97	1255,40
295,19	1273,84
295,40	1265,64
295,62	1333,23
295,83	1292,27
296,05	1298,41
296,26	1261,55
296,48	1306,60
296,69	1271,79
296,90	1320,94
297,12	1286,12
297,33	1245,16
297,55	1304,56
297,76	1312,75
297,98	1322,99
298,19	1308,65
298,41	1222,64
298,62	1339,37
298,83	1286,12
299,05	1273,84
299,26	1286,12
299,48	1271,79
299,69	1196,01
299,90	1294,32
300,12	1306,60
300,33	1243,12
300,55	1257,45
300,76	1337,32
300,98	1216,49
301,19	1243,12
301,40	1214,45
301,62	1288,17
301,83	1288,17
302,05	1333,23
302,26	1290,22
302,47	1226,73
302,69	1222,64
302,90	1239,02
303,12	1294,32
303,33	1310,70
303,54	1243,12
303,76	1335,28
303,97	1306,60
304,19	1306,60
304,40	1310,70
304,61	1284,08
304,83	1275,88
305,04	1331,18
305,26	1236,97
305,47	1263,60
305,68	1245,16
305,90	1273,84
306,11	1226,73
306,33	1304,56
306,54	1306,60
306,75	1214,45
306,97	1271,79
307,18	1247,21
307,39	1308,65
307,61	1271,79
307,82	1284,08
308,04	1241,07
308,25	1206,25
308,46	1243,12
308,68	1282,03
308,89	1333,23
309,10	1271,79
309,32	1284,08
309,53	1243,12
309,74	1269,74
309,96	1265,64
310,17	1304,56
310,39	1325,04
310,60	1320,94
310,81	1294,32
311,03	1255,40
311,24	1220,59
311,45	1288,17
311,67	1224,69
311,88	1296,36
312,09	1230,83
312,31	1335,28
312,52	1275,88
312,73	1282,03
312,95	1294,32
313,16	1175,53
313,37	1255,40
313,59	1273,84
313,80	1226,73
314,01	1294,32
314,23	1277,93
314,44	1236,97
314,65	1210,35
314,87	1298,41
315,08	1265,64
315,29	1304,56
315,51	1277,93
315,72	1228,78
315,93	1267,69
316,15	1222,64
316,36	1239,02
316,57	1257,45
316,79	1222,64
317,00	1249,26
317,21	1222,64
317,43	1228,78
317,64	1290,22
317,85	1318,89
318,07	1241,07
318,28	1318,89
318,49	1279,98
318,70	1325,04
318,92	1241,07
319,13	1308,65
319,34	1294,32
319,56	1261,55
319,77	1165,29
319,98	1269,74
320,20	1271,79
320,41	1327,08
320,62	1273,84
320,83	1322,99
321,05	1261,55
321,26	1298,41
321,47	1206,25
321,69	1241,07
321,90	1206,25
322,11	1273,84
322,32	1277,93
322,54	1300,46
322,75	1298,41
322,96	1372,14
323,18	1273,84
323,39	1249,26
323,60	1259,50
323,81	1286,12
324,03	1353,71
324,24	1279,98
324,45	1306,60
324,66	1292,27
324,88	1241,07
325,09	1271,79
325,30	1251,31
325,52	1296,36
325,73	1243,12
325,94	1236,97
326,15	1183,73
326,37	1257,45
326,58	1277,93
326,79	1261,55
327,00	1255,40
327,22	1320,94
327,43	1273,84
327,64	1339,37
327,85	1279,98
328,07	1339,37
328,28	1245,16
328,49	1302,51
328,70	1263,60
328,92	1247,21
329,13	1292,27
329,34	1263,60
329,55	1298,41
329,76	1273,84
329,98	1214,45
330,19	1271,79
330,40	1288,17
330,61	1310,70
330,83	1267,69
331,04	1282,03
331,25	1277,93
331,46	1267,69
331,68	1239,02
331,89	1355,76
332,10	1251,31
332,31	1277,93
332,52	1269,74
332,74	1247,21
332,95	1304,56
333,16	1318,89
333,37	1255,40
333,58	1271,79
333,80	1294,32
334,01	1314,80
334,22	1294,32
334,43	1320,94
334,64	1318,89
334,86	1288,17
335,07	1341,42
335,28	1253,36
335,49	1232,88
335,70	1241,07
335,92	1277,93
336,13	1255,40
336,34	1236,97
336,55	1198,06
336,76	1193,97
336,98	1236,97
337,19	1253,36
337,40	1286,12
337,61	1230,83
337,82	1282,03
338,04	1198,06
338,25	1263,60
338,46	1279,98
338,67	1282,03
338,88	1222,64
339,09	1261,55
339,31	1312,75
339,52	1277,93
339,73	1261,55
339,94	1273,84
340,15	1296,36
340,36	1296,36
340,58	1202,16
340,79	1230,83
341,00	1286,12
341,21	1335,28
341,42	1224,69
341,63	1216,49
341,85	1239,02
342,06	1232,88
342,27	1298,41
342,48	1292,27
342,69	1265,64
342,90	1226,73
343,12	1368,04
343,33	1314,80
343,54	1216,49
343,75	1298,41
343,96	1314,80
344,17	1220,59
344,38	1277,93
344,60	1277,93
344,81	1355,76
345,02	1265,64
345,23	1245,16
345,44	1329,13
345,65	1241,07
345,86	1222,64
346,07	1210,35
346,29	1243,12
346,50	1269,74
346,71	1257,45
346,92	1298,41
347,13	1337,32
347,34	1325,04
347,55	1249,26
347,76	1300,46
347,98	1304,56
348,19	1286,12
348,40	1282,03
348,61	1290,22
348,82	1224,69
349,03	1259,50
349,24	1349,61
349,45	1314,80
349,66	1275,88
349,88	1275,88
350,09	1294,32
350,30	1279,98
350,51	1257,45
350,72	1210,35
350,93	1206,25
351,14	1392,62
351,35	1314,80
351,56	1288,17
351,77	1300,46
351,99	1261,55
352,20	1261,55
352,41	1294,32
352,62	1329,13
352,83	1279,98
353,04	1294,32
353,25	1271,79
353,46	1261,55
353,67	1316,84
353,88	1241,07
354,09	1257,45
354,30	1322,99
354,52	1255,40
354,73	1322,99
354,94	1241,07
355,15	1292,27
355,36	1286,12
355,57	1284,08
355,78	1267,69
355,99	1224,69
356,20	1306,60
356,41	1222,64
356,62	1331,18
356,83	1286,12
357,04	1239,02
357,25	1282,03
357,46	1286,12
357,68	1202,16
357,89	1253,36
358,10	1286,12
358,31	1269,74
358,52	1257,45
358,73	1263,60
358,94	1259,50
359,15	1265,64
359,36	1259,50
359,57	1271,79
359,78	1265,64
359,99	1275,88
360,20	1286,12
360,41	1247,21
360,62	1339,37
360,83	1310,70
361,04	1230,83
361,25	1304,56
361,46	1226,73
361,67	1206,25
361,88	1306,60
362,09	1290,22
362,30	1265,64
362,51	1288,17
362,72	1298,41
362,93	1224,69
363,14	1286,12
363,35	1372,14
363,56	1327,08
363,78	1253,36
363,99	1236,97
364,20	1267,69
364,41	1279,98
364,62	1167,34
364,83	1300,46
365,04	1296,36
365,25	1273,84
365,46	1300,46
365,67	1212,40
365,88	1218,54
366,09	1292,27
366,30	1265,64
366,51	1322,99
366,72	1263,60
366,93	1329,13
367,14	1247,21
367,35	1271,79
367,56	1286,12
367,77	1298,41
367,98	1282,03
368,18	1288,17
368,39	1298,41
368,60	1288,17
368,81	1347,56
369,02	1193,97
369,23	1343,47
369,44	1228,78
369,65	1234,93
369,86	1232,88
370,07	1273,84
370,28	1267,69
370,49	1329,13
370,70	1312,75
370,91	1269,74
371,12	1316,84
371,33	1298,41
371,54	1255,40
371,75	1247,21
371,96	1245,16
372,17	1310,70
372,38	1255,40
372,59	1257,45
372,80	1286,12
373,01	1339,37
373,22	1261,55
373,43	1204,21
373,64	1210,35
373,85	1249,26
374,06	1290,22
374,26	1335,28
374,47	1234,93
374,68	1277,93
374,89	1236,97
375,10	1232,88
375,31	1277,93
375,52	1290,22
375,73	1345,52
375,94	1296,36
376,15	1275,88
376,36	1294,32
376,57	1292,27
376,78	1335,28
376,99	1232,88
377,20	1329,13
377,40	1249,26
377,61	1226,73
377,82	1300,46
378,03	1337,32
378,24	1189,87
378,45	1294,32
378,66	1220,59
378,87	1249,26
379,08	1228,78
379,29	1341,42
379,50	1286,12
379,71	1253,36
379,91	1329,13
380,12	1300,46
380,33	1284,08
380,54	1232,88
380,75	1318,89
380,96	1269,74
381,17	1271,79
381,38	1290,22
381,59	1284,08
381,80	1320,94
382,00	1282,03
382,21	1224,69
382,42	1273,84
382,63	1331,18
382,84	1343,47
383,05	1314,80
383,26	1320,94
383,47	1277,93
383,68	1333,23
383,88	1239,02
384,09	1304,56
384,30	1282,03
384,51	1243,12
384,72	1236,97
384,93	1282,03
385,14	1290,22
385,35	1314,80
385,55	1302,51
385,76	1290,22
385,97	1243,12
386,18	1282,03
386,39	1234,93
386,60	1269,74
386,81	1193,97
387,02	1220,59
387,22	1165,29
387,43	1310,70
387,64	1284,08
387,85	1347,56
388,06	1310,70
388,27	1331,18
388,48	1247,21
388,68	1288,17
388,89	1316,84
389,10	1257,45
389,31	1261,55
389,52	1273,84
389,73	1277,93
389,93	1232,88
390,14	1320,94
390,35	1253,36
390,56	1255,40
390,77	1228,78
390,98	1261,55
391,18	1243,12
391,39	1267,69
391,60	1292,27
391,81	1230,83
392,02	1236,97
392,23	1288,17
392,43	1236,97
392,64	1322,99
392,85	1282,03
393,06	1308,65
393,27	1265,64
393,47	1310,70
393,68	1230,83
393,89	1249,26
394,10	1296,36
394,31	1286,12
394,52	1337,32
394,72	1300,46
394,93	1292,27
395,14	1267,69
395,35	1267,69
395,56	1333,23
395,76	1294,32
395,97	1290,22
396,18	1304,56
396,39	1302,51
396,60	1241,07
396,80	1271,79
397,01	1257,45
397,22	1232,88
397,43	1236,97
397,64	1214,45
397,84	1279,98
398,05	1337,32
398,26	1304,56
398,47	1271,79
398,67	1261,55
398,88	1290,22
399,09	1208,30
399,30	1204,21
399,51	1331,18
399,71	1224,69
399,92	1294,32
400,13	1236,97
400,34	1298,41
400,54	1284,08
400,75	1275,88
400,96	1198,06
401,17	1271,79
401,37	1284,08
401,58	1288,17
401,79	1265,64
402,00	1249,26
402,21	1196,01
402,41	1234,93
402,62	1259,50
402,83	1228,78
403,04	1279,98
403,24	1339,37
403,45	1320,94
403,66	1357,80
403,87	1247,21
404,07	1269,74
404,28	1228,78
404,49	1288,17
404,70	1282,03
404,90	1269,74
405,11	1243,12
405,32	1284,08
405,52	1279,98
405,73	1204,21
405,94	1245,16
406,15	1267,69
406,35	1298,41
406,56	1261,55
406,77	1300,46
406,98	1249,26
407,18	1380,33
407,39	1320,94
407,60	1357,80
407,80	1267,69
408,01	1273,84
408,22	1306,60
408,43	1249,26
408,63	1312,75
408,84	1202,16
409,05	1261,55
409,25	1263,60
409,46	1247,21
409,67	1202,16
409,88	1261,55
410,08	1277,93
410,29	1331,18
410,50	1243,12
410,70	1273,84
410,91	1279,98
411,12	1216,49
411,32	1200,11
411,53	1308,65
411,74	1247,21
411,95	1290,22
412,15	1282,03
412,36	1245,16
412,57	1300,46
412,77	1284,08
412,98	1314,80
413,19	1218,54
413,39	1222,64
413,60	1308,65
413,81	1198,06
414,01	1206,25
414,22	1222,64
414,43	1208,30
414,63	1259,50
414,84	1284,08
415,05	1304,56
415,25	1181,68
415,46	1247,21
415,67	1243,12
415,87	1353,71
416,08	1308,65
416,29	1290,22
416,49	1239,02
416,70	1255,40
416,91	1230,83
417,11	1220,59
417,32	1333,23
417,53	1247,21
417,73	1329,13
417,94	1310,70
418,15	1247,21
418,35	1214,45
418,56	1314,80
418,77	1279,98
418,97	1279,98
419,18	1306,60
419,38	1325,04
419,59	1296,36
419,80	1284,08
420,00	1255,40
420,21	1245,16
420,42	1271,79
420,62	1294,32
420,83	1249,26
421,04	1320,94
421,24	1198,06
421,45	1214,45
421,65	1343,47
421,86	1310,70
422,07	1249,26
422,27	1302,51
422,48	1296,36
422,69	1273,84
422,89	1269,74
423,10	1257,45
423,30	1290,22
423,51	1302,51
423,72	1302,51
423,92	1279,98
424,13	1292,27
424,33	1259,50
424,54	1277,93
424,75	1335,28
424,95	1241,07
425,16	1298,41
425,36	1236,97
425,57	1259,50
425,78	1255,40
425,98	1294,32
426,19	1279,98
426,39	1220,59
426,60	1234,93
426,81	1294,32
427,01	1251,31
427,22	1316,84
427,42	1277,93
427,63	1232,88
427,83	1261,55
428,04	1222,64
428,25	1224,69
428,45	1269,74
428,66	1251,31
428,86	1257,45
429,07	1230,83
429,28	1302,51
429,48	1232,88
429,69	1247,21
429,89	1245,16
430,10	1347,56
430,30	1277,93
430,51	1247,21
430,71	1290,22
430,92	1253,36
431,13	1232,88
431,33	1304,56
431,54	1245,16
431,74	1290,22
431,95	1234,93
432,15	1185,77
432,36	1239,02
432,56	1253,36
432,77	1265,64
432,98	1249,26
433,18	1331,18
433,39	1329,13
433,59	1232,88
433,80	1216,49
434,00	1290,22
434,21	1222,64
434,41	1275,88
434,62	1370,09
434,82	1282,03
435,03	1204,21
435,23	1216,49
435,44	1234,93
435,64	1298,41
435,85	1327,08
436,06	1335,28
436,26	1226,73
436,47	1310,70
436,67	1239,02
436,88	1271,79
437,08	1314,80
437,29	1267,69
437,49	1296,36
437,70	1263,60
437,90	1216,49
438,11	1232,88
438,31	1234,93
438,52	1288,17
438,72	1322,99
438,93	1230,83
439,13	1247,21
439,34	1189,87
439,54	1241,07
439,75	1294,32
439,95	1200,11
440,16	1314,80
440,36	1327,08
440,57	1273,84
440,77	1294,32
440,98	1236,97
441,18	1273,84
441,39	1218,54
441,59	1253,36
441,80	1263,60
442,00	1208,30
442,21	1247,21
442,41	1232,88
442,62	1355,76
442,82	1380,33
443,02	1271,79
443,23	1249,26
443,43	1214,45
443,64	1212,40
443,84	1253,36
444,05	1273,84
444,25	1284,08
444,46	1294,32
444,66	1292,27
444,87	1357,80
445,07	1251,31
445,28	1251,31
445,48	1263,60
445,69	1208,30
445,89	1212,40
446,09	1353,71
446,30	1257,45
446,50	1304,56
446,71	1279,98
446,91	1222,64
447,12	1282,03
447,32	1269,74
447,53	1300,46
447,73	1241,07
447,93	1198,06
448,14	1282,03
448,34	1257,45
448,55	1290,22
448,75	1236,97
448,96	1306,60
449,16	1277,93
449,36	1239,02
449,57	1304,56
449,77	1279,98
449,98	1310,70
450,18	1273,84
450,39	1267,69
450,59	1257,45
450,79	1208,30
451,00	1273,84
451,20	1273,84
451,41	1202,16
451,61	1339,37
451,81	1279,98
452,02	1249,26
452,22	1241,07
452,43	1312,75
452,63	1259,50
452,84	1271,79
453,04	1290,22
453,24	1255,40
453,45	1230,83
453,65	1243,12
453,86	1218,54
454,06	1273,84
454,26	1214,45
454,47	1296,36
454,67	1271,79
454,87	1265,64
455,08	1306,60
455,28	1259,50
455,49	1263,60
455,69	1245,16
455,89	1325,04
456,10	1196,01
456,30	1257,45
456,51	1306,60
456,71	1181,68
456,91	1261,55
457,12	1290,22
457,32	1251,31
457,52	1279,98
457,73	1267,69
457,93	1312,75
458,14	1265,64
458,34	1255,40
458,54	1208,30
458,75	1247,21
458,95	1241,07
459,15	1277,93
459,36	1290,22
459,56	1267,69
459,76	1308,65
459,97	1234,93
460,17	1259,50
460,37	1286,12
460,58	1300,46
460,78	1228,78
460,99	1284,08
461,19	1331,18
461,39	1300,46
461,60	1239,02
461,80	1216,49
462,00	1288,17
462,21	1218,54
462,41	1271,79
462,61	1290,22
462,82	1312,75
463,02	1263,60
463,22	1288,17
463,43	1255,40
463,63	1294,32
463,83	1290,22
464,04	1318,89
464,24	1296,36
464,44	1335,28
464,64	1325,04
464,85	1363,95
465,05	1286,12
465,25	1216,49
465,46	1333,23
465,66	1284,08
465,86	1251,31
466,07	1302,51
466,27	1300,46
466,47	1271,79
466,68	1314,80
466,88	1286,12
467,08	1304,56
467,29	1232,88
467,49	1265,64
467,69	1302,51
467,89	1241,07
468,10	1277,93
468,30	1241,07
468,50	1187,82
468,71	1337,32
468,91	1300,46
469,11	1327,08
469,31	1290,22
469,52	1200,11
469,72	1183,73
469,92	1271,79
470,13	1284,08
470,33	1257,45
470,53	1253,36
470,73	1273,84
470,94	1273,84
471,14	1210,35
471,34	1322,99
471,54	1292,27
471,75	1228,78
471,95	1306,60
472,15	1230,83
472,36	1163,25
472,56	1322,99
472,76	1202,16
472,96	1275,88
473,17	1257,45
473,37	1257,45
473,57	1300,46
473,77	1257,45
473,98	1202,16
474,18	1296,36
474,38	1247,21
474,58	1277,93
474,79	1290,22
474,99	1249,26
475,19	1236,97
475,39	1263,60
475,60	1261,55
475,80	1271,79
476,00	1308,65
476,20	1239,02
476,41	1200,11
476,61	1302,51
476,81	1241,07
477,01	1236,97
477,21	1290,22
477,42	1316,84
477,62	1271,79
477,82	1267,69
478,02	1304,56
478,23	1216,49
478,43	1290,22
478,63	1314,80
478,83	1318,89
479,03	1214,45
479,24	1292,27
479,44	1302,51
479,64	1290,22
479,84	1185,77
480,04	1335,28
480,25	1325,04
480,45	1226,73
480,65	1259,50
480,85	1329,13
481,06	1222,64
481,26	1265,64
481,46	1232,88
481,66	1290,22
481,86	1314,80
482,06	1265,64
482,27	1290,22
482,47	1255,40
482,67	1247,21
482,87	1294,32
483,07	1353,71
483,28	1267,69
483,48	1257,45
483,68	1263,60
483,88	1234,93
484,08	1208,30
484,29	1243,12
484,49	1306,60
484,69	1300,46
484,89	1286,12
485,09	1302,51
485,29	1292,27
485,50	1273,84
485,70	1245,16
485,90	1298,41
486,10	1253,36
486,30	1306,60
486,50	1222,64
486,71	1232,88
486,91	1279,98
487,11	1277,93
487,31	1327,08
487,51	1349,61
487,71	1230,83
487,91	1304,56
488,12	1320,94
488,32	1208,30
488,52	1198,06
488,72	1310,70
488,92	1286,12
489,12	1304,56
489,32	1300,46
489,53	1255,40
489,73	1271,79
489,93	1284,08
490,13	1337,32
490,33	1245,16
490,53	1247,21
490,73	1214,45
490,94	1257,45
491,14	1363,95
491,34	1220,59
491,54	1277,93
491,74	1230,83
491,94	1363,95
492,14	1271,79
492,34	1282,03
492,54	1214,45
492,75	1273,84
492,95	1302,51
493,15	1306,60
493,35	1212,40
493,55	1210,35
493,75	1253,36
493,95	1314,80
494,15	1329,13
494,35	1218,54
494,56	1284,08
494,76	1277,93
494,96	1210,35
495,16	1193,97
495,36	1277,93
495,56	1312,75
495,76	1236,97
495,96	1265,64
496,16	1196,01
496,36	1353,71
496,56	1298,41
496,77	1286,12
496,97	1239,02
497,17	1259,50
497,37	1318,89
497,57	1265,64
497,77	1204,21
497,97	1331,18
498,17	1241,07
498,37	1259,50
498,57	1236,97
498,77	1302,51
498,97	1279,98
499,17	1300,46
499,38	1320,94
499,58	1232,88
499,78	1335,28
499,98	1298,41
500,18	1271,79
500,38	1251,31
500,58	1275,88
500,78	1286,12
500,98	1247,21
501,18	1310,70
501,38	1247,21
501,58	1243,12
501,78	1325,04
501,98	1374,19
502,18	1228,78
502,38	1265,64
502,58	1300,46
502,78	1308,65
502,98	1273,84
503,18	1318,89
503,38	1220,59
503,59	1247,21
503,79	1329,13
503,99	1226,73
504,19	1241,07
504,39	1228,78
504,59	1322,99
504,79	1267,69
504,99	1282,03
505,19	1232,88
505,39	1269,74
505,59	1263,60
505,79	1286,12
505,99	1228,78
506,19	1245,16
506,39	1298,41
506,59	1214,45
506,79	1282,03
506,99	1220,59
507,19	1255,40
507,39	1224,69
507,59	1224,69
507,79	1277,93
507,99	1265,64
508,19	1310,70
508,39	1226,73
508,59	1206,25
508,79	1316,84
508,99	1249,26
509,19	1251,31
509,39	1351,66
509,59	1284,08
509,79	1302,51
509,99	1239,02
510,19	1265,64
510,39	1249,26
510,59	1298,41
510,79	1216,49
510,99	1267,69
511,19	1236,97
511,39	1265,64
511,59	1304,56
511,79	1320,94
511,99	1232,88
512,19	1181,68
512,38	1279,98
512,58	1267,69
512,78	1243,12
512,98	1259,50
513,18	1294,32
513,38	1257,45
513,58	1269,74
513,78	1243,12
513,98	1318,89
514,18	1271,79
514,38	1255,40
514,58	1232,88
514,78	1263,60
514,98	1263,60
515,18	1329,13
515,38	1247,21
515,58	1304,56
515,78	1355,76
515,98	1290,22
516,18	1261,55
516,38	1282,03
516,57	1294,32
516,77	1306,60
516,97	1333,23
517,17	1183,73
517,37	1294,32
517,57	1296,36
517,77	1241,07
517,97	1261,55
518,17	1282,03
518,37	1247,21
518,57	1277,93
518,77	1243,12
518,97	1290,22
519,16	1222,64
519,36	1304,56
519,56	1275,88
519,76	1236,97
519,96	1314,80
520,16	1298,41
520,36	1249,26
520,56	1273,84
520,76	1294,32
520,96	1308,65
521,16	1286,12
521,35	1306,60
521,55	1310,70
521,75	1249,26
521,95	1263,60
522,15	1263,60
522,35	1247,21
522,55	1185,77
522,75	1314,80
522,95	1261,55
523,14	1216,49
523,34	1216,49
523,54	1386,47
523,74	1220,59
523,94	1236,97
524,14	1279,98
524,34	1210,35
524,54	1261,55
524,73	1290,22
524,93	1302,51
525,13	1230,83
525,33	1263,60
525,53	1273,84
525,73	1269,74
525,93	1247,21
526,13	1236,97
526,32	1298,41
526,52	1243,12
526,72	1294,32
526,92	1267,69
527,12	1343,47
527,32	1224,69
527,52	1249,26
527,71	1282,03
527,91	1306,60
528,11	1294,32
528,31	1296,36
528,51	1208,30
528,71	1228,78
528,90	1288,17
529,10	1228,78
529,30	1261,55
529,50	1257,45
529,70	1279,98
529,90	1368,04
530,09	1259,50
530,29	1263,60
530,49	1314,80
530,69	1312,75
530,89	1196,01
531,09	1282,03
531,28	1218,54
531,48	1286,12
531,68	1247,21
531,88	1224,69
532,08	1296,36
532,28	1257,45
532,47	1288,17
532,67	1239,02
532,87	1290,22
533,07	1214,45
533,27	1279,98
533,46	1310,70
533,66	1318,89
533,86	1339,37
534,06	1265,64
534,26	1230,83
534,45	1310,70
534,65	1298,41
534,85	1198,06
535,05	1245,16
535,25	1314,80
535,44	1294,32
535,64	1253,36
535,84	1298,41
536,04	1318,89
536,24	1228,78
536,43	1275,88
536,63	1257,45
536,83	1265,64
537,03	1282,03
537,22	1265,64
537,42	1161,20
537,62	1224,69
537,82	1206,25
538,02	1345,52
538,21	1279,98
538,41	1263,60
538,61	1286,12
538,81	1290,22
539,00	1239,02
539,20	1310,70
539,40	1310,70
539,60	1243,12
539,79	1271,79
539,99	1245,16
540,19	1234,93
540,39	1310,70
540,58	1318,89
540,78	1271,79
540,98	1271,79
541,18	1224,69
541,37	1226,73
541,57	1288,17
541,77	1325,04
541,97	1253,36
542,16	1310,70
542,36	1255,40
542,56	1294,32
542,76	1310,70
542,95	1279,98
543,15	1284,08
543,35	1263,60
543,54	1243,12
543,74	1263,60
543,94	1269,74
544,14	1312,75
544,33	1316,84
544,53	1259,50
544,73	1277,93
544,93	1269,74
545,12	1234,93
545,32	1318,89
545,52	1288,17
545,71	1294,32
545,91	1304,56
546,11	1273,84
546,30	1200,11
546,50	1314,80
546,70	1165,29
546,90	1208,30
547,09	1273,84
547,29	1310,70
547,49	1273,84
547,68	1294,32
547,88	1300,46
548,08	1263,60
548,27	1329,13
548,47	1312,75
548,67	1220,59
548,87	1282,03
549,06	1228,78
549,26	1247,21
549,46	1234,93
549,65	1273,84
549,85	1261,55
550,05	1316,84
550,24	1273,84
550,44	1282,03
550,64	1257,45
550,83	1249,26
551,03	1261,55
551,23	1282,03
551,42	1148,91
551,62	1271,79
551,82	1279,98
552,01	1290,22
552,21	1245,16
552,41	1251,31
552,60	1286,12
552,80	1255,40
553,00	1306,60
553,19	1300,46
553,39	1255,40
553,59	1265,64
553,78	1308,65
553,98	1239,02
554,17	1249,26
554,37	1255,40
554,57	1316,84
554,76	1306,60
554,96	1286,12
555,16	1282,03
555,35	1284,08
555,55	1286,12
555,75	1288,17
555,94	1271,79
556,14	1259,50
556,33	1255,40
556,53	1210,35
556,73	1255,40
556,92	1312,75
557,12	1288,17
557,32	1294,32
557,51	1298,41
557,71	1222,64
557,90	1304,56
558,10	1253,36
558,30	1273,84
558,49	1255,40
558,69	1273,84
558,88	1218,54
559,08	1277,93
559,28	1220,59
559,47	1310,70
559,67	1177,58
559,86	1308,65
560,06	1265,64
560,26	1288,17
560,45	1210,35
560,65	1310,70
560,84	1308,65
561,04	1212,40
561,24	1288,17
561,43	1261,55
561,63	1318,89
561,82	1310,70
562,02	1310,70
562,22	1249,26
562,41	1243,12
562,61	1255,40
562,80	1241,07
563,00	1265,64
563,19	1189,87
563,39	1236,97
563,59	1329,13
563,78	1273,84
563,98	1230,83
564,17	1249,26
564,37	1300,46
564,56	1277,93
564,76	1308,65
564,96	1212,40
565,15	1267,69
565,35	1308,65
565,54	1265,64
565,74	1216,49
565,93	1226,73
566,13	1247,21
566,32	1312,75
566,52	1273,84
566,71	1335,28
566,91	1228,78
567,11	1341,42
567,30	1290,22
567,50	1228,78
567,69	1232,88
567,89	1292,27
568,08	1249,26
568,28	1327,08
568,47	1255,40
568,67	1247,21
568,86	1267,69
569,06	1298,41
569,25	1257,45
569,45	1257,45
569,64	1322,99
569,84	1232,88
570,04	1243,12
570,23	1337,32
570,43	1312,75
570,62	1312,75
570,82	1247,21
571,01	1144,81
571,21	1304,56
571,40	1318,89
571,60	1316,84
571,79	1267,69
571,99	1253,36
572,18	1277,93
572,38	1298,41
572,57	1284,08
572,77	1306,60
572,96	1214,45
573,16	1275,88
573,35	1208,30
573,55	1284,08
573,74	1236,97
573,94	1284,08
574,13	1267,69
574,33	1284,08
574,52	1241,07
574,71	1206,25
574,91	1275,88
575,10	1210,35
575,30	1275,88
575,49	1234,93
575,69	1255,40
575,88	1257,45
576,08	1343,47
576,27	1218,54
576,47	1243,12
576,66	1325,04
576,86	1275,88
577,05	1236,97
577,25	1239,02
577,44	1320,94
577,64	1271,79
577,83	1294,32
578,02	1279,98
578,22	1284,08
578,41	1296,36
578,61	1277,93
578,80	1300,46
579,00	1304,56
579,19	1267,69
579,39	1329,13
579,58	1269,74
579,77	1343,47
579,97	1249,26
580,16	1279,98
580,36	1263,60
580,55	1249,26
580,75	1218,54
580,94	1271,79
581,13	1265,64
581,33	1320,94
581,52	1224,69
581,72	1325,04
581,91	1267,69
582,11	1234,93
582,30	1329,13
582,49	1228,78
582,69	1286,12
582,88	1275,88
583,08	1255,40
583,27	1282,03
583,47	1257,45
583,66	1298,41
583,85	1263,60
584,05	1249,26
584,24	1339,37
584,44	1236,97
584,63	1310,70
584,82	1361,90
585,02	1228,78
585,21	1234,93
585,41	1257,45
585,60	1277,93
585,79	1236,97
585,99	1337,32
586,18	1241,07
586,37	1312,75
586,57	1331,18
586,76	1255,40
586,96	1218,54
587,15	1298,41
587,34	1224,69
587,54	1290,22
587,73	1251,31
587,93	1279,98
588,12	1320,94
588,31	1279,98
588,51	1255,40
588,70	1314,80
588,89	1261,55
589,09	1234,93
589,28	1300,46
589,47	1232,88
589,67	1267,69
589,86	1224,69
590,06	1253,36
590,25	1257,45
590,44	1310,70
590,64	1234,93
590,83	1288,17
591,02	1279,98
591,22	1267,69
591,41	1263,60
591,60	1206,25
591,80	1277,93
591,99	1314,80
592,18	1269,74
592,38	1298,41
592,57	1253,36
592,76	1284,08
592,96	1306,60
593,15	1239,02
593,34	1294,32
593,54	1282,03
593,73	1259,50
593,92	1292,27
594,12	1316,84
594,31	1193,97
594,50	1296,36
594,70	1261,55
594,89	1333,23
595,08	1263,60
595,28	1259,50
595,47	1185,77
595,66	1282,03
595,86	1228,78
596,05	1345,52
596,24	1298,41
596,43	1267,69
596,63	1275,88
596,82	1259,50
597,01	1282,03
597,21	1220,59
597,40	1327,08
597,59	1218,54
597,79	1232,88
597,98	1214,45
598,17	1236,97
598,36	1243,12
598,56	1337,32
598,75	1282,03
598,94	1245,16
599,14	1302,51
599,33	1277,93
599,52	1284,08
599,71	1179,63
599,91	1333,23
600,10	1322,99
600,29	1284,08
600,48	1294,32
600,68	1261,55
600,87	1230,83
601,06	1306,60
601,26	1335,28
601,45	1259,50
601,64	1263,60
601,83	1230,83
602,03	1271,79
602,22	1261,55
602,41	1284,08
602,60	1275,88
602,80	1239,02
602,99	1234,93
603,18	1247,21
603,37	1228,78
603,57	1349,61
603,76	1265,64
603,95	1212,40
604,14	1318,89
604,34	1245,16
604,53	1277,93
604,72	1267,69
604,91	1275,88
605,10	1312,75
605,30	1265,64
605,49	1269,74
605,68	1298,41
605,87	1288,17
606,07	1341,42
606,26	1282,03
606,45	1263,60
606,64	1349,61
606,84	1310,70
607,03	1212,40
607,22	1247,21
607,41	1216,49
607,60	1310,70
607,80	1286,12
607,99	1247,21
608,18	1273,84
608,37	1302,51
608,56	1318,89
608,76	1341,42
608,95	1286,12
609,14	1245,16
609,33	1310,70
609,52	1228,78
609,72	1273,84
609,91	1175,53
610,10	1310,70
610,29	1308,65
610,48	1239,02
610,68	1243,12
610,87	1255,40
611,06	1277,93
611,25	1290,22
611,44	1312,75
611,63	1200,11
611,83	1288,17
612,02	1282,03
612,21	1325,04
612,40	1267,69
612,59	1263,60
612,79	1220,59
612,98	1241,07
613,17	1226,73
613,36	1277,93
613,55	1241,07
613,74	1400,81
613,93	1239,02
614,13	1247,21
614,32	1261,55
614,51	1310,70
614,70	1284,08
614,89	1183,73
615,08	1296,36
615,28	1386,47
615,47	1236,97
615,66	1302,51
615,85	1257,45
616,04	1259,50
616,23	1257,45
616,42	1259,50
616,62	1265,64
616,81	1339,37
617,00	1284,08
617,19	1351,66
617,38	1284,08
617,57	1302,51
617,76	1204,21
617,95	1253,36
618,15	1261,55
618,34	1347,56
618,53	1265,64
618,72	1247,21
618,91	1290,22
619,10	1259,50
619,29	1245,16
619,48	1228,78
619,68	1263,60
619,87	1310,70
620,06	1312,75
620,25	1290,22
620,44	1277,93
620,63	1249,26
620,82	1253,36
621,01	1263,60
621,20	1220,59
621,39	1277,93
621,59	1304,56
621,78	1236,97
621,97	1226,73
622,16	1320,94
622,35	1306,60
622,54	1288,17
622,73	1263,60
622,92	1355,76
623,11	1261,55
623,30	1273,84
623,49	1273,84
623,68	1236,97
623,88	1298,41
624,07	1253,36
624,26	1349,61
624,45	1267,69
624,64	1269,74
624,83	1277,93
625,02	1245,16
625,21	1312,75
625,40	1245,16
625,59	1257,45
625,78	1271,79
625,97	1308,65
626,16	1224,69
626,35	1292,27
626,54	1308,65
626,74	1325,04
626,93	1265,64
627,12	1282,03
627,31	1294,32
627,50	1312,75
627,69	1320,94
627,88	1302,51
628,07	1267,69
628,26	1243,12
628,45	1251,31
628,64	1318,89
628,83	1277,93
629,02	1298,41
629,21	1341,42
629,40	1294,32
629,59	1234,93
629,78	1279,98
629,97	1294,32
630,16	1290,22
630,35	1308,65
630,54	1304,56
630,73	1290,22
630,92	1300,46
631,11	1316,84
631,30	1361,90
631,49	1296,36
631,68	1413,10
631,87	1445,87
632,06	1445,87
632,25	1400,81
632,44	1472,49
632,63	1499,11
632,82	1753,06
633,01	2074,59
633,20	1656,81
633,39	1775,59
633,58	1834,98
633,77	1869,80
633,96	1761,25
634,15	1605,61
634,34	1746,92
634,53	1789,92
634,72	1669,09
634,91	1673,19
635,10	1615,85
635,29	1595,37
635,48	1484,78
635,67	1437,67
635,86	1443,82
636,05	1460,20
636,24	1339,37
636,43	1353,71
636,62	1345,52
636,81	1343,47
637,00	1337,32
637,19	1363,95
637,38	1384,43
637,57	1273,84
637,76	1304,56
637,95	1273,84
638,14	1353,71
638,33	1302,51
638,52	1298,41
638,71	1327,08
638,89	1271,79
639,08	1241,07
639,27	1320,94
639,46	1329,13
639,65	1232,88
639,84	1261,55
640,03	1247,21
640,22	1273,84
640,41	1376,24
640,60	1314,80
640,79	1236,97
640,98	1230,83
641,17	1310,70
641,36	1222,64
641,55	1277,93
641,74	1306,60
641,92	1277,93
642,11	1255,40
642,30	1247,21
642,49	1253,36
642,68	1275,88
642,87	1304,56
643,06	1241,07
643,25	1331,18
643,44	1331,18
643,63	1271,79
643,82	1298,41
644,00	1302,51
644,19	1349,61
644,38	1288,17
644,57	1269,74
644,76	1282,03
644,95	1249,26
645,14	1325,04
645,33	1329,13
645,52	1271,79
645,71	1218,54
645,89	1273,84
646,08	1271,79
646,27	1273,84
646,46	1308,65
646,65	1214,45
646,84	1261,55
647,03	1241,07
647,22	1292,27
647,40	1230,83
647,59	1208,30
647,78	1263,60
647,97	1275,88
648,16	1292,27
648,35	1247,21
648,54	1245,16
648,73	1232,88
648,91	1218,54
649,10	1261,55
649,29	1282,03
649,48	1245,16
649,67	1208,30
649,86	1241,07
650,05	1224,69
650,23	1288,17
650,42	1230,83
650,61	1304,56
650,80	1265,64
650,99	1228,78
651,18	1251,31
651,36	1220,59
651,55	1292,27
651,74	1243,12
651,93	1228,78
652,12	1269,74
652,31	1322,99
652,49	1318,89
652,68	1284,08
652,87	1230,83
653,06	1288,17
653,25	1249,26
653,44	1189,87
653,62	1263,60
653,81	1294,32
654,00	1341,42
654,19	1378,28
654,38	1265,64
654,56	1267,69
654,75	1263,60
654,94	1302,51
655,13	1267,69
655,32	1245,16
655,51	1271,79
655,69	1224,69
655,88	1335,28
656,07	1282,03
656,26	1310,70
656,45	1318,89
656,63	1359,85
656,82	1306,60
657,01	1341,42
657,20	1255,40
657,38	1294,32
657,57	1290,22
657,76	1255,40
657,95	1220,59
658,14	1267,69
658,32	1275,88
658,51	1306,60
658,70	1316,84
658,89	1271,79
659,08	1273,84
659,26	1310,70
659,45	1222,64
659,64	1251,31
659,83	1245,16
660,01	1343,47
660,20	1308,65
660,39	1339,37
660,58	1253,36
660,76	1224,69
660,95	1230,83
661,14	1216,49
661,33	1232,88
661,51	1320,94
661,70	1247,21
661,89	1368,04
662,08	1251,31
662,26	1333,23
662,45	1216,49
662,64	1310,70
662,83	1253,36
663,01	1269,74
663,20	1269,74
663,39	1249,26
663,58	1298,41
663,76	1288,17
663,95	1286,12
664,14	1296,36
664,32	1265,64
664,51	1398,76
664,70	1273,84
664,89	1222,64
665,07	1259,50
665,26	1298,41
665,45	1241,07
665,64	1224,69
665,82	1241,07
666,01	1273,84
666,20	1282,03
666,38	1308,65
666,57	1226,73
666,76	1206,25
666,95	1282,03
667,13	1269,74
667,32	1282,03
667,51	1239,02
667,69	1216,49
667,88	1263,60
668,07	1245,16
668,25	1318,89
668,44	1257,45
668,63	1222,64
668,81	1212,40
669,00	1286,12
669,19	1259,50
669,38	1193,97
669,56	1267,69
669,75	1294,32
669,94	1257,45
670,12	1269,74
670,31	1286,12
670,50	1277,93
670,68	1251,31
670,87	1320,94
671,06	1296,36
671,24	1220,59
671,43	1253,36
671,62	1277,93
671,80	1322,99
671,99	1255,40
672,18	1269,74
672,36	1259,50
672,55	1202,16
672,74	1312,75
672,92	1318,89
673,11	1302,51
673,29	1306,60
673,48	1308,65
673,67	1269,74
673,85	1204,21
674,04	1224,69
674,23	1247,21
674,41	1273,84
674,60	1224,69
674,79	1249,26
674,97	1257,45
675,16	1288,17
675,34	1191,92
675,53	1277,93
675,72	1277,93
675,90	1255,40
676,09	1296,36
676,28	1245,16
676,46	1259,50
676,65	1259,50
676,83	1284,08
677,02	1236,97
677,21	1251,31
677,39	1282,03
677,58	1269,74
677,77	1253,36
677,95	1228,78
678,14	1306,60
678,32	1288,17
678,51	1236,97
678,70	1322,99
678,88	1218,54
679,07	1267,69
679,25	1284,08
679,44	1341,42
679,63	1269,74
679,81	1308,65
680,00	1306,60
680,18	1208,30
680,37	1271,79
680,55	1345,52
680,74	1316,84
680,93	1239,02
681,11	1193,97
681,30	1288,17
681,48	1247,21
681,67	1216,49
681,85	1320,94
682,04	1290,22
682,23	1273,84
682,41	1261,55
682,60	1271,79
682,78	1271,79
682,97	1210,35
683,15	1222,64
683,34	1263,60
683,53	1296,36
683,71	1327,08
683,90	1267,69
684,08	1292,27
684,27	1273,84
684,45	1210,35
684,64	1325,04
684,82	1294,32
685,01	1331,18
685,19	1320,94
685,38	1230,83
685,57	1273,84
685,75	1284,08
685,94	1308,65
686,12	1298,41
686,31	1277,93
686,49	1288,17
686,68	1253,36
686,86	1226,73
687,05	1327,08
687,23	1247,21
687,42	1224,69
687,60	1296,36
687,79	1296,36
687,97	1310,70
688,16	1271,79
688,34	1245,16
688,53	1218,54
688,71	1327,08
688,90	1290,22
689,08	1255,40
689,27	1259,50
689,45	1306,60
689,64	1306,60
689,82	1279,98
690,01	1329,13
690,19	1265,64
690,38	1273,84
690,56	1273,84
690,75	1296,36
690,93	1298,41
691,12	1253,36
691,30	1247,21
691,49	1339,37
691,67	1271,79
691,86	1249,26
692,04	1257,45
692,23	1169,39
692,41	1261,55
692,60	1331,18
692,78	1265,64
692,97	1212,40
693,15	1327,08
693,34	1265,64
693,52	1271,79
693,71	1359,85
693,89	1294,32
694,08	1259,50
694,26	1253,36
694,44	1279,98
694,63	1204,21
694,81	1277,93
695,00	1306,60
695,18	1273,84
695,37	1273,84
695,55	1296,36
695,74	1294,32
695,92	1279,98
696,10	1337,32
696,29	1204,21
696,47	1193,97
696,66	1271,79
696,84	1261,55
697,03	1290,22
697,21	1290,22
697,40	1247,21
697,58	1279,98
697,76	1302,51
697,95	1218,54
698,13	1318,89
698,32	1259,50
698,50	1282,03
698,68	1249,26
698,87	1257,45
699,05	1241,07
699,24	1243,12
699,42	1200,11
699,61	1228,78
699,79	1306,60
699,97	1306,60
700,16	1314,80
700,34	1210,35
700,53	1177,58
700,71	1290,22
700,89	1339,37
701,08	1271,79
701,26	1310,70
701,45	1316,84
701,63	1347,56
701,81	1298,41
702,00	1279,98
702,18	1347,56
702,37	1322,99
702,55	1245,16
702,73	1304,56
702,92	1239,02
703,10	1273,84
703,28	1261,55
703,47	1226,73
703,65	1259,50
703,84	1239,02
704,02	1234,93
704,20	1329,13
704,39	1290,22
704,57	1222,64
704,75	1230,83
704,94	1294,32
705,12	1245,16
705,30	1230,83
705,49	1290,22
705,67	1302,51
705,86	1284,08
706,04	1220,59
706,22	1345,52
706,41	1282,03
706,59	1263,60
706,77	1263,60
706,96	1282,03
707,14	1316,84
707,32	1351,66
707,51	1284,08
707,69	1241,07
707,87	1314,80
708,06	1232,88
708,24	1263,60
708,42	1243,12
708,61	1298,41
708,79	1275,88
708,97	1259,50
709,16	1288,17
709,34	1300,46
709,52	1343,47
709,71	1251,31
709,89	1267,69
710,07	1236,97
710,26	1196,01
710,44	1277,93
710,62	1187,82
710,80	1288,17
710,99	1245,16
711,17	1277,93
711,35	1263,60
711,54	1310,70
711,72	1300,46
711,90	1224,69
712,09	1306,60
712,27	1282,03
712,45	1275,88
712,63	1216,49
712,82	1259,50
713,00	1341,42
713,18	1345,52
713,37	1296,36
713,55	1263,60
713,73	1265,64
713,91	1314,80
714,10	1298,41
714,28	1279,98
714,46	1304,56
714,65	1224,69
714,83	1228,78
715,01	1253,36
715,19	1214,45
715,38	1322,99
715,56	1239,02
715,74	1230,83
715,92	1292,27
716,11	1298,41
716,29	1236,97
716,47	1277,93
716,65	1273,84
716,84	1363,95
717,02	1245,16
717,20	1183,73
717,38	1284,08
717,57	1288,17
717,75	1216,49
717,93	1267,69
718,11	1257,45
718,30	1267,69
718,48	1230,83
718,66	1208,30
718,84	1263,60
719,03	1320,94
719,21	1247,21
719,39	1292,27
719,57	1318,89
719,75	1279,98
719,94	1261,55
720,12	1230,83
720,30	1241,07
720,48	1224,69
720,67	1259,50
720,85	1290,22
721,03	1298,41
721,21	1251,31
721,39	1226,73
721,58	1245,16
721,76	1277,93
721,94	1308,65
722,12	1247,21
722,30	1212,40
722,49	1298,41
722,67	1290,22
722,85	1255,40
723,03	1243,12
723,21	1277,93
723,40	1269,74
723,58	1300,46
723,76	1314,80
723,94	1253,36
724,12	1277,93
724,30	1343,47
724,49	1286,12
724,67	1314,80
724,85	1247,21
725,03	1234,93
725,21	1282,03
725,40	1273,84
725,58	1198,06
725,76	1312,75
725,94	1263,60
726,12	1255,40
726,30	1273,84
726,49	1222,64
726,67	1249,26
726,85	1294,32
727,03	1267,69
727,21	1343,47
727,39	1159,15
727,57	1273,84
727,76	1300,46
727,94	1236,97
728,12	1198,06
728,30	1261,55
728,48	1290,22
728,66	1261,55
728,84	1236,97
729,03	1329,13
729,21	1249,26
729,39	1314,80
729,57	1243,12
729,75	1265,64
729,93	1294,32
730,11	1312,75
730,30	1247,21
730,48	1177,58
730,66	1308,65
730,84	1269,74
731,02	1251,31
731,20	1286,12
731,38	1345,52
731,56	1249,26
731,74	1269,74
731,93	1187,82
732,11	1275,88
732,29	1318,89
732,47	1259,50
732,65	1296,36
732,83	1257,45
733,01	1312,75
733,19	1271,79
733,37	1241,07
733,56	1255,40
733,74	1234,93
733,92	1310,70
734,10	1269,74
734,28	1327,08
734,46	1241,07
734,64	1243,12
734,82	1337,32
735,00	1288,17
735,18	1251,31
735,36	1214,45
735,54	1241,07
735,73	1279,98
735,91	1222,64
736,09	1261,55
736,27	1279,98
736,45	1294,32
736,63	1277,93
736,81	1273,84
736,99	1245,16
737,17	1267,69
737,35	1294,32
737,53	1255,40
737,71	1247,21
737,89	1284,08
738,07	1210,35
738,25	1245,16
738,43	1214,45
738,61	1204,21
738,80	1273,84
738,98	1247,21
739,16	1265,64
739,34	1286,12
739,52	1251,31
739,70	1181,68
739,88	1185,77
740,06	1282,03
740,24	1232,88
740,42	1380,33
740,60	1306,60
740,78	1269,74
740,96	1302,51
741,14	1304,56
741,32	1255,40
741,50	1361,90
741,68	1331,18
741,86	1261,55
742,04	1189,87
742,22	1251,31
742,40	1314,80
742,58	1216,49
742,76	1308,65
742,94	1314,80
743,12	1294,32
743,30	1216,49
743,48	1261,55
743,66	1253,36
743,84	1263,60
744,02	1277,93
744,20	1343,47
744,38	1263,60
744,56	1273,84
744,74	1241,07
744,92	1279,98
745,10	1232,88
745,28	1290,22
745,46	1298,41
745,64	1257,45
745,82	1249,26
746,00	1304,56
746,18	1236,97
746,36	1337,32
746,54	1222,64
746,72	1279,98
746,90	1261,55
747,08	1271,79
747,26	1286,12
747,44	1222,64
747,62	1267,69
747,80	1269,74
747,98	1265,64
748,15	1263,60
748,33	1255,40
748,51	1325,04
748,69	1316,84
748,87	1353,71
749,05	1298,41
749,23	1263,60
749,41	1279,98
749,59	1351,66
749,77	1277,93
749,95	1271,79
750,13	1314,80
750,31	1296,36
750,49	1212,40
750,67	1298,41
750,85	1288,17
751,03	1241,07
751,20	1349,61
751,38	1286,12
751,56	1245,16
751,74	1302,51
751,92	1259,50
752,10	1284,08
752,28	1310,70
752,46	1200,11
752,64	1341,42
752,82	1275,88
753,00	1322,99
753,18	1267,69
753,35	1230,83
753,53	1228,78
753,71	1294,32
753,89	1292,27
754,07	1294,32
754,25	1234,93
754,43	1228,78
754,61	1171,44
754,79	1265,64
754,97	1314,80
755,14	1222,64
755,32	1251,31
755,50	1255,40
755,68	1204,21
755,86	1228,78
756,04	1267,69
756,22	1302,51
756,40	1286,12
756,57	1279,98
756,75	1335,28
756,93	1290,22
757,11	1208,30
757,29	1234,93
757,47	1343,47
757,65	1304,56
757,82	1271,79
758,00	1251,31
758,18	1279,98
758,36	1286,12
758,54	1208,30
758,72	1220,59
758,90	1261,55
759,07	1296,36
759,25	1261,55
759,43	1314,80
759,61	1210,35
759,79	1288,17
759,97	1267,69
760,15	1302,51
760,32	1251,31
760,50	1230,83
760,68	1347,56
760,86	1230,83
761,04	1265,64
761,22	1222,64
761,39	1277,93
761,57	1327,08
761,75	1286,12
761,93	1378,28
762,11	1306,60
762,28	1208,30
762,46	1306,60
762,64	1224,69
762,82	1288,17
763,00	1298,41
763,18	1226,73
763,35	1292,27
763,53	1366,00
763,71	1304,56
763,89	1247,21
764,07	1273,84
764,24	1222,64
764,42	1175,53
764,60	1234,93
764,78	1302,51
764,96	1294,32
765,13	1304,56
765,31	1292,27
765,49	1257,45
765,67	1279,98
765,84	1267,69
766,02	1236,97
766,20	1224,69
766,38	1290,22
766,56	1335,28
766,73	1222,64
766,91	1255,40
767,09	1300,46
767,27	1277,93
767,44	1200,11
767,62	1302,51
767,80	1341,42
767,98	1304,56
768,15	1228,78
768,33	1294,32
768,51	1269,74
768,69	1261,55
768,87	1275,88
769,04	1322,99
769,22	1337,32
769,40	1300,46
769,58	1298,41
769,75	1251,31
769,93	1318,89
770,11	1366,00
770,28	1265,64
770,46	1361,90
770,64	1331,18
770,82	1271,79
770,99	1286,12
771,17	1236,97
771,35	1275,88
771,53	1220,59
771,70	1300,46
771,88	1282,03
772,06	1322,99
772,23	1372,14
772,41	1298,41
772,59	1327,08
772,77	1290,22
772,94	1265,64
773,12	1251,31
773,30	1306,60
773,47	1218,54
773,65	1257,45
773,83	1363,95
774,01	1320,94
774,18	1226,73
774,36	1257,45
774,54	1282,03
774,71	1329,13
774,89	1249,26
775,07	1300,46
775,24	1218,54
775,42	1304,56
775,60	1292,27
775,78	1191,92
775,95	1196,01
776,13	1249,26
776,31	1196,01
776,48	1318,89
776,66	1206,25
776,84	1228,78
777,01	1222,64
777,19	1304,56
777,37	1298,41
777,54	1253,36
777,72	1290,22
777,90	1216,49
778,07	1249,26
778,25	1325,04
778,43	1257,45
778,60	1275,88
778,78	1308,65
778,96	1210,35
779,13	1269,74
779,31	1189,87
779,49	1206,25
779,66	1249,26
779,84	1265,64
780,01	1370,09
780,19	1298,41
780,37	1316,84
780,54	1277,93
780,72	1347,56
780,90	1257,45
781,07	1226,73
781,25	1273,84
781,43	1247,21
781,60	1261,55
781,78	1263,60
781,95	1245,16
782,13	1304,56
782,31	1302,51
782,48	1220,59
782,66	1329,13
782,83	1277,93
783,01	1331,18
783,19	1220,59
783,36	1249,26
783,54	1314,80
783,72	1273,84
783,89	1296,36
784,07	1298,41
784,24	1298,41
784,42	1253,36
784,60	1331,18
784,77	1236,97
784,95	1218,54
785,12	1202,16
785,30	1294,32
785,47	1236,97
785,65	1288,17
785,83	1265,64
786,00	1265,64
786,18	1296,36
786,35	1312,75
786,53	1236,97
786,71	1251,31
786,88	1234,93
787,06	1302,51
787,23	1245,16
787,41	1226,73
787,58	1277,93
787,76	1236,97
787,94	1314,80
788,11	1273,84
788,29	1216,49
788,46	1259,50
788,64	1282,03
788,81	1210,35
788,99	1230,83
789,16	1335,28
789,34	1208,30
789,52	1300,46
789,69	1245,16
789,87	1236,97
790,04	1304,56
790,22	1257,45
790,39	1230,83
790,57	1271,79
790,74	1314,80
790,92	1261,55
791,09	1279,98
791,27	1257,45
791,44	1284,08
791,62	1314,80
791,79	1259,50
791,97	1257,45
792,15	1288,17
792,32	1310,70
792,50	1259,50
792,67	1298,41
792,85	1185,77
793,02	1286,12
793,20	1327,08
793,37	1253,36
793,55	1239,02
793,72	1288,17
793,90	1290,22
794,07	1302,51
794,25	1318,89
794,42	1314,80
794,60	1347,56
794,77	1296,36
794,95	1300,46
795,12	1230,83
795,30	1236,97
795,47	1273,84
795,65	1253,36
795,82	1212,40
796,00	1298,41
796,17	1314,80
796,34	1261,55
796,52	1282,03
796,69	1318,89
796,87	1265,64
797,04	1257,45
797,22	1294,32
797,39	1224,69
797,57	1312,75
797,74	1353,71
797,92	1269,74
798,09	1234,93
798,27	1304,56
798,44	1279,98
798,62	1206,25
798,79	1261,55
798,96	1353,71
799,14	1257,45
799,31	1259,50
799,49	1339,37
799,66	1318,89
799,84	1302,51
800,01	1220,59
800,19	1320,94
800,36	1249,26
800,53	1298,41
800,71	1288,17
800,88	1273,84
801,06	1259,50
801,23	1269,74
801,41	1212,40
801,58	1247,21
801,75	1347,56
801,93	1343,47
802,10	1271,79
802,28	1290,22
802,45	1230,83
802,63	1357,80
802,80	1316,84
802,97	1236,97
803,15	1273,84
803,32	1271,79
803,50	1331,18
803,67	1247,21
803,84	1261,55
804,02	1265,64
804,19	1294,32
804,37	1177,58
804,54	1249,26
804,71	1247,21
804,89	1275,88
805,06	1230,83
805,24	1218,54
805,41	1263,60
805,58	1245,16
805,76	1306,60
805,93	1273,84
806,10	1257,45
806,28	1245,16
806,45	1271,79
806,63	1257,45
806,80	1208,30
806,97	1204,21
807,15	1282,03
807,32	1236,97
807,49	1257,45
807,67	1251,31
807,84	1357,80
808,01	1318,89
808,19	1253,36
808,36	1329,13
808,54	1279,98
808,71	1267,69
808,88	1284,08
809,06	1257,45
809,23	1249,26
809,40	1316,84
809,58	1255,40
809,75	1228,78
809,92	1239,02
810,10	1208,30
810,27	1288,17
810,44	1271,79
810,62	1220,59
810,79	1234,93
810,96	1239,02
811,14	1253,36
811,31	1300,46
811,48	1214,45
811,66	1239,02
811,83	1226,73
812,00	1294,32
812,18	1263,60
812,35	1298,41
812,52	1273,84
812,69	1224,69
812,87	1320,94
813,04	1265,64
813,21	1277,93
813,39	1296,36
813,56	1212,40
813,73	1302,51
813,91	1251,31
814,08	1294,32
814,25	1318,89
814,42	1298,41
814,60	1239,02
814,77	1320,94
814,94	1224,69
815,12	1312,75
815,29	1265,64
815,46	1265,64
815,63	1314,80
815,81	1241,07
815,98	1294,32
816,15	1273,84
816,33	1232,88
816,50	1288,17
816,67	1210,35
816,84	1288,17
817,02	1265,64
817,19	1294,32
817,36	1271,79
817,53	1298,41
817,71	1279,98
817,88	1200,11
818,05	1345,52
818,22	1314,80
818,40	1230,83
818,57	1290,22
818,74	1271,79
818,91	1269,74
819,09	1273,84
819,26	1312,75
819,43	1198,06
819,60	1355,76
819,78	1226,73
819,95	1271,79
820,12	1265,64
820,29	1329,13
820,47	1222,64
820,64	1271,79
820,81	1349,61
820,98	1196,01
821,15	1265,64
821,33	1273,84
821,50	1228,78
821,67	1255,40
821,84	1261,55
822,02	1279,98
822,19	1177,58
822,36	1310,70
822,53	1277,93
822,70	1308,65
822,88	1322,99
823,05	1273,84
823,22	1249,26
823,39	1257,45
823,56	1253,36
823,74	1310,70
823,91	1275,88
824,08	1257,45
824,25	1245,16
824,42	1343,47
824,60	1269,74
824,77	1288,17
824,94	1257,45
825,11	1165,29
825,28	1275,88
825,45	1251,31
825,63	1232,88
825,80	1284,08
825,97	1267,69
826,14	1288,17
826,31	1245,16
826,48	1277,93
826,66	1304,56
826,83	1206,25
827,00	1308,65
827,17	1228,78
827,34	1277,93
827,51	1216,49
827,69	1296,36
827,86	1269,74
828,03	1310,70
828,20	1275,88
828,37	1322,99
828,54	1265,64
828,71	1253,36
828,89	1304,56
829,06	1249,26
829,23	1232,88
829,40	1273,84
829,57	1318,89
829,74	1282,03
829,91	1298,41
830,09	1257,45
830,26	1239,02
830,43	1284,08
830,60	1226,73
830,77	1273,84
830,94	1269,74
831,11	1255,40
831,28	1325,04
831,46	1271,79
831,63	1265,64
831,80	1269,74
831,97	1298,41
832,14	1212,40
832,31	1290,22
832,48	1277,93
832,65	1300,46
832,82	1226,73
832,99	1257,45
833,17	1312,75
833,34	1296,36
833,51	1271,79
833,68	1251,31
833,85	1247,21
834,02	1198,06
834,19	1239,02
834,36	1349,61
834,53	1230,83
834,70	1214,45
834,87	1282,03
835,04	1284,08
835,22	1269,74
835,39	1327,08
835,56	1292,27
835,73	1267,69
835,90	1210,35
836,07	1296,36
836,24	1269,74
836,41	1265,64
836,58	1282,03
836,75	1302,51
836,92	1322,99
837,09	1302,51
837,26	1300,46
837,43	1339,37
837,60	1241,07
837,77	1288,17
837,94	1314,80
838,12	1290,22
838,29	1318,89
838,46	1296,36
838,63	1230,83
838,80	1257,45
838,97	1261,55
839,14	1308,65
839,31	1312,75
839,48	1243,12
839,65	1257,45
839,82	1239,02
839,99	1241,07
840,16	1339,37
840,33	1226,73
840,50	1331,18
840,67	1216,49
840,84	1261,55
841,01	1230,83
841,18	1189,87
841,35	1320,94
841,52	1249,26
841,69	1263,60
841,86	1255,40
842,03	1273,84
842,20	1290,22
842,37	1220,59
842,54	1226,73
842,71	1239,02
842,88	1306,60
843,05	1277,93
843,22	1239,02
843,39	1243,12
843,56	1304,56
843,73	1294,32
843,90	1286,12
844,07	1288,17
844,24	1267,69
844,41	1296,36
844,58	1359,85
844,75	1337,32
844,92	1247,21
845,09	1341,42
845,26	1339,37
845,43	1249,26
845,60	1245,16
845,77	1322,99
845,94	1357,80
846,10	1279,98
846,27	1210,35
846,44	1216,49
846,61	1249,26
846,78	1236,97
846,95	1263,60
847,12	1376,24
847,29	1296,36
847,46	1306,60
847,63	1245,16
847,80	1204,21
847,97	1255,40
848,14	1288,17
848,31	1306,60
848,48	1257,45
848,65	1273,84
848,82	1347,56
848,98	1298,41
849,15	1249,26
849,32	1347,56
849,49	1269,74
849,66	1275,88
849,83	1296,36
850,00	1277,93
850,17	1249,26
850,34	1347,56
850,51	1284,08
850,68	1322,99
850,85	1210,35
851,01	1202,16
851,18	1296,36
851,35	1294,32
851,52	1339,37
851,69	1345,52
851,86	1200,11
852,03	1261,55
852,20	1329,13
852,37	1296,36
852,53	1282,03
852,70	1282,03
852,87	1304,56
853,04	1275,88
853,21	1222,64
853,38	1310,70
853,55	1214,45
853,72	1261,55
853,89	1282,03
854,05	1296,36
854,22	1300,46
854,39	1298,41
854,56	1282,03
854,73	1249,26
854,90	1255,40
855,07	1253,36
855,23	1259,50
855,40	1275,88
855,57	1216,49
855,74	1282,03
855,91	1249,26
856,08	1232,88
856,25	1257,45
856,41	1302,51
856,58	1322,99
856,75	1249,26
856,92	1286,12
857,09	1296,36
857,26	1239,02
857,42	1255,40
857,59	1277,93
857,76	1273,84
857,93	1263,60
858,10	1325,04
858,27	1282,03
858,43	1322,99
858,60	1290,22
858,77	1292,27
858,94	1318,89
859,11	1261,55
859,27	1308,65
859,44	1273,84
859,61	1290,22
859,78	1359,85
859,95	1286,12
860,12	1304,56
860,28	1241,07
860,45	1292,27
860,62	1302,51
860,79	1234,93
860,95	1212,40
861,12	1277,93
861,29	1271,79
861,46	1304,56
861,63	1269,74
861,79	1210,35
861,96	1269,74
862,13	1275,88
862,30	1284,08
862,47	1290,22
862,63	1236,97
862,80	1216,49
862,97	1232,88
863,14	1290,22
863,30	1273,84
863,47	1206,25
863,64	1302,51
863,81	1228,78
863,97	1302,51
864,14	1245,16
864,31	1294,32
864,48	1273,84
864,65	1239,02
864,81	1306,60
864,98	1265,64
865,15	1271,79
865,32	1349,61
865,48	1318,89
865,65	1279,98
865,82	1329,13
865,98	1284,08
866,15	1355,76
866,32	1273,84
866,49	1257,45
866,65	1329,13
866,82	1292,27
866,99	1210,35
867,16	1220,59
867,32	1247,21
867,49	1277,93
867,66	1257,45
867,83	1261,55
867,99	1275,88
868,16	1204,21
868,33	1261,55
868,49	1265,64
868,66	1214,45
868,83	1273,84
868,99	1308,65
869,16	1189,87
869,33	1271,79
869,50	1320,94
869,66	1290,22
869,83	1259,50
870,00	1282,03
870,16	1314,80
870,33	1269,74
870,50	1296,36
870,66	1224,69
870,83	1304,56
871,00	1249,26
871,17	1282,03
871,33	1249,26
871,50	1218,54
871,67	1292,27
871,83	1314,80
872,00	1245,16
872,17	1243,12
872,33	1265,64
872,50	1253,36
872,67	1296,36
872,83	1320,94
873,00	1292,27
873,17	1314,80
873,33	1300,46
873,50	1265,64
873,67	1316,84
873,83	1228,78
874,00	1306,60
874,16	1302,51
874,33	1296,36
874,50	1290,22
874,66	1294,32
874,83	1275,88
875,00	1284,08
875,16	1202,16
875,33	1337,32
875,50	1261,55
875,66	1304,56
875,83	1189,87
875,99	1273,84
876,16	1279,98
876,33	1255,40
876,49	1263,60
876,66	1363,95
876,83	1202,16
876,99	1318,89
877,16	1245,16
877,32	1296,36
877,49	1292,27
877,66	1232,88
877,82	1255,40
877,99	1259,50
878,15	1290,22
878,32	1263,60
878,49	1282,03
878,65	1335,28
878,82	1222,64
878,98	1241,07
879,15	1366,00
879,32	1214,45
879,48	1273,84
879,65	1331,18
879,81	1214,45
879,98	1288,17
880,15	1357,80
880,31	1245,16
880,48	1277,93
880,64	1312,75
880,81	1279,98
880,97	1322,99
881,14	1296,36
881,31	1302,51
881,47	1349,61
881,64	1347,56
881,80	1269,74
881,97	1339,37
882,13	1267,69
882,30	1241,07
882,47	1271,79
882,63	1249,26
882,80	1279,98
882,96	1263,60
883,13	1263,60
883,29	1282,03
883,46	1347,56
883,62	1368,04
883,79	1290,22
883,95	1333,23
884,12	1251,31
884,29	1306,60
884,45	1314,80
884,62	1296,36
884,78	1245,16
884,95	1345,52
885,11	1214,45
885,28	1273,84
885,44	1259,50
885,61	1282,03
885,77	1275,88
885,94	1296,36
886,10	1294,32
886,27	1257,45
886,43	1277,93
886,60	1263,60
886,76	1259,50
886,93	1275,88
887,09	1318,89
887,26	1337,32
887,42	1210,35
887,59	1286,12
887,75	1290,22
887,92	1282,03
888,08	1304,56
888,25	1214,45
888,41	1239,02
888,58	1290,22
888,74	1318,89
888,91	1277,93
>>>>>End Processed Spectral Data<<<<<
