SpectraSuite Data File
++++++++++++++++++++++++++++++++++++
Date: Sun Apr 03 14:22:34 CEST 2016
User: root
Dark Spectrum Present: No
Reference Spectrum Present: No
Number of Sampled Component Spectra: 1
Spectrometers: USB4C02835
Integration Time (usec): 10000 (USB4C02835)
Spectra Averaged: 1 (USB4C02835)
Boxcar Smoothing: 0 (USB4C02835)
Correct for Electrical Dark: No (USB4C02835)
Strobe/Lamp Enabled: No (USB4C02835)
Correct for Detector Non-linearity: No (USB4C02835)
Correct for Stray Light: No (USB4C02835)
Number of Pixels in Processed Spectrum: 3648
>>>>>Begin Processed Spectral Data<<<<<
177,47	1183,73
177,69	1183,73
177,91	1183,73
178,13	1249,26
178,36	1241,07
178,58	1273,84
178,80	1267,69
179,02	1312,75
179,24	1249,26
179,46	1290,22
179,68	1271,79
179,90	1255,40
180,13	1275,88
180,35	1247,21
180,57	1263,60
180,79	1290,22
181,01	1322,99
181,23	1249,26
181,45	1322,99
181,67	1302,51
181,90	1292,27
182,12	1279,98
182,34	1288,17
182,56	1286,12
182,78	1292,27
183,00	1249,26
183,22	1261,55
183,44	1277,93
183,66	1212,40
183,89	1247,21
184,11	1296,36
184,33	1290,22
184,55	1286,12
184,77	1335,28
184,99	1316,84
185,21	1306,60
185,43	1261,55
185,65	1292,27
185,87	1312,75
186,10	1294,32
186,32	1228,78
186,54	1249,26
186,76	1214,45
186,98	1294,32
187,20	1267,69
187,42	1302,51
187,64	1255,40
187,86	1251,31
188,08	1216,49
188,30	1226,73
188,52	1220,59
188,75	1185,77
188,97	1198,06
189,19	1200,11
189,41	1210,35
189,63	1271,79
189,85	1230,83
190,07	1271,79
190,29	1206,25
190,51	1275,88
190,73	1216,49
190,95	1282,03
191,17	1216,49
191,39	1322,99
191,61	1282,03
191,84	1263,60
192,06	1290,22
192,28	1255,40
192,50	1376,24
192,72	1292,27
192,94	1279,98
193,16	1265,64
193,38	1288,17
193,60	1263,60
193,82	1216,49
194,04	1296,36
194,26	1296,36
194,48	1263,60
194,70	1253,36
194,92	1267,69
195,14	1310,70
195,36	1245,16
195,58	1263,60
195,80	1282,03
196,02	1304,56
196,24	1318,89
196,46	1288,17
196,69	1265,64
196,91	1265,64
197,13	1333,23
197,35	1282,03
197,57	1282,03
197,79	1316,84
198,01	1210,35
198,23	1249,26
198,45	1296,36
198,67	1261,55
198,89	1310,70
199,11	1298,41
199,33	1224,69
199,55	1255,40
199,77	1261,55
199,99	1308,65
200,21	1298,41
200,43	1232,88
200,65	1347,56
200,87	1234,93
201,09	1286,12
201,31	1234,93
201,53	1253,36
201,75	1271,79
201,97	1329,13
202,19	1224,69
202,41	1353,71
202,63	1327,08
202,85	1288,17
203,07	1247,21
203,29	1239,02
203,51	1316,84
203,73	1316,84
203,95	1236,97
204,17	1294,32
204,39	1284,08
204,61	1282,03
204,83	1247,21
205,05	1366,00
205,27	1261,55
205,49	1327,08
205,71	1351,66
205,93	1331,18
206,15	1241,07
206,37	1279,98
206,59	1331,18
206,81	1327,08
207,03	1282,03
207,25	1232,88
207,47	1316,84
207,69	1269,74
207,91	1331,18
208,13	1277,93
208,34	1216,49
208,56	1224,69
208,78	1202,16
209,00	1306,60
209,22	1294,32
209,44	1228,78
209,66	1230,83
209,88	1312,75
210,10	1302,51
210,32	1263,60
210,54	1304,56
210,76	1140,72
210,98	1271,79
211,20	1296,36
211,42	1277,93
211,64	1234,93
211,86	1269,74
212,08	1245,16
212,30	1206,25
212,52	1226,73
212,74	1275,88
212,96	1251,31
213,17	1292,27
213,39	1275,88
213,61	1296,36
213,83	1406,95
214,05	1286,12
214,27	1259,50
214,49	1282,03
214,71	1241,07
214,93	1359,85
215,15	1251,31
215,37	1239,02
215,59	1265,64
215,81	1314,80
216,03	1255,40
216,24	1282,03
216,46	1290,22
216,68	1243,12
216,90	1294,32
217,12	1304,56
217,34	1273,84
217,56	1257,45
217,78	1282,03
218,00	1267,69
218,22	1267,69
218,44	1220,59
218,66	1355,76
218,87	1210,35
219,09	1265,64
219,31	1263,60
219,53	1304,56
219,75	1214,45
219,97	1259,50
220,19	1320,94
220,41	1239,02
220,63	1255,40
220,85	1292,27
221,06	1279,98
221,28	1271,79
221,50	1251,31
221,72	1296,36
221,94	1273,84
222,16	1271,79
222,38	1232,88
222,60	1277,93
222,82	1343,47
223,03	1243,12
223,25	1273,84
223,47	1296,36
223,69	1247,21
223,91	1232,88
224,13	1310,70
224,35	1261,55
224,57	1347,56
224,78	1277,93
225,00	1335,28
225,22	1216,49
225,44	1300,46
225,66	1218,54
225,88	1292,27
226,10	1265,64
226,32	1277,93
226,53	1310,70
226,75	1279,98
226,97	1290,22
227,19	1236,97
227,41	1269,74
227,63	1314,80
227,85	1277,93
228,06	1220,59
228,28	1310,70
228,50	1216,49
228,72	1286,12
228,94	1286,12
229,16	1286,12
229,37	1279,98
229,59	1282,03
229,81	1304,56
230,03	1245,16
230,25	1249,26
230,47	1284,08
230,69	1286,12
230,90	1298,41
231,12	1234,93
231,34	1251,31
231,56	1298,41
231,78	1277,93
232,00	1212,40
232,21	1183,73
232,43	1243,12
232,65	1212,40
232,87	1255,40
233,09	1298,41
233,30	1251,31
233,52	1243,12
233,74	1290,22
233,96	1261,55
234,18	1185,77
234,40	1331,18
234,61	1239,02
234,83	1261,55
235,05	1318,89
235,27	1234,93
235,49	1277,93
235,70	1234,93
235,92	1236,97
236,14	1312,75
236,36	1253,36
236,58	1310,70
236,79	1298,41
237,01	1290,22
237,23	1265,64
237,45	1257,45
237,67	1275,88
237,88	1220,59
238,10	1374,19
238,32	1294,32
238,54	1263,60
238,76	1298,41
238,97	1265,64
239,19	1247,21
239,41	1351,66
239,63	1220,59
239,85	1189,87
240,06	1255,40
240,28	1255,40
240,50	1269,74
240,72	1314,80
240,93	1288,17
241,15	1214,45
241,37	1312,75
241,59	1216,49
241,81	1241,07
242,02	1255,40
242,24	1265,64
242,46	1290,22
242,68	1298,41
242,89	1232,88
243,11	1361,90
243,33	1232,88
243,55	1286,12
243,76	1329,13
243,98	1279,98
244,20	1284,08
244,42	1249,26
244,64	1282,03
244,85	1261,55
245,07	1372,14
245,29	1292,27
245,51	1306,60
245,72	1234,93
245,94	1370,09
246,16	1271,79
246,38	1294,32
246,59	1263,60
246,81	1261,55
247,03	1282,03
247,24	1273,84
247,46	1241,07
247,68	1251,31
247,90	1318,89
248,11	1316,84
248,33	1228,78
248,55	1368,04
248,77	1245,16
248,98	1314,80
249,20	1304,56
249,42	1341,42
249,64	1261,55
249,85	1292,27
250,07	1243,12
250,29	1277,93
250,50	1333,23
250,72	1282,03
250,94	1271,79
251,16	1269,74
251,37	1351,66
251,59	1267,69
251,81	1267,69
252,02	1232,88
252,24	1290,22
252,46	1300,46
252,68	1218,54
252,89	1292,27
253,11	1337,32
253,33	1331,18
253,54	1304,56
253,76	1277,93
253,98	1251,31
254,20	1249,26
254,41	1249,26
254,63	1302,51
254,85	1251,31
255,06	1247,21
255,28	1329,13
255,50	1191,92
255,71	1224,69
255,93	1279,98
256,15	1267,69
256,36	1310,70
256,58	1257,45
256,80	1347,56
257,02	1241,07
257,23	1290,22
257,45	1271,79
257,67	1286,12
257,88	1312,75
258,10	1259,50
258,32	1294,32
258,53	1241,07
258,75	1304,56
258,97	1290,22
259,18	1304,56
259,40	1247,21
259,62	1265,64
259,83	1255,40
260,05	1222,64
260,27	1273,84
260,48	1322,99
260,70	1265,64
260,92	1245,16
261,13	1208,30
261,35	1245,16
261,57	1296,36
261,78	1271,79
262,00	1279,98
262,22	1269,74
262,43	1296,36
262,65	1263,60
262,86	1267,69
263,08	1282,03
263,30	1230,83
263,51	1253,36
263,73	1265,64
263,95	1300,46
264,16	1282,03
264,38	1232,88
264,60	1312,75
264,81	1222,64
265,03	1310,70
265,25	1306,60
265,46	1212,40
265,68	1232,88
265,89	1318,89
266,11	1282,03
266,33	1351,66
266,54	1263,60
266,76	1218,54
266,98	1300,46
267,19	1304,56
267,41	1216,49
267,62	1316,84
267,84	1247,21
268,06	1239,02
268,27	1282,03
268,49	1243,12
268,70	1261,55
268,92	1273,84
269,14	1261,55
269,35	1279,98
269,57	1251,31
269,79	1284,08
270,00	1224,69
270,22	1329,13
270,43	1273,84
270,65	1288,17
270,87	1224,69
271,08	1294,32
271,30	1322,99
271,51	1265,64
271,73	1322,99
271,95	1191,92
272,16	1312,75
272,38	1269,74
272,59	1247,21
272,81	1269,74
273,02	1187,82
273,24	1265,64
273,46	1210,35
273,67	1263,60
273,89	1206,25
274,10	1322,99
274,32	1247,21
274,54	1322,99
274,75	1277,93
274,97	1325,04
275,18	1292,27
275,40	1277,93
275,61	1302,51
275,83	1288,17
276,05	1269,74
276,26	1275,88
276,48	1308,65
276,69	1298,41
276,91	1267,69
277,12	1304,56
277,34	1320,94
277,55	1263,60
277,77	1263,60
277,99	1314,80
278,20	1245,16
278,42	1282,03
278,63	1320,94
278,85	1239,02
279,06	1314,80
279,28	1249,26
279,49	1372,14
279,71	1265,64
279,93	1298,41
280,14	1259,50
280,36	1284,08
280,57	1325,04
280,79	1275,88
281,00	1300,46
281,22	1259,50
281,43	1277,93
281,65	1249,26
281,86	1267,69
282,08	1261,55
282,29	1232,88
282,51	1273,84
282,73	1228,78
282,94	1288,17
283,16	1320,94
283,37	1277,93
283,59	1275,88
283,80	1282,03
284,02	1290,22
284,23	1277,93
284,45	1234,93
284,66	1292,27
284,88	1302,51
285,09	1214,45
285,31	1286,12
285,52	1306,60
285,74	1298,41
285,95	1251,31
286,17	1294,32
286,38	1314,80
286,60	1271,79
286,81	1210,35
287,03	1331,18
287,24	1322,99
287,46	1277,93
287,67	1261,55
287,89	1251,31
288,10	1239,02
288,32	1257,45
288,53	1279,98
288,75	1232,88
288,96	1249,26
289,18	1239,02
289,39	1269,74
289,61	1218,54
289,82	1261,55
290,04	1247,21
290,25	1222,64
290,47	1267,69
290,68	1269,74
290,90	1222,64
291,11	1173,49
291,33	1239,02
291,54	1230,83
291,76	1236,97
291,97	1269,74
292,18	1306,60
292,40	1349,61
292,61	1294,32
292,83	1296,36
293,04	1275,88
293,26	1359,85
293,47	1282,03
293,69	1189,87
293,90	1312,75
294,12	1318,89
294,33	1284,08
294,55	1353,71
294,76	1284,08
294,97	1257,45
295,19	1312,75
295,40	1263,60
295,62	1269,74
295,83	1247,21
296,05	1267,69
296,26	1265,64
296,48	1310,70
296,69	1300,46
296,90	1337,32
297,12	1374,19
297,33	1273,84
297,55	1193,97
297,76	1314,80
297,98	1230,83
298,19	1243,12
298,41	1304,56
298,62	1290,22
298,83	1294,32
299,05	1298,41
299,26	1279,98
299,48	1226,73
299,69	1310,70
299,90	1228,78
300,12	1308,65
300,33	1331,18
300,55	1306,60
300,76	1320,94
300,98	1282,03
301,19	1306,60
301,40	1302,51
301,62	1302,51
301,83	1261,55
302,05	1298,41
302,26	1267,69
302,47	1318,89
302,69	1245,16
302,90	1282,03
303,12	1279,98
303,33	1271,79
303,54	1306,60
303,76	1255,40
303,97	1286,12
304,19	1189,87
304,40	1355,76
304,61	1239,02
304,83	1245,16
305,04	1288,17
305,26	1290,22
305,47	1337,32
305,68	1253,36
305,90	1263,60
306,11	1277,93
306,33	1298,41
306,54	1284,08
306,75	1232,88
306,97	1290,22
307,18	1351,66
307,39	1286,12
307,61	1275,88
307,82	1320,94
308,04	1302,51
308,25	1245,16
308,46	1236,97
308,68	1380,33
308,89	1312,75
309,10	1232,88
309,32	1339,37
309,53	1269,74
309,74	1273,84
309,96	1273,84
310,17	1243,12
310,39	1228,78
310,60	1249,26
310,81	1247,21
311,03	1204,21
311,24	1191,92
311,45	1290,22
311,67	1224,69
311,88	1249,26
312,09	1261,55
312,31	1247,21
312,52	1294,32
312,73	1282,03
312,95	1269,74
313,16	1263,60
313,37	1325,04
313,59	1232,88
313,80	1335,28
314,01	1353,71
314,23	1318,89
314,44	1265,64
314,65	1236,97
314,87	1292,27
315,08	1265,64
315,29	1220,59
315,51	1259,50
315,72	1298,41
315,93	1265,64
316,15	1210,35
316,36	1273,84
316,57	1318,89
316,79	1275,88
317,00	1286,12
317,21	1191,92
317,43	1200,11
317,64	1191,92
317,85	1306,60
318,07	1327,08
318,28	1322,99
318,49	1204,21
318,70	1263,60
318,92	1247,21
319,13	1265,64
319,34	1316,84
319,56	1261,55
319,77	1288,17
319,98	1230,83
320,20	1257,45
320,41	1288,17
320,62	1261,55
320,83	1228,78
321,05	1343,47
321,26	1249,26
321,47	1312,75
321,69	1292,27
321,90	1286,12
322,11	1249,26
322,32	1249,26
322,54	1290,22
322,75	1216,49
322,96	1245,16
323,18	1284,08
323,39	1204,21
323,60	1243,12
323,81	1230,83
324,03	1257,45
324,24	1300,46
324,45	1304,56
324,66	1259,50
324,88	1314,80
325,09	1273,84
325,30	1298,41
325,52	1382,38
325,73	1245,16
325,94	1282,03
326,15	1286,12
326,37	1273,84
326,58	1212,40
326,79	1261,55
327,00	1267,69
327,22	1204,21
327,43	1243,12
327,64	1316,84
327,85	1241,07
328,07	1245,16
328,28	1341,42
328,49	1239,02
328,70	1335,28
328,92	1214,45
329,13	1314,80
329,34	1296,36
329,55	1241,07
329,76	1277,93
329,98	1286,12
330,19	1241,07
330,40	1290,22
330,61	1247,21
330,83	1261,55
331,04	1312,75
331,25	1290,22
331,46	1290,22
331,68	1296,36
331,89	1249,26
332,10	1255,40
332,31	1251,31
332,52	1271,79
332,74	1271,79
332,95	1187,82
333,16	1267,69
333,37	1263,60
333,58	1316,84
333,80	1271,79
334,01	1314,80
334,22	1267,69
334,43	1339,37
334,64	1306,60
334,86	1257,45
335,07	1320,94
335,28	1255,40
335,49	1220,59
335,70	1269,74
335,92	1239,02
336,13	1279,98
336,34	1310,70
336,55	1193,97
336,76	1331,18
336,98	1271,79
337,19	1241,07
337,40	1169,39
337,61	1376,24
337,82	1320,94
338,04	1275,88
338,25	1245,16
338,46	1357,80
338,67	1224,69
338,88	1226,73
339,09	1269,74
339,31	1279,98
339,52	1312,75
339,73	1296,36
339,94	1314,80
340,15	1314,80
340,36	1359,85
340,58	1304,56
340,79	1247,21
341,00	1298,41
341,21	1222,64
341,42	1318,89
341,63	1286,12
341,85	1249,26
342,06	1294,32
342,27	1269,74
342,48	1257,45
342,69	1327,08
342,90	1300,46
343,12	1286,12
343,33	1249,26
343,54	1249,26
343,75	1267,69
343,96	1284,08
344,17	1271,79
344,38	1263,60
344,60	1308,65
344,81	1294,32
345,02	1255,40
345,23	1273,84
345,44	1249,26
345,65	1279,98
345,86	1277,93
346,07	1245,16
346,29	1284,08
346,50	1302,51
346,71	1366,00
346,92	1253,36
347,13	1267,69
347,34	1259,50
347,55	1286,12
347,76	1275,88
347,98	1189,87
348,19	1273,84
348,40	1284,08
348,61	1257,45
348,82	1241,07
349,03	1257,45
349,24	1290,22
349,45	1351,66
349,66	1304,56
349,88	1226,73
350,09	1243,12
350,30	1193,97
350,51	1259,50
350,72	1333,23
350,93	1245,16
351,14	1312,75
351,35	1249,26
351,56	1288,17
351,77	1257,45
351,99	1316,84
352,20	1282,03
352,41	1304,56
352,62	1277,93
352,83	1210,35
353,04	1286,12
353,25	1232,88
353,46	1224,69
353,67	1308,65
353,88	1282,03
354,09	1232,88
354,30	1277,93
354,52	1337,32
354,73	1298,41
354,94	1290,22
355,15	1298,41
355,36	1202,16
355,57	1247,21
355,78	1247,21
355,99	1335,28
356,20	1206,25
356,41	1247,21
356,62	1290,22
356,83	1212,40
357,04	1247,21
357,25	1290,22
357,46	1292,27
357,68	1210,35
357,89	1288,17
358,10	1232,88
358,31	1247,21
358,52	1290,22
358,73	1226,73
358,94	1200,11
359,15	1232,88
359,36	1261,55
359,57	1193,97
359,78	1236,97
359,99	1294,32
360,20	1298,41
360,41	1228,78
360,62	1300,46
360,83	1290,22
361,04	1216,49
361,25	1263,60
361,46	1320,94
361,67	1310,70
361,88	1236,97
362,09	1294,32
362,30	1294,32
362,51	1335,28
362,72	1288,17
362,93	1241,07
363,14	1288,17
363,35	1290,22
363,56	1218,54
363,78	1226,73
363,99	1214,45
364,20	1214,45
364,41	1263,60
364,62	1300,46
364,83	1284,08
365,04	1279,98
365,25	1255,40
365,46	1224,69
365,67	1279,98
365,88	1185,77
366,09	1269,74
366,30	1275,88
366,51	1220,59
366,72	1308,65
366,93	1273,84
367,14	1263,60
367,35	1253,36
367,56	1220,59
367,77	1306,60
367,98	1269,74
368,18	1333,23
368,39	1302,51
368,60	1310,70
368,81	1267,69
369,02	1304,56
369,23	1216,49
369,44	1290,22
369,65	1257,45
369,86	1257,45
370,07	1290,22
370,28	1320,94
370,49	1286,12
370,70	1275,88
370,91	1214,45
371,12	1345,52
371,33	1275,88
371,54	1306,60
371,75	1251,31
371,96	1251,31
372,17	1214,45
372,38	1218,54
372,59	1277,93
372,80	1290,22
373,01	1239,02
373,22	1239,02
373,43	1220,59
373,64	1261,55
373,85	1331,18
374,06	1286,12
374,26	1202,16
374,47	1259,50
374,68	1202,16
374,89	1220,59
375,10	1325,04
375,31	1302,51
375,52	1320,94
375,73	1347,56
375,94	1327,08
376,15	1320,94
376,36	1290,22
376,57	1290,22
376,78	1257,45
376,99	1310,70
377,20	1298,41
377,40	1277,93
377,61	1251,31
377,82	1200,11
378,03	1294,32
378,24	1279,98
378,45	1243,12
378,66	1236,97
378,87	1271,79
379,08	1304,56
379,29	1243,12
379,50	1282,03
379,71	1347,56
379,91	1290,22
380,12	1257,45
380,33	1255,40
380,54	1247,21
380,75	1245,16
380,96	1302,51
381,17	1335,28
381,38	1239,02
381,59	1214,45
381,80	1282,03
382,00	1339,37
382,21	1251,31
382,42	1296,36
382,63	1286,12
382,84	1279,98
383,05	1316,84
383,26	1269,74
383,47	1263,60
383,68	1279,98
383,88	1220,59
384,09	1261,55
384,30	1257,45
384,51	1257,45
384,72	1241,07
384,93	1279,98
385,14	1245,16
385,35	1286,12
385,55	1316,84
385,76	1261,55
385,97	1251,31
386,18	1292,27
386,39	1255,40
386,60	1312,75
386,81	1269,74
387,02	1257,45
387,22	1366,00
387,43	1275,88
387,64	1302,51
387,85	1353,71
388,06	1253,36
388,27	1304,56
388,48	1298,41
388,68	1290,22
388,89	1286,12
389,10	1265,64
389,31	1312,75
389,52	1296,36
389,73	1284,08
389,93	1327,08
390,14	1257,45
390,35	1310,70
390,56	1263,60
390,77	1185,77
390,98	1296,36
391,18	1322,99
391,39	1290,22
391,60	1359,85
391,81	1296,36
392,02	1271,79
392,23	1310,70
392,43	1265,64
392,64	1204,21
392,85	1267,69
393,06	1234,93
393,27	1290,22
393,47	1279,98
393,68	1296,36
393,89	1257,45
394,10	1302,51
394,31	1308,65
394,52	1282,03
394,72	1253,36
394,93	1327,08
395,14	1239,02
395,35	1320,94
395,56	1257,45
395,76	1224,69
395,97	1284,08
396,18	1247,21
396,39	1265,64
396,60	1341,42
396,80	1261,55
397,01	1320,94
397,22	1251,31
397,43	1224,69
397,64	1261,55
397,84	1224,69
398,05	1284,08
398,26	1245,16
398,47	1282,03
398,67	1212,40
398,88	1314,80
399,09	1304,56
399,30	1230,83
399,51	1304,56
399,71	1261,55
399,92	1275,88
400,13	1279,98
400,34	1361,90
400,54	1349,61
400,75	1294,32
400,96	1298,41
401,17	1286,12
401,37	1269,74
401,58	1251,31
401,79	1275,88
402,00	1239,02
402,21	1277,93
402,41	1318,89
402,62	1335,28
402,83	1206,25
403,04	1257,45
403,24	1261,55
403,45	1243,12
403,66	1300,46
403,87	1294,32
404,07	1322,99
404,28	1304,56
404,49	1331,18
404,70	1232,88
404,90	1230,83
405,11	1314,80
405,32	1279,98
405,52	1302,51
405,73	1275,88
405,94	1259,50
406,15	1214,45
406,35	1286,12
406,56	1314,80
406,77	1224,69
406,98	1290,22
407,18	1249,26
407,39	1286,12
407,60	1239,02
407,80	1216,49
408,01	1359,85
408,22	1306,60
408,43	1271,79
408,63	1308,65
408,84	1269,74
409,05	1251,31
409,25	1275,88
409,46	1275,88
409,67	1255,40
409,88	1271,79
410,08	1355,76
410,29	1187,82
410,50	1218,54
410,70	1259,50
410,91	1249,26
411,12	1308,65
411,32	1241,07
411,53	1302,51
411,74	1298,41
411,95	1275,88
412,15	1218,54
412,36	1351,66
412,57	1290,22
412,77	1282,03
412,98	1265,64
413,19	1318,89
413,39	1232,88
413,60	1257,45
413,81	1302,51
414,01	1267,69
414,22	1294,32
414,43	1277,93
414,63	1302,51
414,84	1196,01
415,05	1279,98
415,25	1230,83
415,46	1269,74
415,67	1253,36
415,87	1263,60
416,08	1269,74
416,29	1277,93
416,49	1312,75
416,70	1290,22
416,91	1220,59
417,11	1288,17
417,32	1210,35
417,53	1366,00
417,73	1249,26
417,94	1292,27
418,15	1298,41
418,35	1329,13
418,56	1351,66
418,77	1224,69
418,97	1255,40
419,18	1320,94
419,38	1255,40
419,59	1234,93
419,80	1314,80
420,00	1239,02
420,21	1271,79
420,42	1294,32
420,62	1306,60
420,83	1310,70
421,04	1218,54
421,24	1310,70
421,45	1271,79
421,65	1374,19
421,86	1247,21
422,07	1220,59
422,27	1275,88
422,48	1261,55
422,69	1226,73
422,89	1279,98
423,10	1249,26
423,30	1322,99
423,51	1286,12
423,72	1261,55
423,92	1314,80
424,13	1243,12
424,33	1189,87
424,54	1247,21
424,75	1261,55
424,95	1241,07
425,16	1253,36
425,36	1251,31
425,57	1261,55
425,78	1198,06
425,98	1224,69
426,19	1298,41
426,39	1308,65
426,60	1288,17
426,81	1302,51
427,01	1292,27
427,22	1222,64
427,42	1259,50
427,63	1271,79
427,83	1253,36
428,04	1259,50
428,25	1337,32
428,45	1327,08
428,66	1327,08
428,86	1304,56
429,07	1271,79
429,28	1312,75
429,48	1224,69
429,69	1222,64
429,89	1290,22
430,10	1261,55
430,30	1329,13
430,51	1310,70
430,71	1230,83
430,92	1300,46
431,13	1257,45
431,33	1259,50
431,54	1296,36
431,74	1216,49
431,95	1357,80
432,15	1306,60
432,36	1261,55
432,56	1247,21
432,77	1239,02
432,98	1245,16
433,18	1241,07
433,39	1265,64
433,59	1290,22
433,80	1296,36
434,00	1296,36
434,21	1306,60
434,41	1257,45
434,62	1302,51
434,82	1304,56
435,03	1259,50
435,23	1271,79
435,44	1257,45
435,64	1316,84
435,85	1230,83
436,06	1210,35
436,26	1302,51
436,47	1298,41
436,67	1300,46
436,88	1228,78
437,08	1308,65
437,29	1331,18
437,49	1290,22
437,70	1251,31
437,90	1320,94
438,11	1331,18
438,31	1255,40
438,52	1347,56
438,72	1284,08
438,93	1269,74
439,13	1271,79
439,34	1220,59
439,54	1279,98
439,75	1263,60
439,95	1236,97
440,16	1310,70
440,36	1269,74
440,57	1216,49
440,77	1339,37
440,98	1249,26
441,18	1308,65
441,39	1200,11
441,59	1196,01
441,80	1232,88
442,00	1232,88
442,21	1275,88
442,41	1327,08
442,62	1275,88
442,82	1263,60
443,02	1214,45
443,23	1255,40
443,43	1290,22
443,64	1243,12
443,84	1271,79
444,05	1333,23
444,25	1255,40
444,46	1296,36
444,66	1366,00
444,87	1257,45
445,07	1271,79
445,28	1202,16
445,48	1310,70
445,69	1320,94
445,89	1261,55
446,09	1257,45
446,30	1290,22
446,50	1302,51
446,71	1239,02
446,91	1271,79
447,12	1257,45
447,32	1310,70
447,53	1220,59
447,73	1275,88
447,93	1288,17
448,14	1302,51
448,34	1196,01
448,55	1265,64
448,75	1357,80
448,96	1275,88
449,16	1255,40
449,36	1300,46
449,57	1267,69
449,77	1202,16
449,98	1214,45
450,18	1341,42
450,39	1275,88
450,59	1282,03
450,79	1253,36
451,00	1282,03
451,20	1304,56
451,41	1214,45
451,61	1261,55
451,81	1216,49
452,02	1296,36
452,22	1255,40
452,43	1304,56
452,63	1255,40
452,84	1257,45
453,04	1245,16
453,24	1257,45
453,45	1275,88
453,65	1267,69
453,86	1275,88
454,06	1304,56
454,26	1241,07
454,47	1308,65
454,67	1245,16
454,87	1255,40
455,08	1230,83
455,28	1265,64
455,49	1196,01
455,69	1269,74
455,89	1222,64
456,10	1275,88
456,30	1251,31
456,51	1325,04
456,71	1290,22
456,91	1312,75
457,12	1224,69
457,32	1212,40
457,52	1265,64
457,73	1292,27
457,93	1251,31
458,14	1286,12
458,34	1257,45
458,54	1224,69
458,75	1288,17
458,95	1261,55
459,15	1220,59
459,36	1226,73
459,56	1220,59
459,76	1277,93
459,97	1353,71
460,17	1286,12
460,37	1290,22
460,58	1171,44
460,78	1343,47
460,99	1284,08
461,19	1269,74
461,39	1290,22
461,60	1310,70
461,80	1267,69
462,00	1282,03
462,21	1288,17
462,41	1222,64
462,61	1216,49
462,82	1230,83
463,02	1275,88
463,22	1269,74
463,43	1261,55
463,63	1253,36
463,83	1265,64
464,04	1208,30
464,24	1224,69
464,44	1316,84
464,64	1292,27
464,85	1247,21
465,05	1179,63
465,25	1265,64
465,46	1249,26
465,66	1347,56
465,86	1322,99
466,07	1279,98
466,27	1298,41
466,47	1202,16
466,68	1230,83
466,88	1277,93
467,08	1282,03
467,29	1212,40
467,49	1310,70
467,69	1316,84
467,89	1349,61
468,10	1282,03
468,30	1214,45
468,50	1304,56
468,71	1277,93
468,91	1312,75
469,11	1271,79
469,31	1298,41
469,52	1228,78
469,72	1239,02
469,92	1263,60
470,13	1271,79
470,33	1312,75
470,53	1247,21
470,73	1249,26
470,94	1232,88
471,14	1216,49
471,34	1306,60
471,54	1310,70
471,75	1286,12
471,95	1224,69
472,15	1282,03
472,36	1243,12
472,56	1343,47
472,76	1263,60
472,96	1255,40
473,17	1241,07
473,37	1273,84
473,57	1294,32
473,77	1345,52
473,98	1282,03
474,18	1345,52
474,38	1351,66
474,58	1245,16
474,79	1228,78
474,99	1224,69
475,19	1273,84
475,39	1267,69
475,60	1232,88
475,80	1253,36
476,00	1288,17
476,20	1304,56
476,41	1245,16
476,61	1255,40
476,81	1255,40
477,01	1296,36
477,21	1259,50
477,42	1208,30
477,62	1230,83
477,82	1249,26
478,02	1294,32
478,23	1271,79
478,43	1228,78
478,63	1325,04
478,83	1247,21
479,03	1253,36
479,24	1331,18
479,44	1298,41
479,64	1245,16
479,84	1314,80
480,04	1282,03
480,25	1300,46
480,45	1189,87
480,65	1202,16
480,85	1298,41
481,06	1339,37
481,26	1290,22
481,46	1273,84
481,66	1263,60
481,86	1271,79
482,06	1239,02
482,27	1230,83
482,47	1282,03
482,67	1261,55
482,87	1273,84
483,07	1239,02
483,28	1222,64
483,48	1296,36
483,68	1249,26
483,88	1314,80
484,08	1236,97
484,29	1288,17
484,49	1302,51
484,69	1273,84
484,89	1247,21
485,09	1226,73
485,29	1243,12
485,50	1282,03
485,70	1316,84
485,90	1308,65
486,10	1175,53
486,30	1312,75
486,50	1232,88
486,71	1269,74
486,91	1257,45
487,11	1263,60
487,31	1208,30
487,51	1286,12
487,71	1189,87
487,91	1257,45
488,12	1275,88
488,32	1239,02
488,52	1314,80
488,72	1279,98
488,92	1245,16
489,12	1275,88
489,32	1269,74
489,53	1265,64
489,73	1261,55
489,93	1304,56
490,13	1208,30
490,33	1267,69
490,53	1232,88
490,73	1282,03
490,94	1271,79
491,14	1337,32
491,34	1224,69
491,54	1271,79
491,74	1220,59
491,94	1394,67
492,14	1247,21
492,34	1300,46
492,54	1251,31
492,75	1265,64
492,95	1290,22
493,15	1327,08
493,35	1212,40
493,55	1234,93
493,75	1318,89
493,95	1279,98
494,15	1345,52
494,35	1216,49
494,56	1265,64
494,76	1314,80
494,96	1234,93
495,16	1253,36
495,36	1253,36
495,56	1257,45
495,76	1259,50
495,96	1288,17
496,16	1279,98
496,36	1206,25
496,56	1267,69
496,77	1286,12
496,97	1300,46
497,17	1300,46
497,37	1300,46
497,57	1269,74
497,77	1251,31
497,97	1308,65
498,17	1282,03
498,37	1255,40
498,57	1333,23
498,77	1273,84
498,97	1322,99
499,17	1370,09
499,38	1179,63
499,58	1269,74
499,78	1302,51
499,98	1228,78
500,18	1265,64
500,38	1292,27
500,58	1294,32
500,78	1224,69
500,98	1251,31
501,18	1204,21
501,38	1265,64
501,58	1341,42
501,78	1290,22
501,98	1245,16
502,18	1294,32
502,38	1306,60
502,58	1255,40
502,78	1226,73
502,98	1224,69
503,18	1304,56
503,38	1327,08
503,59	1273,84
503,79	1296,36
503,99	1269,74
504,19	1312,75
504,39	1312,75
504,59	1251,31
504,79	1216,49
504,99	1310,70
505,19	1228,78
505,39	1249,26
505,59	1247,21
505,79	1243,12
505,99	1286,12
506,19	1269,74
506,39	1282,03
506,59	1320,94
506,79	1351,66
506,99	1335,28
507,19	1243,12
507,39	1273,84
507,59	1228,78
507,79	1300,46
507,99	1232,88
508,19	1202,16
508,39	1200,11
508,59	1320,94
508,79	1282,03
508,99	1236,97
509,19	1318,89
509,39	1202,16
509,59	1290,22
509,79	1282,03
509,99	1353,71
510,19	1259,50
510,39	1236,97
510,59	1335,28
510,79	1322,99
510,99	1310,70
511,19	1214,45
511,39	1325,04
511,59	1288,17
511,79	1282,03
511,99	1247,21
512,19	1312,75
512,38	1241,07
512,58	1282,03
512,78	1300,46
512,98	1230,83
513,18	1304,56
513,38	1288,17
513,58	1269,74
513,78	1267,69
513,98	1216,49
514,18	1251,31
514,38	1224,69
514,58	1286,12
514,78	1277,93
514,98	1275,88
515,18	1259,50
515,38	1220,59
515,58	1273,84
515,78	1322,99
515,98	1269,74
516,18	1255,40
516,38	1249,26
516,57	1279,98
516,77	1275,88
516,97	1271,79
517,17	1267,69
517,37	1241,07
517,57	1306,60
517,77	1208,30
517,97	1228,78
518,17	1304,56
518,37	1247,21
518,57	1200,11
518,77	1279,98
518,97	1269,74
519,16	1259,50
519,36	1247,21
519,56	1331,18
519,76	1279,98
519,96	1204,21
520,16	1284,08
520,36	1222,64
520,56	1255,40
520,76	1247,21
520,96	1267,69
521,16	1277,93
521,35	1372,14
521,55	1234,93
521,75	1267,69
521,95	1255,40
522,15	1265,64
522,35	1292,27
522,55	1253,36
522,75	1243,12
522,95	1269,74
523,14	1239,02
523,34	1216,49
523,54	1265,64
523,74	1329,13
523,94	1236,97
524,14	1265,64
524,34	1296,36
524,54	1249,26
524,73	1259,50
524,93	1273,84
525,13	1310,70
525,33	1296,36
525,53	1286,12
525,73	1273,84
525,93	1239,02
526,13	1304,56
526,32	1224,69
526,52	1253,36
526,72	1261,55
526,92	1257,45
527,12	1273,84
527,32	1269,74
527,52	1265,64
527,71	1282,03
527,91	1193,97
528,11	1216,49
528,31	1222,64
528,51	1296,36
528,71	1329,13
528,90	1322,99
529,10	1279,98
529,30	1220,59
529,50	1284,08
529,70	1277,93
529,90	1269,74
530,09	1251,31
530,29	1267,69
530,49	1249,26
530,69	1236,97
530,89	1189,87
531,09	1249,26
531,28	1343,47
531,48	1282,03
531,68	1298,41
531,88	1183,73
532,08	1302,51
532,28	1245,16
532,47	1257,45
532,67	1282,03
532,87	1200,11
533,07	1286,12
533,27	1284,08
533,46	1335,28
533,66	1312,75
533,86	1245,16
534,06	1247,21
534,26	1265,64
534,45	1296,36
534,65	1220,59
534,85	1290,22
535,05	1193,97
535,25	1282,03
535,44	1304,56
535,64	1253,36
535,84	1284,08
536,04	1216,49
536,24	1329,13
536,43	1251,31
536,63	1288,17
536,83	1279,98
537,03	1286,12
537,22	1234,93
537,42	1241,07
537,62	1255,40
537,82	1245,16
538,02	1345,52
538,21	1306,60
538,41	1290,22
538,61	1259,50
538,81	1220,59
539,00	1277,93
539,20	1286,12
539,40	1253,36
539,60	1247,21
539,79	1286,12
539,99	1306,60
540,19	1249,26
540,39	1282,03
540,58	1247,21
540,78	1273,84
540,98	1247,21
541,18	1300,46
541,37	1216,49
541,57	1318,89
541,77	1325,04
541,97	1257,45
542,16	1290,22
542,36	1196,01
542,56	1247,21
542,76	1304,56
542,95	1370,09
543,15	1234,93
543,35	1232,88
543,54	1290,22
543,74	1294,32
543,94	1290,22
544,14	1265,64
544,33	1320,94
544,53	1263,60
544,73	1253,36
544,93	1263,60
545,12	1193,97
545,32	1230,83
545,52	1216,49
545,71	1366,00
545,91	1222,64
546,11	1245,16
546,30	1271,79
546,50	1261,55
546,70	1277,93
546,90	1247,21
547,09	1265,64
547,29	1251,31
547,49	1279,98
547,68	1245,16
547,88	1290,22
548,08	1251,31
548,27	1318,89
548,47	1300,46
548,67	1294,32
548,87	1339,37
549,06	1232,88
549,26	1333,23
549,46	1187,82
549,65	1220,59
549,85	1277,93
550,05	1245,16
550,24	1259,50
550,44	1257,45
550,64	1341,42
550,83	1230,83
551,03	1277,93
551,23	1216,49
551,42	1310,70
551,62	1263,60
551,82	1232,88
552,01	1273,84
552,21	1300,46
552,41	1312,75
552,60	1267,69
552,80	1214,45
553,00	1304,56
553,19	1372,14
553,39	1279,98
553,59	1304,56
553,78	1320,94
553,98	1230,83
554,17	1314,80
554,37	1249,26
554,57	1306,60
554,76	1222,64
554,96	1247,21
555,16	1271,79
555,35	1232,88
555,55	1249,26
555,75	1296,36
555,94	1329,13
556,14	1259,50
556,33	1275,88
556,53	1306,60
556,73	1300,46
556,92	1263,60
557,12	1212,40
557,32	1335,28
557,51	1304,56
557,71	1292,27
557,90	1288,17
558,10	1269,74
558,30	1226,73
558,49	1267,69
558,69	1310,70
558,88	1294,32
559,08	1329,13
559,28	1275,88
559,47	1320,94
559,67	1271,79
559,86	1257,45
560,06	1247,21
560,26	1265,64
560,45	1282,03
560,65	1259,50
560,84	1273,84
561,04	1222,64
561,24	1255,40
561,43	1212,40
561,63	1302,51
561,82	1265,64
562,02	1253,36
562,22	1232,88
562,41	1310,70
562,61	1306,60
562,80	1273,84
563,00	1298,41
563,19	1263,60
563,39	1337,32
563,59	1232,88
563,78	1277,93
563,98	1417,19
564,17	1239,02
564,37	1181,68
564,56	1189,87
564,76	1322,99
564,96	1263,60
565,15	1290,22
565,35	1310,70
565,54	1267,69
565,74	1206,25
565,93	1300,46
566,13	1265,64
566,32	1273,84
566,52	1249,26
566,71	1339,37
566,91	1282,03
567,11	1322,99
567,30	1288,17
567,50	1294,32
567,69	1261,55
567,89	1308,65
568,08	1290,22
568,28	1261,55
568,47	1245,16
568,67	1224,69
568,86	1257,45
569,06	1267,69
569,25	1261,55
569,45	1212,40
569,64	1320,94
569,84	1275,88
570,04	1267,69
570,23	1200,11
570,43	1249,26
570,62	1282,03
570,82	1284,08
571,01	1253,36
571,21	1294,32
571,40	1269,74
571,60	1191,92
571,79	1241,07
571,99	1335,28
572,18	1320,94
572,38	1331,18
572,57	1259,50
572,77	1279,98
572,96	1257,45
573,16	1351,66
573,35	1253,36
573,55	1175,53
573,74	1277,93
573,94	1265,64
574,13	1265,64
574,33	1251,31
574,52	1253,36
574,71	1279,98
574,91	1288,17
575,10	1312,75
575,30	1296,36
575,49	1282,03
575,69	1241,07
575,88	1214,45
576,08	1271,79
576,27	1300,46
576,47	1308,65
576,66	1277,93
576,86	1306,60
577,05	1277,93
577,25	1331,18
577,44	1265,64
577,64	1259,50
577,83	1247,21
578,02	1239,02
578,22	1277,93
578,41	1310,70
578,61	1347,56
578,80	1388,52
579,00	1247,21
579,19	1247,21
579,39	1273,84
579,58	1275,88
579,77	1255,40
579,97	1247,21
580,16	1261,55
580,36	1212,40
580,55	1290,22
580,75	1232,88
580,94	1261,55
581,13	1314,80
581,33	1216,49
581,52	1275,88
581,72	1271,79
581,91	1220,59
582,11	1202,16
582,30	1236,97
582,49	1331,18
582,69	1318,89
582,88	1224,69
583,08	1214,45
583,27	1327,08
583,47	1335,28
583,66	1296,36
583,85	1234,93
584,05	1345,52
584,24	1279,98
584,44	1286,12
584,63	1316,84
584,82	1183,73
585,02	1249,26
585,21	1322,99
585,41	1212,40
585,60	1304,56
585,79	1306,60
585,99	1255,40
586,18	1216,49
586,37	1288,17
586,57	1304,56
586,76	1300,46
586,96	1220,59
587,15	1269,74
587,34	1273,84
587,54	1306,60
587,73	1308,65
587,93	1279,98
588,12	1142,77
588,31	1220,59
588,51	1298,41
588,70	1343,47
588,89	1282,03
589,09	1222,64
589,28	1302,51
589,47	1245,16
589,67	1212,40
589,86	1253,36
590,06	1284,08
590,25	1310,70
590,44	1335,28
590,64	1257,45
590,83	1261,55
591,02	1249,26
591,22	1271,79
591,41	1189,87
591,60	1232,88
591,80	1224,69
591,99	1255,40
592,18	1232,88
592,38	1249,26
592,57	1200,11
592,76	1288,17
592,96	1241,07
593,15	1267,69
593,34	1322,99
593,54	1247,21
593,73	1300,46
593,92	1265,64
594,12	1359,85
594,31	1275,88
594,50	1251,31
594,70	1329,13
594,89	1300,46
595,08	1247,21
595,28	1320,94
595,47	1331,18
595,66	1314,80
595,86	1288,17
596,05	1288,17
596,24	1275,88
596,43	1282,03
596,63	1331,18
596,82	1277,93
597,01	1261,55
597,21	1277,93
597,40	1269,74
597,59	1286,12
597,79	1261,55
597,98	1234,93
598,17	1261,55
598,36	1234,93
598,56	1282,03
598,75	1304,56
598,94	1329,13
599,14	1216,49
599,33	1282,03
599,52	1245,16
599,71	1290,22
599,91	1255,40
600,10	1312,75
600,29	1304,56
600,48	1273,84
600,68	1306,60
600,87	1255,40
601,06	1310,70
601,26	1261,55
601,45	1322,99
601,64	1257,45
601,83	1273,84
602,03	1277,93
602,22	1263,60
602,41	1306,60
602,60	1292,27
602,80	1353,71
602,99	1265,64
603,18	1257,45
603,37	1269,74
603,57	1284,08
603,76	1282,03
603,95	1251,31
604,14	1279,98
604,34	1294,32
604,53	1271,79
604,72	1294,32
604,91	1230,83
605,10	1392,62
605,30	1245,16
605,49	1247,21
605,68	1304,56
605,87	1286,12
606,07	1351,66
606,26	1277,93
606,45	1347,56
606,64	1261,55
606,84	1320,94
607,03	1200,11
607,22	1312,75
607,41	1196,01
607,60	1335,28
607,80	1239,02
607,99	1292,27
608,18	1263,60
608,37	1271,79
608,56	1243,12
608,76	1222,64
608,95	1300,46
609,14	1269,74
609,33	1284,08
609,52	1277,93
609,72	1269,74
609,91	1275,88
610,10	1271,79
610,29	1284,08
610,48	1282,03
610,68	1200,11
610,87	1298,41
611,06	1251,31
611,25	1363,95
611,44	1298,41
611,63	1314,80
611,83	1298,41
612,02	1269,74
612,21	1290,22
612,40	1232,88
612,59	1245,16
612,79	1241,07
612,98	1290,22
613,17	1261,55
613,36	1273,84
613,55	1273,84
613,74	1308,65
613,93	1224,69
614,13	1329,13
614,32	1282,03
614,51	1239,02
614,70	1261,55
614,89	1251,31
615,08	1198,06
615,28	1335,28
615,47	1239,02
615,66	1261,55
615,85	1339,37
616,04	1304,56
616,23	1312,75
616,42	1202,16
616,62	1277,93
616,81	1325,04
617,00	1296,36
617,19	1290,22
617,38	1277,93
617,57	1294,32
617,76	1249,26
617,95	1245,16
618,15	1230,83
618,34	1298,41
618,53	1296,36
618,72	1271,79
618,91	1263,60
619,10	1304,56
619,29	1282,03
619,48	1245,16
619,68	1222,64
619,87	1343,47
620,06	1251,31
620,25	1224,69
620,44	1269,74
620,63	1304,56
620,82	1255,40
621,01	1243,12
621,20	1304,56
621,39	1339,37
621,59	1234,93
621,78	1249,26
621,97	1249,26
622,16	1290,22
622,35	1249,26
622,54	1208,30
622,73	1296,36
622,92	1341,42
623,11	1257,45
623,30	1191,92
623,49	1320,94
623,68	1247,21
623,88	1300,46
624,07	1277,93
624,26	1220,59
624,45	1247,21
624,64	1288,17
624,83	1253,36
625,02	1263,60
625,21	1273,84
625,40	1275,88
625,59	1349,61
625,78	1355,76
625,97	1353,71
626,16	1318,89
626,35	1310,70
626,54	1271,79
626,74	1290,22
626,93	1257,45
627,12	1335,28
627,31	1228,78
627,50	1325,04
627,69	1224,69
627,88	1337,32
628,07	1255,40
628,26	1220,59
628,45	1253,36
628,64	1269,74
628,83	1306,60
629,02	1265,64
629,21	1282,03
629,40	1306,60
629,59	1243,12
629,78	1333,23
629,97	1279,98
630,16	1374,19
630,35	1353,71
630,54	1329,13
630,73	1208,30
630,92	1331,18
631,11	1282,03
631,30	1259,50
631,49	1349,61
631,68	1345,52
631,87	1370,09
632,06	1454,06
632,25	1460,20
632,44	1380,33
632,63	1452,01
632,82	1753,06
633,01	1970,15
633,20	1839,08
633,39	1796,07
633,58	1748,97
633,77	1896,42
633,96	1640,42
634,15	1681,38
634,34	1785,83
634,53	1800,16
634,72	1708,01
634,91	1593,32
635,10	1640,42
635,29	1503,21
635,48	1525,74
635,67	1482,73
635,86	1499,11
636,05	1435,63
636,24	1417,19
636,43	1343,47
636,62	1339,37
636,81	1269,74
637,00	1386,47
637,19	1325,04
637,38	1343,47
637,57	1392,62
637,76	1312,75
637,95	1300,46
638,14	1265,64
638,33	1263,60
638,52	1341,42
638,71	1232,88
638,89	1259,50
639,08	1275,88
639,27	1255,40
639,46	1261,55
639,65	1290,22
639,84	1304,56
640,03	1288,17
640,22	1247,21
640,41	1282,03
640,60	1247,21
640,79	1230,83
640,98	1224,69
641,17	1271,79
641,36	1263,60
641,55	1327,08
641,74	1249,26
641,92	1306,60
642,11	1275,88
642,30	1245,16
642,49	1337,32
642,68	1241,07
642,87	1224,69
643,06	1302,51
643,25	1267,69
643,44	1286,12
643,63	1257,45
643,82	1298,41
644,00	1220,59
644,19	1335,28
644,38	1232,88
644,57	1282,03
644,76	1288,17
644,95	1247,21
645,14	1253,36
645,33	1339,37
645,52	1286,12
645,71	1208,30
645,89	1275,88
646,08	1245,16
646,27	1349,61
646,46	1279,98
646,65	1261,55
646,84	1314,80
647,03	1296,36
647,22	1314,80
647,40	1306,60
647,59	1284,08
647,78	1382,38
647,97	1284,08
648,16	1300,46
648,35	1296,36
648,54	1267,69
648,73	1279,98
648,91	1269,74
649,10	1271,79
649,29	1302,51
649,48	1232,88
649,67	1165,29
649,86	1259,50
650,05	1198,06
650,23	1298,41
650,42	1241,07
650,61	1257,45
650,80	1257,45
650,99	1198,06
651,18	1232,88
651,36	1304,56
651,55	1263,60
651,74	1245,16
651,93	1261,55
652,12	1177,58
652,31	1273,84
652,49	1224,69
652,68	1284,08
652,87	1236,97
653,06	1261,55
653,25	1306,60
653,44	1263,60
653,62	1306,60
653,81	1208,30
654,00	1247,21
654,19	1241,07
654,38	1273,84
654,56	1275,88
654,75	1265,64
654,94	1325,04
655,13	1337,32
655,32	1286,12
655,51	1318,89
655,69	1228,78
655,88	1286,12
656,07	1224,69
656,26	1226,73
656,45	1284,08
656,63	1245,16
656,82	1316,84
657,01	1392,62
657,20	1220,59
657,38	1380,33
657,57	1275,88
657,76	1239,02
657,95	1253,36
658,14	1314,80
658,32	1179,63
658,51	1298,41
658,70	1232,88
658,89	1337,32
659,08	1208,30
659,26	1329,13
659,45	1275,88
659,64	1265,64
659,83	1247,21
660,01	1331,18
660,20	1290,22
660,39	1261,55
660,58	1208,30
660,76	1290,22
660,95	1284,08
661,14	1284,08
661,33	1294,32
661,51	1187,82
661,70	1298,41
661,89	1271,79
662,08	1335,28
662,26	1345,52
662,45	1273,84
662,64	1253,36
662,83	1306,60
663,01	1265,64
663,20	1251,31
663,39	1282,03
663,58	1320,94
663,76	1263,60
663,95	1337,32
664,14	1292,27
664,32	1294,32
664,51	1161,20
664,70	1261,55
664,89	1282,03
665,07	1331,18
665,26	1282,03
665,45	1265,64
665,64	1310,70
665,82	1302,51
666,01	1226,73
666,20	1298,41
666,38	1335,28
666,57	1292,27
666,76	1232,88
666,95	1224,69
667,13	1253,36
667,32	1355,76
667,51	1286,12
667,69	1310,70
667,88	1282,03
668,07	1308,65
668,25	1239,02
668,44	1245,16
668,63	1263,60
668,81	1271,79
669,00	1251,31
669,19	1243,12
669,38	1312,75
669,56	1306,60
669,75	1232,88
669,94	1232,88
670,12	1284,08
670,31	1302,51
670,50	1265,64
670,68	1253,36
670,87	1310,70
671,06	1261,55
671,24	1312,75
671,43	1304,56
671,62	1222,64
671,80	1230,83
671,99	1224,69
672,18	1282,03
672,36	1306,60
672,55	1275,88
672,74	1239,02
672,92	1241,07
673,11	1214,45
673,29	1284,08
673,48	1257,45
673,67	1331,18
673,85	1300,46
674,04	1337,32
674,23	1271,79
674,41	1247,21
674,60	1335,28
674,79	1263,60
674,97	1249,26
675,16	1310,70
675,34	1286,12
675,53	1239,02
675,72	1302,51
675,90	1325,04
676,09	1259,50
676,28	1261,55
676,46	1308,65
676,65	1290,22
676,83	1245,16
677,02	1257,45
677,21	1306,60
677,39	1226,73
677,58	1263,60
677,77	1306,60
677,95	1230,83
678,14	1255,40
678,32	1265,64
678,51	1232,88
678,70	1292,27
678,88	1243,12
679,07	1288,17
679,25	1345,52
679,44	1284,08
679,63	1302,51
679,81	1236,97
680,00	1353,71
680,18	1322,99
680,37	1247,21
680,55	1232,88
680,74	1259,50
680,93	1296,36
681,11	1282,03
681,30	1322,99
681,48	1255,40
681,67	1306,60
681,85	1337,32
682,04	1288,17
682,23	1279,98
682,41	1193,97
682,60	1329,13
682,78	1271,79
682,97	1273,84
683,15	1241,07
683,34	1273,84
683,53	1284,08
683,71	1282,03
683,90	1376,24
684,08	1308,65
684,27	1304,56
684,45	1263,60
684,64	1232,88
684,82	1245,16
685,01	1345,52
685,19	1253,36
685,38	1286,12
685,57	1275,88
685,75	1265,64
685,94	1292,27
686,12	1279,98
686,31	1232,88
686,49	1341,42
686,68	1306,60
686,86	1249,26
687,05	1241,07
687,23	1263,60
687,42	1206,25
687,60	1277,93
687,79	1253,36
687,97	1259,50
688,16	1284,08
688,34	1343,47
688,53	1241,07
688,71	1222,64
688,90	1286,12
689,08	1304,56
689,27	1269,74
689,45	1282,03
689,64	1273,84
689,82	1318,89
690,01	1210,35
690,19	1273,84
690,38	1304,56
690,56	1318,89
690,75	1212,40
690,93	1230,83
691,12	1189,87
691,30	1282,03
691,49	1275,88
691,67	1247,21
691,86	1296,36
692,04	1284,08
692,23	1325,04
692,41	1337,32
692,60	1214,45
692,78	1292,27
692,97	1239,02
693,15	1271,79
693,34	1314,80
693,52	1288,17
693,71	1275,88
693,89	1318,89
694,08	1200,11
694,26	1267,69
694,44	1290,22
694,63	1263,60
694,81	1318,89
695,00	1177,58
695,18	1275,88
695,37	1296,36
695,55	1259,50
695,74	1169,39
695,92	1253,36
696,10	1286,12
696,29	1245,16
696,47	1255,40
696,66	1339,37
696,84	1259,50
697,03	1255,40
697,21	1226,73
697,40	1275,88
697,58	1269,74
697,76	1314,80
697,95	1282,03
698,13	1230,83
698,32	1259,50
698,50	1329,13
698,68	1277,93
698,87	1267,69
699,05	1325,04
699,24	1263,60
699,42	1247,21
699,61	1247,21
699,79	1265,64
699,97	1257,45
700,16	1263,60
700,34	1247,21
700,53	1241,07
700,71	1316,84
700,89	1257,45
701,08	1304,56
701,26	1288,17
701,45	1310,70
701,63	1292,27
701,81	1265,64
702,00	1298,41
702,18	1204,21
702,37	1345,52
702,55	1286,12
702,73	1261,55
702,92	1247,21
703,10	1302,51
703,28	1271,79
703,47	1294,32
703,65	1257,45
703,84	1312,75
704,02	1226,73
704,20	1247,21
704,39	1245,16
704,57	1228,78
704,75	1239,02
704,94	1269,74
705,12	1296,36
705,30	1253,36
705,49	1212,40
705,67	1224,69
705,86	1255,40
706,04	1300,46
706,22	1214,45
706,41	1234,93
706,59	1304,56
706,77	1257,45
706,96	1243,12
707,14	1312,75
707,32	1308,65
707,51	1294,32
707,69	1261,55
707,87	1245,16
708,06	1255,40
708,24	1312,75
708,42	1263,60
708,61	1249,26
708,79	1216,49
708,97	1314,80
709,16	1277,93
709,34	1277,93
709,52	1312,75
709,71	1318,89
709,89	1298,41
710,07	1247,21
710,26	1218,54
710,44	1273,84
710,62	1259,50
710,80	1288,17
710,99	1308,65
711,17	1355,76
711,35	1273,84
711,54	1271,79
711,72	1239,02
711,90	1351,66
712,09	1263,60
712,27	1290,22
712,45	1294,32
712,63	1368,04
712,82	1308,65
713,00	1234,93
713,18	1198,06
713,37	1267,69
713,55	1249,26
713,73	1263,60
713,91	1234,93
714,10	1322,99
714,28	1230,83
714,46	1263,60
714,65	1288,17
714,83	1265,64
715,01	1259,50
715,19	1261,55
715,38	1249,26
715,56	1273,84
715,74	1275,88
715,92	1273,84
716,11	1298,41
716,29	1179,63
716,47	1284,08
716,65	1296,36
716,84	1257,45
717,02	1304,56
717,20	1251,31
717,38	1271,79
717,57	1288,17
717,75	1218,54
717,93	1279,98
718,11	1271,79
718,30	1314,80
718,48	1210,35
718,66	1286,12
718,84	1230,83
719,03	1261,55
719,21	1337,32
719,39	1243,12
719,57	1269,74
719,75	1306,60
719,94	1265,64
720,12	1294,32
720,30	1288,17
720,48	1286,12
720,67	1255,40
720,85	1318,89
721,03	1286,12
721,21	1224,69
721,39	1304,56
721,58	1222,64
721,76	1279,98
721,94	1273,84
722,12	1247,21
722,30	1298,41
722,49	1234,93
722,67	1226,73
722,85	1196,01
723,03	1185,77
723,21	1275,88
723,40	1286,12
723,58	1320,94
723,76	1241,07
723,94	1320,94
724,12	1183,73
724,30	1290,22
724,49	1255,40
724,67	1277,93
724,85	1302,51
725,03	1259,50
725,21	1249,26
725,40	1370,09
725,58	1296,36
725,76	1202,16
725,94	1380,33
726,12	1284,08
726,30	1261,55
726,49	1279,98
726,67	1267,69
726,85	1271,79
727,03	1343,47
727,21	1300,46
727,39	1279,98
727,57	1239,02
727,76	1226,73
727,94	1263,60
728,12	1335,28
728,30	1296,36
728,48	1306,60
728,66	1245,16
728,84	1232,88
729,03	1304,56
729,21	1322,99
729,39	1202,16
729,57	1273,84
729,75	1329,13
729,93	1318,89
730,11	1236,97
730,30	1273,84
730,48	1282,03
730,66	1290,22
730,84	1347,56
731,02	1253,36
731,20	1322,99
731,38	1327,08
731,56	1259,50
731,74	1232,88
731,93	1218,54
732,11	1282,03
732,29	1325,04
732,47	1183,73
732,65	1251,31
732,83	1234,93
733,01	1286,12
733,19	1247,21
733,37	1302,51
733,56	1241,07
733,74	1271,79
733,92	1290,22
734,10	1322,99
734,28	1228,78
734,46	1208,30
734,64	1249,26
734,82	1232,88
735,00	1234,93
735,18	1286,12
735,36	1210,35
735,54	1222,64
735,73	1302,51
735,91	1302,51
736,09	1220,59
736,27	1257,45
736,45	1277,93
736,63	1314,80
736,81	1277,93
736,99	1331,18
737,17	1294,32
737,35	1257,45
737,53	1263,60
737,71	1265,64
737,89	1263,60
738,07	1337,32
738,25	1257,45
738,43	1249,26
738,61	1222,64
738,80	1312,75
738,98	1224,69
739,16	1216,49
739,34	1212,40
739,52	1241,07
739,70	1228,78
739,88	1331,18
740,06	1218,54
740,24	1269,74
740,42	1210,35
740,60	1228,78
740,78	1320,94
740,96	1179,63
741,14	1249,26
741,32	1349,61
741,50	1249,26
741,68	1300,46
741,86	1306,60
742,04	1269,74
742,22	1267,69
742,40	1212,40
742,58	1275,88
742,76	1327,08
742,94	1288,17
743,12	1343,47
743,30	1241,07
743,48	1294,32
743,66	1216,49
743,84	1335,28
744,02	1277,93
744,20	1290,22
744,38	1263,60
744,56	1273,84
744,74	1279,98
744,92	1318,89
745,10	1249,26
745,28	1236,97
745,46	1257,45
745,64	1253,36
745,82	1230,83
746,00	1286,12
746,18	1318,89
746,36	1312,75
746,54	1239,02
746,72	1318,89
746,90	1290,22
747,08	1245,16
747,26	1296,36
747,44	1302,51
747,62	1279,98
747,80	1257,45
747,98	1331,18
748,15	1251,31
748,33	1279,98
748,51	1284,08
748,69	1312,75
748,87	1261,55
749,05	1312,75
749,23	1279,98
749,41	1300,46
749,59	1298,41
749,77	1275,88
749,95	1302,51
750,13	1333,23
750,31	1273,84
750,49	1245,16
750,67	1290,22
750,85	1273,84
751,03	1257,45
751,20	1277,93
751,38	1294,32
751,56	1292,27
751,74	1314,80
751,92	1318,89
752,10	1241,07
752,28	1236,97
752,46	1265,64
752,64	1206,25
752,82	1286,12
753,00	1249,26
753,18	1374,19
753,35	1288,17
753,53	1247,21
753,71	1261,55
753,89	1253,36
754,07	1193,97
754,25	1177,58
754,43	1288,17
754,61	1196,01
754,79	1306,60
754,97	1247,21
755,14	1294,32
755,32	1312,75
755,50	1214,45
755,68	1204,21
755,86	1239,02
756,04	1251,31
756,22	1325,04
756,40	1337,32
756,57	1320,94
756,75	1275,88
756,93	1320,94
757,11	1239,02
757,29	1286,12
757,47	1257,45
757,65	1267,69
757,82	1263,60
758,00	1284,08
758,18	1269,74
758,36	1224,69
758,54	1247,21
758,72	1279,98
758,90	1300,46
759,07	1267,69
759,25	1261,55
759,43	1245,16
759,61	1220,59
759,79	1298,41
759,97	1327,08
760,15	1296,36
760,32	1306,60
760,50	1271,79
760,68	1312,75
760,86	1259,50
761,04	1261,55
761,22	1222,64
761,39	1247,21
761,57	1294,32
761,75	1327,08
761,93	1271,79
762,11	1308,65
762,28	1253,36
762,46	1351,66
762,64	1292,27
762,82	1224,69
763,00	1183,73
763,18	1308,65
763,35	1300,46
763,53	1284,08
763,71	1300,46
763,89	1236,97
764,07	1292,27
764,24	1282,03
764,42	1290,22
764,60	1222,64
764,78	1290,22
764,96	1241,07
765,13	1277,93
765,31	1261,55
765,49	1314,80
765,67	1279,98
765,84	1218,54
766,02	1200,11
766,20	1329,13
766,38	1288,17
766,56	1222,64
766,73	1261,55
766,91	1282,03
767,09	1314,80
767,27	1261,55
767,44	1251,31
767,62	1249,26
767,80	1310,70
767,98	1210,35
768,15	1306,60
768,33	1241,07
768,51	1255,40
768,69	1286,12
768,87	1267,69
769,04	1290,22
769,22	1241,07
769,40	1294,32
769,58	1286,12
769,75	1279,98
769,93	1230,83
770,11	1316,84
770,28	1208,30
770,46	1271,79
770,64	1263,60
770,82	1247,21
770,99	1226,73
771,17	1253,36
771,35	1331,18
771,53	1243,12
771,70	1277,93
771,88	1255,40
772,06	1222,64
772,23	1304,56
772,41	1230,83
772,59	1247,21
772,77	1150,96
772,94	1312,75
773,12	1337,32
773,30	1308,65
773,47	1249,26
773,65	1222,64
773,83	1310,70
774,01	1320,94
774,18	1232,88
774,36	1251,31
774,54	1273,84
774,71	1279,98
774,89	1241,07
775,07	1292,27
775,24	1263,60
775,42	1228,78
775,60	1265,64
775,78	1269,74
775,95	1241,07
776,13	1226,73
776,31	1314,80
776,48	1222,64
776,66	1239,02
776,84	1234,93
777,01	1282,03
777,19	1290,22
777,37	1288,17
777,54	1239,02
777,72	1265,64
777,90	1288,17
778,07	1243,12
778,25	1310,70
778,43	1320,94
778,60	1279,98
778,78	1294,32
778,96	1253,36
779,13	1269,74
779,31	1257,45
779,49	1247,21
779,66	1265,64
779,84	1230,83
780,01	1298,41
780,19	1304,56
780,37	1208,30
780,54	1263,60
780,72	1310,70
780,90	1255,40
781,07	1298,41
781,25	1249,26
781,43	1216,49
781,60	1282,03
781,78	1337,32
781,95	1345,52
782,13	1296,36
782,31	1208,30
782,48	1259,50
782,66	1271,79
782,83	1257,45
783,01	1304,56
783,19	1337,32
783,36	1318,89
783,54	1275,88
783,72	1314,80
783,89	1271,79
784,07	1314,80
784,24	1310,70
784,42	1249,26
784,60	1308,65
784,77	1325,04
784,95	1300,46
785,12	1247,21
785,30	1279,98
785,47	1277,93
785,65	1296,36
785,83	1286,12
786,00	1335,28
786,18	1308,65
786,35	1247,21
786,53	1302,51
786,71	1234,93
786,88	1239,02
787,06	1282,03
787,23	1308,65
787,41	1208,30
787,58	1322,99
787,76	1292,27
787,94	1253,36
788,11	1230,83
788,29	1345,52
788,46	1261,55
788,64	1275,88
788,81	1275,88
788,99	1251,31
789,16	1320,94
789,34	1292,27
789,52	1216,49
789,69	1265,64
789,87	1236,97
790,04	1275,88
790,22	1263,60
790,39	1355,76
790,57	1243,12
790,74	1247,21
790,92	1269,74
791,09	1279,98
791,27	1249,26
791,44	1275,88
791,62	1208,30
791,79	1249,26
791,97	1208,30
792,15	1202,16
792,32	1282,03
792,50	1271,79
792,67	1298,41
792,85	1331,18
793,02	1259,50
793,20	1255,40
793,37	1282,03
793,55	1339,37
793,72	1249,26
793,90	1265,64
794,07	1279,98
794,25	1294,32
794,42	1318,89
794,60	1327,08
794,77	1263,60
794,95	1333,23
795,12	1273,84
795,30	1251,31
795,47	1275,88
795,65	1224,69
795,82	1269,74
796,00	1304,56
796,17	1304,56
796,34	1331,18
796,52	1351,66
796,69	1228,78
796,87	1271,79
797,04	1232,88
797,22	1275,88
797,39	1282,03
797,57	1232,88
797,74	1286,12
797,92	1253,36
798,09	1271,79
798,27	1275,88
798,44	1212,40
798,62	1271,79
798,79	1288,17
798,96	1322,99
799,14	1288,17
799,31	1288,17
799,49	1275,88
799,66	1300,46
799,84	1259,50
800,01	1306,60
800,19	1279,98
800,36	1220,59
800,53	1282,03
800,71	1361,90
800,88	1216,49
801,06	1228,78
801,23	1202,16
801,41	1296,36
801,58	1304,56
801,75	1263,60
801,93	1288,17
802,10	1239,02
802,28	1222,64
802,45	1269,74
802,63	1290,22
802,80	1290,22
802,97	1347,56
803,15	1241,07
803,32	1347,56
803,50	1288,17
803,67	1271,79
803,84	1200,11
804,02	1234,93
804,19	1257,45
804,37	1224,69
804,54	1153,01
804,71	1282,03
804,89	1308,65
805,06	1290,22
805,24	1318,89
805,41	1288,17
805,58	1277,93
805,76	1290,22
805,93	1263,60
806,10	1228,78
806,28	1290,22
806,45	1310,70
806,63	1339,37
806,80	1275,88
806,97	1267,69
807,15	1277,93
807,32	1255,40
807,49	1314,80
807,67	1216,49
807,84	1277,93
808,01	1314,80
808,19	1300,46
808,36	1300,46
808,54	1288,17
808,71	1331,18
808,88	1296,36
809,06	1226,73
809,23	1300,46
809,40	1265,64
809,58	1302,51
809,75	1275,88
809,92	1226,73
810,10	1341,42
810,27	1288,17
810,44	1204,21
810,62	1236,97
810,79	1288,17
810,96	1314,80
811,14	1343,47
811,31	1263,60
811,48	1312,75
811,66	1222,64
811,83	1232,88
812,00	1312,75
812,18	1292,27
812,35	1265,64
812,52	1216,49
812,69	1296,36
812,87	1275,88
813,04	1269,74
813,21	1265,64
813,39	1247,21
813,56	1335,28
813,73	1296,36
813,91	1296,36
814,08	1279,98
814,25	1214,45
814,42	1284,08
814,60	1271,79
814,77	1261,55
814,94	1230,83
815,12	1296,36
815,29	1249,26
815,46	1300,46
815,63	1179,63
815,81	1286,12
815,98	1300,46
816,15	1257,45
816,33	1236,97
816,50	1286,12
816,67	1214,45
816,84	1314,80
817,02	1208,30
817,19	1320,94
817,36	1269,74
817,53	1290,22
817,71	1255,40
817,88	1388,52
818,05	1318,89
818,22	1269,74
818,40	1257,45
818,57	1279,98
818,74	1333,23
818,91	1284,08
819,09	1208,30
819,26	1222,64
819,43	1282,03
819,60	1261,55
819,78	1224,69
819,95	1279,98
820,12	1318,89
820,29	1304,56
820,47	1226,73
820,64	1173,49
820,81	1206,25
820,98	1327,08
821,15	1247,21
821,33	1282,03
821,50	1202,16
821,67	1228,78
821,84	1310,70
822,02	1322,99
822,19	1239,02
822,36	1247,21
822,53	1277,93
822,70	1275,88
822,88	1251,31
823,05	1218,54
823,22	1196,01
823,39	1279,98
823,56	1241,07
823,74	1327,08
823,91	1288,17
824,08	1279,98
824,25	1282,03
824,42	1288,17
824,60	1243,12
824,77	1290,22
824,94	1279,98
825,11	1279,98
825,28	1200,11
825,45	1214,45
825,63	1245,16
825,80	1261,55
825,97	1279,98
826,14	1265,64
826,31	1314,80
826,48	1267,69
826,66	1226,73
826,83	1259,50
827,00	1288,17
827,17	1259,50
827,34	1288,17
827,51	1261,55
827,69	1232,88
827,86	1265,64
828,03	1282,03
828,20	1249,26
828,37	1290,22
828,54	1302,51
828,71	1253,36
828,89	1216,49
829,06	1279,98
829,23	1204,21
829,40	1265,64
829,57	1306,60
829,74	1249,26
829,91	1318,89
830,09	1255,40
830,26	1306,60
830,43	1230,83
830,60	1216,49
830,77	1249,26
830,94	1255,40
831,11	1277,93
831,28	1257,45
831,46	1329,13
831,63	1273,84
831,80	1224,69
831,97	1302,51
832,14	1210,35
832,31	1241,07
832,48	1335,28
832,65	1302,51
832,82	1261,55
832,99	1273,84
833,17	1265,64
833,34	1288,17
833,51	1279,98
833,68	1341,42
833,85	1263,60
834,02	1247,21
834,19	1273,84
834,36	1259,50
834,53	1224,69
834,70	1253,36
834,87	1179,63
835,04	1282,03
835,22	1220,59
835,39	1239,02
835,56	1257,45
835,73	1292,27
835,90	1282,03
836,07	1187,82
836,24	1183,73
836,41	1279,98
836,58	1279,98
836,75	1234,93
836,92	1273,84
837,09	1224,69
837,26	1232,88
837,43	1282,03
837,60	1304,56
837,77	1304,56
837,94	1253,36
838,12	1294,32
838,29	1267,69
838,46	1275,88
838,63	1282,03
838,80	1249,26
838,97	1220,59
839,14	1263,60
839,31	1269,74
839,48	1304,56
839,65	1308,65
839,82	1347,56
839,99	1304,56
840,16	1343,47
840,33	1245,16
840,50	1267,69
840,67	1226,73
840,84	1279,98
841,01	1273,84
841,18	1198,06
841,35	1304,56
841,52	1282,03
841,69	1318,89
841,86	1290,22
842,03	1286,12
842,20	1347,56
842,37	1288,17
842,54	1320,94
842,71	1253,36
842,88	1226,73
843,05	1282,03
843,22	1279,98
843,39	1318,89
843,56	1331,18
843,73	1298,41
843,90	1247,21
844,07	1249,26
844,24	1267,69
844,41	1271,79
844,58	1288,17
844,75	1284,08
844,92	1239,02
845,09	1263,60
845,26	1288,17
845,43	1302,51
845,60	1224,69
845,77	1320,94
845,94	1296,36
846,10	1310,70
846,27	1343,47
846,44	1306,60
846,61	1251,31
846,78	1271,79
846,95	1183,73
847,12	1279,98
847,29	1239,02
847,46	1306,60
847,63	1251,31
847,80	1320,94
847,97	1263,60
848,14	1236,97
848,31	1304,56
848,48	1253,36
848,65	1339,37
848,82	1310,70
848,98	1245,16
849,15	1292,27
849,32	1271,79
849,49	1279,98
849,66	1310,70
849,83	1265,64
850,00	1269,74
850,17	1312,75
850,34	1236,97
850,51	1259,50
850,68	1345,52
850,85	1314,80
851,01	1269,74
851,18	1257,45
851,35	1288,17
851,52	1308,65
851,69	1306,60
851,86	1277,93
852,03	1279,98
852,20	1296,36
852,37	1263,60
852,53	1312,75
852,70	1325,04
852,87	1337,32
853,04	1288,17
853,21	1275,88
853,38	1363,95
853,55	1306,60
853,72	1212,40
853,89	1359,85
854,05	1310,70
854,22	1222,64
854,39	1214,45
854,56	1261,55
854,73	1210,35
854,90	1335,28
855,07	1243,12
855,23	1261,55
855,40	1292,27
855,57	1208,30
855,74	1267,69
855,91	1298,41
856,08	1198,06
856,25	1230,83
856,41	1277,93
856,58	1249,26
856,75	1288,17
856,92	1212,40
857,09	1277,93
857,26	1249,26
857,42	1294,32
857,59	1241,07
857,76	1279,98
857,93	1230,83
858,10	1189,87
858,27	1236,97
858,43	1302,51
858,60	1253,36
858,77	1265,64
858,94	1286,12
859,11	1208,30
859,27	1396,71
859,44	1288,17
859,61	1243,12
859,78	1286,12
859,95	1327,08
860,12	1265,64
860,28	1265,64
860,45	1376,24
860,62	1251,31
860,79	1306,60
860,95	1218,54
861,12	1261,55
861,29	1292,27
861,46	1296,36
861,63	1265,64
861,79	1247,21
861,96	1322,99
862,13	1214,45
862,30	1234,93
862,47	1312,75
862,63	1286,12
862,80	1314,80
862,97	1314,80
863,14	1212,40
863,30	1210,35
863,47	1228,78
863,64	1267,69
863,81	1296,36
863,97	1232,88
864,14	1232,88
864,31	1331,18
864,48	1249,26
864,65	1241,07
864,81	1271,79
864,98	1347,56
865,15	1294,32
865,32	1306,60
865,48	1290,22
865,65	1279,98
865,82	1226,73
865,98	1245,16
866,15	1310,70
866,32	1259,50
866,49	1333,23
866,65	1290,22
866,82	1310,70
866,99	1200,11
867,16	1228,78
867,32	1249,26
867,49	1261,55
867,66	1200,11
867,83	1249,26
867,99	1253,36
868,16	1239,02
868,33	1241,07
868,49	1294,32
868,66	1206,25
868,83	1312,75
868,99	1230,83
869,16	1271,79
869,33	1316,84
869,50	1292,27
869,66	1314,80
869,83	1257,45
870,00	1314,80
870,16	1271,79
870,33	1247,21
870,50	1247,21
870,66	1269,74
870,83	1279,98
871,00	1290,22
871,17	1273,84
871,33	1271,79
871,50	1222,64
871,67	1318,89
871,83	1267,69
872,00	1277,93
872,17	1333,23
872,33	1284,08
872,50	1327,08
872,67	1218,54
872,83	1206,25
873,00	1241,07
873,17	1265,64
873,33	1329,13
873,50	1275,88
873,67	1259,50
873,83	1236,97
874,00	1327,08
874,16	1296,36
874,33	1306,60
874,50	1265,64
874,66	1261,55
874,83	1253,36
875,00	1243,12
875,16	1271,79
875,33	1329,13
875,50	1153,01
875,66	1294,32
875,83	1247,21
875,99	1288,17
876,16	1320,94
876,33	1282,03
876,49	1279,98
876,66	1267,69
876,83	1279,98
876,99	1179,63
877,16	1298,41
877,32	1265,64
877,49	1347,56
877,66	1308,65
877,82	1255,40
877,99	1275,88
878,15	1265,64
878,32	1306,60
878,49	1236,97
878,65	1255,40
878,82	1263,60
878,98	1361,90
879,15	1316,84
879,32	1277,93
879,48	1284,08
879,65	1241,07
879,81	1247,21
879,98	1296,36
880,15	1275,88
880,31	1269,74
880,48	1208,30
880,64	1279,98
880,81	1306,60
880,97	1294,32
881,14	1286,12
881,31	1290,22
881,47	1253,36
881,64	1284,08
881,80	1277,93
881,97	1275,88
882,13	1255,40
882,30	1282,03
882,47	1232,88
882,63	1298,41
882,80	1257,45
882,96	1312,75
883,13	1318,89
883,29	1191,92
883,46	1284,08
883,62	1294,32
883,79	1347,56
883,95	1290,22
884,12	1335,28
884,29	1232,88
884,45	1275,88
884,62	1279,98
884,78	1277,93
884,95	1310,70
885,11	1259,50
885,28	1263,60
885,44	1265,64
885,61	1327,08
885,77	1322,99
885,94	1271,79
886,10	1222,64
886,27	1320,94
886,43	1257,45
886,60	1277,93
886,76	1265,64
886,93	1288,17
887,09	1282,03
887,26	1224,69
887,42	1298,41
887,59	1316,84
887,75	1251,31
887,92	1259,50
888,08	1255,40
888,25	1222,64
888,41	1343,47
888,58	1304,56
888,74	1282,03
888,91	1320,94
>>>>>End Processed Spectral Data<<<<<
