SpectraSuite Data File
++++++++++++++++++++++++++++++++++++
Date: Sun Apr 03 19:06:34 CEST 2016
User: root
Dark Spectrum Present: No
Reference Spectrum Present: No
Number of Sampled Component Spectra: 1
Spectrometers: USB4C02835
Integration Time (usec): 10000 (USB4C02835)
Spectra Averaged: 1 (USB4C02835)
Boxcar Smoothing: 0 (USB4C02835)
Correct for Electrical Dark: No (USB4C02835)
Strobe/Lamp Enabled: No (USB4C02835)
Correct for Detector Non-linearity: No (USB4C02835)
Correct for Stray Light: No (USB4C02835)
Number of Pixels in Processed Spectrum: 3648
>>>>>Begin Processed Spectral Data<<<<<
177,47	1198,06
177,69	1198,06
177,91	1198,06
178,13	1296,36
178,36	1208,30
178,58	1222,64
178,80	1257,45
179,02	1232,88
179,24	1212,40
179,46	1275,88
179,68	1271,79
179,90	1355,76
180,13	1255,40
180,35	1284,08
180,57	1277,93
180,79	1204,21
181,01	1282,03
181,23	1265,64
181,45	1329,13
181,67	1271,79
181,90	1284,08
182,12	1239,02
182,34	1290,22
182,56	1275,88
182,78	1316,84
183,00	1249,26
183,22	1249,26
183,44	1218,54
183,66	1204,21
183,89	1247,21
184,11	1277,93
184,33	1275,88
184,55	1288,17
184,77	1318,89
184,99	1200,11
185,21	1259,50
185,43	1271,79
185,65	1267,69
185,87	1247,21
186,10	1341,42
186,32	1320,94
186,54	1277,93
186,76	1343,47
186,98	1257,45
187,20	1222,64
187,42	1173,49
187,64	1290,22
187,86	1253,36
188,08	1206,25
188,30	1245,16
188,52	1253,36
188,75	1353,71
188,97	1306,60
189,19	1282,03
189,41	1232,88
189,63	1306,60
189,85	1386,47
190,07	1230,83
190,29	1241,07
190,51	1265,64
190,73	1286,12
190,95	1282,03
191,17	1320,94
191,39	1302,51
191,61	1296,36
191,84	1239,02
192,06	1296,36
192,28	1189,87
192,50	1265,64
192,72	1314,80
192,94	1251,31
193,16	1320,94
193,38	1257,45
193,60	1210,35
193,82	1239,02
194,04	1314,80
194,26	1277,93
194,48	1249,26
194,70	1275,88
194,92	1284,08
195,14	1339,37
195,36	1210,35
195,58	1288,17
195,80	1255,40
196,02	1263,60
196,24	1284,08
196,46	1257,45
196,69	1312,75
196,91	1247,21
197,13	1253,36
197,35	1171,44
197,57	1249,26
197,79	1202,16
198,01	1259,50
198,23	1255,40
198,45	1234,93
198,67	1218,54
198,89	1273,84
199,11	1275,88
199,33	1255,40
199,55	1359,85
199,77	1249,26
199,99	1263,60
200,21	1298,41
200,43	1257,45
200,65	1267,69
200,87	1300,46
201,09	1253,36
201,31	1271,79
201,53	1275,88
201,75	1224,69
201,97	1333,23
202,19	1249,26
202,41	1320,94
202,63	1249,26
202,85	1253,36
203,07	1339,37
203,29	1288,17
203,51	1251,31
203,73	1271,79
203,95	1232,88
204,17	1228,78
204,39	1247,21
204,61	1239,02
204,83	1267,69
205,05	1234,93
205,27	1220,59
205,49	1222,64
205,71	1263,60
205,93	1282,03
206,15	1247,21
206,37	1210,35
206,59	1288,17
206,81	1261,55
207,03	1288,17
207,25	1286,12
207,47	1220,59
207,69	1269,74
207,91	1257,45
208,13	1300,46
208,34	1286,12
208,56	1224,69
208,78	1251,31
209,00	1292,27
209,22	1284,08
209,44	1257,45
209,66	1249,26
209,88	1247,21
210,10	1259,50
210,32	1220,59
210,54	1271,79
210,76	1239,02
210,98	1296,36
211,20	1263,60
211,42	1349,61
211,64	1298,41
211,86	1277,93
212,08	1236,97
212,30	1294,32
212,52	1247,21
212,74	1247,21
212,96	1277,93
213,17	1261,55
213,39	1271,79
213,61	1239,02
213,83	1265,64
214,05	1300,46
214,27	1269,74
214,49	1267,69
214,71	1306,60
214,93	1208,30
215,15	1290,22
215,37	1304,56
215,59	1310,70
215,81	1298,41
216,03	1253,36
216,24	1284,08
216,46	1241,07
216,68	1230,83
216,90	1257,45
217,12	1247,21
217,34	1331,18
217,56	1273,84
217,78	1269,74
218,00	1292,27
218,22	1294,32
218,44	1271,79
218,66	1255,40
218,87	1310,70
219,09	1171,44
219,31	1298,41
219,53	1282,03
219,75	1249,26
219,97	1239,02
220,19	1241,07
220,41	1288,17
220,63	1286,12
220,85	1249,26
221,06	1255,40
221,28	1243,12
221,50	1224,69
221,72	1181,68
221,94	1243,12
222,16	1275,88
222,38	1333,23
222,60	1269,74
222,82	1282,03
223,03	1273,84
223,25	1277,93
223,47	1327,08
223,69	1322,99
223,91	1224,69
224,13	1257,45
224,35	1257,45
224,57	1255,40
224,78	1279,98
225,00	1204,21
225,22	1284,08
225,44	1292,27
225,66	1198,06
225,88	1259,50
226,10	1271,79
226,32	1286,12
226,53	1306,60
226,75	1271,79
226,97	1320,94
227,19	1298,41
227,41	1284,08
227,63	1255,40
227,85	1279,98
228,06	1249,26
228,28	1232,88
228,50	1214,45
228,72	1335,28
228,94	1230,83
229,16	1318,89
229,37	1263,60
229,59	1236,97
229,81	1239,02
230,03	1247,21
230,25	1325,04
230,47	1187,82
230,69	1337,32
230,90	1236,97
231,12	1263,60
231,34	1286,12
231,56	1265,64
231,78	1312,75
232,00	1263,60
232,21	1302,51
232,43	1314,80
232,65	1257,45
232,87	1239,02
233,09	1267,69
233,30	1259,50
233,52	1232,88
233,74	1263,60
233,96	1271,79
234,18	1241,07
234,40	1257,45
234,61	1308,65
234,83	1302,51
235,05	1296,36
235,27	1224,69
235,49	1337,32
235,70	1353,71
235,92	1220,59
236,14	1331,18
236,36	1318,89
236,58	1243,12
236,79	1200,11
237,01	1286,12
237,23	1224,69
237,45	1224,69
237,67	1316,84
237,88	1259,50
238,10	1273,84
238,32	1277,93
238,54	1251,31
238,76	1318,89
238,97	1245,16
239,19	1259,50
239,41	1249,26
239,63	1232,88
239,85	1212,40
240,06	1294,32
240,28	1304,56
240,50	1298,41
240,72	1275,88
240,93	1286,12
241,15	1247,21
241,37	1191,92
241,59	1222,64
241,81	1239,02
242,02	1267,69
242,24	1284,08
242,46	1251,31
242,68	1224,69
242,89	1329,13
243,11	1273,84
243,33	1273,84
243,55	1271,79
243,76	1277,93
243,98	1296,36
244,20	1222,64
244,42	1224,69
244,64	1284,08
244,85	1245,16
245,07	1284,08
245,29	1318,89
245,51	1257,45
245,72	1204,21
245,94	1232,88
246,16	1224,69
246,38	1327,08
246,59	1230,83
246,81	1257,45
247,03	1253,36
247,24	1296,36
247,46	1234,93
247,68	1271,79
247,90	1218,54
248,11	1226,73
248,33	1263,60
248,55	1273,84
248,77	1308,65
248,98	1279,98
249,20	1253,36
249,42	1275,88
249,64	1308,65
249,85	1343,47
250,07	1222,64
250,29	1314,80
250,50	1267,69
250,72	1282,03
250,94	1234,93
251,16	1279,98
251,37	1322,99
251,59	1288,17
251,81	1251,31
252,02	1304,56
252,24	1275,88
252,46	1251,31
252,68	1226,73
252,89	1282,03
253,11	1302,51
253,33	1261,55
253,54	1251,31
253,76	1302,51
253,98	1167,34
254,20	1232,88
254,41	1181,68
254,63	1263,60
254,85	1269,74
255,06	1273,84
255,28	1257,45
255,50	1220,59
255,71	1329,13
255,93	1234,93
256,15	1286,12
256,36	1265,64
256,58	1202,16
256,80	1277,93
257,02	1253,36
257,23	1228,78
257,45	1232,88
257,67	1320,94
257,88	1306,60
258,10	1325,04
258,32	1259,50
258,53	1263,60
258,75	1312,75
258,97	1273,84
259,18	1353,71
259,40	1255,40
259,62	1271,79
259,83	1228,78
260,05	1333,23
260,27	1298,41
260,48	1253,36
260,70	1290,22
260,92	1310,70
261,13	1277,93
261,35	1214,45
261,57	1288,17
261,78	1282,03
262,00	1267,69
262,22	1243,12
262,43	1318,89
262,65	1245,16
262,86	1288,17
263,08	1239,02
263,30	1279,98
263,51	1279,98
263,73	1298,41
263,95	1302,51
264,16	1284,08
264,38	1230,83
264,60	1183,73
264,81	1279,98
265,03	1249,26
265,25	1241,07
265,46	1273,84
265,68	1206,25
265,89	1267,69
266,11	1218,54
266,33	1341,42
266,54	1226,73
266,76	1294,32
266,98	1271,79
267,19	1249,26
267,41	1218,54
267,62	1222,64
267,84	1292,27
268,06	1335,28
268,27	1279,98
268,49	1275,88
268,70	1292,27
268,92	1271,79
269,14	1273,84
269,35	1249,26
269,57	1249,26
269,79	1273,84
270,00	1216,49
270,22	1304,56
270,43	1255,40
270,65	1296,36
270,87	1218,54
271,08	1261,55
271,30	1255,40
271,51	1284,08
271,73	1273,84
271,95	1171,44
272,16	1288,17
272,38	1261,55
272,59	1261,55
272,81	1286,12
273,02	1318,89
273,24	1277,93
273,46	1296,36
273,67	1247,21
273,89	1259,50
274,10	1314,80
274,32	1210,35
274,54	1279,98
274,75	1284,08
274,97	1267,69
275,18	1259,50
275,40	1204,21
275,61	1255,40
275,83	1296,36
276,05	1286,12
276,26	1269,74
276,48	1253,36
276,69	1284,08
276,91	1224,69
277,12	1337,32
277,34	1255,40
277,55	1273,84
277,77	1245,16
277,99	1259,50
278,20	1261,55
278,42	1318,89
278,63	1212,40
278,85	1251,31
279,06	1259,50
279,28	1253,36
279,49	1187,82
279,71	1292,27
279,93	1298,41
280,14	1279,98
280,36	1279,98
280,57	1302,51
280,79	1241,07
281,00	1282,03
281,22	1193,97
281,43	1271,79
281,65	1228,78
281,86	1259,50
282,08	1304,56
282,29	1275,88
282,51	1245,16
282,73	1310,70
282,94	1290,22
283,16	1265,64
283,37	1290,22
283,59	1222,64
283,80	1322,99
284,02	1292,27
284,23	1316,84
284,45	1218,54
284,66	1300,46
284,88	1304,56
285,09	1243,12
285,31	1296,36
285,52	1275,88
285,74	1261,55
285,95	1290,22
286,17	1333,23
286,38	1402,86
286,60	1261,55
286,81	1296,36
287,03	1370,09
287,24	1286,12
287,46	1286,12
287,67	1216,49
287,89	1298,41
288,10	1189,87
288,32	1314,80
288,53	1284,08
288,75	1304,56
288,96	1282,03
289,18	1206,25
289,39	1314,80
289,61	1224,69
289,82	1236,97
290,04	1296,36
290,25	1284,08
290,47	1206,25
290,68	1249,26
290,90	1372,14
291,11	1284,08
291,33	1243,12
291,54	1267,69
291,76	1298,41
291,97	1296,36
292,18	1263,60
292,40	1308,65
292,61	1267,69
292,83	1275,88
293,04	1245,16
293,26	1255,40
293,47	1245,16
293,69	1275,88
293,90	1259,50
294,12	1292,27
294,33	1290,22
294,55	1181,68
294,76	1241,07
294,97	1212,40
295,19	1304,56
295,40	1298,41
295,62	1279,98
295,83	1263,60
296,05	1392,62
296,26	1341,42
296,48	1288,17
296,69	1335,28
296,90	1251,31
297,12	1296,36
297,33	1277,93
297,55	1261,55
297,76	1251,31
297,98	1236,97
298,19	1275,88
298,41	1282,03
298,62	1255,40
298,83	1216,49
299,05	1290,22
299,26	1294,32
299,48	1224,69
299,69	1249,26
299,90	1267,69
300,12	1228,78
300,33	1212,40
300,55	1339,37
300,76	1265,64
300,98	1273,84
301,19	1277,93
301,40	1296,36
301,62	1265,64
301,83	1331,18
302,05	1269,74
302,26	1288,17
302,47	1300,46
302,69	1241,07
302,90	1261,55
303,12	1286,12
303,33	1339,37
303,54	1284,08
303,76	1218,54
303,97	1249,26
304,19	1294,32
304,40	1351,66
304,61	1253,36
304,83	1265,64
305,04	1337,32
305,26	1275,88
305,47	1193,97
305,68	1249,26
305,90	1255,40
306,11	1259,50
306,33	1267,69
306,54	1255,40
306,75	1241,07
306,97	1200,11
307,18	1279,98
307,39	1220,59
307,61	1279,98
307,82	1290,22
308,04	1261,55
308,25	1302,51
308,46	1296,36
308,68	1267,69
308,89	1251,31
309,10	1271,79
309,32	1306,60
309,53	1234,93
309,74	1298,41
309,96	1214,45
310,17	1288,17
310,39	1279,98
310,60	1232,88
310,81	1302,51
311,03	1322,99
311,24	1232,88
311,45	1249,26
311,67	1277,93
311,88	1335,28
312,09	1308,65
312,31	1265,64
312,52	1208,30
312,73	1261,55
312,95	1267,69
313,16	1275,88
313,37	1277,93
313,59	1259,50
313,80	1220,59
314,01	1288,17
314,23	1304,56
314,44	1279,98
314,65	1218,54
314,87	1269,74
315,08	1253,36
315,29	1265,64
315,51	1327,08
315,72	1226,73
315,93	1290,22
316,15	1212,40
316,36	1327,08
316,57	1224,69
316,79	1275,88
317,00	1271,79
317,21	1239,02
317,43	1257,45
317,64	1253,36
317,85	1284,08
318,07	1300,46
318,28	1226,73
318,49	1312,75
318,70	1286,12
318,92	1171,44
319,13	1239,02
319,34	1327,08
319,56	1257,45
319,77	1263,60
319,98	1286,12
320,20	1249,26
320,41	1296,36
320,62	1251,31
320,83	1232,88
321,05	1249,26
321,26	1277,93
321,47	1296,36
321,69	1312,75
321,90	1253,36
322,11	1216,49
322,32	1214,45
322,54	1265,64
322,75	1282,03
322,96	1310,70
323,18	1320,94
323,39	1253,36
323,60	1249,26
323,81	1296,36
324,03	1243,12
324,24	1302,51
324,45	1234,93
324,66	1306,60
324,88	1261,55
325,09	1292,27
325,30	1218,54
325,52	1257,45
325,73	1269,74
325,94	1171,44
326,15	1304,56
326,37	1249,26
326,58	1282,03
326,79	1290,22
327,00	1271,79
327,22	1243,12
327,43	1271,79
327,64	1308,65
327,85	1290,22
328,07	1255,40
328,28	1347,56
328,49	1261,55
328,70	1282,03
328,92	1282,03
329,13	1241,07
329,34	1255,40
329,55	1210,35
329,76	1255,40
329,98	1243,12
330,19	1331,18
330,40	1212,40
330,61	1247,21
330,83	1310,70
331,04	1290,22
331,25	1282,03
331,46	1316,84
331,68	1224,69
331,89	1232,88
332,10	1257,45
332,31	1271,79
332,52	1306,60
332,74	1331,18
332,95	1206,25
333,16	1273,84
333,37	1259,50
333,58	1314,80
333,80	1292,27
334,01	1292,27
334,22	1249,26
334,43	1259,50
334,64	1222,64
334,86	1251,31
335,07	1318,89
335,28	1251,31
335,49	1302,51
335,70	1271,79
335,92	1269,74
336,13	1273,84
336,34	1275,88
336,55	1282,03
336,76	1255,40
336,98	1187,82
337,19	1234,93
337,40	1214,45
337,61	1333,23
337,82	1239,02
338,04	1361,90
338,25	1232,88
338,46	1279,98
338,67	1220,59
338,88	1236,97
339,09	1296,36
339,31	1273,84
339,52	1290,22
339,73	1218,54
339,94	1257,45
340,15	1273,84
340,36	1259,50
340,58	1306,60
340,79	1292,27
341,00	1279,98
341,21	1331,18
341,42	1218,54
341,63	1271,79
341,85	1282,03
342,06	1308,65
342,27	1177,58
342,48	1325,04
342,69	1241,07
342,90	1189,87
343,12	1234,93
343,33	1286,12
343,54	1290,22
343,75	1275,88
343,96	1232,88
344,17	1286,12
344,38	1286,12
344,60	1234,93
344,81	1327,08
345,02	1275,88
345,23	1320,94
345,44	1335,28
345,65	1265,64
345,86	1267,69
346,07	1241,07
346,29	1292,27
346,50	1208,30
346,71	1325,04
346,92	1275,88
347,13	1263,60
347,34	1316,84
347,55	1236,97
347,76	1284,08
347,98	1228,78
348,19	1261,55
348,40	1245,16
348,61	1247,21
348,82	1234,93
349,03	1253,36
349,24	1279,98
349,45	1234,93
349,66	1236,97
349,88	1322,99
350,09	1306,60
350,30	1265,64
350,51	1249,26
350,72	1257,45
350,93	1243,12
351,14	1243,12
351,35	1355,76
351,56	1288,17
351,77	1236,97
351,99	1273,84
352,20	1259,50
352,41	1261,55
352,62	1335,28
352,83	1187,82
353,04	1300,46
353,25	1232,88
353,46	1224,69
353,67	1298,41
353,88	1288,17
354,09	1341,42
354,30	1220,59
354,52	1253,36
354,73	1320,94
354,94	1284,08
355,15	1253,36
355,36	1208,30
355,57	1310,70
355,78	1273,84
355,99	1265,64
356,20	1224,69
356,41	1234,93
356,62	1329,13
356,83	1220,59
357,04	1263,60
357,25	1320,94
357,46	1304,56
357,68	1208,30
357,89	1230,83
358,10	1249,26
358,31	1286,12
358,52	1304,56
358,73	1286,12
358,94	1259,50
359,15	1261,55
359,36	1271,79
359,57	1224,69
359,78	1253,36
359,99	1296,36
360,20	1322,99
360,41	1290,22
360,62	1222,64
360,83	1265,64
361,04	1310,70
361,25	1320,94
361,46	1224,69
361,67	1322,99
361,88	1286,12
362,09	1257,45
362,30	1220,59
362,51	1265,64
362,72	1259,50
362,93	1273,84
363,14	1298,41
363,35	1212,40
363,56	1257,45
363,78	1257,45
363,99	1290,22
364,20	1308,65
364,41	1288,17
364,62	1204,21
364,83	1267,69
365,04	1202,16
365,25	1261,55
365,46	1216,49
365,67	1282,03
365,88	1318,89
366,09	1243,12
366,30	1265,64
366,51	1228,78
366,72	1224,69
366,93	1298,41
367,14	1249,26
367,35	1366,00
367,56	1277,93
367,77	1214,45
367,98	1363,95
368,18	1300,46
368,39	1249,26
368,60	1241,07
368,81	1286,12
369,02	1286,12
369,23	1290,22
369,44	1241,07
369,65	1214,45
369,86	1296,36
370,07	1220,59
370,28	1273,84
370,49	1322,99
370,70	1325,04
370,91	1312,75
371,12	1210,35
371,33	1249,26
371,54	1196,01
371,75	1253,36
371,96	1335,28
372,17	1218,54
372,38	1298,41
372,59	1288,17
372,80	1279,98
373,01	1236,97
373,22	1232,88
373,43	1269,74
373,64	1269,74
373,85	1306,60
374,06	1234,93
374,26	1343,47
374,47	1349,61
374,68	1279,98
374,89	1249,26
375,10	1253,36
375,31	1290,22
375,52	1228,78
375,73	1253,36
375,94	1222,64
376,15	1308,65
376,36	1267,69
376,57	1206,25
376,78	1269,74
376,99	1239,02
377,20	1372,14
377,40	1265,64
377,61	1263,60
377,82	1228,78
378,03	1275,88
378,24	1267,69
378,45	1243,12
378,66	1269,74
378,87	1261,55
379,08	1224,69
379,29	1275,88
379,50	1255,40
379,71	1318,89
379,91	1329,13
380,12	1298,41
380,33	1286,12
380,54	1310,70
380,75	1288,17
380,96	1284,08
381,17	1230,83
381,38	1228,78
381,59	1259,50
381,80	1245,16
382,00	1249,26
382,21	1296,36
382,42	1267,69
382,63	1308,65
382,84	1257,45
383,05	1218,54
383,26	1232,88
383,47	1304,56
383,68	1245,16
383,88	1271,79
384,09	1267,69
384,30	1206,25
384,51	1277,93
384,72	1290,22
384,93	1218,54
385,14	1298,41
385,35	1265,64
385,55	1316,84
385,76	1271,79
385,97	1300,46
386,18	1267,69
386,39	1179,63
386,60	1361,90
386,81	1259,50
387,02	1312,75
387,22	1234,93
387,43	1257,45
387,64	1198,06
387,85	1341,42
388,06	1366,00
388,27	1226,73
388,48	1239,02
388,68	1261,55
388,89	1271,79
389,10	1302,51
389,31	1239,02
389,52	1142,77
389,73	1253,36
389,93	1271,79
390,14	1228,78
390,35	1284,08
390,56	1243,12
390,77	1275,88
390,98	1230,83
391,18	1255,40
391,39	1247,21
391,60	1196,01
391,81	1347,56
392,02	1275,88
392,23	1286,12
392,43	1200,11
392,64	1200,11
392,85	1292,27
393,06	1202,16
393,27	1277,93
393,47	1189,87
393,68	1249,26
393,89	1331,18
394,10	1296,36
394,31	1286,12
394,52	1263,60
394,72	1206,25
394,93	1232,88
395,14	1298,41
395,35	1236,97
395,56	1198,06
395,76	1241,07
395,97	1322,99
396,18	1277,93
396,39	1216,49
396,60	1265,64
396,80	1279,98
397,01	1298,41
397,22	1226,73
397,43	1310,70
397,64	1253,36
397,84	1327,08
398,05	1220,59
398,26	1228,78
398,47	1241,07
398,67	1239,02
398,88	1208,30
399,09	1222,64
399,30	1261,55
399,51	1247,21
399,71	1273,84
399,92	1257,45
400,13	1277,93
400,34	1310,70
400,54	1286,12
400,75	1245,16
400,96	1296,36
401,17	1241,07
401,37	1284,08
401,58	1249,26
401,79	1308,65
402,00	1284,08
402,21	1224,69
402,41	1288,17
402,62	1271,79
402,83	1267,69
403,04	1284,08
403,24	1312,75
403,45	1269,74
403,66	1267,69
403,87	1314,80
404,07	1212,40
404,28	1230,83
404,49	1212,40
404,70	1308,65
404,90	1376,24
405,11	1257,45
405,32	1255,40
405,52	1263,60
405,73	1247,21
405,94	1218,54
406,15	1290,22
406,35	1257,45
406,56	1370,09
406,77	1275,88
406,98	1265,64
407,18	1282,03
407,39	1257,45
407,60	1234,93
407,80	1308,65
408,01	1247,21
408,22	1253,36
408,43	1171,44
408,63	1298,41
408,84	1200,11
409,05	1282,03
409,25	1216,49
409,46	1247,21
409,67	1218,54
409,88	1226,73
410,08	1275,88
410,29	1232,88
410,50	1198,06
410,70	1193,97
410,91	1325,04
411,12	1196,01
411,32	1292,27
411,53	1204,21
411,74	1241,07
411,95	1290,22
412,15	1275,88
412,36	1296,36
412,57	1335,28
412,77	1273,84
412,98	1241,07
413,19	1189,87
413,39	1267,69
413,60	1218,54
413,81	1255,40
414,01	1230,83
414,22	1239,02
414,43	1277,93
414,63	1222,64
414,84	1294,32
415,05	1277,93
415,25	1286,12
415,46	1249,26
415,67	1208,30
415,87	1208,30
416,08	1355,76
416,29	1284,08
416,49	1265,64
416,70	1243,12
416,91	1241,07
417,11	1271,79
417,32	1296,36
417,53	1236,97
417,73	1279,98
417,94	1316,84
418,15	1259,50
418,35	1202,16
418,56	1284,08
418,77	1292,27
418,97	1282,03
419,18	1273,84
419,38	1322,99
419,59	1288,17
419,80	1249,26
420,00	1245,16
420,21	1253,36
420,42	1216,49
420,62	1298,41
420,83	1316,84
421,04	1277,93
421,24	1277,93
421,45	1204,21
421,65	1327,08
421,86	1277,93
422,07	1253,36
422,27	1327,08
422,48	1269,74
422,69	1216,49
422,89	1228,78
423,10	1216,49
423,30	1341,42
423,51	1196,01
423,72	1343,47
423,92	1325,04
424,13	1224,69
424,33	1189,87
424,54	1241,07
424,75	1314,80
424,95	1236,97
425,16	1286,12
425,36	1239,02
425,57	1294,32
425,78	1282,03
425,98	1294,32
426,19	1282,03
426,39	1277,93
426,60	1228,78
426,81	1292,27
427,01	1236,97
427,22	1282,03
427,42	1259,50
427,63	1298,41
427,83	1277,93
428,04	1306,60
428,25	1255,40
428,45	1267,69
428,66	1282,03
428,86	1275,88
429,07	1304,56
429,28	1226,73
429,48	1228,78
429,69	1273,84
429,89	1318,89
430,10	1212,40
430,30	1279,98
430,51	1247,21
430,71	1318,89
430,92	1347,56
431,13	1314,80
431,33	1218,54
431,54	1243,12
431,74	1327,08
431,95	1279,98
432,15	1249,26
432,36	1245,16
432,56	1275,88
432,77	1249,26
432,98	1306,60
433,18	1269,74
433,39	1247,21
433,59	1210,35
433,80	1314,80
434,00	1322,99
434,21	1226,73
434,41	1304,56
434,62	1320,94
434,82	1257,45
435,03	1239,02
435,23	1224,69
435,44	1259,50
435,64	1284,08
435,85	1193,97
436,06	1306,60
436,26	1284,08
436,47	1202,16
436,67	1236,97
436,88	1282,03
437,08	1318,89
437,29	1243,12
437,49	1341,42
437,70	1288,17
437,90	1292,27
438,11	1257,45
438,31	1273,84
438,52	1271,79
438,72	1306,60
438,93	1226,73
439,13	1329,13
439,34	1212,40
439,54	1380,33
439,75	1257,45
439,95	1304,56
440,16	1251,31
440,36	1353,71
440,57	1208,30
440,77	1273,84
440,98	1212,40
441,18	1349,61
441,39	1257,45
441,59	1279,98
441,80	1249,26
442,00	1243,12
442,21	1298,41
442,41	1261,55
442,62	1251,31
442,82	1255,40
443,02	1257,45
443,23	1224,69
443,43	1226,73
443,64	1329,13
443,84	1183,73
444,05	1249,26
444,25	1275,88
444,46	1230,83
444,66	1277,93
444,87	1257,45
445,07	1279,98
445,28	1247,21
445,48	1277,93
445,69	1269,74
445,89	1277,93
446,09	1253,36
446,30	1214,45
446,50	1253,36
446,71	1298,41
446,91	1247,21
447,12	1224,69
447,32	1249,26
447,53	1290,22
447,73	1294,32
447,93	1286,12
448,14	1296,36
448,34	1196,01
448,55	1263,60
448,75	1325,04
448,96	1267,69
449,16	1218,54
449,36	1230,83
449,57	1226,73
449,77	1333,23
449,98	1308,65
450,18	1267,69
450,39	1304,56
450,59	1290,22
450,79	1245,16
451,00	1232,88
451,20	1263,60
451,41	1259,50
451,61	1224,69
451,81	1220,59
452,02	1320,94
452,22	1294,32
452,43	1314,80
452,63	1286,12
452,84	1310,70
453,04	1363,95
453,24	1335,28
453,45	1279,98
453,65	1310,70
453,86	1267,69
454,06	1275,88
454,26	1255,40
454,47	1302,51
454,67	1226,73
454,87	1224,69
455,08	1282,03
455,28	1277,93
455,49	1288,17
455,69	1181,68
455,89	1206,25
456,10	1222,64
456,30	1265,64
456,51	1230,83
456,71	1279,98
456,91	1292,27
457,12	1193,97
457,32	1249,26
457,52	1353,71
457,73	1292,27
457,93	1200,11
458,14	1302,51
458,34	1243,12
458,54	1241,07
458,75	1249,26
458,95	1269,74
459,15	1230,83
459,36	1251,31
459,56	1239,02
459,76	1363,95
459,97	1271,79
460,17	1234,93
460,37	1294,32
460,58	1306,60
460,78	1320,94
460,99	1216,49
461,19	1253,36
461,39	1245,16
461,60	1177,58
461,80	1222,64
462,00	1185,77
462,21	1273,84
462,41	1306,60
462,61	1179,63
462,82	1333,23
463,02	1292,27
463,22	1255,40
463,43	1243,12
463,63	1255,40
463,83	1249,26
464,04	1271,79
464,24	1241,07
464,44	1259,50
464,64	1214,45
464,85	1247,21
465,05	1245,16
465,25	1232,88
465,46	1228,78
465,66	1263,60
465,86	1290,22
466,07	1232,88
466,27	1230,83
466,47	1243,12
466,68	1171,44
466,88	1294,32
467,08	1273,84
467,29	1230,83
467,49	1284,08
467,69	1236,97
467,89	1138,67
468,10	1257,45
468,30	1265,64
468,50	1210,35
468,71	1265,64
468,91	1288,17
469,11	1222,64
469,31	1271,79
469,52	1294,32
469,72	1273,84
469,92	1296,36
470,13	1304,56
470,33	1253,36
470,53	1255,40
470,73	1312,75
470,94	1236,97
471,14	1277,93
471,34	1349,61
471,54	1271,79
471,75	1292,27
471,95	1210,35
472,15	1298,41
472,36	1282,03
472,56	1279,98
472,76	1294,32
472,96	1224,69
473,17	1241,07
473,37	1322,99
473,57	1329,13
473,77	1265,64
473,98	1331,18
474,18	1282,03
474,38	1331,18
474,58	1263,60
474,79	1310,70
474,99	1230,83
475,19	1288,17
475,39	1267,69
475,60	1294,32
475,80	1255,40
476,00	1236,97
476,20	1230,83
476,41	1279,98
476,61	1261,55
476,81	1263,60
477,01	1261,55
477,21	1306,60
477,42	1191,92
477,62	1239,02
477,82	1296,36
478,02	1232,88
478,23	1316,84
478,43	1259,50
478,63	1320,94
478,83	1314,80
479,03	1259,50
479,24	1249,26
479,44	1257,45
479,64	1265,64
479,84	1288,17
480,04	1312,75
480,25	1251,31
480,45	1279,98
480,65	1228,78
480,85	1288,17
481,06	1206,25
481,26	1251,31
481,46	1265,64
481,66	1241,07
481,86	1284,08
482,06	1316,84
482,27	1282,03
482,47	1261,55
482,67	1241,07
482,87	1257,45
483,07	1220,59
483,28	1267,69
483,48	1271,79
483,68	1196,01
483,88	1234,93
484,08	1222,64
484,29	1290,22
484,49	1339,37
484,69	1224,69
484,89	1294,32
485,09	1288,17
485,29	1304,56
485,50	1245,16
485,70	1296,36
485,90	1261,55
486,10	1253,36
486,30	1282,03
486,50	1255,40
486,71	1269,74
486,91	1257,45
487,11	1226,73
487,31	1234,93
487,51	1259,50
487,71	1304,56
487,91	1263,60
488,12	1277,93
488,32	1214,45
488,52	1296,36
488,72	1282,03
488,92	1279,98
489,12	1232,88
489,32	1310,70
489,53	1232,88
489,73	1261,55
489,93	1255,40
490,13	1220,59
490,33	1304,56
490,53	1214,45
490,73	1294,32
490,94	1318,89
491,14	1298,41
491,34	1302,51
491,54	1288,17
491,74	1206,25
491,94	1255,40
492,14	1304,56
492,34	1343,47
492,54	1202,16
492,75	1241,07
492,95	1288,17
493,15	1265,64
493,35	1196,01
493,55	1267,69
493,75	1292,27
493,95	1232,88
494,15	1249,26
494,35	1325,04
494,56	1239,02
494,76	1204,21
494,96	1279,98
495,16	1300,46
495,36	1232,88
495,56	1277,93
495,76	1308,65
495,96	1273,84
496,16	1245,16
496,36	1318,89
496,56	1204,21
496,77	1304,56
496,97	1263,60
497,17	1335,28
497,37	1314,80
497,57	1279,98
497,77	1241,07
497,97	1279,98
498,17	1277,93
498,37	1290,22
498,57	1191,92
498,77	1282,03
498,97	1329,13
499,17	1257,45
499,38	1322,99
499,58	1261,55
499,78	1245,16
499,98	1255,40
500,18	1198,06
500,38	1251,31
500,58	1208,30
500,78	1298,41
500,98	1277,93
501,18	1208,30
501,38	1271,79
501,58	1247,21
501,78	1245,16
501,98	1161,20
502,18	1191,92
502,38	1353,71
502,58	1277,93
502,78	1271,79
502,98	1312,75
503,18	1314,80
503,38	1290,22
503,59	1200,11
503,79	1277,93
503,99	1275,88
504,19	1251,31
504,39	1245,16
504,59	1241,07
504,79	1253,36
504,99	1282,03
505,19	1341,42
505,39	1265,64
505,59	1314,80
505,79	1249,26
505,99	1257,45
506,19	1271,79
506,39	1261,55
506,59	1247,21
506,79	1263,60
506,99	1261,55
507,19	1275,88
507,39	1228,78
507,59	1271,79
507,79	1288,17
507,99	1232,88
508,19	1267,69
508,39	1290,22
508,59	1204,21
508,79	1269,74
508,99	1290,22
509,19	1302,51
509,39	1249,26
509,59	1179,63
509,79	1247,21
509,99	1243,12
510,19	1284,08
510,39	1232,88
510,59	1224,69
510,79	1300,46
510,99	1198,06
511,19	1249,26
511,39	1292,27
511,59	1296,36
511,79	1253,36
511,99	1279,98
512,19	1312,75
512,38	1263,60
512,58	1216,49
512,78	1255,40
512,98	1296,36
513,18	1241,07
513,38	1224,69
513,58	1257,45
513,78	1255,40
513,98	1191,92
514,18	1300,46
514,38	1196,01
514,58	1300,46
514,78	1261,55
514,98	1257,45
515,18	1275,88
515,38	1228,78
515,58	1263,60
515,78	1282,03
515,98	1302,51
516,18	1312,75
516,38	1294,32
516,57	1255,40
516,77	1224,69
516,97	1255,40
517,17	1208,30
517,37	1263,60
517,57	1409,00
517,77	1337,32
517,97	1198,06
518,17	1239,02
518,37	1292,27
518,57	1259,50
518,77	1214,45
518,97	1316,84
519,16	1273,84
519,36	1218,54
519,56	1198,06
519,76	1304,56
519,96	1273,84
520,16	1255,40
520,36	1224,69
520,56	1329,13
520,76	1239,02
520,96	1271,79
521,16	1277,93
521,35	1282,03
521,55	1282,03
521,75	1333,23
521,95	1310,70
522,15	1236,97
522,35	1335,28
522,55	1255,40
522,75	1292,27
522,95	1261,55
523,14	1251,31
523,34	1335,28
523,54	1241,07
523,74	1366,00
523,94	1282,03
524,14	1286,12
524,34	1185,77
524,54	1304,56
524,73	1234,93
524,93	1298,41
525,13	1296,36
525,33	1169,39
525,53	1257,45
525,73	1251,31
525,93	1284,08
526,13	1232,88
526,32	1245,16
526,52	1284,08
526,72	1247,21
526,92	1239,02
527,12	1267,69
527,32	1228,78
527,52	1263,60
527,71	1251,31
527,91	1298,41
528,11	1308,65
528,31	1288,17
528,51	1247,21
528,71	1275,88
528,90	1257,45
529,10	1302,51
529,30	1220,59
529,50	1322,99
529,70	1210,35
529,90	1267,69
530,09	1286,12
530,29	1284,08
530,49	1306,60
530,69	1300,46
530,89	1265,64
531,09	1271,79
531,28	1253,36
531,48	1349,61
531,68	1308,65
531,88	1214,45
532,08	1255,40
532,28	1294,32
532,47	1296,36
532,67	1279,98
532,87	1284,08
533,07	1269,74
533,27	1214,45
533,46	1265,64
533,66	1271,79
533,86	1300,46
534,06	1255,40
534,26	1284,08
534,45	1271,79
534,65	1331,18
534,85	1224,69
535,05	1302,51
535,25	1208,30
535,44	1251,31
535,64	1245,16
535,84	1234,93
536,04	1204,21
536,24	1247,21
536,43	1228,78
536,63	1214,45
536,83	1263,60
537,03	1265,64
537,22	1341,42
537,42	1239,02
537,62	1228,78
537,82	1224,69
538,02	1271,79
538,21	1249,26
538,41	1269,74
538,61	1232,88
538,81	1251,31
539,00	1298,41
539,20	1239,02
539,40	1279,98
539,60	1269,74
539,79	1296,36
539,99	1286,12
540,19	1255,40
540,39	1318,89
540,58	1269,74
540,78	1292,27
540,98	1298,41
541,18	1220,59
541,37	1243,12
541,57	1253,36
541,77	1273,84
541,97	1236,97
542,16	1298,41
542,36	1222,64
542,56	1216,49
542,76	1316,84
542,95	1204,21
543,15	1294,32
543,35	1267,69
543,54	1236,97
543,74	1322,99
543,94	1220,59
544,14	1241,07
544,33	1220,59
544,53	1277,93
544,73	1273,84
544,93	1288,17
545,12	1353,71
545,32	1196,01
545,52	1282,03
545,71	1314,80
545,91	1241,07
546,11	1288,17
546,30	1290,22
546,50	1232,88
546,70	1327,08
546,90	1263,60
547,09	1251,31
547,29	1255,40
547,49	1322,99
547,68	1259,50
547,88	1296,36
548,08	1230,83
548,27	1263,60
548,47	1312,75
548,67	1243,12
548,87	1249,26
549,06	1302,51
549,26	1202,16
549,46	1228,78
549,65	1355,76
549,85	1196,01
550,05	1269,74
550,24	1327,08
550,44	1284,08
550,64	1312,75
550,83	1200,11
551,03	1308,65
551,23	1316,84
551,42	1243,12
551,62	1292,27
551,82	1222,64
552,01	1286,12
552,21	1216,49
552,41	1249,26
552,60	1232,88
552,80	1206,25
553,00	1230,83
553,19	1251,31
553,39	1265,64
553,59	1343,47
553,78	1261,55
553,98	1298,41
554,17	1226,73
554,37	1216,49
554,57	1241,07
554,76	1296,36
554,96	1282,03
555,16	1247,21
555,35	1239,02
555,55	1224,69
555,75	1183,73
555,94	1253,36
556,14	1267,69
556,33	1187,82
556,53	1226,73
556,73	1241,07
556,92	1253,36
557,12	1271,79
557,32	1269,74
557,51	1284,08
557,71	1308,65
557,90	1263,60
558,10	1236,97
558,30	1286,12
558,49	1257,45
558,69	1314,80
558,88	1282,03
559,08	1265,64
559,28	1304,56
559,47	1333,23
559,67	1271,79
559,86	1296,36
560,06	1306,60
560,26	1271,79
560,45	1222,64
560,65	1255,40
560,84	1292,27
561,04	1202,16
561,24	1232,88
561,43	1349,61
561,63	1329,13
561,82	1298,41
562,02	1269,74
562,22	1236,97
562,41	1327,08
562,61	1208,30
562,80	1288,17
563,00	1249,26
563,19	1239,02
563,39	1239,02
563,59	1249,26
563,78	1290,22
563,98	1298,41
564,17	1292,27
564,37	1253,36
564,56	1222,64
564,76	1251,31
564,96	1298,41
565,15	1269,74
565,35	1216,49
565,54	1245,16
565,74	1296,36
565,93	1218,54
566,13	1325,04
566,32	1286,12
566,52	1271,79
566,71	1210,35
566,91	1359,85
567,11	1243,12
567,30	1298,41
567,50	1243,12
567,69	1288,17
567,89	1228,78
568,08	1249,26
568,28	1282,03
568,47	1150,96
568,67	1279,98
568,86	1222,64
569,06	1259,50
569,25	1273,84
569,45	1208,30
569,64	1220,59
569,84	1239,02
570,04	1255,40
570,23	1294,32
570,43	1265,64
570,62	1273,84
570,82	1230,83
571,01	1331,18
571,21	1271,79
571,40	1302,51
571,60	1298,41
571,79	1282,03
571,99	1249,26
572,18	1232,88
572,38	1339,37
572,57	1282,03
572,77	1279,98
572,96	1251,31
573,16	1331,18
573,35	1222,64
573,55	1294,32
573,74	1214,45
573,94	1247,21
574,13	1224,69
574,33	1298,41
574,52	1259,50
574,71	1277,93
574,91	1277,93
575,10	1261,55
575,30	1265,64
575,49	1265,64
575,69	1302,51
575,88	1327,08
576,08	1224,69
576,27	1310,70
576,47	1261,55
576,66	1261,55
576,86	1298,41
577,05	1282,03
577,25	1232,88
577,44	1243,12
577,64	1275,88
577,83	1310,70
578,02	1220,59
578,22	1224,69
578,41	1259,50
578,61	1277,93
578,80	1267,69
579,00	1249,26
579,19	1261,55
579,39	1216,49
579,58	1255,40
579,77	1210,35
579,97	1230,83
580,16	1290,22
580,36	1236,97
580,55	1347,56
580,75	1230,83
580,94	1255,40
581,13	1355,76
581,33	1286,12
581,52	1308,65
581,72	1300,46
581,91	1279,98
582,11	1325,04
582,30	1255,40
582,49	1210,35
582,69	1253,36
582,88	1249,26
583,08	1284,08
583,27	1386,47
583,47	1247,21
583,66	1247,21
583,85	1249,26
584,05	1247,21
584,24	1224,69
584,44	1292,27
584,63	1163,25
584,82	1236,97
585,02	1214,45
585,21	1269,74
585,41	1286,12
585,60	1275,88
585,79	1232,88
585,99	1339,37
586,18	1261,55
586,37	1253,36
586,57	1206,25
586,76	1259,50
586,96	1243,12
587,15	1368,04
587,34	1232,88
587,54	1296,36
587,73	1198,06
587,93	1331,18
588,12	1257,45
588,31	1220,59
588,51	1196,01
588,70	1273,84
588,89	1310,70
589,09	1265,64
589,28	1294,32
589,47	1265,64
589,67	1241,07
589,86	1302,51
590,06	1261,55
590,25	1335,28
590,44	1236,97
590,64	1239,02
590,83	1239,02
591,02	1218,54
591,22	1343,47
591,41	1236,97
591,60	1310,70
591,80	1286,12
591,99	1245,16
592,18	1210,35
592,38	1167,34
592,57	1296,36
592,76	1247,21
592,96	1222,64
593,15	1327,08
593,34	1320,94
593,54	1306,60
593,73	1286,12
593,92	1226,73
594,12	1363,95
594,31	1251,31
594,50	1236,97
594,70	1218,54
594,89	1318,89
595,08	1249,26
595,28	1292,27
595,47	1269,74
595,66	1304,56
595,86	1314,80
596,05	1347,56
596,24	1302,51
596,43	1267,69
596,63	1265,64
596,82	1257,45
597,01	1224,69
597,21	1286,12
597,40	1236,97
597,59	1273,84
597,79	1259,50
597,98	1249,26
598,17	1249,26
598,36	1241,07
598,56	1206,25
598,75	1241,07
598,94	1257,45
599,14	1267,69
599,33	1306,60
599,52	1249,26
599,71	1284,08
599,91	1302,51
600,10	1339,37
600,29	1241,07
600,48	1271,79
600,68	1333,23
600,87	1333,23
601,06	1236,97
601,26	1232,88
601,45	1236,97
601,64	1257,45
601,83	1300,46
602,03	1257,45
602,22	1249,26
602,41	1226,73
602,60	1239,02
602,80	1308,65
602,99	1273,84
603,18	1249,26
603,37	1251,31
603,57	1212,40
603,76	1282,03
603,95	1261,55
604,14	1308,65
604,34	1245,16
604,53	1275,88
604,72	1214,45
604,91	1273,84
605,10	1306,60
605,30	1329,13
605,49	1247,21
605,68	1271,79
605,87	1294,32
606,07	1245,16
606,26	1312,75
606,45	1273,84
606,64	1279,98
606,84	1198,06
607,03	1284,08
607,22	1247,21
607,41	1175,53
607,60	1322,99
607,80	1304,56
607,99	1183,73
608,18	1247,21
608,37	1325,04
608,56	1230,83
608,76	1245,16
608,95	1228,78
609,14	1277,93
609,33	1216,49
609,52	1294,32
609,72	1271,79
609,91	1288,17
610,10	1212,40
610,29	1259,50
610,48	1261,55
610,68	1275,88
610,87	1206,25
611,06	1263,60
611,25	1228,78
611,44	1202,16
611,63	1208,30
611,83	1282,03
612,02	1212,40
612,21	1310,70
612,40	1257,45
612,59	1251,31
612,79	1300,46
612,98	1204,21
613,17	1306,60
613,36	1230,83
613,55	1249,26
613,74	1284,08
613,93	1259,50
614,13	1290,22
614,32	1243,12
614,51	1284,08
614,70	1255,40
614,89	1214,45
615,08	1271,79
615,28	1294,32
615,47	1318,89
615,66	1226,73
615,85	1232,88
616,04	1249,26
616,23	1261,55
616,42	1333,23
616,62	1308,65
616,81	1314,80
617,00	1245,16
617,19	1249,26
617,38	1286,12
617,57	1267,69
617,76	1320,94
617,95	1210,35
618,15	1206,25
618,34	1339,37
618,53	1329,13
618,72	1288,17
618,91	1275,88
619,10	1294,32
619,29	1259,50
619,48	1302,51
619,68	1202,16
619,87	1286,12
620,06	1279,98
620,25	1304,56
620,44	1224,69
620,63	1198,06
620,82	1257,45
621,01	1318,89
621,20	1185,77
621,39	1292,27
621,59	1220,59
621,78	1290,22
621,97	1320,94
622,16	1228,78
622,35	1261,55
622,54	1275,88
622,73	1261,55
622,92	1255,40
623,11	1308,65
623,30	1247,21
623,49	1253,36
623,68	1265,64
623,88	1255,40
624,07	1206,25
624,26	1277,93
624,45	1232,88
624,64	1259,50
624,83	1239,02
625,02	1265,64
625,21	1308,65
625,40	1355,76
625,59	1212,40
625,78	1292,27
625,97	1292,27
626,16	1333,23
626,35	1300,46
626,54	1331,18
626,74	1302,51
626,93	1310,70
627,12	1265,64
627,31	1267,69
627,50	1316,84
627,69	1279,98
627,88	1353,71
628,07	1275,88
628,26	1304,56
628,45	1267,69
628,64	1306,60
628,83	1349,61
629,02	1318,89
629,21	1304,56
629,40	1279,98
629,59	1300,46
629,78	1343,47
629,97	1339,37
630,16	1294,32
630,35	1329,13
630,54	1263,60
630,73	1343,47
630,92	1310,70
631,11	1294,32
631,30	1390,57
631,49	1392,62
631,68	1437,67
631,87	1748,97
632,06	2152,42
632,25	1947,62
632,44	2072,54
632,63	1886,18
632,82	1998,82
633,01	2222,05
633,20	1890,28
633,39	2209,76
633,58	2435,03
633,77	1966,05
633,96	2088,93
634,15	2678,74
634,34	4483,00
634,53	4448,19
634,72	3536,84
634,91	3999,68
635,10	6264,74
635,29	8093,57
635,48	8341,38
635,67	7571,34
635,86	6164,39
636,05	4917,17
636,24	3975,11
636,43	3155,92
636,62	2648,02
636,81	2084,83
637,00	1714,15
637,19	1509,35
637,38	1542,12
637,57	1392,62
637,76	1341,42
637,95	1400,81
638,14	1335,28
638,33	1304,56
638,52	1378,28
638,71	1306,60
638,89	1304,56
639,08	1247,21
639,27	1329,13
639,46	1306,60
639,65	1286,12
639,84	1257,45
640,03	1316,84
640,22	1275,88
640,41	1298,41
640,60	1226,73
640,79	1288,17
640,98	1210,35
641,17	1257,45
641,36	1302,51
641,55	1253,36
641,74	1290,22
641,92	1300,46
642,11	1193,97
642,30	1249,26
642,49	1232,88
642,68	1282,03
642,87	1267,69
643,06	1230,83
643,25	1257,45
643,44	1234,93
643,63	1273,84
643,82	1279,98
644,00	1286,12
644,19	1294,32
644,38	1253,36
644,57	1325,04
644,76	1304,56
644,95	1226,73
645,14	1208,30
645,33	1306,60
645,52	1243,12
645,71	1226,73
645,89	1294,32
646,08	1259,50
646,27	1257,45
646,46	1277,93
646,65	1294,32
646,84	1333,23
647,03	1306,60
647,22	1253,36
647,40	1288,17
647,59	1257,45
647,78	1290,22
647,97	1206,25
648,16	1210,35
648,35	1347,56
648,54	1253,36
648,73	1249,26
648,91	1222,64
649,10	1212,40
649,29	1306,60
649,48	1312,75
649,67	1263,60
649,86	1302,51
650,05	1345,52
650,23	1224,69
650,42	1343,47
650,61	1286,12
650,80	1247,21
650,99	1306,60
651,18	1298,41
651,36	1222,64
651,55	1300,46
651,74	1261,55
651,93	1273,84
652,12	1249,26
652,31	1302,51
652,49	1361,90
652,68	1312,75
652,87	1392,62
653,06	1292,27
653,25	1396,71
653,44	1251,31
653,62	1337,32
653,81	1243,12
654,00	1296,36
654,19	1290,22
654,38	1232,88
654,56	1222,64
654,75	1277,93
654,94	1304,56
655,13	1322,99
655,32	1279,98
655,51	1247,21
655,69	1239,02
655,88	1368,04
656,07	1290,22
656,26	1230,83
656,45	1251,31
656,63	1286,12
656,82	1232,88
657,01	1300,46
657,20	1220,59
657,38	1239,02
657,57	1245,16
657,76	1312,75
657,95	1279,98
658,14	1282,03
658,32	1277,93
658,51	1259,50
658,70	1273,84
658,89	1279,98
659,08	1220,59
659,26	1343,47
659,45	1259,50
659,64	1302,51
659,83	1302,51
660,01	1298,41
660,20	1220,59
660,39	1247,21
660,58	1200,11
660,76	1232,88
660,95	1232,88
661,14	1257,45
661,33	1206,25
661,51	1275,88
661,70	1341,42
661,89	1294,32
662,08	1308,65
662,26	1220,59
662,45	1316,84
662,64	1271,79
662,83	1249,26
663,01	1298,41
663,20	1214,45
663,39	1296,36
663,58	1314,80
663,76	1325,04
663,95	1257,45
664,14	1288,17
664,32	1239,02
664,51	1232,88
664,70	1253,36
664,89	1255,40
665,07	1273,84
665,26	1218,54
665,45	1224,69
665,64	1290,22
665,82	1271,79
666,01	1300,46
666,20	1243,12
666,38	1304,56
666,57	1202,16
666,76	1251,31
666,95	1212,40
667,13	1249,26
667,32	1273,84
667,51	1284,08
667,69	1228,78
667,88	1247,21
668,07	1257,45
668,25	1198,06
668,44	1220,59
668,63	1208,30
668,81	1222,64
669,00	1234,93
669,19	1269,74
669,38	1273,84
669,56	1279,98
669,75	1284,08
669,94	1216,49
670,12	1269,74
670,31	1228,78
670,50	1216,49
670,68	1273,84
670,87	1333,23
671,06	1288,17
671,24	1267,69
671,43	1173,49
671,62	1304,56
671,80	1290,22
671,99	1271,79
672,18	1292,27
672,36	1269,74
672,55	1253,36
672,74	1306,60
672,92	1234,93
673,11	1222,64
673,29	1284,08
673,48	1282,03
673,67	1181,68
673,85	1298,41
674,04	1257,45
674,23	1273,84
674,41	1294,32
674,60	1257,45
674,79	1243,12
674,97	1212,40
675,16	1220,59
675,34	1263,60
675,53	1298,41
675,72	1273,84
675,90	1341,42
676,09	1304,56
676,28	1234,93
676,46	1288,17
676,65	1261,55
676,83	1306,60
677,02	1236,97
677,21	1208,30
677,39	1298,41
677,58	1249,26
677,77	1275,88
677,95	1265,64
678,14	1239,02
678,32	1191,92
678,51	1228,78
678,70	1232,88
678,88	1243,12
679,07	1239,02
679,25	1308,65
679,44	1269,74
679,63	1277,93
679,81	1220,59
680,00	1249,26
680,18	1249,26
680,37	1257,45
680,55	1204,21
680,74	1333,23
680,93	1275,88
681,11	1222,64
681,30	1329,13
681,48	1259,50
681,67	1259,50
681,85	1275,88
682,04	1292,27
682,23	1284,08
682,41	1265,64
682,60	1314,80
682,78	1236,97
682,97	1239,02
683,15	1306,60
683,34	1310,70
683,53	1249,26
683,71	1132,53
683,90	1269,74
684,08	1302,51
684,27	1239,02
684,45	1290,22
684,64	1206,25
684,82	1261,55
685,01	1269,74
685,19	1212,40
685,38	1292,27
685,57	1175,53
685,75	1310,70
685,94	1273,84
686,12	1191,92
686,31	1253,36
686,49	1243,12
686,68	1265,64
686,86	1271,79
687,05	1267,69
687,23	1275,88
687,42	1241,07
687,60	1312,75
687,79	1222,64
687,97	1265,64
688,16	1339,37
688,34	1216,49
688,53	1343,47
688,71	1271,79
688,90	1259,50
689,08	1251,31
689,27	1277,93
689,45	1333,23
689,64	1341,42
689,82	1210,35
690,01	1224,69
690,19	1269,74
690,38	1222,64
690,56	1249,26
690,75	1210,35
690,93	1224,69
691,12	1247,21
691,30	1157,10
691,49	1222,64
691,67	1263,60
691,86	1251,31
692,04	1251,31
692,23	1306,60
692,41	1271,79
692,60	1234,93
692,78	1279,98
692,97	1322,99
693,15	1245,16
693,34	1306,60
693,52	1247,21
693,71	1273,84
693,89	1253,36
694,08	1245,16
694,26	1245,16
694,44	1271,79
694,63	1329,13
694,81	1222,64
695,00	1341,42
695,18	1165,29
695,37	1245,16
695,55	1226,73
695,74	1288,17
695,92	1259,50
696,10	1259,50
696,29	1226,73
696,47	1216,49
696,66	1275,88
696,84	1265,64
697,03	1261,55
697,21	1216,49
697,40	1263,60
697,58	1220,59
697,76	1204,21
697,95	1243,12
698,13	1230,83
698,32	1267,69
698,50	1294,32
698,68	1302,51
698,87	1214,45
699,05	1263,60
699,24	1224,69
699,42	1304,56
699,61	1288,17
699,79	1251,31
699,97	1224,69
700,16	1282,03
700,34	1259,50
700,53	1239,02
700,71	1312,75
700,89	1257,45
701,08	1298,41
701,26	1234,93
701,45	1312,75
701,63	1290,22
701,81	1269,74
702,00	1196,01
702,18	1284,08
702,37	1204,21
702,55	1200,11
702,73	1298,41
702,92	1298,41
703,10	1298,41
703,28	1239,02
703,47	1318,89
703,65	1257,45
703,84	1251,31
704,02	1271,79
704,20	1245,16
704,39	1290,22
704,57	1279,98
704,75	1245,16
704,94	1286,12
705,12	1251,31
705,30	1230,83
705,49	1286,12
705,67	1275,88
705,86	1243,12
706,04	1304,56
706,22	1183,73
706,41	1312,75
706,59	1255,40
706,77	1241,07
706,96	1232,88
707,14	1267,69
707,32	1259,50
707,51	1265,64
707,69	1259,50
707,87	1275,88
708,06	1310,70
708,24	1220,59
708,42	1230,83
708,61	1337,32
708,79	1259,50
708,97	1226,73
709,16	1273,84
709,34	1279,98
709,52	1249,26
709,71	1284,08
709,89	1271,79
710,07	1312,75
710,26	1310,70
710,44	1249,26
710,62	1282,03
710,80	1298,41
710,99	1255,40
711,17	1210,35
711,35	1277,93
711,54	1279,98
711,72	1267,69
711,90	1288,17
712,09	1224,69
712,27	1259,50
712,45	1261,55
712,63	1228,78
712,82	1247,21
713,00	1263,60
713,18	1263,60
713,37	1230,83
713,55	1269,74
713,73	1265,64
713,91	1241,07
714,10	1292,27
714,28	1290,22
714,46	1179,63
714,65	1318,89
714,83	1296,36
715,01	1302,51
715,19	1304,56
715,38	1273,84
715,56	1343,47
715,74	1249,26
715,92	1245,16
716,11	1288,17
716,29	1267,69
716,47	1251,31
716,65	1277,93
716,84	1208,30
717,02	1243,12
717,20	1249,26
717,38	1243,12
717,57	1269,74
717,75	1226,73
717,93	1271,79
718,11	1239,02
718,30	1265,64
718,48	1282,03
718,66	1226,73
718,84	1296,36
719,03	1255,40
719,21	1302,51
719,39	1322,99
719,57	1288,17
719,75	1286,12
719,94	1282,03
720,12	1275,88
720,30	1239,02
720,48	1239,02
720,67	1214,45
720,85	1236,97
721,03	1239,02
721,21	1210,35
721,39	1181,68
721,58	1251,31
721,76	1263,60
721,94	1314,80
722,12	1277,93
722,30	1257,45
722,49	1239,02
722,67	1218,54
722,85	1282,03
723,03	1269,74
723,21	1298,41
723,40	1247,21
723,58	1253,36
723,76	1284,08
723,94	1204,21
724,12	1284,08
724,30	1304,56
724,49	1216,49
724,67	1302,51
724,85	1292,27
725,03	1234,93
725,21	1173,49
725,40	1247,21
725,58	1210,35
725,76	1341,42
725,94	1265,64
726,12	1218,54
726,30	1253,36
726,49	1277,93
726,67	1218,54
726,85	1212,40
727,03	1226,73
727,21	1294,32
727,39	1261,55
727,57	1269,74
727,76	1243,12
727,94	1294,32
728,12	1241,07
728,30	1279,98
728,48	1253,36
728,66	1306,60
728,84	1222,64
729,03	1173,49
729,21	1288,17
729,39	1269,74
729,57	1298,41
729,75	1251,31
729,93	1290,22
730,11	1288,17
730,30	1249,26
730,48	1263,60
730,66	1298,41
730,84	1204,21
731,02	1277,93
731,20	1249,26
731,38	1222,64
731,56	1300,46
731,74	1236,97
731,93	1310,70
732,11	1214,45
732,29	1206,25
732,47	1265,64
732,65	1335,28
732,83	1296,36
733,01	1236,97
733,19	1210,35
733,37	1265,64
733,56	1310,70
733,74	1273,84
733,92	1339,37
734,10	1259,50
734,28	1298,41
734,46	1265,64
734,64	1269,74
734,82	1279,98
735,00	1271,79
735,18	1290,22
735,36	1273,84
735,54	1349,61
735,73	1322,99
735,91	1255,40
736,09	1292,27
736,27	1212,40
736,45	1261,55
736,63	1267,69
736,81	1269,74
736,99	1261,55
737,17	1339,37
737,35	1230,83
737,53	1273,84
737,71	1259,50
737,89	1243,12
738,07	1234,93
738,25	1263,60
738,43	1308,65
738,61	1265,64
738,80	1243,12
738,98	1253,36
739,16	1277,93
739,34	1226,73
739,52	1298,41
739,70	1255,40
739,88	1322,99
740,06	1214,45
740,24	1288,17
740,42	1189,87
740,60	1212,40
740,78	1296,36
740,96	1243,12
741,14	1239,02
741,32	1302,51
741,50	1247,21
741,68	1380,33
741,86	1306,60
742,04	1279,98
742,22	1275,88
742,40	1318,89
742,58	1245,16
742,76	1210,35
742,94	1243,12
743,12	1300,46
743,30	1316,84
743,48	1241,07
743,66	1273,84
743,84	1273,84
744,02	1191,92
744,20	1279,98
744,38	1279,98
744,56	1273,84
744,74	1290,22
744,92	1234,93
745,10	1226,73
745,28	1312,75
745,46	1294,32
745,64	1298,41
745,82	1191,92
746,00	1298,41
746,18	1286,12
746,36	1282,03
746,54	1300,46
746,72	1355,76
746,90	1261,55
747,08	1320,94
747,26	1275,88
747,44	1234,93
747,62	1181,68
747,80	1275,88
747,98	1245,16
748,15	1232,88
748,33	1263,60
748,51	1183,73
748,69	1277,93
748,87	1239,02
749,05	1290,22
749,23	1220,59
749,41	1265,64
749,59	1247,21
749,77	1282,03
749,95	1265,64
750,13	1298,41
750,31	1277,93
750,49	1216,49
750,67	1251,31
750,85	1241,07
751,03	1191,92
751,20	1267,69
751,38	1210,35
751,56	1243,12
751,74	1298,41
751,92	1253,36
752,10	1208,30
752,28	1277,93
752,46	1226,73
752,64	1322,99
752,82	1273,84
753,00	1218,54
753,18	1247,21
753,35	1259,50
753,53	1249,26
753,71	1181,68
753,89	1333,23
754,07	1310,70
754,25	1263,60
754,43	1296,36
754,61	1269,74
754,79	1185,77
754,97	1265,64
755,14	1247,21
755,32	1316,84
755,50	1271,79
755,68	1318,89
755,86	1212,40
756,04	1196,01
756,22	1236,97
756,40	1214,45
756,57	1284,08
756,75	1247,21
756,93	1263,60
757,11	1314,80
757,29	1314,80
757,47	1271,79
757,65	1329,13
757,82	1271,79
758,00	1277,93
758,18	1279,98
758,36	1224,69
758,54	1349,61
758,72	1230,83
758,90	1210,35
759,07	1288,17
759,25	1212,40
759,43	1243,12
759,61	1320,94
759,79	1298,41
759,97	1271,79
760,15	1337,32
760,32	1318,89
760,50	1196,01
760,68	1314,80
760,86	1275,88
761,04	1298,41
761,22	1263,60
761,39	1376,24
761,57	1306,60
761,75	1290,22
761,93	1228,78
762,11	1300,46
762,28	1277,93
762,46	1273,84
762,64	1232,88
762,82	1320,94
763,00	1320,94
763,18	1261,55
763,35	1251,31
763,53	1300,46
763,71	1249,26
763,89	1286,12
764,07	1257,45
764,24	1220,59
764,42	1279,98
764,60	1271,79
764,78	1255,40
764,96	1263,60
765,13	1261,55
765,31	1271,79
765,49	1300,46
765,67	1327,08
765,84	1236,97
766,02	1292,27
766,20	1220,59
766,38	1200,11
766,56	1257,45
766,73	1306,60
766,91	1267,69
767,09	1218,54
767,27	1187,82
767,44	1216,49
767,62	1335,28
767,80	1191,92
767,98	1273,84
768,15	1251,31
768,33	1198,06
768,51	1226,73
768,69	1288,17
768,87	1261,55
769,04	1239,02
769,22	1232,88
769,40	1304,56
769,58	1288,17
769,75	1220,59
769,93	1206,25
770,11	1245,16
770,28	1206,25
770,46	1265,64
770,64	1327,08
770,82	1255,40
770,99	1234,93
771,17	1290,22
771,35	1177,58
771,53	1243,12
771,70	1259,50
771,88	1212,40
772,06	1236,97
772,23	1257,45
772,41	1247,21
772,59	1320,94
772,77	1259,50
772,94	1261,55
773,12	1286,12
773,30	1269,74
773,47	1228,78
773,65	1251,31
773,83	1273,84
774,01	1245,16
774,18	1224,69
774,36	1267,69
774,54	1232,88
774,71	1220,59
774,89	1241,07
775,07	1277,93
775,24	1267,69
775,42	1327,08
775,60	1298,41
775,78	1241,07
775,95	1312,75
776,13	1236,97
776,31	1241,07
776,48	1282,03
776,66	1286,12
776,84	1232,88
777,01	1257,45
777,19	1208,30
777,37	1292,27
777,54	1228,78
777,72	1245,16
777,90	1257,45
778,07	1208,30
778,25	1284,08
778,43	1304,56
778,60	1210,35
778,78	1318,89
778,96	1292,27
779,13	1247,21
779,31	1337,32
779,49	1263,60
779,66	1294,32
779,84	1290,22
780,01	1224,69
780,19	1349,61
780,37	1308,65
780,54	1271,79
780,72	1294,32
780,90	1249,26
781,07	1329,13
781,25	1284,08
781,43	1216,49
781,60	1282,03
781,78	1269,74
781,95	1251,31
782,13	1255,40
782,31	1224,69
782,48	1220,59
782,66	1318,89
782,83	1290,22
783,01	1290,22
783,19	1247,21
783,36	1214,45
783,54	1210,35
783,72	1216,49
783,89	1290,22
784,07	1275,88
784,24	1236,97
784,42	1236,97
784,60	1286,12
784,77	1318,89
784,95	1290,22
785,12	1335,28
785,30	1259,50
785,47	1228,78
785,65	1241,07
785,83	1269,74
786,00	1245,16
786,18	1232,88
786,35	1261,55
786,53	1294,32
786,71	1220,59
786,88	1269,74
787,06	1284,08
787,23	1296,36
787,41	1247,21
787,58	1308,65
787,76	1220,59
787,94	1267,69
788,11	1257,45
788,29	1269,74
788,46	1286,12
788,64	1155,05
788,81	1191,92
788,99	1263,60
789,16	1251,31
789,34	1308,65
789,52	1253,36
789,69	1271,79
789,87	1322,99
790,04	1294,32
790,22	1185,77
790,39	1322,99
790,57	1279,98
790,74	1294,32
790,92	1230,83
791,09	1251,31
791,27	1294,32
791,44	1257,45
791,62	1263,60
791,79	1253,36
791,97	1259,50
792,15	1306,60
792,32	1206,25
792,50	1232,88
792,67	1222,64
792,85	1261,55
793,02	1279,98
793,20	1279,98
793,37	1331,18
793,55	1265,64
793,72	1239,02
793,90	1212,40
794,07	1257,45
794,25	1187,82
794,42	1245,16
794,60	1243,12
794,77	1275,88
794,95	1245,16
795,12	1202,16
795,30	1282,03
795,47	1187,82
795,65	1230,83
795,82	1196,01
796,00	1269,74
796,17	1253,36
796,34	1290,22
796,52	1236,97
796,69	1292,27
796,87	1263,60
797,04	1224,69
797,22	1220,59
797,39	1222,64
797,57	1269,74
797,74	1243,12
797,92	1261,55
798,09	1269,74
798,27	1226,73
798,44	1329,13
798,62	1236,97
798,79	1290,22
798,96	1269,74
799,14	1286,12
799,31	1181,68
799,49	1290,22
799,66	1226,73
799,84	1300,46
800,01	1249,26
800,19	1292,27
800,36	1226,73
800,53	1249,26
800,71	1275,88
800,88	1298,41
801,06	1300,46
801,23	1212,40
801,41	1306,60
801,58	1271,79
801,75	1282,03
801,93	1329,13
802,10	1185,77
802,28	1239,02
802,45	1331,18
802,63	1339,37
802,80	1316,84
802,97	1310,70
803,15	1251,31
803,32	1284,08
803,50	1320,94
803,67	1251,31
803,84	1267,69
804,02	1249,26
804,19	1302,51
804,37	1273,84
804,54	1232,88
804,71	1279,98
804,89	1277,93
805,06	1253,36
805,24	1234,93
805,41	1257,45
805,58	1257,45
805,76	1257,45
805,93	1216,49
806,10	1302,51
806,28	1288,17
806,45	1220,59
806,63	1265,64
806,80	1226,73
806,97	1230,83
807,15	1257,45
807,32	1275,88
807,49	1214,45
807,67	1269,74
807,84	1294,32
808,01	1284,08
808,19	1267,69
808,36	1267,69
808,54	1325,04
808,71	1259,50
808,88	1339,37
809,06	1224,69
809,23	1294,32
809,40	1236,97
809,58	1286,12
809,75	1271,79
809,92	1279,98
810,10	1216,49
810,27	1316,84
810,44	1327,08
810,62	1261,55
810,79	1259,50
810,96	1228,78
811,14	1275,88
811,31	1259,50
811,48	1327,08
811,66	1366,00
811,83	1263,60
812,00	1214,45
812,18	1279,98
812,35	1269,74
812,52	1284,08
812,69	1183,73
812,87	1224,69
813,04	1284,08
813,21	1269,74
813,39	1261,55
813,56	1212,40
813,73	1282,03
813,91	1157,10
814,08	1355,76
814,25	1196,01
814,42	1257,45
814,60	1329,13
814,77	1277,93
814,94	1298,41
815,12	1310,70
815,29	1282,03
815,46	1265,64
815,63	1318,89
815,81	1306,60
815,98	1337,32
816,15	1273,84
816,33	1318,89
816,50	1232,88
816,67	1277,93
816,84	1241,07
817,02	1214,45
817,19	1263,60
817,36	1294,32
817,53	1306,60
817,71	1191,92
817,88	1220,59
818,05	1230,83
818,22	1267,69
818,40	1320,94
818,57	1275,88
818,74	1290,22
818,91	1232,88
819,09	1230,83
819,26	1306,60
819,43	1320,94
819,60	1230,83
819,78	1257,45
819,95	1202,16
820,12	1325,04
820,29	1265,64
820,47	1228,78
820,64	1288,17
820,81	1216,49
820,98	1298,41
821,15	1292,27
821,33	1232,88
821,50	1206,25
821,67	1343,47
821,84	1267,69
822,02	1339,37
822,19	1230,83
822,36	1279,98
822,53	1284,08
822,70	1232,88
822,88	1251,31
823,05	1306,60
823,22	1273,84
823,39	1325,04
823,56	1253,36
823,74	1241,07
823,91	1288,17
824,08	1282,03
824,25	1279,98
824,42	1312,75
824,60	1224,69
824,77	1253,36
824,94	1202,16
825,11	1228,78
825,28	1167,34
825,45	1245,16
825,63	1265,64
825,80	1247,21
825,97	1251,31
826,14	1273,84
826,31	1267,69
826,48	1320,94
826,66	1290,22
826,83	1247,21
827,00	1255,40
827,17	1302,51
827,34	1169,39
827,51	1257,45
827,69	1279,98
827,86	1263,60
828,03	1185,77
828,20	1245,16
828,37	1241,07
828,54	1226,73
828,71	1273,84
828,89	1288,17
829,06	1263,60
829,23	1331,18
829,40	1218,54
829,57	1249,26
829,74	1148,91
829,91	1282,03
830,09	1277,93
830,26	1255,40
830,43	1247,21
830,60	1263,60
830,77	1277,93
830,94	1339,37
831,11	1249,26
831,28	1249,26
831,46	1167,34
831,63	1290,22
831,80	1257,45
831,97	1259,50
832,14	1298,41
832,31	1226,73
832,48	1277,93
832,65	1175,53
832,82	1282,03
832,99	1263,60
833,17	1368,04
833,34	1292,27
833,51	1261,55
833,68	1232,88
833,85	1302,51
834,02	1251,31
834,19	1251,31
834,36	1257,45
834,53	1239,02
834,70	1259,50
834,87	1275,88
835,04	1329,13
835,22	1185,77
835,39	1298,41
835,56	1337,32
835,73	1312,75
835,90	1353,71
836,07	1294,32
836,24	1228,78
836,41	1234,93
836,58	1255,40
836,75	1308,65
836,92	1304,56
837,09	1251,31
837,26	1257,45
837,43	1306,60
837,60	1284,08
837,77	1228,78
837,94	1259,50
838,12	1345,52
838,29	1347,56
838,46	1290,22
838,63	1333,23
838,80	1263,60
838,97	1277,93
839,14	1245,16
839,31	1300,46
839,48	1224,69
839,65	1245,16
839,82	1251,31
839,99	1298,41
840,16	1247,21
840,33	1216,49
840,50	1312,75
840,67	1267,69
840,84	1239,02
841,01	1255,40
841,18	1257,45
841,35	1302,51
841,52	1279,98
841,69	1261,55
841,86	1279,98
842,03	1202,16
842,20	1329,13
842,37	1343,47
842,54	1288,17
842,71	1251,31
842,88	1333,23
843,05	1253,36
843,22	1284,08
843,39	1243,12
843,56	1265,64
843,73	1282,03
843,90	1294,32
844,07	1331,18
844,24	1284,08
844,41	1302,51
844,58	1279,98
844,75	1212,40
844,92	1241,07
845,09	1222,64
845,26	1245,16
845,43	1275,88
845,60	1198,06
845,77	1251,31
845,94	1355,76
846,10	1263,60
846,27	1306,60
846,44	1251,31
846,61	1277,93
846,78	1208,30
846,95	1282,03
847,12	1265,64
847,29	1288,17
847,46	1216,49
847,63	1251,31
847,80	1263,60
847,97	1277,93
848,14	1212,40
848,31	1349,61
848,48	1310,70
848,65	1341,42
848,82	1363,95
848,98	1304,56
849,15	1257,45
849,32	1335,28
849,49	1241,07
849,66	1325,04
849,83	1316,84
850,00	1271,79
850,17	1212,40
850,34	1181,68
850,51	1306,60
850,68	1249,26
850,85	1322,99
851,01	1263,60
851,18	1279,98
851,35	1282,03
851,52	1331,18
851,69	1290,22
851,86	1210,35
852,03	1298,41
852,20	1185,77
852,37	1265,64
852,53	1247,21
852,70	1290,22
852,87	1181,68
853,04	1247,21
853,21	1265,64
853,38	1294,32
853,55	1308,65
853,72	1267,69
853,89	1290,22
854,05	1263,60
854,22	1218,54
854,39	1191,92
854,56	1279,98
854,73	1257,45
854,90	1271,79
855,07	1279,98
855,23	1318,89
855,40	1247,21
855,57	1286,12
855,74	1296,36
855,91	1263,60
856,08	1220,59
856,25	1302,51
856,41	1279,98
856,58	1222,64
856,75	1282,03
856,92	1263,60
857,09	1306,60
857,26	1286,12
857,42	1271,79
857,59	1265,64
857,76	1245,16
857,93	1296,36
858,10	1228,78
858,27	1253,36
858,43	1228,78
858,60	1259,50
858,77	1241,07
858,94	1312,75
859,11	1267,69
859,27	1245,16
859,44	1263,60
859,61	1245,16
859,78	1208,30
859,95	1200,11
860,12	1222,64
860,28	1267,69
860,45	1279,98
860,62	1228,78
860,79	1247,21
860,95	1304,56
861,12	1273,84
861,29	1247,21
861,46	1167,34
861,63	1296,36
861,79	1245,16
861,96	1261,55
862,13	1218,54
862,30	1265,64
862,47	1208,30
862,63	1159,15
862,80	1275,88
862,97	1290,22
863,14	1249,26
863,30	1239,02
863,47	1243,12
863,64	1339,37
863,81	1230,83
863,97	1247,21
864,14	1271,79
864,31	1269,74
864,48	1294,32
864,65	1282,03
864,81	1241,07
864,98	1171,44
865,15	1263,60
865,32	1288,17
865,48	1253,36
865,65	1263,60
865,82	1234,93
865,98	1335,28
866,15	1374,19
866,32	1247,21
866,49	1325,04
866,65	1282,03
866,82	1265,64
866,99	1288,17
867,16	1216,49
867,32	1277,93
867,49	1239,02
867,66	1282,03
867,83	1253,36
867,99	1241,07
868,16	1175,53
868,33	1210,35
868,49	1206,25
868,66	1333,23
868,83	1327,08
868,99	1304,56
869,16	1282,03
869,33	1355,76
869,50	1220,59
869,66	1271,79
869,83	1263,60
870,00	1296,36
870,16	1257,45
870,33	1208,30
870,50	1265,64
870,66	1247,21
870,83	1296,36
871,00	1216,49
871,17	1136,62
871,33	1343,47
871,50	1165,29
871,67	1230,83
871,83	1279,98
872,00	1304,56
872,17	1296,36
872,33	1282,03
872,50	1296,36
872,67	1230,83
872,83	1259,50
873,00	1196,01
873,17	1259,50
873,33	1253,36
873,50	1243,12
873,67	1310,70
873,83	1333,23
874,00	1257,45
874,16	1234,93
874,33	1298,41
874,50	1275,88
874,66	1300,46
874,83	1157,10
875,00	1279,98
875,16	1322,99
875,33	1234,93
875,50	1251,31
875,66	1232,88
875,83	1263,60
875,99	1181,68
876,16	1290,22
876,33	1230,83
876,49	1290,22
876,66	1296,36
876,83	1310,70
876,99	1241,07
877,16	1279,98
877,32	1329,13
877,49	1288,17
877,66	1298,41
877,82	1277,93
877,99	1265,64
878,15	1316,84
878,32	1263,60
878,49	1222,64
878,65	1243,12
878,82	1239,02
878,98	1228,78
879,15	1243,12
879,32	1206,25
879,48	1271,79
879,65	1290,22
879,81	1236,97
879,98	1290,22
880,15	1271,79
880,31	1204,21
880,48	1288,17
880,64	1179,63
880,81	1275,88
880,97	1206,25
881,14	1282,03
881,31	1220,59
881,47	1245,16
881,64	1265,64
881,80	1171,44
881,97	1222,64
882,13	1265,64
882,30	1275,88
882,47	1193,97
882,63	1261,55
882,80	1277,93
882,96	1302,51
883,13	1271,79
883,29	1224,69
883,46	1253,36
883,62	1247,21
883,79	1175,53
883,95	1255,40
884,12	1257,45
884,29	1218,54
884,45	1230,83
884,62	1279,98
884,78	1232,88
884,95	1327,08
885,11	1294,32
885,28	1300,46
885,44	1300,46
885,61	1255,40
885,77	1282,03
885,94	1196,01
886,10	1298,41
886,27	1304,56
886,43	1294,32
886,60	1277,93
886,76	1267,69
886,93	1167,34
887,09	1214,45
887,26	1298,41
887,42	1286,12
887,59	1251,31
887,75	1273,84
887,92	1318,89
888,08	1236,97
888,25	1247,21
888,41	1271,79
888,58	1232,88
888,74	1222,64
888,91	1243,12
>>>>>End Processed Spectral Data<<<<<
