SpectraSuite Data File
++++++++++++++++++++++++++++++++++++
Date: Sun Apr 03 13:37:34 CEST 2016
User: root
Dark Spectrum Present: No
Reference Spectrum Present: No
Number of Sampled Component Spectra: 1
Spectrometers: USB4C02835
Integration Time (usec): 10000 (USB4C02835)
Spectra Averaged: 1 (USB4C02835)
Boxcar Smoothing: 0 (USB4C02835)
Correct for Electrical Dark: No (USB4C02835)
Strobe/Lamp Enabled: No (USB4C02835)
Correct for Detector Non-linearity: No (USB4C02835)
Correct for Stray Light: No (USB4C02835)
Number of Pixels in Processed Spectrum: 3648
>>>>>Begin Processed Spectral Data<<<<<
177,47	1191,92
177,69	1191,92
177,91	1191,92
178,13	1259,50
178,36	1224,69
178,58	1284,08
178,80	1191,92
179,02	1265,64
179,24	1261,55
179,46	1226,73
179,68	1275,88
179,90	1196,01
180,13	1318,89
180,35	1263,60
180,57	1259,50
180,79	1234,93
181,01	1259,50
181,23	1320,94
181,45	1282,03
181,67	1267,69
181,90	1302,51
182,12	1341,42
182,34	1255,40
182,56	1265,64
182,78	1292,27
183,00	1226,73
183,22	1292,27
183,44	1304,56
183,66	1257,45
183,89	1318,89
184,11	1261,55
184,33	1306,60
184,55	1306,60
184,77	1273,84
184,99	1302,51
185,21	1275,88
185,43	1189,87
185,65	1214,45
185,87	1337,32
186,10	1206,25
186,32	1320,94
186,54	1232,88
186,76	1333,23
186,98	1257,45
187,20	1304,56
187,42	1183,73
187,64	1312,75
187,86	1288,17
188,08	1144,81
188,30	1345,52
188,52	1331,18
188,75	1288,17
188,97	1269,74
189,19	1218,54
189,41	1257,45
189,63	1224,69
189,85	1304,56
190,07	1228,78
190,29	1273,84
190,51	1306,60
190,73	1306,60
190,95	1257,45
191,17	1218,54
191,39	1316,84
191,61	1282,03
191,84	1241,07
192,06	1259,50
192,28	1187,82
192,50	1208,30
192,72	1251,31
192,94	1290,22
193,16	1331,18
193,38	1271,79
193,60	1249,26
193,82	1255,40
194,04	1261,55
194,26	1333,23
194,48	1290,22
194,70	1300,46
194,92	1343,47
195,14	1261,55
195,36	1320,94
195,58	1255,40
195,80	1224,69
196,02	1320,94
196,24	1230,83
196,46	1245,16
196,69	1292,27
196,91	1222,64
197,13	1306,60
197,35	1247,21
197,57	1267,69
197,79	1271,79
198,01	1183,73
198,23	1320,94
198,45	1224,69
198,67	1222,64
198,89	1337,32
199,11	1267,69
199,33	1253,36
199,55	1282,03
199,77	1253,36
199,99	1267,69
200,21	1220,59
200,43	1361,90
200,65	1265,64
200,87	1320,94
201,09	1191,92
201,31	1269,74
201,53	1263,60
201,75	1153,01
201,97	1310,70
202,19	1243,12
202,41	1325,04
202,63	1304,56
202,85	1277,93
203,07	1290,22
203,29	1214,45
203,51	1335,28
203,73	1230,83
203,95	1294,32
204,17	1271,79
204,39	1267,69
204,61	1212,40
204,83	1265,64
205,05	1390,57
205,27	1277,93
205,49	1247,21
205,71	1249,26
205,93	1267,69
206,15	1220,59
206,37	1198,06
206,59	1263,60
206,81	1302,51
207,03	1273,84
207,25	1200,11
207,47	1249,26
207,69	1202,16
207,91	1216,49
208,13	1327,08
208,34	1265,64
208,56	1255,40
208,78	1224,69
209,00	1275,88
209,22	1312,75
209,44	1265,64
209,66	1239,02
209,88	1245,16
210,10	1277,93
210,32	1212,40
210,54	1302,51
210,76	1329,13
210,98	1267,69
211,20	1212,40
211,42	1298,41
211,64	1265,64
211,86	1316,84
212,08	1259,50
212,30	1337,32
212,52	1292,27
212,74	1241,07
212,96	1298,41
213,17	1277,93
213,39	1259,50
213,61	1320,94
213,83	1325,04
214,05	1320,94
214,27	1230,83
214,49	1370,09
214,71	1294,32
214,93	1275,88
215,15	1290,22
215,37	1363,95
215,59	1245,16
215,81	1271,79
216,03	1361,90
216,24	1310,70
216,46	1247,21
216,68	1222,64
216,90	1220,59
217,12	1236,97
217,34	1275,88
217,56	1296,36
217,78	1290,22
218,00	1353,71
218,22	1372,14
218,44	1249,26
218,66	1253,36
218,87	1220,59
219,09	1267,69
219,31	1300,46
219,53	1187,82
219,75	1228,78
219,97	1175,53
220,19	1279,98
220,41	1267,69
220,63	1224,69
220,85	1298,41
221,06	1298,41
221,28	1304,56
221,50	1279,98
221,72	1306,60
221,94	1286,12
222,16	1314,80
222,38	1265,64
222,60	1269,74
222,82	1265,64
223,03	1247,21
223,25	1243,12
223,47	1288,17
223,69	1316,84
223,91	1329,13
224,13	1210,35
224,35	1292,27
224,57	1224,69
224,78	1286,12
225,00	1218,54
225,22	1224,69
225,44	1273,84
225,66	1284,08
225,88	1234,93
226,10	1290,22
226,32	1245,16
226,53	1284,08
226,75	1329,13
226,97	1245,16
227,19	1337,32
227,41	1292,27
227,63	1306,60
227,85	1288,17
228,06	1269,74
228,28	1282,03
228,50	1251,31
228,72	1306,60
228,94	1271,79
229,16	1265,64
229,37	1271,79
229,59	1296,36
229,81	1241,07
230,03	1191,92
230,25	1286,12
230,47	1286,12
230,69	1200,11
230,90	1265,64
231,12	1294,32
231,34	1322,99
231,56	1296,36
231,78	1304,56
232,00	1263,60
232,21	1296,36
232,43	1228,78
232,65	1300,46
232,87	1243,12
233,09	1310,70
233,30	1304,56
233,52	1245,16
233,74	1265,64
233,96	1247,21
234,18	1245,16
234,40	1263,60
234,61	1191,92
234,83	1218,54
235,05	1232,88
235,27	1226,73
235,49	1290,22
235,70	1253,36
235,92	1312,75
236,14	1245,16
236,36	1286,12
236,58	1271,79
236,79	1327,08
237,01	1320,94
237,23	1314,80
237,45	1273,84
237,67	1193,97
237,88	1294,32
238,10	1249,26
238,32	1257,45
238,54	1210,35
238,76	1302,51
238,97	1243,12
239,19	1343,47
239,41	1249,26
239,63	1230,83
239,85	1296,36
240,06	1247,21
240,28	1249,26
240,50	1302,51
240,72	1318,89
240,93	1277,93
241,15	1282,03
241,37	1247,21
241,59	1312,75
241,81	1187,82
242,02	1359,85
242,24	1259,50
242,46	1261,55
242,68	1249,26
242,89	1277,93
243,11	1251,31
243,33	1286,12
243,55	1306,60
243,76	1290,22
243,98	1284,08
244,20	1222,64
244,42	1277,93
244,64	1273,84
244,85	1247,21
245,07	1347,56
245,29	1300,46
245,51	1275,88
245,72	1312,75
245,94	1343,47
246,16	1251,31
246,38	1312,75
246,59	1216,49
246,81	1222,64
247,03	1259,50
247,24	1263,60
247,46	1191,92
247,68	1228,78
247,90	1267,69
248,11	1302,51
248,33	1259,50
248,55	1222,64
248,77	1318,89
248,98	1308,65
249,20	1302,51
249,42	1249,26
249,64	1265,64
249,85	1263,60
250,07	1325,04
250,29	1310,70
250,50	1239,02
250,72	1253,36
250,94	1322,99
251,16	1249,26
251,37	1284,08
251,59	1257,45
251,81	1265,64
252,02	1249,26
252,24	1259,50
252,46	1300,46
252,68	1312,75
252,89	1196,01
253,11	1296,36
253,33	1298,41
253,54	1296,36
253,76	1296,36
253,98	1255,40
254,20	1290,22
254,41	1241,07
254,63	1325,04
254,85	1298,41
255,06	1253,36
255,28	1191,92
255,50	1308,65
255,71	1253,36
255,93	1292,27
256,15	1271,79
256,36	1273,84
256,58	1304,56
256,80	1286,12
257,02	1144,81
257,23	1298,41
257,45	1318,89
257,67	1310,70
257,88	1302,51
258,10	1308,65
258,32	1290,22
258,53	1306,60
258,75	1275,88
258,97	1259,50
259,18	1290,22
259,40	1351,66
259,62	1243,12
259,83	1314,80
260,05	1349,61
260,27	1347,56
260,48	1249,26
260,70	1224,69
260,92	1261,55
261,13	1322,99
261,35	1216,49
261,57	1290,22
261,78	1308,65
262,00	1253,36
262,22	1208,30
262,43	1310,70
262,65	1247,21
262,86	1273,84
263,08	1312,75
263,30	1206,25
263,51	1230,83
263,73	1316,84
263,95	1296,36
264,16	1290,22
264,38	1294,32
264,60	1179,63
264,81	1290,22
265,03	1329,13
265,25	1263,60
265,46	1296,36
265,68	1249,26
265,89	1304,56
266,11	1282,03
266,33	1265,64
266,54	1306,60
266,76	1290,22
266,98	1243,12
267,19	1290,22
267,41	1271,79
267,62	1259,50
267,84	1222,64
268,06	1265,64
268,27	1296,36
268,49	1300,46
268,70	1239,02
268,92	1290,22
269,14	1267,69
269,35	1257,45
269,57	1273,84
269,79	1267,69
270,00	1249,26
270,22	1249,26
270,43	1290,22
270,65	1198,06
270,87	1314,80
271,08	1298,41
271,30	1322,99
271,51	1220,59
271,73	1273,84
271,95	1232,88
272,16	1306,60
272,38	1263,60
272,59	1226,73
272,81	1306,60
273,02	1245,16
273,24	1243,12
273,46	1239,02
273,67	1255,40
273,89	1226,73
274,10	1320,94
274,32	1329,13
274,54	1234,93
274,75	1263,60
274,97	1310,70
275,18	1249,26
275,40	1304,56
275,61	1255,40
275,83	1224,69
276,05	1232,88
276,26	1245,16
276,48	1275,88
276,69	1181,68
276,91	1234,93
277,12	1220,59
277,34	1271,79
277,55	1339,37
277,77	1257,45
277,99	1271,79
278,20	1259,50
278,42	1269,74
278,63	1263,60
278,85	1220,59
279,06	1271,79
279,28	1267,69
279,49	1220,59
279,71	1249,26
279,93	1314,80
280,14	1304,56
280,36	1259,50
280,57	1267,69
280,79	1286,12
281,00	1216,49
281,22	1329,13
281,43	1224,69
281,65	1247,21
281,86	1304,56
282,08	1329,13
282,29	1247,21
282,51	1255,40
282,73	1327,08
282,94	1222,64
283,16	1208,30
283,37	1329,13
283,59	1325,04
283,80	1247,21
284,02	1312,75
284,23	1312,75
284,45	1261,55
284,66	1298,41
284,88	1275,88
285,09	1277,93
285,31	1271,79
285,52	1245,16
285,74	1257,45
285,95	1269,74
286,17	1275,88
286,38	1302,51
286,60	1349,61
286,81	1234,93
287,03	1236,97
287,24	1265,64
287,46	1279,98
287,67	1255,40
287,89	1253,36
288,10	1304,56
288,32	1308,65
288,53	1183,73
288,75	1269,74
288,96	1282,03
289,18	1228,78
289,39	1261,55
289,61	1298,41
289,82	1296,36
290,04	1255,40
290,25	1335,28
290,47	1232,88
290,68	1218,54
290,90	1226,73
291,11	1212,40
291,33	1322,99
291,54	1224,69
291,76	1267,69
291,97	1253,36
292,18	1267,69
292,40	1247,21
292,61	1296,36
292,83	1327,08
293,04	1247,21
293,26	1241,07
293,47	1275,88
293,69	1212,40
293,90	1247,21
294,12	1284,08
294,33	1267,69
294,55	1271,79
294,76	1269,74
294,97	1249,26
295,19	1337,32
295,40	1259,50
295,62	1316,84
295,83	1267,69
296,05	1247,21
296,26	1241,07
296,48	1273,84
296,69	1275,88
296,90	1302,51
297,12	1253,36
297,33	1243,12
297,55	1232,88
297,76	1193,97
297,98	1290,22
298,19	1290,22
298,41	1251,31
298,62	1298,41
298,83	1275,88
299,05	1271,79
299,26	1316,84
299,48	1306,60
299,69	1259,50
299,90	1370,09
300,12	1318,89
300,33	1298,41
300,55	1292,27
300,76	1300,46
300,98	1259,50
301,19	1298,41
301,40	1302,51
301,62	1282,03
301,83	1273,84
302,05	1216,49
302,26	1222,64
302,47	1384,43
302,69	1316,84
302,90	1275,88
303,12	1308,65
303,33	1290,22
303,54	1257,45
303,76	1327,08
303,97	1232,88
304,19	1335,28
304,40	1216,49
304,61	1245,16
304,83	1302,51
305,04	1265,64
305,26	1353,71
305,47	1292,27
305,68	1290,22
305,90	1322,99
306,11	1300,46
306,33	1325,04
306,54	1206,25
306,75	1265,64
306,97	1234,93
307,18	1335,28
307,39	1320,94
307,61	1206,25
307,82	1296,36
308,04	1273,84
308,25	1284,08
308,46	1265,64
308,68	1300,46
308,89	1167,34
309,10	1316,84
309,32	1290,22
309,53	1226,73
309,74	1257,45
309,96	1257,45
310,17	1279,98
310,39	1234,93
310,60	1310,70
310,81	1232,88
311,03	1292,27
311,24	1277,93
311,45	1255,40
311,67	1286,12
311,88	1279,98
312,09	1191,92
312,31	1339,37
312,52	1277,93
312,73	1300,46
312,95	1263,60
313,16	1320,94
313,37	1347,56
313,59	1331,18
313,80	1187,82
314,01	1333,23
314,23	1331,18
314,44	1312,75
314,65	1288,17
314,87	1267,69
315,08	1308,65
315,29	1210,35
315,51	1343,47
315,72	1251,31
315,93	1210,35
316,15	1288,17
316,36	1257,45
316,57	1288,17
316,79	1232,88
317,00	1296,36
317,21	1345,52
317,43	1282,03
317,64	1331,18
317,85	1290,22
318,07	1269,74
318,28	1298,41
318,49	1288,17
318,70	1232,88
318,92	1222,64
319,13	1189,87
319,34	1284,08
319,56	1257,45
319,77	1290,22
319,98	1239,02
320,20	1302,51
320,41	1288,17
320,62	1282,03
320,83	1247,21
321,05	1228,78
321,26	1241,07
321,47	1300,46
321,69	1226,73
321,90	1271,79
322,11	1288,17
322,32	1212,40
322,54	1249,26
322,75	1331,18
322,96	1320,94
323,18	1288,17
323,39	1228,78
323,60	1325,04
323,81	1316,84
324,03	1249,26
324,24	1275,88
324,45	1224,69
324,66	1296,36
324,88	1216,49
325,09	1243,12
325,30	1273,84
325,52	1255,40
325,73	1329,13
325,94	1314,80
326,15	1302,51
326,37	1302,51
326,58	1239,02
326,79	1245,16
327,00	1269,74
327,22	1304,56
327,43	1220,59
327,64	1239,02
327,85	1220,59
328,07	1277,93
328,28	1245,16
328,49	1247,21
328,70	1245,16
328,92	1304,56
329,13	1282,03
329,34	1245,16
329,55	1279,98
329,76	1306,60
329,98	1222,64
330,19	1247,21
330,40	1257,45
330,61	1282,03
330,83	1261,55
331,04	1234,93
331,25	1253,36
331,46	1265,64
331,68	1247,21
331,89	1290,22
332,10	1265,64
332,31	1265,64
332,52	1230,83
332,74	1290,22
332,95	1253,36
333,16	1282,03
333,37	1253,36
333,58	1273,84
333,80	1236,97
334,01	1273,84
334,22	1318,89
334,43	1279,98
334,64	1347,56
334,86	1343,47
335,07	1304,56
335,28	1353,71
335,49	1325,04
335,70	1292,27
335,92	1292,27
336,13	1253,36
336,34	1265,64
336,55	1269,74
336,76	1288,17
336,98	1286,12
337,19	1331,18
337,40	1288,17
337,61	1273,84
337,82	1318,89
338,04	1232,88
338,25	1247,21
338,46	1267,69
338,67	1345,52
338,88	1361,90
339,09	1286,12
339,31	1261,55
339,52	1282,03
339,73	1241,07
339,94	1263,60
340,15	1222,64
340,36	1284,08
340,58	1279,98
340,79	1306,60
341,00	1300,46
341,21	1263,60
341,42	1257,45
341,63	1294,32
341,85	1273,84
342,06	1355,76
342,27	1284,08
342,48	1230,83
342,69	1255,40
342,90	1271,79
343,12	1230,83
343,33	1302,51
343,54	1308,65
343,75	1251,31
343,96	1271,79
344,17	1288,17
344,38	1222,64
344,60	1308,65
344,81	1245,16
345,02	1249,26
345,23	1236,97
345,44	1269,74
345,65	1255,40
345,86	1226,73
346,07	1263,60
346,29	1234,93
346,50	1318,89
346,71	1331,18
346,92	1310,70
347,13	1234,93
347,34	1257,45
347,55	1282,03
347,76	1347,56
347,98	1282,03
348,19	1288,17
348,40	1320,94
348,61	1263,60
348,82	1298,41
349,03	1288,17
349,24	1259,50
349,45	1288,17
349,66	1259,50
349,88	1277,93
350,09	1257,45
350,30	1245,16
350,51	1290,22
350,72	1224,69
350,93	1241,07
351,14	1269,74
351,35	1337,32
351,56	1214,45
351,77	1251,31
351,99	1243,12
352,20	1355,76
352,41	1259,50
352,62	1337,32
352,83	1267,69
353,04	1232,88
353,25	1247,21
353,46	1255,40
353,67	1298,41
353,88	1241,07
354,09	1335,28
354,30	1241,07
354,52	1249,26
354,73	1259,50
354,94	1318,89
355,15	1208,30
355,36	1271,79
355,57	1236,97
355,78	1277,93
355,99	1249,26
356,20	1310,70
356,41	1275,88
356,62	1273,84
356,83	1304,56
357,04	1265,64
357,25	1245,16
357,46	1290,22
357,68	1306,60
357,89	1175,53
358,10	1282,03
358,31	1243,12
358,52	1257,45
358,73	1243,12
358,94	1212,40
359,15	1204,21
359,36	1327,08
359,57	1261,55
359,78	1314,80
359,99	1310,70
360,20	1232,88
360,41	1253,36
360,62	1306,60
360,83	1290,22
361,04	1259,50
361,25	1247,21
361,46	1222,64
361,67	1343,47
361,88	1271,79
362,09	1302,51
362,30	1271,79
362,51	1236,97
362,72	1306,60
362,93	1239,02
363,14	1241,07
363,35	1263,60
363,56	1302,51
363,78	1236,97
363,99	1255,40
364,20	1253,36
364,41	1318,89
364,62	1271,79
364,83	1243,12
365,04	1282,03
365,25	1271,79
365,46	1269,74
365,67	1273,84
365,88	1257,45
366,09	1214,45
366,30	1171,44
366,51	1302,51
366,72	1245,16
366,93	1241,07
367,14	1267,69
367,35	1210,35
367,56	1245,16
367,77	1310,70
367,98	1290,22
368,18	1343,47
368,39	1288,17
368,60	1239,02
368,81	1275,88
369,02	1263,60
369,23	1261,55
369,44	1239,02
369,65	1257,45
369,86	1273,84
370,07	1341,42
370,28	1255,40
370,49	1275,88
370,70	1316,84
370,91	1234,93
371,12	1187,82
371,33	1267,69
371,54	1279,98
371,75	1269,74
371,96	1253,36
372,17	1167,34
372,38	1273,84
372,59	1251,31
372,80	1308,65
373,01	1306,60
373,22	1243,12
373,43	1345,52
373,64	1290,22
373,85	1333,23
374,06	1300,46
374,26	1286,12
374,47	1300,46
374,68	1249,26
374,89	1288,17
375,10	1296,36
375,31	1284,08
375,52	1288,17
375,73	1294,32
375,94	1265,64
376,15	1249,26
376,36	1263,60
376,57	1239,02
376,78	1228,78
376,99	1277,93
377,20	1277,93
377,40	1265,64
377,61	1273,84
377,82	1296,36
378,03	1234,93
378,24	1267,69
378,45	1333,23
378,66	1312,75
378,87	1263,60
379,08	1288,17
379,29	1265,64
379,50	1327,08
379,71	1222,64
379,91	1296,36
380,12	1247,21
380,33	1312,75
380,54	1316,84
380,75	1263,60
380,96	1247,21
381,17	1279,98
381,38	1294,32
381,59	1245,16
381,80	1224,69
382,00	1265,64
382,21	1355,76
382,42	1267,69
382,63	1247,21
382,84	1271,79
383,05	1263,60
383,26	1253,36
383,47	1239,02
383,68	1282,03
383,88	1282,03
384,09	1279,98
384,30	1279,98
384,51	1273,84
384,72	1273,84
384,93	1232,88
385,14	1275,88
385,35	1298,41
385,55	1253,36
385,76	1294,32
385,97	1300,46
386,18	1228,78
386,39	1306,60
386,60	1263,60
386,81	1314,80
387,02	1263,60
387,22	1312,75
387,43	1308,65
387,64	1282,03
387,85	1234,93
388,06	1245,16
388,27	1273,84
388,48	1208,30
388,68	1241,07
388,89	1265,64
389,10	1325,04
389,31	1290,22
389,52	1175,53
389,73	1210,35
389,93	1279,98
390,14	1247,21
390,35	1298,41
390,56	1253,36
390,77	1226,73
390,98	1245,16
391,18	1294,32
391,39	1257,45
391,60	1265,64
391,81	1277,93
392,02	1271,79
392,23	1310,70
392,43	1310,70
392,64	1214,45
392,85	1286,12
393,06	1284,08
393,27	1251,31
393,47	1224,69
393,68	1265,64
393,89	1222,64
394,10	1247,21
394,31	1269,74
394,52	1290,22
394,72	1277,93
394,93	1298,41
395,14	1236,97
395,35	1277,93
395,56	1206,25
395,76	1282,03
395,97	1273,84
396,18	1245,16
396,39	1296,36
396,60	1265,64
396,80	1290,22
397,01	1241,07
397,22	1298,41
397,43	1337,32
397,64	1241,07
397,84	1198,06
398,05	1275,88
398,26	1294,32
398,47	1318,89
398,67	1304,56
398,88	1261,55
399,09	1255,40
399,30	1239,02
399,51	1257,45
399,71	1314,80
399,92	1286,12
400,13	1306,60
400,34	1277,93
400,54	1259,50
400,75	1288,17
400,96	1298,41
401,17	1271,79
401,37	1236,97
401,58	1222,64
401,79	1255,40
402,00	1347,56
402,21	1310,70
402,41	1325,04
402,62	1314,80
402,83	1247,21
403,04	1261,55
403,24	1300,46
403,45	1263,60
403,66	1234,93
403,87	1232,88
404,07	1337,32
404,28	1279,98
404,49	1257,45
404,70	1290,22
404,90	1267,69
405,11	1224,69
405,32	1290,22
405,52	1294,32
405,73	1318,89
405,94	1302,51
406,15	1275,88
406,35	1239,02
406,56	1361,90
406,77	1236,97
406,98	1249,26
407,18	1265,64
407,39	1331,18
407,60	1269,74
407,80	1331,18
408,01	1269,74
408,22	1325,04
408,43	1230,83
408,63	1253,36
408,84	1243,12
409,05	1265,64
409,25	1261,55
409,46	1208,30
409,67	1267,69
409,88	1241,07
410,08	1220,59
410,29	1331,18
410,50	1263,60
410,70	1306,60
410,91	1277,93
411,12	1310,70
411,32	1302,51
411,53	1251,31
411,74	1230,83
411,95	1294,32
412,15	1331,18
412,36	1279,98
412,57	1363,95
412,77	1224,69
412,98	1318,89
413,19	1329,13
413,39	1245,16
413,60	1226,73
413,81	1349,61
414,01	1306,60
414,22	1245,16
414,43	1310,70
414,63	1288,17
414,84	1314,80
415,05	1247,21
415,25	1310,70
415,46	1337,32
415,67	1228,78
415,87	1245,16
416,08	1230,83
416,29	1228,78
416,49	1265,64
416,70	1284,08
416,91	1296,36
417,11	1275,88
417,32	1255,40
417,53	1282,03
417,73	1290,22
417,94	1273,84
418,15	1230,83
418,35	1230,83
418,56	1322,99
418,77	1259,50
418,97	1224,69
419,18	1204,21
419,38	1255,40
419,59	1312,75
419,80	1263,60
420,00	1294,32
420,21	1316,84
420,42	1226,73
420,62	1216,49
420,83	1212,40
421,04	1286,12
421,24	1259,50
421,45	1288,17
421,65	1298,41
421,86	1249,26
422,07	1196,01
422,27	1355,76
422,48	1216,49
422,69	1284,08
422,89	1185,77
423,10	1357,80
423,30	1277,93
423,51	1325,04
423,72	1279,98
423,92	1269,74
424,13	1210,35
424,33	1331,18
424,54	1300,46
424,75	1247,21
424,95	1304,56
425,16	1259,50
425,36	1275,88
425,57	1279,98
425,78	1230,83
425,98	1241,07
426,19	1312,75
426,39	1298,41
426,60	1312,75
426,81	1265,64
427,01	1279,98
427,22	1239,02
427,42	1261,55
427,63	1173,49
427,83	1232,88
428,04	1361,90
428,25	1286,12
428,45	1353,71
428,66	1230,83
428,86	1216,49
429,07	1294,32
429,28	1357,80
429,48	1263,60
429,69	1300,46
429,89	1239,02
430,10	1320,94
430,30	1275,88
430,51	1302,51
430,71	1290,22
430,92	1341,42
431,13	1224,69
431,33	1222,64
431,54	1259,50
431,74	1257,45
431,95	1271,79
432,15	1337,32
432,36	1304,56
432,56	1253,36
432,77	1245,16
432,98	1271,79
433,18	1298,41
433,39	1261,55
433,59	1243,12
433,80	1212,40
434,00	1292,27
434,21	1232,88
434,41	1249,26
434,62	1255,40
434,82	1273,84
435,03	1282,03
435,23	1269,74
435,44	1267,69
435,64	1286,12
435,85	1265,64
436,06	1339,37
436,26	1255,40
436,47	1343,47
436,67	1302,51
436,88	1226,73
437,08	1275,88
437,29	1245,16
437,49	1345,52
437,70	1337,32
437,90	1273,84
438,11	1331,18
438,31	1241,07
438,52	1212,40
438,72	1236,97
438,93	1257,45
439,13	1269,74
439,34	1284,08
439,54	1265,64
439,75	1341,42
439,95	1228,78
440,16	1277,93
440,36	1247,21
440,57	1322,99
440,77	1322,99
440,98	1259,50
441,18	1282,03
441,39	1255,40
441,59	1286,12
441,80	1271,79
442,00	1239,02
442,21	1263,60
442,41	1273,84
442,62	1343,47
442,82	1247,21
443,02	1288,17
443,23	1234,93
443,43	1263,60
443,64	1279,98
443,84	1269,74
444,05	1263,60
444,25	1263,60
444,46	1269,74
444,66	1236,97
444,87	1286,12
445,07	1269,74
445,28	1308,65
445,48	1296,36
445,69	1282,03
445,89	1282,03
446,09	1273,84
446,30	1294,32
446,50	1261,55
446,71	1306,60
446,91	1304,56
447,12	1269,74
447,32	1320,94
447,53	1363,95
447,73	1259,50
447,93	1322,99
448,14	1306,60
448,34	1261,55
448,55	1288,17
448,75	1282,03
448,96	1357,80
449,16	1288,17
449,36	1292,27
449,57	1288,17
449,77	1314,80
449,98	1228,78
450,18	1310,70
450,39	1333,23
450,59	1216,49
450,79	1325,04
451,00	1286,12
451,20	1253,36
451,41	1275,88
451,61	1259,50
451,81	1290,22
452,02	1294,32
452,22	1296,36
452,43	1294,32
452,63	1216,49
452,84	1322,99
453,04	1304,56
453,24	1310,70
453,45	1335,28
453,65	1261,55
453,86	1282,03
454,06	1409,00
454,26	1277,93
454,47	1349,61
454,67	1247,21
454,87	1290,22
455,08	1314,80
455,28	1288,17
455,49	1214,45
455,69	1228,78
455,89	1349,61
456,10	1320,94
456,30	1294,32
456,51	1253,36
456,71	1314,80
456,91	1267,69
457,12	1261,55
457,32	1320,94
457,52	1368,04
457,73	1241,07
457,93	1261,55
458,14	1228,78
458,34	1263,60
458,54	1214,45
458,75	1298,41
458,95	1298,41
459,15	1316,84
459,36	1208,30
459,56	1312,75
459,76	1279,98
459,97	1363,95
460,17	1296,36
460,37	1286,12
460,58	1286,12
460,78	1349,61
460,99	1239,02
461,19	1302,51
461,39	1355,76
461,60	1329,13
461,80	1302,51
462,00	1314,80
462,21	1173,49
462,41	1292,27
462,61	1265,64
462,82	1288,17
463,02	1236,97
463,22	1273,84
463,43	1265,64
463,63	1259,50
463,83	1304,56
464,04	1304,56
464,24	1210,35
464,44	1331,18
464,64	1234,93
464,85	1232,88
465,05	1279,98
465,25	1314,80
465,46	1251,31
465,66	1292,27
465,86	1265,64
466,07	1249,26
466,27	1296,36
466,47	1294,32
466,68	1261,55
466,88	1292,27
467,08	1284,08
467,29	1306,60
467,49	1259,50
467,69	1327,08
467,89	1265,64
468,10	1304,56
468,30	1245,16
468,50	1265,64
468,71	1337,32
468,91	1302,51
469,11	1261,55
469,31	1376,24
469,52	1275,88
469,72	1294,32
469,92	1320,94
470,13	1314,80
470,33	1261,55
470,53	1269,74
470,73	1384,43
470,94	1257,45
471,14	1302,51
471,34	1257,45
471,54	1269,74
471,75	1306,60
471,95	1273,84
472,15	1298,41
472,36	1368,04
472,56	1347,56
472,76	1198,06
472,96	1292,27
473,17	1286,12
473,37	1277,93
473,57	1331,18
473,77	1298,41
473,98	1298,41
474,18	1273,84
474,38	1279,98
474,58	1288,17
474,79	1353,71
474,99	1232,88
475,19	1282,03
475,39	1255,40
475,60	1325,04
475,80	1298,41
476,00	1269,74
476,20	1249,26
476,41	1339,37
476,61	1271,79
476,81	1335,28
477,01	1275,88
477,21	1290,22
477,42	1239,02
477,62	1314,80
477,82	1290,22
478,02	1228,78
478,23	1292,27
478,43	1339,37
478,63	1353,71
478,83	1310,70
479,03	1282,03
479,24	1269,74
479,44	1380,33
479,64	1300,46
479,84	1286,12
480,04	1318,89
480,25	1341,42
480,45	1304,56
480,65	1239,02
480,85	1335,28
481,06	1304,56
481,26	1298,41
481,46	1277,93
481,66	1228,78
481,86	1290,22
482,06	1228,78
482,27	1273,84
482,47	1273,84
482,67	1232,88
482,87	1279,98
483,07	1241,07
483,28	1236,97
483,48	1292,27
483,68	1253,36
483,88	1282,03
484,08	1290,22
484,29	1257,45
484,49	1267,69
484,69	1224,69
484,89	1275,88
485,09	1249,26
485,29	1234,93
485,50	1265,64
485,70	1355,76
485,90	1331,18
486,10	1335,28
486,30	1277,93
486,50	1279,98
486,71	1224,69
486,91	1249,26
487,11	1257,45
487,31	1222,64
487,51	1236,97
487,71	1304,56
487,91	1363,95
488,12	1267,69
488,32	1253,36
488,52	1253,36
488,72	1255,40
488,92	1249,26
489,12	1316,84
489,32	1218,54
489,53	1298,41
489,73	1273,84
489,93	1177,58
490,13	1341,42
490,33	1282,03
490,53	1269,74
490,73	1302,51
490,94	1204,21
491,14	1261,55
491,34	1284,08
491,54	1343,47
491,74	1249,26
491,94	1325,04
492,14	1294,32
492,34	1282,03
492,54	1300,46
492,75	1245,16
492,95	1257,45
493,15	1294,32
493,35	1302,51
493,55	1306,60
493,75	1251,31
493,95	1284,08
494,15	1331,18
494,35	1277,93
494,56	1327,08
494,76	1290,22
494,96	1249,26
495,16	1290,22
495,36	1308,65
495,56	1245,16
495,76	1279,98
495,96	1310,70
496,16	1228,78
496,36	1259,50
496,56	1308,65
496,77	1277,93
496,97	1251,31
497,17	1273,84
497,37	1239,02
497,57	1316,84
497,77	1191,92
497,97	1241,07
498,17	1273,84
498,37	1284,08
498,57	1308,65
498,77	1314,80
498,97	1247,21
499,17	1333,23
499,38	1253,36
499,58	1310,70
499,78	1230,83
499,98	1257,45
500,18	1265,64
500,38	1232,88
500,58	1245,16
500,78	1320,94
500,98	1271,79
501,18	1357,80
501,38	1259,50
501,58	1253,36
501,78	1316,84
501,98	1286,12
502,18	1279,98
502,38	1300,46
502,58	1302,51
502,78	1279,98
502,98	1277,93
503,18	1265,64
503,38	1251,31
503,59	1263,60
503,79	1316,84
503,99	1251,31
504,19	1298,41
504,39	1363,95
504,59	1236,97
504,79	1335,28
504,99	1333,23
505,19	1396,71
505,39	1279,98
505,59	1220,59
505,79	1290,22
505,99	1249,26
506,19	1273,84
506,39	1263,60
506,59	1286,12
506,79	1271,79
506,99	1241,07
507,19	1271,79
507,39	1359,85
507,59	1304,56
507,79	1191,92
507,99	1335,28
508,19	1290,22
508,39	1257,45
508,59	1351,66
508,79	1331,18
508,99	1308,65
509,19	1339,37
509,39	1304,56
509,59	1286,12
509,79	1239,02
509,99	1236,97
510,19	1308,65
510,39	1320,94
510,59	1245,16
510,79	1236,97
510,99	1222,64
511,19	1282,03
511,39	1300,46
511,59	1251,31
511,79	1355,76
511,99	1282,03
512,19	1322,99
512,38	1308,65
512,58	1282,03
512,78	1261,55
512,98	1292,27
513,18	1339,37
513,38	1189,87
513,58	1284,08
513,78	1308,65
513,98	1331,18
514,18	1263,60
514,38	1282,03
514,58	1304,56
514,78	1347,56
514,98	1279,98
515,18	1294,32
515,38	1310,70
515,58	1300,46
515,78	1341,42
515,98	1273,84
516,18	1277,93
516,38	1347,56
516,57	1239,02
516,77	1296,36
516,97	1290,22
517,17	1263,60
517,37	1277,93
517,57	1286,12
517,77	1294,32
517,97	1243,12
518,17	1296,36
518,37	1310,70
518,57	1312,75
518,77	1296,36
518,97	1271,79
519,16	1353,71
519,36	1300,46
519,56	1257,45
519,76	1347,56
519,96	1224,69
520,16	1339,37
520,36	1312,75
520,56	1247,21
520,76	1312,75
520,96	1239,02
521,16	1331,18
521,35	1372,14
521,55	1318,89
521,75	1304,56
521,95	1269,74
522,15	1300,46
522,35	1228,78
522,55	1261,55
522,75	1286,12
522,95	1294,32
523,14	1245,16
523,34	1310,70
523,54	1234,93
523,74	1335,28
523,94	1294,32
524,14	1253,36
524,34	1204,21
524,54	1263,60
524,73	1298,41
524,93	1261,55
525,13	1212,40
525,33	1198,06
525,53	1312,75
525,73	1253,36
525,93	1282,03
526,13	1234,93
526,32	1247,21
526,52	1286,12
526,72	1292,27
526,92	1224,69
527,12	1222,64
527,32	1269,74
527,52	1304,56
527,71	1304,56
527,91	1359,85
528,11	1200,11
528,31	1265,64
528,51	1290,22
528,71	1202,16
528,90	1316,84
529,10	1277,93
529,30	1357,80
529,50	1265,64
529,70	1263,60
529,90	1296,36
530,09	1327,08
530,29	1318,89
530,49	1298,41
530,69	1214,45
530,89	1277,93
531,09	1294,32
531,28	1327,08
531,48	1300,46
531,68	1333,23
531,88	1273,84
532,08	1298,41
532,28	1312,75
532,47	1359,85
532,67	1308,65
532,87	1198,06
533,07	1275,88
533,27	1286,12
533,46	1220,59
533,66	1273,84
533,86	1255,40
534,06	1333,23
534,26	1269,74
534,45	1265,64
534,65	1253,36
534,85	1335,28
535,05	1257,45
535,25	1357,80
535,44	1253,36
535,64	1277,93
535,84	1298,41
536,04	1290,22
536,24	1361,90
536,43	1251,31
536,63	1290,22
536,83	1247,21
537,03	1261,55
537,22	1339,37
537,42	1282,03
537,62	1253,36
537,82	1310,70
538,02	1314,80
538,21	1310,70
538,41	1265,64
538,61	1228,78
538,81	1304,56
539,00	1288,17
539,20	1359,85
539,40	1269,74
539,60	1275,88
539,79	1257,45
539,99	1257,45
540,19	1296,36
540,39	1271,79
540,58	1302,51
540,78	1322,99
540,98	1253,36
541,18	1284,08
541,37	1282,03
541,57	1300,46
541,77	1286,12
541,97	1239,02
542,16	1286,12
542,36	1247,21
542,56	1257,45
542,76	1279,98
542,95	1265,64
543,15	1241,07
543,35	1337,32
543,54	1302,51
543,74	1288,17
543,94	1366,00
544,14	1277,93
544,33	1228,78
544,53	1261,55
544,73	1265,64
544,93	1247,21
545,12	1322,99
545,32	1290,22
545,52	1257,45
545,71	1337,32
545,91	1320,94
546,11	1263,60
546,30	1243,12
546,50	1325,04
546,70	1335,28
546,90	1355,76
547,09	1314,80
547,29	1386,47
547,49	1265,64
547,68	1282,03
547,88	1253,36
548,08	1271,79
548,27	1361,90
548,47	1353,71
548,67	1282,03
548,87	1282,03
549,06	1300,46
549,26	1392,62
549,46	1286,12
549,65	1318,89
549,85	1249,26
550,05	1286,12
550,24	1396,71
550,44	1245,16
550,64	1279,98
550,83	1306,60
551,03	1251,31
551,23	1245,16
551,42	1271,79
551,62	1284,08
551,82	1271,79
552,01	1255,40
552,21	1257,45
552,41	1306,60
552,60	1288,17
552,80	1310,70
553,00	1236,97
553,19	1261,55
553,39	1292,27
553,59	1292,27
553,78	1163,25
553,98	1294,32
554,17	1267,69
554,37	1257,45
554,57	1284,08
554,76	1228,78
554,96	1298,41
555,16	1331,18
555,35	1286,12
555,55	1265,64
555,75	1331,18
555,94	1335,28
556,14	1236,97
556,33	1304,56
556,53	1316,84
556,73	1288,17
556,92	1288,17
557,12	1331,18
557,32	1271,79
557,51	1271,79
557,71	1230,83
557,90	1298,41
558,10	1253,36
558,30	1302,51
558,49	1290,22
558,69	1265,64
558,88	1279,98
559,08	1265,64
559,28	1243,12
559,47	1318,89
559,67	1286,12
559,86	1232,88
560,06	1343,47
560,26	1308,65
560,45	1341,42
560,65	1265,64
560,84	1271,79
561,04	1214,45
561,24	1263,60
561,43	1279,98
561,63	1304,56
561,82	1357,80
562,02	1292,27
562,22	1277,93
562,41	1341,42
562,61	1286,12
562,80	1310,70
563,00	1292,27
563,19	1249,26
563,39	1269,74
563,59	1296,36
563,78	1296,36
563,98	1320,94
564,17	1224,69
564,37	1294,32
564,56	1300,46
564,76	1222,64
564,96	1345,52
565,15	1271,79
565,35	1290,22
565,54	1306,60
565,74	1277,93
565,93	1273,84
566,13	1269,74
566,32	1312,75
566,52	1320,94
566,71	1294,32
566,91	1271,79
567,11	1361,90
567,30	1284,08
567,50	1337,32
567,69	1331,18
567,89	1286,12
568,08	1193,97
568,28	1269,74
568,47	1331,18
568,67	1314,80
568,86	1273,84
569,06	1325,04
569,25	1298,41
569,45	1239,02
569,64	1290,22
569,84	1273,84
570,04	1331,18
570,23	1220,59
570,43	1261,55
570,62	1277,93
570,82	1253,36
571,01	1269,74
571,21	1290,22
571,40	1368,04
571,60	1376,24
571,79	1234,93
571,99	1292,27
572,18	1312,75
572,38	1322,99
572,57	1228,78
572,77	1236,97
572,96	1298,41
573,16	1351,66
573,35	1300,46
573,55	1255,40
573,74	1343,47
573,94	1234,93
574,13	1294,32
574,33	1255,40
574,52	1320,94
574,71	1189,87
574,91	1263,60
575,10	1327,08
575,30	1329,13
575,49	1282,03
575,69	1331,18
575,88	1263,60
576,08	1298,41
576,27	1257,45
576,47	1265,64
576,66	1249,26
576,86	1288,17
577,05	1265,64
577,25	1304,56
577,44	1314,80
577,64	1316,84
577,83	1310,70
578,02	1314,80
578,22	1232,88
578,41	1302,51
578,61	1282,03
578,80	1253,36
579,00	1239,02
579,19	1263,60
579,39	1298,41
579,58	1306,60
579,77	1320,94
579,97	1236,97
580,16	1372,14
580,36	1284,08
580,55	1290,22
580,75	1396,71
580,94	1327,08
581,13	1210,35
581,33	1386,47
581,52	1255,40
581,72	1247,21
581,91	1314,80
582,11	1318,89
582,30	1335,28
582,49	1322,99
582,69	1312,75
582,88	1322,99
583,08	1318,89
583,27	1249,26
583,47	1306,60
583,66	1300,46
583,85	1353,71
584,05	1312,75
584,24	1265,64
584,44	1349,61
584,63	1247,21
584,82	1243,12
585,02	1249,26
585,21	1339,37
585,41	1241,07
585,60	1249,26
585,79	1298,41
585,99	1226,73
586,18	1263,60
586,37	1255,40
586,57	1269,74
586,76	1249,26
586,96	1284,08
587,15	1363,95
587,34	1249,26
587,54	1228,78
587,73	1386,47
587,93	1322,99
588,12	1325,04
588,31	1331,18
588,51	1224,69
588,70	1298,41
588,89	1286,12
589,09	1279,98
589,28	1339,37
589,47	1351,66
589,67	1255,40
589,86	1298,41
590,06	1298,41
590,25	1292,27
590,44	1339,37
590,64	1292,27
590,83	1294,32
591,02	1300,46
591,22	1261,55
591,41	1253,36
591,60	1300,46
591,80	1341,42
591,99	1320,94
592,18	1341,42
592,38	1314,80
592,57	1335,28
592,76	1216,49
592,96	1261,55
593,15	1300,46
593,34	1318,89
593,54	1263,60
593,73	1284,08
593,92	1249,26
594,12	1269,74
594,31	1333,23
594,50	1296,36
594,70	1279,98
594,89	1308,65
595,08	1359,85
595,28	1236,97
595,47	1277,93
595,66	1279,98
595,86	1275,88
596,05	1298,41
596,24	1296,36
596,43	1288,17
596,63	1269,74
596,82	1396,71
597,01	1294,32
597,21	1308,65
597,40	1284,08
597,59	1308,65
597,79	1269,74
597,98	1279,98
598,17	1318,89
598,36	1327,08
598,56	1263,60
598,75	1273,84
598,94	1292,27
599,14	1277,93
599,33	1308,65
599,52	1304,56
599,71	1308,65
599,91	1273,84
600,10	1357,80
600,29	1298,41
600,48	1282,03
600,68	1265,64
600,87	1267,69
601,06	1339,37
601,26	1296,36
601,45	1226,73
601,64	1306,60
601,83	1327,08
602,03	1296,36
602,22	1253,36
602,41	1271,79
602,60	1314,80
602,80	1273,84
602,99	1341,42
603,18	1251,31
603,37	1304,56
603,57	1226,73
603,76	1318,89
603,95	1239,02
604,14	1306,60
604,34	1263,60
604,53	1216,49
604,72	1314,80
604,91	1226,73
605,10	1331,18
605,30	1273,84
605,49	1312,75
605,68	1273,84
605,87	1374,19
606,07	1312,75
606,26	1245,16
606,45	1257,45
606,64	1273,84
606,84	1386,47
607,03	1288,17
607,22	1263,60
607,41	1263,60
607,60	1277,93
607,80	1302,51
607,99	1286,12
608,18	1296,36
608,37	1286,12
608,56	1288,17
608,76	1263,60
608,95	1325,04
609,14	1302,51
609,33	1298,41
609,52	1269,74
609,72	1273,84
609,91	1265,64
610,10	1363,95
610,29	1273,84
610,48	1257,45
610,68	1275,88
610,87	1296,36
611,06	1269,74
611,25	1239,02
611,44	1329,13
611,63	1241,07
611,83	1288,17
612,02	1335,28
612,21	1337,32
612,40	1325,04
612,59	1353,71
612,79	1208,30
612,98	1294,32
613,17	1302,51
613,36	1320,94
613,55	1318,89
613,74	1265,64
613,93	1236,97
614,13	1277,93
614,32	1265,64
614,51	1265,64
614,70	1216,49
614,89	1304,56
615,08	1271,79
615,28	1312,75
615,47	1304,56
615,66	1306,60
615,85	1308,65
616,04	1265,64
616,23	1370,09
616,42	1275,88
616,62	1282,03
616,81	1347,56
617,00	1302,51
617,19	1253,36
617,38	1255,40
617,57	1243,12
617,76	1279,98
617,95	1267,69
618,15	1290,22
618,34	1298,41
618,53	1298,41
618,72	1318,89
618,91	1282,03
619,10	1259,50
619,29	1327,08
619,48	1310,70
619,68	1294,32
619,87	1243,12
620,06	1228,78
620,25	1214,45
620,44	1329,13
620,63	1169,39
620,82	1368,04
621,01	1353,71
621,20	1191,92
621,39	1253,36
621,59	1224,69
621,78	1302,51
621,97	1277,93
622,16	1210,35
622,35	1345,52
622,54	1267,69
622,73	1325,04
622,92	1259,50
623,11	1226,73
623,30	1331,18
623,49	1349,61
623,68	1300,46
623,88	1304,56
624,07	1232,88
624,26	1308,65
624,45	1294,32
624,64	1302,51
624,83	1388,52
625,02	1353,71
625,21	1277,93
625,40	1243,12
625,59	1296,36
625,78	1286,12
625,97	1329,13
626,16	1322,99
626,35	1279,98
626,54	1312,75
626,74	1339,37
626,93	1302,51
627,12	1288,17
627,31	1279,98
627,50	1312,75
627,69	1267,69
627,88	1318,89
628,07	1243,12
628,26	1318,89
628,45	1314,80
628,64	1282,03
628,83	1318,89
629,02	1247,21
629,21	1255,40
629,40	1277,93
629,59	1316,84
629,78	1269,74
629,97	1259,50
630,16	1253,36
630,35	1318,89
630,54	1355,76
630,73	1220,59
630,92	1386,47
631,11	1331,18
631,30	1314,80
631,49	1394,67
631,68	1916,90
631,87	7792,52
632,06	26191,47
632,25	45446,47
632,44	58594,43
632,63	65535,00
632,82	41622,92
633,01	21716,66
633,20	10612,57
633,39	4204,48
633,58	2717,65
633,77	2600,92
633,96	2107,36
634,15	1923,04
634,34	1779,68
634,53	1642,47
634,72	1712,10
634,91	1509,35
635,10	1546,22
635,29	1501,16
635,48	1517,54
635,67	1380,33
635,86	1454,06
636,05	1400,81
636,24	1349,61
636,43	1372,14
636,62	1349,61
636,81	1341,42
637,00	1394,67
637,19	1343,47
637,38	1337,32
637,57	1253,36
637,76	1282,03
637,95	1294,32
638,14	1325,04
638,33	1341,42
638,52	1298,41
638,71	1290,22
638,89	1296,36
639,08	1322,99
639,27	1343,47
639,46	1290,22
639,65	1386,47
639,84	1327,08
640,03	1284,08
640,22	1243,12
640,41	1333,23
640,60	1300,46
640,79	1329,13
640,98	1255,40
641,17	1277,93
641,36	1337,32
641,55	1314,80
641,74	1355,76
641,92	1296,36
642,11	1333,23
642,30	1327,08
642,49	1374,19
642,68	1298,41
642,87	1286,12
643,06	1298,41
643,25	1222,64
643,44	1273,84
643,63	1234,93
643,82	1265,64
644,00	1306,60
644,19	1380,33
644,38	1245,16
644,57	1335,28
644,76	1243,12
644,95	1302,51
645,14	1302,51
645,33	1353,71
645,52	1308,65
645,71	1193,97
645,89	1234,93
646,08	1249,26
646,27	1275,88
646,46	1290,22
646,65	1241,07
646,84	1257,45
647,03	1347,56
647,22	1322,99
647,40	1294,32
647,59	1288,17
647,78	1304,56
647,97	1298,41
648,16	1275,88
648,35	1312,75
648,54	1267,69
648,73	1331,18
648,91	1232,88
649,10	1339,37
649,29	1257,45
649,48	1271,79
649,67	1320,94
649,86	1298,41
650,05	1339,37
650,23	1343,47
650,42	1282,03
650,61	1376,24
650,80	1341,42
650,99	1224,69
651,18	1241,07
651,36	1325,04
651,55	1286,12
651,74	1351,66
651,93	1312,75
652,12	1263,60
652,31	1279,98
652,49	1320,94
652,68	1300,46
652,87	1263,60
653,06	1288,17
653,25	1308,65
653,44	1267,69
653,62	1347,56
653,81	1329,13
654,00	1245,16
654,19	1249,26
654,38	1339,37
654,56	1292,27
654,75	1296,36
654,94	1296,36
655,13	1300,46
655,32	1298,41
655,51	1370,09
655,69	1273,84
655,88	1306,60
656,07	1290,22
656,26	1239,02
656,45	1292,27
656,63	1222,64
656,82	1257,45
657,01	1269,74
657,20	1351,66
657,38	1288,17
657,57	1341,42
657,76	1257,45
657,95	1282,03
658,14	1257,45
658,32	1318,89
658,51	1243,12
658,70	1284,08
658,89	1255,40
659,08	1275,88
659,26	1343,47
659,45	1241,07
659,64	1271,79
659,83	1298,41
660,01	1183,73
660,20	1384,43
660,39	1269,74
660,58	1226,73
660,76	1288,17
660,95	1226,73
661,14	1318,89
661,33	1314,80
661,51	1320,94
661,70	1286,12
661,89	1312,75
662,08	1253,36
662,26	1325,04
662,45	1318,89
662,64	1351,66
662,83	1165,29
663,01	1226,73
663,20	1277,93
663,39	1206,25
663,58	1279,98
663,76	1292,27
663,95	1337,32
664,14	1273,84
664,32	1316,84
664,51	1234,93
664,70	1302,51
664,89	1261,55
665,07	1341,42
665,26	1290,22
665,45	1314,80
665,64	1265,64
665,82	1202,16
666,01	1267,69
666,20	1257,45
666,38	1261,55
666,57	1273,84
666,76	1279,98
666,95	1277,93
667,13	1282,03
667,32	1259,50
667,51	1312,75
667,69	1282,03
667,88	1335,28
668,07	1296,36
668,25	1196,01
668,44	1259,50
668,63	1253,36
668,81	1220,59
669,00	1253,36
669,19	1298,41
669,38	1263,60
669,56	1271,79
669,75	1251,31
669,94	1279,98
670,12	1306,60
670,31	1296,36
670,50	1314,80
670,68	1279,98
670,87	1228,78
671,06	1277,93
671,24	1327,08
671,43	1228,78
671,62	1277,93
671,80	1263,60
671,99	1273,84
672,18	1322,99
672,36	1257,45
672,55	1222,64
672,74	1284,08
672,92	1284,08
673,11	1310,70
673,29	1294,32
673,48	1316,84
673,67	1247,21
673,85	1322,99
674,04	1234,93
674,23	1327,08
674,41	1249,26
674,60	1292,27
674,79	1269,74
674,97	1230,83
675,16	1306,60
675,34	1218,54
675,53	1245,16
675,72	1226,73
675,90	1277,93
676,09	1257,45
676,28	1241,07
676,46	1259,50
676,65	1316,84
676,83	1290,22
677,02	1214,45
677,21	1284,08
677,39	1263,60
677,58	1253,36
677,77	1230,83
677,95	1257,45
678,14	1234,93
678,32	1277,93
678,51	1290,22
678,70	1269,74
678,88	1267,69
679,07	1255,40
679,25	1341,42
679,44	1187,82
679,63	1228,78
679,81	1232,88
680,00	1251,31
680,18	1294,32
680,37	1269,74
680,55	1273,84
680,74	1267,69
680,93	1302,51
681,11	1198,06
681,30	1339,37
681,48	1255,40
681,67	1282,03
681,85	1292,27
682,04	1271,79
682,23	1261,55
682,41	1220,59
682,60	1208,30
682,78	1286,12
682,97	1310,70
683,15	1239,02
683,34	1279,98
683,53	1304,56
683,71	1308,65
683,90	1204,21
684,08	1224,69
684,27	1251,31
684,45	1234,93
684,64	1265,64
684,82	1245,16
685,01	1271,79
685,19	1265,64
685,38	1247,21
685,57	1282,03
685,75	1337,32
685,94	1288,17
686,12	1249,26
686,31	1234,93
686,49	1245,16
686,68	1298,41
686,86	1271,79
687,05	1333,23
687,23	1306,60
687,42	1374,19
687,60	1269,74
687,79	1243,12
687,97	1239,02
688,16	1292,27
688,34	1277,93
688,53	1271,79
688,71	1232,88
688,90	1212,40
689,08	1220,59
689,27	1310,70
689,45	1259,50
689,64	1193,97
689,82	1312,75
690,01	1273,84
690,19	1294,32
690,38	1320,94
690,56	1279,98
690,75	1284,08
690,93	1284,08
691,12	1325,04
691,30	1259,50
691,49	1253,36
691,67	1318,89
691,86	1302,51
692,04	1230,83
692,23	1261,55
692,41	1257,45
692,60	1320,94
692,78	1228,78
692,97	1263,60
693,15	1331,18
693,34	1210,35
693,52	1239,02
693,71	1310,70
693,89	1322,99
694,08	1325,04
694,26	1263,60
694,44	1282,03
694,63	1308,65
694,81	1294,32
695,00	1292,27
695,18	1306,60
695,37	1259,50
695,55	1292,27
695,74	1265,64
695,92	1257,45
696,10	1288,17
696,29	1296,36
696,47	1232,88
696,66	1232,88
696,84	1273,84
697,03	1261,55
697,21	1322,99
697,40	1325,04
697,58	1296,36
697,76	1284,08
697,95	1284,08
698,13	1251,31
698,32	1210,35
698,50	1273,84
698,68	1257,45
698,87	1273,84
699,05	1279,98
699,24	1339,37
699,42	1241,07
699,61	1263,60
699,79	1327,08
699,97	1236,97
700,16	1228,78
700,34	1335,28
700,53	1329,13
700,71	1288,17
700,89	1310,70
701,08	1245,16
701,26	1220,59
701,45	1282,03
701,63	1306,60
701,81	1267,69
702,00	1300,46
702,18	1222,64
702,37	1265,64
702,55	1253,36
702,73	1247,21
702,92	1230,83
703,10	1220,59
703,28	1277,93
703,47	1214,45
703,65	1218,54
703,84	1351,66
704,02	1331,18
704,20	1273,84
704,39	1259,50
704,57	1345,52
704,75	1232,88
704,94	1259,50
705,12	1243,12
705,30	1247,21
705,49	1288,17
705,67	1314,80
705,86	1292,27
706,04	1210,35
706,22	1247,21
706,41	1239,02
706,59	1224,69
706,77	1255,40
706,96	1230,83
707,14	1265,64
707,32	1226,73
707,51	1261,55
707,69	1286,12
707,87	1277,93
708,06	1345,52
708,24	1236,97
708,42	1329,13
708,61	1296,36
708,79	1249,26
708,97	1204,21
709,16	1296,36
709,34	1312,75
709,52	1216,49
709,71	1257,45
709,89	1275,88
710,07	1304,56
710,26	1228,78
710,44	1265,64
710,62	1308,65
710,80	1288,17
710,99	1312,75
711,17	1284,08
711,35	1306,60
711,54	1294,32
711,72	1329,13
711,90	1249,26
712,09	1288,17
712,27	1325,04
712,45	1245,16
712,63	1269,74
712,82	1329,13
713,00	1267,69
713,18	1331,18
713,37	1247,21
713,55	1191,92
713,73	1236,97
713,91	1318,89
714,10	1224,69
714,28	1210,35
714,46	1232,88
714,65	1232,88
714,83	1265,64
715,01	1204,21
715,19	1265,64
715,38	1271,79
715,56	1249,26
715,74	1232,88
715,92	1175,53
716,11	1279,98
716,29	1247,21
716,47	1218,54
716,65	1245,16
716,84	1271,79
717,02	1269,74
717,20	1220,59
717,38	1359,85
717,57	1273,84
717,75	1239,02
717,93	1222,64
718,11	1253,36
718,30	1335,28
718,48	1234,93
718,66	1273,84
718,84	1300,46
719,03	1232,88
719,21	1220,59
719,39	1263,60
719,57	1275,88
719,75	1228,78
719,94	1257,45
720,12	1310,70
720,30	1247,21
720,48	1322,99
720,67	1245,16
720,85	1253,36
721,03	1327,08
721,21	1236,97
721,39	1288,17
721,58	1234,93
721,76	1286,12
721,94	1269,74
722,12	1325,04
722,30	1236,97
722,49	1290,22
722,67	1208,30
722,85	1206,25
723,03	1300,46
723,21	1257,45
723,40	1251,31
723,58	1304,56
723,76	1279,98
723,94	1396,71
724,12	1304,56
724,30	1255,40
724,49	1259,50
724,67	1306,60
724,85	1271,79
725,03	1224,69
725,21	1290,22
725,40	1284,08
725,58	1284,08
725,76	1351,66
725,94	1296,36
726,12	1200,11
726,30	1243,12
726,49	1286,12
726,67	1273,84
726,85	1255,40
727,03	1304,56
727,21	1230,83
727,39	1353,71
727,57	1257,45
727,76	1343,47
727,94	1241,07
728,12	1198,06
728,30	1298,41
728,48	1245,16
728,66	1214,45
728,84	1257,45
729,03	1236,97
729,21	1263,60
729,39	1286,12
729,57	1292,27
729,75	1300,46
729,93	1294,32
730,11	1296,36
730,30	1243,12
730,48	1255,40
730,66	1241,07
730,84	1230,83
731,02	1308,65
731,20	1306,60
731,38	1222,64
731,56	1312,75
731,74	1253,36
731,93	1257,45
732,11	1243,12
732,29	1279,98
732,47	1236,97
732,65	1327,08
732,83	1284,08
733,01	1228,78
733,19	1251,31
733,37	1294,32
733,56	1296,36
733,74	1331,18
733,92	1220,59
734,10	1230,83
734,28	1282,03
734,46	1247,21
734,64	1224,69
734,82	1263,60
735,00	1261,55
735,18	1249,26
735,36	1282,03
735,54	1234,93
735,73	1200,11
735,91	1212,40
736,09	1314,80
736,27	1259,50
736,45	1255,40
736,63	1322,99
736,81	1282,03
736,99	1290,22
737,17	1263,60
737,35	1275,88
737,53	1294,32
737,71	1241,07
737,89	1306,60
738,07	1234,93
738,25	1249,26
738,43	1265,64
738,61	1249,26
738,80	1232,88
738,98	1255,40
739,16	1236,97
739,34	1269,74
739,52	1282,03
739,70	1337,32
739,88	1222,64
740,06	1292,27
740,24	1224,69
740,42	1339,37
740,60	1302,51
740,78	1234,93
740,96	1230,83
741,14	1335,28
741,32	1247,21
741,50	1265,64
741,68	1286,12
741,86	1322,99
742,04	1239,02
742,22	1241,07
742,40	1396,71
742,58	1275,88
742,76	1277,93
742,94	1230,83
743,12	1222,64
743,30	1292,27
743,48	1308,65
743,66	1257,45
743,84	1279,98
744,02	1292,27
744,20	1253,36
744,38	1277,93
744,56	1239,02
744,74	1339,37
744,92	1251,31
745,10	1370,09
745,28	1224,69
745,46	1257,45
745,64	1214,45
745,82	1292,27
746,00	1249,26
746,18	1290,22
746,36	1273,84
746,54	1296,36
746,72	1193,97
746,90	1265,64
747,08	1284,08
747,26	1243,12
747,44	1341,42
747,62	1251,31
747,80	1210,35
747,98	1279,98
748,15	1265,64
748,33	1306,60
748,51	1224,69
748,69	1298,41
748,87	1214,45
749,05	1302,51
749,23	1232,88
749,41	1316,84
749,59	1249,26
749,77	1357,80
749,95	1261,55
750,13	1294,32
750,31	1208,30
750,49	1275,88
750,67	1193,97
750,85	1304,56
751,03	1331,18
751,20	1200,11
751,38	1273,84
751,56	1232,88
751,74	1325,04
751,92	1230,83
752,10	1273,84
752,28	1335,28
752,46	1265,64
752,64	1228,78
752,82	1228,78
753,00	1286,12
753,18	1267,69
753,35	1247,21
753,53	1331,18
753,71	1271,79
753,89	1157,10
754,07	1255,40
754,25	1370,09
754,43	1239,02
754,61	1232,88
754,79	1220,59
754,97	1277,93
755,14	1228,78
755,32	1282,03
755,50	1286,12
755,68	1251,31
755,86	1363,95
756,04	1271,79
756,22	1239,02
756,40	1425,39
756,57	1202,16
756,75	1249,26
756,93	1302,51
757,11	1257,45
757,29	1320,94
757,47	1288,17
757,65	1259,50
757,82	1191,92
758,00	1216,49
758,18	1259,50
758,36	1282,03
758,54	1318,89
758,72	1294,32
758,90	1294,32
759,07	1288,17
759,25	1277,93
759,43	1294,32
759,61	1316,84
759,79	1204,21
759,97	1214,45
760,15	1249,26
760,32	1257,45
760,50	1257,45
760,68	1302,51
760,86	1249,26
761,04	1308,65
761,22	1236,97
761,39	1333,23
761,57	1288,17
761,75	1265,64
761,93	1269,74
762,11	1322,99
762,28	1255,40
762,46	1247,21
762,64	1314,80
762,82	1173,49
763,00	1196,01
763,18	1372,14
763,35	1261,55
763,53	1335,28
763,71	1241,07
763,89	1282,03
764,07	1304,56
764,24	1255,40
764,42	1222,64
764,60	1236,97
764,78	1232,88
764,96	1265,64
765,13	1288,17
765,31	1294,32
765,49	1284,08
765,67	1245,16
765,84	1259,50
766,02	1198,06
766,20	1286,12
766,38	1261,55
766,56	1300,46
766,73	1273,84
766,91	1239,02
767,09	1284,08
767,27	1271,79
767,44	1218,54
767,62	1255,40
767,80	1282,03
767,98	1320,94
768,15	1304,56
768,33	1224,69
768,51	1236,97
768,69	1255,40
768,87	1290,22
769,04	1339,37
769,22	1236,97
769,40	1269,74
769,58	1245,16
769,75	1294,32
769,93	1249,26
770,11	1251,31
770,28	1306,60
770,46	1243,12
770,64	1275,88
770,82	1267,69
770,99	1265,64
771,17	1183,73
771,35	1318,89
771,53	1271,79
771,70	1308,65
771,88	1259,50
772,06	1288,17
772,23	1181,68
772,41	1275,88
772,59	1253,36
772,77	1277,93
772,94	1265,64
773,12	1310,70
773,30	1361,90
773,47	1292,27
773,65	1312,75
773,83	1308,65
774,01	1214,45
774,18	1318,89
774,36	1251,31
774,54	1255,40
774,71	1269,74
774,89	1265,64
775,07	1241,07
775,24	1257,45
775,42	1251,31
775,60	1273,84
775,78	1275,88
775,95	1243,12
776,13	1245,16
776,31	1292,27
776,48	1220,59
776,66	1308,65
776,84	1284,08
777,01	1286,12
777,19	1255,40
777,37	1273,84
777,54	1279,98
777,72	1314,80
777,90	1275,88
778,07	1263,60
778,25	1249,26
778,43	1271,79
778,60	1300,46
778,78	1325,04
778,96	1259,50
779,13	1275,88
779,31	1322,99
779,49	1275,88
779,66	1181,68
779,84	1290,22
780,01	1216,49
780,19	1249,26
780,37	1206,25
780,54	1277,93
780,72	1298,41
780,90	1265,64
781,07	1204,21
781,25	1331,18
781,43	1304,56
781,60	1277,93
781,78	1271,79
781,95	1241,07
782,13	1216,49
782,31	1267,69
782,48	1288,17
782,66	1347,56
782,83	1288,17
783,01	1304,56
783,19	1292,27
783,36	1310,70
783,54	1255,40
783,72	1257,45
783,89	1249,26
784,07	1247,21
784,24	1296,36
784,42	1327,08
784,60	1210,35
784,77	1312,75
784,95	1298,41
785,12	1208,30
785,30	1241,07
785,47	1286,12
785,65	1322,99
785,83	1218,54
786,00	1269,74
786,18	1247,21
786,35	1230,83
786,53	1251,31
786,71	1298,41
786,88	1243,12
787,06	1341,42
787,23	1296,36
787,41	1214,45
787,58	1204,21
787,76	1247,21
787,94	1345,52
788,11	1261,55
788,29	1269,74
788,46	1318,89
788,64	1249,26
788,81	1259,50
788,99	1292,27
789,16	1226,73
789,34	1243,12
789,52	1224,69
789,69	1298,41
789,87	1159,15
790,04	1232,88
790,22	1320,94
790,39	1284,08
790,57	1286,12
790,74	1224,69
790,92	1282,03
791,09	1263,60
791,27	1279,98
791,44	1271,79
791,62	1347,56
791,79	1296,36
791,97	1292,27
792,15	1286,12
792,32	1265,64
792,50	1253,36
792,67	1298,41
792,85	1271,79
793,02	1196,01
793,20	1265,64
793,37	1265,64
793,55	1314,80
793,72	1282,03
793,90	1335,28
794,07	1355,76
794,25	1335,28
794,42	1308,65
794,60	1243,12
794,77	1255,40
794,95	1331,18
795,12	1294,32
795,30	1308,65
795,47	1208,30
795,65	1288,17
795,82	1241,07
796,00	1265,64
796,17	1345,52
796,34	1316,84
796,52	1226,73
796,69	1314,80
796,87	1210,35
797,04	1265,64
797,22	1265,64
797,39	1232,88
797,57	1284,08
797,74	1279,98
797,92	1279,98
798,09	1302,51
798,27	1341,42
798,44	1269,74
798,62	1300,46
798,79	1251,31
798,96	1300,46
799,14	1314,80
799,31	1241,07
799,49	1273,84
799,66	1226,73
799,84	1277,93
800,01	1228,78
800,19	1284,08
800,36	1304,56
800,53	1288,17
800,71	1306,60
800,88	1263,60
801,06	1259,50
801,23	1302,51
801,41	1263,60
801,58	1341,42
801,75	1247,21
801,93	1286,12
802,10	1335,28
802,28	1226,73
802,45	1316,84
802,63	1230,83
802,80	1327,08
802,97	1232,88
803,15	1208,30
803,32	1282,03
803,50	1304,56
803,67	1284,08
803,84	1236,97
804,02	1255,40
804,19	1236,97
804,37	1353,71
804,54	1232,88
804,71	1261,55
804,89	1261,55
805,06	1263,60
805,24	1322,99
805,41	1290,22
805,58	1210,35
805,76	1259,50
805,93	1267,69
806,10	1308,65
806,28	1234,93
806,45	1361,90
806,63	1284,08
806,80	1355,76
806,97	1322,99
807,15	1196,01
807,32	1279,98
807,49	1349,61
807,67	1228,78
807,84	1224,69
808,01	1232,88
808,19	1226,73
808,36	1316,84
808,54	1312,75
808,71	1259,50
808,88	1208,30
809,06	1267,69
809,23	1271,79
809,40	1275,88
809,58	1312,75
809,75	1331,18
809,92	1345,52
810,10	1230,83
810,27	1308,65
810,44	1275,88
810,62	1236,97
810,79	1261,55
810,96	1298,41
811,14	1279,98
811,31	1269,74
811,48	1314,80
811,66	1292,27
811,83	1284,08
812,00	1292,27
812,18	1345,52
812,35	1265,64
812,52	1265,64
812,69	1245,16
812,87	1304,56
813,04	1255,40
813,21	1198,06
813,39	1267,69
813,56	1236,97
813,73	1261,55
813,91	1282,03
814,08	1243,12
814,25	1255,40
814,42	1286,12
814,60	1304,56
814,77	1312,75
814,94	1232,88
815,12	1243,12
815,29	1265,64
815,46	1232,88
815,63	1284,08
815,81	1302,51
815,98	1322,99
816,15	1277,93
816,33	1314,80
816,50	1288,17
816,67	1202,16
816,84	1318,89
817,02	1290,22
817,19	1312,75
817,36	1257,45
817,53	1298,41
817,71	1320,94
817,88	1316,84
818,05	1204,21
818,22	1286,12
818,40	1325,04
818,57	1316,84
818,74	1249,26
818,91	1247,21
819,09	1294,32
819,26	1284,08
819,43	1271,79
819,60	1263,60
819,78	1263,60
819,95	1306,60
820,12	1355,76
820,29	1236,97
820,47	1255,40
820,64	1191,92
820,81	1212,40
820,98	1232,88
821,15	1232,88
821,33	1296,36
821,50	1298,41
821,67	1284,08
821,84	1265,64
822,02	1214,45
822,19	1290,22
822,36	1263,60
822,53	1216,49
822,70	1253,36
822,88	1265,64
823,05	1312,75
823,22	1304,56
823,39	1335,28
823,56	1294,32
823,74	1361,90
823,91	1204,21
824,08	1279,98
824,25	1300,46
824,42	1296,36
824,60	1230,83
824,77	1286,12
824,94	1261,55
825,11	1271,79
825,28	1255,40
825,45	1259,50
825,63	1298,41
825,80	1261,55
825,97	1325,04
826,14	1257,45
826,31	1282,03
826,48	1349,61
826,66	1253,36
826,83	1312,75
827,00	1198,06
827,17	1279,98
827,34	1298,41
827,51	1335,28
827,69	1294,32
827,86	1261,55
828,03	1247,21
828,20	1265,64
828,37	1300,46
828,54	1255,40
828,71	1239,02
828,89	1298,41
829,06	1177,58
829,23	1265,64
829,40	1232,88
829,57	1255,40
829,74	1249,26
829,91	1273,84
830,09	1296,36
830,26	1275,88
830,43	1263,60
830,60	1300,46
830,77	1232,88
830,94	1357,80
831,11	1284,08
831,28	1347,56
831,46	1294,32
831,63	1224,69
831,80	1298,41
831,97	1216,49
832,14	1247,21
832,31	1288,17
832,48	1208,30
832,65	1193,97
832,82	1273,84
832,99	1304,56
833,17	1288,17
833,34	1234,93
833,51	1249,26
833,68	1239,02
833,85	1277,93
834,02	1298,41
834,19	1247,21
834,36	1230,83
834,53	1314,80
834,70	1251,31
834,87	1282,03
835,04	1234,93
835,22	1255,40
835,39	1310,70
835,56	1259,50
835,73	1312,75
835,90	1226,73
836,07	1345,52
836,24	1284,08
836,41	1279,98
836,58	1306,60
836,75	1322,99
836,92	1269,74
837,09	1200,11
837,26	1298,41
837,43	1275,88
837,60	1310,70
837,77	1259,50
837,94	1245,16
838,12	1277,93
838,29	1218,54
838,46	1196,01
838,63	1329,13
838,80	1277,93
838,97	1245,16
839,14	1241,07
839,31	1212,40
839,48	1249,26
839,65	1261,55
839,82	1226,73
839,99	1288,17
840,16	1230,83
840,33	1265,64
840,50	1257,45
840,67	1249,26
840,84	1267,69
841,01	1241,07
841,18	1296,36
841,35	1286,12
841,52	1263,60
841,69	1347,56
841,86	1339,37
842,03	1243,12
842,20	1316,84
842,37	1228,78
842,54	1253,36
842,71	1337,32
842,88	1304,56
843,05	1200,11
843,22	1312,75
843,39	1271,79
843,56	1392,62
843,73	1290,22
843,90	1222,64
844,07	1218,54
844,24	1234,93
844,41	1263,60
844,58	1247,21
844,75	1230,83
844,92	1275,88
845,09	1261,55
845,26	1261,55
845,43	1257,45
845,60	1247,21
845,77	1243,12
845,94	1345,52
846,10	1316,84
846,27	1294,32
846,44	1282,03
846,61	1284,08
846,78	1286,12
846,95	1298,41
847,12	1189,87
847,29	1232,88
847,46	1267,69
847,63	1327,08
847,80	1310,70
847,97	1275,88
848,14	1294,32
848,31	1251,31
848,48	1181,68
848,65	1316,84
848,82	1271,79
848,98	1216,49
849,15	1228,78
849,32	1247,21
849,49	1320,94
849,66	1300,46
849,83	1251,31
850,00	1224,69
850,17	1308,65
850,34	1314,80
850,51	1284,08
850,68	1300,46
850,85	1269,74
851,01	1320,94
851,18	1282,03
851,35	1298,41
851,52	1267,69
851,69	1306,60
851,86	1193,97
852,03	1286,12
852,20	1273,84
852,37	1241,07
852,53	1259,50
852,70	1337,32
852,87	1196,01
853,04	1239,02
853,21	1331,18
853,38	1243,12
853,55	1228,78
853,72	1314,80
853,89	1333,23
854,05	1294,32
854,22	1271,79
854,39	1200,11
854,56	1239,02
854,73	1349,61
854,90	1290,22
855,07	1286,12
855,23	1271,79
855,40	1257,45
855,57	1253,36
855,74	1222,64
855,91	1316,84
856,08	1304,56
856,25	1228,78
856,41	1208,30
856,58	1314,80
856,75	1290,22
856,92	1312,75
857,09	1296,36
857,26	1185,77
857,42	1257,45
857,59	1322,99
857,76	1265,64
857,93	1310,70
858,10	1275,88
858,27	1327,08
858,43	1259,50
858,60	1236,97
858,77	1279,98
858,94	1284,08
859,11	1279,98
859,27	1308,65
859,44	1306,60
859,61	1296,36
859,78	1224,69
859,95	1300,46
860,12	1247,21
860,28	1204,21
860,45	1312,75
860,62	1245,16
860,79	1271,79
860,95	1279,98
861,12	1236,97
861,29	1257,45
861,46	1259,50
861,63	1269,74
861,79	1259,50
861,96	1263,60
862,13	1314,80
862,30	1247,21
862,47	1253,36
862,63	1279,98
862,80	1298,41
862,97	1271,79
863,14	1304,56
863,30	1265,64
863,47	1243,12
863,64	1271,79
863,81	1271,79
863,97	1263,60
864,14	1255,40
864,31	1269,74
864,48	1304,56
864,65	1224,69
864,81	1339,37
864,98	1224,69
865,15	1292,27
865,32	1173,49
865,48	1300,46
865,65	1234,93
865,82	1232,88
865,98	1265,64
866,15	1208,30
866,32	1296,36
866,49	1277,93
866,65	1257,45
866,82	1263,60
866,99	1279,98
867,16	1261,55
867,32	1298,41
867,49	1374,19
867,66	1337,32
867,83	1196,01
867,99	1239,02
868,16	1216,49
868,33	1271,79
868,49	1318,89
868,66	1353,71
868,83	1247,21
868,99	1228,78
869,16	1204,21
869,33	1275,88
869,50	1329,13
869,66	1316,84
869,83	1294,32
870,00	1255,40
870,16	1292,27
870,33	1308,65
870,50	1329,13
870,66	1290,22
870,83	1290,22
871,00	1273,84
871,17	1312,75
871,33	1200,11
871,50	1306,60
871,67	1314,80
871,83	1294,32
872,00	1304,56
872,17	1232,88
872,33	1232,88
872,50	1226,73
872,67	1286,12
872,83	1253,36
873,00	1261,55
873,17	1288,17
873,33	1249,26
873,50	1261,55
873,67	1224,69
873,83	1286,12
874,00	1259,50
874,16	1265,64
874,33	1241,07
874,50	1185,77
874,66	1277,93
874,83	1241,07
875,00	1329,13
875,16	1224,69
875,33	1286,12
875,50	1310,70
875,66	1275,88
875,83	1300,46
875,99	1265,64
876,16	1269,74
876,33	1243,12
876,49	1273,84
876,66	1300,46
876,83	1241,07
876,99	1204,21
877,16	1279,98
877,32	1222,64
877,49	1269,74
877,66	1234,93
877,82	1284,08
877,99	1261,55
878,15	1232,88
878,32	1261,55
878,49	1308,65
878,65	1277,93
878,82	1257,45
878,98	1261,55
879,15	1243,12
879,32	1226,73
879,48	1253,36
879,65	1196,01
879,81	1196,01
879,98	1222,64
880,15	1253,36
880,31	1249,26
880,48	1234,93
880,64	1212,40
880,81	1255,40
880,97	1355,76
881,14	1296,36
881,31	1259,50
881,47	1306,60
881,64	1267,69
881,80	1300,46
881,97	1257,45
882,13	1378,28
882,30	1300,46
882,47	1316,84
882,63	1198,06
882,80	1245,16
882,96	1271,79
883,13	1333,23
883,29	1239,02
883,46	1329,13
883,62	1275,88
883,79	1212,40
883,95	1290,22
884,12	1282,03
884,29	1224,69
884,45	1310,70
884,62	1253,36
884,78	1239,02
884,95	1245,16
885,11	1253,36
885,28	1302,51
885,44	1198,06
885,61	1277,93
885,77	1267,69
885,94	1325,04
886,10	1224,69
886,27	1243,12
886,43	1263,60
886,60	1298,41
886,76	1232,88
886,93	1263,60
887,09	1277,93
887,26	1372,14
887,42	1265,64
887,59	1189,87
887,75	1351,66
887,92	1269,74
888,08	1263,60
888,25	1286,12
888,41	1206,25
888,58	1298,41
888,74	1322,99
888,91	1318,89
>>>>>End Processed Spectral Data<<<<<
