SpectraSuite Data File
++++++++++++++++++++++++++++++++++++
Date: Sun Apr 03 17:22:04 CEST 2016
User: root
Dark Spectrum Present: No
Reference Spectrum Present: No
Number of Sampled Component Spectra: 1
Spectrometers: USB4C02835
Integration Time (usec): 10000 (USB4C02835)
Spectra Averaged: 1 (USB4C02835)
Boxcar Smoothing: 0 (USB4C02835)
Correct for Electrical Dark: No (USB4C02835)
Strobe/Lamp Enabled: No (USB4C02835)
Correct for Detector Non-linearity: No (USB4C02835)
Correct for Stray Light: No (USB4C02835)
Number of Pixels in Processed Spectrum: 3648
>>>>>Begin Processed Spectral Data<<<<<
177,47	1290,22
177,69	1290,22
177,91	1290,22
178,13	1224,69
178,36	1279,98
178,58	1257,45
178,80	1230,83
179,02	1247,21
179,24	1257,45
179,46	1185,77
179,68	1267,69
179,90	1243,12
180,13	1269,74
180,35	1234,93
180,57	1222,64
180,79	1236,97
181,01	1241,07
181,23	1292,27
181,45	1230,83
181,67	1247,21
181,90	1269,74
182,12	1273,84
182,34	1222,64
182,56	1253,36
182,78	1247,21
183,00	1257,45
183,22	1314,80
183,44	1185,77
183,66	1353,71
183,89	1265,64
184,11	1187,82
184,33	1210,35
184,55	1263,60
184,77	1230,83
184,99	1257,45
185,21	1308,65
185,43	1298,41
185,65	1312,75
185,87	1286,12
186,10	1277,93
186,32	1212,40
186,54	1204,21
186,76	1286,12
186,98	1302,51
187,20	1239,02
187,42	1275,88
187,64	1220,59
187,86	1269,74
188,08	1271,79
188,30	1251,31
188,52	1271,79
188,75	1284,08
188,97	1286,12
189,19	1275,88
189,41	1191,92
189,63	1269,74
189,85	1308,65
190,07	1165,29
190,29	1239,02
190,51	1279,98
190,73	1261,55
190,95	1265,64
191,17	1327,08
191,39	1204,21
191,61	1257,45
191,84	1241,07
192,06	1220,59
192,28	1206,25
192,50	1218,54
192,72	1282,03
192,94	1196,01
193,16	1249,26
193,38	1327,08
193,60	1329,13
193,82	1263,60
194,04	1374,19
194,26	1204,21
194,48	1316,84
194,70	1269,74
194,92	1345,52
195,14	1320,94
195,36	1216,49
195,58	1277,93
195,80	1318,89
196,02	1255,40
196,24	1294,32
196,46	1249,26
196,69	1263,60
196,91	1230,83
197,13	1322,99
197,35	1236,97
197,57	1300,46
197,79	1284,08
198,01	1212,40
198,23	1273,84
198,45	1306,60
198,67	1171,44
198,89	1294,32
199,11	1298,41
199,33	1249,26
199,55	1306,60
199,77	1261,55
199,99	1322,99
200,21	1341,42
200,43	1255,40
200,65	1306,60
200,87	1329,13
201,09	1282,03
201,31	1255,40
201,53	1290,22
201,75	1273,84
201,97	1265,64
202,19	1261,55
202,41	1230,83
202,63	1273,84
202,85	1247,21
203,07	1269,74
203,29	1267,69
203,51	1226,73
203,73	1218,54
203,95	1282,03
204,17	1251,31
204,39	1277,93
204,61	1232,88
204,83	1175,53
205,05	1200,11
205,27	1212,40
205,49	1300,46
205,71	1241,07
205,93	1216,49
206,15	1232,88
206,37	1269,74
206,59	1304,56
206,81	1398,76
207,03	1241,07
207,25	1234,93
207,47	1271,79
207,69	1312,75
207,91	1189,87
208,13	1271,79
208,34	1216,49
208,56	1263,60
208,78	1232,88
209,00	1226,73
209,22	1255,40
209,44	1253,36
209,66	1286,12
209,88	1302,51
210,10	1292,27
210,32	1267,69
210,54	1200,11
210,76	1224,69
210,98	1241,07
211,20	1337,32
211,42	1284,08
211,64	1253,36
211,86	1230,83
212,08	1220,59
212,30	1265,64
212,52	1312,75
212,74	1228,78
212,96	1277,93
213,17	1234,93
213,39	1327,08
213,61	1241,07
213,83	1267,69
214,05	1189,87
214,27	1216,49
214,49	1253,36
214,71	1251,31
214,93	1265,64
215,15	1275,88
215,37	1247,21
215,59	1261,55
215,81	1234,93
216,03	1222,64
216,24	1269,74
216,46	1273,84
216,68	1300,46
216,90	1318,89
217,12	1228,78
217,34	1314,80
217,56	1271,79
217,78	1290,22
218,00	1279,98
218,22	1314,80
218,44	1261,55
218,66	1306,60
218,87	1245,16
219,09	1249,26
219,31	1236,97
219,53	1257,45
219,75	1232,88
219,97	1269,74
220,19	1257,45
220,41	1314,80
220,63	1255,40
220,85	1257,45
221,06	1275,88
221,28	1253,36
221,50	1300,46
221,72	1288,17
221,94	1318,89
222,16	1200,11
222,38	1267,69
222,60	1255,40
222,82	1236,97
223,03	1277,93
223,25	1327,08
223,47	1273,84
223,69	1325,04
223,91	1290,22
224,13	1226,73
224,35	1263,60
224,57	1312,75
224,78	1202,16
225,00	1224,69
225,22	1302,51
225,44	1224,69
225,66	1261,55
225,88	1214,45
226,10	1275,88
226,32	1300,46
226,53	1261,55
226,75	1212,40
226,97	1243,12
227,19	1286,12
227,41	1282,03
227,63	1212,40
227,85	1267,69
228,06	1265,64
228,28	1269,74
228,50	1331,18
228,72	1253,36
228,94	1249,26
229,16	1306,60
229,37	1302,51
229,59	1269,74
229,81	1265,64
230,03	1296,36
230,25	1216,49
230,47	1282,03
230,69	1249,26
230,90	1261,55
231,12	1337,32
231,34	1296,36
231,56	1271,79
231,78	1251,31
232,00	1230,83
232,21	1218,54
232,43	1282,03
232,65	1214,45
232,87	1288,17
233,09	1271,79
233,30	1275,88
233,52	1232,88
233,74	1259,50
233,96	1183,73
234,18	1245,16
234,40	1296,36
234,61	1232,88
234,83	1247,21
235,05	1322,99
235,27	1279,98
235,49	1279,98
235,70	1255,40
235,92	1208,30
236,14	1282,03
236,36	1300,46
236,58	1243,12
236,79	1320,94
237,01	1163,25
237,23	1230,83
237,45	1284,08
237,67	1239,02
237,88	1241,07
238,10	1257,45
238,32	1333,23
238,54	1294,32
238,76	1212,40
238,97	1273,84
239,19	1222,64
239,41	1255,40
239,63	1290,22
239,85	1331,18
240,06	1322,99
240,28	1282,03
240,50	1247,21
240,72	1282,03
240,93	1282,03
241,15	1212,40
241,37	1269,74
241,59	1259,50
241,81	1277,93
242,02	1312,75
242,24	1288,17
242,46	1259,50
242,68	1251,31
242,89	1314,80
243,11	1253,36
243,33	1282,03
243,55	1234,93
243,76	1363,95
243,98	1257,45
244,20	1198,06
244,42	1257,45
244,64	1159,15
244,85	1318,89
245,07	1320,94
245,29	1253,36
245,51	1230,83
245,72	1298,41
245,94	1236,97
246,16	1286,12
246,38	1255,40
246,59	1298,41
246,81	1226,73
247,03	1263,60
247,24	1271,79
247,46	1224,69
247,68	1288,17
247,90	1284,08
248,11	1261,55
248,33	1249,26
248,55	1337,32
248,77	1241,07
248,98	1294,32
249,20	1271,79
249,42	1214,45
249,64	1286,12
249,85	1284,08
250,07	1359,85
250,29	1286,12
250,50	1189,87
250,72	1230,83
250,94	1294,32
251,16	1273,84
251,37	1228,78
251,59	1247,21
251,81	1216,49
252,02	1230,83
252,24	1302,51
252,46	1279,98
252,68	1284,08
252,89	1277,93
253,11	1282,03
253,33	1171,44
253,54	1282,03
253,76	1259,50
253,98	1239,02
254,20	1277,93
254,41	1296,36
254,63	1273,84
254,85	1267,69
255,06	1234,93
255,28	1228,78
255,50	1349,61
255,71	1234,93
255,93	1218,54
256,15	1265,64
256,36	1243,12
256,58	1202,16
256,80	1273,84
257,02	1298,41
257,23	1249,26
257,45	1224,69
257,67	1320,94
257,88	1253,36
258,10	1310,70
258,32	1206,25
258,53	1353,71
258,75	1298,41
258,97	1298,41
259,18	1302,51
259,40	1310,70
259,62	1304,56
259,83	1314,80
260,05	1241,07
260,27	1271,79
260,48	1282,03
260,70	1243,12
260,92	1269,74
261,13	1220,59
261,35	1279,98
261,57	1224,69
261,78	1196,01
262,00	1265,64
262,22	1265,64
262,43	1255,40
262,65	1249,26
262,86	1318,89
263,08	1224,69
263,30	1232,88
263,51	1345,52
263,73	1279,98
263,95	1271,79
264,16	1232,88
264,38	1206,25
264,60	1157,10
264,81	1243,12
265,03	1306,60
265,25	1302,51
265,46	1257,45
265,68	1275,88
265,89	1230,83
266,11	1261,55
266,33	1251,31
266,54	1228,78
266,76	1318,89
266,98	1312,75
267,19	1380,33
267,41	1257,45
267,62	1226,73
267,84	1273,84
268,06	1337,32
268,27	1275,88
268,49	1259,50
268,70	1277,93
268,92	1318,89
269,14	1269,74
269,35	1243,12
269,57	1298,41
269,79	1294,32
270,00	1251,31
270,22	1247,21
270,43	1304,56
270,65	1253,36
270,87	1218,54
271,08	1298,41
271,30	1312,75
271,51	1257,45
271,73	1241,07
271,95	1300,46
272,16	1329,13
272,38	1288,17
272,59	1255,40
272,81	1214,45
273,02	1267,69
273,24	1253,36
273,46	1308,65
273,67	1214,45
273,89	1308,65
274,10	1331,18
274,32	1263,60
274,54	1239,02
274,75	1241,07
274,97	1241,07
275,18	1298,41
275,40	1224,69
275,61	1286,12
275,83	1267,69
276,05	1253,36
276,26	1282,03
276,48	1228,78
276,69	1255,40
276,91	1282,03
277,12	1257,45
277,34	1224,69
277,55	1302,51
277,77	1273,84
277,99	1239,02
278,20	1275,88
278,42	1212,40
278,63	1253,36
278,85	1255,40
279,06	1243,12
279,28	1306,60
279,49	1277,93
279,71	1259,50
279,93	1275,88
280,14	1263,60
280,36	1210,35
280,57	1284,08
280,79	1376,24
281,00	1212,40
281,22	1296,36
281,43	1298,41
281,65	1284,08
281,86	1312,75
282,08	1247,21
282,29	1267,69
282,51	1282,03
282,73	1191,92
282,94	1230,83
283,16	1273,84
283,37	1277,93
283,59	1222,64
283,80	1304,56
284,02	1275,88
284,23	1314,80
284,45	1296,36
284,66	1263,60
284,88	1261,55
285,09	1296,36
285,31	1337,32
285,52	1251,31
285,74	1208,30
285,95	1234,93
286,17	1247,21
286,38	1359,85
286,60	1239,02
286,81	1286,12
287,03	1236,97
287,24	1218,54
287,46	1216,49
287,67	1239,02
287,89	1296,36
288,10	1290,22
288,32	1222,64
288,53	1282,03
288,75	1273,84
288,96	1320,94
289,18	1273,84
289,39	1202,16
289,61	1327,08
289,82	1265,64
290,04	1226,73
290,25	1275,88
290,47	1302,51
290,68	1241,07
290,90	1296,36
291,11	1282,03
291,33	1322,99
291,54	1271,79
291,76	1271,79
291,97	1355,76
292,18	1241,07
292,40	1245,16
292,61	1208,30
292,83	1290,22
293,04	1294,32
293,26	1241,07
293,47	1288,17
293,69	1279,98
293,90	1259,50
294,12	1298,41
294,33	1286,12
294,55	1284,08
294,76	1300,46
294,97	1294,32
295,19	1322,99
295,40	1224,69
295,62	1294,32
295,83	1247,21
296,05	1255,40
296,26	1298,41
296,48	1310,70
296,69	1230,83
296,90	1239,02
297,12	1255,40
297,33	1292,27
297,55	1220,59
297,76	1296,36
297,98	1284,08
298,19	1206,25
298,41	1308,65
298,62	1239,02
298,83	1253,36
299,05	1325,04
299,26	1333,23
299,48	1273,84
299,69	1249,26
299,90	1189,87
300,12	1222,64
300,33	1288,17
300,55	1249,26
300,76	1282,03
300,98	1234,93
301,19	1255,40
301,40	1279,98
301,62	1214,45
301,83	1265,64
302,05	1310,70
302,26	1222,64
302,47	1279,98
302,69	1298,41
302,90	1296,36
303,12	1234,93
303,33	1314,80
303,54	1220,59
303,76	1316,84
303,97	1304,56
304,19	1265,64
304,40	1239,02
304,61	1257,45
304,83	1282,03
305,04	1300,46
305,26	1337,32
305,47	1257,45
305,68	1257,45
305,90	1249,26
306,11	1271,79
306,33	1259,50
306,54	1243,12
306,75	1331,18
306,97	1226,73
307,18	1341,42
307,39	1310,70
307,61	1212,40
307,82	1314,80
308,04	1286,12
308,25	1255,40
308,46	1277,93
308,68	1269,74
308,89	1288,17
309,10	1239,02
309,32	1210,35
309,53	1282,03
309,74	1306,60
309,96	1290,22
310,17	1239,02
310,39	1302,51
310,60	1251,31
310,81	1269,74
311,03	1273,84
311,24	1271,79
311,45	1271,79
311,67	1298,41
311,88	1282,03
312,09	1277,93
312,31	1247,21
312,52	1257,45
312,73	1347,56
312,95	1236,97
313,16	1275,88
313,37	1234,93
313,59	1239,02
313,80	1284,08
314,01	1271,79
314,23	1251,31
314,44	1230,83
314,65	1322,99
314,87	1271,79
315,08	1292,27
315,29	1286,12
315,51	1265,64
315,72	1298,41
315,93	1267,69
316,15	1210,35
316,36	1333,23
316,57	1306,60
316,79	1249,26
317,00	1263,60
317,21	1224,69
317,43	1232,88
317,64	1267,69
317,85	1216,49
318,07	1247,21
318,28	1222,64
318,49	1265,64
318,70	1249,26
318,92	1286,12
319,13	1239,02
319,34	1241,07
319,56	1286,12
319,77	1253,36
319,98	1300,46
320,20	1349,61
320,41	1316,84
320,62	1275,88
320,83	1257,45
321,05	1337,32
321,26	1228,78
321,47	1267,69
321,69	1232,88
321,90	1224,69
322,11	1310,70
322,32	1198,06
322,54	1183,73
322,75	1292,27
322,96	1202,16
323,18	1218,54
323,39	1310,70
323,60	1241,07
323,81	1247,21
324,03	1257,45
324,24	1308,65
324,45	1263,60
324,66	1294,32
324,88	1282,03
325,09	1269,74
325,30	1277,93
325,52	1241,07
325,73	1228,78
325,94	1265,64
326,15	1255,40
326,37	1249,26
326,58	1306,60
326,79	1298,41
327,00	1294,32
327,22	1300,46
327,43	1345,52
327,64	1304,56
327,85	1255,40
328,07	1318,89
328,28	1247,21
328,49	1277,93
328,70	1234,93
328,92	1333,23
329,13	1271,79
329,34	1230,83
329,55	1236,97
329,76	1292,27
329,98	1351,66
330,19	1251,31
330,40	1245,16
330,61	1308,65
330,83	1267,69
331,04	1226,73
331,25	1273,84
331,46	1292,27
331,68	1298,41
331,89	1290,22
332,10	1232,88
332,31	1310,70
332,52	1183,73
332,74	1353,71
332,95	1204,21
333,16	1247,21
333,37	1288,17
333,58	1226,73
333,80	1286,12
334,01	1308,65
334,22	1253,36
334,43	1306,60
334,64	1247,21
334,86	1286,12
335,07	1310,70
335,28	1271,79
335,49	1191,92
335,70	1279,98
335,92	1282,03
336,13	1296,36
336,34	1273,84
336,55	1294,32
336,76	1325,04
336,98	1282,03
337,19	1241,07
337,40	1292,27
337,61	1208,30
337,82	1286,12
338,04	1286,12
338,25	1298,41
338,46	1286,12
338,67	1208,30
338,88	1273,84
339,09	1329,13
339,31	1232,88
339,52	1263,60
339,73	1265,64
339,94	1302,51
340,15	1263,60
340,36	1257,45
340,58	1292,27
340,79	1216,49
341,00	1310,70
341,21	1312,75
341,42	1275,88
341,63	1247,21
341,85	1241,07
342,06	1228,78
342,27	1218,54
342,48	1298,41
342,69	1282,03
342,90	1241,07
343,12	1298,41
343,33	1298,41
343,54	1298,41
343,75	1296,36
343,96	1243,12
344,17	1294,32
344,38	1300,46
344,60	1259,50
344,81	1286,12
345,02	1269,74
345,23	1331,18
345,44	1306,60
345,65	1239,02
345,86	1232,88
346,07	1353,71
346,29	1333,23
346,50	1279,98
346,71	1345,52
346,92	1259,50
347,13	1253,36
347,34	1302,51
347,55	1279,98
347,76	1220,59
347,98	1292,27
348,19	1210,35
348,40	1247,21
348,61	1206,25
348,82	1351,66
349,03	1216,49
349,24	1261,55
349,45	1333,23
349,66	1288,17
349,88	1241,07
350,09	1241,07
350,30	1279,98
350,51	1271,79
350,72	1249,26
350,93	1304,56
351,14	1220,59
351,35	1304,56
351,56	1302,51
351,77	1273,84
351,99	1230,83
352,20	1304,56
352,41	1306,60
352,62	1314,80
352,83	1263,60
353,04	1273,84
353,25	1255,40
353,46	1296,36
353,67	1296,36
353,88	1292,27
354,09	1300,46
354,30	1265,64
354,52	1257,45
354,73	1318,89
354,94	1224,69
355,15	1269,74
355,36	1271,79
355,57	1288,17
355,78	1300,46
355,99	1251,31
356,20	1286,12
356,41	1296,36
356,62	1249,26
356,83	1325,04
357,04	1255,40
357,25	1286,12
357,46	1251,31
357,68	1212,40
357,89	1310,70
358,10	1253,36
358,31	1261,55
358,52	1308,65
358,73	1230,83
358,94	1228,78
359,15	1236,97
359,36	1222,64
359,57	1277,93
359,78	1290,22
359,99	1300,46
360,20	1236,97
360,41	1220,59
360,62	1368,04
360,83	1318,89
361,04	1361,90
361,25	1300,46
361,46	1253,36
361,67	1232,88
361,88	1263,60
362,09	1271,79
362,30	1230,83
362,51	1220,59
362,72	1304,56
362,93	1243,12
363,14	1316,84
363,35	1304,56
363,56	1294,32
363,78	1300,46
363,99	1337,32
364,20	1300,46
364,41	1296,36
364,62	1337,32
364,83	1282,03
365,04	1298,41
365,25	1269,74
365,46	1267,69
365,67	1236,97
365,88	1306,60
366,09	1214,45
366,30	1173,49
366,51	1245,16
366,72	1241,07
366,93	1286,12
367,14	1259,50
367,35	1343,47
367,56	1255,40
367,77	1273,84
367,98	1200,11
368,18	1339,37
368,39	1181,68
368,60	1220,59
368,81	1247,21
369,02	1271,79
369,23	1296,36
369,44	1286,12
369,65	1267,69
369,86	1308,65
370,07	1239,02
370,28	1279,98
370,49	1232,88
370,70	1257,45
370,91	1218,54
371,12	1259,50
371,33	1304,56
371,54	1267,69
371,75	1286,12
371,96	1226,73
372,17	1284,08
372,38	1279,98
372,59	1261,55
372,80	1247,21
373,01	1210,35
373,22	1284,08
373,43	1249,26
373,64	1286,12
373,85	1292,27
374,06	1308,65
374,26	1335,28
374,47	1306,60
374,68	1286,12
374,89	1249,26
375,10	1296,36
375,31	1282,03
375,52	1290,22
375,73	1277,93
375,94	1341,42
376,15	1288,17
376,36	1275,88
376,57	1236,97
376,78	1179,63
376,99	1265,64
377,20	1312,75
377,40	1271,79
377,61	1243,12
377,82	1320,94
378,03	1236,97
378,24	1206,25
378,45	1284,08
378,66	1216,49
378,87	1277,93
379,08	1294,32
379,29	1183,73
379,50	1337,32
379,71	1302,51
379,91	1279,98
380,12	1249,26
380,33	1306,60
380,54	1245,16
380,75	1282,03
380,96	1308,65
381,17	1331,18
381,38	1322,99
381,59	1298,41
381,80	1322,99
382,00	1269,74
382,21	1257,45
382,42	1302,51
382,63	1271,79
382,84	1251,31
383,05	1239,02
383,26	1296,36
383,47	1363,95
383,68	1263,60
383,88	1271,79
384,09	1265,64
384,30	1277,93
384,51	1327,08
384,72	1288,17
384,93	1282,03
385,14	1253,36
385,35	1302,51
385,55	1263,60
385,76	1318,89
385,97	1236,97
386,18	1288,17
386,39	1249,26
386,60	1288,17
386,81	1241,07
387,02	1298,41
387,22	1261,55
387,43	1239,02
387,64	1245,16
387,85	1300,46
388,06	1265,64
388,27	1314,80
388,48	1290,22
388,68	1239,02
388,89	1261,55
389,10	1241,07
389,31	1277,93
389,52	1325,04
389,73	1263,60
389,93	1261,55
390,14	1265,64
390,35	1300,46
390,56	1251,31
390,77	1320,94
390,98	1284,08
391,18	1331,18
391,39	1224,69
391,60	1325,04
391,81	1263,60
392,02	1304,56
392,23	1265,64
392,43	1210,35
392,64	1302,51
392,85	1286,12
393,06	1327,08
393,27	1251,31
393,47	1333,23
393,68	1308,65
393,89	1255,40
394,10	1279,98
394,31	1232,88
394,52	1216,49
394,72	1241,07
394,93	1300,46
395,14	1257,45
395,35	1325,04
395,56	1265,64
395,76	1243,12
395,97	1228,78
396,18	1189,87
396,39	1318,89
396,60	1265,64
396,80	1298,41
397,01	1269,74
397,22	1253,36
397,43	1273,84
397,64	1284,08
397,84	1214,45
398,05	1261,55
398,26	1284,08
398,47	1300,46
398,67	1325,04
398,88	1290,22
399,09	1239,02
399,30	1261,55
399,51	1263,60
399,71	1214,45
399,92	1269,74
400,13	1329,13
400,34	1208,30
400,54	1306,60
400,75	1318,89
400,96	1216,49
401,17	1232,88
401,37	1232,88
401,58	1366,00
401,79	1329,13
402,00	1243,12
402,21	1296,36
402,41	1288,17
402,62	1241,07
402,83	1269,74
403,04	1232,88
403,24	1265,64
403,45	1269,74
403,66	1279,98
403,87	1269,74
404,07	1267,69
404,28	1241,07
404,49	1363,95
404,70	1257,45
404,90	1255,40
405,11	1183,73
405,32	1292,27
405,52	1230,83
405,73	1212,40
405,94	1255,40
406,15	1322,99
406,35	1261,55
406,56	1269,74
406,77	1247,21
406,98	1286,12
407,18	1259,50
407,39	1312,75
407,60	1296,36
407,80	1267,69
408,01	1290,22
408,22	1290,22
408,43	1220,59
408,63	1230,83
408,84	1345,52
409,05	1284,08
409,25	1255,40
409,46	1290,22
409,67	1224,69
409,88	1267,69
410,08	1255,40
410,29	1337,32
410,50	1322,99
410,70	1296,36
410,91	1273,84
411,12	1288,17
411,32	1273,84
411,53	1329,13
411,74	1300,46
411,95	1302,51
412,15	1191,92
412,36	1273,84
412,57	1263,60
412,77	1292,27
412,98	1239,02
413,19	1232,88
413,39	1329,13
413,60	1286,12
413,81	1314,80
414,01	1247,21
414,22	1314,80
414,43	1232,88
414,63	1216,49
414,84	1286,12
415,05	1247,21
415,25	1304,56
415,46	1304,56
415,67	1208,30
415,87	1212,40
416,08	1355,76
416,29	1302,51
416,49	1236,97
416,70	1316,84
416,91	1271,79
417,11	1245,16
417,32	1255,40
417,53	1261,55
417,73	1294,32
417,94	1261,55
418,15	1224,69
418,35	1265,64
418,56	1236,97
418,77	1257,45
418,97	1294,32
419,18	1239,02
419,38	1292,27
419,59	1277,93
419,80	1277,93
420,00	1206,25
420,21	1312,75
420,42	1239,02
420,62	1292,27
420,83	1210,35
421,04	1257,45
421,24	1245,16
421,45	1263,60
421,65	1271,79
421,86	1191,92
422,07	1290,22
422,27	1263,60
422,48	1316,84
422,69	1239,02
422,89	1202,16
423,10	1318,89
423,30	1236,97
423,51	1331,18
423,72	1304,56
423,92	1243,12
424,13	1318,89
424,33	1259,50
424,54	1261,55
424,75	1302,51
424,95	1200,11
425,16	1234,93
425,36	1277,93
425,57	1312,75
425,78	1286,12
425,98	1247,21
426,19	1265,64
426,39	1286,12
426,60	1288,17
426,81	1241,07
427,01	1257,45
427,22	1257,45
427,42	1361,90
427,63	1300,46
427,83	1314,80
428,04	1277,93
428,25	1347,56
428,45	1245,16
428,66	1236,97
428,86	1310,70
429,07	1239,02
429,28	1282,03
429,48	1296,36
429,69	1271,79
429,89	1241,07
430,10	1222,64
430,30	1257,45
430,51	1284,08
430,71	1253,36
430,92	1298,41
431,13	1243,12
431,33	1282,03
431,54	1351,66
431,74	1249,26
431,95	1331,18
432,15	1312,75
432,36	1189,87
432,56	1304,56
432,77	1247,21
432,98	1267,69
433,18	1265,64
433,39	1298,41
433,59	1308,65
433,80	1216,49
434,00	1277,93
434,21	1222,64
434,41	1216,49
434,62	1273,84
434,82	1308,65
435,03	1251,31
435,23	1273,84
435,44	1255,40
435,64	1277,93
435,85	1259,50
436,06	1218,54
436,26	1284,08
436,47	1288,17
436,67	1241,07
436,88	1218,54
437,08	1261,55
437,29	1261,55
437,49	1298,41
437,70	1265,64
437,90	1257,45
438,11	1286,12
438,31	1269,74
438,52	1286,12
438,72	1320,94
438,93	1292,27
439,13	1220,59
439,34	1294,32
439,54	1271,79
439,75	1306,60
439,95	1279,98
440,16	1277,93
440,36	1357,80
440,57	1249,26
440,77	1228,78
440,98	1318,89
441,18	1273,84
441,39	1267,69
441,59	1257,45
441,80	1294,32
442,00	1222,64
442,21	1271,79
442,41	1218,54
442,62	1259,50
442,82	1269,74
443,02	1259,50
443,23	1273,84
443,43	1181,68
443,64	1255,40
443,84	1351,66
444,05	1366,00
444,25	1206,25
444,46	1306,60
444,66	1265,64
444,87	1308,65
445,07	1265,64
445,28	1355,76
445,48	1277,93
445,69	1259,50
445,89	1200,11
446,09	1310,70
446,30	1259,50
446,50	1329,13
446,71	1269,74
446,91	1259,50
447,12	1255,40
447,32	1259,50
447,53	1314,80
447,73	1214,45
447,93	1288,17
448,14	1304,56
448,34	1288,17
448,55	1298,41
448,75	1241,07
448,96	1275,88
449,16	1245,16
449,36	1265,64
449,57	1304,56
449,77	1322,99
449,98	1271,79
450,18	1294,32
450,39	1282,03
450,59	1236,97
450,79	1257,45
451,00	1322,99
451,20	1275,88
451,41	1271,79
451,61	1257,45
451,81	1216,49
452,02	1224,69
452,22	1265,64
452,43	1245,16
452,63	1224,69
452,84	1296,36
453,04	1200,11
453,24	1220,59
453,45	1308,65
453,65	1191,92
453,86	1273,84
454,06	1234,93
454,26	1302,51
454,47	1279,98
454,67	1259,50
454,87	1294,32
455,08	1294,32
455,28	1253,36
455,49	1249,26
455,69	1300,46
455,89	1279,98
456,10	1232,88
456,30	1208,30
456,51	1318,89
456,71	1341,42
456,91	1239,02
457,12	1304,56
457,32	1200,11
457,52	1314,80
457,73	1312,75
457,93	1232,88
458,14	1275,88
458,34	1269,74
458,54	1292,27
458,75	1370,09
458,95	1259,50
459,15	1220,59
459,36	1253,36
459,56	1288,17
459,76	1228,78
459,97	1339,37
460,17	1279,98
460,37	1230,83
460,58	1191,92
460,78	1208,30
460,99	1312,75
461,19	1234,93
461,39	1228,78
461,60	1241,07
461,80	1263,60
462,00	1259,50
462,21	1239,02
462,41	1255,40
462,61	1257,45
462,82	1314,80
463,02	1345,52
463,22	1265,64
463,43	1265,64
463,63	1243,12
463,83	1253,36
464,04	1349,61
464,24	1335,28
464,44	1269,74
464,64	1179,63
464,85	1286,12
465,05	1273,84
465,25	1306,60
465,46	1300,46
465,66	1261,55
465,86	1204,21
466,07	1286,12
466,27	1314,80
466,47	1226,73
466,68	1310,70
466,88	1306,60
467,08	1255,40
467,29	1239,02
467,49	1290,22
467,69	1282,03
467,89	1261,55
468,10	1249,26
468,30	1310,70
468,50	1263,60
468,71	1253,36
468,91	1261,55
469,11	1310,70
469,31	1304,56
469,52	1255,40
469,72	1302,51
469,92	1277,93
470,13	1294,32
470,33	1232,88
470,53	1292,27
470,73	1318,89
470,94	1275,88
471,14	1222,64
471,34	1243,12
471,54	1271,79
471,75	1224,69
471,95	1261,55
472,15	1255,40
472,36	1263,60
472,56	1228,78
472,76	1259,50
472,96	1327,08
473,17	1277,93
473,37	1253,36
473,57	1277,93
473,77	1277,93
473,98	1243,12
474,18	1179,63
474,38	1241,07
474,58	1290,22
474,79	1322,99
474,99	1314,80
475,19	1226,73
475,39	1204,21
475,60	1286,12
475,80	1228,78
476,00	1259,50
476,20	1271,79
476,41	1226,73
476,61	1251,31
476,81	1271,79
477,01	1230,83
477,21	1271,79
477,42	1329,13
477,62	1351,66
477,82	1306,60
478,02	1247,21
478,23	1269,74
478,43	1230,83
478,63	1216,49
478,83	1279,98
479,03	1314,80
479,24	1318,89
479,44	1253,36
479,64	1294,32
479,84	1271,79
480,04	1216,49
480,25	1247,21
480,45	1316,84
480,65	1282,03
480,85	1277,93
481,06	1347,56
481,26	1349,61
481,46	1318,89
481,66	1290,22
481,86	1282,03
482,06	1232,88
482,27	1239,02
482,47	1273,84
482,67	1279,98
482,87	1263,60
483,07	1249,26
483,28	1306,60
483,48	1265,64
483,68	1249,26
483,88	1259,50
484,08	1239,02
484,29	1255,40
484,49	1269,74
484,69	1271,79
484,89	1331,18
485,09	1331,18
485,29	1265,64
485,50	1249,26
485,70	1304,56
485,90	1259,50
486,10	1339,37
486,30	1261,55
486,50	1316,84
486,71	1288,17
486,91	1265,64
487,11	1349,61
487,31	1308,65
487,51	1261,55
487,71	1279,98
487,91	1241,07
488,12	1322,99
488,32	1245,16
488,52	1247,21
488,72	1255,40
488,92	1265,64
489,12	1308,65
489,32	1234,93
489,53	1345,52
489,73	1253,36
489,93	1224,69
490,13	1290,22
490,33	1236,97
490,53	1286,12
490,73	1265,64
490,94	1310,70
491,14	1322,99
491,34	1298,41
491,54	1222,64
491,74	1282,03
491,94	1243,12
492,14	1200,11
492,34	1314,80
492,54	1243,12
492,75	1327,08
492,95	1325,04
493,15	1290,22
493,35	1327,08
493,55	1306,60
493,75	1236,97
493,95	1226,73
494,15	1249,26
494,35	1267,69
494,56	1277,93
494,76	1353,71
494,96	1314,80
495,16	1259,50
495,36	1275,88
495,56	1288,17
495,76	1218,54
495,96	1286,12
496,16	1271,79
496,36	1216,49
496,56	1183,73
496,77	1335,28
496,97	1212,40
497,17	1214,45
497,37	1277,93
497,57	1267,69
497,77	1236,97
497,97	1322,99
498,17	1284,08
498,37	1298,41
498,57	1308,65
498,77	1245,16
498,97	1314,80
499,17	1318,89
499,38	1302,51
499,58	1284,08
499,78	1261,55
499,98	1290,22
500,18	1282,03
500,38	1273,84
500,58	1228,78
500,78	1304,56
500,98	1257,45
501,18	1257,45
501,38	1300,46
501,58	1269,74
501,78	1325,04
501,98	1302,51
502,18	1308,65
502,38	1269,74
502,58	1234,93
502,78	1259,50
502,98	1284,08
503,18	1314,80
503,38	1249,26
503,59	1312,75
503,79	1269,74
503,99	1269,74
504,19	1259,50
504,39	1306,60
504,59	1216,49
504,79	1275,88
504,99	1245,16
505,19	1249,26
505,39	1236,97
505,59	1196,01
505,79	1300,46
505,99	1214,45
506,19	1265,64
506,39	1206,25
506,59	1304,56
506,79	1282,03
506,99	1318,89
507,19	1249,26
507,39	1228,78
507,59	1265,64
507,79	1265,64
507,99	1273,84
508,19	1273,84
508,39	1269,74
508,59	1251,31
508,79	1253,36
508,99	1306,60
509,19	1226,73
509,39	1236,97
509,59	1339,37
509,79	1288,17
509,99	1308,65
510,19	1310,70
510,39	1282,03
510,59	1271,79
510,79	1265,64
510,99	1193,97
511,19	1378,28
511,39	1261,55
511,59	1298,41
511,79	1247,21
511,99	1288,17
512,19	1263,60
512,38	1292,27
512,58	1241,07
512,78	1277,93
512,98	1294,32
513,18	1247,21
513,38	1243,12
513,58	1269,74
513,78	1247,21
513,98	1245,16
514,18	1257,45
514,38	1265,64
514,58	1294,32
514,78	1290,22
514,98	1269,74
515,18	1251,31
515,38	1279,98
515,58	1277,93
515,78	1263,60
515,98	1218,54
516,18	1222,64
516,38	1310,70
516,57	1265,64
516,77	1355,76
516,97	1196,01
517,17	1294,32
517,37	1271,79
517,57	1306,60
517,77	1359,85
517,97	1253,36
518,17	1185,77
518,37	1353,71
518,57	1230,83
518,77	1241,07
518,97	1269,74
519,16	1261,55
519,36	1286,12
519,56	1239,02
519,76	1202,16
519,96	1273,84
520,16	1286,12
520,36	1261,55
520,56	1288,17
520,76	1296,36
520,96	1279,98
521,16	1302,51
521,35	1255,40
521,55	1294,32
521,75	1306,60
521,95	1318,89
522,15	1298,41
522,35	1279,98
522,55	1277,93
522,75	1282,03
522,95	1257,45
523,14	1228,78
523,34	1273,84
523,54	1279,98
523,74	1275,88
523,94	1259,50
524,14	1208,30
524,34	1265,64
524,54	1191,92
524,73	1249,26
524,93	1241,07
525,13	1288,17
525,33	1228,78
525,53	1236,97
525,73	1265,64
525,93	1286,12
526,13	1333,23
526,32	1216,49
526,52	1300,46
526,72	1329,13
526,92	1290,22
527,12	1318,89
527,32	1263,60
527,52	1273,84
527,71	1320,94
527,91	1234,93
528,11	1198,06
528,31	1234,93
528,51	1130,48
528,71	1312,75
528,90	1331,18
529,10	1253,36
529,30	1247,21
529,50	1249,26
529,70	1267,69
529,90	1286,12
530,09	1320,94
530,29	1216,49
530,49	1320,94
530,69	1312,75
530,89	1241,07
531,09	1343,47
531,28	1251,31
531,48	1251,31
531,68	1294,32
531,88	1269,74
532,08	1282,03
532,28	1241,07
532,47	1255,40
532,67	1212,40
532,87	1257,45
533,07	1200,11
533,27	1249,26
533,46	1265,64
533,66	1279,98
533,86	1214,45
534,06	1279,98
534,26	1245,16
534,45	1245,16
534,65	1247,21
534,85	1228,78
535,05	1284,08
535,25	1243,12
535,44	1236,97
535,64	1257,45
535,84	1325,04
536,04	1347,56
536,24	1304,56
536,43	1267,69
536,63	1253,36
536,83	1273,84
537,03	1302,51
537,22	1214,45
537,42	1263,60
537,62	1290,22
537,82	1247,21
538,02	1263,60
538,21	1206,25
538,41	1247,21
538,61	1198,06
538,81	1191,92
539,00	1273,84
539,20	1245,16
539,40	1167,34
539,60	1257,45
539,79	1257,45
539,99	1251,31
540,19	1249,26
540,39	1351,66
540,58	1249,26
540,78	1257,45
540,98	1308,65
541,18	1247,21
541,37	1296,36
541,57	1218,54
541,77	1267,69
541,97	1226,73
542,16	1314,80
542,36	1277,93
542,56	1259,50
542,76	1232,88
542,95	1282,03
543,15	1255,40
543,35	1273,84
543,54	1308,65
543,74	1259,50
543,94	1243,12
544,14	1236,97
544,33	1298,41
544,53	1243,12
544,73	1202,16
544,93	1306,60
545,12	1265,64
545,32	1298,41
545,52	1302,51
545,71	1232,88
545,91	1294,32
546,11	1337,32
546,30	1318,89
546,50	1241,07
546,70	1296,36
546,90	1386,47
547,09	1212,40
547,29	1236,97
547,49	1302,51
547,68	1198,06
547,88	1296,36
548,08	1253,36
548,27	1325,04
548,47	1261,55
548,67	1243,12
548,87	1290,22
549,06	1308,65
549,26	1292,27
549,46	1298,41
549,65	1282,03
549,85	1261,55
550,05	1314,80
550,24	1271,79
550,44	1269,74
550,64	1210,35
550,83	1247,21
551,03	1312,75
551,23	1308,65
551,42	1245,16
551,62	1257,45
551,82	1271,79
552,01	1273,84
552,21	1228,78
552,41	1220,59
552,60	1263,60
552,80	1284,08
553,00	1241,07
553,19	1249,26
553,39	1214,45
553,59	1302,51
553,78	1216,49
553,98	1359,85
554,17	1349,61
554,37	1306,60
554,57	1349,61
554,76	1339,37
554,96	1216,49
555,16	1265,64
555,35	1282,03
555,55	1251,31
555,75	1249,26
555,94	1335,28
556,14	1230,83
556,33	1290,22
556,53	1267,69
556,73	1183,73
556,92	1286,12
557,12	1322,99
557,32	1245,16
557,51	1282,03
557,71	1275,88
557,90	1245,16
558,10	1257,45
558,30	1255,40
558,49	1212,40
558,69	1232,88
558,88	1341,42
559,08	1232,88
559,28	1361,90
559,47	1222,64
559,67	1253,36
559,86	1257,45
560,06	1228,78
560,26	1265,64
560,45	1257,45
560,65	1228,78
560,84	1263,60
561,04	1247,21
561,24	1329,13
561,43	1292,27
561,63	1277,93
561,82	1302,51
562,02	1286,12
562,22	1294,32
562,41	1150,96
562,61	1228,78
562,80	1284,08
563,00	1370,09
563,19	1290,22
563,39	1243,12
563,59	1331,18
563,78	1247,21
563,98	1247,21
564,17	1273,84
564,37	1275,88
564,56	1271,79
564,76	1183,73
564,96	1277,93
565,15	1263,60
565,35	1368,04
565,54	1265,64
565,74	1245,16
565,93	1279,98
566,13	1314,80
566,32	1271,79
566,52	1325,04
566,71	1325,04
566,91	1349,61
567,11	1284,08
567,30	1298,41
567,50	1222,64
567,69	1228,78
567,89	1282,03
568,08	1277,93
568,28	1288,17
568,47	1320,94
568,67	1249,26
568,86	1265,64
569,06	1294,32
569,25	1271,79
569,45	1255,40
569,64	1306,60
569,84	1302,51
570,04	1304,56
570,23	1339,37
570,43	1277,93
570,62	1282,03
570,82	1257,45
571,01	1298,41
571,21	1273,84
571,40	1253,36
571,60	1312,75
571,79	1294,32
571,99	1298,41
572,18	1306,60
572,38	1269,74
572,57	1275,88
572,77	1257,45
572,96	1271,79
573,16	1343,47
573,35	1312,75
573,55	1304,56
573,74	1224,69
573,94	1239,02
574,13	1257,45
574,33	1353,71
574,52	1310,70
574,71	1302,51
574,91	1277,93
575,10	1304,56
575,30	1273,84
575,49	1279,98
575,69	1263,60
575,88	1294,32
576,08	1255,40
576,27	1290,22
576,47	1226,73
576,66	1259,50
576,86	1212,40
577,05	1226,73
577,25	1224,69
577,44	1353,71
577,64	1282,03
577,83	1236,97
578,02	1247,21
578,22	1269,74
578,41	1218,54
578,61	1310,70
578,80	1239,02
579,00	1320,94
579,19	1300,46
579,39	1288,17
579,58	1228,78
579,77	1279,98
579,97	1257,45
580,16	1282,03
580,36	1279,98
580,55	1232,88
580,75	1298,41
580,94	1306,60
581,13	1284,08
581,33	1232,88
581,52	1251,31
581,72	1257,45
581,91	1273,84
582,11	1265,64
582,30	1269,74
582,49	1239,02
582,69	1167,34
582,88	1222,64
583,08	1247,21
583,27	1282,03
583,47	1271,79
583,66	1253,36
583,85	1243,12
584,05	1224,69
584,24	1277,93
584,44	1308,65
584,63	1286,12
584,82	1316,84
585,02	1247,21
585,21	1228,78
585,41	1257,45
585,60	1208,30
585,79	1255,40
585,99	1355,76
586,18	1255,40
586,37	1308,65
586,57	1196,01
586,76	1224,69
586,96	1290,22
587,15	1271,79
587,34	1261,55
587,54	1196,01
587,73	1296,36
587,93	1382,38
588,12	1271,79
588,31	1220,59
588,51	1290,22
588,70	1224,69
588,89	1206,25
589,09	1325,04
589,28	1298,41
589,47	1282,03
589,67	1251,31
589,86	1239,02
590,06	1148,91
590,25	1292,27
590,44	1290,22
590,64	1269,74
590,83	1236,97
591,02	1208,30
591,22	1267,69
591,41	1279,98
591,60	1273,84
591,80	1247,21
591,99	1224,69
592,18	1265,64
592,38	1290,22
592,57	1263,60
592,76	1265,64
592,96	1232,88
593,15	1236,97
593,34	1282,03
593,54	1335,28
593,73	1312,75
593,92	1224,69
594,12	1269,74
594,31	1232,88
594,50	1269,74
594,70	1302,51
594,89	1220,59
595,08	1230,83
595,28	1351,66
595,47	1290,22
595,66	1267,69
595,86	1265,64
596,05	1261,55
596,24	1302,51
596,43	1257,45
596,63	1282,03
596,82	1267,69
597,01	1253,36
597,21	1372,14
597,40	1245,16
597,59	1253,36
597,79	1284,08
597,98	1296,36
598,17	1267,69
598,36	1232,88
598,56	1308,65
598,75	1267,69
598,94	1284,08
599,14	1267,69
599,33	1212,40
599,52	1263,60
599,71	1267,69
599,91	1241,07
600,10	1261,55
600,29	1308,65
600,48	1271,79
600,68	1308,65
600,87	1284,08
601,06	1265,64
601,26	1245,16
601,45	1298,41
601,64	1310,70
601,83	1288,17
602,03	1265,64
602,22	1153,01
602,41	1284,08
602,60	1310,70
602,80	1320,94
602,99	1335,28
603,18	1302,51
603,37	1277,93
603,57	1261,55
603,76	1200,11
603,95	1298,41
604,14	1247,21
604,34	1257,45
604,53	1265,64
604,72	1318,89
604,91	1349,61
605,10	1265,64
605,30	1251,31
605,49	1243,12
605,68	1216,49
605,87	1302,51
606,07	1232,88
606,26	1271,79
606,45	1249,26
606,64	1269,74
606,84	1312,75
607,03	1286,12
607,22	1267,69
607,41	1236,97
607,60	1259,50
607,80	1288,17
607,99	1255,40
608,18	1193,97
608,37	1279,98
608,56	1259,50
608,76	1193,97
608,95	1265,64
609,14	1245,16
609,33	1292,27
609,52	1327,08
609,72	1241,07
609,91	1253,36
610,10	1220,59
610,29	1271,79
610,48	1271,79
610,68	1255,40
610,87	1251,31
611,06	1327,08
611,25	1279,98
611,44	1200,11
611,63	1230,83
611,83	1206,25
612,02	1191,92
612,21	1241,07
612,40	1273,84
612,59	1251,31
612,79	1173,49
612,98	1298,41
613,17	1286,12
613,36	1275,88
613,55	1345,52
613,74	1325,04
613,93	1310,70
614,13	1255,40
614,32	1290,22
614,51	1294,32
614,70	1232,88
614,89	1312,75
615,08	1279,98
615,28	1269,74
615,47	1296,36
615,66	1296,36
615,85	1290,22
616,04	1308,65
616,23	1298,41
616,42	1339,37
616,62	1249,26
616,81	1298,41
617,00	1183,73
617,19	1273,84
617,38	1286,12
617,57	1292,27
617,76	1302,51
617,95	1232,88
618,15	1335,28
618,34	1284,08
618,53	1279,98
618,72	1296,36
618,91	1331,18
619,10	1282,03
619,29	1284,08
619,48	1245,16
619,68	1277,93
619,87	1298,41
620,06	1261,55
620,25	1249,26
620,44	1241,07
620,63	1187,82
620,82	1267,69
621,01	1288,17
621,20	1312,75
621,39	1337,32
621,59	1282,03
621,78	1265,64
621,97	1210,35
622,16	1308,65
622,35	1331,18
622,54	1337,32
622,73	1282,03
622,92	1279,98
623,11	1218,54
623,30	1306,60
623,49	1234,93
623,68	1318,89
623,88	1333,23
624,07	1273,84
624,26	1251,31
624,45	1234,93
624,64	1257,45
624,83	1249,26
625,02	1288,17
625,21	1208,30
625,40	1374,19
625,59	1294,32
625,78	1243,12
625,97	1279,98
626,16	1222,64
626,35	1257,45
626,54	1322,99
626,74	1308,65
626,93	1259,50
627,12	1304,56
627,31	1241,07
627,50	1300,46
627,69	1265,64
627,88	1226,73
628,07	1335,28
628,26	1304,56
628,45	1265,64
628,64	1249,26
628,83	1296,36
629,02	1200,11
629,21	1257,45
629,40	1279,98
629,59	1322,99
629,78	1296,36
629,97	1304,56
630,16	1257,45
630,35	1316,84
630,54	1292,27
630,73	1284,08
630,92	1322,99
631,11	1306,60
631,30	1292,27
631,49	1322,99
631,68	1351,66
631,87	1406,95
632,06	1619,94
632,25	1419,24
632,44	1404,91
632,63	1550,31
632,82	1800,16
633,01	2129,89
633,20	2107,36
633,39	2256,86
633,58	2021,35
633,77	1994,72
633,96	1988,58
634,15	2199,52
634,34	2404,32
634,53	2174,94
634,72	1888,23
634,91	1730,53
635,10	1662,95
635,29	1609,70
635,48	1484,78
635,67	1441,77
635,86	1445,87
636,05	1351,66
636,24	1439,72
636,43	1312,75
636,62	1333,23
636,81	1335,28
637,00	1402,86
637,19	1316,84
637,38	1282,03
637,57	1224,69
637,76	1306,60
637,95	1245,16
638,14	1282,03
638,33	1239,02
638,52	1304,56
638,71	1288,17
638,89	1302,51
639,08	1308,65
639,27	1220,59
639,46	1290,22
639,65	1322,99
639,84	1236,97
640,03	1224,69
640,22	1193,97
640,41	1345,52
640,60	1269,74
640,79	1239,02
640,98	1273,84
641,17	1269,74
641,36	1241,07
641,55	1236,97
641,74	1243,12
641,92	1261,55
642,11	1275,88
642,30	1181,68
642,49	1234,93
642,68	1269,74
642,87	1263,60
643,06	1282,03
643,25	1300,46
643,44	1300,46
643,63	1247,21
643,82	1310,70
644,00	1290,22
644,19	1279,98
644,38	1308,65
644,57	1298,41
644,76	1320,94
644,95	1267,69
645,14	1322,99
645,33	1304,56
645,52	1265,64
645,71	1247,21
645,89	1279,98
646,08	1318,89
646,27	1212,40
646,46	1251,31
646,65	1208,30
646,84	1232,88
647,03	1189,87
647,22	1308,65
647,40	1261,55
647,59	1167,34
647,78	1312,75
647,97	1226,73
648,16	1292,27
648,35	1275,88
648,54	1277,93
648,73	1261,55
648,91	1279,98
649,10	1232,88
649,29	1363,95
649,48	1249,26
649,67	1308,65
649,86	1286,12
650,05	1345,52
650,23	1249,26
650,42	1284,08
650,61	1265,64
650,80	1263,60
650,99	1263,60
651,18	1228,78
651,36	1212,40
651,55	1282,03
651,74	1288,17
651,93	1243,12
652,12	1265,64
652,31	1279,98
652,49	1286,12
652,68	1322,99
652,87	1290,22
653,06	1255,40
653,25	1267,69
653,44	1208,30
653,62	1255,40
653,81	1179,63
654,00	1298,41
654,19	1253,36
654,38	1298,41
654,56	1216,49
654,75	1312,75
654,94	1286,12
655,13	1247,21
655,32	1204,21
655,51	1214,45
655,69	1222,64
655,88	1226,73
656,07	1273,84
656,26	1249,26
656,45	1228,78
656,63	1306,60
656,82	1288,17
657,01	1277,93
657,20	1218,54
657,38	1304,56
657,57	1208,30
657,76	1239,02
657,95	1261,55
658,14	1277,93
658,32	1243,12
658,51	1302,51
658,70	1220,59
658,89	1296,36
659,08	1296,36
659,26	1294,32
659,45	1273,84
659,64	1267,69
659,83	1243,12
660,01	1286,12
660,20	1165,29
660,39	1298,41
660,58	1294,32
660,76	1277,93
660,95	1265,64
661,14	1335,28
661,33	1200,11
661,51	1306,60
661,70	1353,71
661,89	1271,79
662,08	1228,78
662,26	1243,12
662,45	1257,45
662,64	1310,70
662,83	1263,60
663,01	1271,79
663,20	1253,36
663,39	1320,94
663,58	1228,78
663,76	1296,36
663,95	1220,59
664,14	1247,21
664,32	1259,50
664,51	1261,55
664,70	1226,73
664,89	1251,31
665,07	1216,49
665,26	1236,97
665,45	1335,28
665,64	1345,52
665,82	1345,52
666,01	1314,80
666,20	1191,92
666,38	1236,97
666,57	1286,12
666,76	1282,03
666,95	1241,07
667,13	1312,75
667,32	1214,45
667,51	1322,99
667,69	1341,42
667,88	1220,59
668,07	1310,70
668,25	1277,93
668,44	1230,83
668,63	1306,60
668,81	1284,08
669,00	1220,59
669,19	1308,65
669,38	1245,16
669,56	1216,49
669,75	1230,83
669,94	1286,12
670,12	1216,49
670,31	1243,12
670,50	1232,88
670,68	1255,40
670,87	1279,98
671,06	1253,36
671,24	1259,50
671,43	1390,57
671,62	1294,32
671,80	1249,26
671,99	1296,36
672,18	1263,60
672,36	1275,88
672,55	1169,39
672,74	1343,47
672,92	1251,31
673,11	1308,65
673,29	1253,36
673,48	1284,08
673,67	1167,34
673,85	1269,74
674,04	1329,13
674,23	1275,88
674,41	1255,40
674,60	1247,21
674,79	1271,79
674,97	1314,80
675,16	1306,60
675,34	1290,22
675,53	1310,70
675,72	1279,98
675,90	1269,74
676,09	1279,98
676,28	1302,51
676,46	1312,75
676,65	1263,60
676,83	1196,01
677,02	1294,32
677,21	1320,94
677,39	1193,97
677,58	1206,25
677,77	1286,12
677,95	1292,27
678,14	1282,03
678,32	1257,45
678,51	1265,64
678,70	1259,50
678,88	1253,36
679,07	1331,18
679,25	1279,98
679,44	1239,02
679,63	1286,12
679,81	1247,21
680,00	1206,25
680,18	1298,41
680,37	1212,40
680,55	1236,97
680,74	1255,40
680,93	1222,64
681,11	1253,36
681,30	1202,16
681,48	1288,17
681,67	1273,84
681,85	1273,84
682,04	1331,18
682,23	1218,54
682,41	1247,21
682,60	1253,36
682,78	1275,88
682,97	1298,41
683,15	1290,22
683,34	1216,49
683,53	1284,08
683,71	1282,03
683,90	1314,80
684,08	1220,59
684,27	1247,21
684,45	1302,51
684,64	1271,79
684,82	1302,51
685,01	1298,41
685,19	1247,21
685,38	1308,65
685,57	1265,64
685,75	1310,70
685,94	1265,64
686,12	1249,26
686,31	1228,78
686,49	1353,71
686,68	1232,88
686,86	1265,64
687,05	1296,36
687,23	1269,74
687,42	1234,93
687,60	1294,32
687,79	1193,97
687,97	1310,70
688,16	1234,93
688,34	1286,12
688,53	1261,55
688,71	1234,93
688,90	1216,49
689,08	1236,97
689,27	1320,94
689,45	1300,46
689,64	1322,99
689,82	1290,22
690,01	1296,36
690,19	1245,16
690,38	1306,60
690,56	1286,12
690,75	1228,78
690,93	1284,08
691,12	1298,41
691,30	1337,32
691,49	1292,27
691,67	1267,69
691,86	1189,87
692,04	1261,55
692,23	1335,28
692,41	1216,49
692,60	1316,84
692,78	1271,79
692,97	1290,22
693,15	1245,16
693,34	1257,45
693,52	1228,78
693,71	1247,21
693,89	1296,36
694,08	1222,64
694,26	1341,42
694,44	1269,74
694,63	1196,01
694,81	1239,02
695,00	1290,22
695,18	1275,88
695,37	1292,27
695,55	1339,37
695,74	1351,66
695,92	1275,88
696,10	1277,93
696,29	1310,70
696,47	1296,36
696,66	1286,12
696,84	1337,32
697,03	1275,88
697,21	1286,12
697,40	1271,79
697,58	1282,03
697,76	1247,21
697,95	1259,50
698,13	1249,26
698,32	1265,64
698,50	1216,49
698,68	1214,45
698,87	1204,21
699,05	1271,79
699,24	1314,80
699,42	1314,80
699,61	1277,93
699,79	1183,73
699,97	1259,50
700,16	1216,49
700,34	1232,88
700,53	1261,55
700,71	1325,04
700,89	1288,17
701,08	1175,53
701,26	1224,69
701,45	1310,70
701,63	1366,00
701,81	1228,78
702,00	1273,84
702,18	1245,16
702,37	1191,92
702,55	1269,74
702,73	1312,75
702,92	1290,22
703,10	1314,80
703,28	1312,75
703,47	1273,84
703,65	1304,56
703,84	1282,03
704,02	1351,66
704,20	1273,84
704,39	1341,42
704,57	1286,12
704,75	1232,88
704,94	1310,70
705,12	1206,25
705,30	1249,26
705,49	1308,65
705,67	1259,50
705,86	1273,84
706,04	1306,60
706,22	1220,59
706,41	1277,93
706,59	1245,16
706,77	1212,40
706,96	1290,22
707,14	1304,56
707,32	1357,80
707,51	1249,26
707,69	1228,78
707,87	1243,12
708,06	1269,74
708,24	1269,74
708,42	1300,46
708,61	1277,93
708,79	1312,75
708,97	1265,64
709,16	1253,36
709,34	1241,07
709,52	1247,21
709,71	1269,74
709,89	1265,64
710,07	1290,22
710,26	1310,70
710,44	1265,64
710,62	1273,84
710,80	1275,88
710,99	1296,36
711,17	1212,40
711,35	1263,60
711,54	1286,12
711,72	1322,99
711,90	1273,84
712,09	1302,51
712,27	1265,64
712,45	1269,74
712,63	1292,27
712,82	1253,36
713,00	1232,88
713,18	1222,64
713,37	1298,41
713,55	1265,64
713,73	1259,50
713,91	1271,79
714,10	1220,59
714,28	1284,08
714,46	1220,59
714,65	1271,79
714,83	1294,32
715,01	1245,16
715,19	1277,93
715,38	1185,77
715,56	1341,42
715,74	1327,08
715,92	1345,52
716,11	1304,56
716,29	1273,84
716,47	1241,07
716,65	1314,80
716,84	1294,32
717,02	1265,64
717,20	1232,88
717,38	1232,88
717,57	1288,17
717,75	1290,22
717,93	1257,45
718,11	1263,60
718,30	1163,25
718,48	1265,64
718,66	1331,18
718,84	1257,45
719,03	1241,07
719,21	1275,88
719,39	1316,84
719,57	1243,12
719,75	1234,93
719,94	1300,46
720,12	1249,26
720,30	1271,79
720,48	1177,58
720,67	1320,94
720,85	1310,70
721,03	1286,12
721,21	1279,98
721,39	1267,69
721,58	1279,98
721,76	1310,70
721,94	1230,83
722,12	1304,56
722,30	1234,93
722,49	1345,52
722,67	1298,41
722,85	1290,22
723,03	1269,74
723,21	1265,64
723,40	1214,45
723,58	1312,75
723,76	1275,88
723,94	1343,47
724,12	1273,84
724,30	1220,59
724,49	1310,70
724,67	1165,29
724,85	1255,40
725,03	1302,51
725,21	1241,07
725,40	1232,88
725,58	1304,56
725,76	1257,45
725,94	1257,45
726,12	1255,40
726,30	1302,51
726,49	1206,25
726,67	1298,41
726,85	1226,73
727,03	1255,40
727,21	1236,97
727,39	1329,13
727,57	1234,93
727,76	1265,64
727,94	1263,60
728,12	1232,88
728,30	1265,64
728,48	1335,28
728,66	1296,36
728,84	1241,07
729,03	1273,84
729,21	1296,36
729,39	1230,83
729,57	1265,64
729,75	1226,73
729,93	1226,73
730,11	1228,78
730,30	1263,60
730,48	1249,26
730,66	1228,78
730,84	1271,79
731,02	1183,73
731,20	1286,12
731,38	1308,65
731,56	1148,91
731,74	1310,70
731,93	1310,70
732,11	1286,12
732,29	1249,26
732,47	1290,22
732,65	1218,54
732,83	1230,83
733,01	1249,26
733,19	1234,93
733,37	1282,03
733,56	1277,93
733,74	1236,97
733,92	1335,28
734,10	1212,40
734,28	1269,74
734,46	1306,60
734,64	1208,30
734,82	1265,64
735,00	1294,32
735,18	1259,50
735,36	1261,55
735,54	1306,60
735,73	1212,40
735,91	1341,42
736,09	1212,40
736,27	1308,65
736,45	1212,40
736,63	1204,21
736,81	1282,03
736,99	1247,21
737,17	1245,16
737,35	1284,08
737,53	1286,12
737,71	1249,26
737,89	1294,32
738,07	1288,17
738,25	1167,34
738,43	1269,74
738,61	1232,88
738,80	1247,21
738,98	1273,84
739,16	1296,36
739,34	1263,60
739,52	1269,74
739,70	1249,26
739,88	1282,03
740,06	1314,80
740,24	1241,07
740,42	1288,17
740,60	1304,56
740,78	1267,69
740,96	1312,75
741,14	1257,45
741,32	1329,13
741,50	1273,84
741,68	1333,23
741,86	1204,21
742,04	1306,60
742,22	1314,80
742,40	1247,21
742,58	1224,69
742,76	1292,27
742,94	1306,60
743,12	1267,69
743,30	1189,87
743,48	1279,98
743,66	1288,17
743,84	1325,04
744,02	1234,93
744,20	1294,32
744,38	1277,93
744,56	1335,28
744,74	1241,07
744,92	1298,41
745,10	1261,55
745,28	1236,97
745,46	1234,93
745,64	1230,83
745,82	1204,21
746,00	1245,16
746,18	1277,93
746,36	1228,78
746,54	1224,69
746,72	1208,30
746,90	1239,02
747,08	1320,94
747,26	1275,88
747,44	1298,41
747,62	1269,74
747,80	1300,46
747,98	1255,40
748,15	1220,59
748,33	1318,89
748,51	1267,69
748,69	1275,88
748,87	1261,55
749,05	1241,07
749,23	1243,12
749,41	1257,45
749,59	1292,27
749,77	1269,74
749,95	1247,21
750,13	1294,32
750,31	1232,88
750,49	1292,27
750,67	1320,94
750,85	1251,31
751,03	1183,73
751,20	1292,27
751,38	1183,73
751,56	1361,90
751,74	1220,59
751,92	1226,73
752,10	1243,12
752,28	1308,65
752,46	1226,73
752,64	1239,02
752,82	1282,03
753,00	1271,79
753,18	1232,88
753,35	1296,36
753,53	1286,12
753,71	1269,74
753,89	1331,18
754,07	1243,12
754,25	1263,60
754,43	1273,84
754,61	1222,64
754,79	1224,69
754,97	1239,02
755,14	1220,59
755,32	1337,32
755,50	1310,70
755,68	1193,97
755,86	1290,22
756,04	1282,03
756,22	1288,17
756,40	1253,36
756,57	1234,93
756,75	1320,94
756,93	1310,70
757,11	1216,49
757,29	1271,79
757,47	1302,51
757,65	1263,60
757,82	1204,21
758,00	1273,84
758,18	1247,21
758,36	1191,92
758,54	1286,12
758,72	1298,41
758,90	1273,84
759,07	1187,82
759,25	1282,03
759,43	1294,32
759,61	1249,26
759,79	1282,03
759,97	1232,88
760,15	1320,94
760,32	1212,40
760,50	1269,74
760,68	1294,32
760,86	1288,17
761,04	1239,02
761,22	1232,88
761,39	1251,31
761,57	1308,65
761,75	1239,02
761,93	1263,60
762,11	1282,03
762,28	1208,30
762,46	1212,40
762,64	1306,60
762,82	1275,88
763,00	1249,26
763,18	1263,60
763,35	1310,70
763,53	1230,83
763,71	1290,22
763,89	1167,34
764,07	1228,78
764,24	1175,53
764,42	1339,37
764,60	1261,55
764,78	1239,02
764,96	1245,16
765,13	1230,83
765,31	1214,45
765,49	1255,40
765,67	1292,27
765,84	1302,51
766,02	1253,36
766,20	1224,69
766,38	1255,40
766,56	1269,74
766,73	1312,75
766,91	1316,84
767,09	1288,17
767,27	1208,30
767,44	1265,64
767,62	1292,27
767,80	1304,56
767,98	1265,64
768,15	1247,21
768,33	1308,65
768,51	1257,45
768,69	1298,41
768,87	1255,40
769,04	1193,97
769,22	1271,79
769,40	1269,74
769,58	1230,83
769,75	1234,93
769,93	1304,56
770,11	1224,69
770,28	1359,85
770,46	1255,40
770,64	1325,04
770,82	1255,40
770,99	1216,49
771,17	1265,64
771,35	1322,99
771,53	1247,21
771,70	1247,21
771,88	1222,64
772,06	1247,21
772,23	1302,51
772,41	1263,60
772,59	1196,01
772,77	1245,16
772,94	1288,17
773,12	1271,79
773,30	1245,16
773,47	1210,35
773,65	1236,97
773,83	1290,22
774,01	1247,21
774,18	1298,41
774,36	1228,78
774,54	1318,89
774,71	1243,12
774,89	1290,22
775,07	1312,75
775,24	1259,50
775,42	1290,22
775,60	1247,21
775,78	1202,16
775,95	1298,41
776,13	1187,82
776,31	1282,03
776,48	1308,65
776,66	1200,11
776,84	1181,68
777,01	1345,52
777,19	1267,69
777,37	1263,60
777,54	1261,55
777,72	1255,40
777,90	1247,21
778,07	1247,21
778,25	1282,03
778,43	1267,69
778,60	1236,97
778,78	1343,47
778,96	1271,79
779,13	1220,59
779,31	1222,64
779,49	1271,79
779,66	1259,50
779,84	1322,99
780,01	1298,41
780,19	1357,80
780,37	1271,79
780,54	1239,02
780,72	1290,22
780,90	1200,11
781,07	1226,73
781,25	1220,59
781,43	1236,97
781,60	1261,55
781,78	1261,55
781,95	1296,36
782,13	1230,83
782,31	1302,51
782,48	1300,46
782,66	1300,46
782,83	1239,02
783,01	1267,69
783,19	1277,93
783,36	1290,22
783,54	1351,66
783,72	1335,28
783,89	1179,63
784,07	1261,55
784,24	1216,49
784,42	1271,79
784,60	1288,17
784,77	1245,16
784,95	1212,40
785,12	1318,89
785,30	1241,07
785,47	1286,12
785,65	1222,64
785,83	1249,26
786,00	1245,16
786,18	1255,40
786,35	1241,07
786,53	1292,27
786,71	1279,98
786,88	1288,17
787,06	1263,60
787,23	1310,70
787,41	1273,84
787,58	1314,80
787,76	1243,12
787,94	1234,93
788,11	1259,50
788,29	1288,17
788,46	1294,32
788,64	1275,88
788,81	1234,93
788,99	1271,79
789,16	1279,98
789,34	1249,26
789,52	1316,84
789,69	1290,22
789,87	1220,59
790,04	1255,40
790,22	1288,17
790,39	1294,32
790,57	1251,31
790,74	1224,69
790,92	1279,98
791,09	1241,07
791,27	1318,89
791,44	1284,08
791,62	1243,12
791,79	1275,88
791,97	1204,21
792,15	1337,32
792,32	1353,71
792,50	1325,04
792,67	1249,26
792,85	1284,08
793,02	1196,01
793,20	1275,88
793,37	1304,56
793,55	1259,50
793,72	1251,31
793,90	1265,64
794,07	1245,16
794,25	1298,41
794,42	1300,46
794,60	1314,80
794,77	1214,45
794,95	1277,93
795,12	1335,28
795,30	1226,73
795,47	1255,40
795,65	1286,12
795,82	1300,46
796,00	1263,60
796,17	1310,70
796,34	1312,75
796,52	1208,30
796,69	1357,80
796,87	1247,21
797,04	1273,84
797,22	1271,79
797,39	1292,27
797,57	1251,31
797,74	1282,03
797,92	1228,78
798,09	1275,88
798,27	1245,16
798,44	1228,78
798,62	1300,46
798,79	1304,56
798,96	1279,98
799,14	1271,79
799,31	1345,52
799,49	1320,94
799,66	1310,70
799,84	1341,42
800,01	1267,69
800,19	1206,25
800,36	1265,64
800,53	1241,07
800,71	1271,79
800,88	1208,30
801,06	1239,02
801,23	1322,99
801,41	1269,74
801,58	1357,80
801,75	1243,12
801,93	1251,31
802,10	1327,08
802,28	1314,80
802,45	1249,26
802,63	1247,21
802,80	1298,41
802,97	1290,22
803,15	1241,07
803,32	1239,02
803,50	1277,93
803,67	1271,79
803,84	1261,55
804,02	1220,59
804,19	1296,36
804,37	1208,30
804,54	1333,23
804,71	1308,65
804,89	1263,60
805,06	1339,37
805,24	1220,59
805,41	1337,32
805,58	1255,40
805,76	1282,03
805,93	1267,69
806,10	1304,56
806,28	1232,88
806,45	1261,55
806,63	1249,26
806,80	1273,84
806,97	1245,16
807,15	1302,51
807,32	1279,98
807,49	1232,88
807,67	1206,25
807,84	1183,73
808,01	1239,02
808,19	1302,51
808,36	1286,12
808,54	1292,27
808,71	1337,32
808,88	1292,27
809,06	1224,69
809,23	1339,37
809,40	1288,17
809,58	1298,41
809,75	1257,45
809,92	1290,22
810,10	1290,22
810,27	1232,88
810,44	1288,17
810,62	1245,16
810,79	1298,41
810,96	1224,69
811,14	1275,88
811,31	1288,17
811,48	1249,26
811,66	1263,60
811,83	1259,50
812,00	1191,92
812,18	1241,07
812,35	1224,69
812,52	1228,78
812,69	1314,80
812,87	1308,65
813,04	1290,22
813,21	1265,64
813,39	1202,16
813,56	1241,07
813,73	1347,56
813,91	1304,56
814,08	1275,88
814,25	1243,12
814,42	1216,49
814,60	1218,54
814,77	1257,45
814,94	1271,79
815,12	1286,12
815,29	1245,16
815,46	1269,74
815,63	1208,30
815,81	1282,03
815,98	1288,17
816,15	1196,01
816,33	1282,03
816,50	1245,16
816,67	1265,64
816,84	1239,02
817,02	1243,12
817,19	1249,26
817,36	1286,12
817,53	1245,16
817,71	1331,18
817,88	1239,02
818,05	1255,40
818,22	1386,47
818,40	1275,88
818,57	1216,49
818,74	1222,64
818,91	1241,07
819,09	1298,41
819,26	1265,64
819,43	1302,51
819,60	1251,31
819,78	1204,21
819,95	1273,84
820,12	1279,98
820,29	1292,27
820,47	1253,36
820,64	1314,80
820,81	1230,83
820,98	1263,60
821,15	1236,97
821,33	1232,88
821,50	1337,32
821,67	1263,60
821,84	1204,21
822,02	1310,70
822,19	1255,40
822,36	1224,69
822,53	1259,50
822,70	1247,21
822,88	1226,73
823,05	1339,37
823,22	1306,60
823,39	1318,89
823,56	1314,80
823,74	1261,55
823,91	1259,50
824,08	1249,26
824,25	1228,78
824,42	1232,88
824,60	1279,98
824,77	1222,64
824,94	1245,16
825,11	1275,88
825,28	1284,08
825,45	1273,84
825,63	1302,51
825,80	1279,98
825,97	1265,64
826,14	1290,22
826,31	1185,77
826,48	1269,74
826,66	1275,88
826,83	1251,31
827,00	1314,80
827,17	1239,02
827,34	1261,55
827,51	1263,60
827,69	1310,70
827,86	1331,18
828,03	1318,89
828,20	1277,93
828,37	1277,93
828,54	1282,03
828,71	1312,75
828,89	1269,74
829,06	1271,79
829,23	1236,97
829,40	1304,56
829,57	1263,60
829,74	1220,59
829,91	1193,97
830,09	1255,40
830,26	1304,56
830,43	1191,92
830,60	1288,17
830,77	1355,76
830,94	1204,21
831,11	1325,04
831,28	1290,22
831,46	1296,36
831,63	1212,40
831,80	1198,06
831,97	1277,93
832,14	1271,79
832,31	1224,69
832,48	1298,41
832,65	1232,88
832,82	1193,97
832,99	1308,65
833,17	1239,02
833,34	1269,74
833,51	1249,26
833,68	1322,99
833,85	1243,12
834,02	1234,93
834,19	1249,26
834,36	1279,98
834,53	1298,41
834,70	1339,37
834,87	1284,08
835,04	1247,21
835,22	1236,97
835,39	1249,26
835,56	1322,99
835,73	1292,27
835,90	1185,77
836,07	1212,40
836,24	1251,31
836,41	1290,22
836,58	1322,99
836,75	1245,16
836,92	1318,89
837,09	1263,60
837,26	1296,36
837,43	1327,08
837,60	1302,51
837,77	1282,03
837,94	1265,64
838,12	1236,97
838,29	1236,97
838,46	1269,74
838,63	1263,60
838,80	1273,84
838,97	1206,25
839,14	1298,41
839,31	1271,79
839,48	1279,98
839,65	1300,46
839,82	1273,84
839,99	1322,99
840,16	1241,07
840,33	1267,69
840,50	1218,54
840,67	1312,75
840,84	1269,74
841,01	1263,60
841,18	1265,64
841,35	1208,30
841,52	1288,17
841,69	1196,01
841,86	1239,02
842,03	1294,32
842,20	1296,36
842,37	1241,07
842,54	1247,21
842,71	1331,18
842,88	1290,22
843,05	1224,69
843,22	1245,16
843,39	1269,74
843,56	1288,17
843,73	1290,22
843,90	1249,26
844,07	1273,84
844,24	1292,27
844,41	1286,12
844,58	1193,97
844,75	1300,46
844,92	1196,01
845,09	1325,04
845,26	1282,03
845,43	1288,17
845,60	1230,83
845,77	1273,84
845,94	1273,84
846,10	1253,36
846,27	1325,04
846,44	1216,49
846,61	1298,41
846,78	1306,60
846,95	1241,07
847,12	1269,74
847,29	1310,70
847,46	1236,97
847,63	1212,40
847,80	1198,06
847,97	1277,93
848,14	1277,93
848,31	1259,50
848,48	1294,32
848,65	1220,59
848,82	1228,78
848,98	1322,99
849,15	1335,28
849,32	1220,59
849,49	1259,50
849,66	1279,98
849,83	1282,03
850,00	1249,26
850,17	1286,12
850,34	1286,12
850,51	1312,75
850,68	1298,41
850,85	1267,69
851,01	1298,41
851,18	1290,22
851,35	1200,11
851,52	1329,13
851,69	1353,71
851,86	1279,98
852,03	1271,79
852,20	1357,80
852,37	1232,88
852,53	1286,12
852,70	1196,01
852,87	1247,21
853,04	1179,63
853,21	1232,88
853,38	1339,37
853,55	1230,83
853,72	1193,97
853,89	1243,12
854,05	1314,80
854,22	1271,79
854,39	1271,79
854,56	1253,36
854,73	1286,12
854,90	1220,59
855,07	1234,93
855,23	1265,64
855,40	1308,65
855,57	1208,30
855,74	1245,16
855,91	1288,17
856,08	1292,27
856,25	1282,03
856,41	1165,29
856,58	1271,79
856,75	1198,06
856,92	1255,40
857,09	1273,84
857,26	1275,88
857,42	1288,17
857,59	1263,60
857,76	1236,97
857,93	1253,36
858,10	1200,11
858,27	1273,84
858,43	1302,51
858,60	1243,12
858,77	1241,07
858,94	1279,98
859,11	1206,25
859,27	1236,97
859,44	1282,03
859,61	1239,02
859,78	1292,27
859,95	1259,50
860,12	1243,12
860,28	1241,07
860,45	1320,94
860,62	1282,03
860,79	1339,37
860,95	1279,98
861,12	1185,77
861,29	1249,26
861,46	1279,98
861,63	1198,06
861,79	1308,65
861,96	1243,12
862,13	1294,32
862,30	1284,08
862,47	1257,45
862,63	1282,03
862,80	1212,40
862,97	1345,52
863,14	1322,99
863,30	1284,08
863,47	1292,27
863,64	1333,23
863,81	1292,27
863,97	1302,51
864,14	1230,83
864,31	1318,89
864,48	1273,84
864,65	1290,22
864,81	1320,94
864,98	1284,08
865,15	1273,84
865,32	1296,36
865,48	1275,88
865,65	1296,36
865,82	1327,08
865,98	1263,60
866,15	1191,92
866,32	1298,41
866,49	1265,64
866,65	1265,64
866,82	1239,02
866,99	1232,88
867,16	1304,56
867,32	1263,60
867,49	1265,64
867,66	1204,21
867,83	1333,23
867,99	1284,08
868,16	1302,51
868,33	1286,12
868,49	1216,49
868,66	1245,16
868,83	1214,45
868,99	1288,17
869,16	1290,22
869,33	1173,49
869,50	1241,07
869,66	1273,84
869,83	1239,02
870,00	1341,42
870,16	1304,56
870,33	1308,65
870,50	1292,27
870,66	1208,30
870,83	1288,17
871,00	1302,51
871,17	1259,50
871,33	1282,03
871,50	1239,02
871,67	1312,75
871,83	1298,41
872,00	1263,60
872,17	1216,49
872,33	1300,46
872,50	1304,56
872,67	1286,12
872,83	1275,88
873,00	1220,59
873,17	1261,55
873,33	1271,79
873,50	1267,69
873,67	1259,50
873,83	1316,84
874,00	1245,16
874,16	1298,41
874,33	1265,64
874,50	1230,83
874,66	1284,08
874,83	1234,93
875,00	1259,50
875,16	1243,12
875,33	1273,84
875,50	1275,88
875,66	1226,73
875,83	1290,22
875,99	1298,41
876,16	1288,17
876,33	1255,40
876,49	1241,07
876,66	1284,08
876,83	1292,27
876,99	1355,76
877,16	1353,71
877,32	1273,84
877,49	1277,93
877,66	1204,21
877,82	1296,36
877,99	1210,35
878,15	1259,50
878,32	1282,03
878,49	1271,79
878,65	1335,28
878,82	1267,69
878,98	1251,31
879,15	1232,88
879,32	1306,60
879,48	1259,50
879,65	1261,55
879,81	1331,18
879,98	1249,26
880,15	1200,11
880,31	1314,80
880,48	1241,07
880,64	1255,40
880,81	1288,17
880,97	1368,04
881,14	1300,46
881,31	1263,60
881,47	1359,85
881,64	1191,92
881,80	1271,79
881,97	1232,88
882,13	1294,32
882,30	1294,32
882,47	1255,40
882,63	1253,36
882,80	1243,12
882,96	1239,02
883,13	1279,98
883,29	1224,69
883,46	1290,22
883,62	1312,75
883,79	1255,40
883,95	1275,88
884,12	1279,98
884,29	1234,93
884,45	1318,89
884,62	1222,64
884,78	1282,03
884,95	1232,88
885,11	1249,26
885,28	1198,06
885,44	1198,06
885,61	1220,59
885,77	1243,12
885,94	1234,93
886,10	1300,46
886,27	1232,88
886,43	1308,65
886,60	1292,27
886,76	1239,02
886,93	1224,69
887,09	1320,94
887,26	1241,07
887,42	1353,71
887,59	1290,22
887,75	1236,97
887,92	1249,26
888,08	1265,64
888,25	1216,49
888,41	1216,49
888,58	1265,64
888,74	1333,23
888,91	1249,26
>>>>>End Processed Spectral Data<<<<<
