SpectraSuite Data File
++++++++++++++++++++++++++++++++++++
Date: Sun Apr 03 17:35:34 CEST 2016
User: root
Dark Spectrum Present: No
Reference Spectrum Present: No
Number of Sampled Component Spectra: 1
Spectrometers: USB4C02835
Integration Time (usec): 10000 (USB4C02835)
Spectra Averaged: 1 (USB4C02835)
Boxcar Smoothing: 0 (USB4C02835)
Correct for Electrical Dark: No (USB4C02835)
Strobe/Lamp Enabled: No (USB4C02835)
Correct for Detector Non-linearity: No (USB4C02835)
Correct for Stray Light: No (USB4C02835)
Number of Pixels in Processed Spectrum: 3648
>>>>>Begin Processed Spectral Data<<<<<
177,47	1290,22
177,69	1290,22
177,91	1290,22
178,13	1290,22
178,36	1318,89
178,58	1204,21
178,80	1228,78
179,02	1255,40
179,24	1277,93
179,46	1210,35
179,68	1212,40
179,90	1216,49
180,13	1245,16
180,35	1302,51
180,57	1290,22
180,79	1212,40
181,01	1267,69
181,23	1320,94
181,45	1290,22
181,67	1265,64
181,90	1228,78
182,12	1226,73
182,34	1325,04
182,56	1241,07
182,78	1253,36
183,00	1239,02
183,22	1333,23
183,44	1269,74
183,66	1226,73
183,89	1189,87
184,11	1253,36
184,33	1273,84
184,55	1318,89
184,77	1257,45
184,99	1308,65
185,21	1183,73
185,43	1247,21
185,65	1355,76
185,87	1286,12
186,10	1259,50
186,32	1310,70
186,54	1320,94
186,76	1259,50
186,98	1257,45
187,20	1214,45
187,42	1232,88
187,64	1261,55
187,86	1253,36
188,08	1314,80
188,30	1306,60
188,52	1265,64
188,75	1236,97
188,97	1257,45
189,19	1249,26
189,41	1318,89
189,63	1314,80
189,85	1222,64
190,07	1255,40
190,29	1279,98
190,51	1210,35
190,73	1247,21
190,95	1271,79
191,17	1271,79
191,39	1228,78
191,61	1226,73
191,84	1265,64
192,06	1316,84
192,28	1230,83
192,50	1267,69
192,72	1282,03
192,94	1302,51
193,16	1300,46
193,38	1298,41
193,60	1275,88
193,82	1241,07
194,04	1239,02
194,26	1239,02
194,48	1220,59
194,70	1273,84
194,92	1232,88
195,14	1269,74
195,36	1290,22
195,58	1222,64
195,80	1304,56
196,02	1271,79
196,24	1267,69
196,46	1353,71
196,69	1343,47
196,91	1247,21
197,13	1277,93
197,35	1333,23
197,57	1236,97
197,79	1310,70
198,01	1216,49
198,23	1222,64
198,45	1298,41
198,67	1292,27
198,89	1239,02
199,11	1239,02
199,33	1216,49
199,55	1224,69
199,77	1335,28
199,99	1245,16
200,21	1277,93
200,43	1277,93
200,65	1343,47
200,87	1269,74
201,09	1263,60
201,31	1222,64
201,53	1271,79
201,75	1277,93
201,97	1302,51
202,19	1300,46
202,41	1308,65
202,63	1273,84
202,85	1327,08
203,07	1318,89
203,29	1310,70
203,51	1220,59
203,73	1247,21
203,95	1216,49
204,17	1214,45
204,39	1224,69
204,61	1282,03
204,83	1302,51
205,05	1333,23
205,27	1220,59
205,49	1269,74
205,71	1318,89
205,93	1316,84
206,15	1284,08
206,37	1189,87
206,59	1222,64
206,81	1255,40
207,03	1265,64
207,25	1279,98
207,47	1230,83
207,69	1271,79
207,91	1259,50
208,13	1222,64
208,34	1218,54
208,56	1316,84
208,78	1245,16
209,00	1243,12
209,22	1253,36
209,44	1292,27
209,66	1247,21
209,88	1296,36
210,10	1343,47
210,32	1261,55
210,54	1249,26
210,76	1271,79
210,98	1331,18
211,20	1140,72
211,42	1288,17
211,64	1259,50
211,86	1337,32
212,08	1273,84
212,30	1298,41
212,52	1304,56
212,74	1304,56
212,96	1329,13
213,17	1304,56
213,39	1277,93
213,61	1271,79
213,83	1263,60
214,05	1312,75
214,27	1239,02
214,49	1292,27
214,71	1220,59
214,93	1286,12
215,15	1236,97
215,37	1259,50
215,59	1214,45
215,81	1224,69
216,03	1282,03
216,24	1269,74
216,46	1257,45
216,68	1337,32
216,90	1320,94
217,12	1273,84
217,34	1241,07
217,56	1279,98
217,78	1269,74
218,00	1241,07
218,22	1314,80
218,44	1228,78
218,66	1204,21
218,87	1263,60
219,09	1271,79
219,31	1241,07
219,53	1241,07
219,75	1294,32
219,97	1267,69
220,19	1345,52
220,41	1239,02
220,63	1267,69
220,85	1239,02
221,06	1288,17
221,28	1208,30
221,50	1300,46
221,72	1284,08
221,94	1298,41
222,16	1312,75
222,38	1216,49
222,60	1304,56
222,82	1314,80
223,03	1298,41
223,25	1290,22
223,47	1220,59
223,69	1304,56
223,91	1290,22
224,13	1243,12
224,35	1267,69
224,57	1292,27
224,78	1275,88
225,00	1314,80
225,22	1290,22
225,44	1361,90
225,66	1218,54
225,88	1357,80
226,10	1212,40
226,32	1216,49
226,53	1284,08
226,75	1230,83
226,97	1267,69
227,19	1251,31
227,41	1304,56
227,63	1263,60
227,85	1265,64
228,06	1267,69
228,28	1320,94
228,50	1247,21
228,72	1261,55
228,94	1228,78
229,16	1314,80
229,37	1253,36
229,59	1226,73
229,81	1263,60
230,03	1275,88
230,25	1247,21
230,47	1275,88
230,69	1286,12
230,90	1212,40
231,12	1218,54
231,34	1259,50
231,56	1316,84
231,78	1236,97
232,00	1275,88
232,21	1236,97
232,43	1290,22
232,65	1294,32
232,87	1214,45
233,09	1255,40
233,30	1239,02
233,52	1320,94
233,74	1214,45
233,96	1247,21
234,18	1292,27
234,40	1253,36
234,61	1255,40
234,83	1212,40
235,05	1292,27
235,27	1269,74
235,49	1271,79
235,70	1298,41
235,92	1255,40
236,14	1247,21
236,36	1277,93
236,58	1275,88
236,79	1216,49
237,01	1257,45
237,23	1271,79
237,45	1284,08
237,67	1316,84
237,88	1275,88
238,10	1255,40
238,32	1257,45
238,54	1275,88
238,76	1222,64
238,97	1259,50
239,19	1198,06
239,41	1279,98
239,63	1275,88
239,85	1222,64
240,06	1202,16
240,28	1267,69
240,50	1302,51
240,72	1243,12
240,93	1249,26
241,15	1288,17
241,37	1206,25
241,59	1331,18
241,81	1273,84
242,02	1288,17
242,24	1210,35
242,46	1337,32
242,68	1265,64
242,89	1198,06
243,11	1282,03
243,33	1284,08
243,55	1329,13
243,76	1253,36
243,98	1261,55
244,20	1267,69
244,42	1298,41
244,64	1263,60
244,85	1230,83
245,07	1304,56
245,29	1308,65
245,51	1284,08
245,72	1292,27
245,94	1286,12
246,16	1253,36
246,38	1308,65
246,59	1243,12
246,81	1279,98
247,03	1269,74
247,24	1230,83
247,46	1200,11
247,68	1294,32
247,90	1322,99
248,11	1292,27
248,33	1288,17
248,55	1257,45
248,77	1306,60
248,98	1337,32
249,20	1277,93
249,42	1337,32
249,64	1300,46
249,85	1306,60
250,07	1230,83
250,29	1329,13
250,50	1308,65
250,72	1279,98
250,94	1232,88
251,16	1253,36
251,37	1255,40
251,59	1325,04
251,81	1257,45
252,02	1255,40
252,24	1279,98
252,46	1261,55
252,68	1247,21
252,89	1241,07
253,11	1267,69
253,33	1353,71
253,54	1261,55
253,76	1304,56
253,98	1208,30
254,20	1329,13
254,41	1259,50
254,63	1271,79
254,85	1271,79
255,06	1314,80
255,28	1208,30
255,50	1304,56
255,71	1239,02
255,93	1294,32
256,15	1175,53
256,36	1273,84
256,58	1230,83
256,80	1288,17
257,02	1327,08
257,23	1279,98
257,45	1218,54
257,67	1284,08
257,88	1230,83
258,10	1353,71
258,32	1279,98
258,53	1206,25
258,75	1234,93
258,97	1241,07
259,18	1259,50
259,40	1322,99
259,62	1247,21
259,83	1335,28
260,05	1193,97
260,27	1263,60
260,48	1265,64
260,70	1318,89
260,92	1335,28
261,13	1298,41
261,35	1171,44
261,57	1228,78
261,78	1273,84
262,00	1316,84
262,22	1243,12
262,43	1243,12
262,65	1243,12
262,86	1286,12
263,08	1208,30
263,30	1331,18
263,51	1277,93
263,73	1247,21
263,95	1325,04
264,16	1249,26
264,38	1208,30
264,60	1263,60
264,81	1193,97
265,03	1218,54
265,25	1245,16
265,46	1279,98
265,68	1273,84
265,89	1261,55
266,11	1322,99
266,33	1304,56
266,54	1277,93
266,76	1271,79
266,98	1310,70
267,19	1239,02
267,41	1310,70
267,62	1277,93
267,84	1206,25
268,06	1253,36
268,27	1228,78
268,49	1296,36
268,70	1220,59
268,92	1216,49
269,14	1263,60
269,35	1257,45
269,57	1230,83
269,79	1263,60
270,00	1265,64
270,22	1304,56
270,43	1259,50
270,65	1261,55
270,87	1282,03
271,08	1253,36
271,30	1353,71
271,51	1230,83
271,73	1226,73
271,95	1333,23
272,16	1298,41
272,38	1308,65
272,59	1304,56
272,81	1269,74
273,02	1222,64
273,24	1300,46
273,46	1271,79
273,67	1271,79
273,89	1277,93
274,10	1210,35
274,32	1302,51
274,54	1239,02
274,75	1204,21
274,97	1245,16
275,18	1351,66
275,40	1273,84
275,61	1218,54
275,83	1251,31
276,05	1210,35
276,26	1263,60
276,48	1269,74
276,69	1333,23
276,91	1222,64
277,12	1249,26
277,34	1255,40
277,55	1286,12
277,77	1265,64
277,99	1241,07
278,20	1327,08
278,42	1290,22
278,63	1202,16
278,85	1249,26
279,06	1241,07
279,28	1279,98
279,49	1286,12
279,71	1239,02
279,93	1304,56
280,14	1288,17
280,36	1271,79
280,57	1216,49
280,79	1247,21
281,00	1236,97
281,22	1275,88
281,43	1196,01
281,65	1241,07
281,86	1196,01
282,08	1292,27
282,29	1247,21
282,51	1263,60
282,73	1249,26
282,94	1290,22
283,16	1304,56
283,37	1312,75
283,59	1267,69
283,80	1257,45
284,02	1232,88
284,23	1251,31
284,45	1363,95
284,66	1337,32
284,88	1236,97
285,09	1298,41
285,31	1370,09
285,52	1196,01
285,74	1288,17
285,95	1220,59
286,17	1253,36
286,38	1320,94
286,60	1234,93
286,81	1187,82
287,03	1222,64
287,24	1337,32
287,46	1269,74
287,67	1247,21
287,89	1261,55
288,10	1296,36
288,32	1302,51
288,53	1206,25
288,75	1241,07
288,96	1279,98
289,18	1314,80
289,39	1269,74
289,61	1277,93
289,82	1290,22
290,04	1249,26
290,25	1284,08
290,47	1306,60
290,68	1269,74
290,90	1292,27
291,11	1288,17
291,33	1265,64
291,54	1294,32
291,76	1284,08
291,97	1243,12
292,18	1296,36
292,40	1282,03
292,61	1214,45
292,83	1286,12
293,04	1298,41
293,26	1269,74
293,47	1325,04
293,69	1208,30
293,90	1232,88
294,12	1288,17
294,33	1308,65
294,55	1214,45
294,76	1279,98
294,97	1277,93
295,19	1267,69
295,40	1296,36
295,62	1198,06
295,83	1224,69
296,05	1220,59
296,26	1196,01
296,48	1284,08
296,69	1269,74
296,90	1308,65
297,12	1290,22
297,33	1267,69
297,55	1343,47
297,76	1331,18
297,98	1275,88
298,19	1239,02
298,41	1306,60
298,62	1214,45
298,83	1163,25
299,05	1271,79
299,26	1290,22
299,48	1316,84
299,69	1286,12
299,90	1261,55
300,12	1267,69
300,33	1259,50
300,55	1259,50
300,76	1239,02
300,98	1216,49
301,19	1277,93
301,40	1310,70
301,62	1275,88
301,83	1275,88
302,05	1290,22
302,26	1255,40
302,47	1286,12
302,69	1290,22
302,90	1239,02
303,12	1251,31
303,33	1343,47
303,54	1236,97
303,76	1245,16
303,97	1251,31
304,19	1173,49
304,40	1318,89
304,61	1275,88
304,83	1269,74
305,04	1267,69
305,26	1257,45
305,47	1275,88
305,68	1206,25
305,90	1226,73
306,11	1247,21
306,33	1363,95
306,54	1247,21
306,75	1232,88
306,97	1312,75
307,18	1216,49
307,39	1175,53
307,61	1288,17
307,82	1300,46
308,04	1302,51
308,25	1288,17
308,46	1314,80
308,68	1277,93
308,89	1312,75
309,10	1288,17
309,32	1265,64
309,53	1320,94
309,74	1269,74
309,96	1296,36
310,17	1296,36
310,39	1302,51
310,60	1325,04
310,81	1255,40
311,03	1273,84
311,24	1308,65
311,45	1284,08
311,67	1267,69
311,88	1255,40
312,09	1273,84
312,31	1320,94
312,52	1304,56
312,73	1263,60
312,95	1261,55
313,16	1355,76
313,37	1286,12
313,59	1335,28
313,80	1279,98
314,01	1275,88
314,23	1279,98
314,44	1314,80
314,65	1224,69
314,87	1333,23
315,08	1306,60
315,29	1222,64
315,51	1292,27
315,72	1271,79
315,93	1251,31
316,15	1300,46
316,36	1284,08
316,57	1282,03
316,79	1216,49
317,00	1306,60
317,21	1263,60
317,43	1265,64
317,64	1294,32
317,85	1314,80
318,07	1290,22
318,28	1251,31
318,49	1253,36
318,70	1261,55
318,92	1349,61
319,13	1267,69
319,34	1288,17
319,56	1261,55
319,77	1255,40
319,98	1257,45
320,20	1216,49
320,41	1185,77
320,62	1298,41
320,83	1282,03
321,05	1177,58
321,26	1308,65
321,47	1304,56
321,69	1322,99
321,90	1275,88
322,11	1257,45
322,32	1232,88
322,54	1230,83
322,75	1269,74
322,96	1269,74
323,18	1239,02
323,39	1251,31
323,60	1290,22
323,81	1243,12
324,03	1253,36
324,24	1245,16
324,45	1277,93
324,66	1200,11
324,88	1339,37
325,09	1241,07
325,30	1312,75
325,52	1298,41
325,73	1310,70
325,94	1265,64
326,15	1257,45
326,37	1275,88
326,58	1226,73
326,79	1236,97
327,00	1247,21
327,22	1269,74
327,43	1296,36
327,64	1226,73
327,85	1187,82
328,07	1282,03
328,28	1279,98
328,49	1271,79
328,70	1290,22
328,92	1249,26
329,13	1265,64
329,34	1261,55
329,55	1220,59
329,76	1318,89
329,98	1269,74
330,19	1300,46
330,40	1196,01
330,61	1265,64
330,83	1306,60
331,04	1320,94
331,25	1165,29
331,46	1306,60
331,68	1241,07
331,89	1279,98
332,10	1277,93
332,31	1302,51
332,52	1181,68
332,74	1302,51
332,95	1212,40
333,16	1290,22
333,37	1275,88
333,58	1243,12
333,80	1284,08
334,01	1275,88
334,22	1298,41
334,43	1269,74
334,64	1269,74
334,86	1236,97
335,07	1253,36
335,28	1206,25
335,49	1284,08
335,70	1251,31
335,92	1191,92
336,13	1300,46
336,34	1202,16
336,55	1282,03
336,76	1236,97
336,98	1306,60
337,19	1243,12
337,40	1259,50
337,61	1333,23
337,82	1296,36
338,04	1267,69
338,25	1226,73
338,46	1290,22
338,67	1288,17
338,88	1320,94
339,09	1282,03
339,31	1255,40
339,52	1286,12
339,73	1302,51
339,94	1253,36
340,15	1279,98
340,36	1232,88
340,58	1343,47
340,79	1257,45
341,00	1222,64
341,21	1253,36
341,42	1245,16
341,63	1298,41
341,85	1263,60
342,06	1343,47
342,27	1271,79
342,48	1304,56
342,69	1316,84
342,90	1249,26
343,12	1263,60
343,33	1255,40
343,54	1257,45
343,75	1259,50
343,96	1245,16
344,17	1279,98
344,38	1273,84
344,60	1249,26
344,81	1253,36
345,02	1241,07
345,23	1290,22
345,44	1312,75
345,65	1226,73
345,86	1378,28
346,07	1306,60
346,29	1343,47
346,50	1294,32
346,71	1302,51
346,92	1275,88
347,13	1345,52
347,34	1325,04
347,55	1183,73
347,76	1271,79
347,98	1331,18
348,19	1267,69
348,40	1259,50
348,61	1257,45
348,82	1312,75
349,03	1239,02
349,24	1232,88
349,45	1302,51
349,66	1261,55
349,88	1232,88
350,09	1308,65
350,30	1316,84
350,51	1314,80
350,72	1282,03
350,93	1339,37
351,14	1277,93
351,35	1314,80
351,56	1296,36
351,77	1243,12
351,99	1290,22
352,20	1239,02
352,41	1228,78
352,62	1298,41
352,83	1198,06
353,04	1259,50
353,25	1306,60
353,46	1279,98
353,67	1300,46
353,88	1288,17
354,09	1214,45
354,30	1298,41
354,52	1275,88
354,73	1204,21
354,94	1279,98
355,15	1288,17
355,36	1341,42
355,57	1298,41
355,78	1302,51
355,99	1282,03
356,20	1251,31
356,41	1265,64
356,62	1191,92
356,83	1226,73
357,04	1304,56
357,25	1253,36
357,46	1230,83
357,68	1259,50
357,89	1249,26
358,10	1312,75
358,31	1290,22
358,52	1236,97
358,73	1228,78
358,94	1277,93
359,15	1351,66
359,36	1259,50
359,57	1267,69
359,78	1302,51
359,99	1263,60
360,20	1312,75
360,41	1241,07
360,62	1282,03
360,83	1261,55
361,04	1409,00
361,25	1251,31
361,46	1271,79
361,67	1300,46
361,88	1279,98
362,09	1318,89
362,30	1308,65
362,51	1273,84
362,72	1271,79
362,93	1294,32
363,14	1271,79
363,35	1308,65
363,56	1249,26
363,78	1263,60
363,99	1335,28
364,20	1269,74
364,41	1282,03
364,62	1259,50
364,83	1314,80
365,04	1337,32
365,25	1239,02
365,46	1173,49
365,67	1251,31
365,88	1282,03
366,09	1339,37
366,30	1257,45
366,51	1286,12
366,72	1218,54
366,93	1193,97
367,14	1245,16
367,35	1298,41
367,56	1277,93
367,77	1288,17
367,98	1271,79
368,18	1263,60
368,39	1267,69
368,60	1322,99
368,81	1202,16
369,02	1275,88
369,23	1282,03
369,44	1284,08
369,65	1263,60
369,86	1239,02
370,07	1271,79
370,28	1306,60
370,49	1265,64
370,70	1290,22
370,91	1308,65
371,12	1253,36
371,33	1212,40
371,54	1275,88
371,75	1294,32
371,96	1314,80
372,17	1327,08
372,38	1224,69
372,59	1261,55
372,80	1251,31
373,01	1257,45
373,22	1294,32
373,43	1255,40
373,64	1261,55
373,85	1239,02
374,06	1245,16
374,26	1351,66
374,47	1261,55
374,68	1288,17
374,89	1286,12
375,10	1263,60
375,31	1353,71
375,52	1241,07
375,73	1308,65
375,94	1239,02
376,15	1249,26
376,36	1247,21
376,57	1200,11
376,78	1331,18
376,99	1241,07
377,20	1243,12
377,40	1204,21
377,61	1265,64
377,82	1261,55
378,03	1290,22
378,24	1245,16
378,45	1273,84
378,66	1300,46
378,87	1247,21
379,08	1290,22
379,29	1263,60
379,50	1290,22
379,71	1249,26
379,91	1282,03
380,12	1269,74
380,33	1288,17
380,54	1269,74
380,75	1269,74
380,96	1142,77
381,17	1279,98
381,38	1265,64
381,59	1261,55
381,80	1222,64
382,00	1216,49
382,21	1284,08
382,42	1253,36
382,63	1290,22
382,84	1249,26
383,05	1185,77
383,26	1236,97
383,47	1263,60
383,68	1288,17
383,88	1204,21
384,09	1243,12
384,30	1251,31
384,51	1251,31
384,72	1257,45
384,93	1286,12
385,14	1245,16
385,35	1277,93
385,55	1247,21
385,76	1310,70
385,97	1302,51
386,18	1363,95
386,39	1286,12
386,60	1298,41
386,81	1257,45
387,02	1306,60
387,22	1247,21
387,43	1257,45
387,64	1282,03
387,85	1298,41
388,06	1216,49
388,27	1253,36
388,48	1269,74
388,68	1370,09
388,89	1327,08
389,10	1234,93
389,31	1241,07
389,52	1224,69
389,73	1243,12
389,93	1300,46
390,14	1275,88
390,35	1255,40
390,56	1308,65
390,77	1259,50
390,98	1249,26
391,18	1316,84
391,39	1261,55
391,60	1232,88
391,81	1288,17
392,02	1222,64
392,23	1284,08
392,43	1224,69
392,64	1279,98
392,85	1259,50
393,06	1245,16
393,27	1392,62
393,47	1267,69
393,68	1222,64
393,89	1290,22
394,10	1298,41
394,31	1232,88
394,52	1318,89
394,72	1257,45
394,93	1316,84
395,14	1255,40
395,35	1232,88
395,56	1241,07
395,76	1306,60
395,97	1243,12
396,18	1259,50
396,39	1200,11
396,60	1261,55
396,80	1265,64
397,01	1296,36
397,22	1320,94
397,43	1241,07
397,64	1286,12
397,84	1294,32
398,05	1325,04
398,26	1282,03
398,47	1222,64
398,67	1218,54
398,88	1200,11
399,09	1284,08
399,30	1314,80
399,51	1302,51
399,71	1308,65
399,92	1296,36
400,13	1220,59
400,34	1196,01
400,54	1204,21
400,75	1216,49
400,96	1200,11
401,17	1292,27
401,37	1275,88
401,58	1277,93
401,79	1232,88
402,00	1263,60
402,21	1286,12
402,41	1292,27
402,62	1347,56
402,83	1239,02
403,04	1277,93
403,24	1196,01
403,45	1298,41
403,66	1193,97
403,87	1271,79
404,07	1322,99
404,28	1279,98
404,49	1226,73
404,70	1220,59
404,90	1345,52
405,11	1331,18
405,32	1210,35
405,52	1286,12
405,73	1322,99
405,94	1265,64
406,15	1331,18
406,35	1273,84
406,56	1261,55
406,77	1273,84
406,98	1296,36
407,18	1292,27
407,39	1226,73
407,60	1302,51
407,80	1312,75
408,01	1316,84
408,22	1302,51
408,43	1277,93
408,63	1275,88
408,84	1241,07
409,05	1290,22
409,25	1304,56
409,46	1234,93
409,67	1312,75
409,88	1339,37
410,08	1222,64
410,29	1331,18
410,50	1318,89
410,70	1298,41
410,91	1236,97
411,12	1234,93
411,32	1275,88
411,53	1284,08
411,74	1292,27
411,95	1269,74
412,15	1282,03
412,36	1241,07
412,57	1198,06
412,77	1251,31
412,98	1308,65
413,19	1239,02
413,39	1234,93
413,60	1275,88
413,81	1224,69
414,01	1279,98
414,22	1236,97
414,43	1183,73
414,63	1224,69
414,84	1269,74
415,05	1314,80
415,25	1286,12
415,46	1318,89
415,67	1329,13
415,87	1189,87
416,08	1228,78
416,29	1306,60
416,49	1273,84
416,70	1208,30
416,91	1263,60
417,11	1206,25
417,32	1286,12
417,53	1220,59
417,73	1347,56
417,94	1284,08
418,15	1273,84
418,35	1290,22
418,56	1269,74
418,77	1290,22
418,97	1255,40
419,18	1308,65
419,38	1306,60
419,59	1261,55
419,80	1150,96
420,00	1236,97
420,21	1245,16
420,42	1269,74
420,62	1298,41
420,83	1310,70
421,04	1226,73
421,24	1216,49
421,45	1259,50
421,65	1265,64
421,86	1263,60
422,07	1232,88
422,27	1226,73
422,48	1226,73
422,69	1253,36
422,89	1298,41
423,10	1282,03
423,30	1327,08
423,51	1241,07
423,72	1212,40
423,92	1222,64
424,13	1261,55
424,33	1320,94
424,54	1288,17
424,75	1320,94
424,95	1265,64
425,16	1306,60
425,36	1310,70
425,57	1255,40
425,78	1247,21
425,98	1343,47
426,19	1222,64
426,39	1212,40
426,60	1292,27
426,81	1286,12
427,01	1300,46
427,22	1312,75
427,42	1294,32
427,63	1255,40
427,83	1253,36
428,04	1263,60
428,25	1320,94
428,45	1292,27
428,66	1253,36
428,86	1335,28
429,07	1318,89
429,28	1245,16
429,48	1243,12
429,69	1249,26
429,89	1265,64
430,10	1267,69
430,30	1269,74
430,51	1290,22
430,71	1331,18
430,92	1220,59
431,13	1251,31
431,33	1298,41
431,54	1251,31
431,74	1263,60
431,95	1292,27
432,15	1286,12
432,36	1200,11
432,56	1191,92
432,77	1265,64
432,98	1247,21
433,18	1304,56
433,39	1282,03
433,59	1286,12
433,80	1294,32
434,00	1286,12
434,21	1249,26
434,41	1253,36
434,62	1288,17
434,82	1308,65
435,03	1286,12
435,23	1232,88
435,44	1208,30
435,64	1286,12
435,85	1279,98
436,06	1265,64
436,26	1306,60
436,47	1265,64
436,67	1243,12
436,88	1304,56
437,08	1329,13
437,29	1271,79
437,49	1263,60
437,70	1312,75
437,90	1259,50
438,11	1325,04
438,31	1261,55
438,52	1306,60
438,72	1290,22
438,93	1243,12
439,13	1296,36
439,34	1302,51
439,54	1257,45
439,75	1304,56
439,95	1257,45
440,16	1257,45
440,36	1253,36
440,57	1255,40
440,77	1304,56
440,98	1232,88
441,18	1267,69
441,39	1286,12
441,59	1241,07
441,80	1277,93
442,00	1267,69
442,21	1218,54
442,41	1259,50
442,62	1200,11
442,82	1298,41
443,02	1277,93
443,23	1214,45
443,43	1271,79
443,64	1261,55
443,84	1265,64
444,05	1271,79
444,25	1189,87
444,46	1247,21
444,66	1335,28
444,87	1253,36
445,07	1257,45
445,28	1239,02
445,48	1304,56
445,69	1243,12
445,89	1304,56
446,09	1273,84
446,30	1290,22
446,50	1267,69
446,71	1241,07
446,91	1241,07
447,12	1327,08
447,32	1327,08
447,53	1189,87
447,73	1290,22
447,93	1241,07
448,14	1241,07
448,34	1263,60
448,55	1269,74
448,75	1275,88
448,96	1318,89
449,16	1249,26
449,36	1325,04
449,57	1249,26
449,77	1265,64
449,98	1273,84
450,18	1320,94
450,39	1269,74
450,59	1267,69
450,79	1300,46
451,00	1261,55
451,20	1239,02
451,41	1355,76
451,61	1222,64
451,81	1314,80
452,02	1273,84
452,22	1265,64
452,43	1335,28
452,63	1269,74
452,84	1290,22
453,04	1265,64
453,24	1189,87
453,45	1214,45
453,65	1265,64
453,86	1257,45
454,06	1302,51
454,26	1290,22
454,47	1271,79
454,67	1331,18
454,87	1226,73
455,08	1300,46
455,28	1257,45
455,49	1243,12
455,69	1245,16
455,89	1271,79
456,10	1239,02
456,30	1212,40
456,51	1243,12
456,71	1261,55
456,91	1204,21
457,12	1282,03
457,32	1339,37
457,52	1187,82
457,73	1196,01
457,93	1234,93
458,14	1277,93
458,34	1224,69
458,54	1288,17
458,75	1261,55
458,95	1243,12
459,15	1232,88
459,36	1325,04
459,56	1302,51
459,76	1288,17
459,97	1284,08
460,17	1277,93
460,37	1292,27
460,58	1185,77
460,78	1357,80
460,99	1224,69
461,19	1314,80
461,39	1279,98
461,60	1312,75
461,80	1273,84
462,00	1241,07
462,21	1220,59
462,41	1239,02
462,61	1228,78
462,82	1277,93
463,02	1292,27
463,22	1273,84
463,43	1220,59
463,63	1271,79
463,83	1261,55
464,04	1292,27
464,24	1286,12
464,44	1290,22
464,64	1251,31
464,85	1257,45
465,05	1218,54
465,25	1267,69
465,46	1224,69
465,66	1249,26
465,86	1271,79
466,07	1282,03
466,27	1267,69
466,47	1322,99
466,68	1267,69
466,88	1363,95
467,08	1204,21
467,29	1275,88
467,49	1253,36
467,69	1257,45
467,89	1316,84
468,10	1202,16
468,30	1286,12
468,50	1366,00
468,71	1224,69
468,91	1279,98
469,11	1282,03
469,31	1273,84
469,52	1251,31
469,72	1232,88
469,92	1312,75
470,13	1329,13
470,33	1310,70
470,53	1298,41
470,73	1251,31
470,94	1279,98
471,14	1318,89
471,34	1271,79
471,54	1265,64
471,75	1325,04
471,95	1261,55
472,15	1312,75
472,36	1259,50
472,56	1314,80
472,76	1304,56
472,96	1298,41
473,17	1355,76
473,37	1234,93
473,57	1265,64
473,77	1273,84
473,98	1273,84
474,18	1306,60
474,38	1218,54
474,58	1292,27
474,79	1306,60
474,99	1314,80
475,19	1277,93
475,39	1282,03
475,60	1241,07
475,80	1232,88
476,00	1261,55
476,20	1290,22
476,41	1306,60
476,61	1312,75
476,81	1255,40
477,01	1249,26
477,21	1245,16
477,42	1243,12
477,62	1257,45
477,82	1390,57
478,02	1333,23
478,23	1251,31
478,43	1224,69
478,63	1259,50
478,83	1277,93
479,03	1290,22
479,24	1214,45
479,44	1292,27
479,64	1247,21
479,84	1251,31
480,04	1292,27
480,25	1302,51
480,45	1230,83
480,65	1288,17
480,85	1210,35
481,06	1210,35
481,26	1234,93
481,46	1255,40
481,66	1277,93
481,86	1191,92
482,06	1316,84
482,27	1239,02
482,47	1236,97
482,67	1286,12
482,87	1370,09
483,07	1230,83
483,28	1224,69
483,48	1261,55
483,68	1257,45
483,88	1185,77
484,08	1308,65
484,29	1243,12
484,49	1308,65
484,69	1261,55
484,89	1212,40
485,09	1269,74
485,29	1361,90
485,50	1327,08
485,70	1298,41
485,90	1259,50
486,10	1243,12
486,30	1310,70
486,50	1230,83
486,71	1277,93
486,91	1251,31
487,11	1273,84
487,31	1251,31
487,51	1265,64
487,71	1288,17
487,91	1220,59
488,12	1261,55
488,32	1232,88
488,52	1243,12
488,72	1218,54
488,92	1275,88
489,12	1255,40
489,32	1265,64
489,53	1286,12
489,73	1243,12
489,93	1277,93
490,13	1263,60
490,33	1263,60
490,53	1255,40
490,73	1241,07
490,94	1239,02
491,14	1236,97
491,34	1265,64
491,54	1255,40
491,74	1226,73
491,94	1312,75
492,14	1277,93
492,34	1343,47
492,54	1292,27
492,75	1187,82
492,95	1273,84
493,15	1329,13
493,35	1292,27
493,55	1322,99
493,75	1236,97
493,95	1302,51
494,15	1277,93
494,35	1206,25
494,56	1335,28
494,76	1232,88
494,96	1232,88
495,16	1306,60
495,36	1257,45
495,56	1284,08
495,76	1230,83
495,96	1212,40
496,16	1267,69
496,36	1210,35
496,56	1275,88
496,77	1224,69
496,97	1275,88
497,17	1310,70
497,37	1394,67
497,57	1290,22
497,77	1288,17
497,97	1275,88
498,17	1310,70
498,37	1302,51
498,57	1200,11
498,77	1316,84
498,97	1277,93
499,17	1230,83
499,38	1290,22
499,58	1294,32
499,78	1284,08
499,98	1318,89
500,18	1308,65
500,38	1294,32
500,58	1275,88
500,78	1298,41
500,98	1249,26
501,18	1288,17
501,38	1286,12
501,58	1351,66
501,78	1245,16
501,98	1241,07
502,18	1236,97
502,38	1312,75
502,58	1230,83
502,78	1331,18
502,98	1249,26
503,18	1292,27
503,38	1214,45
503,59	1220,59
503,79	1263,60
503,99	1200,11
504,19	1241,07
504,39	1255,40
504,59	1198,06
504,79	1306,60
504,99	1290,22
505,19	1253,36
505,39	1322,99
505,59	1337,32
505,79	1263,60
505,99	1290,22
506,19	1284,08
506,39	1249,26
506,59	1259,50
506,79	1265,64
506,99	1271,79
507,19	1261,55
507,39	1245,16
507,59	1292,27
507,79	1277,93
507,99	1331,18
508,19	1198,06
508,39	1232,88
508,59	1288,17
508,79	1282,03
508,99	1267,69
509,19	1249,26
509,39	1193,97
509,59	1267,69
509,79	1236,97
509,99	1251,31
510,19	1261,55
510,39	1200,11
510,59	1247,21
510,79	1279,98
510,99	1296,36
511,19	1226,73
511,39	1265,64
511,59	1216,49
511,79	1255,40
511,99	1214,45
512,19	1284,08
512,38	1214,45
512,58	1236,97
512,78	1355,76
512,98	1294,32
513,18	1282,03
513,38	1273,84
513,58	1251,31
513,78	1251,31
513,98	1279,98
514,18	1253,36
514,38	1198,06
514,58	1329,13
514,78	1196,01
514,98	1245,16
515,18	1204,21
515,38	1226,73
515,58	1296,36
515,78	1275,88
515,98	1314,80
516,18	1292,27
516,38	1314,80
516,57	1216,49
516,77	1318,89
516,97	1163,25
517,17	1228,78
517,37	1265,64
517,57	1265,64
517,77	1263,60
517,97	1310,70
518,17	1259,50
518,37	1239,02
518,57	1286,12
518,77	1196,01
518,97	1271,79
519,16	1208,30
519,36	1316,84
519,56	1257,45
519,76	1210,35
519,96	1282,03
520,16	1247,21
520,36	1304,56
520,56	1226,73
520,76	1247,21
520,96	1206,25
521,16	1263,60
521,35	1202,16
521,55	1230,83
521,75	1243,12
521,95	1198,06
522,15	1325,04
522,35	1263,60
522,55	1228,78
522,75	1263,60
522,95	1257,45
523,14	1312,75
523,34	1327,08
523,54	1267,69
523,74	1224,69
523,94	1277,93
524,14	1208,30
524,34	1193,97
524,54	1304,56
524,73	1255,40
524,93	1228,78
525,13	1318,89
525,33	1247,21
525,53	1247,21
525,73	1255,40
525,93	1296,36
526,13	1251,31
526,32	1226,73
526,52	1259,50
526,72	1261,55
526,92	1241,07
527,12	1236,97
527,32	1206,25
527,52	1210,35
527,71	1267,69
527,91	1243,12
528,11	1220,59
528,31	1253,36
528,51	1249,26
528,71	1292,27
528,90	1277,93
529,10	1222,64
529,30	1232,88
529,50	1224,69
529,70	1288,17
529,90	1245,16
530,09	1282,03
530,29	1277,93
530,49	1273,84
530,69	1271,79
530,89	1331,18
531,09	1251,31
531,28	1232,88
531,48	1224,69
531,68	1329,13
531,88	1243,12
532,08	1271,79
532,28	1279,98
532,47	1306,60
532,67	1228,78
532,87	1275,88
533,07	1411,05
533,27	1288,17
533,46	1267,69
533,66	1191,92
533,86	1282,03
534,06	1380,33
534,26	1261,55
534,45	1234,93
534,65	1351,66
534,85	1222,64
535,05	1255,40
535,25	1292,27
535,44	1259,50
535,64	1277,93
535,84	1214,45
536,04	1247,21
536,24	1226,73
536,43	1265,64
536,63	1380,33
536,83	1300,46
537,03	1241,07
537,22	1259,50
537,42	1239,02
537,62	1286,12
537,82	1316,84
538,02	1261,55
538,21	1279,98
538,41	1337,32
538,61	1302,51
538,81	1298,41
539,00	1265,64
539,20	1263,60
539,40	1288,17
539,60	1236,97
539,79	1210,35
539,99	1277,93
540,19	1198,06
540,39	1372,14
540,58	1224,69
540,78	1310,70
540,98	1316,84
541,18	1243,12
541,37	1296,36
541,57	1202,16
541,77	1277,93
541,97	1300,46
542,16	1259,50
542,36	1279,98
542,56	1259,50
542,76	1263,60
542,95	1310,70
543,15	1406,95
543,35	1296,36
543,54	1261,55
543,74	1273,84
543,94	1290,22
544,14	1318,89
544,33	1230,83
544,53	1183,73
544,73	1304,56
544,93	1236,97
545,12	1279,98
545,32	1329,13
545,52	1310,70
545,71	1271,79
545,91	1273,84
546,11	1257,45
546,30	1269,74
546,50	1241,07
546,70	1208,30
546,90	1282,03
547,09	1312,75
547,29	1189,87
547,49	1247,21
547,68	1265,64
547,88	1267,69
548,08	1177,58
548,27	1288,17
548,47	1294,32
548,67	1300,46
548,87	1296,36
549,06	1257,45
549,26	1267,69
549,46	1331,18
549,65	1275,88
549,85	1206,25
550,05	1273,84
550,24	1247,21
550,44	1304,56
550,64	1255,40
550,83	1267,69
551,03	1302,51
551,23	1288,17
551,42	1286,12
551,62	1282,03
551,82	1335,28
552,01	1302,51
552,21	1275,88
552,41	1230,83
552,60	1304,56
552,80	1277,93
553,00	1226,73
553,19	1335,28
553,39	1232,88
553,59	1292,27
553,78	1243,12
553,98	1198,06
554,17	1208,30
554,37	1214,45
554,57	1157,10
554,76	1232,88
554,96	1224,69
555,16	1255,40
555,35	1263,60
555,55	1290,22
555,75	1230,83
555,94	1310,70
556,14	1255,40
556,33	1279,98
556,53	1236,97
556,73	1220,59
556,92	1267,69
557,12	1277,93
557,32	1288,17
557,51	1259,50
557,71	1236,97
557,90	1249,26
558,10	1275,88
558,30	1204,21
558,49	1257,45
558,69	1322,99
558,88	1249,26
559,08	1191,92
559,28	1290,22
559,47	1304,56
559,67	1261,55
559,86	1306,60
560,06	1277,93
560,26	1251,31
560,45	1245,16
560,65	1249,26
560,84	1343,47
561,04	1253,36
561,24	1345,52
561,43	1290,22
561,63	1236,97
561,82	1230,83
562,02	1230,83
562,22	1216,49
562,41	1187,82
562,61	1247,21
562,80	1286,12
563,00	1247,21
563,19	1239,02
563,39	1239,02
563,59	1306,60
563,78	1300,46
563,98	1335,28
564,17	1208,30
564,37	1267,69
564,56	1275,88
564,76	1208,30
564,96	1263,60
565,15	1294,32
565,35	1327,08
565,54	1263,60
565,74	1239,02
565,93	1288,17
566,13	1308,65
566,32	1261,55
566,52	1312,75
566,71	1265,64
566,91	1306,60
567,11	1368,04
567,30	1294,32
567,50	1298,41
567,69	1259,50
567,89	1288,17
568,08	1273,84
568,28	1232,88
568,47	1271,79
568,67	1245,16
568,86	1282,03
569,06	1259,50
569,25	1288,17
569,45	1312,75
569,64	1275,88
569,84	1290,22
570,04	1265,64
570,23	1298,41
570,43	1230,83
570,62	1284,08
570,82	1320,94
571,01	1294,32
571,21	1343,47
571,40	1296,36
571,60	1292,27
571,79	1284,08
571,99	1298,41
572,18	1261,55
572,38	1279,98
572,57	1255,40
572,77	1296,36
572,96	1271,79
573,16	1279,98
573,35	1296,36
573,55	1298,41
573,74	1294,32
573,94	1257,45
574,13	1236,97
574,33	1226,73
574,52	1286,12
574,71	1273,84
574,91	1220,59
575,10	1241,07
575,30	1306,60
575,49	1245,16
575,69	1230,83
575,88	1234,93
576,08	1187,82
576,27	1288,17
576,47	1241,07
576,66	1273,84
576,86	1261,55
577,05	1288,17
577,25	1294,32
577,44	1331,18
577,64	1292,27
577,83	1275,88
578,02	1288,17
578,22	1361,90
578,41	1257,45
578,61	1282,03
578,80	1306,60
579,00	1288,17
579,19	1232,88
579,39	1279,98
579,58	1243,12
579,77	1286,12
579,97	1275,88
580,16	1306,60
580,36	1228,78
580,55	1267,69
580,75	1269,74
580,94	1316,84
581,13	1300,46
581,33	1267,69
581,52	1271,79
581,72	1255,40
581,91	1243,12
582,11	1314,80
582,30	1355,76
582,49	1181,68
582,69	1296,36
582,88	1370,09
583,08	1312,75
583,27	1210,35
583,47	1284,08
583,66	1271,79
583,85	1226,73
584,05	1290,22
584,24	1275,88
584,44	1247,21
584,63	1265,64
584,82	1380,33
585,02	1310,70
585,21	1245,16
585,41	1247,21
585,60	1284,08
585,79	1277,93
585,99	1322,99
586,18	1247,21
586,37	1273,84
586,57	1189,87
586,76	1257,45
586,96	1282,03
587,15	1232,88
587,34	1257,45
587,54	1275,88
587,73	1257,45
587,93	1294,32
588,12	1218,54
588,31	1222,64
588,51	1333,23
588,70	1271,79
588,89	1171,44
589,09	1271,79
589,28	1265,64
589,47	1216,49
589,67	1312,75
589,86	1275,88
590,06	1361,90
590,25	1232,88
590,44	1224,69
590,64	1245,16
590,83	1312,75
591,02	1206,25
591,22	1304,56
591,41	1279,98
591,60	1318,89
591,80	1267,69
591,99	1204,21
592,18	1290,22
592,38	1314,80
592,57	1216,49
592,76	1288,17
592,96	1300,46
593,15	1241,07
593,34	1320,94
593,54	1249,26
593,73	1322,99
593,92	1267,69
594,12	1355,76
594,31	1232,88
594,50	1206,25
594,70	1271,79
594,89	1288,17
595,08	1269,74
595,28	1304,56
595,47	1296,36
595,66	1300,46
595,86	1191,92
596,05	1282,03
596,24	1261,55
596,43	1245,16
596,63	1279,98
596,82	1316,84
597,01	1161,20
597,21	1308,65
597,40	1183,73
597,59	1234,93
597,79	1269,74
597,98	1275,88
598,17	1294,32
598,36	1312,75
598,56	1337,32
598,75	1288,17
598,94	1273,84
599,14	1220,59
599,33	1210,35
599,52	1251,31
599,71	1306,60
599,91	1253,36
600,10	1196,01
600,29	1279,98
600,48	1331,18
600,68	1294,32
600,87	1286,12
601,06	1200,11
601,26	1267,69
601,45	1232,88
601,64	1284,08
601,83	1302,51
602,03	1232,88
602,22	1267,69
602,41	1294,32
602,60	1279,98
602,80	1265,64
602,99	1310,70
603,18	1300,46
603,37	1273,84
603,57	1210,35
603,76	1251,31
603,95	1222,64
604,14	1282,03
604,34	1263,60
604,53	1282,03
604,72	1263,60
604,91	1351,66
605,10	1198,06
605,30	1327,08
605,49	1253,36
605,68	1345,52
605,87	1232,88
606,07	1275,88
606,26	1294,32
606,45	1282,03
606,64	1320,94
606,84	1322,99
607,03	1220,59
607,22	1210,35
607,41	1232,88
607,60	1282,03
607,80	1286,12
607,99	1273,84
608,18	1288,17
608,37	1322,99
608,56	1265,64
608,76	1314,80
608,95	1279,98
609,14	1290,22
609,33	1267,69
609,52	1259,50
609,72	1306,60
609,91	1310,70
610,10	1325,04
610,29	1292,27
610,48	1234,93
610,68	1214,45
610,87	1228,78
611,06	1322,99
611,25	1304,56
611,44	1247,21
611,63	1234,93
611,83	1200,11
612,02	1271,79
612,21	1232,88
612,40	1263,60
612,59	1335,28
612,79	1308,65
612,98	1333,23
613,17	1282,03
613,36	1288,17
613,55	1329,13
613,74	1314,80
613,93	1257,45
614,13	1214,45
614,32	1167,34
614,51	1243,12
614,70	1200,11
614,89	1292,27
615,08	1267,69
615,28	1269,74
615,47	1339,37
615,66	1275,88
615,85	1277,93
616,04	1302,51
616,23	1265,64
616,42	1296,36
616,62	1304,56
616,81	1277,93
617,00	1308,65
617,19	1263,60
617,38	1269,74
617,57	1241,07
617,76	1269,74
617,95	1220,59
618,15	1243,12
618,34	1261,55
618,53	1286,12
618,72	1370,09
618,91	1255,40
619,10	1198,06
619,29	1296,36
619,48	1361,90
619,68	1191,92
619,87	1273,84
620,06	1282,03
620,25	1337,32
620,44	1269,74
620,63	1259,50
620,82	1236,97
621,01	1290,22
621,20	1196,01
621,39	1243,12
621,59	1249,26
621,78	1316,84
621,97	1247,21
622,16	1277,93
622,35	1259,50
622,54	1277,93
622,73	1269,74
622,92	1263,60
623,11	1263,60
623,30	1339,37
623,49	1265,64
623,68	1273,84
623,88	1218,54
624,07	1257,45
624,26	1267,69
624,45	1236,97
624,64	1222,64
624,83	1200,11
625,02	1312,75
625,21	1273,84
625,40	1279,98
625,59	1306,60
625,78	1320,94
625,97	1296,36
626,16	1275,88
626,35	1267,69
626,54	1253,36
626,74	1304,56
626,93	1290,22
627,12	1284,08
627,31	1341,42
627,50	1304,56
627,69	1294,32
627,88	1316,84
628,07	1210,35
628,26	1282,03
628,45	1327,08
628,64	1320,94
628,83	1357,80
629,02	1294,32
629,21	1277,93
629,40	1370,09
629,59	1206,25
629,78	1267,69
629,97	1239,02
630,16	1263,60
630,35	1327,08
630,54	1302,51
630,73	1314,80
630,92	1363,95
631,11	1245,16
631,30	1329,13
631,49	1462,25
631,68	2451,42
631,87	11638,61
632,06	43933,03
632,25	65535,00
632,44	65535,00
632,63	65535,00
632,82	65535,00
633,01	65535,00
633,20	46040,39
633,39	21345,98
633,58	3651,53
633,77	3968,96
633,96	3248,08
634,15	2484,19
634,34	2064,35
634,53	1875,94
634,72	1912,80
634,91	1550,31
635,10	1583,08
635,29	1501,16
635,48	1566,70
635,67	1517,54
635,86	1464,30
636,05	1472,49
636,24	1357,80
636,43	1333,23
636,62	1439,72
636,81	1339,37
637,00	1306,60
637,19	1333,23
637,38	1337,32
637,57	1296,36
637,76	1314,80
637,95	1327,08
638,14	1300,46
638,33	1310,70
638,52	1335,28
638,71	1249,26
638,89	1257,45
639,08	1265,64
639,27	1277,93
639,46	1308,65
639,65	1347,56
639,84	1312,75
640,03	1273,84
640,22	1277,93
640,41	1261,55
640,60	1230,83
640,79	1298,41
640,98	1282,03
641,17	1251,31
641,36	1255,40
641,55	1290,22
641,74	1304,56
641,92	1300,46
642,11	1210,35
642,30	1282,03
642,49	1251,31
642,68	1257,45
642,87	1337,32
643,06	1374,19
643,25	1181,68
643,44	1284,08
643,63	1277,93
643,82	1363,95
644,00	1267,69
644,19	1185,77
644,38	1255,40
644,57	1282,03
644,76	1279,98
644,95	1230,83
645,14	1267,69
645,33	1288,17
645,52	1269,74
645,71	1214,45
645,89	1302,51
646,08	1349,61
646,27	1261,55
646,46	1331,18
646,65	1298,41
646,84	1343,47
647,03	1284,08
647,22	1263,60
647,40	1251,31
647,59	1265,64
647,78	1286,12
647,97	1263,60
648,16	1257,45
648,35	1255,40
648,54	1290,22
648,73	1282,03
648,91	1224,69
649,10	1306,60
649,29	1292,27
649,48	1222,64
649,67	1308,65
649,86	1226,73
650,05	1298,41
650,23	1357,80
650,42	1290,22
650,61	1296,36
650,80	1296,36
650,99	1222,64
651,18	1261,55
651,36	1279,98
651,55	1257,45
651,74	1331,18
651,93	1220,59
652,12	1312,75
652,31	1284,08
652,49	1255,40
652,68	1290,22
652,87	1312,75
653,06	1232,88
653,25	1265,64
653,44	1339,37
653,62	1327,08
653,81	1273,84
654,00	1296,36
654,19	1249,26
654,38	1206,25
654,56	1277,93
654,75	1312,75
654,94	1193,97
655,13	1279,98
655,32	1275,88
655,51	1247,21
655,69	1310,70
655,88	1290,22
656,07	1325,04
656,26	1269,74
656,45	1202,16
656,63	1296,36
656,82	1226,73
657,01	1267,69
657,20	1310,70
657,38	1302,51
657,57	1265,64
657,76	1279,98
657,95	1271,79
658,14	1290,22
658,32	1296,36
658,51	1255,40
658,70	1286,12
658,89	1224,69
659,08	1206,25
659,26	1320,94
659,45	1351,66
659,64	1304,56
659,83	1329,13
660,01	1181,68
660,20	1269,74
660,39	1265,64
660,58	1275,88
660,76	1304,56
660,95	1312,75
661,14	1234,93
661,33	1271,79
661,51	1339,37
661,70	1234,93
661,89	1185,77
662,08	1296,36
662,26	1245,16
662,45	1277,93
662,64	1200,11
662,83	1329,13
663,01	1290,22
663,20	1232,88
663,39	1282,03
663,58	1228,78
663,76	1269,74
663,95	1236,97
664,14	1253,36
664,32	1255,40
664,51	1275,88
664,70	1296,36
664,89	1282,03
665,07	1239,02
665,26	1216,49
665,45	1294,32
665,64	1167,34
665,82	1296,36
666,01	1277,93
666,20	1228,78
666,38	1236,97
666,57	1292,27
666,76	1228,78
666,95	1271,79
667,13	1245,16
667,32	1279,98
667,51	1294,32
667,69	1288,17
667,88	1279,98
668,07	1284,08
668,25	1191,92
668,44	1339,37
668,63	1220,59
668,81	1277,93
669,00	1183,73
669,19	1349,61
669,38	1222,64
669,56	1333,23
669,75	1282,03
669,94	1271,79
670,12	1204,21
670,31	1359,85
670,50	1282,03
670,68	1259,50
670,87	1269,74
671,06	1247,21
671,24	1316,84
671,43	1322,99
671,62	1304,56
671,80	1345,52
671,99	1296,36
672,18	1273,84
672,36	1251,31
672,55	1265,64
672,74	1253,36
672,92	1214,45
673,11	1247,21
673,29	1226,73
673,48	1241,07
673,67	1200,11
673,85	1302,51
674,04	1378,28
674,23	1273,84
674,41	1286,12
674,60	1337,32
674,79	1218,54
674,97	1279,98
675,16	1241,07
675,34	1290,22
675,53	1228,78
675,72	1312,75
675,90	1275,88
676,09	1271,79
676,28	1318,89
676,46	1212,40
676,65	1290,22
676,83	1263,60
677,02	1290,22
677,21	1279,98
677,39	1316,84
677,58	1273,84
677,77	1275,88
677,95	1286,12
678,14	1359,85
678,32	1277,93
678,51	1241,07
678,70	1277,93
678,88	1214,45
679,07	1284,08
679,25	1294,32
679,44	1249,26
679,63	1279,98
679,81	1208,30
680,00	1241,07
680,18	1253,36
680,37	1294,32
680,55	1282,03
680,74	1249,26
680,93	1277,93
681,11	1339,37
681,30	1261,55
681,48	1271,79
681,67	1273,84
681,85	1267,69
682,04	1206,25
682,23	1337,32
682,41	1314,80
682,60	1349,61
682,78	1255,40
682,97	1298,41
683,15	1257,45
683,34	1316,84
683,53	1267,69
683,71	1312,75
683,90	1236,97
684,08	1273,84
684,27	1331,18
684,45	1255,40
684,64	1179,63
684,82	1247,21
685,01	1261,55
685,19	1314,80
685,38	1306,60
685,57	1286,12
685,75	1306,60
685,94	1341,42
686,12	1314,80
686,31	1222,64
686,49	1259,50
686,68	1337,32
686,86	1318,89
687,05	1320,94
687,23	1265,64
687,42	1314,80
687,60	1304,56
687,79	1308,65
687,97	1279,98
688,16	1318,89
688,34	1357,80
688,53	1267,69
688,71	1230,83
688,90	1216,49
689,08	1288,17
689,27	1298,41
689,45	1337,32
689,64	1208,30
689,82	1239,02
690,01	1189,87
690,19	1245,16
690,38	1277,93
690,56	1300,46
690,75	1286,12
690,93	1306,60
691,12	1290,22
691,30	1318,89
691,49	1239,02
691,67	1325,04
691,86	1300,46
692,04	1339,37
692,23	1286,12
692,41	1312,75
692,60	1234,93
692,78	1314,80
692,97	1144,81
693,15	1267,69
693,34	1257,45
693,52	1284,08
693,71	1318,89
693,89	1234,93
694,08	1300,46
694,26	1290,22
694,44	1259,50
694,63	1325,04
694,81	1253,36
695,00	1314,80
695,18	1232,88
695,37	1269,74
695,55	1273,84
695,74	1259,50
695,92	1286,12
696,10	1290,22
696,29	1271,79
696,47	1261,55
696,66	1269,74
696,84	1288,17
697,03	1245,16
697,21	1288,17
697,40	1310,70
697,58	1279,98
697,76	1269,74
697,95	1212,40
698,13	1232,88
698,32	1259,50
698,50	1261,55
698,68	1339,37
698,87	1322,99
699,05	1279,98
699,24	1261,55
699,42	1286,12
699,61	1306,60
699,79	1243,12
699,97	1253,36
700,16	1284,08
700,34	1325,04
700,53	1349,61
700,71	1204,21
700,89	1339,37
701,08	1329,13
701,26	1286,12
701,45	1275,88
701,63	1224,69
701,81	1294,32
702,00	1206,25
702,18	1269,74
702,37	1241,07
702,55	1292,27
702,73	1290,22
702,92	1173,49
703,10	1290,22
703,28	1288,17
703,47	1265,64
703,65	1320,94
703,84	1261,55
704,02	1249,26
704,20	1255,40
704,39	1245,16
704,57	1310,70
704,75	1259,50
704,94	1279,98
705,12	1263,60
705,30	1296,36
705,49	1341,42
705,67	1304,56
705,86	1298,41
706,04	1279,98
706,22	1300,46
706,41	1204,21
706,59	1298,41
706,77	1294,32
706,96	1226,73
707,14	1275,88
707,32	1273,84
707,51	1325,04
707,69	1269,74
707,87	1241,07
708,06	1300,46
708,24	1183,73
708,42	1341,42
708,61	1290,22
708,79	1220,59
708,97	1216,49
709,16	1296,36
709,34	1306,60
709,52	1220,59
709,71	1196,01
709,89	1234,93
710,07	1234,93
710,26	1261,55
710,44	1269,74
710,62	1267,69
710,80	1290,22
710,99	1253,36
711,17	1277,93
711,35	1343,47
711,54	1339,37
711,72	1282,03
711,90	1361,90
712,09	1200,11
712,27	1214,45
712,45	1314,80
712,63	1265,64
712,82	1236,97
713,00	1269,74
713,18	1279,98
713,37	1333,23
713,55	1245,16
713,73	1339,37
713,91	1226,73
714,10	1290,22
714,28	1288,17
714,46	1337,32
714,65	1261,55
714,83	1308,65
715,01	1208,30
715,19	1290,22
715,38	1243,12
715,56	1277,93
715,74	1304,56
715,92	1249,26
716,11	1271,79
716,29	1310,70
716,47	1275,88
716,65	1349,61
716,84	1224,69
717,02	1294,32
717,20	1273,84
717,38	1273,84
717,57	1284,08
717,75	1241,07
717,93	1279,98
718,11	1327,08
718,30	1329,13
718,48	1218,54
718,66	1304,56
718,84	1265,64
719,03	1345,52
719,21	1243,12
719,39	1316,84
719,57	1208,30
719,75	1269,74
719,94	1310,70
720,12	1245,16
720,30	1212,40
720,48	1257,45
720,67	1255,40
720,85	1234,93
721,03	1243,12
721,21	1275,88
721,39	1306,60
721,58	1179,63
721,76	1318,89
721,94	1271,79
722,12	1271,79
722,30	1335,28
722,49	1243,12
722,67	1279,98
722,85	1312,75
723,03	1257,45
723,21	1341,42
723,40	1310,70
723,58	1327,08
723,76	1196,01
723,94	1271,79
724,12	1310,70
724,30	1298,41
724,49	1253,36
724,67	1255,40
724,85	1322,99
725,03	1230,83
725,21	1288,17
725,40	1269,74
725,58	1269,74
725,76	1261,55
725,94	1259,50
726,12	1271,79
726,30	1179,63
726,49	1255,40
726,67	1294,32
726,85	1290,22
727,03	1230,83
727,21	1210,35
727,39	1277,93
727,57	1239,02
727,76	1208,30
727,94	1267,69
728,12	1298,41
728,30	1257,45
728,48	1263,60
728,66	1286,12
728,84	1222,64
729,03	1245,16
729,21	1216,49
729,39	1306,60
729,57	1335,28
729,75	1273,84
729,93	1232,88
730,11	1261,55
730,30	1228,78
730,48	1263,60
730,66	1325,04
730,84	1239,02
731,02	1286,12
731,20	1198,06
731,38	1218,54
731,56	1247,21
731,74	1286,12
731,93	1275,88
732,11	1255,40
732,29	1300,46
732,47	1298,41
732,65	1265,64
732,83	1245,16
733,01	1273,84
733,19	1210,35
733,37	1243,12
733,56	1288,17
733,74	1310,70
733,92	1204,21
734,10	1310,70
734,28	1198,06
734,46	1277,93
734,64	1351,66
734,82	1271,79
735,00	1288,17
735,18	1267,69
735,36	1241,07
735,54	1208,30
735,73	1196,01
735,91	1259,50
736,09	1241,07
736,27	1230,83
736,45	1386,47
736,63	1251,31
736,81	1230,83
736,99	1269,74
737,17	1245,16
737,35	1296,36
737,53	1353,71
737,71	1222,64
737,89	1333,23
738,07	1263,60
738,25	1275,88
738,43	1224,69
738,61	1300,46
738,80	1292,27
738,98	1304,56
739,16	1259,50
739,34	1298,41
739,52	1271,79
739,70	1236,97
739,88	1239,02
740,06	1257,45
740,24	1292,27
740,42	1273,84
740,60	1327,08
740,78	1263,60
740,96	1255,40
741,14	1249,26
741,32	1339,37
741,50	1296,36
741,68	1265,64
741,86	1243,12
742,04	1310,70
742,22	1284,08
742,40	1267,69
742,58	1279,98
742,76	1249,26
742,94	1304,56
743,12	1236,97
743,30	1222,64
743,48	1226,73
743,66	1218,54
743,84	1296,36
744,02	1333,23
744,20	1257,45
744,38	1257,45
744,56	1288,17
744,74	1347,56
744,92	1400,81
745,10	1302,51
745,28	1290,22
745,46	1245,16
745,64	1304,56
745,82	1298,41
746,00	1282,03
746,18	1275,88
746,36	1347,56
746,54	1196,01
746,72	1282,03
746,90	1232,88
747,08	1226,73
747,26	1275,88
747,44	1224,69
747,62	1288,17
747,80	1312,75
747,98	1290,22
748,15	1304,56
748,33	1337,32
748,51	1265,64
748,69	1284,08
748,87	1351,66
749,05	1398,76
749,23	1333,23
749,41	1279,98
749,59	1267,69
749,77	1183,73
749,95	1251,31
750,13	1257,45
750,31	1368,04
750,49	1273,84
750,67	1222,64
750,85	1249,26
751,03	1239,02
751,20	1265,64
751,38	1300,46
751,56	1220,59
751,74	1255,40
751,92	1173,49
752,10	1312,75
752,28	1282,03
752,46	1230,83
752,64	1232,88
752,82	1286,12
753,00	1304,56
753,18	1234,93
753,35	1284,08
753,53	1329,13
753,71	1251,31
753,89	1216,49
754,07	1236,97
754,25	1265,64
754,43	1200,11
754,61	1222,64
754,79	1320,94
754,97	1263,60
755,14	1341,42
755,32	1249,26
755,50	1298,41
755,68	1292,27
755,86	1294,32
756,04	1241,07
756,22	1234,93
756,40	1222,64
756,57	1206,25
756,75	1249,26
756,93	1298,41
757,11	1257,45
757,29	1269,74
757,47	1277,93
757,65	1249,26
757,82	1282,03
758,00	1243,12
758,18	1257,45
758,36	1318,89
758,54	1263,60
758,72	1337,32
758,90	1273,84
759,07	1251,31
759,25	1288,17
759,43	1306,60
759,61	1269,74
759,79	1249,26
759,97	1343,47
760,15	1206,25
760,32	1363,95
760,50	1214,45
760,68	1304,56
760,86	1249,26
761,04	1230,83
761,22	1247,21
761,39	1335,28
761,57	1247,21
761,75	1236,97
761,93	1263,60
762,11	1273,84
762,28	1214,45
762,46	1341,42
762,64	1304,56
762,82	1253,36
763,00	1218,54
763,18	1253,36
763,35	1290,22
763,53	1247,21
763,71	1271,79
763,89	1296,36
764,07	1275,88
764,24	1306,60
764,42	1279,98
764,60	1263,60
764,78	1265,64
764,96	1243,12
765,13	1261,55
765,31	1243,12
765,49	1212,40
765,67	1302,51
765,84	1214,45
766,02	1243,12
766,20	1302,51
766,38	1292,27
766,56	1306,60
766,73	1298,41
766,91	1267,69
767,09	1224,69
767,27	1245,16
767,44	1304,56
767,62	1349,61
767,80	1318,89
767,98	1208,30
768,15	1341,42
768,33	1218,54
768,51	1255,40
768,69	1228,78
768,87	1294,32
769,04	1329,13
769,22	1232,88
769,40	1259,50
769,58	1337,32
769,75	1241,07
769,93	1245,16
770,11	1286,12
770,28	1257,45
770,46	1290,22
770,64	1333,23
770,82	1243,12
770,99	1159,15
771,17	1255,40
771,35	1232,88
771,53	1253,36
771,70	1279,98
771,88	1273,84
772,06	1265,64
772,23	1273,84
772,41	1331,18
772,59	1226,73
772,77	1241,07
772,94	1230,83
773,12	1253,36
773,30	1255,40
773,47	1279,98
773,65	1210,35
773,83	1337,32
774,01	1210,35
774,18	1279,98
774,36	1282,03
774,54	1257,45
774,71	1286,12
774,89	1288,17
775,07	1247,21
775,24	1286,12
775,42	1277,93
775,60	1288,17
775,78	1187,82
775,95	1236,97
776,13	1187,82
776,31	1300,46
776,48	1239,02
776,66	1284,08
776,84	1284,08
777,01	1275,88
777,19	1241,07
777,37	1273,84
777,54	1218,54
777,72	1284,08
777,90	1308,65
778,07	1341,42
778,25	1310,70
778,43	1316,84
778,60	1243,12
778,78	1310,70
778,96	1255,40
779,13	1265,64
779,31	1222,64
779,49	1263,60
779,66	1181,68
779,84	1277,93
780,01	1335,28
780,19	1302,51
780,37	1329,13
780,54	1271,79
780,72	1253,36
780,90	1245,16
781,07	1273,84
781,25	1232,88
781,43	1282,03
781,60	1271,79
781,78	1279,98
781,95	1236,97
782,13	1206,25
782,31	1286,12
782,48	1269,74
782,66	1284,08
782,83	1261,55
783,01	1204,21
783,19	1228,78
783,36	1306,60
783,54	1284,08
783,72	1306,60
783,89	1286,12
784,07	1257,45
784,24	1253,36
784,42	1265,64
784,60	1314,80
784,77	1275,88
784,95	1214,45
785,12	1265,64
785,30	1279,98
785,47	1239,02
785,65	1320,94
785,83	1279,98
786,00	1300,46
786,18	1208,30
786,35	1234,93
786,53	1257,45
786,71	1265,64
786,88	1245,16
787,06	1282,03
787,23	1230,83
787,41	1245,16
787,58	1302,51
787,76	1277,93
787,94	1327,08
788,11	1312,75
788,29	1230,83
788,46	1251,31
788,64	1347,56
788,81	1325,04
788,99	1308,65
789,16	1284,08
789,34	1279,98
789,52	1259,50
789,69	1247,21
789,87	1224,69
790,04	1208,30
790,22	1261,55
790,39	1314,80
790,57	1269,74
790,74	1316,84
790,92	1294,32
791,09	1239,02
791,27	1296,36
791,44	1263,60
791,62	1263,60
791,79	1263,60
791,97	1230,83
792,15	1230,83
792,32	1257,45
792,50	1265,64
792,67	1339,37
792,85	1251,31
793,02	1249,26
793,20	1343,47
793,37	1298,41
793,55	1353,71
793,72	1314,80
793,90	1214,45
794,07	1198,06
794,25	1267,69
794,42	1249,26
794,60	1273,84
794,77	1277,93
794,95	1261,55
795,12	1282,03
795,30	1230,83
795,47	1322,99
795,65	1306,60
795,82	1265,64
796,00	1288,17
796,17	1331,18
796,34	1279,98
796,52	1302,51
796,69	1271,79
796,87	1273,84
797,04	1273,84
797,22	1339,37
797,39	1241,07
797,57	1251,31
797,74	1200,11
797,92	1302,51
798,09	1226,73
798,27	1312,75
798,44	1228,78
798,62	1224,69
798,79	1243,12
798,96	1232,88
799,14	1234,93
799,31	1314,80
799,49	1204,21
799,66	1267,69
799,84	1245,16
800,01	1282,03
800,19	1239,02
800,36	1253,36
800,53	1290,22
800,71	1320,94
800,88	1318,89
801,06	1261,55
801,23	1337,32
801,41	1292,27
801,58	1282,03
801,75	1296,36
801,93	1239,02
802,10	1224,69
802,28	1300,46
802,45	1304,56
802,63	1208,30
802,80	1241,07
802,97	1298,41
803,15	1312,75
803,32	1241,07
803,50	1314,80
803,67	1288,17
803,84	1218,54
804,02	1308,65
804,19	1286,12
804,37	1322,99
804,54	1302,51
804,71	1327,08
804,89	1335,28
805,06	1251,31
805,24	1320,94
805,41	1310,70
805,58	1308,65
805,76	1257,45
805,93	1277,93
806,10	1261,55
806,28	1243,12
806,45	1279,98
806,63	1275,88
806,80	1261,55
806,97	1296,36
807,15	1261,55
807,32	1241,07
807,49	1230,83
807,67	1265,64
807,84	1316,84
808,01	1296,36
808,19	1263,60
808,36	1298,41
808,54	1288,17
808,71	1325,04
808,88	1318,89
809,06	1282,03
809,23	1214,45
809,40	1230,83
809,58	1290,22
809,75	1232,88
809,92	1320,94
810,10	1298,41
810,27	1337,32
810,44	1316,84
810,62	1245,16
810,79	1298,41
810,96	1282,03
811,14	1302,51
811,31	1249,26
811,48	1290,22
811,66	1290,22
811,83	1310,70
812,00	1316,84
812,18	1286,12
812,35	1312,75
812,52	1273,84
812,69	1296,36
812,87	1320,94
813,04	1206,25
813,21	1255,40
813,39	1349,61
813,56	1284,08
813,73	1279,98
813,91	1273,84
814,08	1279,98
814,25	1286,12
814,42	1300,46
814,60	1157,10
814,77	1275,88
814,94	1257,45
815,12	1292,27
815,29	1236,97
815,46	1228,78
815,63	1241,07
815,81	1302,51
815,98	1298,41
816,15	1269,74
816,33	1275,88
816,50	1267,69
816,67	1300,46
816,84	1226,73
817,02	1271,79
817,19	1284,08
817,36	1290,22
817,53	1214,45
817,71	1394,67
817,88	1316,84
818,05	1306,60
818,22	1333,23
818,40	1327,08
818,57	1308,65
818,74	1239,02
818,91	1343,47
819,09	1236,97
819,26	1282,03
819,43	1239,02
819,60	1261,55
819,78	1269,74
819,95	1314,80
820,12	1339,37
820,29	1279,98
820,47	1300,46
820,64	1298,41
820,81	1304,56
820,98	1183,73
821,15	1322,99
821,33	1181,68
821,50	1255,40
821,67	1290,22
821,84	1247,21
822,02	1224,69
822,19	1304,56
822,36	1263,60
822,53	1222,64
822,70	1284,08
822,88	1230,83
823,05	1341,42
823,22	1310,70
823,39	1241,07
823,56	1222,64
823,74	1267,69
823,91	1314,80
824,08	1253,36
824,25	1318,89
824,42	1277,93
824,60	1310,70
824,77	1249,26
824,94	1249,26
825,11	1247,21
825,28	1261,55
825,45	1312,75
825,63	1322,99
825,80	1282,03
825,97	1261,55
826,14	1331,18
826,31	1212,40
826,48	1259,50
826,66	1282,03
826,83	1300,46
827,00	1300,46
827,17	1368,04
827,34	1228,78
827,51	1239,02
827,69	1300,46
827,86	1216,49
828,03	1312,75
828,20	1282,03
828,37	1269,74
828,54	1292,27
828,71	1189,87
828,89	1335,28
829,06	1220,59
829,23	1255,40
829,40	1169,39
829,57	1347,56
829,74	1236,97
829,91	1273,84
830,09	1298,41
830,26	1310,70
830,43	1300,46
830,60	1271,79
830,77	1265,64
830,94	1302,51
831,11	1269,74
831,28	1271,79
831,46	1277,93
831,63	1275,88
831,80	1265,64
831,97	1282,03
832,14	1255,40
832,31	1279,98
832,48	1249,26
832,65	1271,79
832,82	1253,36
832,99	1269,74
833,17	1359,85
833,34	1218,54
833,51	1261,55
833,68	1265,64
833,85	1314,80
834,02	1245,16
834,19	1288,17
834,36	1257,45
834,53	1232,88
834,70	1316,84
834,87	1261,55
835,04	1325,04
835,22	1239,02
835,39	1230,83
835,56	1206,25
835,73	1210,35
835,90	1335,28
836,07	1320,94
836,24	1210,35
836,41	1198,06
836,58	1261,55
836,75	1335,28
836,92	1265,64
837,09	1282,03
837,26	1339,37
837,43	1339,37
837,60	1253,36
837,77	1286,12
837,94	1282,03
838,12	1275,88
838,29	1236,97
838,46	1347,56
838,63	1306,60
838,80	1220,59
838,97	1308,65
839,14	1277,93
839,31	1251,31
839,48	1308,65
839,65	1222,64
839,82	1288,17
839,99	1331,18
840,16	1239,02
840,33	1279,98
840,50	1228,78
840,67	1234,93
840,84	1267,69
841,01	1236,97
841,18	1234,93
841,35	1277,93
841,52	1282,03
841,69	1359,85
841,86	1290,22
842,03	1257,45
842,20	1296,36
842,37	1269,74
842,54	1304,56
842,71	1228,78
842,88	1279,98
843,05	1257,45
843,22	1271,79
843,39	1284,08
843,56	1329,13
843,73	1202,16
843,90	1308,65
844,07	1222,64
844,24	1251,31
844,41	1210,35
844,58	1269,74
844,75	1265,64
844,92	1206,25
845,09	1273,84
845,26	1361,90
845,43	1337,32
845,60	1230,83
845,77	1263,60
845,94	1310,70
846,10	1257,45
846,27	1306,60
846,44	1261,55
846,61	1284,08
846,78	1224,69
846,95	1271,79
847,12	1257,45
847,29	1282,03
847,46	1206,25
847,63	1230,83
847,80	1204,21
847,97	1279,98
848,14	1249,26
848,31	1204,21
848,48	1234,93
848,65	1273,84
848,82	1249,26
848,98	1224,69
849,15	1273,84
849,32	1335,28
849,49	1224,69
849,66	1277,93
849,83	1347,56
850,00	1255,40
850,17	1277,93
850,34	1249,26
850,51	1304,56
850,68	1310,70
850,85	1257,45
851,01	1265,64
851,18	1282,03
851,35	1267,69
851,52	1284,08
851,69	1298,41
851,86	1286,12
852,03	1243,12
852,20	1255,40
852,37	1347,56
852,53	1210,35
852,70	1263,60
852,87	1329,13
853,04	1230,83
853,21	1296,36
853,38	1236,97
853,55	1251,31
853,72	1290,22
853,89	1232,88
854,05	1290,22
854,22	1230,83
854,39	1249,26
854,56	1298,41
854,73	1249,26
854,90	1302,51
855,07	1277,93
855,23	1230,83
855,40	1322,99
855,57	1304,56
855,74	1304,56
855,91	1374,19
856,08	1292,27
856,25	1267,69
856,41	1277,93
856,58	1255,40
856,75	1222,64
856,92	1247,21
857,09	1282,03
857,26	1202,16
857,42	1304,56
857,59	1296,36
857,76	1298,41
857,93	1239,02
858,10	1316,84
858,27	1286,12
858,43	1249,26
858,60	1265,64
858,77	1232,88
858,94	1341,42
859,11	1230,83
859,27	1173,49
859,44	1267,69
859,61	1316,84
859,78	1341,42
859,95	1247,21
860,12	1265,64
860,28	1243,12
860,45	1275,88
860,62	1300,46
860,79	1306,60
860,95	1308,65
861,12	1204,21
861,29	1234,93
861,46	1245,16
861,63	1239,02
861,79	1284,08
861,96	1224,69
862,13	1265,64
862,30	1257,45
862,47	1239,02
862,63	1351,66
862,80	1286,12
862,97	1243,12
863,14	1253,36
863,30	1275,88
863,47	1224,69
863,64	1279,98
863,81	1282,03
863,97	1298,41
864,14	1243,12
864,31	1247,21
864,48	1273,84
864,65	1382,38
864,81	1300,46
864,98	1251,31
865,15	1265,64
865,32	1282,03
865,48	1294,32
865,65	1253,36
865,82	1257,45
865,98	1216,49
866,15	1347,56
866,32	1241,07
866,49	1204,21
866,65	1269,74
866,82	1196,01
866,99	1253,36
867,16	1222,64
867,32	1288,17
867,49	1329,13
867,66	1296,36
867,83	1243,12
867,99	1261,55
868,16	1206,25
868,33	1251,31
868,49	1275,88
868,66	1329,13
868,83	1378,28
868,99	1228,78
869,16	1239,02
869,33	1202,16
869,50	1245,16
869,66	1310,70
869,83	1247,21
870,00	1310,70
870,16	1249,26
870,33	1265,64
870,50	1302,51
870,66	1247,21
870,83	1267,69
871,00	1214,45
871,17	1269,74
871,33	1202,16
871,50	1206,25
871,67	1277,93
871,83	1259,50
872,00	1265,64
872,17	1273,84
872,33	1284,08
872,50	1251,31
872,67	1249,26
872,83	1273,84
873,00	1265,64
873,17	1230,83
873,33	1259,50
873,50	1275,88
873,67	1279,98
873,83	1318,89
874,00	1277,93
874,16	1288,17
874,33	1261,55
874,50	1249,26
874,66	1261,55
874,83	1228,78
875,00	1286,12
875,16	1337,32
875,33	1288,17
875,50	1298,41
875,66	1230,83
875,83	1261,55
875,99	1255,40
876,16	1224,69
876,33	1198,06
876,49	1263,60
876,66	1267,69
876,83	1185,77
876,99	1290,22
877,16	1222,64
877,32	1300,46
877,49	1257,45
877,66	1234,93
877,82	1253,36
877,99	1314,80
878,15	1249,26
878,32	1259,50
878,49	1253,36
878,65	1271,79
878,82	1236,97
878,98	1273,84
879,15	1339,37
879,32	1296,36
879,48	1236,97
879,65	1275,88
879,81	1306,60
879,98	1263,60
880,15	1239,02
880,31	1275,88
880,48	1232,88
880,64	1228,78
880,81	1277,93
880,97	1320,94
881,14	1261,55
881,31	1296,36
881,47	1318,89
881,64	1245,16
881,80	1259,50
881,97	1230,83
882,13	1239,02
882,30	1232,88
882,47	1310,70
882,63	1228,78
882,80	1261,55
882,96	1239,02
883,13	1271,79
883,29	1196,01
883,46	1290,22
883,62	1239,02
883,79	1212,40
883,95	1286,12
884,12	1279,98
884,29	1271,79
884,45	1298,41
884,62	1253,36
884,78	1206,25
884,95	1290,22
885,11	1216,49
885,28	1255,40
885,44	1255,40
885,61	1267,69
885,77	1224,69
885,94	1300,46
886,10	1282,03
886,27	1253,36
886,43	1290,22
886,60	1277,93
886,76	1241,07
886,93	1204,21
887,09	1304,56
887,26	1282,03
887,42	1300,46
887,59	1271,79
887,75	1335,28
887,92	1245,16
888,08	1331,18
888,25	1331,18
888,41	1259,50
888,58	1255,40
888,74	1167,34
888,91	1232,88
>>>>>End Processed Spectral Data<<<<<
