SpectraSuite Data File
++++++++++++++++++++++++++++++++++++
Date: Sun Apr 03 13:57:34 CEST 2016
User: root
Dark Spectrum Present: No
Reference Spectrum Present: No
Number of Sampled Component Spectra: 1
Spectrometers: USB4C02835
Integration Time (usec): 10000 (USB4C02835)
Spectra Averaged: 1 (USB4C02835)
Boxcar Smoothing: 0 (USB4C02835)
Correct for Electrical Dark: No (USB4C02835)
Strobe/Lamp Enabled: No (USB4C02835)
Correct for Detector Non-linearity: No (USB4C02835)
Correct for Stray Light: No (USB4C02835)
Number of Pixels in Processed Spectrum: 3648
>>>>>Begin Processed Spectral Data<<<<<
177,47	1316,84
177,69	1316,84
177,91	1316,84
178,13	1212,40
178,36	1220,59
178,58	1146,86
178,80	1279,98
179,02	1255,40
179,24	1302,51
179,46	1298,41
179,68	1247,21
179,90	1292,27
180,13	1341,42
180,35	1253,36
180,57	1296,36
180,79	1322,99
181,01	1265,64
181,23	1236,97
181,45	1249,26
181,67	1335,28
181,90	1249,26
182,12	1275,88
182,34	1277,93
182,56	1290,22
182,78	1259,50
183,00	1263,60
183,22	1269,74
183,44	1273,84
183,66	1298,41
183,89	1333,23
184,11	1296,36
184,33	1251,31
184,55	1253,36
184,77	1198,06
184,99	1331,18
185,21	1302,51
185,43	1282,03
185,65	1286,12
185,87	1298,41
186,10	1320,94
186,32	1277,93
186,54	1259,50
186,76	1228,78
186,98	1288,17
187,20	1245,16
187,42	1288,17
187,64	1263,60
187,86	1243,12
188,08	1294,32
188,30	1204,21
188,52	1243,12
188,75	1302,51
188,97	1327,08
189,19	1234,93
189,41	1249,26
189,63	1245,16
189,85	1271,79
190,07	1255,40
190,29	1329,13
190,51	1239,02
190,73	1335,28
190,95	1255,40
191,17	1259,50
191,39	1243,12
191,61	1318,89
191,84	1282,03
192,06	1286,12
192,28	1320,94
192,50	1341,42
192,72	1292,27
192,94	1236,97
193,16	1314,80
193,38	1298,41
193,60	1275,88
193,82	1234,93
194,04	1216,49
194,26	1294,32
194,48	1312,75
194,70	1306,60
194,92	1312,75
195,14	1304,56
195,36	1269,74
195,58	1257,45
195,80	1282,03
196,02	1374,19
196,24	1337,32
196,46	1243,12
196,69	1294,32
196,91	1226,73
197,13	1275,88
197,35	1253,36
197,57	1322,99
197,79	1327,08
198,01	1198,06
198,23	1302,51
198,45	1269,74
198,67	1263,60
198,89	1286,12
199,11	1239,02
199,33	1292,27
199,55	1249,26
199,77	1267,69
199,99	1310,70
200,21	1249,26
200,43	1318,89
200,65	1292,27
200,87	1304,56
201,09	1265,64
201,31	1255,40
201,53	1306,60
201,75	1302,51
201,97	1253,36
202,19	1308,65
202,41	1359,85
202,63	1294,32
202,85	1249,26
203,07	1288,17
203,29	1290,22
203,51	1411,05
203,73	1294,32
203,95	1253,36
204,17	1325,04
204,39	1292,27
204,61	1261,55
204,83	1261,55
205,05	1228,78
205,27	1247,21
205,49	1265,64
205,71	1271,79
205,93	1333,23
206,15	1245,16
206,37	1288,17
206,59	1329,13
206,81	1322,99
207,03	1378,28
207,25	1312,75
207,47	1292,27
207,69	1286,12
207,91	1267,69
208,13	1249,26
208,34	1310,70
208,56	1277,93
208,78	1251,31
209,00	1308,65
209,22	1193,97
209,44	1304,56
209,66	1208,30
209,88	1296,36
210,10	1310,70
210,32	1216,49
210,54	1275,88
210,76	1245,16
210,98	1261,55
211,20	1241,07
211,42	1275,88
211,64	1302,51
211,86	1318,89
212,08	1316,84
212,30	1273,84
212,52	1322,99
212,74	1310,70
212,96	1247,21
213,17	1279,98
213,39	1261,55
213,61	1259,50
213,83	1294,32
214,05	1226,73
214,27	1290,22
214,49	1275,88
214,71	1259,50
214,93	1290,22
215,15	1288,17
215,37	1265,64
215,59	1306,60
215,81	1308,65
216,03	1290,22
216,24	1333,23
216,46	1249,26
216,68	1302,51
216,90	1232,88
217,12	1284,08
217,34	1255,40
217,56	1314,80
217,78	1181,68
218,00	1308,65
218,22	1279,98
218,44	1251,31
218,66	1290,22
218,87	1331,18
219,09	1257,45
219,31	1314,80
219,53	1263,60
219,75	1265,64
219,97	1329,13
220,19	1284,08
220,41	1245,16
220,63	1351,66
220,85	1288,17
221,06	1355,76
221,28	1210,35
221,50	1290,22
221,72	1316,84
221,94	1343,47
222,16	1337,32
222,38	1382,38
222,60	1288,17
222,82	1339,37
223,03	1306,60
223,25	1255,40
223,47	1325,04
223,69	1296,36
223,91	1282,03
224,13	1255,40
224,35	1347,56
224,57	1259,50
224,78	1193,97
225,00	1234,93
225,22	1279,98
225,44	1273,84
225,66	1185,77
225,88	1271,79
226,10	1284,08
226,32	1290,22
226,53	1275,88
226,75	1298,41
226,97	1251,31
227,19	1257,45
227,41	1228,78
227,63	1353,71
227,85	1210,35
228,06	1288,17
228,28	1216,49
228,50	1316,84
228,72	1329,13
228,94	1228,78
229,16	1271,79
229,37	1306,60
229,59	1277,93
229,81	1239,02
230,03	1202,16
230,25	1171,44
230,47	1290,22
230,69	1304,56
230,90	1304,56
231,12	1265,64
231,34	1245,16
231,56	1269,74
231,78	1265,64
232,00	1302,51
232,21	1273,84
232,43	1300,46
232,65	1224,69
232,87	1249,26
233,09	1200,11
233,30	1282,03
233,52	1226,73
233,74	1198,06
233,96	1187,82
234,18	1212,40
234,40	1220,59
234,61	1282,03
234,83	1247,21
235,05	1273,84
235,27	1325,04
235,49	1318,89
235,70	1181,68
235,92	1310,70
236,14	1282,03
236,36	1296,36
236,58	1282,03
236,79	1304,56
237,01	1241,07
237,23	1200,11
237,45	1243,12
237,67	1312,75
237,88	1249,26
238,10	1284,08
238,32	1329,13
238,54	1275,88
238,76	1339,37
238,97	1275,88
239,19	1288,17
239,41	1243,12
239,63	1302,51
239,85	1277,93
240,06	1359,85
240,28	1320,94
240,50	1308,65
240,72	1273,84
240,93	1206,25
241,15	1241,07
241,37	1282,03
241,59	1294,32
241,81	1271,79
242,02	1298,41
242,24	1306,60
242,46	1263,60
242,68	1218,54
242,89	1288,17
243,11	1273,84
243,33	1306,60
243,55	1228,78
243,76	1273,84
243,98	1290,22
244,20	1202,16
244,42	1277,93
244,64	1294,32
244,85	1146,86
245,07	1263,60
245,29	1286,12
245,51	1214,45
245,72	1251,31
245,94	1282,03
246,16	1226,73
246,38	1273,84
246,59	1257,45
246,81	1265,64
247,03	1208,30
247,24	1226,73
247,46	1267,69
247,68	1271,79
247,90	1265,64
248,11	1284,08
248,33	1302,51
248,55	1329,13
248,77	1259,50
248,98	1275,88
249,20	1304,56
249,42	1294,32
249,64	1236,97
249,85	1284,08
250,07	1339,37
250,29	1314,80
250,50	1265,64
250,72	1308,65
250,94	1206,25
251,16	1316,84
251,37	1234,93
251,59	1257,45
251,81	1232,88
252,02	1253,36
252,24	1218,54
252,46	1312,75
252,68	1255,40
252,89	1306,60
253,11	1261,55
253,33	1345,52
253,54	1316,84
253,76	1322,99
253,98	1335,28
254,20	1261,55
254,41	1267,69
254,63	1261,55
254,85	1273,84
255,06	1187,82
255,28	1245,16
255,50	1294,32
255,71	1279,98
255,93	1208,30
256,15	1247,21
256,36	1353,71
256,58	1253,36
256,80	1308,65
257,02	1284,08
257,23	1312,75
257,45	1284,08
257,67	1306,60
257,88	1308,65
258,10	1282,03
258,32	1322,99
258,53	1292,27
258,75	1333,23
258,97	1271,79
259,18	1253,36
259,40	1224,69
259,62	1277,93
259,83	1316,84
260,05	1349,61
260,27	1292,27
260,48	1220,59
260,70	1306,60
260,92	1208,30
261,13	1349,61
261,35	1251,31
261,57	1298,41
261,78	1318,89
262,00	1304,56
262,22	1239,02
262,43	1210,35
262,65	1284,08
262,86	1275,88
263,08	1290,22
263,30	1284,08
263,51	1290,22
263,73	1241,07
263,95	1228,78
264,16	1224,69
264,38	1239,02
264,60	1290,22
264,81	1316,84
265,03	1302,51
265,25	1247,21
265,46	1284,08
265,68	1286,12
265,89	1271,79
266,11	1294,32
266,33	1265,64
266,54	1288,17
266,76	1306,60
266,98	1253,36
267,19	1298,41
267,41	1327,08
267,62	1329,13
267,84	1290,22
268,06	1325,04
268,27	1239,02
268,49	1228,78
268,70	1259,50
268,92	1273,84
269,14	1253,36
269,35	1226,73
269,57	1308,65
269,79	1249,26
270,00	1271,79
270,22	1277,93
270,43	1234,93
270,65	1294,32
270,87	1255,40
271,08	1327,08
271,30	1325,04
271,51	1296,36
271,73	1247,21
271,95	1308,65
272,16	1279,98
272,38	1269,74
272,59	1296,36
272,81	1257,45
273,02	1236,97
273,24	1267,69
273,46	1236,97
273,67	1263,60
273,89	1302,51
274,10	1273,84
274,32	1263,60
274,54	1286,12
274,75	1331,18
274,97	1388,52
275,18	1202,16
275,40	1273,84
275,61	1234,93
275,83	1273,84
276,05	1292,27
276,26	1247,21
276,48	1271,79
276,69	1282,03
276,91	1288,17
277,12	1282,03
277,34	1249,26
277,55	1247,21
277,77	1292,27
277,99	1222,64
278,20	1345,52
278,42	1236,97
278,63	1269,74
278,85	1218,54
279,06	1247,21
279,28	1269,74
279,49	1265,64
279,71	1271,79
279,93	1333,23
280,14	1337,32
280,36	1251,31
280,57	1261,55
280,79	1267,69
281,00	1298,41
281,22	1253,36
281,43	1343,47
281,65	1261,55
281,86	1247,21
282,08	1261,55
282,29	1277,93
282,51	1304,56
282,73	1271,79
282,94	1253,36
283,16	1275,88
283,37	1294,32
283,59	1294,32
283,80	1288,17
284,02	1286,12
284,23	1277,93
284,45	1284,08
284,66	1269,74
284,88	1277,93
285,09	1263,60
285,31	1200,11
285,52	1306,60
285,74	1370,09
285,95	1230,83
286,17	1331,18
286,38	1228,78
286,60	1316,84
286,81	1214,45
287,03	1261,55
287,24	1374,19
287,46	1216,49
287,67	1245,16
287,89	1288,17
288,10	1251,31
288,32	1232,88
288,53	1269,74
288,75	1292,27
288,96	1232,88
289,18	1263,60
289,39	1296,36
289,61	1257,45
289,82	1224,69
290,04	1296,36
290,25	1298,41
290,47	1249,26
290,68	1327,08
290,90	1181,68
291,11	1200,11
291,33	1271,79
291,54	1290,22
291,76	1224,69
291,97	1269,74
292,18	1284,08
292,40	1279,98
292,61	1351,66
292,83	1294,32
293,04	1206,25
293,26	1259,50
293,47	1277,93
293,69	1196,01
293,90	1275,88
294,12	1279,98
294,33	1314,80
294,55	1247,21
294,76	1308,65
294,97	1306,60
295,19	1325,04
295,40	1343,47
295,62	1277,93
295,83	1269,74
296,05	1279,98
296,26	1284,08
296,48	1241,07
296,69	1275,88
296,90	1400,81
297,12	1226,73
297,33	1261,55
297,55	1282,03
297,76	1355,76
297,98	1241,07
298,19	1275,88
298,41	1261,55
298,62	1282,03
298,83	1314,80
299,05	1251,31
299,26	1251,31
299,48	1308,65
299,69	1224,69
299,90	1325,04
300,12	1253,36
300,33	1288,17
300,55	1224,69
300,76	1337,32
300,98	1282,03
301,19	1402,86
301,40	1302,51
301,62	1267,69
301,83	1288,17
302,05	1288,17
302,26	1243,12
302,47	1275,88
302,69	1183,73
302,90	1290,22
303,12	1286,12
303,33	1290,22
303,54	1212,40
303,76	1267,69
303,97	1228,78
304,19	1273,84
304,40	1245,16
304,61	1298,41
304,83	1308,65
305,04	1245,16
305,26	1243,12
305,47	1224,69
305,68	1290,22
305,90	1296,36
306,11	1302,51
306,33	1230,83
306,54	1179,63
306,75	1304,56
306,97	1253,36
307,18	1308,65
307,39	1243,12
307,61	1273,84
307,82	1265,64
308,04	1236,97
308,25	1329,13
308,46	1290,22
308,68	1333,23
308,89	1198,06
309,10	1245,16
309,32	1232,88
309,53	1249,26
309,74	1294,32
309,96	1310,70
310,17	1263,60
310,39	1286,12
310,60	1282,03
310,81	1236,97
311,03	1347,56
311,24	1310,70
311,45	1288,17
311,67	1290,22
311,88	1353,71
312,09	1304,56
312,31	1239,02
312,52	1206,25
312,73	1286,12
312,95	1269,74
313,16	1294,32
313,37	1228,78
313,59	1351,66
313,80	1282,03
314,01	1304,56
314,23	1261,55
314,44	1212,40
314,65	1318,89
314,87	1312,75
315,08	1255,40
315,29	1290,22
315,51	1265,64
315,72	1247,21
315,93	1300,46
316,15	1337,32
316,36	1241,07
316,57	1251,31
316,79	1265,64
317,00	1320,94
317,21	1269,74
317,43	1257,45
317,64	1224,69
317,85	1249,26
318,07	1214,45
318,28	1271,79
318,49	1220,59
318,70	1310,70
318,92	1257,45
319,13	1234,93
319,34	1177,58
319,56	1249,26
319,77	1245,16
319,98	1236,97
320,20	1341,42
320,41	1271,79
320,62	1228,78
320,83	1175,53
321,05	1300,46
321,26	1259,50
321,47	1294,32
321,69	1255,40
321,90	1214,45
322,11	1222,64
322,32	1302,51
322,54	1275,88
322,75	1333,23
322,96	1224,69
323,18	1269,74
323,39	1290,22
323,60	1312,75
323,81	1218,54
324,03	1376,24
324,24	1320,94
324,45	1230,83
324,66	1263,60
324,88	1232,88
325,09	1302,51
325,30	1230,83
325,52	1245,16
325,73	1228,78
325,94	1296,36
326,15	1298,41
326,37	1279,98
326,58	1292,27
326,79	1222,64
327,00	1259,50
327,22	1261,55
327,43	1183,73
327,64	1273,84
327,85	1220,59
328,07	1200,11
328,28	1279,98
328,49	1279,98
328,70	1366,00
328,92	1308,65
329,13	1251,31
329,34	1269,74
329,55	1214,45
329,76	1292,27
329,98	1216,49
330,19	1341,42
330,40	1265,64
330,61	1300,46
330,83	1261,55
331,04	1247,21
331,25	1310,70
331,46	1222,64
331,68	1265,64
331,89	1288,17
332,10	1261,55
332,31	1335,28
332,52	1282,03
332,74	1239,02
332,95	1277,93
333,16	1282,03
333,37	1302,51
333,58	1271,79
333,80	1208,30
334,01	1282,03
334,22	1202,16
334,43	1331,18
334,64	1275,88
334,86	1267,69
335,07	1314,80
335,28	1296,36
335,49	1247,21
335,70	1316,84
335,92	1322,99
336,13	1382,38
336,34	1310,70
336,55	1241,07
336,76	1347,56
336,98	1288,17
337,19	1216,49
337,40	1241,07
337,61	1269,74
337,82	1273,84
338,04	1251,31
338,25	1275,88
338,46	1273,84
338,67	1337,32
338,88	1331,18
339,09	1269,74
339,31	1288,17
339,52	1243,12
339,73	1249,26
339,94	1355,76
340,15	1253,36
340,36	1271,79
340,58	1273,84
340,79	1300,46
341,00	1216,49
341,21	1316,84
341,42	1263,60
341,63	1249,26
341,85	1347,56
342,06	1341,42
342,27	1269,74
342,48	1327,08
342,69	1265,64
342,90	1259,50
343,12	1243,12
343,33	1253,36
343,54	1267,69
343,75	1253,36
343,96	1271,79
344,17	1310,70
344,38	1318,89
344,60	1298,41
344,81	1241,07
345,02	1288,17
345,23	1257,45
345,44	1298,41
345,65	1247,21
345,86	1302,51
346,07	1183,73
346,29	1265,64
346,50	1312,75
346,71	1286,12
346,92	1284,08
347,13	1265,64
347,34	1241,07
347,55	1273,84
347,76	1257,45
347,98	1359,85
348,19	1265,64
348,40	1279,98
348,61	1304,56
348,82	1314,80
349,03	1277,93
349,24	1267,69
349,45	1267,69
349,66	1327,08
349,88	1220,59
350,09	1322,99
350,30	1265,64
350,51	1271,79
350,72	1255,40
350,93	1290,22
351,14	1296,36
351,35	1380,33
351,56	1255,40
351,77	1257,45
351,99	1245,16
352,20	1314,80
352,41	1286,12
352,62	1265,64
352,83	1265,64
353,04	1218,54
353,25	1314,80
353,46	1310,70
353,67	1261,55
353,88	1230,83
354,09	1253,36
354,30	1216,49
354,52	1275,88
354,73	1271,79
354,94	1259,50
355,15	1259,50
355,36	1288,17
355,57	1347,56
355,78	1339,37
355,99	1257,45
356,20	1263,60
356,41	1298,41
356,62	1322,99
356,83	1327,08
357,04	1298,41
357,25	1314,80
357,46	1320,94
357,68	1273,84
357,89	1257,45
358,10	1206,25
358,31	1279,98
358,52	1292,27
358,73	1245,16
358,94	1255,40
359,15	1232,88
359,36	1216,49
359,57	1312,75
359,78	1318,89
359,99	1312,75
360,20	1253,36
360,41	1329,13
360,62	1255,40
360,83	1286,12
361,04	1298,41
361,25	1249,26
361,46	1302,51
361,67	1282,03
361,88	1251,31
362,09	1339,37
362,30	1294,32
362,51	1212,40
362,72	1259,50
362,93	1226,73
363,14	1282,03
363,35	1322,99
363,56	1282,03
363,78	1284,08
363,99	1132,53
364,20	1300,46
364,41	1173,49
364,62	1286,12
364,83	1284,08
365,04	1302,51
365,25	1308,65
365,46	1271,79
365,67	1273,84
365,88	1302,51
366,09	1304,56
366,30	1296,36
366,51	1277,93
366,72	1257,45
366,93	1302,51
367,14	1279,98
367,35	1204,21
367,56	1351,66
367,77	1325,04
367,98	1298,41
368,18	1259,50
368,39	1282,03
368,60	1183,73
368,81	1353,71
369,02	1249,26
369,23	1310,70
369,44	1310,70
369,65	1193,97
369,86	1263,60
370,07	1282,03
370,28	1322,99
370,49	1236,97
370,70	1361,90
370,91	1296,36
371,12	1304,56
371,33	1263,60
371,54	1341,42
371,75	1300,46
371,96	1312,75
372,17	1253,36
372,38	1279,98
372,59	1288,17
372,80	1286,12
373,01	1218,54
373,22	1257,45
373,43	1337,32
373,64	1282,03
373,85	1228,78
374,06	1312,75
374,26	1316,84
374,47	1304,56
374,68	1243,12
374,89	1286,12
375,10	1257,45
375,31	1345,52
375,52	1222,64
375,73	1218,54
375,94	1232,88
376,15	1279,98
376,36	1288,17
376,57	1228,78
376,78	1269,74
376,99	1261,55
377,20	1253,36
377,40	1255,40
377,61	1304,56
377,82	1284,08
378,03	1308,65
378,24	1241,07
378,45	1277,93
378,66	1245,16
378,87	1243,12
379,08	1212,40
379,29	1284,08
379,50	1298,41
379,71	1255,40
379,91	1239,02
380,12	1288,17
380,33	1294,32
380,54	1306,60
380,75	1302,51
380,96	1255,40
381,17	1290,22
381,38	1263,60
381,59	1245,16
381,80	1294,32
382,00	1298,41
382,21	1277,93
382,42	1292,27
382,63	1269,74
382,84	1206,25
383,05	1247,21
383,26	1253,36
383,47	1251,31
383,68	1257,45
383,88	1255,40
384,09	1273,84
384,30	1257,45
384,51	1204,21
384,72	1325,04
384,93	1216,49
385,14	1214,45
385,35	1284,08
385,55	1343,47
385,76	1247,21
385,97	1306,60
386,18	1255,40
386,39	1300,46
386,60	1255,40
386,81	1239,02
387,02	1292,27
387,22	1298,41
387,43	1310,70
387,64	1224,69
387,85	1359,85
388,06	1271,79
388,27	1286,12
388,48	1298,41
388,68	1298,41
388,89	1304,56
389,10	1263,60
389,31	1271,79
389,52	1241,07
389,73	1292,27
389,93	1216,49
390,14	1294,32
390,35	1230,83
390,56	1286,12
390,77	1265,64
390,98	1261,55
391,18	1304,56
391,39	1249,26
391,60	1294,32
391,81	1271,79
392,02	1261,55
392,23	1341,42
392,43	1232,88
392,64	1304,56
392,85	1286,12
393,06	1249,26
393,27	1249,26
393,47	1279,98
393,68	1306,60
393,89	1333,23
394,10	1243,12
394,31	1247,21
394,52	1308,65
394,72	1218,54
394,93	1267,69
395,14	1325,04
395,35	1253,36
395,56	1288,17
395,76	1230,83
395,97	1325,04
396,18	1314,80
396,39	1241,07
396,60	1351,66
396,80	1263,60
397,01	1220,59
397,22	1284,08
397,43	1249,26
397,64	1312,75
397,84	1259,50
398,05	1339,37
398,26	1271,79
398,47	1296,36
398,67	1183,73
398,88	1259,50
399,09	1198,06
399,30	1279,98
399,51	1296,36
399,71	1314,80
399,92	1269,74
400,13	1251,31
400,34	1292,27
400,54	1267,69
400,75	1306,60
400,96	1247,21
401,17	1224,69
401,37	1335,28
401,58	1226,73
401,79	1282,03
402,00	1308,65
402,21	1314,80
402,41	1218,54
402,62	1277,93
402,83	1263,60
403,04	1257,45
403,24	1284,08
403,45	1247,21
403,66	1316,84
403,87	1282,03
404,07	1236,97
404,28	1325,04
404,49	1234,93
404,70	1234,93
404,90	1267,69
405,11	1265,64
405,32	1316,84
405,52	1257,45
405,73	1249,26
405,94	1261,55
406,15	1314,80
406,35	1290,22
406,56	1284,08
406,77	1306,60
406,98	1179,63
407,18	1222,64
407,39	1345,52
407,60	1228,78
407,80	1300,46
408,01	1277,93
408,22	1234,93
408,43	1224,69
408,63	1288,17
408,84	1249,26
409,05	1253,36
409,25	1279,98
409,46	1290,22
409,67	1245,16
409,88	1232,88
410,08	1255,40
410,29	1306,60
410,50	1247,21
410,70	1241,07
410,91	1333,23
411,12	1308,65
411,32	1286,12
411,53	1282,03
411,74	1284,08
411,95	1228,78
412,15	1251,31
412,36	1261,55
412,57	1275,88
412,77	1245,16
412,98	1267,69
413,19	1206,25
413,39	1232,88
413,60	1245,16
413,81	1267,69
414,01	1263,60
414,22	1263,60
414,43	1288,17
414,63	1288,17
414,84	1292,27
415,05	1230,83
415,25	1228,78
415,46	1306,60
415,67	1251,31
415,87	1298,41
416,08	1298,41
416,29	1308,65
416,49	1298,41
416,70	1347,56
416,91	1310,70
417,11	1286,12
417,32	1230,83
417,53	1304,56
417,73	1206,25
417,94	1275,88
418,15	1269,74
418,35	1279,98
418,56	1222,64
418,77	1314,80
418,97	1279,98
419,18	1282,03
419,38	1255,40
419,59	1296,36
419,80	1277,93
420,00	1339,37
420,21	1212,40
420,42	1341,42
420,62	1294,32
420,83	1355,76
421,04	1234,93
421,24	1257,45
421,45	1255,40
421,65	1226,73
421,86	1239,02
422,07	1241,07
422,27	1331,18
422,48	1345,52
422,69	1261,55
422,89	1298,41
423,10	1296,36
423,30	1220,59
423,51	1331,18
423,72	1257,45
423,92	1257,45
424,13	1253,36
424,33	1318,89
424,54	1355,76
424,75	1251,31
424,95	1327,08
425,16	1341,42
425,36	1316,84
425,57	1290,22
425,78	1222,64
425,98	1282,03
426,19	1271,79
426,39	1294,32
426,60	1236,97
426,81	1292,27
427,01	1296,36
427,22	1214,45
427,42	1257,45
427,63	1275,88
427,83	1294,32
428,04	1314,80
428,25	1253,36
428,45	1216,49
428,66	1253,36
428,86	1239,02
429,07	1249,26
429,28	1290,22
429,48	1253,36
429,69	1306,60
429,89	1247,21
430,10	1329,13
430,30	1282,03
430,51	1302,51
430,71	1265,64
430,92	1294,32
431,13	1314,80
431,33	1302,51
431,54	1341,42
431,74	1329,13
431,95	1232,88
432,15	1286,12
432,36	1349,61
432,56	1282,03
432,77	1312,75
432,98	1296,36
433,18	1257,45
433,39	1249,26
433,59	1263,60
433,80	1265,64
434,00	1253,36
434,21	1191,92
434,41	1279,98
434,62	1271,79
434,82	1269,74
435,03	1333,23
435,23	1271,79
435,44	1380,33
435,64	1296,36
435,85	1257,45
436,06	1325,04
436,26	1298,41
436,47	1226,73
436,67	1251,31
436,88	1243,12
437,08	1282,03
437,29	1306,60
437,49	1269,74
437,70	1230,83
437,90	1277,93
438,11	1320,94
438,31	1288,17
438,52	1267,69
438,72	1265,64
438,93	1220,59
439,13	1284,08
439,34	1243,12
439,54	1284,08
439,75	1208,30
439,95	1253,36
440,16	1167,34
440,36	1269,74
440,57	1292,27
440,77	1273,84
440,98	1312,75
441,18	1251,31
441,39	1306,60
441,59	1245,16
441,80	1257,45
442,00	1329,13
442,21	1275,88
442,41	1331,18
442,62	1255,40
442,82	1343,47
443,02	1279,98
443,23	1200,11
443,43	1224,69
443,64	1263,60
443,84	1382,38
444,05	1265,64
444,25	1296,36
444,46	1366,00
444,66	1282,03
444,87	1304,56
445,07	1228,78
445,28	1236,97
445,48	1320,94
445,69	1263,60
445,89	1368,04
446,09	1292,27
446,30	1294,32
446,50	1298,41
446,71	1290,22
446,91	1222,64
447,12	1279,98
447,32	1310,70
447,53	1247,21
447,73	1265,64
447,93	1257,45
448,14	1220,59
448,34	1277,93
448,55	1239,02
448,75	1222,64
448,96	1302,51
449,16	1269,74
449,36	1292,27
449,57	1284,08
449,77	1198,06
449,98	1300,46
450,18	1312,75
450,39	1325,04
450,59	1271,79
450,79	1325,04
451,00	1245,16
451,20	1189,87
451,41	1322,99
451,61	1271,79
451,81	1279,98
452,02	1257,45
452,22	1286,12
452,43	1261,55
452,63	1308,65
452,84	1249,26
453,04	1327,08
453,24	1300,46
453,45	1308,65
453,65	1298,41
453,86	1302,51
454,06	1255,40
454,26	1253,36
454,47	1251,31
454,67	1357,80
454,87	1296,36
455,08	1232,88
455,28	1249,26
455,49	1286,12
455,69	1275,88
455,89	1320,94
456,10	1306,60
456,30	1355,76
456,51	1224,69
456,71	1271,79
456,91	1290,22
457,12	1271,79
457,32	1236,97
457,52	1259,50
457,73	1294,32
457,93	1251,31
458,14	1304,56
458,34	1277,93
458,54	1232,88
458,75	1331,18
458,95	1214,45
459,15	1284,08
459,36	1261,55
459,56	1279,98
459,76	1298,41
459,97	1247,21
460,17	1282,03
460,37	1245,16
460,58	1279,98
460,78	1255,40
460,99	1357,80
461,19	1312,75
461,39	1247,21
461,60	1300,46
461,80	1290,22
462,00	1279,98
462,21	1267,69
462,41	1218,54
462,61	1333,23
462,82	1263,60
463,02	1312,75
463,22	1275,88
463,43	1251,31
463,63	1298,41
463,83	1306,60
464,04	1306,60
464,24	1273,84
464,44	1218,54
464,64	1263,60
464,85	1243,12
465,05	1290,22
465,25	1277,93
465,46	1236,97
465,66	1265,64
465,86	1288,17
466,07	1296,36
466,27	1253,36
466,47	1257,45
466,68	1290,22
466,88	1331,18
467,08	1288,17
467,29	1298,41
467,49	1306,60
467,69	1322,99
467,89	1296,36
468,10	1290,22
468,30	1304,56
468,50	1339,37
468,71	1288,17
468,91	1245,16
469,11	1261,55
469,31	1251,31
469,52	1306,60
469,72	1286,12
469,92	1286,12
470,13	1249,26
470,33	1259,50
470,53	1269,74
470,73	1296,36
470,94	1271,79
471,14	1308,65
471,34	1228,78
471,54	1228,78
471,75	1302,51
471,95	1239,02
472,15	1273,84
472,36	1265,64
472,56	1206,25
472,76	1335,28
472,96	1179,63
473,17	1273,84
473,37	1241,07
473,57	1265,64
473,77	1263,60
473,98	1271,79
474,18	1243,12
474,38	1226,73
474,58	1263,60
474,79	1173,49
474,99	1304,56
475,19	1304,56
475,39	1247,21
475,60	1312,75
475,80	1282,03
476,00	1306,60
476,20	1312,75
476,41	1279,98
476,61	1279,98
476,81	1255,40
477,01	1269,74
477,21	1212,40
477,42	1304,56
477,62	1288,17
477,82	1253,36
478,02	1277,93
478,23	1247,21
478,43	1236,97
478,63	1249,26
478,83	1325,04
479,03	1259,50
479,24	1253,36
479,44	1306,60
479,64	1296,36
479,84	1249,26
480,04	1214,45
480,25	1308,65
480,45	1230,83
480,65	1292,27
480,85	1259,50
481,06	1202,16
481,26	1355,76
481,46	1247,21
481,66	1327,08
481,86	1290,22
482,06	1253,36
482,27	1318,89
482,47	1322,99
482,67	1263,60
482,87	1263,60
483,07	1292,27
483,28	1269,74
483,48	1314,80
483,68	1279,98
483,88	1265,64
484,08	1269,74
484,29	1220,59
484,49	1327,08
484,69	1300,46
484,89	1341,42
485,09	1249,26
485,29	1224,69
485,50	1304,56
485,70	1279,98
485,90	1241,07
486,10	1273,84
486,30	1308,65
486,50	1288,17
486,71	1265,64
486,91	1282,03
487,11	1257,45
487,31	1191,92
487,51	1259,50
487,71	1275,88
487,91	1388,52
488,12	1257,45
488,32	1273,84
488,52	1310,70
488,72	1243,12
488,92	1294,32
489,12	1251,31
489,32	1191,92
489,53	1331,18
489,73	1322,99
489,93	1259,50
490,13	1267,69
490,33	1255,40
490,53	1257,45
490,73	1282,03
490,94	1255,40
491,14	1269,74
491,34	1331,18
491,54	1265,64
491,74	1298,41
491,94	1279,98
492,14	1351,66
492,34	1306,60
492,54	1286,12
492,75	1259,50
492,95	1277,93
493,15	1296,36
493,35	1259,50
493,55	1200,11
493,75	1253,36
493,95	1230,83
494,15	1335,28
494,35	1343,47
494,56	1298,41
494,76	1284,08
494,96	1347,56
495,16	1255,40
495,36	1230,83
495,56	1273,84
495,76	1316,84
495,96	1314,80
496,16	1251,31
496,36	1318,89
496,56	1267,69
496,77	1259,50
496,97	1253,36
497,17	1290,22
497,37	1259,50
497,57	1255,40
497,77	1263,60
497,97	1277,93
498,17	1331,18
498,37	1294,32
498,57	1234,93
498,77	1181,68
498,97	1263,60
499,17	1265,64
499,38	1306,60
499,58	1296,36
499,78	1236,97
499,98	1294,32
500,18	1257,45
500,38	1220,59
500,58	1263,60
500,78	1298,41
500,98	1261,55
501,18	1331,18
501,38	1320,94
501,58	1390,57
501,78	1273,84
501,98	1279,98
502,18	1288,17
502,38	1306,60
502,58	1259,50
502,78	1265,64
502,98	1251,31
503,18	1292,27
503,38	1257,45
503,59	1273,84
503,79	1261,55
503,99	1314,80
504,19	1263,60
504,39	1239,02
504,59	1359,85
504,79	1232,88
504,99	1325,04
505,19	1263,60
505,39	1263,60
505,59	1273,84
505,79	1314,80
505,99	1255,40
506,19	1288,17
506,39	1288,17
506,59	1249,26
506,79	1279,98
506,99	1277,93
507,19	1306,60
507,39	1282,03
507,59	1228,78
507,79	1310,70
507,99	1308,65
508,19	1273,84
508,39	1234,93
508,59	1220,59
508,79	1302,51
508,99	1325,04
509,19	1271,79
509,39	1257,45
509,59	1329,13
509,79	1247,21
509,99	1273,84
510,19	1341,42
510,39	1228,78
510,59	1300,46
510,79	1327,08
510,99	1298,41
511,19	1202,16
511,39	1232,88
511,59	1263,60
511,79	1300,46
511,99	1239,02
512,19	1269,74
512,38	1208,30
512,58	1359,85
512,78	1300,46
512,98	1271,79
513,18	1239,02
513,38	1279,98
513,58	1224,69
513,78	1288,17
513,98	1228,78
514,18	1230,83
514,38	1259,50
514,58	1228,78
514,78	1255,40
514,98	1245,16
515,18	1267,69
515,38	1290,22
515,58	1306,60
515,78	1247,21
515,98	1312,75
516,18	1312,75
516,38	1269,74
516,57	1312,75
516,77	1310,70
516,97	1236,97
517,17	1236,97
517,37	1226,73
517,57	1249,26
517,77	1302,51
517,97	1267,69
518,17	1275,88
518,37	1322,99
518,57	1304,56
518,77	1312,75
518,97	1241,07
519,16	1359,85
519,36	1257,45
519,56	1279,98
519,76	1306,60
519,96	1202,16
520,16	1312,75
520,36	1218,54
520,56	1282,03
520,76	1277,93
520,96	1220,59
521,16	1202,16
521,35	1277,93
521,55	1269,74
521,75	1302,51
521,95	1263,60
522,15	1208,30
522,35	1353,71
522,55	1253,36
522,75	1265,64
522,95	1265,64
523,14	1290,22
523,34	1230,83
523,54	1279,98
523,74	1265,64
523,94	1308,65
524,14	1243,12
524,34	1290,22
524,54	1243,12
524,73	1257,45
524,93	1265,64
525,13	1247,21
525,33	1247,21
525,53	1234,93
525,73	1294,32
525,93	1279,98
526,13	1210,35
526,32	1216,49
526,52	1337,32
526,72	1296,36
526,92	1345,52
527,12	1267,69
527,32	1302,51
527,52	1310,70
527,71	1310,70
527,91	1214,45
528,11	1292,27
528,31	1341,42
528,51	1193,97
528,71	1226,73
528,90	1253,36
529,10	1261,55
529,30	1241,07
529,50	1259,50
529,70	1269,74
529,90	1239,02
530,09	1302,51
530,29	1316,84
530,49	1275,88
530,69	1200,11
530,89	1208,30
531,09	1271,79
531,28	1294,32
531,48	1290,22
531,68	1316,84
531,88	1275,88
532,08	1345,52
532,28	1343,47
532,47	1347,56
532,67	1239,02
532,87	1304,56
533,07	1224,69
533,27	1333,23
533,46	1290,22
533,66	1255,40
533,86	1232,88
534,06	1202,16
534,26	1343,47
534,45	1370,09
534,65	1265,64
534,85	1263,60
535,05	1288,17
535,25	1298,41
535,44	1343,47
535,64	1316,84
535,84	1320,94
536,04	1275,88
536,24	1216,49
536,43	1247,21
536,63	1325,04
536,83	1273,84
537,03	1241,07
537,22	1298,41
537,42	1200,11
537,62	1236,97
537,82	1339,37
538,02	1277,93
538,21	1286,12
538,41	1296,36
538,61	1273,84
538,81	1202,16
539,00	1298,41
539,20	1251,31
539,40	1171,44
539,60	1265,64
539,79	1298,41
539,99	1183,73
540,19	1269,74
540,39	1312,75
540,58	1253,36
540,78	1236,97
540,98	1230,83
541,18	1318,89
541,37	1249,26
541,57	1275,88
541,77	1277,93
541,97	1298,41
542,16	1292,27
542,36	1214,45
542,56	1277,93
542,76	1236,97
542,95	1259,50
543,15	1224,69
543,35	1318,89
543,54	1218,54
543,74	1249,26
543,94	1222,64
544,14	1286,12
544,33	1273,84
544,53	1249,26
544,73	1286,12
544,93	1288,17
545,12	1214,45
545,32	1284,08
545,52	1282,03
545,71	1296,36
545,91	1259,50
546,11	1288,17
546,30	1232,88
546,50	1247,21
546,70	1298,41
546,90	1265,64
547,09	1331,18
547,29	1251,31
547,49	1277,93
547,68	1284,08
547,88	1279,98
548,08	1341,42
548,27	1318,89
548,47	1273,84
548,67	1314,80
548,87	1245,16
549,06	1263,60
549,26	1279,98
549,46	1224,69
549,65	1282,03
549,85	1251,31
550,05	1267,69
550,24	1273,84
550,44	1337,32
550,64	1251,31
550,83	1224,69
551,03	1294,32
551,23	1251,31
551,42	1282,03
551,62	1216,49
551,82	1294,32
552,01	1249,26
552,21	1327,08
552,41	1277,93
552,60	1282,03
552,80	1218,54
553,00	1222,64
553,19	1316,84
553,39	1263,60
553,59	1243,12
553,78	1241,07
553,98	1279,98
554,17	1292,27
554,37	1249,26
554,57	1355,76
554,76	1288,17
554,96	1277,93
555,16	1300,46
555,35	1300,46
555,55	1296,36
555,75	1308,65
555,94	1296,36
556,14	1286,12
556,33	1269,74
556,53	1251,31
556,73	1310,70
556,92	1241,07
557,12	1351,66
557,32	1302,51
557,51	1267,69
557,71	1308,65
557,90	1241,07
558,10	1290,22
558,30	1361,90
558,49	1286,12
558,69	1327,08
558,88	1232,88
559,08	1337,32
559,28	1261,55
559,47	1331,18
559,67	1312,75
559,86	1271,79
560,06	1329,13
560,26	1204,21
560,45	1261,55
560,65	1269,74
560,84	1290,22
561,04	1241,07
561,24	1372,14
561,43	1347,56
561,63	1314,80
561,82	1308,65
562,02	1253,36
562,22	1202,16
562,41	1232,88
562,61	1265,64
562,80	1247,21
563,00	1236,97
563,19	1314,80
563,39	1234,93
563,59	1232,88
563,78	1335,28
563,98	1259,50
564,17	1257,45
564,37	1236,97
564,56	1239,02
564,76	1277,93
564,96	1290,22
565,15	1267,69
565,35	1228,78
565,54	1208,30
565,74	1298,41
565,93	1310,70
566,13	1269,74
566,32	1236,97
566,52	1247,21
566,71	1267,69
566,91	1359,85
567,11	1296,36
567,30	1290,22
567,50	1294,32
567,69	1232,88
567,89	1251,31
568,08	1296,36
568,28	1255,40
568,47	1265,64
568,67	1304,56
568,86	1335,28
569,06	1273,84
569,25	1241,07
569,45	1296,36
569,64	1271,79
569,84	1329,13
570,04	1255,40
570,23	1298,41
570,43	1300,46
570,62	1279,98
570,82	1349,61
571,01	1253,36
571,21	1302,51
571,40	1212,40
571,60	1331,18
571,79	1306,60
571,99	1329,13
572,18	1230,83
572,38	1261,55
572,57	1304,56
572,77	1290,22
572,96	1239,02
573,16	1249,26
573,35	1277,93
573,55	1257,45
573,74	1357,80
573,94	1208,30
574,13	1314,80
574,33	1239,02
574,52	1286,12
574,71	1310,70
574,91	1290,22
575,10	1261,55
575,30	1316,84
575,49	1275,88
575,69	1363,95
575,88	1333,23
576,08	1251,31
576,27	1249,26
576,47	1249,26
576,66	1277,93
576,86	1218,54
577,05	1290,22
577,25	1310,70
577,44	1296,36
577,64	1216,49
577,83	1296,36
578,02	1257,45
578,22	1386,47
578,41	1273,84
578,61	1271,79
578,80	1318,89
579,00	1298,41
579,19	1247,21
579,39	1245,16
579,58	1339,37
579,77	1243,12
579,97	1224,69
580,16	1234,93
580,36	1239,02
580,55	1282,03
580,75	1220,59
580,94	1179,63
581,13	1355,76
581,33	1273,84
581,52	1335,28
581,72	1320,94
581,91	1251,31
582,11	1245,16
582,30	1265,64
582,49	1353,71
582,69	1263,60
582,88	1269,74
583,08	1286,12
583,27	1279,98
583,47	1322,99
583,66	1259,50
583,85	1216,49
584,05	1263,60
584,24	1312,75
584,44	1218,54
584,63	1251,31
584,82	1275,88
585,02	1261,55
585,21	1273,84
585,41	1228,78
585,60	1228,78
585,79	1269,74
585,99	1316,84
586,18	1265,64
586,37	1374,19
586,57	1292,27
586,76	1214,45
586,96	1241,07
587,15	1230,83
587,34	1304,56
587,54	1251,31
587,73	1247,21
587,93	1279,98
588,12	1247,21
588,31	1204,21
588,51	1265,64
588,70	1200,11
588,89	1239,02
589,09	1288,17
589,28	1282,03
589,47	1198,06
589,67	1322,99
589,86	1378,28
590,06	1239,02
590,25	1224,69
590,44	1318,89
590,64	1349,61
590,83	1325,04
591,02	1269,74
591,22	1294,32
591,41	1282,03
591,60	1310,70
591,80	1298,41
591,99	1218,54
592,18	1243,12
592,38	1206,25
592,57	1292,27
592,76	1275,88
592,96	1277,93
593,15	1253,36
593,34	1269,74
593,54	1339,37
593,73	1249,26
593,92	1275,88
594,12	1212,40
594,31	1234,93
594,50	1236,97
594,70	1273,84
594,89	1263,60
595,08	1245,16
595,28	1341,42
595,47	1247,21
595,66	1267,69
595,86	1294,32
596,05	1263,60
596,24	1189,87
596,43	1331,18
596,63	1271,79
596,82	1300,46
597,01	1353,71
597,21	1296,36
597,40	1249,26
597,59	1218,54
597,79	1300,46
597,98	1208,30
598,17	1286,12
598,36	1282,03
598,56	1189,87
598,75	1302,51
598,94	1208,30
599,14	1298,41
599,33	1325,04
599,52	1296,36
599,71	1320,94
599,91	1314,80
600,10	1308,65
600,29	1286,12
600,48	1275,88
600,68	1265,64
600,87	1257,45
601,06	1372,14
601,26	1308,65
601,45	1282,03
601,64	1288,17
601,83	1347,56
602,03	1298,41
602,22	1263,60
602,41	1286,12
602,60	1271,79
602,80	1406,95
602,99	1306,60
603,18	1243,12
603,37	1212,40
603,57	1288,17
603,76	1263,60
603,95	1210,35
604,14	1376,24
604,34	1339,37
604,53	1226,73
604,72	1314,80
604,91	1339,37
605,10	1368,04
605,30	1282,03
605,49	1253,36
605,68	1249,26
605,87	1361,90
606,07	1265,64
606,26	1198,06
606,45	1347,56
606,64	1282,03
606,84	1198,06
607,03	1282,03
607,22	1288,17
607,41	1277,93
607,60	1292,27
607,80	1320,94
607,99	1308,65
608,18	1263,60
608,37	1284,08
608,56	1288,17
608,76	1314,80
608,95	1333,23
609,14	1325,04
609,33	1269,74
609,52	1337,32
609,72	1239,02
609,91	1282,03
610,10	1269,74
610,29	1300,46
610,48	1216,49
610,68	1241,07
610,87	1230,83
611,06	1241,07
611,25	1247,21
611,44	1216,49
611,63	1331,18
611,83	1210,35
612,02	1325,04
612,21	1255,40
612,40	1243,12
612,59	1302,51
612,79	1279,98
612,98	1236,97
613,17	1249,26
613,36	1257,45
613,55	1302,51
613,74	1230,83
613,93	1269,74
614,13	1249,26
614,32	1212,40
614,51	1263,60
614,70	1255,40
614,89	1290,22
615,08	1353,71
615,28	1355,76
615,47	1320,94
615,66	1271,79
615,85	1243,12
616,04	1335,28
616,23	1239,02
616,42	1378,28
616,62	1206,25
616,81	1267,69
617,00	1366,00
617,19	1339,37
617,38	1267,69
617,57	1255,40
617,76	1376,24
617,95	1292,27
618,15	1290,22
618,34	1335,28
618,53	1243,12
618,72	1325,04
618,91	1241,07
619,10	1325,04
619,29	1239,02
619,48	1202,16
619,68	1275,88
619,87	1296,36
620,06	1239,02
620,25	1267,69
620,44	1273,84
620,63	1314,80
620,82	1290,22
621,01	1312,75
621,20	1267,69
621,39	1314,80
621,59	1329,13
621,78	1255,40
621,97	1279,98
622,16	1355,76
622,35	1374,19
622,54	1212,40
622,73	1230,83
622,92	1263,60
623,11	1277,93
623,30	1236,97
623,49	1343,47
623,68	1185,77
623,88	1288,17
624,07	1292,27
624,26	1220,59
624,45	1298,41
624,64	1255,40
624,83	1267,69
625,02	1269,74
625,21	1320,94
625,40	1312,75
625,59	1230,83
625,78	1294,32
625,97	1253,36
626,16	1320,94
626,35	1341,42
626,54	1298,41
626,74	1353,71
626,93	1302,51
627,12	1234,93
627,31	1294,32
627,50	1282,03
627,69	1234,93
627,88	1331,18
628,07	1269,74
628,26	1284,08
628,45	1290,22
628,64	1302,51
628,83	1241,07
629,02	1275,88
629,21	1265,64
629,40	1265,64
629,59	1363,95
629,78	1378,28
629,97	1298,41
630,16	1253,36
630,35	1322,99
630,54	1335,28
630,73	1200,11
630,92	1345,52
631,11	1310,70
631,30	1339,37
631,49	1322,99
631,68	1560,55
631,87	1966,05
632,06	2971,60
632,25	2521,05
632,44	3203,02
632,63	4337,60
632,82	8001,41
633,01	7841,67
633,20	15939,34
633,39	35784,16
633,58	50003,20
633,77	58733,70
633,96	56114,34
634,15	43046,26
634,34	25611,90
634,53	13829,93
634,72	7571,34
634,91	3801,03
635,10	2357,21
635,29	1810,40
635,48	1581,03
635,67	1515,50
635,86	1529,83
636,05	1425,39
636,24	1404,91
636,43	1355,76
636,62	1382,38
636,81	1339,37
637,00	1339,37
637,19	1363,95
637,38	1353,71
637,57	1322,99
637,76	1290,22
637,95	1300,46
638,14	1327,08
638,33	1353,71
638,52	1404,91
638,71	1288,17
638,89	1335,28
639,08	1257,45
639,27	1253,36
639,46	1388,52
639,65	1392,62
639,84	1241,07
640,03	1249,26
640,22	1302,51
640,41	1316,84
640,60	1314,80
640,79	1296,36
640,98	1308,65
641,17	1314,80
641,36	1275,88
641,55	1308,65
641,74	1257,45
641,92	1228,78
642,11	1189,87
642,30	1286,12
642,49	1255,40
642,68	1245,16
642,87	1279,98
643,06	1282,03
643,25	1300,46
643,44	1284,08
643,63	1253,36
643,82	1282,03
644,00	1304,56
644,19	1310,70
644,38	1310,70
644,57	1232,88
644,76	1271,79
644,95	1288,17
645,14	1269,74
645,33	1370,09
645,52	1234,93
645,71	1288,17
645,89	1210,35
646,08	1271,79
646,27	1327,08
646,46	1259,50
646,65	1253,36
646,84	1236,97
647,03	1271,79
647,22	1249,26
647,40	1327,08
647,59	1273,84
647,78	1257,45
647,97	1189,87
648,16	1306,60
648,35	1212,40
648,54	1218,54
648,73	1298,41
648,91	1277,93
649,10	1306,60
649,29	1277,93
649,48	1335,28
649,67	1265,64
649,86	1304,56
650,05	1284,08
650,23	1255,40
650,42	1325,04
650,61	1236,97
650,80	1333,23
650,99	1265,64
651,18	1275,88
651,36	1290,22
651,55	1275,88
651,74	1372,14
651,93	1292,27
652,12	1376,24
652,31	1243,12
652,49	1273,84
652,68	1294,32
652,87	1269,74
653,06	1267,69
653,25	1304,56
653,44	1241,07
653,62	1327,08
653,81	1222,64
654,00	1277,93
654,19	1263,60
654,38	1294,32
654,56	1314,80
654,75	1284,08
654,94	1265,64
655,13	1245,16
655,32	1261,55
655,51	1251,31
655,69	1245,16
655,88	1310,70
656,07	1304,56
656,26	1253,36
656,45	1300,46
656,63	1214,45
656,82	1304,56
657,01	1282,03
657,20	1290,22
657,38	1306,60
657,57	1230,83
657,76	1277,93
657,95	1320,94
658,14	1267,69
658,32	1312,75
658,51	1222,64
658,70	1277,93
658,89	1290,22
659,08	1269,74
659,26	1277,93
659,45	1292,27
659,64	1253,36
659,83	1224,69
660,01	1368,04
660,20	1331,18
660,39	1331,18
660,58	1247,21
660,76	1267,69
660,95	1265,64
661,14	1216,49
661,33	1322,99
661,51	1296,36
661,70	1247,21
661,89	1335,28
662,08	1310,70
662,26	1302,51
662,45	1202,16
662,64	1230,83
662,83	1322,99
663,01	1325,04
663,20	1220,59
663,39	1269,74
663,58	1314,80
663,76	1296,36
663,95	1337,32
664,14	1249,26
664,32	1218,54
664,51	1288,17
664,70	1275,88
664,89	1208,30
665,07	1294,32
665,26	1273,84
665,45	1279,98
665,64	1273,84
665,82	1236,97
666,01	1273,84
666,20	1277,93
666,38	1286,12
666,57	1257,45
666,76	1259,50
666,95	1249,26
667,13	1347,56
667,32	1255,40
667,51	1337,32
667,69	1249,26
667,88	1214,45
668,07	1343,47
668,25	1286,12
668,44	1298,41
668,63	1255,40
668,81	1236,97
669,00	1247,21
669,19	1255,40
669,38	1355,76
669,56	1300,46
669,75	1298,41
669,94	1275,88
670,12	1333,23
670,31	1263,60
670,50	1296,36
670,68	1232,88
670,87	1312,75
671,06	1220,59
671,24	1310,70
671,43	1210,35
671,62	1259,50
671,80	1306,60
671,99	1277,93
672,18	1263,60
672,36	1304,56
672,55	1196,01
672,74	1292,27
672,92	1310,70
673,11	1347,56
673,29	1284,08
673,48	1298,41
673,67	1292,27
673,85	1245,16
674,04	1282,03
674,23	1232,88
674,41	1286,12
674,60	1277,93
674,79	1304,56
674,97	1255,40
675,16	1214,45
675,34	1290,22
675,53	1316,84
675,72	1304,56
675,90	1329,13
676,09	1296,36
676,28	1300,46
676,46	1300,46
676,65	1241,07
676,83	1339,37
677,02	1382,38
677,21	1294,32
677,39	1275,88
677,58	1251,31
677,77	1212,40
677,95	1310,70
678,14	1265,64
678,32	1265,64
678,51	1314,80
678,70	1263,60
678,88	1302,51
679,07	1296,36
679,25	1259,50
679,44	1232,88
679,63	1271,79
679,81	1320,94
680,00	1208,30
680,18	1255,40
680,37	1261,55
680,55	1279,98
680,74	1206,25
680,93	1222,64
681,11	1296,36
681,30	1251,31
681,48	1273,84
681,67	1318,89
681,85	1214,45
682,04	1224,69
682,23	1257,45
682,41	1288,17
682,60	1290,22
682,78	1343,47
682,97	1294,32
683,15	1249,26
683,34	1253,36
683,53	1312,75
683,71	1257,45
683,90	1331,18
684,08	1277,93
684,27	1282,03
684,45	1294,32
684,64	1292,27
684,82	1331,18
685,01	1243,12
685,19	1245,16
685,38	1284,08
685,57	1200,11
685,75	1255,40
685,94	1302,51
686,12	1277,93
686,31	1286,12
686,49	1296,36
686,68	1277,93
686,86	1249,26
687,05	1296,36
687,23	1361,90
687,42	1296,36
687,60	1282,03
687,79	1282,03
687,97	1339,37
688,16	1292,27
688,34	1243,12
688,53	1202,16
688,71	1259,50
688,90	1286,12
689,08	1304,56
689,27	1290,22
689,45	1337,32
689,64	1318,89
689,82	1298,41
690,01	1312,75
690,19	1327,08
690,38	1273,84
690,56	1241,07
690,75	1300,46
690,93	1243,12
691,12	1273,84
691,30	1245,16
691,49	1255,40
691,67	1226,73
691,86	1277,93
692,04	1239,02
692,23	1251,31
692,41	1249,26
692,60	1251,31
692,78	1335,28
692,97	1218,54
693,15	1261,55
693,34	1312,75
693,52	1374,19
693,71	1292,27
693,89	1210,35
694,08	1273,84
694,26	1284,08
694,44	1347,56
694,63	1279,98
694,81	1316,84
695,00	1214,45
695,18	1286,12
695,37	1214,45
695,55	1259,50
695,74	1345,52
695,92	1304,56
696,10	1255,40
696,29	1325,04
696,47	1288,17
696,66	1245,16
696,84	1370,09
697,03	1279,98
697,21	1314,80
697,40	1284,08
697,58	1261,55
697,76	1304,56
697,95	1302,51
698,13	1271,79
698,32	1355,76
698,50	1234,93
698,68	1290,22
698,87	1329,13
699,05	1251,31
699,24	1241,07
699,42	1259,50
699,61	1230,83
699,79	1187,82
699,97	1322,99
700,16	1282,03
700,34	1255,40
700,53	1261,55
700,71	1277,93
700,89	1230,83
701,08	1277,93
701,26	1329,13
701,45	1249,26
701,63	1288,17
701,81	1325,04
702,00	1277,93
702,18	1310,70
702,37	1269,74
702,55	1267,69
702,73	1249,26
702,92	1316,84
703,10	1282,03
703,28	1259,50
703,47	1232,88
703,65	1292,27
703,84	1290,22
704,02	1349,61
704,20	1273,84
704,39	1271,79
704,57	1257,45
704,75	1335,28
704,94	1312,75
705,12	1310,70
705,30	1294,32
705,49	1257,45
705,67	1310,70
705,86	1322,99
706,04	1329,13
706,22	1269,74
706,41	1337,32
706,59	1308,65
706,77	1265,64
706,96	1261,55
707,14	1304,56
707,32	1273,84
707,51	1284,08
707,69	1306,60
707,87	1230,83
708,06	1306,60
708,24	1290,22
708,42	1232,88
708,61	1269,74
708,79	1290,22
708,97	1259,50
709,16	1269,74
709,34	1259,50
709,52	1265,64
709,71	1271,79
709,89	1243,12
710,07	1306,60
710,26	1322,99
710,44	1261,55
710,62	1226,73
710,80	1265,64
710,99	1251,31
711,17	1288,17
711,35	1267,69
711,54	1239,02
711,72	1257,45
711,90	1327,08
712,09	1409,00
712,27	1300,46
712,45	1288,17
712,63	1239,02
712,82	1282,03
713,00	1282,03
713,18	1306,60
713,37	1257,45
713,55	1320,94
713,73	1288,17
713,91	1269,74
714,10	1282,03
714,28	1325,04
714,46	1239,02
714,65	1300,46
714,83	1400,81
715,01	1241,07
715,19	1273,84
715,38	1181,68
715,56	1249,26
715,74	1257,45
715,92	1236,97
716,11	1300,46
716,29	1247,21
716,47	1269,74
716,65	1273,84
716,84	1302,51
717,02	1279,98
717,20	1286,12
717,38	1292,27
717,57	1286,12
717,75	1322,99
717,93	1265,64
718,11	1298,41
718,30	1226,73
718,48	1302,51
718,66	1257,45
718,84	1249,26
719,03	1208,30
719,21	1341,42
719,39	1310,70
719,57	1333,23
719,75	1251,31
719,94	1265,64
720,12	1220,59
720,30	1257,45
720,48	1228,78
720,67	1189,87
720,85	1294,32
721,03	1236,97
721,21	1257,45
721,39	1241,07
721,58	1296,36
721,76	1249,26
721,94	1282,03
722,12	1300,46
722,30	1308,65
722,49	1296,36
722,67	1294,32
722,85	1294,32
723,03	1298,41
723,21	1265,64
723,40	1290,22
723,58	1320,94
723,76	1282,03
723,94	1253,36
724,12	1232,88
724,30	1308,65
724,49	1267,69
724,67	1263,60
724,85	1288,17
725,03	1267,69
725,21	1263,60
725,40	1253,36
725,58	1202,16
725,76	1275,88
725,94	1284,08
726,12	1236,97
726,30	1302,51
726,49	1284,08
726,67	1269,74
726,85	1241,07
727,03	1259,50
727,21	1239,02
727,39	1327,08
727,57	1273,84
727,76	1228,78
727,94	1269,74
728,12	1218,54
728,30	1275,88
728,48	1173,49
728,66	1322,99
728,84	1294,32
729,03	1245,16
729,21	1277,93
729,39	1267,69
729,57	1267,69
729,75	1257,45
729,93	1327,08
730,11	1220,59
730,30	1345,52
730,48	1255,40
730,66	1234,93
730,84	1243,12
731,02	1241,07
731,20	1347,56
731,38	1247,21
731,56	1329,13
731,74	1296,36
731,93	1247,21
732,11	1257,45
732,29	1318,89
732,47	1267,69
732,65	1232,88
732,83	1284,08
733,01	1378,28
733,19	1243,12
733,37	1292,27
733,56	1263,60
733,74	1224,69
733,92	1228,78
734,10	1239,02
734,28	1273,84
734,46	1277,93
734,64	1189,87
734,82	1320,94
735,00	1320,94
735,18	1314,80
735,36	1245,16
735,54	1265,64
735,73	1275,88
735,91	1198,06
736,09	1296,36
736,27	1228,78
736,45	1355,76
736,63	1259,50
736,81	1284,08
736,99	1271,79
737,17	1290,22
737,35	1245,16
737,53	1251,31
737,71	1310,70
737,89	1279,98
738,07	1236,97
738,25	1204,21
738,43	1308,65
738,61	1292,27
738,80	1255,40
738,98	1200,11
739,16	1296,36
739,34	1322,99
739,52	1282,03
739,70	1222,64
739,88	1259,50
740,06	1304,56
740,24	1232,88
740,42	1236,97
740,60	1296,36
740,78	1286,12
740,96	1239,02
741,14	1279,98
741,32	1282,03
741,50	1296,36
741,68	1275,88
741,86	1286,12
742,04	1302,51
742,22	1267,69
742,40	1282,03
742,58	1279,98
742,76	1224,69
742,94	1304,56
743,12	1239,02
743,30	1239,02
743,48	1279,98
743,66	1320,94
743,84	1236,97
744,02	1232,88
744,20	1236,97
744,38	1331,18
744,56	1251,31
744,74	1271,79
744,92	1249,26
745,10	1220,59
745,28	1247,21
745,46	1255,40
745,64	1218,54
745,82	1255,40
746,00	1257,45
746,18	1265,64
746,36	1196,01
746,54	1263,60
746,72	1216,49
746,90	1202,16
747,08	1302,51
747,26	1255,40
747,44	1236,97
747,62	1269,74
747,80	1284,08
747,98	1339,37
748,15	1277,93
748,33	1277,93
748,51	1292,27
748,69	1284,08
748,87	1290,22
749,05	1318,89
749,23	1286,12
749,41	1304,56
749,59	1271,79
749,77	1265,64
749,95	1239,02
750,13	1284,08
750,31	1226,73
750,49	1325,04
750,67	1322,99
750,85	1239,02
751,03	1273,84
751,20	1251,31
751,38	1265,64
751,56	1273,84
751,74	1236,97
751,92	1306,60
752,10	1232,88
752,28	1339,37
752,46	1257,45
752,64	1284,08
752,82	1222,64
753,00	1302,51
753,18	1216,49
753,35	1265,64
753,53	1210,35
753,71	1304,56
753,89	1210,35
754,07	1234,93
754,25	1275,88
754,43	1292,27
754,61	1210,35
754,79	1257,45
754,97	1265,64
755,14	1310,70
755,32	1216,49
755,50	1279,98
755,68	1312,75
755,86	1292,27
756,04	1263,60
756,22	1253,36
756,40	1331,18
756,57	1327,08
756,75	1279,98
756,93	1206,25
757,11	1220,59
757,29	1228,78
757,47	1322,99
757,65	1187,82
757,82	1277,93
758,00	1286,12
758,18	1216,49
758,36	1234,93
758,54	1316,84
758,72	1189,87
758,90	1337,32
759,07	1306,60
759,25	1298,41
759,43	1267,69
759,61	1243,12
759,79	1292,27
759,97	1241,07
760,15	1290,22
760,32	1279,98
760,50	1271,79
760,68	1306,60
760,86	1251,31
761,04	1282,03
761,22	1327,08
761,39	1282,03
761,57	1226,73
761,75	1331,18
761,93	1273,84
762,11	1345,52
762,28	1298,41
762,46	1279,98
762,64	1277,93
762,82	1290,22
763,00	1286,12
763,18	1314,80
763,35	1216,49
763,53	1224,69
763,71	1216,49
763,89	1218,54
764,07	1212,40
764,24	1290,22
764,42	1304,56
764,60	1345,52
764,78	1298,41
764,96	1257,45
765,13	1292,27
765,31	1296,36
765,49	1232,88
765,67	1222,64
765,84	1302,51
766,02	1298,41
766,20	1251,31
766,38	1345,52
766,56	1214,45
766,73	1239,02
766,91	1239,02
767,09	1224,69
767,27	1271,79
767,44	1210,35
767,62	1265,64
767,80	1247,21
767,98	1249,26
768,15	1263,60
768,33	1255,40
768,51	1218,54
768,69	1277,93
768,87	1310,70
769,04	1275,88
769,22	1255,40
769,40	1325,04
769,58	1226,73
769,75	1320,94
769,93	1273,84
770,11	1265,64
770,28	1269,74
770,46	1275,88
770,64	1300,46
770,82	1318,89
770,99	1218,54
771,17	1247,21
771,35	1214,45
771,53	1333,23
771,70	1296,36
771,88	1228,78
772,06	1216,49
772,23	1275,88
772,41	1314,80
772,59	1292,27
772,77	1337,32
772,94	1282,03
773,12	1271,79
773,30	1249,26
773,47	1224,69
773,65	1284,08
773,83	1353,71
774,01	1214,45
774,18	1228,78
774,36	1253,36
774,54	1261,55
774,71	1298,41
774,89	1275,88
775,07	1261,55
775,24	1234,93
775,42	1198,06
775,60	1220,59
775,78	1236,97
775,95	1224,69
776,13	1249,26
776,31	1249,26
776,48	1327,08
776,66	1255,40
776,84	1279,98
777,01	1234,93
777,19	1241,07
777,37	1261,55
777,54	1245,16
777,72	1226,73
777,90	1224,69
778,07	1316,84
778,25	1241,07
778,43	1316,84
778,60	1234,93
778,78	1312,75
778,96	1282,03
779,13	1298,41
779,31	1329,13
779,49	1292,27
779,66	1232,88
779,84	1347,56
780,01	1284,08
780,19	1202,16
780,37	1257,45
780,54	1288,17
780,72	1265,64
780,90	1241,07
781,07	1370,09
781,25	1261,55
781,43	1282,03
781,60	1232,88
781,78	1298,41
781,95	1259,50
782,13	1288,17
782,31	1279,98
782,48	1263,60
782,66	1378,28
782,83	1316,84
783,01	1282,03
783,19	1322,99
783,36	1269,74
783,54	1249,26
783,72	1218,54
783,89	1243,12
784,07	1185,77
784,24	1265,64
784,42	1294,32
784,60	1275,88
784,77	1294,32
784,95	1255,40
785,12	1239,02
785,30	1314,80
785,47	1314,80
785,65	1318,89
785,83	1247,21
786,00	1245,16
786,18	1359,85
786,35	1179,63
786,53	1275,88
786,71	1314,80
786,88	1361,90
787,06	1273,84
787,23	1304,56
787,41	1318,89
787,58	1368,04
787,76	1273,84
787,94	1331,18
788,11	1249,26
788,29	1341,42
788,46	1359,85
788,64	1284,08
788,81	1234,93
788,99	1288,17
789,16	1304,56
789,34	1288,17
789,52	1308,65
789,69	1226,73
789,87	1314,80
790,04	1298,41
790,22	1277,93
790,39	1308,65
790,57	1322,99
790,74	1370,09
790,92	1220,59
791,09	1282,03
791,27	1253,36
791,44	1241,07
791,62	1353,71
791,79	1304,56
791,97	1327,08
792,15	1253,36
792,32	1290,22
792,50	1292,27
792,67	1337,32
792,85	1359,85
793,02	1275,88
793,20	1314,80
793,37	1271,79
793,55	1267,69
793,72	1243,12
793,90	1292,27
794,07	1304,56
794,25	1247,21
794,42	1318,89
794,60	1253,36
794,77	1247,21
794,95	1357,80
795,12	1253,36
795,30	1212,40
795,47	1298,41
795,65	1228,78
795,82	1271,79
796,00	1296,36
796,17	1310,70
796,34	1259,50
796,52	1298,41
796,69	1322,99
796,87	1308,65
797,04	1288,17
797,22	1267,69
797,39	1232,88
797,57	1290,22
797,74	1286,12
797,92	1218,54
798,09	1275,88
798,27	1202,16
798,44	1269,74
798,62	1226,73
798,79	1279,98
798,96	1267,69
799,14	1284,08
799,31	1343,47
799,49	1312,75
799,66	1236,97
799,84	1292,27
800,01	1257,45
800,19	1277,93
800,36	1208,30
800,53	1357,80
800,71	1253,36
800,88	1273,84
801,06	1273,84
801,23	1308,65
801,41	1220,59
801,58	1359,85
801,75	1218,54
801,93	1282,03
802,10	1236,97
802,28	1288,17
802,45	1228,78
802,63	1241,07
802,80	1286,12
802,97	1249,26
803,15	1312,75
803,32	1288,17
803,50	1269,74
803,67	1296,36
803,84	1284,08
804,02	1208,30
804,19	1273,84
804,37	1249,26
804,54	1337,32
804,71	1329,13
804,89	1284,08
805,06	1239,02
805,24	1267,69
805,41	1263,60
805,58	1267,69
805,76	1304,56
805,93	1273,84
806,10	1226,73
806,28	1236,97
806,45	1347,56
806,63	1253,36
806,80	1318,89
806,97	1230,83
807,15	1298,41
807,32	1341,42
807,49	1316,84
807,67	1316,84
807,84	1349,61
808,01	1273,84
808,19	1265,64
808,36	1331,18
808,54	1304,56
808,71	1269,74
808,88	1282,03
809,06	1308,65
809,23	1298,41
809,40	1331,18
809,58	1234,93
809,75	1316,84
809,92	1241,07
810,10	1322,99
810,27	1243,12
810,44	1222,64
810,62	1279,98
810,79	1308,65
810,96	1314,80
811,14	1312,75
811,31	1253,36
811,48	1179,63
811,66	1370,09
811,83	1306,60
812,00	1247,21
812,18	1222,64
812,35	1247,21
812,52	1243,12
812,69	1243,12
812,87	1296,36
813,04	1284,08
813,21	1380,33
813,39	1239,02
813,56	1275,88
813,73	1308,65
813,91	1277,93
814,08	1337,32
814,25	1239,02
814,42	1257,45
814,60	1275,88
814,77	1200,11
814,94	1202,16
815,12	1296,36
815,29	1333,23
815,46	1273,84
815,63	1273,84
815,81	1290,22
815,98	1214,45
816,15	1226,73
816,33	1265,64
816,50	1247,21
816,67	1269,74
816,84	1288,17
817,02	1230,83
817,19	1292,27
817,36	1302,51
817,53	1269,74
817,71	1185,77
817,88	1265,64
818,05	1312,75
818,22	1298,41
818,40	1239,02
818,57	1261,55
818,74	1329,13
818,91	1302,51
819,09	1210,35
819,26	1273,84
819,43	1290,22
819,60	1349,61
819,78	1265,64
819,95	1304,56
820,12	1282,03
820,29	1306,60
820,47	1314,80
820,64	1271,79
820,81	1271,79
820,98	1261,55
821,15	1320,94
821,33	1269,74
821,50	1296,36
821,67	1273,84
821,84	1224,69
822,02	1255,40
822,19	1273,84
822,36	1277,93
822,53	1279,98
822,70	1275,88
822,88	1222,64
823,05	1288,17
823,22	1298,41
823,39	1316,84
823,56	1322,99
823,74	1294,32
823,91	1261,55
824,08	1255,40
824,25	1253,36
824,42	1294,32
824,60	1228,78
824,77	1290,22
824,94	1279,98
825,11	1241,07
825,28	1306,60
825,45	1318,89
825,63	1191,92
825,80	1347,56
825,97	1236,97
826,14	1361,90
826,31	1263,60
826,48	1243,12
826,66	1255,40
826,83	1316,84
827,00	1331,18
827,17	1298,41
827,34	1271,79
827,51	1304,56
827,69	1261,55
827,86	1257,45
828,03	1339,37
828,20	1220,59
828,37	1288,17
828,54	1216,49
828,71	1230,83
828,89	1318,89
829,06	1282,03
829,23	1275,88
829,40	1220,59
829,57	1239,02
829,74	1259,50
829,91	1259,50
830,09	1316,84
830,26	1339,37
830,43	1263,60
830,60	1333,23
830,77	1208,30
830,94	1232,88
831,11	1261,55
831,28	1251,31
831,46	1282,03
831,63	1339,37
831,80	1257,45
831,97	1257,45
832,14	1267,69
832,31	1290,22
832,48	1245,16
832,65	1312,75
832,82	1239,02
832,99	1296,36
833,17	1282,03
833,34	1302,51
833,51	1236,97
833,68	1271,79
833,85	1200,11
834,02	1298,41
834,19	1306,60
834,36	1306,60
834,53	1259,50
834,70	1255,40
834,87	1265,64
835,04	1384,43
835,22	1298,41
835,39	1228,78
835,56	1267,69
835,73	1306,60
835,90	1339,37
836,07	1288,17
836,24	1314,80
836,41	1320,94
836,58	1282,03
836,75	1296,36
836,92	1314,80
837,09	1331,18
837,26	1312,75
837,43	1318,89
837,60	1239,02
837,77	1304,56
837,94	1241,07
838,12	1298,41
838,29	1261,55
838,46	1267,69
838,63	1271,79
838,80	1210,35
838,97	1300,46
839,14	1294,32
839,31	1245,16
839,48	1320,94
839,65	1259,50
839,82	1200,11
839,99	1357,80
840,16	1241,07
840,33	1253,36
840,50	1302,51
840,67	1296,36
840,84	1282,03
841,01	1216,49
841,18	1249,26
841,35	1218,54
841,52	1333,23
841,69	1267,69
841,86	1282,03
842,03	1234,93
842,20	1286,12
842,37	1232,88
842,54	1218,54
842,71	1294,32
842,88	1284,08
843,05	1271,79
843,22	1259,50
843,39	1269,74
843,56	1255,40
843,73	1257,45
843,90	1234,93
844,07	1277,93
844,24	1275,88
844,41	1279,98
844,58	1302,51
844,75	1232,88
844,92	1210,35
845,09	1318,89
845,26	1304,56
845,43	1263,60
845,60	1208,30
845,77	1232,88
845,94	1269,74
846,10	1236,97
846,27	1277,93
846,44	1259,50
846,61	1214,45
846,78	1329,13
846,95	1304,56
847,12	1228,78
847,29	1249,26
847,46	1220,59
847,63	1253,36
847,80	1294,32
847,97	1275,88
848,14	1210,35
848,31	1294,32
848,48	1212,40
848,65	1327,08
848,82	1273,84
848,98	1322,99
849,15	1236,97
849,32	1224,69
849,49	1269,74
849,66	1239,02
849,83	1226,73
850,00	1277,93
850,17	1316,84
850,34	1298,41
850,51	1322,99
850,68	1282,03
850,85	1273,84
851,01	1208,30
851,18	1222,64
851,35	1292,27
851,52	1314,80
851,69	1374,19
851,86	1245,16
852,03	1228,78
852,20	1314,80
852,37	1243,12
852,53	1230,83
852,70	1282,03
852,87	1290,22
853,04	1339,37
853,21	1241,07
853,38	1279,98
853,55	1267,69
853,72	1325,04
853,89	1282,03
854,05	1257,45
854,22	1292,27
854,39	1265,64
854,56	1247,21
854,73	1261,55
854,90	1255,40
855,07	1234,93
855,23	1249,26
855,40	1263,60
855,57	1226,73
855,74	1292,27
855,91	1271,79
856,08	1241,07
856,25	1318,89
856,41	1314,80
856,58	1263,60
856,75	1232,88
856,92	1249,26
857,09	1312,75
857,26	1333,23
857,42	1302,51
857,59	1204,21
857,76	1265,64
857,93	1279,98
858,10	1275,88
858,27	1253,36
858,43	1298,41
858,60	1310,70
858,77	1298,41
858,94	1265,64
859,11	1265,64
859,27	1243,12
859,44	1265,64
859,61	1304,56
859,78	1322,99
859,95	1325,04
860,12	1286,12
860,28	1316,84
860,45	1273,84
860,62	1355,76
860,79	1259,50
860,95	1251,31
861,12	1279,98
861,29	1265,64
861,46	1282,03
861,63	1290,22
861,79	1316,84
861,96	1290,22
862,13	1345,52
862,30	1257,45
862,47	1304,56
862,63	1333,23
862,80	1325,04
862,97	1282,03
863,14	1351,66
863,30	1269,74
863,47	1302,51
863,64	1257,45
863,81	1239,02
863,97	1325,04
864,14	1279,98
864,31	1302,51
864,48	1185,77
864,65	1353,71
864,81	1259,50
864,98	1210,35
865,15	1261,55
865,32	1255,40
865,48	1247,21
865,65	1312,75
865,82	1251,31
865,98	1265,64
866,15	1290,22
866,32	1239,02
866,49	1245,16
866,65	1249,26
866,82	1363,95
866,99	1327,08
867,16	1245,16
867,32	1284,08
867,49	1271,79
867,66	1306,60
867,83	1261,55
867,99	1247,21
868,16	1335,28
868,33	1302,51
868,49	1298,41
868,66	1269,74
868,83	1253,36
868,99	1277,93
869,16	1327,08
869,33	1333,23
869,50	1292,27
869,66	1290,22
869,83	1347,56
870,00	1273,84
870,16	1247,21
870,33	1230,83
870,50	1292,27
870,66	1198,06
870,83	1318,89
871,00	1153,01
871,17	1267,69
871,33	1263,60
871,50	1222,64
871,67	1275,88
871,83	1294,32
872,00	1253,36
872,17	1329,13
872,33	1353,71
872,50	1288,17
872,67	1263,60
872,83	1314,80
873,00	1255,40
873,17	1273,84
873,33	1261,55
873,50	1245,16
873,67	1234,93
873,83	1304,56
874,00	1245,16
874,16	1255,40
874,33	1257,45
874,50	1306,60
874,66	1327,08
874,83	1277,93
875,00	1224,69
875,16	1282,03
875,33	1316,84
875,50	1245,16
875,66	1284,08
875,83	1282,03
875,99	1308,65
876,16	1224,69
876,33	1308,65
876,49	1304,56
876,66	1298,41
876,83	1316,84
876,99	1220,59
877,16	1290,22
877,32	1279,98
877,49	1267,69
877,66	1290,22
877,82	1265,64
877,99	1228,78
878,15	1302,51
878,32	1296,36
878,49	1355,76
878,65	1253,36
878,82	1228,78
878,98	1218,54
879,15	1288,17
879,32	1263,60
879,48	1306,60
879,65	1308,65
879,81	1265,64
879,98	1208,30
880,15	1312,75
880,31	1234,93
880,48	1290,22
880,64	1245,16
880,81	1361,90
880,97	1265,64
881,14	1290,22
881,31	1335,28
881,47	1292,27
881,64	1275,88
881,80	1263,60
881,97	1282,03
882,13	1310,70
882,30	1261,55
882,47	1273,84
882,63	1249,26
882,80	1273,84
882,96	1294,32
883,13	1337,32
883,29	1298,41
883,46	1273,84
883,62	1284,08
883,79	1312,75
883,95	1167,34
884,12	1243,12
884,29	1267,69
884,45	1245,16
884,62	1302,51
884,78	1318,89
884,95	1257,45
885,11	1320,94
885,28	1296,36
885,44	1298,41
885,61	1286,12
885,77	1198,06
885,94	1228,78
886,10	1282,03
886,27	1257,45
886,43	1288,17
886,60	1236,97
886,76	1269,74
886,93	1232,88
887,09	1230,83
887,26	1318,89
887,42	1267,69
887,59	1222,64
887,75	1284,08
887,92	1312,75
888,08	1314,80
888,25	1234,93
888,41	1220,59
888,58	1263,60
888,74	1300,46
888,91	1171,44
>>>>>End Processed Spectral Data<<<<<
