SpectraSuite Data File
++++++++++++++++++++++++++++++++++++
Date: Sun Apr 03 17:37:04 CEST 2016
User: root
Dark Spectrum Present: No
Reference Spectrum Present: No
Number of Sampled Component Spectra: 1
Spectrometers: USB4C02835
Integration Time (usec): 10000 (USB4C02835)
Spectra Averaged: 1 (USB4C02835)
Boxcar Smoothing: 0 (USB4C02835)
Correct for Electrical Dark: No (USB4C02835)
Strobe/Lamp Enabled: No (USB4C02835)
Correct for Detector Non-linearity: No (USB4C02835)
Correct for Stray Light: No (USB4C02835)
Number of Pixels in Processed Spectrum: 3648
>>>>>Begin Processed Spectral Data<<<<<
177,47	1204,21
177,69	1204,21
177,91	1204,21
178,13	1222,64
178,36	1214,45
178,58	1292,27
178,80	1296,36
179,02	1253,36
179,24	1331,18
179,46	1279,98
179,68	1251,31
179,90	1253,36
180,13	1247,21
180,35	1243,12
180,57	1275,88
180,79	1302,51
181,01	1308,65
181,23	1284,08
181,45	1349,61
181,67	1224,69
181,90	1292,27
182,12	1263,60
182,34	1290,22
182,56	1308,65
182,78	1255,40
183,00	1245,16
183,22	1298,41
183,44	1294,32
183,66	1296,36
183,89	1290,22
184,11	1245,16
184,33	1273,84
184,55	1196,01
184,77	1228,78
184,99	1232,88
185,21	1300,46
185,43	1204,21
185,65	1257,45
185,87	1265,64
186,10	1279,98
186,32	1247,21
186,54	1316,84
186,76	1241,07
186,98	1337,32
187,20	1269,74
187,42	1249,26
187,64	1253,36
187,86	1314,80
188,08	1269,74
188,30	1259,50
188,52	1206,25
188,75	1304,56
188,97	1343,47
189,19	1228,78
189,41	1232,88
189,63	1296,36
189,85	1282,03
190,07	1191,92
190,29	1175,53
190,51	1277,93
190,73	1257,45
190,95	1310,70
191,17	1265,64
191,39	1273,84
191,61	1232,88
191,84	1259,50
192,06	1296,36
192,28	1187,82
192,50	1245,16
192,72	1310,70
192,94	1349,61
193,16	1302,51
193,38	1284,08
193,60	1257,45
193,82	1277,93
194,04	1187,82
194,26	1294,32
194,48	1267,69
194,70	1224,69
194,92	1222,64
195,14	1318,89
195,36	1290,22
195,58	1312,75
195,80	1261,55
196,02	1288,17
196,24	1263,60
196,46	1290,22
196,69	1234,93
196,91	1249,26
197,13	1275,88
197,35	1273,84
197,57	1269,74
197,79	1335,28
198,01	1318,89
198,23	1232,88
198,45	1279,98
198,67	1286,12
198,89	1234,93
199,11	1292,27
199,33	1275,88
199,55	1318,89
199,77	1302,51
199,99	1304,56
200,21	1228,78
200,43	1361,90
200,65	1304,56
200,87	1208,30
201,09	1212,40
201,31	1298,41
201,53	1300,46
201,75	1257,45
201,97	1245,16
202,19	1298,41
202,41	1292,27
202,63	1351,66
202,85	1322,99
203,07	1271,79
203,29	1251,31
203,51	1232,88
203,73	1269,74
203,95	1275,88
204,17	1282,03
204,39	1269,74
204,61	1249,26
204,83	1216,49
205,05	1232,88
205,27	1247,21
205,49	1306,60
205,71	1290,22
205,93	1267,69
206,15	1232,88
206,37	1265,64
206,59	1247,21
206,81	1191,92
207,03	1230,83
207,25	1259,50
207,47	1329,13
207,69	1245,16
207,91	1304,56
208,13	1292,27
208,34	1230,83
208,56	1230,83
208,78	1273,84
209,00	1208,30
209,22	1290,22
209,44	1306,60
209,66	1298,41
209,88	1261,55
210,10	1279,98
210,32	1253,36
210,54	1322,99
210,76	1247,21
210,98	1189,87
211,20	1222,64
211,42	1267,69
211,64	1232,88
211,86	1212,40
212,08	1333,23
212,30	1282,03
212,52	1290,22
212,74	1241,07
212,96	1288,17
213,17	1298,41
213,39	1275,88
213,61	1257,45
213,83	1292,27
214,05	1253,36
214,27	1228,78
214,49	1302,51
214,71	1243,12
214,93	1286,12
215,15	1310,70
215,37	1204,21
215,59	1232,88
215,81	1243,12
216,03	1286,12
216,24	1327,08
216,46	1261,55
216,68	1263,60
216,90	1261,55
217,12	1267,69
217,34	1243,12
217,56	1269,74
217,78	1275,88
218,00	1298,41
218,22	1294,32
218,44	1257,45
218,66	1216,49
218,87	1277,93
219,09	1196,01
219,31	1255,40
219,53	1275,88
219,75	1196,01
219,97	1284,08
220,19	1282,03
220,41	1198,06
220,63	1255,40
220,85	1210,35
221,06	1167,34
221,28	1253,36
221,50	1263,60
221,72	1245,16
221,94	1273,84
222,16	1243,12
222,38	1296,36
222,60	1265,64
222,82	1265,64
223,03	1181,68
223,25	1255,40
223,47	1257,45
223,69	1265,64
223,91	1236,97
224,13	1292,27
224,35	1257,45
224,57	1247,21
224,78	1247,21
225,00	1286,12
225,22	1249,26
225,44	1269,74
225,66	1302,51
225,88	1292,27
226,10	1286,12
226,32	1308,65
226,53	1253,36
226,75	1239,02
226,97	1202,16
227,19	1279,98
227,41	1279,98
227,63	1261,55
227,85	1247,21
228,06	1241,07
228,28	1316,84
228,50	1271,79
228,72	1288,17
228,94	1292,27
229,16	1232,88
229,37	1304,56
229,59	1300,46
229,81	1269,74
230,03	1290,22
230,25	1294,32
230,47	1269,74
230,69	1253,36
230,90	1232,88
231,12	1265,64
231,34	1306,60
231,56	1249,26
231,78	1310,70
232,00	1239,02
232,21	1353,71
232,43	1325,04
232,65	1290,22
232,87	1273,84
233,09	1249,26
233,30	1216,49
233,52	1191,92
233,74	1206,25
233,96	1263,60
234,18	1310,70
234,40	1263,60
234,61	1273,84
234,83	1200,11
235,05	1288,17
235,27	1257,45
235,49	1200,11
235,70	1230,83
235,92	1269,74
236,14	1316,84
236,36	1255,40
236,58	1308,65
236,79	1228,78
237,01	1288,17
237,23	1236,97
237,45	1220,59
237,67	1261,55
237,88	1261,55
238,10	1300,46
238,32	1294,32
238,54	1241,07
238,76	1222,64
238,97	1275,88
239,19	1234,93
239,41	1306,60
239,63	1308,65
239,85	1265,64
240,06	1249,26
240,28	1247,21
240,50	1191,92
240,72	1265,64
240,93	1198,06
241,15	1314,80
241,37	1298,41
241,59	1247,21
241,81	1161,20
242,02	1294,32
242,24	1265,64
242,46	1257,45
242,68	1191,92
242,89	1245,16
243,11	1312,75
243,33	1333,23
243,55	1169,39
243,76	1230,83
243,98	1277,93
244,20	1290,22
244,42	1228,78
244,64	1304,56
244,85	1345,52
245,07	1290,22
245,29	1220,59
245,51	1284,08
245,72	1253,36
245,94	1316,84
246,16	1220,59
246,38	1224,69
246,59	1277,93
246,81	1286,12
247,03	1294,32
247,24	1249,26
247,46	1202,16
247,68	1312,75
247,90	1286,12
248,11	1232,88
248,33	1263,60
248,55	1214,45
248,77	1271,79
248,98	1312,75
249,20	1224,69
249,42	1269,74
249,64	1243,12
249,85	1249,26
250,07	1249,26
250,29	1329,13
250,50	1253,36
250,72	1288,17
250,94	1302,51
251,16	1300,46
251,37	1265,64
251,59	1306,60
251,81	1257,45
252,02	1249,26
252,24	1275,88
252,46	1226,73
252,68	1255,40
252,89	1206,25
253,11	1339,37
253,33	1265,64
253,54	1347,56
253,76	1236,97
253,98	1273,84
254,20	1212,40
254,41	1169,39
254,63	1263,60
254,85	1232,88
255,06	1257,45
255,28	1257,45
255,50	1275,88
255,71	1290,22
255,93	1234,93
256,15	1241,07
256,36	1216,49
256,58	1243,12
256,80	1277,93
257,02	1253,36
257,23	1275,88
257,45	1234,93
257,67	1224,69
257,88	1243,12
258,10	1261,55
258,32	1277,93
258,53	1288,17
258,75	1308,65
258,97	1247,21
259,18	1343,47
259,40	1263,60
259,62	1318,89
259,83	1232,88
260,05	1275,88
260,27	1302,51
260,48	1243,12
260,70	1259,50
260,92	1331,18
261,13	1247,21
261,35	1191,92
261,57	1228,78
261,78	1306,60
262,00	1271,79
262,22	1267,69
262,43	1271,79
262,65	1308,65
262,86	1302,51
263,08	1296,36
263,30	1249,26
263,51	1234,93
263,73	1183,73
263,95	1292,27
264,16	1251,31
264,38	1206,25
264,60	1288,17
264,81	1296,36
265,03	1269,74
265,25	1329,13
265,46	1236,97
265,68	1302,51
265,89	1230,83
266,11	1173,49
266,33	1298,41
266,54	1277,93
266,76	1284,08
266,98	1257,45
267,19	1230,83
267,41	1304,56
267,62	1300,46
267,84	1218,54
268,06	1306,60
268,27	1210,35
268,49	1282,03
268,70	1290,22
268,92	1304,56
269,14	1312,75
269,35	1241,07
269,57	1273,84
269,79	1216,49
270,00	1277,93
270,22	1218,54
270,43	1273,84
270,65	1277,93
270,87	1333,23
271,08	1306,60
271,30	1298,41
271,51	1279,98
271,73	1279,98
271,95	1318,89
272,16	1312,75
272,38	1265,64
272,59	1257,45
272,81	1306,60
273,02	1232,88
273,24	1245,16
273,46	1325,04
273,67	1384,43
273,89	1314,80
274,10	1306,60
274,32	1206,25
274,54	1232,88
274,75	1236,97
274,97	1298,41
275,18	1202,16
275,40	1224,69
275,61	1290,22
275,83	1234,93
276,05	1220,59
276,26	1273,84
276,48	1294,32
276,69	1263,60
276,91	1257,45
277,12	1298,41
277,34	1290,22
277,55	1230,83
277,77	1200,11
277,99	1279,98
278,20	1257,45
278,42	1282,03
278,63	1232,88
278,85	1255,40
279,06	1263,60
279,28	1306,60
279,49	1275,88
279,71	1366,00
279,93	1261,55
280,14	1290,22
280,36	1247,21
280,57	1286,12
280,79	1257,45
281,00	1218,54
281,22	1253,36
281,43	1228,78
281,65	1230,83
281,86	1257,45
282,08	1298,41
282,29	1234,93
282,51	1310,70
282,73	1269,74
282,94	1277,93
283,16	1255,40
283,37	1327,08
283,59	1277,93
283,80	1247,21
284,02	1273,84
284,23	1302,51
284,45	1263,60
284,66	1220,59
284,88	1277,93
285,09	1259,50
285,31	1290,22
285,52	1349,61
285,74	1247,21
285,95	1290,22
286,17	1310,70
286,38	1239,02
286,60	1191,92
286,81	1234,93
287,03	1298,41
287,24	1187,82
287,46	1214,45
287,67	1181,68
287,89	1314,80
288,10	1277,93
288,32	1183,73
288,53	1284,08
288,75	1339,37
288,96	1265,64
289,18	1343,47
289,39	1286,12
289,61	1273,84
289,82	1245,16
290,04	1255,40
290,25	1290,22
290,47	1288,17
290,68	1204,21
290,90	1286,12
291,11	1247,21
291,33	1316,84
291,54	1267,69
291,76	1347,56
291,97	1253,36
292,18	1337,32
292,40	1320,94
292,61	1314,80
292,83	1267,69
293,04	1251,31
293,26	1306,60
293,47	1349,61
293,69	1300,46
293,90	1300,46
294,12	1288,17
294,33	1255,40
294,55	1259,50
294,76	1247,21
294,97	1218,54
295,19	1255,40
295,40	1257,45
295,62	1277,93
295,83	1204,21
296,05	1331,18
296,26	1298,41
296,48	1230,83
296,69	1322,99
296,90	1251,31
297,12	1247,21
297,33	1253,36
297,55	1216,49
297,76	1243,12
297,98	1222,64
298,19	1277,93
298,41	1294,32
298,62	1216,49
298,83	1243,12
299,05	1294,32
299,26	1282,03
299,48	1284,08
299,69	1296,36
299,90	1224,69
300,12	1282,03
300,33	1298,41
300,55	1282,03
300,76	1269,74
300,98	1230,83
301,19	1298,41
301,40	1292,27
301,62	1290,22
301,83	1288,17
302,05	1253,36
302,26	1282,03
302,47	1269,74
302,69	1259,50
302,90	1275,88
303,12	1269,74
303,33	1228,78
303,54	1259,50
303,76	1304,56
303,97	1253,36
304,19	1273,84
304,40	1253,36
304,61	1269,74
304,83	1222,64
305,04	1290,22
305,26	1202,16
305,47	1290,22
305,68	1298,41
305,90	1290,22
306,11	1232,88
306,33	1230,83
306,54	1275,88
306,75	1277,93
306,97	1208,30
307,18	1220,59
307,39	1212,40
307,61	1202,16
307,82	1253,36
308,04	1304,56
308,25	1216,49
308,46	1322,99
308,68	1308,65
308,89	1245,16
309,10	1273,84
309,32	1290,22
309,53	1239,02
309,74	1220,59
309,96	1247,21
310,17	1249,26
310,39	1325,04
310,60	1298,41
310,81	1347,56
311,03	1241,07
311,24	1255,40
311,45	1226,73
311,67	1310,70
311,88	1230,83
312,09	1259,50
312,31	1273,84
312,52	1282,03
312,73	1218,54
312,95	1306,60
313,16	1255,40
313,37	1218,54
313,59	1290,22
313,80	1310,70
314,01	1308,65
314,23	1249,26
314,44	1316,84
314,65	1282,03
314,87	1308,65
315,08	1366,00
315,29	1282,03
315,51	1327,08
315,72	1279,98
315,93	1277,93
316,15	1265,64
316,36	1247,21
316,57	1251,31
316,79	1286,12
317,00	1249,26
317,21	1314,80
317,43	1218,54
317,64	1296,36
317,85	1243,12
318,07	1269,74
318,28	1226,73
318,49	1310,70
318,70	1269,74
318,92	1230,83
319,13	1261,55
319,34	1226,73
319,56	1302,51
319,77	1273,84
319,98	1263,60
320,20	1241,07
320,41	1282,03
320,62	1320,94
320,83	1306,60
321,05	1193,97
321,26	1230,83
321,47	1241,07
321,69	1292,27
321,90	1228,78
322,11	1267,69
322,32	1208,30
322,54	1306,60
322,75	1308,65
322,96	1257,45
323,18	1245,16
323,39	1267,69
323,60	1275,88
323,81	1312,75
324,03	1286,12
324,24	1277,93
324,45	1212,40
324,66	1253,36
324,88	1226,73
325,09	1271,79
325,30	1257,45
325,52	1263,60
325,73	1241,07
325,94	1298,41
326,15	1277,93
326,37	1296,36
326,58	1298,41
326,79	1224,69
327,00	1261,55
327,22	1261,55
327,43	1173,49
327,64	1196,01
327,85	1277,93
328,07	1298,41
328,28	1261,55
328,49	1157,10
328,70	1269,74
328,92	1269,74
329,13	1277,93
329,34	1298,41
329,55	1288,17
329,76	1269,74
329,98	1210,35
330,19	1239,02
330,40	1257,45
330,61	1357,80
330,83	1228,78
331,04	1322,99
331,25	1232,88
331,46	1322,99
331,68	1335,28
331,89	1253,36
332,10	1298,41
332,31	1263,60
332,52	1255,40
332,74	1216,49
332,95	1234,93
333,16	1216,49
333,37	1316,84
333,58	1316,84
333,80	1183,73
334,01	1273,84
334,22	1212,40
334,43	1316,84
334,64	1222,64
334,86	1282,03
335,07	1343,47
335,28	1271,79
335,49	1224,69
335,70	1298,41
335,92	1267,69
336,13	1304,56
336,34	1316,84
336,55	1298,41
336,76	1259,50
336,98	1239,02
337,19	1298,41
337,40	1165,29
337,61	1384,43
337,82	1302,51
338,04	1228,78
338,25	1255,40
338,46	1286,12
338,67	1241,07
338,88	1288,17
339,09	1245,16
339,31	1331,18
339,52	1257,45
339,73	1320,94
339,94	1173,49
340,15	1271,79
340,36	1206,25
340,58	1273,84
340,79	1318,89
341,00	1273,84
341,21	1218,54
341,42	1322,99
341,63	1353,71
341,85	1290,22
342,06	1277,93
342,27	1312,75
342,48	1282,03
342,69	1263,60
342,90	1318,89
343,12	1245,16
343,33	1236,97
343,54	1202,16
343,75	1249,26
343,96	1322,99
344,17	1255,40
344,38	1236,97
344,60	1222,64
344,81	1286,12
345,02	1216,49
345,23	1220,59
345,44	1279,98
345,65	1224,69
345,86	1314,80
346,07	1308,65
346,29	1224,69
346,50	1265,64
346,71	1277,93
346,92	1286,12
347,13	1269,74
347,34	1196,01
347,55	1316,84
347,76	1347,56
347,98	1275,88
348,19	1198,06
348,40	1312,75
348,61	1325,04
348,82	1300,46
349,03	1259,50
349,24	1214,45
349,45	1312,75
349,66	1251,31
349,88	1265,64
350,09	1271,79
350,30	1284,08
350,51	1265,64
350,72	1277,93
350,93	1339,37
351,14	1265,64
351,35	1288,17
351,56	1236,97
351,77	1249,26
351,99	1294,32
352,20	1220,59
352,41	1259,50
352,62	1298,41
352,83	1351,66
353,04	1298,41
353,25	1341,42
353,46	1310,70
353,67	1339,37
353,88	1292,27
354,09	1251,31
354,30	1259,50
354,52	1257,45
354,73	1265,64
354,94	1224,69
355,15	1230,83
355,36	1286,12
355,57	1314,80
355,78	1239,02
355,99	1245,16
356,20	1249,26
356,41	1191,92
356,62	1310,70
356,83	1255,40
357,04	1212,40
357,25	1261,55
357,46	1257,45
357,68	1296,36
357,89	1234,93
358,10	1288,17
358,31	1322,99
358,52	1251,31
358,73	1218,54
358,94	1216,49
359,15	1212,40
359,36	1263,60
359,57	1241,07
359,78	1271,79
359,99	1216,49
360,20	1347,56
360,41	1269,74
360,62	1255,40
360,83	1318,89
361,04	1208,30
361,25	1269,74
361,46	1257,45
361,67	1239,02
361,88	1298,41
362,09	1228,78
362,30	1263,60
362,51	1306,60
362,72	1255,40
362,93	1320,94
363,14	1247,21
363,35	1253,36
363,56	1265,64
363,78	1204,21
363,99	1236,97
364,20	1234,93
364,41	1204,21
364,62	1275,88
364,83	1286,12
365,04	1282,03
365,25	1253,36
365,46	1290,22
365,67	1292,27
365,88	1298,41
366,09	1273,84
366,30	1265,64
366,51	1177,58
366,72	1294,32
366,93	1320,94
367,14	1339,37
367,35	1304,56
367,56	1290,22
367,77	1310,70
367,98	1206,25
368,18	1269,74
368,39	1335,28
368,60	1288,17
368,81	1300,46
369,02	1230,83
369,23	1273,84
369,44	1327,08
369,65	1267,69
369,86	1308,65
370,07	1331,18
370,28	1279,98
370,49	1247,21
370,70	1230,83
370,91	1236,97
371,12	1269,74
371,33	1269,74
371,54	1300,46
371,75	1243,12
371,96	1316,84
372,17	1232,88
372,38	1204,21
372,59	1249,26
372,80	1271,79
373,01	1226,73
373,22	1251,31
373,43	1269,74
373,64	1277,93
373,85	1214,45
374,06	1206,25
374,26	1208,30
374,47	1259,50
374,68	1243,12
374,89	1259,50
375,10	1234,93
375,31	1220,59
375,52	1232,88
375,73	1277,93
375,94	1273,84
376,15	1224,69
376,36	1302,51
376,57	1279,98
376,78	1302,51
376,99	1230,83
377,20	1257,45
377,40	1320,94
377,61	1220,59
377,82	1249,26
378,03	1236,97
378,24	1286,12
378,45	1341,42
378,66	1232,88
378,87	1187,82
379,08	1308,65
379,29	1259,50
379,50	1204,21
379,71	1249,26
379,91	1249,26
380,12	1241,07
380,33	1175,53
380,54	1239,02
380,75	1296,36
380,96	1304,56
381,17	1257,45
381,38	1253,36
381,59	1378,28
381,80	1267,69
382,00	1335,28
382,21	1327,08
382,42	1312,75
382,63	1251,31
382,84	1232,88
383,05	1245,16
383,26	1265,64
383,47	1308,65
383,68	1249,26
383,88	1361,90
384,09	1224,69
384,30	1247,21
384,51	1239,02
384,72	1279,98
384,93	1271,79
385,14	1202,16
385,35	1312,75
385,55	1300,46
385,76	1288,17
385,97	1349,61
386,18	1193,97
386,39	1312,75
386,60	1210,35
386,81	1216,49
387,02	1247,21
387,22	1183,73
387,43	1300,46
387,64	1241,07
387,85	1275,88
388,06	1236,97
388,27	1269,74
388,48	1282,03
388,68	1259,50
388,89	1288,17
389,10	1267,69
389,31	1261,55
389,52	1298,41
389,73	1304,56
389,93	1288,17
390,14	1282,03
390,35	1253,36
390,56	1312,75
390,77	1302,51
390,98	1288,17
391,18	1226,73
391,39	1177,58
391,60	1288,17
391,81	1271,79
392,02	1243,12
392,23	1261,55
392,43	1282,03
392,64	1292,27
392,85	1257,45
393,06	1322,99
393,27	1239,02
393,47	1288,17
393,68	1259,50
393,89	1142,77
394,10	1316,84
394,31	1282,03
394,52	1183,73
394,72	1314,80
394,93	1251,31
395,14	1257,45
395,35	1333,23
395,56	1267,69
395,76	1277,93
395,97	1200,11
396,18	1304,56
396,39	1232,88
396,60	1249,26
396,80	1191,92
397,01	1312,75
397,22	1261,55
397,43	1257,45
397,64	1228,78
397,84	1269,74
398,05	1263,60
398,26	1222,64
398,47	1286,12
398,67	1232,88
398,88	1304,56
399,09	1212,40
399,30	1228,78
399,51	1376,24
399,71	1279,98
399,92	1251,31
400,13	1286,12
400,34	1271,79
400,54	1286,12
400,75	1232,88
400,96	1236,97
401,17	1263,60
401,37	1251,31
401,58	1298,41
401,79	1245,16
402,00	1312,75
402,21	1312,75
402,41	1304,56
402,62	1241,07
402,83	1234,93
403,04	1257,45
403,24	1327,08
403,45	1261,55
403,66	1329,13
403,87	1273,84
404,07	1300,46
404,28	1279,98
404,49	1228,78
404,70	1269,74
404,90	1249,26
405,11	1259,50
405,32	1288,17
405,52	1234,93
405,73	1253,36
405,94	1226,73
406,15	1298,41
406,35	1339,37
406,56	1296,36
406,77	1282,03
406,98	1273,84
407,18	1312,75
407,39	1245,16
407,60	1275,88
407,80	1267,69
408,01	1247,21
408,22	1255,40
408,43	1304,56
408,63	1208,30
408,84	1286,12
409,05	1320,94
409,25	1218,54
409,46	1304,56
409,67	1249,26
409,88	1267,69
410,08	1179,63
410,29	1273,84
410,50	1251,31
410,70	1265,64
410,91	1220,59
411,12	1267,69
411,32	1200,11
411,53	1232,88
411,74	1255,40
411,95	1247,21
412,15	1236,97
412,36	1220,59
412,57	1275,88
412,77	1251,31
412,98	1279,98
413,19	1306,60
413,39	1275,88
413,60	1222,64
413,81	1288,17
414,01	1271,79
414,22	1265,64
414,43	1245,16
414,63	1304,56
414,84	1216,49
415,05	1226,73
415,25	1226,73
415,46	1245,16
415,67	1269,74
415,87	1263,60
416,08	1296,36
416,29	1228,78
416,49	1269,74
416,70	1308,65
416,91	1251,31
417,11	1232,88
417,32	1312,75
417,53	1257,45
417,73	1282,03
417,94	1298,41
418,15	1251,31
418,35	1269,74
418,56	1277,93
418,77	1282,03
418,97	1255,40
419,18	1214,45
419,38	1279,98
419,59	1261,55
419,80	1286,12
420,00	1228,78
420,21	1267,69
420,42	1300,46
420,62	1314,80
420,83	1273,84
421,04	1263,60
421,24	1249,26
421,45	1232,88
421,65	1304,56
421,86	1271,79
422,07	1282,03
422,27	1273,84
422,48	1294,32
422,69	1230,83
422,89	1239,02
423,10	1296,36
423,30	1243,12
423,51	1247,21
423,72	1284,08
423,92	1304,56
424,13	1236,97
424,33	1314,80
424,54	1249,26
424,75	1226,73
424,95	1200,11
425,16	1263,60
425,36	1232,88
425,57	1257,45
425,78	1318,89
425,98	1261,55
426,19	1290,22
426,39	1284,08
426,60	1292,27
426,81	1288,17
427,01	1314,80
427,22	1296,36
427,42	1263,60
427,63	1271,79
427,83	1277,93
428,04	1265,64
428,25	1269,74
428,45	1286,12
428,66	1232,88
428,86	1189,87
429,07	1253,36
429,28	1210,35
429,48	1290,22
429,69	1339,37
429,89	1230,83
430,10	1208,30
430,30	1259,50
430,51	1249,26
430,71	1251,31
430,92	1284,08
431,13	1232,88
431,33	1277,93
431,54	1239,02
431,74	1335,28
431,95	1359,85
432,15	1220,59
432,36	1282,03
432,56	1316,84
432,77	1253,36
432,98	1320,94
433,18	1218,54
433,39	1320,94
433,59	1257,45
433,80	1265,64
434,00	1308,65
434,21	1175,53
434,41	1257,45
434,62	1290,22
434,82	1298,41
435,03	1288,17
435,23	1349,61
435,44	1218,54
435,64	1292,27
435,85	1286,12
436,06	1210,35
436,26	1202,16
436,47	1298,41
436,67	1257,45
436,88	1253,36
437,08	1275,88
437,29	1255,40
437,49	1236,97
437,70	1239,02
437,90	1282,03
438,11	1277,93
438,31	1228,78
438,52	1275,88
438,72	1273,84
438,93	1331,18
439,13	1269,74
439,34	1214,45
439,54	1318,89
439,75	1265,64
439,95	1214,45
440,16	1212,40
440,36	1249,26
440,57	1257,45
440,77	1347,56
440,98	1300,46
441,18	1304,56
441,39	1286,12
441,59	1288,17
441,80	1288,17
442,00	1232,88
442,21	1243,12
442,41	1239,02
442,62	1277,93
442,82	1249,26
443,02	1279,98
443,23	1257,45
443,43	1327,08
443,64	1273,84
443,84	1226,73
444,05	1200,11
444,25	1251,31
444,46	1214,45
444,66	1224,69
444,87	1294,32
445,07	1269,74
445,28	1284,08
445,48	1267,69
445,69	1267,69
445,89	1277,93
446,09	1302,51
446,30	1277,93
446,50	1222,64
446,71	1333,23
446,91	1253,36
447,12	1206,25
447,32	1345,52
447,53	1275,88
447,73	1312,75
447,93	1249,26
448,14	1277,93
448,34	1288,17
448,55	1296,36
448,75	1247,21
448,96	1290,22
449,16	1236,97
449,36	1370,09
449,57	1318,89
449,77	1234,93
449,98	1232,88
450,18	1181,68
450,39	1288,17
450,59	1224,69
450,79	1312,75
451,00	1187,82
451,20	1308,65
451,41	1263,60
451,61	1200,11
451,81	1265,64
452,02	1310,70
452,22	1279,98
452,43	1263,60
452,63	1298,41
452,84	1318,89
453,04	1220,59
453,24	1298,41
453,45	1230,83
453,65	1210,35
453,86	1331,18
454,06	1257,45
454,26	1239,02
454,47	1261,55
454,67	1236,97
454,87	1259,50
455,08	1282,03
455,28	1271,79
455,49	1292,27
455,69	1257,45
455,89	1247,21
456,10	1265,64
456,30	1282,03
456,51	1247,21
456,71	1239,02
456,91	1316,84
457,12	1261,55
457,32	1251,31
457,52	1239,02
457,73	1292,27
457,93	1304,56
458,14	1228,78
458,34	1294,32
458,54	1275,88
458,75	1345,52
458,95	1224,69
459,15	1261,55
459,36	1310,70
459,56	1261,55
459,76	1232,88
459,97	1265,64
460,17	1298,41
460,37	1320,94
460,58	1257,45
460,78	1243,12
460,99	1286,12
461,19	1216,49
461,39	1296,36
461,60	1243,12
461,80	1208,30
462,00	1253,36
462,21	1282,03
462,41	1232,88
462,61	1218,54
462,82	1247,21
463,02	1230,83
463,22	1282,03
463,43	1245,16
463,63	1210,35
463,83	1357,80
464,04	1175,53
464,24	1179,63
464,44	1361,90
464,64	1245,16
464,85	1325,04
465,05	1261,55
465,25	1230,83
465,46	1255,40
465,66	1271,79
465,86	1265,64
466,07	1273,84
466,27	1220,59
466,47	1261,55
466,68	1306,60
466,88	1290,22
467,08	1224,69
467,29	1333,23
467,49	1198,06
467,69	1298,41
467,89	1335,28
468,10	1320,94
468,30	1310,70
468,50	1249,26
468,71	1279,98
468,91	1200,11
469,11	1343,47
469,31	1282,03
469,52	1251,31
469,72	1306,60
469,92	1318,89
470,13	1335,28
470,33	1288,17
470,53	1189,87
470,73	1288,17
470,94	1189,87
471,14	1236,97
471,34	1263,60
471,54	1292,27
471,75	1241,07
471,95	1275,88
472,15	1314,80
472,36	1275,88
472,56	1257,45
472,76	1292,27
472,96	1290,22
473,17	1261,55
473,37	1261,55
473,57	1251,31
473,77	1271,79
473,98	1296,36
474,18	1288,17
474,38	1310,70
474,58	1318,89
474,79	1222,64
474,99	1333,23
475,19	1247,21
475,39	1251,31
475,60	1214,45
475,80	1282,03
476,00	1269,74
476,20	1265,64
476,41	1249,26
476,61	1269,74
476,81	1257,45
477,01	1325,04
477,21	1239,02
477,42	1320,94
477,62	1173,49
477,82	1329,13
478,02	1189,87
478,23	1345,52
478,43	1222,64
478,63	1271,79
478,83	1282,03
479,03	1200,11
479,24	1255,40
479,44	1279,98
479,64	1202,16
479,84	1247,21
480,04	1304,56
480,25	1214,45
480,45	1298,41
480,65	1314,80
480,85	1251,31
481,06	1245,16
481,26	1234,93
481,46	1249,26
481,66	1314,80
481,86	1245,16
482,06	1339,37
482,27	1173,49
482,47	1251,31
482,67	1351,66
482,87	1222,64
483,07	1294,32
483,28	1286,12
483,48	1232,88
483,68	1183,73
483,88	1228,78
484,08	1267,69
484,29	1284,08
484,49	1165,29
484,69	1294,32
484,89	1218,54
485,09	1318,89
485,29	1304,56
485,50	1263,60
485,70	1228,78
485,90	1232,88
486,10	1284,08
486,30	1275,88
486,50	1302,51
486,71	1269,74
486,91	1292,27
487,11	1220,59
487,31	1198,06
487,51	1296,36
487,71	1251,31
487,91	1284,08
488,12	1284,08
488,32	1234,93
488,52	1267,69
488,72	1257,45
488,92	1263,60
489,12	1306,60
489,32	1333,23
489,53	1298,41
489,73	1366,00
489,93	1290,22
490,13	1202,16
490,33	1273,84
490,53	1275,88
490,73	1325,04
490,94	1265,64
491,14	1304,56
491,34	1236,97
491,54	1308,65
491,74	1288,17
491,94	1251,31
492,14	1267,69
492,34	1298,41
492,54	1292,27
492,75	1320,94
492,95	1249,26
493,15	1259,50
493,35	1200,11
493,55	1302,51
493,75	1286,12
493,95	1253,36
494,15	1271,79
494,35	1290,22
494,56	1224,69
494,76	1224,69
494,96	1277,93
495,16	1255,40
495,36	1304,56
495,56	1333,23
495,76	1290,22
495,96	1273,84
496,16	1267,69
496,36	1183,73
496,56	1298,41
496,77	1312,75
496,97	1220,59
497,17	1255,40
497,37	1269,74
497,57	1243,12
497,77	1273,84
497,97	1224,69
498,17	1216,49
498,37	1271,79
498,57	1335,28
498,77	1261,55
498,97	1251,31
499,17	1284,08
499,38	1298,41
499,58	1220,59
499,78	1347,56
499,98	1331,18
500,18	1267,69
500,38	1318,89
500,58	1273,84
500,78	1249,26
500,98	1304,56
501,18	1273,84
501,38	1370,09
501,58	1275,88
501,78	1251,31
501,98	1261,55
502,18	1282,03
502,38	1320,94
502,58	1304,56
502,78	1282,03
502,98	1286,12
503,18	1273,84
503,38	1320,94
503,59	1198,06
503,79	1312,75
503,99	1318,89
504,19	1253,36
504,39	1282,03
504,59	1335,28
504,79	1255,40
504,99	1253,36
505,19	1257,45
505,39	1316,84
505,59	1279,98
505,79	1245,16
505,99	1269,74
506,19	1302,51
506,39	1271,79
506,59	1308,65
506,79	1277,93
506,99	1212,40
507,19	1282,03
507,39	1204,21
507,59	1265,64
507,79	1282,03
507,99	1265,64
508,19	1310,70
508,39	1290,22
508,59	1234,93
508,79	1304,56
508,99	1269,74
509,19	1239,02
509,39	1249,26
509,59	1236,97
509,79	1169,39
509,99	1216,49
510,19	1296,36
510,39	1298,41
510,59	1251,31
510,79	1241,07
510,99	1210,35
511,19	1222,64
511,39	1230,83
511,59	1320,94
511,79	1318,89
511,99	1257,45
512,19	1253,36
512,38	1232,88
512,58	1288,17
512,78	1288,17
512,98	1257,45
513,18	1255,40
513,38	1249,26
513,58	1275,88
513,78	1279,98
513,98	1206,25
514,18	1265,64
514,38	1290,22
514,58	1265,64
514,78	1279,98
514,98	1269,74
515,18	1314,80
515,38	1241,07
515,58	1322,99
515,78	1241,07
515,98	1298,41
516,18	1196,01
516,38	1290,22
516,57	1247,21
516,77	1247,21
516,97	1277,93
517,17	1325,04
517,37	1239,02
517,57	1267,69
517,77	1273,84
517,97	1206,25
518,17	1253,36
518,37	1318,89
518,57	1202,16
518,77	1241,07
518,97	1288,17
519,16	1296,36
519,36	1249,26
519,56	1171,44
519,76	1322,99
519,96	1282,03
520,16	1257,45
520,36	1261,55
520,56	1275,88
520,76	1294,32
520,96	1271,79
521,16	1253,36
521,35	1269,74
521,55	1306,60
521,75	1228,78
521,95	1304,56
522,15	1200,11
522,35	1206,25
522,55	1286,12
522,75	1318,89
522,95	1226,73
523,14	1318,89
523,34	1290,22
523,54	1214,45
523,74	1230,83
523,94	1241,07
524,14	1216,49
524,34	1273,84
524,54	1255,40
524,73	1325,04
524,93	1261,55
525,13	1163,25
525,33	1234,93
525,53	1232,88
525,73	1185,77
525,93	1277,93
526,13	1245,16
526,32	1304,56
526,52	1314,80
526,72	1218,54
526,92	1265,64
527,12	1349,61
527,32	1241,07
527,52	1279,98
527,71	1265,64
527,91	1269,74
528,11	1288,17
528,31	1265,64
528,51	1277,93
528,71	1241,07
528,90	1222,64
529,10	1286,12
529,30	1288,17
529,50	1298,41
529,70	1267,69
529,90	1265,64
530,09	1314,80
530,29	1120,24
530,49	1232,88
530,69	1183,73
530,89	1220,59
531,09	1265,64
531,28	1292,27
531,48	1232,88
531,68	1316,84
531,88	1300,46
532,08	1298,41
532,28	1273,84
532,47	1302,51
532,67	1300,46
532,87	1298,41
533,07	1224,69
533,27	1228,78
533,46	1232,88
533,66	1329,13
533,86	1275,88
534,06	1282,03
534,26	1249,26
534,45	1271,79
534,65	1239,02
534,85	1265,64
535,05	1236,97
535,25	1277,93
535,44	1318,89
535,64	1312,75
535,84	1216,49
536,04	1329,13
536,24	1239,02
536,43	1216,49
536,63	1290,22
536,83	1206,25
537,03	1306,60
537,22	1261,55
537,42	1241,07
537,62	1206,25
537,82	1206,25
538,02	1265,64
538,21	1284,08
538,41	1263,60
538,61	1288,17
538,81	1243,12
539,00	1220,59
539,20	1331,18
539,40	1333,23
539,60	1335,28
539,79	1251,31
539,99	1220,59
540,19	1247,21
540,39	1232,88
540,58	1247,21
540,78	1333,23
540,98	1228,78
541,18	1275,88
541,37	1308,65
541,57	1253,36
541,77	1245,16
541,97	1239,02
542,16	1251,31
542,36	1218,54
542,56	1314,80
542,76	1275,88
542,95	1253,36
543,15	1261,55
543,35	1320,94
543,54	1232,88
543,74	1353,71
543,94	1349,61
544,14	1296,36
544,33	1327,08
544,53	1226,73
544,73	1261,55
544,93	1265,64
545,12	1236,97
545,32	1241,07
545,52	1267,69
545,71	1255,40
545,91	1214,45
546,11	1310,70
546,30	1247,21
546,50	1325,04
546,70	1353,71
546,90	1259,50
547,09	1232,88
547,29	1269,74
547,49	1349,61
547,68	1218,54
547,88	1222,64
548,08	1234,93
548,27	1288,17
548,47	1263,60
548,67	1226,73
548,87	1320,94
549,06	1253,36
549,26	1245,16
549,46	1212,40
549,65	1269,74
549,85	1302,51
550,05	1331,18
550,24	1316,84
550,44	1265,64
550,64	1292,27
550,83	1232,88
551,03	1259,50
551,23	1267,69
551,42	1269,74
551,62	1208,30
551,82	1241,07
552,01	1290,22
552,21	1249,26
552,41	1327,08
552,60	1259,50
552,80	1288,17
553,00	1226,73
553,19	1310,70
553,39	1271,79
553,59	1277,93
553,78	1253,36
553,98	1314,80
554,17	1310,70
554,37	1296,36
554,57	1275,88
554,76	1271,79
554,96	1222,64
555,16	1273,84
555,35	1245,16
555,55	1290,22
555,75	1273,84
555,94	1230,83
556,14	1191,92
556,33	1241,07
556,53	1236,97
556,73	1265,64
556,92	1257,45
557,12	1288,17
557,32	1275,88
557,51	1212,40
557,71	1308,65
557,90	1181,68
558,10	1294,32
558,30	1271,79
558,49	1275,88
558,69	1279,98
558,88	1206,25
559,08	1267,69
559,28	1286,12
559,47	1329,13
559,67	1251,31
559,86	1265,64
560,06	1196,01
560,26	1265,64
560,45	1239,02
560,65	1290,22
560,84	1196,01
561,04	1265,64
561,24	1314,80
561,43	1271,79
561,63	1273,84
561,82	1302,51
562,02	1290,22
562,22	1282,03
562,41	1296,36
562,61	1236,97
562,80	1251,31
563,00	1273,84
563,19	1249,26
563,39	1265,64
563,59	1230,83
563,78	1247,21
563,98	1222,64
564,17	1198,06
564,37	1232,88
564,56	1218,54
564,76	1236,97
564,96	1308,65
565,15	1232,88
565,35	1239,02
565,54	1310,70
565,74	1314,80
565,93	1284,08
566,13	1216,49
566,32	1310,70
566,52	1253,36
566,71	1308,65
566,91	1251,31
567,11	1243,12
567,30	1249,26
567,50	1271,79
567,69	1273,84
567,89	1277,93
568,08	1325,04
568,28	1247,21
568,47	1304,56
568,67	1269,74
568,86	1273,84
569,06	1306,60
569,25	1284,08
569,45	1312,75
569,64	1271,79
569,84	1271,79
570,04	1296,36
570,23	1273,84
570,43	1286,12
570,62	1265,64
570,82	1239,02
571,01	1261,55
571,21	1308,65
571,40	1261,55
571,60	1202,16
571,79	1269,74
571,99	1210,35
572,18	1296,36
572,38	1218,54
572,57	1189,87
572,77	1304,56
572,96	1271,79
573,16	1249,26
573,35	1292,27
573,55	1273,84
573,74	1282,03
573,94	1306,60
574,13	1267,69
574,33	1247,21
574,52	1279,98
574,71	1273,84
574,91	1253,36
575,10	1269,74
575,30	1320,94
575,49	1282,03
575,69	1271,79
575,88	1255,40
576,08	1251,31
576,27	1193,97
576,47	1271,79
576,66	1312,75
576,86	1277,93
577,05	1249,26
577,25	1228,78
577,44	1282,03
577,64	1253,36
577,83	1261,55
578,02	1292,27
578,22	1282,03
578,41	1210,35
578,61	1249,26
578,80	1247,21
579,00	1349,61
579,19	1267,69
579,39	1263,60
579,58	1300,46
579,77	1206,25
579,97	1243,12
580,16	1290,22
580,36	1234,93
580,55	1275,88
580,75	1177,58
580,94	1318,89
581,13	1167,34
581,33	1290,22
581,52	1298,41
581,72	1277,93
581,91	1257,45
582,11	1261,55
582,30	1310,70
582,49	1265,64
582,69	1253,36
582,88	1239,02
583,08	1339,37
583,27	1208,30
583,47	1251,31
583,66	1249,26
583,85	1290,22
584,05	1298,41
584,24	1265,64
584,44	1290,22
584,63	1288,17
584,82	1316,84
585,02	1249,26
585,21	1310,70
585,41	1306,60
585,60	1232,88
585,79	1345,52
585,99	1273,84
586,18	1298,41
586,37	1288,17
586,57	1228,78
586,76	1204,21
586,96	1241,07
587,15	1343,47
587,34	1241,07
587,54	1273,84
587,73	1292,27
587,93	1202,16
588,12	1275,88
588,31	1298,41
588,51	1249,26
588,70	1273,84
588,89	1275,88
589,09	1247,21
589,28	1333,23
589,47	1236,97
589,67	1263,60
589,86	1224,69
590,06	1318,89
590,25	1245,16
590,44	1314,80
590,64	1253,36
590,83	1222,64
591,02	1320,94
591,22	1245,16
591,41	1265,64
591,60	1292,27
591,80	1312,75
591,99	1214,45
592,18	1302,51
592,38	1236,97
592,57	1259,50
592,76	1337,32
592,96	1226,73
593,15	1265,64
593,34	1288,17
593,54	1282,03
593,73	1214,45
593,92	1320,94
594,12	1245,16
594,31	1206,25
594,50	1243,12
594,70	1228,78
594,89	1331,18
595,08	1232,88
595,28	1347,56
595,47	1271,79
595,66	1191,92
595,86	1294,32
596,05	1282,03
596,24	1208,30
596,43	1277,93
596,63	1236,97
596,82	1251,31
597,01	1304,56
597,21	1118,19
597,40	1241,07
597,59	1239,02
597,79	1241,07
597,98	1208,30
598,17	1232,88
598,36	1310,70
598,56	1331,18
598,75	1255,40
598,94	1294,32
599,14	1241,07
599,33	1271,79
599,52	1251,31
599,71	1261,55
599,91	1206,25
600,10	1253,36
600,29	1275,88
600,48	1294,32
600,68	1234,93
600,87	1288,17
601,06	1290,22
601,26	1253,36
601,45	1267,69
601,64	1302,51
601,83	1300,46
602,03	1265,64
602,22	1255,40
602,41	1241,07
602,60	1259,50
602,80	1257,45
602,99	1239,02
603,18	1282,03
603,37	1304,56
603,57	1239,02
603,76	1243,12
603,95	1318,89
604,14	1284,08
604,34	1259,50
604,53	1294,32
604,72	1349,61
604,91	1296,36
605,10	1298,41
605,30	1279,98
605,49	1255,40
605,68	1275,88
605,87	1245,16
606,07	1282,03
606,26	1265,64
606,45	1247,21
606,64	1265,64
606,84	1294,32
607,03	1255,40
607,22	1271,79
607,41	1224,69
607,60	1302,51
607,80	1255,40
607,99	1257,45
608,18	1261,55
608,37	1249,26
608,56	1316,84
608,76	1277,93
608,95	1322,99
609,14	1298,41
609,33	1370,09
609,52	1282,03
609,72	1224,69
609,91	1230,83
610,10	1245,16
610,29	1279,98
610,48	1292,27
610,68	1314,80
610,87	1249,26
611,06	1296,36
611,25	1277,93
611,44	1228,78
611,63	1208,30
611,83	1261,55
612,02	1269,74
612,21	1318,89
612,40	1214,45
612,59	1245,16
612,79	1236,97
612,98	1282,03
613,17	1222,64
613,36	1234,93
613,55	1261,55
613,74	1220,59
613,93	1265,64
614,13	1261,55
614,32	1294,32
614,51	1251,31
614,70	1247,21
614,89	1165,29
615,08	1222,64
615,28	1216,49
615,47	1288,17
615,66	1265,64
615,85	1261,55
616,04	1247,21
616,23	1322,99
616,42	1286,12
616,62	1288,17
616,81	1241,07
617,00	1247,21
617,19	1255,40
617,38	1279,98
617,57	1249,26
617,76	1310,70
617,95	1304,56
618,15	1265,64
618,34	1337,32
618,53	1247,21
618,72	1202,16
618,91	1224,69
619,10	1206,25
619,29	1226,73
619,48	1298,41
619,68	1320,94
619,87	1318,89
620,06	1279,98
620,25	1296,36
620,44	1267,69
620,63	1298,41
620,82	1255,40
621,01	1296,36
621,20	1212,40
621,39	1247,21
621,59	1273,84
621,78	1271,79
621,97	1275,88
622,16	1304,56
622,35	1249,26
622,54	1208,30
622,73	1222,64
622,92	1370,09
623,11	1247,21
623,30	1259,50
623,49	1226,73
623,68	1257,45
623,88	1259,50
624,07	1294,32
624,26	1308,65
624,45	1302,51
624,64	1241,07
624,83	1298,41
625,02	1261,55
625,21	1282,03
625,40	1298,41
625,59	1267,69
625,78	1269,74
625,97	1269,74
626,16	1277,93
626,35	1347,56
626,54	1304,56
626,74	1273,84
626,93	1249,26
627,12	1263,60
627,31	1282,03
627,50	1247,21
627,69	1310,70
627,88	1339,37
628,07	1310,70
628,26	1267,69
628,45	1314,80
628,64	1202,16
628,83	1366,00
629,02	1239,02
629,21	1300,46
629,40	1290,22
629,59	1267,69
629,78	1263,60
629,97	1279,98
630,16	1222,64
630,35	1296,36
630,54	1239,02
630,73	1302,51
630,92	1288,17
631,11	1224,69
631,30	1304,56
631,49	1257,45
631,68	1316,84
631,87	1511,40
632,06	1812,45
632,25	1609,70
632,44	1624,04
632,63	2002,91
632,82	2457,56
633,01	3092,43
633,20	3309,52
633,39	3344,33
633,58	2453,47
633,77	2160,61
633,96	2815,96
634,15	3989,44
634,34	4241,34
634,53	3542,99
634,72	2693,08
634,91	2062,30
635,10	1679,33
635,29	1638,38
635,48	1619,94
635,67	1486,83
635,86	1503,21
636,05	1400,81
636,24	1357,80
636,43	1411,05
636,62	1347,56
636,81	1331,18
637,00	1368,04
637,19	1327,08
637,38	1302,51
637,57	1239,02
637,76	1296,36
637,95	1294,32
638,14	1376,24
638,33	1318,89
638,52	1247,21
638,71	1218,54
638,89	1236,97
639,08	1304,56
639,27	1273,84
639,46	1249,26
639,65	1234,93
639,84	1224,69
640,03	1236,97
640,22	1206,25
640,41	1286,12
640,60	1312,75
640,79	1234,93
640,98	1304,56
641,17	1282,03
641,36	1226,73
641,55	1294,32
641,74	1304,56
641,92	1212,40
642,11	1314,80
642,30	1265,64
642,49	1208,30
642,68	1273,84
642,87	1282,03
643,06	1228,78
643,25	1241,07
643,44	1236,97
643,63	1275,88
643,82	1263,60
644,00	1247,21
644,19	1183,73
644,38	1234,93
644,57	1310,70
644,76	1286,12
644,95	1253,36
645,14	1241,07
645,33	1271,79
645,52	1239,02
645,71	1243,12
645,89	1296,36
646,08	1345,52
646,27	1294,32
646,46	1234,93
646,65	1216,49
646,84	1282,03
647,03	1271,79
647,22	1267,69
647,40	1335,28
647,59	1208,30
647,78	1314,80
647,97	1306,60
648,16	1222,64
648,35	1292,27
648,54	1355,76
648,73	1257,45
648,91	1255,40
649,10	1146,86
649,29	1222,64
649,48	1216,49
649,67	1366,00
649,86	1271,79
650,05	1222,64
650,23	1277,93
650,42	1345,52
650,61	1212,40
650,80	1265,64
650,99	1187,82
651,18	1300,46
651,36	1290,22
651,55	1241,07
651,74	1241,07
651,93	1337,32
652,12	1249,26
652,31	1220,59
652,49	1300,46
652,68	1210,35
652,87	1210,35
653,06	1261,55
653,25	1298,41
653,44	1265,64
653,62	1241,07
653,81	1269,74
654,00	1300,46
654,19	1286,12
654,38	1261,55
654,56	1253,36
654,75	1294,32
654,94	1298,41
655,13	1257,45
655,32	1263,60
655,51	1249,26
655,69	1187,82
655,88	1273,84
656,07	1284,08
656,26	1294,32
656,45	1282,03
656,63	1265,64
656,82	1202,16
657,01	1382,38
657,20	1306,60
657,38	1265,64
657,57	1269,74
657,76	1226,73
657,95	1290,22
658,14	1300,46
658,32	1269,74
658,51	1290,22
658,70	1273,84
658,89	1282,03
659,08	1243,12
659,26	1296,36
659,45	1241,07
659,64	1296,36
659,83	1306,60
660,01	1222,64
660,20	1265,64
660,39	1222,64
660,58	1288,17
660,76	1275,88
660,95	1204,21
661,14	1169,39
661,33	1232,88
661,51	1212,40
661,70	1306,60
661,89	1177,58
662,08	1318,89
662,26	1259,50
662,45	1286,12
662,64	1247,21
662,83	1322,99
663,01	1245,16
663,20	1222,64
663,39	1302,51
663,58	1302,51
663,76	1329,13
663,95	1247,21
664,14	1236,97
664,32	1302,51
664,51	1239,02
664,70	1247,21
664,89	1263,60
665,07	1239,02
665,26	1277,93
665,45	1251,31
665,64	1232,88
665,82	1294,32
666,01	1267,69
666,20	1228,78
666,38	1257,45
666,57	1191,92
666,76	1255,40
666,95	1251,31
667,13	1222,64
667,32	1253,36
667,51	1212,40
667,69	1296,36
667,88	1273,84
668,07	1267,69
668,25	1267,69
668,44	1304,56
668,63	1226,73
668,81	1226,73
669,00	1355,76
669,19	1259,50
669,38	1288,17
669,56	1224,69
669,75	1325,04
669,94	1277,93
670,12	1255,40
670,31	1273,84
670,50	1298,41
670,68	1239,02
670,87	1318,89
671,06	1247,21
671,24	1331,18
671,43	1273,84
671,62	1259,50
671,80	1312,75
671,99	1273,84
672,18	1294,32
672,36	1257,45
672,55	1290,22
672,74	1282,03
672,92	1212,40
673,11	1286,12
673,29	1236,97
673,48	1247,21
673,67	1298,41
673,85	1257,45
674,04	1243,12
674,23	1198,06
674,41	1239,02
674,60	1265,64
674,79	1247,21
674,97	1292,27
675,16	1261,55
675,34	1304,56
675,53	1239,02
675,72	1282,03
675,90	1284,08
676,09	1247,21
676,28	1261,55
676,46	1292,27
676,65	1284,08
676,83	1230,83
677,02	1351,66
677,21	1329,13
677,39	1322,99
677,58	1298,41
677,77	1273,84
677,95	1232,88
678,14	1310,70
678,32	1267,69
678,51	1224,69
678,70	1275,88
678,88	1298,41
679,07	1251,31
679,25	1259,50
679,44	1288,17
679,63	1290,22
679,81	1245,16
680,00	1316,84
680,18	1282,03
680,37	1282,03
680,55	1273,84
680,74	1234,93
680,93	1265,64
681,11	1247,21
681,30	1279,98
681,48	1292,27
681,67	1310,70
681,85	1269,74
682,04	1267,69
682,23	1314,80
682,41	1232,88
682,60	1251,31
682,78	1292,27
682,97	1273,84
683,15	1241,07
683,34	1245,16
683,53	1230,83
683,71	1271,79
683,90	1234,93
684,08	1263,60
684,27	1288,17
684,45	1214,45
684,64	1251,31
684,82	1265,64
685,01	1284,08
685,19	1275,88
685,38	1173,49
685,57	1269,74
685,75	1314,80
685,94	1210,35
686,12	1198,06
686,31	1241,07
686,49	1288,17
686,68	1288,17
686,86	1298,41
687,05	1298,41
687,23	1286,12
687,42	1320,94
687,60	1234,93
687,79	1265,64
687,97	1279,98
688,16	1312,75
688,34	1255,40
688,53	1249,26
688,71	1177,58
688,90	1167,34
689,08	1312,75
689,27	1185,77
689,45	1230,83
689,64	1290,22
689,82	1302,51
690,01	1200,11
690,19	1226,73
690,38	1198,06
690,56	1247,21
690,75	1300,46
690,93	1279,98
691,12	1196,01
691,30	1251,31
691,49	1310,70
691,67	1302,51
691,86	1220,59
692,04	1253,36
692,23	1302,51
692,41	1265,64
692,60	1310,70
692,78	1273,84
692,97	1212,40
693,15	1286,12
693,34	1239,02
693,52	1273,84
693,71	1222,64
693,89	1273,84
694,08	1220,59
694,26	1277,93
694,44	1271,79
694,63	1196,01
694,81	1265,64
695,00	1312,75
695,18	1273,84
695,37	1279,98
695,55	1226,73
695,74	1273,84
695,92	1271,79
696,10	1370,09
696,29	1267,69
696,47	1279,98
696,66	1239,02
696,84	1234,93
697,03	1277,93
697,21	1230,83
697,40	1380,33
697,58	1253,36
697,76	1226,73
697,95	1298,41
698,13	1290,22
698,32	1247,21
698,50	1255,40
698,68	1282,03
698,87	1300,46
699,05	1335,28
699,24	1230,83
699,42	1243,12
699,61	1292,27
699,79	1247,21
699,97	1228,78
700,16	1255,40
700,34	1241,07
700,53	1286,12
700,71	1327,08
700,89	1263,60
701,08	1232,88
701,26	1220,59
701,45	1290,22
701,63	1302,51
701,81	1226,73
702,00	1220,59
702,18	1214,45
702,37	1314,80
702,55	1290,22
702,73	1259,50
702,92	1261,55
703,10	1286,12
703,28	1273,84
703,47	1261,55
703,65	1239,02
703,84	1265,64
704,02	1294,32
704,20	1239,02
704,39	1257,45
704,57	1275,88
704,75	1267,69
704,94	1318,89
705,12	1304,56
705,30	1239,02
705,49	1261,55
705,67	1347,56
705,86	1226,73
706,04	1290,22
706,22	1255,40
706,41	1251,31
706,59	1187,82
706,77	1251,31
706,96	1243,12
707,14	1255,40
707,32	1243,12
707,51	1243,12
707,69	1255,40
707,87	1271,79
708,06	1343,47
708,24	1173,49
708,42	1322,99
708,61	1333,23
708,79	1267,69
708,97	1198,06
709,16	1271,79
709,34	1253,36
709,52	1249,26
709,71	1214,45
709,89	1230,83
710,07	1230,83
710,26	1265,64
710,44	1261,55
710,62	1284,08
710,80	1265,64
710,99	1314,80
711,17	1279,98
711,35	1257,45
711,54	1345,52
711,72	1282,03
711,90	1271,79
712,09	1236,97
712,27	1241,07
712,45	1224,69
712,63	1259,50
712,82	1253,36
713,00	1243,12
713,18	1210,35
713,37	1271,79
713,55	1329,13
713,73	1214,45
713,91	1314,80
714,10	1277,93
714,28	1175,53
714,46	1300,46
714,65	1261,55
714,83	1167,34
715,01	1206,25
715,19	1269,74
715,38	1275,88
715,56	1253,36
715,74	1220,59
715,92	1284,08
716,11	1279,98
716,29	1314,80
716,47	1214,45
716,65	1220,59
716,84	1216,49
717,02	1290,22
717,20	1298,41
717,38	1241,07
717,57	1202,16
717,75	1261,55
717,93	1284,08
718,11	1308,65
718,30	1247,21
718,48	1214,45
718,66	1337,32
718,84	1191,92
719,03	1329,13
719,21	1310,70
719,39	1163,25
719,57	1304,56
719,75	1296,36
719,94	1269,74
720,12	1312,75
720,30	1224,69
720,48	1304,56
720,67	1200,11
720,85	1322,99
721,03	1320,94
721,21	1220,59
721,39	1265,64
721,58	1300,46
721,76	1222,64
721,94	1284,08
722,12	1247,21
722,30	1322,99
722,49	1206,25
722,67	1316,84
722,85	1214,45
723,03	1255,40
723,21	1243,12
723,40	1306,60
723,58	1210,35
723,76	1286,12
723,94	1257,45
724,12	1269,74
724,30	1216,49
724,49	1302,51
724,67	1259,50
724,85	1245,16
725,03	1279,98
725,21	1261,55
725,40	1253,36
725,58	1298,41
725,76	1288,17
725,94	1253,36
726,12	1249,26
726,30	1282,03
726,49	1232,88
726,67	1222,64
726,85	1282,03
727,03	1171,44
727,21	1267,69
727,39	1339,37
727,57	1255,40
727,76	1290,22
727,94	1306,60
728,12	1261,55
728,30	1243,12
728,48	1292,27
728,66	1271,79
728,84	1239,02
729,03	1333,23
729,21	1322,99
729,39	1259,50
729,57	1222,64
729,75	1271,79
729,93	1296,36
730,11	1241,07
730,30	1261,55
730,48	1279,98
730,66	1218,54
730,84	1241,07
731,02	1263,60
731,20	1267,69
731,38	1241,07
731,56	1300,46
731,74	1249,26
731,93	1259,50
732,11	1257,45
732,29	1304,56
732,47	1236,97
732,65	1316,84
732,83	1269,74
733,01	1308,65
733,19	1265,64
733,37	1312,75
733,56	1310,70
733,74	1245,16
733,92	1263,60
734,10	1241,07
734,28	1284,08
734,46	1282,03
734,64	1308,65
734,82	1267,69
735,00	1239,02
735,18	1286,12
735,36	1267,69
735,54	1230,83
735,73	1279,98
735,91	1243,12
736,09	1282,03
736,27	1333,23
736,45	1304,56
736,63	1318,89
736,81	1284,08
736,99	1292,27
737,17	1253,36
737,35	1236,97
737,53	1251,31
737,71	1251,31
737,89	1265,64
738,07	1232,88
738,25	1271,79
738,43	1333,23
738,61	1241,07
738,80	1249,26
738,98	1206,25
739,16	1234,93
739,34	1292,27
739,52	1253,36
739,70	1308,65
739,88	1294,32
740,06	1265,64
740,24	1314,80
740,42	1312,75
740,60	1216,49
740,78	1277,93
740,96	1282,03
741,14	1247,21
741,32	1288,17
741,50	1284,08
741,68	1314,80
741,86	1331,18
742,04	1325,04
742,22	1273,84
742,40	1304,56
742,58	1239,02
742,76	1234,93
742,94	1243,12
743,12	1230,83
743,30	1329,13
743,48	1318,89
743,66	1288,17
743,84	1241,07
744,02	1241,07
744,20	1312,75
744,38	1245,16
744,56	1322,99
744,74	1316,84
744,92	1263,60
745,10	1288,17
745,28	1257,45
745,46	1288,17
745,64	1343,47
745,82	1290,22
746,00	1318,89
746,18	1279,98
746,36	1337,32
746,54	1275,88
746,72	1249,26
746,90	1267,69
747,08	1339,37
747,26	1294,32
747,44	1282,03
747,62	1290,22
747,80	1181,68
747,98	1314,80
748,15	1294,32
748,33	1314,80
748,51	1288,17
748,69	1200,11
748,87	1271,79
749,05	1288,17
749,23	1333,23
749,41	1302,51
749,59	1175,53
749,77	1292,27
749,95	1265,64
750,13	1263,60
750,31	1296,36
750,49	1271,79
750,67	1277,93
750,85	1228,78
751,03	1251,31
751,20	1261,55
751,38	1306,60
751,56	1337,32
751,74	1267,69
751,92	1253,36
752,10	1277,93
752,28	1226,73
752,46	1308,65
752,64	1230,83
752,82	1279,98
753,00	1327,08
753,18	1224,69
753,35	1216,49
753,53	1279,98
753,71	1228,78
753,89	1320,94
754,07	1275,88
754,25	1333,23
754,43	1247,21
754,61	1304,56
754,79	1253,36
754,97	1222,64
755,14	1275,88
755,32	1236,97
755,50	1277,93
755,68	1273,84
755,86	1224,69
756,04	1353,71
756,22	1267,69
756,40	1200,11
756,57	1273,84
756,75	1241,07
756,93	1306,60
757,11	1257,45
757,29	1234,93
757,47	1325,04
757,65	1251,31
757,82	1302,51
758,00	1187,82
758,18	1239,02
758,36	1300,46
758,54	1296,36
758,72	1218,54
758,90	1275,88
759,07	1325,04
759,25	1329,13
759,43	1220,59
759,61	1196,01
759,79	1304,56
759,97	1341,42
760,15	1236,97
760,32	1304,56
760,50	1249,26
760,68	1294,32
760,86	1275,88
761,04	1341,42
761,22	1271,79
761,39	1208,30
761,57	1282,03
761,75	1337,32
761,93	1269,74
762,11	1308,65
762,28	1206,25
762,46	1302,51
762,64	1302,51
762,82	1277,93
763,00	1327,08
763,18	1304,56
763,35	1271,79
763,53	1247,21
763,71	1267,69
763,89	1247,21
764,07	1275,88
764,24	1345,52
764,42	1234,93
764,60	1314,80
764,78	1304,56
764,96	1255,40
765,13	1318,89
765,31	1208,30
765,49	1204,21
765,67	1329,13
765,84	1228,78
766,02	1261,55
766,20	1263,60
766,38	1277,93
766,56	1232,88
766,73	1271,79
766,91	1175,53
767,09	1224,69
767,27	1218,54
767,44	1249,26
767,62	1251,31
767,80	1224,69
767,98	1226,73
768,15	1267,69
768,33	1314,80
768,51	1284,08
768,69	1273,84
768,87	1320,94
769,04	1277,93
769,22	1187,82
769,40	1265,64
769,58	1269,74
769,75	1259,50
769,93	1232,88
770,11	1216,49
770,28	1286,12
770,46	1261,55
770,64	1241,07
770,82	1239,02
770,99	1286,12
771,17	1273,84
771,35	1300,46
771,53	1226,73
771,70	1241,07
771,88	1230,83
772,06	1226,73
772,23	1245,16
772,41	1259,50
772,59	1265,64
772,77	1228,78
772,94	1273,84
773,12	1316,84
773,30	1257,45
773,47	1271,79
773,65	1183,73
773,83	1292,27
774,01	1263,60
774,18	1189,87
774,36	1345,52
774,54	1218,54
774,71	1310,70
774,89	1220,59
775,07	1290,22
775,24	1296,36
775,42	1296,36
775,60	1320,94
775,78	1232,88
775,95	1267,69
776,13	1290,22
776,31	1302,51
776,48	1257,45
776,66	1296,36
776,84	1296,36
777,01	1290,22
777,19	1267,69
777,37	1351,66
777,54	1298,41
777,72	1353,71
777,90	1308,65
778,07	1253,36
778,25	1347,56
778,43	1310,70
778,60	1302,51
778,78	1247,21
778,96	1273,84
779,13	1228,78
779,31	1234,93
779,49	1290,22
779,66	1308,65
779,84	1288,17
780,01	1308,65
780,19	1261,55
780,37	1269,74
780,54	1300,46
780,72	1306,60
780,90	1263,60
781,07	1224,69
781,25	1234,93
781,43	1193,97
781,60	1296,36
781,78	1314,80
781,95	1265,64
782,13	1255,40
782,31	1253,36
782,48	1236,97
782,66	1241,07
782,83	1298,41
783,01	1271,79
783,19	1290,22
783,36	1243,12
783,54	1255,40
783,72	1310,70
783,89	1255,40
784,07	1255,40
784,24	1286,12
784,42	1218,54
784,60	1277,93
784,77	1226,73
784,95	1282,03
785,12	1193,97
785,30	1275,88
785,47	1306,60
785,65	1320,94
785,83	1261,55
786,00	1198,06
786,18	1282,03
786,35	1204,21
786,53	1257,45
786,71	1198,06
786,88	1216,49
787,06	1247,21
787,23	1298,41
787,41	1216,49
787,58	1269,74
787,76	1241,07
787,94	1263,60
788,11	1288,17
788,29	1261,55
788,46	1277,93
788,64	1214,45
788,81	1275,88
788,99	1255,40
789,16	1316,84
789,34	1300,46
789,52	1271,79
789,69	1271,79
789,87	1286,12
790,04	1290,22
790,22	1210,35
790,39	1265,64
790,57	1261,55
790,74	1286,12
790,92	1220,59
791,09	1273,84
791,27	1232,88
791,44	1206,25
791,62	1259,50
791,79	1294,32
791,97	1265,64
792,15	1298,41
792,32	1251,31
792,50	1286,12
792,67	1279,98
792,85	1322,99
793,02	1200,11
793,20	1269,74
793,37	1245,16
793,55	1333,23
793,72	1228,78
793,90	1271,79
794,07	1241,07
794,25	1286,12
794,42	1263,60
794,60	1322,99
794,77	1228,78
794,95	1363,95
795,12	1251,31
795,30	1224,69
795,47	1247,21
795,65	1241,07
795,82	1251,31
796,00	1271,79
796,17	1191,92
796,34	1290,22
796,52	1210,35
796,69	1353,71
796,87	1296,36
797,04	1251,31
797,22	1159,15
797,39	1236,97
797,57	1300,46
797,74	1265,64
797,92	1322,99
798,09	1304,56
798,27	1208,30
798,44	1304,56
798,62	1265,64
798,79	1230,83
798,96	1275,88
799,14	1241,07
799,31	1259,50
799,49	1269,74
799,66	1226,73
799,84	1259,50
800,01	1335,28
800,19	1273,84
800,36	1204,21
800,53	1253,36
800,71	1298,41
800,88	1314,80
801,06	1222,64
801,23	1249,26
801,41	1343,47
801,58	1275,88
801,75	1249,26
801,93	1245,16
802,10	1310,70
802,28	1263,60
802,45	1204,21
802,63	1263,60
802,80	1232,88
802,97	1232,88
803,15	1224,69
803,32	1251,31
803,50	1263,60
803,67	1255,40
803,84	1284,08
804,02	1316,84
804,19	1193,97
804,37	1241,07
804,54	1288,17
804,71	1294,32
804,89	1279,98
805,06	1310,70
805,24	1253,36
805,41	1212,40
805,58	1282,03
805,76	1314,80
805,93	1247,21
806,10	1304,56
806,28	1300,46
806,45	1222,64
806,63	1257,45
806,80	1243,12
806,97	1241,07
807,15	1241,07
807,32	1247,21
807,49	1312,75
807,67	1220,59
807,84	1302,51
808,01	1255,40
808,19	1302,51
808,36	1247,21
808,54	1277,93
808,71	1220,59
808,88	1243,12
809,06	1284,08
809,23	1296,36
809,40	1284,08
809,58	1275,88
809,75	1265,64
809,92	1269,74
810,10	1269,74
810,27	1216,49
810,44	1273,84
810,62	1277,93
810,79	1316,84
810,96	1263,60
811,14	1298,41
811,31	1230,83
811,48	1302,51
811,66	1275,88
811,83	1261,55
812,00	1249,26
812,18	1275,88
812,35	1327,08
812,52	1286,12
812,69	1220,59
812,87	1236,97
813,04	1259,50
813,21	1265,64
813,39	1243,12
813,56	1181,68
813,73	1267,69
813,91	1284,08
814,08	1320,94
814,25	1245,16
814,42	1279,98
814,60	1275,88
814,77	1163,25
814,94	1212,40
815,12	1292,27
815,29	1171,44
815,46	1302,51
815,63	1216,49
815,81	1236,97
815,98	1249,26
816,15	1290,22
816,33	1265,64
816,50	1273,84
816,67	1210,35
816,84	1290,22
817,02	1286,12
817,19	1318,89
817,36	1322,99
817,53	1196,01
817,71	1200,11
817,88	1261,55
818,05	1308,65
818,22	1273,84
818,40	1261,55
818,57	1234,93
818,74	1198,06
818,91	1263,60
819,09	1273,84
819,26	1241,07
819,43	1298,41
819,60	1253,36
819,78	1286,12
819,95	1308,65
820,12	1261,55
820,29	1312,75
820,47	1304,56
820,64	1325,04
820,81	1310,70
820,98	1320,94
821,15	1292,27
821,33	1247,21
821,50	1218,54
821,67	1271,79
821,84	1193,97
822,02	1273,84
822,19	1290,22
822,36	1175,53
822,53	1292,27
822,70	1265,64
822,88	1228,78
823,05	1279,98
823,22	1271,79
823,39	1263,60
823,56	1257,45
823,74	1279,98
823,91	1212,40
824,08	1296,36
824,25	1255,40
824,42	1304,56
824,60	1165,29
824,77	1261,55
824,94	1304,56
825,11	1263,60
825,28	1253,36
825,45	1337,32
825,63	1282,03
825,80	1265,64
825,97	1236,97
826,14	1245,16
826,31	1263,60
826,48	1279,98
826,66	1228,78
826,83	1267,69
827,00	1251,31
827,17	1236,97
827,34	1306,60
827,51	1277,93
827,69	1251,31
827,86	1208,30
828,03	1230,83
828,20	1230,83
828,37	1198,06
828,54	1255,40
828,71	1335,28
828,89	1327,08
829,06	1212,40
829,23	1263,60
829,40	1263,60
829,57	1286,12
829,74	1306,60
829,91	1261,55
830,09	1296,36
830,26	1265,64
830,43	1277,93
830,60	1300,46
830,77	1234,93
830,94	1304,56
831,11	1247,21
831,28	1277,93
831,46	1304,56
831,63	1300,46
831,80	1279,98
831,97	1261,55
832,14	1300,46
832,31	1224,69
832,48	1218,54
832,65	1325,04
832,82	1279,98
832,99	1277,93
833,17	1296,36
833,34	1243,12
833,51	1308,65
833,68	1331,18
833,85	1290,22
834,02	1257,45
834,19	1284,08
834,36	1255,40
834,53	1228,78
834,70	1279,98
834,87	1236,97
835,04	1222,64
835,22	1286,12
835,39	1275,88
835,56	1335,28
835,73	1218,54
835,90	1245,16
836,07	1288,17
836,24	1226,73
836,41	1308,65
836,58	1257,45
836,75	1343,47
836,92	1257,45
837,09	1239,02
837,26	1271,79
837,43	1265,64
837,60	1232,88
837,77	1316,84
837,94	1232,88
838,12	1206,25
838,29	1335,28
838,46	1279,98
838,63	1318,89
838,80	1329,13
838,97	1267,69
839,14	1150,96
839,31	1232,88
839,48	1284,08
839,65	1257,45
839,82	1259,50
839,99	1261,55
840,16	1294,32
840,33	1251,31
840,50	1171,44
840,67	1290,22
840,84	1257,45
841,01	1316,84
841,18	1273,84
841,35	1269,74
841,52	1277,93
841,69	1208,30
841,86	1224,69
842,03	1249,26
842,20	1304,56
842,37	1241,07
842,54	1271,79
842,71	1308,65
842,88	1337,32
843,05	1259,50
843,22	1271,79
843,39	1232,88
843,56	1257,45
843,73	1224,69
843,90	1259,50
844,07	1236,97
844,24	1296,36
844,41	1173,49
844,58	1263,60
844,75	1265,64
844,92	1312,75
845,09	1269,74
845,26	1247,21
845,43	1263,60
845,60	1314,80
845,77	1247,21
845,94	1322,99
846,10	1241,07
846,27	1284,08
846,44	1230,83
846,61	1357,80
846,78	1222,64
846,95	1298,41
847,12	1247,21
847,29	1331,18
847,46	1177,58
847,63	1273,84
847,80	1259,50
847,97	1288,17
848,14	1269,74
848,31	1234,93
848,48	1308,65
848,65	1232,88
848,82	1310,70
848,98	1322,99
849,15	1196,01
849,32	1269,74
849,49	1304,56
849,66	1275,88
849,83	1230,83
850,00	1271,79
850,17	1275,88
850,34	1251,31
850,51	1261,55
850,68	1214,45
850,85	1241,07
851,01	1304,56
851,18	1253,36
851,35	1210,35
851,52	1316,84
851,69	1189,87
851,86	1177,58
852,03	1265,64
852,20	1271,79
852,37	1277,93
852,53	1265,64
852,70	1275,88
852,87	1284,08
853,04	1249,26
853,21	1294,32
853,38	1316,84
853,55	1296,36
853,72	1177,58
853,89	1263,60
854,05	1249,26
854,22	1234,93
854,39	1277,93
854,56	1259,50
854,73	1345,52
854,90	1243,12
855,07	1284,08
855,23	1294,32
855,40	1304,56
855,57	1253,36
855,74	1263,60
855,91	1306,60
856,08	1265,64
856,25	1232,88
856,41	1294,32
856,58	1216,49
856,75	1288,17
856,92	1214,45
857,09	1214,45
857,26	1191,92
857,42	1267,69
857,59	1228,78
857,76	1316,84
857,93	1282,03
858,10	1271,79
858,27	1275,88
858,43	1277,93
858,60	1245,16
858,77	1208,30
858,94	1230,83
859,11	1290,22
859,27	1279,98
859,44	1183,73
859,61	1216,49
859,78	1198,06
859,95	1208,30
860,12	1236,97
860,28	1312,75
860,45	1282,03
860,62	1259,50
860,79	1259,50
860,95	1329,13
861,12	1263,60
861,29	1275,88
861,46	1286,12
861,63	1204,21
861,79	1239,02
861,96	1234,93
862,13	1294,32
862,30	1263,60
862,47	1230,83
862,63	1304,56
862,80	1331,18
862,97	1325,04
863,14	1261,55
863,30	1304,56
863,47	1286,12
863,64	1206,25
863,81	1298,41
863,97	1239,02
864,14	1273,84
864,31	1271,79
864,48	1286,12
864,65	1187,82
864,81	1255,40
864,98	1239,02
865,15	1243,12
865,32	1218,54
865,48	1271,79
865,65	1212,40
865,82	1263,60
865,98	1249,26
866,15	1222,64
866,32	1368,04
866,49	1263,60
866,65	1261,55
866,82	1331,18
866,99	1228,78
867,16	1288,17
867,32	1204,21
867,49	1175,53
867,66	1298,41
867,83	1306,60
867,99	1263,60
868,16	1284,08
868,33	1241,07
868,49	1247,21
868,66	1308,65
868,83	1263,60
868,99	1251,31
869,16	1239,02
869,33	1290,22
869,50	1271,79
869,66	1234,93
869,83	1255,40
870,00	1265,64
870,16	1269,74
870,33	1245,16
870,50	1306,60
870,66	1316,84
870,83	1298,41
871,00	1239,02
871,17	1257,45
871,33	1232,88
871,50	1306,60
871,67	1284,08
871,83	1206,25
872,00	1216,49
872,17	1257,45
872,33	1216,49
872,50	1234,93
872,67	1247,21
872,83	1286,12
873,00	1255,40
873,17	1271,79
873,33	1269,74
873,50	1322,99
873,67	1222,64
873,83	1206,25
874,00	1247,21
874,16	1271,79
874,33	1286,12
874,50	1245,16
874,66	1261,55
874,83	1277,93
875,00	1216,49
875,16	1239,02
875,33	1212,40
875,50	1279,98
875,66	1214,45
875,83	1275,88
875,99	1284,08
876,16	1329,13
876,33	1247,21
876,49	1191,92
876,66	1351,66
876,83	1333,23
876,99	1261,55
877,16	1320,94
877,32	1302,51
877,49	1204,21
877,66	1236,97
877,82	1275,88
877,99	1216,49
878,15	1282,03
878,32	1236,97
878,49	1331,18
878,65	1257,45
878,82	1357,80
878,98	1347,56
879,15	1257,45
879,32	1314,80
879,48	1271,79
879,65	1304,56
879,81	1232,88
879,98	1263,60
880,15	1255,40
880,31	1325,04
880,48	1255,40
880,64	1277,93
880,81	1273,84
880,97	1261,55
881,14	1282,03
881,31	1263,60
881,47	1290,22
881,64	1220,59
881,80	1298,41
881,97	1216,49
882,13	1267,69
882,30	1314,80
882,47	1179,63
882,63	1304,56
882,80	1282,03
882,96	1298,41
883,13	1273,84
883,29	1259,50
883,46	1212,40
883,62	1290,22
883,79	1349,61
883,95	1220,59
884,12	1214,45
884,29	1277,93
884,45	1267,69
884,62	1296,36
884,78	1277,93
884,95	1189,87
885,11	1325,04
885,28	1304,56
885,44	1243,12
885,61	1236,97
885,77	1208,30
885,94	1269,74
886,10	1249,26
886,27	1230,83
886,43	1296,36
886,60	1239,02
886,76	1310,70
886,93	1320,94
887,09	1232,88
887,26	1290,22
887,42	1230,83
887,59	1239,02
887,75	1282,03
887,92	1247,21
888,08	1271,79
888,25	1181,68
888,41	1290,22
888,58	1255,40
888,74	1189,87
888,91	1261,55
>>>>>End Processed Spectral Data<<<<<
