SpectraSuite Data File
++++++++++++++++++++++++++++++++++++
Date: Sun Apr 03 17:53:34 CEST 2016
User: root
Dark Spectrum Present: No
Reference Spectrum Present: No
Number of Sampled Component Spectra: 1
Spectrometers: USB4C02835
Integration Time (usec): 10000 (USB4C02835)
Spectra Averaged: 1 (USB4C02835)
Boxcar Smoothing: 0 (USB4C02835)
Correct for Electrical Dark: No (USB4C02835)
Strobe/Lamp Enabled: No (USB4C02835)
Correct for Detector Non-linearity: No (USB4C02835)
Correct for Stray Light: No (USB4C02835)
Number of Pixels in Processed Spectrum: 3648
>>>>>Begin Processed Spectral Data<<<<<
177,47	1255,40
177,69	1255,40
177,91	1255,40
178,13	1216,49
178,36	1257,45
178,58	1236,97
178,80	1245,16
179,02	1220,59
179,24	1331,18
179,46	1325,04
179,68	1286,12
179,90	1210,35
180,13	1316,84
180,35	1232,88
180,57	1241,07
180,79	1271,79
181,01	1171,44
181,23	1282,03
181,45	1212,40
181,67	1183,73
181,90	1267,69
182,12	1261,55
182,34	1304,56
182,56	1310,70
182,78	1320,94
183,00	1228,78
183,22	1247,21
183,44	1251,31
183,66	1288,17
183,89	1366,00
184,11	1210,35
184,33	1308,65
184,55	1261,55
184,77	1247,21
184,99	1208,30
185,21	1277,93
185,43	1312,75
185,65	1282,03
185,87	1271,79
186,10	1247,21
186,32	1329,13
186,54	1224,69
186,76	1245,16
186,98	1275,88
187,20	1288,17
187,42	1210,35
187,64	1220,59
187,86	1257,45
188,08	1302,51
188,30	1275,88
188,52	1198,06
188,75	1292,27
188,97	1331,18
189,19	1255,40
189,41	1292,27
189,63	1288,17
189,85	1234,93
190,07	1284,08
190,29	1259,50
190,51	1267,69
190,73	1271,79
190,95	1308,65
191,17	1222,64
191,39	1271,79
191,61	1277,93
191,84	1290,22
192,06	1304,56
192,28	1232,88
192,50	1216,49
192,72	1298,41
192,94	1306,60
193,16	1279,98
193,38	1275,88
193,60	1294,32
193,82	1232,88
194,04	1327,08
194,26	1308,65
194,48	1200,11
194,70	1241,07
194,92	1327,08
195,14	1230,83
195,36	1322,99
195,58	1267,69
195,80	1228,78
196,02	1257,45
196,24	1234,93
196,46	1345,52
196,69	1177,58
196,91	1230,83
197,13	1347,56
197,35	1263,60
197,57	1269,74
197,79	1181,68
198,01	1247,21
198,23	1255,40
198,45	1282,03
198,67	1312,75
198,89	1339,37
199,11	1279,98
199,33	1185,77
199,55	1290,22
199,77	1159,15
199,99	1255,40
200,21	1253,36
200,43	1271,79
200,65	1236,97
200,87	1236,97
201,09	1204,21
201,31	1273,84
201,53	1312,75
201,75	1249,26
201,97	1263,60
202,19	1296,36
202,41	1265,64
202,63	1271,79
202,85	1314,80
203,07	1273,84
203,29	1177,58
203,51	1251,31
203,73	1271,79
203,95	1226,73
204,17	1257,45
204,39	1247,21
204,61	1202,16
204,83	1327,08
205,05	1236,97
205,27	1273,84
205,49	1265,64
205,71	1279,98
205,93	1267,69
206,15	1245,16
206,37	1277,93
206,59	1265,64
206,81	1271,79
207,03	1271,79
207,25	1193,97
207,47	1327,08
207,69	1284,08
207,91	1282,03
208,13	1341,42
208,34	1247,21
208,56	1251,31
208,78	1286,12
209,00	1302,51
209,22	1257,45
209,44	1191,92
209,66	1220,59
209,88	1261,55
210,10	1282,03
210,32	1312,75
210,54	1265,64
210,76	1271,79
210,98	1271,79
211,20	1251,31
211,42	1284,08
211,64	1253,36
211,86	1310,70
212,08	1267,69
212,30	1249,26
212,52	1333,23
212,74	1355,76
212,96	1279,98
213,17	1296,36
213,39	1245,16
213,61	1320,94
213,83	1228,78
214,05	1304,56
214,27	1273,84
214,49	1353,71
214,71	1339,37
214,93	1296,36
215,15	1284,08
215,37	1220,59
215,59	1222,64
215,81	1282,03
216,03	1275,88
216,24	1279,98
216,46	1327,08
216,68	1257,45
216,90	1234,93
217,12	1245,16
217,34	1249,26
217,56	1208,30
217,78	1300,46
218,00	1310,70
218,22	1306,60
218,44	1265,64
218,66	1316,84
218,87	1255,40
219,09	1200,11
219,31	1255,40
219,53	1241,07
219,75	1257,45
219,97	1241,07
220,19	1269,74
220,41	1255,40
220,63	1230,83
220,85	1329,13
221,06	1257,45
221,28	1263,60
221,50	1314,80
221,72	1282,03
221,94	1255,40
222,16	1312,75
222,38	1294,32
222,60	1277,93
222,82	1255,40
223,03	1265,64
223,25	1230,83
223,47	1273,84
223,69	1275,88
223,91	1296,36
224,13	1310,70
224,35	1222,64
224,57	1298,41
224,78	1232,88
225,00	1349,61
225,22	1212,40
225,44	1255,40
225,66	1271,79
225,88	1302,51
226,10	1290,22
226,32	1249,26
226,53	1214,45
226,75	1247,21
226,97	1288,17
227,19	1234,93
227,41	1273,84
227,63	1208,30
227,85	1236,97
228,06	1298,41
228,28	1290,22
228,50	1224,69
228,72	1386,47
228,94	1234,93
229,16	1204,21
229,37	1241,07
229,59	1288,17
229,81	1277,93
230,03	1224,69
230,25	1257,45
230,47	1296,36
230,69	1259,50
230,90	1329,13
231,12	1259,50
231,34	1259,50
231,56	1335,28
231,78	1243,12
232,00	1263,60
232,21	1296,36
232,43	1273,84
232,65	1249,26
232,87	1263,60
233,09	1308,65
233,30	1257,45
233,52	1265,64
233,74	1314,80
233,96	1279,98
234,18	1239,02
234,40	1269,74
234,61	1263,60
234,83	1288,17
235,05	1333,23
235,27	1325,04
235,49	1263,60
235,70	1253,36
235,92	1376,24
236,14	1255,40
236,36	1267,69
236,58	1284,08
236,79	1241,07
237,01	1261,55
237,23	1239,02
237,45	1302,51
237,67	1267,69
237,88	1351,66
238,10	1216,49
238,32	1284,08
238,54	1271,79
238,76	1247,21
238,97	1275,88
239,19	1306,60
239,41	1271,79
239,63	1286,12
239,85	1228,78
240,06	1290,22
240,28	1310,70
240,50	1265,64
240,72	1284,08
240,93	1214,45
241,15	1298,41
241,37	1204,21
241,59	1294,32
241,81	1314,80
242,02	1263,60
242,24	1292,27
242,46	1304,56
242,68	1236,97
242,89	1251,31
243,11	1277,93
243,33	1273,84
243,55	1306,60
243,76	1257,45
243,98	1189,87
244,20	1292,27
244,42	1300,46
244,64	1212,40
244,85	1243,12
245,07	1171,44
245,29	1253,36
245,51	1241,07
245,72	1263,60
245,94	1206,25
246,16	1337,32
246,38	1249,26
246,59	1247,21
246,81	1187,82
247,03	1220,59
247,24	1345,52
247,46	1232,88
247,68	1294,32
247,90	1298,41
248,11	1300,46
248,33	1331,18
248,55	1277,93
248,77	1333,23
248,98	1253,36
249,20	1279,98
249,42	1257,45
249,64	1228,78
249,85	1296,36
250,07	1259,50
250,29	1294,32
250,50	1316,84
250,72	1269,74
250,94	1206,25
251,16	1236,97
251,37	1269,74
251,59	1263,60
251,81	1271,79
252,02	1271,79
252,24	1277,93
252,46	1218,54
252,68	1312,75
252,89	1232,88
253,11	1275,88
253,33	1265,64
253,54	1335,28
253,76	1216,49
253,98	1222,64
254,20	1320,94
254,41	1271,79
254,63	1267,69
254,85	1243,12
255,06	1232,88
255,28	1273,84
255,50	1286,12
255,71	1284,08
255,93	1271,79
256,15	1228,78
256,36	1210,35
256,58	1302,51
256,80	1261,55
257,02	1263,60
257,23	1263,60
257,45	1318,89
257,67	1325,04
257,88	1312,75
258,10	1253,36
258,32	1273,84
258,53	1249,26
258,75	1216,49
258,97	1253,36
259,18	1306,60
259,40	1288,17
259,62	1331,18
259,83	1363,95
260,05	1269,74
260,27	1247,21
260,48	1239,02
260,70	1273,84
260,92	1294,32
261,13	1179,63
261,35	1284,08
261,57	1226,73
261,78	1255,40
262,00	1322,99
262,22	1265,64
262,43	1245,16
262,65	1241,07
262,86	1275,88
263,08	1269,74
263,30	1279,98
263,51	1359,85
263,73	1249,26
263,95	1222,64
264,16	1265,64
264,38	1257,45
264,60	1286,12
264,81	1241,07
265,03	1216,49
265,25	1257,45
265,46	1267,69
265,68	1218,54
265,89	1290,22
266,11	1251,31
266,33	1271,79
266,54	1300,46
266,76	1241,07
266,98	1292,27
267,19	1300,46
267,41	1273,84
267,62	1218,54
267,84	1241,07
268,06	1230,83
268,27	1261,55
268,49	1214,45
268,70	1300,46
268,92	1318,89
269,14	1239,02
269,35	1279,98
269,57	1310,70
269,79	1294,32
270,00	1210,35
270,22	1253,36
270,43	1282,03
270,65	1304,56
270,87	1329,13
271,08	1304,56
271,30	1241,07
271,51	1312,75
271,73	1316,84
271,95	1271,79
272,16	1245,16
272,38	1284,08
272,59	1261,55
272,81	1279,98
273,02	1247,21
273,24	1271,79
273,46	1273,84
273,67	1271,79
273,89	1308,65
274,10	1288,17
274,32	1347,56
274,54	1224,69
274,75	1239,02
274,97	1286,12
275,18	1363,95
275,40	1247,21
275,61	1261,55
275,83	1228,78
276,05	1314,80
276,26	1292,27
276,48	1273,84
276,69	1275,88
276,91	1245,16
277,12	1329,13
277,34	1259,50
277,55	1259,50
277,77	1269,74
277,99	1308,65
278,20	1314,80
278,42	1329,13
278,63	1232,88
278,85	1298,41
279,06	1253,36
279,28	1277,93
279,49	1251,31
279,71	1222,64
279,93	1322,99
280,14	1290,22
280,36	1259,50
280,57	1331,18
280,79	1339,37
281,00	1202,16
281,22	1241,07
281,43	1271,79
281,65	1179,63
281,86	1277,93
282,08	1255,40
282,29	1294,32
282,51	1210,35
282,73	1269,74
282,94	1243,12
283,16	1243,12
283,37	1279,98
283,59	1253,36
283,80	1183,73
284,02	1296,36
284,23	1325,04
284,45	1341,42
284,66	1271,79
284,88	1292,27
285,09	1245,16
285,31	1247,21
285,52	1329,13
285,74	1255,40
285,95	1253,36
286,17	1191,92
286,38	1253,36
286,60	1374,19
286,81	1277,93
287,03	1236,97
287,24	1302,51
287,46	1251,31
287,67	1243,12
287,89	1298,41
288,10	1290,22
288,32	1216,49
288,53	1302,51
288,75	1271,79
288,96	1290,22
289,18	1329,13
289,39	1208,30
289,61	1241,07
289,82	1298,41
290,04	1306,60
290,25	1224,69
290,47	1271,79
290,68	1282,03
290,90	1230,83
291,11	1212,40
291,33	1208,30
291,54	1302,51
291,76	1193,97
291,97	1269,74
292,18	1267,69
292,40	1200,11
292,61	1239,02
292,83	1282,03
293,04	1271,79
293,26	1234,93
293,47	1247,21
293,69	1294,32
293,90	1296,36
294,12	1267,69
294,33	1275,88
294,55	1214,45
294,76	1269,74
294,97	1226,73
295,19	1279,98
295,40	1249,26
295,62	1282,03
295,83	1249,26
296,05	1306,60
296,26	1304,56
296,48	1320,94
296,69	1273,84
296,90	1255,40
297,12	1253,36
297,33	1286,12
297,55	1298,41
297,76	1294,32
297,98	1222,64
298,19	1218,54
298,41	1312,75
298,62	1261,55
298,83	1304,56
299,05	1288,17
299,26	1198,06
299,48	1243,12
299,69	1273,84
299,90	1208,30
300,12	1218,54
300,33	1290,22
300,55	1247,21
300,76	1306,60
300,98	1245,16
301,19	1298,41
301,40	1202,16
301,62	1249,26
301,83	1294,32
302,05	1279,98
302,26	1302,51
302,47	1216,49
302,69	1253,36
302,90	1212,40
303,12	1279,98
303,33	1296,36
303,54	1257,45
303,76	1249,26
303,97	1222,64
304,19	1263,60
304,40	1245,16
304,61	1218,54
304,83	1273,84
305,04	1398,76
305,26	1212,40
305,47	1150,96
305,68	1271,79
305,90	1271,79
306,11	1282,03
306,33	1247,21
306,54	1206,25
306,75	1228,78
306,97	1275,88
307,18	1257,45
307,39	1263,60
307,61	1288,17
307,82	1269,74
308,04	1322,99
308,25	1269,74
308,46	1300,46
308,68	1218,54
308,89	1286,12
309,10	1241,07
309,32	1294,32
309,53	1245,16
309,74	1239,02
309,96	1189,87
310,17	1187,82
310,39	1261,55
310,60	1294,32
310,81	1212,40
311,03	1269,74
311,24	1245,16
311,45	1292,27
311,67	1212,40
311,88	1335,28
312,09	1185,77
312,31	1220,59
312,52	1277,93
312,73	1314,80
312,95	1290,22
313,16	1372,14
313,37	1415,15
313,59	1288,17
313,80	1298,41
314,01	1230,83
314,23	1236,97
314,44	1271,79
314,65	1212,40
314,87	1314,80
315,08	1249,26
315,29	1261,55
315,51	1304,56
315,72	1230,83
315,93	1239,02
316,15	1302,51
316,36	1249,26
316,57	1294,32
316,79	1236,97
317,00	1318,89
317,21	1275,88
317,43	1196,01
317,64	1220,59
317,85	1204,21
318,07	1288,17
318,28	1273,84
318,49	1355,76
318,70	1269,74
318,92	1284,08
319,13	1232,88
319,34	1255,40
319,56	1193,97
319,77	1185,77
319,98	1302,51
320,20	1298,41
320,41	1288,17
320,62	1263,60
320,83	1351,66
321,05	1175,53
321,26	1232,88
321,47	1230,83
321,69	1253,36
321,90	1226,73
322,11	1222,64
322,32	1247,21
322,54	1341,42
322,75	1210,35
322,96	1273,84
323,18	1320,94
323,39	1282,03
323,60	1241,07
323,81	1255,40
324,03	1234,93
324,24	1241,07
324,45	1382,38
324,66	1259,50
324,88	1247,21
325,09	1239,02
325,30	1216,49
325,52	1253,36
325,73	1265,64
325,94	1273,84
326,15	1230,83
326,37	1261,55
326,58	1314,80
326,79	1216,49
327,00	1218,54
327,22	1232,88
327,43	1245,16
327,64	1163,25
327,85	1253,36
328,07	1279,98
328,28	1269,74
328,49	1234,93
328,70	1216,49
328,92	1298,41
329,13	1255,40
329,34	1257,45
329,55	1306,60
329,76	1210,35
329,98	1208,30
330,19	1243,12
330,40	1331,18
330,61	1230,83
330,83	1261,55
331,04	1378,28
331,25	1269,74
331,46	1257,45
331,68	1269,74
331,89	1259,50
332,10	1204,21
332,31	1263,60
332,52	1179,63
332,74	1265,64
332,95	1249,26
333,16	1296,36
333,37	1232,88
333,58	1214,45
333,80	1290,22
334,01	1327,08
334,22	1210,35
334,43	1247,21
334,64	1304,56
334,86	1271,79
335,07	1284,08
335,28	1257,45
335,49	1265,64
335,70	1300,46
335,92	1257,45
336,13	1314,80
336,34	1265,64
336,55	1304,56
336,76	1216,49
336,98	1298,41
337,19	1277,93
337,40	1243,12
337,61	1257,45
337,82	1271,79
338,04	1322,99
338,25	1261,55
338,46	1232,88
338,67	1259,50
338,88	1257,45
339,09	1230,83
339,31	1247,21
339,52	1282,03
339,73	1292,27
339,94	1263,60
340,15	1267,69
340,36	1218,54
340,58	1288,17
340,79	1310,70
341,00	1257,45
341,21	1202,16
341,42	1251,31
341,63	1226,73
341,85	1253,36
342,06	1247,21
342,27	1191,92
342,48	1239,02
342,69	1273,84
342,90	1200,11
343,12	1239,02
343,33	1236,97
343,54	1314,80
343,75	1267,69
343,96	1245,16
344,17	1290,22
344,38	1257,45
344,60	1279,98
344,81	1282,03
345,02	1284,08
345,23	1232,88
345,44	1339,37
345,65	1277,93
345,86	1337,32
346,07	1288,17
346,29	1255,40
346,50	1216,49
346,71	1370,09
346,92	1224,69
347,13	1331,18
347,34	1314,80
347,55	1292,27
347,76	1243,12
347,98	1282,03
348,19	1228,78
348,40	1290,22
348,61	1294,32
348,82	1318,89
349,03	1269,74
349,24	1257,45
349,45	1269,74
349,66	1183,73
349,88	1216,49
350,09	1310,70
350,30	1173,49
350,51	1241,07
350,72	1296,36
350,93	1320,94
351,14	1290,22
351,35	1216,49
351,56	1290,22
351,77	1222,64
351,99	1322,99
352,20	1226,73
352,41	1251,31
352,62	1310,70
352,83	1189,87
353,04	1275,88
353,25	1255,40
353,46	1257,45
353,67	1296,36
353,88	1187,82
354,09	1255,40
354,30	1249,26
354,52	1234,93
354,73	1284,08
354,94	1234,93
355,15	1300,46
355,36	1257,45
355,57	1331,18
355,78	1220,59
355,99	1273,84
356,20	1284,08
356,41	1318,89
356,62	1333,23
356,83	1277,93
357,04	1222,64
357,25	1204,21
357,46	1320,94
357,68	1296,36
357,89	1226,73
358,10	1286,12
358,31	1241,07
358,52	1241,07
358,73	1193,97
358,94	1202,16
359,15	1243,12
359,36	1251,31
359,57	1314,80
359,78	1228,78
359,99	1294,32
360,20	1265,64
360,41	1273,84
360,62	1345,52
360,83	1277,93
361,04	1284,08
361,25	1314,80
361,46	1277,93
361,67	1269,74
361,88	1263,60
362,09	1255,40
362,30	1204,21
362,51	1247,21
362,72	1337,32
362,93	1210,35
363,14	1247,21
363,35	1286,12
363,56	1269,74
363,78	1200,11
363,99	1239,02
364,20	1277,93
364,41	1359,85
364,62	1273,84
364,83	1200,11
365,04	1208,30
365,25	1271,79
365,46	1226,73
365,67	1249,26
365,88	1228,78
366,09	1302,51
366,30	1304,56
366,51	1228,78
366,72	1232,88
366,93	1228,78
367,14	1236,97
367,35	1243,12
367,56	1331,18
367,77	1247,21
367,98	1193,97
368,18	1296,36
368,39	1286,12
368,60	1236,97
368,81	1253,36
369,02	1312,75
369,23	1277,93
369,44	1253,36
369,65	1247,21
369,86	1282,03
370,07	1259,50
370,28	1306,60
370,49	1294,32
370,70	1239,02
370,91	1302,51
371,12	1316,84
371,33	1214,45
371,54	1292,27
371,75	1376,24
371,96	1349,61
372,17	1257,45
372,38	1210,35
372,59	1279,98
372,80	1265,64
373,01	1273,84
373,22	1312,75
373,43	1249,26
373,64	1353,71
373,85	1318,89
374,06	1183,73
374,26	1224,69
374,47	1265,64
374,68	1189,87
374,89	1257,45
375,10	1284,08
375,31	1335,28
375,52	1277,93
375,73	1210,35
375,94	1241,07
376,15	1290,22
376,36	1249,26
376,57	1236,97
376,78	1255,40
376,99	1306,60
377,20	1253,36
377,40	1374,19
377,61	1249,26
377,82	1322,99
378,03	1173,49
378,24	1304,56
378,45	1245,16
378,66	1259,50
378,87	1232,88
379,08	1282,03
379,29	1263,60
379,50	1259,50
379,71	1243,12
379,91	1331,18
380,12	1208,30
380,33	1263,60
380,54	1273,84
380,75	1329,13
380,96	1292,27
381,17	1271,79
381,38	1247,21
381,59	1320,94
381,80	1290,22
382,00	1277,93
382,21	1214,45
382,42	1288,17
382,63	1292,27
382,84	1234,93
383,05	1288,17
383,26	1286,12
383,47	1275,88
383,68	1312,75
383,88	1218,54
384,09	1288,17
384,30	1202,16
384,51	1228,78
384,72	1325,04
384,93	1253,36
385,14	1220,59
385,35	1290,22
385,55	1263,60
385,76	1232,88
385,97	1331,18
386,18	1241,07
386,39	1275,88
386,60	1249,26
386,81	1230,83
387,02	1218,54
387,22	1296,36
387,43	1239,02
387,64	1298,41
387,85	1259,50
388,06	1298,41
388,27	1222,64
388,48	1267,69
388,68	1341,42
388,89	1279,98
389,10	1241,07
389,31	1232,88
389,52	1290,22
389,73	1241,07
389,93	1228,78
390,14	1198,06
390,35	1267,69
390,56	1271,79
390,77	1243,12
390,98	1263,60
391,18	1251,31
391,39	1259,50
391,60	1259,50
391,81	1288,17
392,02	1286,12
392,23	1273,84
392,43	1296,36
392,64	1251,31
392,85	1277,93
393,06	1253,36
393,27	1243,12
393,47	1232,88
393,68	1243,12
393,89	1331,18
394,10	1255,40
394,31	1257,45
394,52	1251,31
394,72	1224,69
394,93	1200,11
395,14	1232,88
395,35	1290,22
395,56	1263,60
395,76	1218,54
395,97	1306,60
396,18	1249,26
396,39	1275,88
396,60	1265,64
396,80	1265,64
397,01	1302,51
397,22	1327,08
397,43	1282,03
397,64	1249,26
397,84	1296,36
398,05	1282,03
398,26	1275,88
398,47	1282,03
398,67	1325,04
398,88	1218,54
399,09	1241,07
399,30	1200,11
399,51	1310,70
399,71	1249,26
399,92	1249,26
400,13	1261,55
400,34	1198,06
400,54	1234,93
400,75	1251,31
400,96	1220,59
401,17	1230,83
401,37	1265,64
401,58	1212,40
401,79	1239,02
402,00	1267,69
402,21	1243,12
402,41	1288,17
402,62	1357,80
402,83	1273,84
403,04	1226,73
403,24	1259,50
403,45	1251,31
403,66	1329,13
403,87	1249,26
404,07	1267,69
404,28	1251,31
404,49	1329,13
404,70	1282,03
404,90	1257,45
405,11	1247,21
405,32	1263,60
405,52	1224,69
405,73	1284,08
405,94	1298,41
406,15	1243,12
406,35	1234,93
406,56	1290,22
406,77	1292,27
406,98	1257,45
407,18	1314,80
407,39	1279,98
407,60	1228,78
407,80	1337,32
408,01	1300,46
408,22	1277,93
408,43	1239,02
408,63	1314,80
408,84	1251,31
409,05	1282,03
409,25	1286,12
409,46	1294,32
409,67	1282,03
409,88	1298,41
410,08	1236,97
410,29	1230,83
410,50	1304,56
410,70	1325,04
410,91	1265,64
411,12	1228,78
411,32	1269,74
411,53	1284,08
411,74	1261,55
411,95	1322,99
412,15	1255,40
412,36	1226,73
412,57	1284,08
412,77	1269,74
412,98	1269,74
413,19	1318,89
413,39	1374,19
413,60	1273,84
413,81	1308,65
414,01	1236,97
414,22	1279,98
414,43	1255,40
414,63	1286,12
414,84	1269,74
415,05	1316,84
415,25	1241,07
415,46	1249,26
415,67	1320,94
415,87	1277,93
416,08	1187,82
416,29	1257,45
416,49	1241,07
416,70	1232,88
416,91	1279,98
417,11	1271,79
417,32	1265,64
417,53	1253,36
417,73	1292,27
417,94	1314,80
418,15	1277,93
418,35	1208,30
418,56	1273,84
418,77	1355,76
418,97	1314,80
419,18	1239,02
419,38	1327,08
419,59	1253,36
419,80	1310,70
420,00	1230,83
420,21	1261,55
420,42	1316,84
420,62	1259,50
420,83	1292,27
421,04	1306,60
421,24	1200,11
421,45	1236,97
421,65	1376,24
421,86	1255,40
422,07	1193,97
422,27	1267,69
422,48	1312,75
422,69	1263,60
422,89	1247,21
423,10	1267,69
423,30	1359,85
423,51	1300,46
423,72	1216,49
423,92	1220,59
424,13	1292,27
424,33	1265,64
424,54	1251,31
424,75	1259,50
424,95	1259,50
425,16	1298,41
425,36	1177,58
425,57	1353,71
425,78	1300,46
425,98	1253,36
426,19	1286,12
426,39	1306,60
426,60	1286,12
426,81	1273,84
427,01	1277,93
427,22	1271,79
427,42	1279,98
427,63	1267,69
427,83	1239,02
428,04	1290,22
428,25	1290,22
428,45	1290,22
428,66	1263,60
428,86	1257,45
429,07	1277,93
429,28	1208,30
429,48	1318,89
429,69	1185,77
429,89	1322,99
430,10	1228,78
430,30	1224,69
430,51	1282,03
430,71	1228,78
430,92	1351,66
431,13	1302,51
431,33	1273,84
431,54	1292,27
431,74	1284,08
431,95	1247,21
432,15	1230,83
432,36	1351,66
432,56	1222,64
432,77	1286,12
432,98	1335,28
433,18	1251,31
433,39	1273,84
433,59	1290,22
433,80	1247,21
434,00	1275,88
434,21	1271,79
434,41	1218,54
434,62	1257,45
434,82	1228,78
435,03	1277,93
435,23	1257,45
435,44	1322,99
435,64	1202,16
435,85	1284,08
436,06	1298,41
436,26	1208,30
436,47	1349,61
436,67	1331,18
436,88	1228,78
437,08	1265,64
437,29	1263,60
437,49	1271,79
437,70	1327,08
437,90	1249,26
438,11	1236,97
438,31	1232,88
438,52	1249,26
438,72	1273,84
438,93	1279,98
439,13	1279,98
439,34	1284,08
439,54	1288,17
439,75	1271,79
439,95	1239,02
440,16	1288,17
440,36	1290,22
440,57	1331,18
440,77	1181,68
440,98	1173,49
441,18	1214,45
441,39	1226,73
441,59	1312,75
441,80	1236,97
442,00	1269,74
442,21	1232,88
442,41	1208,30
442,62	1282,03
442,82	1263,60
443,02	1296,36
443,23	1306,60
443,43	1263,60
443,64	1316,84
443,84	1247,21
444,05	1296,36
444,25	1271,79
444,46	1234,93
444,66	1267,69
444,87	1271,79
445,07	1185,77
445,28	1339,37
445,48	1318,89
445,69	1257,45
445,89	1247,21
446,09	1253,36
446,30	1214,45
446,50	1271,79
446,71	1294,32
446,91	1282,03
447,12	1171,44
447,32	1271,79
447,53	1236,97
447,73	1265,64
447,93	1335,28
448,14	1265,64
448,34	1263,60
448,55	1316,84
448,75	1267,69
448,96	1316,84
449,16	1318,89
449,36	1286,12
449,57	1269,74
449,77	1253,36
449,98	1265,64
450,18	1296,36
450,39	1302,51
450,59	1247,21
450,79	1271,79
451,00	1279,98
451,20	1198,06
451,41	1271,79
451,61	1294,32
451,81	1261,55
452,02	1253,36
452,22	1259,50
452,43	1216,49
452,63	1308,65
452,84	1210,35
453,04	1300,46
453,24	1320,94
453,45	1208,30
453,65	1284,08
453,86	1220,59
454,06	1253,36
454,26	1300,46
454,47	1298,41
454,67	1263,60
454,87	1345,52
455,08	1275,88
455,28	1263,60
455,49	1222,64
455,69	1290,22
455,89	1294,32
456,10	1208,30
456,30	1279,98
456,51	1206,25
456,71	1284,08
456,91	1269,74
457,12	1290,22
457,32	1263,60
457,52	1255,40
457,73	1257,45
457,93	1298,41
458,14	1232,88
458,34	1312,75
458,54	1232,88
458,75	1249,26
458,95	1316,84
459,15	1288,17
459,36	1298,41
459,56	1155,05
459,76	1253,36
459,97	1236,97
460,17	1331,18
460,37	1263,60
460,58	1314,80
460,78	1306,60
460,99	1230,83
461,19	1286,12
461,39	1185,77
461,60	1290,22
461,80	1308,65
462,00	1259,50
462,21	1286,12
462,41	1208,30
462,61	1314,80
462,82	1273,84
463,02	1212,40
463,22	1298,41
463,43	1234,93
463,63	1226,73
463,83	1259,50
464,04	1230,83
464,24	1255,40
464,44	1263,60
464,64	1245,16
464,85	1253,36
465,05	1236,97
465,25	1236,97
465,46	1302,51
465,66	1259,50
465,86	1251,31
466,07	1294,32
466,27	1181,68
466,47	1239,02
466,68	1288,17
466,88	1279,98
467,08	1247,21
467,29	1247,21
467,49	1251,31
467,69	1249,26
467,89	1318,89
468,10	1298,41
468,30	1347,56
468,50	1296,36
468,71	1261,55
468,91	1230,83
469,11	1290,22
469,31	1263,60
469,52	1284,08
469,72	1282,03
469,92	1196,01
470,13	1300,46
470,33	1251,31
470,53	1257,45
470,73	1245,16
470,94	1245,16
471,14	1257,45
471,34	1245,16
471,54	1298,41
471,75	1312,75
471,95	1329,13
472,15	1206,25
472,36	1316,84
472,56	1306,60
472,76	1314,80
472,96	1312,75
473,17	1271,79
473,37	1329,13
473,57	1241,07
473,77	1224,69
473,98	1292,27
474,18	1202,16
474,38	1327,08
474,58	1304,56
474,79	1216,49
474,99	1296,36
475,19	1314,80
475,39	1253,36
475,60	1259,50
475,80	1206,25
476,00	1320,94
476,20	1282,03
476,41	1302,51
476,61	1275,88
476,81	1300,46
477,01	1271,79
477,21	1339,37
477,42	1255,40
477,62	1249,26
477,82	1300,46
478,02	1263,60
478,23	1200,11
478,43	1261,55
478,63	1333,23
478,83	1239,02
479,03	1206,25
479,24	1296,36
479,44	1288,17
479,64	1277,93
479,84	1284,08
480,04	1294,32
480,25	1208,30
480,45	1316,84
480,65	1230,83
480,85	1267,69
481,06	1265,64
481,26	1294,32
481,46	1220,59
481,66	1224,69
481,86	1255,40
482,06	1191,92
482,27	1302,51
482,47	1249,26
482,67	1247,21
482,87	1249,26
483,07	1243,12
483,28	1210,35
483,48	1275,88
483,68	1243,12
483,88	1255,40
484,08	1261,55
484,29	1277,93
484,49	1253,36
484,69	1241,07
484,89	1310,70
485,09	1236,97
485,29	1275,88
485,50	1298,41
485,70	1267,69
485,90	1206,25
486,10	1271,79
486,30	1259,50
486,50	1236,97
486,71	1245,16
486,91	1234,93
487,11	1322,99
487,31	1253,36
487,51	1286,12
487,71	1284,08
487,91	1277,93
488,12	1273,84
488,32	1282,03
488,52	1212,40
488,72	1210,35
488,92	1257,45
489,12	1239,02
489,32	1308,65
489,53	1300,46
489,73	1171,44
489,93	1202,16
490,13	1273,84
490,33	1292,27
490,53	1200,11
490,73	1200,11
490,94	1282,03
491,14	1277,93
491,34	1265,64
491,54	1263,60
491,74	1273,84
491,94	1239,02
492,14	1216,49
492,34	1269,74
492,54	1337,32
492,75	1218,54
492,95	1171,44
493,15	1265,64
493,35	1173,49
493,55	1222,64
493,75	1226,73
493,95	1310,70
494,15	1265,64
494,35	1265,64
494,56	1294,32
494,76	1247,21
494,96	1232,88
495,16	1304,56
495,36	1279,98
495,56	1304,56
495,76	1267,69
495,96	1310,70
496,16	1198,06
496,36	1232,88
496,56	1257,45
496,77	1216,49
496,97	1314,80
497,17	1224,69
497,37	1267,69
497,57	1292,27
497,77	1304,56
497,97	1333,23
498,17	1228,78
498,37	1239,02
498,57	1351,66
498,77	1310,70
498,97	1282,03
499,17	1239,02
499,38	1337,32
499,58	1271,79
499,78	1196,01
499,98	1230,83
500,18	1198,06
500,38	1314,80
500,58	1282,03
500,78	1249,26
500,98	1290,22
501,18	1212,40
501,38	1282,03
501,58	1224,69
501,78	1296,36
501,98	1271,79
502,18	1222,64
502,38	1228,78
502,58	1286,12
502,78	1349,61
502,98	1257,45
503,18	1279,98
503,38	1187,82
503,59	1273,84
503,79	1191,92
503,99	1273,84
504,19	1255,40
504,39	1236,97
504,59	1218,54
504,79	1304,56
504,99	1282,03
505,19	1243,12
505,39	1181,68
505,59	1230,83
505,79	1255,40
505,99	1249,26
506,19	1255,40
506,39	1284,08
506,59	1263,60
506,79	1275,88
506,99	1257,45
507,19	1228,78
507,39	1357,80
507,59	1269,74
507,79	1169,39
507,99	1277,93
508,19	1204,21
508,39	1279,98
508,59	1290,22
508,79	1265,64
508,99	1279,98
509,19	1282,03
509,39	1261,55
509,59	1241,07
509,79	1316,84
509,99	1261,55
510,19	1228,78
510,39	1267,69
510,59	1263,60
510,79	1269,74
510,99	1245,16
511,19	1306,60
511,39	1267,69
511,59	1269,74
511,79	1200,11
511,99	1279,98
512,19	1277,93
512,38	1282,03
512,58	1296,36
512,78	1265,64
512,98	1308,65
513,18	1314,80
513,38	1249,26
513,58	1290,22
513,78	1232,88
513,98	1206,25
514,18	1214,45
514,38	1292,27
514,58	1218,54
514,78	1265,64
514,98	1261,55
515,18	1275,88
515,38	1337,32
515,58	1298,41
515,78	1255,40
515,98	1286,12
516,18	1247,21
516,38	1251,31
516,57	1322,99
516,77	1247,21
516,97	1234,93
517,17	1308,65
517,37	1232,88
517,57	1255,40
517,77	1243,12
517,97	1228,78
518,17	1290,22
518,37	1267,69
518,57	1284,08
518,77	1236,97
518,97	1310,70
519,16	1288,17
519,36	1325,04
519,56	1271,79
519,76	1259,50
519,96	1314,80
520,16	1273,84
520,36	1263,60
520,56	1275,88
520,76	1286,12
520,96	1286,12
521,16	1290,22
521,35	1218,54
521,55	1236,97
521,75	1275,88
521,95	1310,70
522,15	1314,80
522,35	1316,84
522,55	1239,02
522,75	1279,98
522,95	1279,98
523,14	1255,40
523,34	1255,40
523,54	1226,73
523,74	1234,93
523,94	1263,60
524,14	1288,17
524,34	1263,60
524,54	1228,78
524,73	1226,73
524,93	1308,65
525,13	1210,35
525,33	1255,40
525,53	1239,02
525,73	1273,84
525,93	1267,69
526,13	1243,12
526,32	1265,64
526,52	1263,60
526,72	1224,69
526,92	1296,36
527,12	1241,07
527,32	1208,30
527,52	1241,07
527,71	1230,83
527,91	1286,12
528,11	1206,25
528,31	1245,16
528,51	1284,08
528,71	1306,60
528,90	1294,32
529,10	1286,12
529,30	1353,71
529,50	1210,35
529,70	1228,78
529,90	1224,69
530,09	1298,41
530,29	1349,61
530,49	1249,26
530,69	1257,45
530,89	1288,17
531,09	1263,60
531,28	1304,56
531,48	1325,04
531,68	1271,79
531,88	1226,73
532,08	1200,11
532,28	1318,89
532,47	1271,79
532,67	1259,50
532,87	1288,17
533,07	1243,12
533,27	1265,64
533,46	1228,78
533,66	1271,79
533,86	1253,36
534,06	1257,45
534,26	1259,50
534,45	1206,25
534,65	1271,79
534,85	1310,70
535,05	1241,07
535,25	1224,69
535,44	1261,55
535,64	1232,88
535,84	1304,56
536,04	1312,75
536,24	1351,66
536,43	1273,84
536,63	1288,17
536,83	1249,26
537,03	1243,12
537,22	1275,88
537,42	1300,46
537,62	1288,17
537,82	1204,21
538,02	1306,60
538,21	1337,32
538,41	1312,75
538,61	1245,16
538,81	1216,49
539,00	1171,44
539,20	1294,32
539,40	1335,28
539,60	1220,59
539,79	1259,50
539,99	1228,78
540,19	1316,84
540,39	1243,12
540,58	1251,31
540,78	1253,36
540,98	1249,26
541,18	1339,37
541,37	1202,16
541,57	1247,21
541,77	1273,84
541,97	1200,11
542,16	1183,73
542,36	1234,93
542,56	1271,79
542,76	1288,17
542,95	1224,69
543,15	1282,03
543,35	1308,65
543,54	1249,26
543,74	1212,40
543,94	1193,97
544,14	1292,27
544,33	1277,93
544,53	1302,51
544,73	1310,70
544,93	1314,80
545,12	1310,70
545,32	1345,52
545,52	1241,07
545,71	1304,56
545,91	1212,40
546,11	1255,40
546,30	1312,75
546,50	1304,56
546,70	1284,08
546,90	1288,17
547,09	1263,60
547,29	1288,17
547,49	1247,21
547,68	1318,89
547,88	1265,64
548,08	1310,70
548,27	1327,08
548,47	1187,82
548,67	1259,50
548,87	1296,36
549,06	1247,21
549,26	1255,40
549,46	1259,50
549,65	1259,50
549,85	1279,98
550,05	1273,84
550,24	1302,51
550,44	1255,40
550,64	1216,49
550,83	1286,12
551,03	1239,02
551,23	1296,36
551,42	1210,35
551,62	1265,64
551,82	1298,41
552,01	1226,73
552,21	1294,32
552,41	1306,60
552,60	1277,93
552,80	1284,08
553,00	1255,40
553,19	1259,50
553,39	1220,59
553,59	1341,42
553,78	1187,82
553,98	1271,79
554,17	1333,23
554,37	1236,97
554,57	1294,32
554,76	1279,98
554,96	1226,73
555,16	1224,69
555,35	1236,97
555,55	1261,55
555,75	1236,97
555,94	1318,89
556,14	1329,13
556,33	1265,64
556,53	1247,21
556,73	1292,27
556,92	1265,64
557,12	1306,60
557,32	1304,56
557,51	1247,21
557,71	1220,59
557,90	1275,88
558,10	1226,73
558,30	1333,23
558,49	1312,75
558,69	1273,84
558,88	1288,17
559,08	1277,93
559,28	1302,51
559,47	1277,93
559,67	1261,55
559,86	1304,56
560,06	1249,26
560,26	1200,11
560,45	1218,54
560,65	1288,17
560,84	1245,16
561,04	1269,74
561,24	1288,17
561,43	1288,17
561,63	1314,80
561,82	1265,64
562,02	1279,98
562,22	1310,70
562,41	1214,45
562,61	1308,65
562,80	1214,45
563,00	1294,32
563,19	1257,45
563,39	1220,59
563,59	1222,64
563,78	1245,16
563,98	1232,88
564,17	1310,70
564,37	1275,88
564,56	1273,84
564,76	1286,12
564,96	1337,32
565,15	1265,64
565,35	1300,46
565,54	1265,64
565,74	1333,23
565,93	1267,69
566,13	1249,26
566,32	1234,93
566,52	1222,64
566,71	1206,25
566,91	1314,80
567,11	1222,64
567,30	1275,88
567,50	1271,79
567,69	1279,98
567,89	1273,84
568,08	1255,40
568,28	1249,26
568,47	1239,02
568,67	1331,18
568,86	1224,69
569,06	1208,30
569,25	1294,32
569,45	1206,25
569,64	1263,60
569,84	1232,88
570,04	1282,03
570,23	1228,78
570,43	1191,92
570,62	1294,32
570,82	1314,80
571,01	1290,22
571,21	1304,56
571,40	1286,12
571,60	1253,36
571,79	1259,50
571,99	1255,40
572,18	1349,61
572,38	1163,25
572,57	1234,93
572,77	1298,41
572,96	1257,45
573,16	1331,18
573,35	1253,36
573,55	1288,17
573,74	1302,51
573,94	1265,64
574,13	1259,50
574,33	1322,99
574,52	1290,22
574,71	1277,93
574,91	1296,36
575,10	1271,79
575,30	1288,17
575,49	1284,08
575,69	1269,74
575,88	1232,88
576,08	1239,02
576,27	1304,56
576,47	1251,31
576,66	1265,64
576,86	1222,64
577,05	1314,80
577,25	1343,47
577,44	1337,32
577,64	1282,03
577,83	1277,93
578,02	1234,93
578,22	1290,22
578,41	1345,52
578,61	1218,54
578,80	1200,11
579,00	1267,69
579,19	1312,75
579,39	1298,41
579,58	1245,16
579,77	1275,88
579,97	1296,36
580,16	1226,73
580,36	1214,45
580,55	1304,56
580,75	1314,80
580,94	1306,60
581,13	1325,04
581,33	1386,47
581,52	1196,01
581,72	1273,84
581,91	1320,94
582,11	1294,32
582,30	1269,74
582,49	1218,54
582,69	1247,21
582,88	1255,40
583,08	1275,88
583,27	1290,22
583,47	1269,74
583,66	1306,60
583,85	1224,69
584,05	1275,88
584,24	1275,88
584,44	1257,45
584,63	1271,79
584,82	1296,36
585,02	1298,41
585,21	1234,93
585,41	1310,70
585,60	1257,45
585,79	1273,84
585,99	1273,84
586,18	1267,69
586,37	1228,78
586,57	1251,31
586,76	1241,07
586,96	1275,88
587,15	1220,59
587,34	1275,88
587,54	1255,40
587,73	1327,08
587,93	1322,99
588,12	1282,03
588,31	1263,60
588,51	1245,16
588,70	1243,12
588,89	1298,41
589,09	1345,52
589,28	1279,98
589,47	1216,49
589,67	1273,84
589,86	1308,65
590,06	1234,93
590,25	1208,30
590,44	1384,43
590,64	1273,84
590,83	1310,70
591,02	1257,45
591,22	1294,32
591,41	1232,88
591,60	1257,45
591,80	1288,17
591,99	1249,26
592,18	1255,40
592,38	1218,54
592,57	1273,84
592,76	1273,84
592,96	1271,79
593,15	1269,74
593,34	1261,55
593,54	1294,32
593,73	1253,36
593,92	1261,55
594,12	1249,26
594,31	1316,84
594,50	1286,12
594,70	1261,55
594,89	1282,03
595,08	1232,88
595,28	1249,26
595,47	1218,54
595,66	1239,02
595,86	1251,31
596,05	1288,17
596,24	1220,59
596,43	1310,70
596,63	1304,56
596,82	1284,08
597,01	1249,26
597,21	1296,36
597,40	1298,41
597,59	1294,32
597,79	1259,50
597,98	1310,70
598,17	1228,78
598,36	1298,41
598,56	1298,41
598,75	1253,36
598,94	1353,71
599,14	1157,10
599,33	1200,11
599,52	1347,56
599,71	1206,25
599,91	1142,77
600,10	1257,45
600,29	1286,12
600,48	1261,55
600,68	1279,98
600,87	1282,03
601,06	1249,26
601,26	1198,06
601,45	1234,93
601,64	1306,60
601,83	1220,59
602,03	1275,88
602,22	1292,27
602,41	1251,31
602,60	1247,21
602,80	1265,64
602,99	1296,36
603,18	1294,32
603,37	1243,12
603,57	1216,49
603,76	1339,37
603,95	1236,97
604,14	1318,89
604,34	1224,69
604,53	1286,12
604,72	1263,60
604,91	1198,06
605,10	1286,12
605,30	1318,89
605,49	1327,08
605,68	1318,89
605,87	1222,64
606,07	1314,80
606,26	1241,07
606,45	1230,83
606,64	1312,75
606,84	1294,32
607,03	1259,50
607,22	1222,64
607,41	1282,03
607,60	1245,16
607,80	1273,84
607,99	1353,71
608,18	1257,45
608,37	1212,40
608,56	1273,84
608,76	1253,36
608,95	1228,78
609,14	1282,03
609,33	1214,45
609,52	1261,55
609,72	1263,60
609,91	1294,32
610,10	1251,31
610,29	1279,98
610,48	1271,79
610,68	1325,04
610,87	1286,12
611,06	1191,92
611,25	1310,70
611,44	1232,88
611,63	1232,88
611,83	1265,64
612,02	1335,28
612,21	1259,50
612,40	1316,84
612,59	1259,50
612,79	1263,60
612,98	1271,79
613,17	1318,89
613,36	1279,98
613,55	1292,27
613,74	1292,27
613,93	1357,80
614,13	1331,18
614,32	1269,74
614,51	1185,77
614,70	1282,03
614,89	1304,56
615,08	1239,02
615,28	1296,36
615,47	1353,71
615,66	1193,97
615,85	1257,45
616,04	1220,59
616,23	1286,12
616,42	1261,55
616,62	1294,32
616,81	1275,88
617,00	1236,97
617,19	1335,28
617,38	1290,22
617,57	1257,45
617,76	1300,46
617,95	1312,75
618,15	1257,45
618,34	1253,36
618,53	1247,21
618,72	1284,08
618,91	1333,23
619,10	1329,13
619,29	1261,55
619,48	1230,83
619,68	1239,02
619,87	1208,30
620,06	1282,03
620,25	1259,50
620,44	1312,75
620,63	1325,04
620,82	1236,97
621,01	1200,11
621,20	1316,84
621,39	1322,99
621,59	1206,25
621,78	1187,82
621,97	1271,79
622,16	1273,84
622,35	1288,17
622,54	1333,23
622,73	1234,93
622,92	1261,55
623,11	1275,88
623,30	1277,93
623,49	1279,98
623,68	1320,94
623,88	1226,73
624,07	1357,80
624,26	1239,02
624,45	1247,21
624,64	1245,16
624,83	1304,56
625,02	1286,12
625,21	1282,03
625,40	1302,51
625,59	1290,22
625,78	1294,32
625,97	1292,27
626,16	1267,69
626,35	1329,13
626,54	1247,21
626,74	1236,97
626,93	1290,22
627,12	1232,88
627,31	1296,36
627,50	1320,94
627,69	1277,93
627,88	1263,60
628,07	1296,36
628,26	1288,17
628,45	1206,25
628,64	1247,21
628,83	1290,22
629,02	1230,83
629,21	1236,97
629,40	1302,51
629,59	1282,03
629,78	1333,23
629,97	1273,84
630,16	1300,46
630,35	1239,02
630,54	1296,36
630,73	1341,42
630,92	1331,18
631,11	1325,04
631,30	1318,89
631,49	1388,52
631,68	2070,50
631,87	6674,33
632,06	26967,65
632,25	58074,25
632,44	45897,03
632,63	31749,66
632,82	28358,22
633,01	6885,27
633,20	3688,39
633,39	3373,00
633,58	2854,87
633,77	2258,91
633,96	1964,00
634,15	1927,14
634,34	1796,07
634,53	1669,09
634,72	1619,94
634,91	1599,46
635,10	1605,61
635,29	1548,26
635,48	1538,02
635,67	1433,58
635,86	1449,96
636,05	1435,63
636,24	1435,63
636,43	1353,71
636,62	1443,82
636,81	1341,42
637,00	1343,47
637,19	1343,47
637,38	1368,04
637,57	1355,76
637,76	1437,67
637,95	1353,71
638,14	1443,82
638,33	1286,12
638,52	1312,75
638,71	1337,32
638,89	1286,12
639,08	1318,89
639,27	1257,45
639,46	1316,84
639,65	1263,60
639,84	1290,22
640,03	1306,60
640,22	1257,45
640,41	1345,52
640,60	1320,94
640,79	1263,60
640,98	1306,60
641,17	1255,40
641,36	1282,03
641,55	1263,60
641,74	1275,88
641,92	1345,52
642,11	1325,04
642,30	1257,45
642,49	1216,49
642,68	1247,21
642,87	1228,78
643,06	1290,22
643,25	1263,60
643,44	1245,16
643,63	1337,32
643,82	1318,89
644,00	1271,79
644,19	1279,98
644,38	1247,21
644,57	1378,28
644,76	1279,98
644,95	1249,26
645,14	1243,12
645,33	1304,56
645,52	1265,64
645,71	1286,12
645,89	1318,89
646,08	1312,75
646,27	1247,21
646,46	1253,36
646,65	1230,83
646,84	1220,59
647,03	1304,56
647,22	1273,84
647,40	1347,56
647,59	1335,28
647,78	1255,40
647,97	1327,08
648,16	1224,69
648,35	1290,22
648,54	1247,21
648,73	1224,69
648,91	1216,49
649,10	1329,13
649,29	1275,88
649,48	1216,49
649,67	1247,21
649,86	1255,40
650,05	1318,89
650,23	1193,97
650,42	1243,12
650,61	1292,27
650,80	1314,80
650,99	1310,70
651,18	1269,74
651,36	1241,07
651,55	1273,84
651,74	1191,92
651,93	1322,99
652,12	1337,32
652,31	1198,06
652,49	1247,21
652,68	1312,75
652,87	1286,12
653,06	1279,98
653,25	1269,74
653,44	1296,36
653,62	1316,84
653,81	1204,21
654,00	1257,45
654,19	1304,56
654,38	1302,51
654,56	1271,79
654,75	1302,51
654,94	1236,97
655,13	1259,50
655,32	1226,73
655,51	1232,88
655,69	1314,80
655,88	1212,40
656,07	1179,63
656,26	1286,12
656,45	1226,73
656,63	1275,88
656,82	1251,31
657,01	1284,08
657,20	1253,36
657,38	1257,45
657,57	1353,71
657,76	1230,83
657,95	1298,41
658,14	1284,08
658,32	1198,06
658,51	1331,18
658,70	1277,93
658,89	1304,56
659,08	1257,45
659,26	1298,41
659,45	1200,11
659,64	1351,66
659,83	1224,69
660,01	1251,31
660,20	1275,88
660,39	1255,40
660,58	1298,41
660,76	1310,70
660,95	1232,88
661,14	1325,04
661,33	1253,36
661,51	1282,03
661,70	1300,46
661,89	1273,84
662,08	1261,55
662,26	1249,26
662,45	1183,73
662,64	1253,36
662,83	1216,49
663,01	1253,36
663,20	1198,06
663,39	1279,98
663,58	1251,31
663,76	1331,18
663,95	1220,59
664,14	1230,83
664,32	1236,97
664,51	1351,66
664,70	1265,64
664,89	1284,08
665,07	1263,60
665,26	1212,40
665,45	1322,99
665,64	1234,93
665,82	1282,03
666,01	1253,36
666,20	1245,16
666,38	1239,02
666,57	1261,55
666,76	1204,21
666,95	1261,55
667,13	1239,02
667,32	1241,07
667,51	1257,45
667,69	1271,79
667,88	1331,18
668,07	1288,17
668,25	1349,61
668,44	1261,55
668,63	1277,93
668,81	1343,47
669,00	1247,21
669,19	1267,69
669,38	1294,32
669,56	1206,25
669,75	1239,02
669,94	1275,88
670,12	1243,12
670,31	1298,41
670,50	1255,40
670,68	1318,89
670,87	1259,50
671,06	1345,52
671,24	1279,98
671,43	1273,84
671,62	1277,93
671,80	1259,50
671,99	1275,88
672,18	1239,02
672,36	1290,22
672,55	1302,51
672,74	1286,12
672,92	1290,22
673,11	1322,99
673,29	1290,22
673,48	1329,13
673,67	1232,88
673,85	1261,55
674,04	1208,30
674,23	1245,16
674,41	1302,51
674,60	1273,84
674,79	1193,97
674,97	1257,45
675,16	1263,60
675,34	1290,22
675,53	1261,55
675,72	1269,74
675,90	1226,73
676,09	1302,51
676,28	1275,88
676,46	1308,65
676,65	1253,36
676,83	1296,36
677,02	1329,13
677,21	1314,80
677,39	1333,23
677,58	1298,41
677,77	1273,84
677,95	1261,55
678,14	1312,75
678,32	1277,93
678,51	1247,21
678,70	1288,17
678,88	1302,51
679,07	1290,22
679,25	1247,21
679,44	1261,55
679,63	1218,54
679,81	1212,40
680,00	1263,60
680,18	1224,69
680,37	1353,71
680,55	1241,07
680,74	1204,21
680,93	1220,59
681,11	1251,31
681,30	1259,50
681,48	1325,04
681,67	1265,64
681,85	1286,12
682,04	1265,64
682,23	1318,89
682,41	1214,45
682,60	1224,69
682,78	1275,88
682,97	1298,41
683,15	1243,12
683,34	1243,12
683,53	1308,65
683,71	1267,69
683,90	1249,26
684,08	1261,55
684,27	1271,79
684,45	1189,87
684,64	1259,50
684,82	1200,11
685,01	1216,49
685,19	1140,72
685,38	1306,60
685,57	1230,83
685,75	1306,60
685,94	1208,30
686,12	1228,78
686,31	1212,40
686,49	1316,84
686,68	1304,56
686,86	1247,21
687,05	1191,92
687,23	1265,64
687,42	1331,18
687,60	1243,12
687,79	1185,77
687,97	1277,93
688,16	1300,46
688,34	1193,97
688,53	1273,84
688,71	1310,70
688,90	1331,18
689,08	1253,36
689,27	1226,73
689,45	1249,26
689,64	1236,97
689,82	1257,45
690,01	1175,53
690,19	1288,17
690,38	1216,49
690,56	1249,26
690,75	1249,26
690,93	1257,45
691,12	1212,40
691,30	1286,12
691,49	1189,87
691,67	1292,27
691,86	1267,69
692,04	1316,84
692,23	1218,54
692,41	1265,64
692,60	1222,64
692,78	1296,36
692,97	1300,46
693,15	1255,40
693,34	1286,12
693,52	1249,26
693,71	1243,12
693,89	1239,02
694,08	1257,45
694,26	1273,84
694,44	1300,46
694,63	1230,83
694,81	1263,60
695,00	1224,69
695,18	1273,84
695,37	1355,76
695,55	1239,02
695,74	1259,50
695,92	1249,26
696,10	1261,55
696,29	1275,88
696,47	1263,60
696,66	1269,74
696,84	1284,08
697,03	1312,75
697,21	1288,17
697,40	1257,45
697,58	1314,80
697,76	1249,26
697,95	1286,12
698,13	1271,79
698,32	1239,02
698,50	1212,40
698,68	1212,40
698,87	1259,50
699,05	1236,97
699,24	1290,22
699,42	1230,83
699,61	1304,56
699,79	1329,13
699,97	1247,21
700,16	1304,56
700,34	1181,68
700,53	1267,69
700,71	1230,83
700,89	1304,56
701,08	1318,89
701,26	1292,27
701,45	1314,80
701,63	1286,12
701,81	1314,80
702,00	1234,93
702,18	1275,88
702,37	1243,12
702,55	1206,25
702,73	1279,98
702,92	1253,36
703,10	1277,93
703,28	1290,22
703,47	1286,12
703,65	1212,40
703,84	1259,50
704,02	1273,84
704,20	1337,32
704,39	1216,49
704,57	1331,18
704,75	1239,02
704,94	1314,80
705,12	1263,60
705,30	1257,45
705,49	1200,11
705,67	1322,99
705,86	1228,78
706,04	1269,74
706,22	1241,07
706,41	1245,16
706,59	1216,49
706,77	1271,79
706,96	1298,41
707,14	1228,78
707,32	1255,40
707,51	1251,31
707,69	1259,50
707,87	1241,07
708,06	1228,78
708,24	1269,74
708,42	1249,26
708,61	1314,80
708,79	1216,49
708,97	1255,40
709,16	1226,73
709,34	1249,26
709,52	1255,40
709,71	1251,31
709,89	1275,88
710,07	1253,36
710,26	1232,88
710,44	1193,97
710,62	1271,79
710,80	1257,45
710,99	1302,51
711,17	1265,64
711,35	1308,65
711,54	1265,64
711,72	1400,81
711,90	1359,85
712,09	1288,17
712,27	1300,46
712,45	1206,25
712,63	1216,49
712,82	1286,12
713,00	1222,64
713,18	1255,40
713,37	1286,12
713,55	1279,98
713,73	1241,07
713,91	1286,12
714,10	1249,26
714,28	1294,32
714,46	1296,36
714,65	1263,60
714,83	1331,18
715,01	1290,22
715,19	1298,41
715,38	1247,21
715,56	1263,60
715,74	1257,45
715,92	1306,60
716,11	1363,95
716,29	1269,74
716,47	1220,59
716,65	1230,83
716,84	1271,79
717,02	1374,19
717,20	1241,07
717,38	1220,59
717,57	1361,90
717,75	1224,69
717,93	1249,26
718,11	1306,60
718,30	1230,83
718,48	1298,41
718,66	1239,02
718,84	1277,93
719,03	1216,49
719,21	1187,82
719,39	1282,03
719,57	1347,56
719,75	1300,46
719,94	1273,84
720,12	1312,75
720,30	1249,26
720,48	1249,26
720,67	1279,98
720,85	1245,16
721,03	1232,88
721,21	1245,16
721,39	1279,98
721,58	1265,64
721,76	1273,84
721,94	1265,64
722,12	1275,88
722,30	1249,26
722,49	1286,12
722,67	1241,07
722,85	1288,17
723,03	1275,88
723,21	1265,64
723,40	1251,31
723,58	1312,75
723,76	1290,22
723,94	1296,36
724,12	1267,69
724,30	1331,18
724,49	1282,03
724,67	1314,80
724,85	1282,03
725,03	1296,36
725,21	1282,03
725,40	1267,69
725,58	1255,40
725,76	1239,02
725,94	1253,36
726,12	1232,88
726,30	1320,94
726,49	1214,45
726,67	1222,64
726,85	1222,64
727,03	1230,83
727,21	1296,36
727,39	1282,03
727,57	1216,49
727,76	1273,84
727,94	1247,21
728,12	1263,60
728,30	1236,97
728,48	1259,50
728,66	1243,12
728,84	1251,31
729,03	1206,25
729,21	1253,36
729,39	1228,78
729,57	1234,93
729,75	1269,74
729,93	1218,54
730,11	1353,71
730,30	1236,97
730,48	1247,21
730,66	1290,22
730,84	1253,36
731,02	1232,88
731,20	1318,89
731,38	1261,55
731,56	1241,07
731,74	1322,99
731,93	1259,50
732,11	1208,30
732,29	1249,26
732,47	1282,03
732,65	1206,25
732,83	1191,92
733,01	1251,31
733,19	1239,02
733,37	1277,93
733,56	1236,97
733,74	1196,01
733,92	1298,41
734,10	1243,12
734,28	1247,21
734,46	1251,31
734,64	1257,45
734,82	1257,45
735,00	1308,65
735,18	1218,54
735,36	1218,54
735,54	1265,64
735,73	1294,32
735,91	1265,64
736,09	1306,60
736,27	1263,60
736,45	1245,16
736,63	1245,16
736,81	1343,47
736,99	1337,32
737,17	1247,21
737,35	1239,02
737,53	1247,21
737,71	1263,60
737,89	1257,45
738,07	1282,03
738,25	1316,84
738,43	1259,50
738,61	1265,64
738,80	1257,45
738,98	1220,59
739,16	1206,25
739,34	1329,13
739,52	1300,46
739,70	1275,88
739,88	1322,99
740,06	1304,56
740,24	1304,56
740,42	1322,99
740,60	1304,56
740,78	1273,84
740,96	1325,04
741,14	1277,93
741,32	1275,88
741,50	1286,12
741,68	1265,64
741,86	1290,22
742,04	1232,88
742,22	1304,56
742,40	1210,35
742,58	1327,08
742,76	1265,64
742,94	1314,80
743,12	1318,89
743,30	1228,78
743,48	1314,80
743,66	1282,03
743,84	1271,79
744,02	1204,21
744,20	1220,59
744,38	1239,02
744,56	1144,81
744,74	1218,54
744,92	1257,45
745,10	1267,69
745,28	1306,60
745,46	1224,69
745,64	1193,97
745,82	1222,64
746,00	1241,07
746,18	1308,65
746,36	1234,93
746,54	1232,88
746,72	1226,73
746,90	1314,80
747,08	1361,90
747,26	1279,98
747,44	1247,21
747,62	1189,87
747,80	1310,70
747,98	1302,51
748,15	1249,26
748,33	1214,45
748,51	1239,02
748,69	1265,64
748,87	1331,18
749,05	1216,49
749,23	1290,22
749,41	1234,93
749,59	1245,16
749,77	1222,64
749,95	1308,65
750,13	1249,26
750,31	1216,49
750,49	1279,98
750,67	1275,88
750,85	1316,84
751,03	1222,64
751,20	1265,64
751,38	1255,40
751,56	1302,51
751,74	1226,73
751,92	1220,59
752,10	1259,50
752,28	1269,74
752,46	1249,26
752,64	1212,40
752,82	1265,64
753,00	1312,75
753,18	1249,26
753,35	1310,70
753,53	1198,06
753,71	1351,66
753,89	1263,60
754,07	1290,22
754,25	1277,93
754,43	1208,30
754,61	1224,69
754,79	1294,32
754,97	1335,28
755,14	1249,26
755,32	1228,78
755,50	1263,60
755,68	1269,74
755,86	1325,04
756,04	1322,99
756,22	1257,45
756,40	1263,60
756,57	1316,84
756,75	1257,45
756,93	1224,69
757,11	1241,07
757,29	1267,69
757,47	1159,15
757,65	1378,28
757,82	1259,50
758,00	1322,99
758,18	1234,93
758,36	1216,49
758,54	1275,88
758,72	1275,88
758,90	1361,90
759,07	1327,08
759,25	1198,06
759,43	1243,12
759,61	1292,27
759,79	1310,70
759,97	1224,69
760,15	1212,40
760,32	1286,12
760,50	1239,02
760,68	1265,64
760,86	1286,12
761,04	1236,97
761,22	1288,17
761,39	1337,32
761,57	1249,26
761,75	1208,30
761,93	1224,69
762,11	1200,11
762,28	1228,78
762,46	1210,35
762,64	1212,40
762,82	1255,40
763,00	1308,65
763,18	1216,49
763,35	1378,28
763,53	1333,23
763,71	1212,40
763,89	1222,64
764,07	1298,41
764,24	1175,53
764,42	1292,27
764,60	1277,93
764,78	1296,36
764,96	1265,64
765,13	1314,80
765,31	1261,55
765,49	1286,12
765,67	1255,40
765,84	1257,45
766,02	1230,83
766,20	1214,45
766,38	1261,55
766,56	1263,60
766,73	1304,56
766,91	1273,84
767,09	1296,36
767,27	1282,03
767,44	1296,36
767,62	1259,50
767,80	1232,88
767,98	1263,60
768,15	1306,60
768,33	1259,50
768,51	1378,28
768,69	1232,88
768,87	1302,51
769,04	1226,73
769,22	1275,88
769,40	1232,88
769,58	1261,55
769,75	1308,65
769,93	1345,52
770,11	1245,16
770,28	1288,17
770,46	1249,26
770,64	1263,60
770,82	1243,12
770,99	1265,64
771,17	1308,65
771,35	1290,22
771,53	1196,01
771,70	1247,21
771,88	1296,36
772,06	1255,40
772,23	1200,11
772,41	1279,98
772,59	1286,12
772,77	1196,01
772,94	1189,87
773,12	1247,21
773,30	1261,55
773,47	1259,50
773,65	1275,88
773,83	1333,23
774,01	1302,51
774,18	1239,02
774,36	1267,69
774,54	1282,03
774,71	1314,80
774,89	1265,64
775,07	1300,46
775,24	1415,15
775,42	1288,17
775,60	1292,27
775,78	1232,88
775,95	1312,75
776,13	1265,64
776,31	1253,36
776,48	1255,40
776,66	1275,88
776,84	1296,36
777,01	1202,16
777,19	1153,01
777,37	1296,36
777,54	1261,55
777,72	1286,12
777,90	1298,41
778,07	1302,51
778,25	1292,27
778,43	1277,93
778,60	1294,32
778,78	1298,41
778,96	1288,17
779,13	1263,60
779,31	1300,46
779,49	1255,40
779,66	1273,84
779,84	1269,74
780,01	1183,73
780,19	1261,55
780,37	1236,97
780,54	1241,07
780,72	1282,03
780,90	1193,97
781,07	1271,79
781,25	1171,44
781,43	1273,84
781,60	1331,18
781,78	1265,64
781,95	1208,30
782,13	1245,16
782,31	1214,45
782,48	1259,50
782,66	1249,26
782,83	1304,56
783,01	1187,82
783,19	1296,36
783,36	1296,36
783,54	1288,17
783,72	1247,21
783,89	1292,27
784,07	1284,08
784,24	1218,54
784,42	1181,68
784,60	1269,74
784,77	1255,40
784,95	1300,46
785,12	1296,36
785,30	1302,51
785,47	1282,03
785,65	1255,40
785,83	1220,59
786,00	1208,30
786,18	1224,69
786,35	1253,36
786,53	1308,65
786,71	1253,36
786,88	1245,16
787,06	1327,08
787,23	1249,26
787,41	1331,18
787,58	1196,01
787,76	1294,32
787,94	1277,93
788,11	1302,51
788,29	1292,27
788,46	1255,40
788,64	1255,40
788,81	1257,45
788,99	1308,65
789,16	1253,36
789,34	1257,45
789,52	1236,97
789,69	1181,68
789,87	1245,16
790,04	1292,27
790,22	1306,60
790,39	1259,50
790,57	1331,18
790,74	1214,45
790,92	1241,07
791,09	1265,64
791,27	1245,16
791,44	1308,65
791,62	1263,60
791,79	1312,75
791,97	1251,31
792,15	1277,93
792,32	1288,17
792,50	1257,45
792,67	1232,88
792,85	1310,70
793,02	1218,54
793,20	1247,21
793,37	1255,40
793,55	1292,27
793,72	1318,89
793,90	1271,79
794,07	1216,49
794,25	1345,52
794,42	1226,73
794,60	1224,69
794,77	1236,97
794,95	1290,22
795,12	1306,60
795,30	1257,45
795,47	1296,36
795,65	1318,89
795,82	1245,16
796,00	1300,46
796,17	1253,36
796,34	1263,60
796,52	1241,07
796,69	1310,70
796,87	1273,84
797,04	1292,27
797,22	1279,98
797,39	1304,56
797,57	1267,69
797,74	1265,64
797,92	1249,26
798,09	1288,17
798,27	1277,93
798,44	1288,17
798,62	1271,79
798,79	1249,26
798,96	1206,25
799,14	1247,21
799,31	1282,03
799,49	1241,07
799,66	1249,26
799,84	1189,87
800,01	1292,27
800,19	1298,41
800,36	1224,69
800,53	1273,84
800,71	1333,23
800,88	1263,60
801,06	1212,40
801,23	1239,02
801,41	1247,21
801,58	1230,83
801,75	1245,16
801,93	1267,69
802,10	1245,16
802,28	1241,07
802,45	1294,32
802,63	1232,88
802,80	1191,92
802,97	1239,02
803,15	1308,65
803,32	1216,49
803,50	1327,08
803,67	1257,45
803,84	1267,69
804,02	1271,79
804,19	1298,41
804,37	1286,12
804,54	1245,16
804,71	1257,45
804,89	1214,45
805,06	1298,41
805,24	1279,98
805,41	1300,46
805,58	1245,16
805,76	1335,28
805,93	1273,84
806,10	1269,74
806,28	1271,79
806,45	1263,60
806,63	1357,80
806,80	1298,41
806,97	1261,55
807,15	1232,88
807,32	1269,74
807,49	1181,68
807,67	1210,35
807,84	1318,89
808,01	1239,02
808,19	1251,31
808,36	1218,54
808,54	1265,64
808,71	1263,60
808,88	1200,11
809,06	1294,32
809,23	1286,12
809,40	1343,47
809,58	1296,36
809,75	1298,41
809,92	1298,41
810,10	1306,60
810,27	1181,68
810,44	1265,64
810,62	1273,84
810,79	1296,36
810,96	1282,03
811,14	1234,93
811,31	1257,45
811,48	1236,97
811,66	1298,41
811,83	1273,84
812,00	1351,66
812,18	1206,25
812,35	1304,56
812,52	1228,78
812,69	1243,12
812,87	1220,59
813,04	1249,26
813,21	1204,21
813,39	1253,36
813,56	1275,88
813,73	1343,47
813,91	1257,45
814,08	1212,40
814,25	1277,93
814,42	1279,98
814,60	1294,32
814,77	1290,22
814,94	1277,93
815,12	1292,27
815,29	1261,55
815,46	1310,70
815,63	1251,31
815,81	1267,69
815,98	1271,79
816,15	1236,97
816,33	1245,16
816,50	1222,64
816,67	1286,12
816,84	1312,75
817,02	1243,12
817,19	1214,45
817,36	1314,80
817,53	1247,21
817,71	1200,11
817,88	1247,21
818,05	1247,21
818,22	1239,02
818,40	1214,45
818,57	1304,56
818,74	1277,93
818,91	1224,69
819,09	1308,65
819,26	1343,47
819,43	1372,14
819,60	1249,26
819,78	1247,21
819,95	1290,22
820,12	1363,95
820,29	1204,21
820,47	1189,87
820,64	1257,45
820,81	1247,21
820,98	1261,55
821,15	1257,45
821,33	1267,69
821,50	1284,08
821,67	1226,73
821,84	1296,36
822,02	1302,51
822,19	1329,13
822,36	1275,88
822,53	1224,69
822,70	1282,03
822,88	1273,84
823,05	1286,12
823,22	1253,36
823,39	1310,70
823,56	1224,69
823,74	1269,74
823,91	1210,35
824,08	1339,37
824,25	1249,26
824,42	1288,17
824,60	1222,64
824,77	1247,21
824,94	1253,36
825,11	1277,93
825,28	1320,94
825,45	1273,84
825,63	1181,68
825,80	1265,64
825,97	1228,78
826,14	1220,59
826,31	1286,12
826,48	1269,74
826,66	1224,69
826,83	1263,60
827,00	1253,36
827,17	1255,40
827,34	1239,02
827,51	1255,40
827,69	1249,26
827,86	1273,84
828,03	1259,50
828,20	1298,41
828,37	1239,02
828,54	1230,83
828,71	1286,12
828,89	1259,50
829,06	1245,16
829,23	1200,11
829,40	1271,79
829,57	1212,40
829,74	1273,84
829,91	1247,21
830,09	1265,64
830,26	1243,12
830,43	1247,21
830,60	1259,50
830,77	1222,64
830,94	1314,80
831,11	1191,92
831,28	1255,40
831,46	1232,88
831,63	1230,83
831,80	1300,46
831,97	1247,21
832,14	1187,82
832,31	1267,69
832,48	1220,59
832,65	1337,32
832,82	1261,55
832,99	1298,41
833,17	1292,27
833,34	1320,94
833,51	1243,12
833,68	1282,03
833,85	1271,79
834,02	1212,40
834,19	1206,25
834,36	1253,36
834,53	1239,02
834,70	1284,08
834,87	1347,56
835,04	1224,69
835,22	1251,31
835,39	1269,74
835,56	1300,46
835,73	1308,65
835,90	1327,08
836,07	1279,98
836,24	1282,03
836,41	1294,32
836,58	1253,36
836,75	1286,12
836,92	1341,42
837,09	1187,82
837,26	1255,40
837,43	1228,78
837,60	1290,22
837,77	1306,60
837,94	1224,69
838,12	1212,40
838,29	1277,93
838,46	1261,55
838,63	1271,79
838,80	1290,22
838,97	1271,79
839,14	1292,27
839,31	1200,11
839,48	1263,60
839,65	1257,45
839,82	1220,59
839,99	1314,80
840,16	1249,26
840,33	1286,12
840,50	1349,61
840,67	1294,32
840,84	1183,73
841,01	1288,17
841,18	1322,99
841,35	1202,16
841,52	1255,40
841,69	1294,32
841,86	1239,02
842,03	1320,94
842,20	1298,41
842,37	1263,60
842,54	1302,51
842,71	1163,25
842,88	1292,27
843,05	1243,12
843,22	1249,26
843,39	1345,52
843,56	1302,51
843,73	1255,40
843,90	1302,51
844,07	1296,36
844,24	1173,49
844,41	1247,21
844,58	1275,88
844,75	1226,73
844,92	1275,88
845,09	1261,55
845,26	1247,21
845,43	1306,60
845,60	1314,80
845,77	1218,54
845,94	1292,27
846,10	1253,36
846,27	1263,60
846,44	1265,64
846,61	1259,50
846,78	1271,79
846,95	1185,77
847,12	1269,74
847,29	1251,31
847,46	1267,69
847,63	1269,74
847,80	1265,64
847,97	1208,30
848,14	1218,54
848,31	1234,93
848,48	1251,31
848,65	1265,64
848,82	1236,97
848,98	1310,70
849,15	1247,21
849,32	1339,37
849,49	1239,02
849,66	1265,64
849,83	1306,60
850,00	1337,32
850,17	1290,22
850,34	1220,59
850,51	1312,75
850,68	1265,64
850,85	1337,32
851,01	1261,55
851,18	1247,21
851,35	1241,07
851,52	1318,89
851,69	1296,36
851,86	1265,64
852,03	1245,16
852,20	1257,45
852,37	1312,75
852,53	1284,08
852,70	1232,88
852,87	1247,21
853,04	1306,60
853,21	1292,27
853,38	1230,83
853,55	1222,64
853,72	1288,17
853,89	1251,31
854,05	1368,04
854,22	1286,12
854,39	1257,45
854,56	1236,97
854,73	1273,84
854,90	1251,31
855,07	1226,73
855,23	1275,88
855,40	1208,30
855,57	1284,08
855,74	1243,12
855,91	1265,64
856,08	1294,32
856,25	1298,41
856,41	1247,21
856,58	1343,47
856,75	1327,08
856,92	1202,16
857,09	1198,06
857,26	1255,40
857,42	1277,93
857,59	1374,19
857,76	1320,94
857,93	1286,12
858,10	1286,12
858,27	1169,39
858,43	1261,55
858,60	1316,84
858,77	1304,56
858,94	1210,35
859,11	1271,79
859,27	1259,50
859,44	1306,60
859,61	1288,17
859,78	1267,69
859,95	1222,64
860,12	1247,21
860,28	1224,69
860,45	1206,25
860,62	1259,50
860,79	1300,46
860,95	1277,93
861,12	1249,26
861,29	1230,83
861,46	1290,22
861,63	1257,45
861,79	1277,93
861,96	1284,08
862,13	1312,75
862,30	1273,84
862,47	1189,87
862,63	1232,88
862,80	1318,89
862,97	1310,70
863,14	1288,17
863,30	1253,36
863,47	1306,60
863,64	1331,18
863,81	1298,41
863,97	1263,60
864,14	1302,51
864,31	1241,07
864,48	1282,03
864,65	1257,45
864,81	1232,88
864,98	1247,21
865,15	1249,26
865,32	1284,08
865,48	1267,69
865,65	1347,56
865,82	1230,83
865,98	1282,03
866,15	1259,50
866,32	1279,98
866,49	1284,08
866,65	1243,12
866,82	1284,08
866,99	1243,12
867,16	1302,51
867,32	1208,30
867,49	1255,40
867,66	1236,97
867,83	1193,97
867,99	1300,46
868,16	1241,07
868,33	1236,97
868,49	1306,60
868,66	1232,88
868,83	1257,45
868,99	1290,22
869,16	1236,97
869,33	1216,49
869,50	1232,88
869,66	1239,02
869,83	1214,45
870,00	1236,97
870,16	1265,64
870,33	1218,54
870,50	1263,60
870,66	1296,36
870,83	1292,27
871,00	1275,88
871,17	1279,98
871,33	1216,49
871,50	1271,79
871,67	1335,28
871,83	1210,35
872,00	1292,27
872,17	1333,23
872,33	1249,26
872,50	1255,40
872,67	1232,88
872,83	1294,32
873,00	1294,32
873,17	1261,55
873,33	1251,31
873,50	1298,41
873,67	1286,12
873,83	1347,56
874,00	1263,60
874,16	1298,41
874,33	1245,16
874,50	1257,45
874,66	1257,45
874,83	1277,93
875,00	1290,22
875,16	1267,69
875,33	1191,92
875,50	1300,46
875,66	1239,02
875,83	1251,31
875,99	1206,25
876,16	1273,84
876,33	1294,32
876,49	1263,60
876,66	1312,75
876,83	1290,22
876,99	1255,40
877,16	1234,93
877,32	1292,27
877,49	1292,27
877,66	1298,41
877,82	1269,74
877,99	1271,79
878,15	1353,71
878,32	1187,82
878,49	1322,99
878,65	1282,03
878,82	1228,78
878,98	1320,94
879,15	1355,76
879,32	1304,56
879,48	1261,55
879,65	1267,69
879,81	1232,88
879,98	1265,64
880,15	1200,11
880,31	1241,07
880,48	1228,78
880,64	1263,60
880,81	1277,93
880,97	1249,26
881,14	1263,60
881,31	1300,46
881,47	1316,84
881,64	1257,45
881,80	1247,21
881,97	1312,75
882,13	1318,89
882,30	1232,88
882,47	1294,32
882,63	1298,41
882,80	1302,51
882,96	1265,64
883,13	1251,31
883,29	1312,75
883,46	1255,40
883,62	1288,17
883,79	1282,03
883,95	1273,84
884,12	1306,60
884,29	1261,55
884,45	1226,73
884,62	1263,60
884,78	1259,50
884,95	1300,46
885,11	1249,26
885,28	1325,04
885,44	1302,51
885,61	1214,45
885,77	1314,80
885,94	1322,99
886,10	1286,12
886,27	1236,97
886,43	1290,22
886,60	1269,74
886,76	1243,12
886,93	1265,64
887,09	1243,12
887,26	1265,64
887,42	1271,79
887,59	1236,97
887,75	1316,84
887,92	1292,27
888,08	1249,26
888,25	1259,50
888,41	1261,55
888,58	1286,12
888,74	1316,84
888,91	1269,74
>>>>>End Processed Spectral Data<<<<<
