SpectraSuite Data File
++++++++++++++++++++++++++++++++++++
Date: Sun Apr 03 13:47:04 CEST 2016
User: root
Dark Spectrum Present: No
Reference Spectrum Present: No
Number of Sampled Component Spectra: 1
Spectrometers: USB4C02835
Integration Time (usec): 10000 (USB4C02835)
Spectra Averaged: 1 (USB4C02835)
Boxcar Smoothing: 0 (USB4C02835)
Correct for Electrical Dark: No (USB4C02835)
Strobe/Lamp Enabled: No (USB4C02835)
Correct for Detector Non-linearity: No (USB4C02835)
Correct for Stray Light: No (USB4C02835)
Number of Pixels in Processed Spectrum: 3648
>>>>>Begin Processed Spectral Data<<<<<
177,47	1255,40
177,69	1255,40
177,91	1255,40
178,13	1232,88
178,36	1286,12
178,58	1290,22
178,80	1271,79
179,02	1150,96
179,24	1288,17
179,46	1294,32
179,68	1277,93
179,90	1302,51
180,13	1290,22
180,35	1251,31
180,57	1273,84
180,79	1310,70
181,01	1224,69
181,23	1251,31
181,45	1304,56
181,67	1204,21
181,90	1306,60
182,12	1253,36
182,34	1257,45
182,56	1300,46
182,78	1331,18
183,00	1187,82
183,22	1241,07
183,44	1210,35
183,66	1339,37
183,89	1279,98
184,11	1255,40
184,33	1331,18
184,55	1247,21
184,77	1304,56
184,99	1208,30
185,21	1277,93
185,43	1257,45
185,65	1249,26
185,87	1218,54
186,10	1183,73
186,32	1343,47
186,54	1239,02
186,76	1292,27
186,98	1284,08
187,20	1228,78
187,42	1245,16
187,64	1282,03
187,86	1269,74
188,08	1273,84
188,30	1279,98
188,52	1282,03
188,75	1306,60
188,97	1216,49
189,19	1290,22
189,41	1292,27
189,63	1298,41
189,85	1271,79
190,07	1282,03
190,29	1234,93
190,51	1312,75
190,73	1331,18
190,95	1257,45
191,17	1265,64
191,39	1359,85
191,61	1267,69
191,84	1232,88
192,06	1359,85
192,28	1239,02
192,50	1245,16
192,72	1302,51
192,94	1198,06
193,16	1257,45
193,38	1253,36
193,60	1298,41
193,82	1310,70
194,04	1296,36
194,26	1331,18
194,48	1275,88
194,70	1302,51
194,92	1247,21
195,14	1234,93
195,36	1294,32
195,58	1269,74
195,80	1306,60
196,02	1298,41
196,24	1228,78
196,46	1316,84
196,69	1282,03
196,91	1298,41
197,13	1294,32
197,35	1306,60
197,57	1273,84
197,79	1265,64
198,01	1253,36
198,23	1316,84
198,45	1322,99
198,67	1222,64
198,89	1282,03
199,11	1232,88
199,33	1300,46
199,55	1282,03
199,77	1247,21
199,99	1247,21
200,21	1259,50
200,43	1298,41
200,65	1275,88
200,87	1214,45
201,09	1327,08
201,31	1267,69
201,53	1210,35
201,75	1290,22
201,97	1288,17
202,19	1300,46
202,41	1290,22
202,63	1241,07
202,85	1327,08
203,07	1327,08
203,29	1304,56
203,51	1236,97
203,73	1322,99
203,95	1249,26
204,17	1335,28
204,39	1208,30
204,61	1247,21
204,83	1325,04
205,05	1329,13
205,27	1239,02
205,49	1261,55
205,71	1314,80
205,93	1306,60
206,15	1226,73
206,37	1220,59
206,59	1298,41
206,81	1204,21
207,03	1306,60
207,25	1275,88
207,47	1183,73
207,69	1247,21
207,91	1314,80
208,13	1239,02
208,34	1265,64
208,56	1325,04
208,78	1296,36
209,00	1396,71
209,22	1286,12
209,44	1329,13
209,66	1267,69
209,88	1284,08
210,10	1206,25
210,32	1179,63
210,54	1236,97
210,76	1277,93
210,98	1249,26
211,20	1263,60
211,42	1284,08
211,64	1261,55
211,86	1239,02
212,08	1288,17
212,30	1288,17
212,52	1310,70
212,74	1279,98
212,96	1318,89
213,17	1329,13
213,39	1351,66
213,61	1294,32
213,83	1304,56
214,05	1232,88
214,27	1300,46
214,49	1335,28
214,71	1263,60
214,93	1306,60
215,15	1257,45
215,37	1218,54
215,59	1325,04
215,81	1259,50
216,03	1253,36
216,24	1294,32
216,46	1282,03
216,68	1304,56
216,90	1286,12
217,12	1247,21
217,34	1277,93
217,56	1230,83
217,78	1322,99
218,00	1200,11
218,22	1269,74
218,44	1282,03
218,66	1310,70
218,87	1304,56
219,09	1304,56
219,31	1304,56
219,53	1269,74
219,75	1282,03
219,97	1265,64
220,19	1312,75
220,41	1282,03
220,63	1267,69
220,85	1226,73
221,06	1255,40
221,28	1286,12
221,50	1357,80
221,72	1255,40
221,94	1228,78
222,16	1306,60
222,38	1366,00
222,60	1263,60
222,82	1222,64
223,03	1220,59
223,25	1292,27
223,47	1304,56
223,69	1300,46
223,91	1320,94
224,13	1257,45
224,35	1210,35
224,57	1267,69
224,78	1267,69
225,00	1304,56
225,22	1228,78
225,44	1284,08
225,66	1312,75
225,88	1265,64
226,10	1322,99
226,32	1302,51
226,53	1392,62
226,75	1398,76
226,97	1263,60
227,19	1304,56
227,41	1298,41
227,63	1265,64
227,85	1222,64
228,06	1327,08
228,28	1228,78
228,50	1337,32
228,72	1312,75
228,94	1376,24
229,16	1279,98
229,37	1243,12
229,59	1236,97
229,81	1302,51
230,03	1284,08
230,25	1284,08
230,47	1269,74
230,69	1243,12
230,90	1259,50
231,12	1226,73
231,34	1294,32
231,56	1302,51
231,78	1251,31
232,00	1241,07
232,21	1251,31
232,43	1300,46
232,65	1284,08
232,87	1247,21
233,09	1284,08
233,30	1294,32
233,52	1296,36
233,74	1304,56
233,96	1255,40
234,18	1263,60
234,40	1292,27
234,61	1284,08
234,83	1304,56
235,05	1312,75
235,27	1337,32
235,49	1261,55
235,70	1263,60
235,92	1304,56
236,14	1312,75
236,36	1239,02
236,58	1316,84
236,79	1325,04
237,01	1234,93
237,23	1284,08
237,45	1200,11
237,67	1288,17
237,88	1314,80
238,10	1318,89
238,32	1196,01
238,54	1304,56
238,76	1308,65
238,97	1259,50
239,19	1271,79
239,41	1296,36
239,63	1370,09
239,85	1228,78
240,06	1243,12
240,28	1261,55
240,50	1218,54
240,72	1243,12
240,93	1234,93
241,15	1275,88
241,37	1292,27
241,59	1249,26
241,81	1236,97
242,02	1306,60
242,24	1232,88
242,46	1300,46
242,68	1284,08
242,89	1298,41
243,11	1292,27
243,33	1243,12
243,55	1196,01
243,76	1243,12
243,98	1247,21
244,20	1241,07
244,42	1284,08
244,64	1253,36
244,85	1286,12
245,07	1292,27
245,29	1189,87
245,51	1265,64
245,72	1296,36
245,94	1347,56
246,16	1214,45
246,38	1271,79
246,59	1247,21
246,81	1202,16
247,03	1310,70
247,24	1271,79
247,46	1269,74
247,68	1187,82
247,90	1288,17
248,11	1298,41
248,33	1302,51
248,55	1259,50
248,77	1390,57
248,98	1273,84
249,20	1331,18
249,42	1265,64
249,64	1341,42
249,85	1298,41
250,07	1247,21
250,29	1282,03
250,50	1218,54
250,72	1279,98
250,94	1255,40
251,16	1312,75
251,37	1253,36
251,59	1314,80
251,81	1259,50
252,02	1271,79
252,24	1226,73
252,46	1290,22
252,68	1210,35
252,89	1177,58
253,11	1294,32
253,33	1292,27
253,54	1329,13
253,76	1316,84
253,98	1247,21
254,20	1282,03
254,41	1234,93
254,63	1288,17
254,85	1277,93
255,06	1325,04
255,28	1261,55
255,50	1202,16
255,71	1249,26
255,93	1298,41
256,15	1306,60
256,36	1269,74
256,58	1271,79
256,80	1327,08
257,02	1255,40
257,23	1243,12
257,45	1271,79
257,67	1292,27
257,88	1294,32
258,10	1241,07
258,32	1308,65
258,53	1265,64
258,75	1245,16
258,97	1232,88
259,18	1200,11
259,40	1286,12
259,62	1304,56
259,83	1288,17
260,05	1288,17
260,27	1300,46
260,48	1279,98
260,70	1275,88
260,92	1302,51
261,13	1284,08
261,35	1308,65
261,57	1198,06
261,78	1304,56
262,00	1255,40
262,22	1196,01
262,43	1310,70
262,65	1230,83
262,86	1290,22
263,08	1312,75
263,30	1198,06
263,51	1226,73
263,73	1286,12
263,95	1284,08
264,16	1366,00
264,38	1284,08
264,60	1208,30
264,81	1296,36
265,03	1277,93
265,25	1212,40
265,46	1265,64
265,68	1296,36
265,89	1343,47
266,11	1370,09
266,33	1329,13
266,54	1255,40
266,76	1288,17
266,98	1286,12
267,19	1259,50
267,41	1284,08
267,62	1271,79
267,84	1320,94
268,06	1257,45
268,27	1304,56
268,49	1320,94
268,70	1314,80
268,92	1265,64
269,14	1228,78
269,35	1255,40
269,57	1322,99
269,79	1351,66
270,00	1355,76
270,22	1329,13
270,43	1271,79
270,65	1247,21
270,87	1230,83
271,08	1236,97
271,30	1273,84
271,51	1271,79
271,73	1204,21
271,95	1300,46
272,16	1316,84
272,38	1193,97
272,59	1273,84
272,81	1290,22
273,02	1331,18
273,24	1339,37
273,46	1249,26
273,67	1310,70
273,89	1320,94
274,10	1288,17
274,32	1236,97
274,54	1257,45
274,75	1224,69
274,97	1322,99
275,18	1282,03
275,40	1279,98
275,61	1308,65
275,83	1265,64
276,05	1269,74
276,26	1335,28
276,48	1239,02
276,69	1267,69
276,91	1282,03
277,12	1267,69
277,34	1310,70
277,55	1216,49
277,77	1290,22
277,99	1210,35
278,20	1253,36
278,42	1277,93
278,63	1310,70
278,85	1269,74
279,06	1259,50
279,28	1282,03
279,49	1316,84
279,71	1318,89
279,93	1249,26
280,14	1322,99
280,36	1331,18
280,57	1218,54
280,79	1306,60
281,00	1212,40
281,22	1279,98
281,43	1230,83
281,65	1327,08
281,86	1345,52
282,08	1320,94
282,29	1288,17
282,51	1304,56
282,73	1269,74
282,94	1318,89
283,16	1314,80
283,37	1296,36
283,59	1208,30
283,80	1249,26
284,02	1302,51
284,23	1292,27
284,45	1302,51
284,66	1210,35
284,88	1275,88
285,09	1306,60
285,31	1165,29
285,52	1279,98
285,74	1341,42
285,95	1279,98
286,17	1271,79
286,38	1318,89
286,60	1322,99
286,81	1296,36
287,03	1273,84
287,24	1294,32
287,46	1255,40
287,67	1257,45
287,89	1206,25
288,10	1239,02
288,32	1249,26
288,53	1261,55
288,75	1316,84
288,96	1277,93
289,18	1310,70
289,39	1341,42
289,61	1257,45
289,82	1245,16
290,04	1222,64
290,25	1282,03
290,47	1273,84
290,68	1271,79
290,90	1288,17
291,11	1191,92
291,33	1245,16
291,54	1261,55
291,76	1243,12
291,97	1308,65
292,18	1230,83
292,40	1290,22
292,61	1236,97
292,83	1282,03
293,04	1232,88
293,26	1263,60
293,47	1300,46
293,69	1255,40
293,90	1355,76
294,12	1265,64
294,33	1294,32
294,55	1320,94
294,76	1273,84
294,97	1271,79
295,19	1265,64
295,40	1277,93
295,62	1343,47
295,83	1257,45
296,05	1296,36
296,26	1224,69
296,48	1325,04
296,69	1277,93
296,90	1290,22
297,12	1239,02
297,33	1263,60
297,55	1302,51
297,76	1257,45
297,98	1329,13
298,19	1273,84
298,41	1265,64
298,62	1290,22
298,83	1312,75
299,05	1279,98
299,26	1226,73
299,48	1216,49
299,69	1181,68
299,90	1263,60
300,12	1198,06
300,33	1253,36
300,55	1265,64
300,76	1314,80
300,98	1312,75
301,19	1331,18
301,40	1306,60
301,62	1288,17
301,83	1353,71
302,05	1318,89
302,26	1329,13
302,47	1335,28
302,69	1230,83
302,90	1294,32
303,12	1234,93
303,33	1277,93
303,54	1316,84
303,76	1288,17
303,97	1308,65
304,19	1296,36
304,40	1347,56
304,61	1306,60
304,83	1298,41
305,04	1306,60
305,26	1255,40
305,47	1273,84
305,68	1193,97
305,90	1277,93
306,11	1355,76
306,33	1318,89
306,54	1290,22
306,75	1265,64
306,97	1292,27
307,18	1273,84
307,39	1245,16
307,61	1275,88
307,82	1288,17
308,04	1206,25
308,25	1331,18
308,46	1271,79
308,68	1212,40
308,89	1288,17
309,10	1251,31
309,32	1253,36
309,53	1253,36
309,74	1263,60
309,96	1208,30
310,17	1314,80
310,39	1310,70
310,60	1269,74
310,81	1220,59
311,03	1273,84
311,24	1271,79
311,45	1253,36
311,67	1206,25
311,88	1226,73
312,09	1257,45
312,31	1316,84
312,52	1286,12
312,73	1288,17
312,95	1351,66
313,16	1222,64
313,37	1249,26
313,59	1304,56
313,80	1234,93
314,01	1314,80
314,23	1322,99
314,44	1259,50
314,65	1333,23
314,87	1273,84
315,08	1228,78
315,29	1232,88
315,51	1261,55
315,72	1312,75
315,93	1243,12
316,15	1216,49
316,36	1302,51
316,57	1325,04
316,79	1206,25
317,00	1269,74
317,21	1243,12
317,43	1290,22
317,64	1251,31
317,85	1361,90
318,07	1290,22
318,28	1314,80
318,49	1284,08
318,70	1357,80
318,92	1263,60
319,13	1306,60
319,34	1232,88
319,56	1390,57
319,77	1234,93
319,98	1247,21
320,20	1306,60
320,41	1241,07
320,62	1322,99
320,83	1265,64
321,05	1294,32
321,26	1247,21
321,47	1210,35
321,69	1345,52
321,90	1343,47
322,11	1249,26
322,32	1271,79
322,54	1271,79
322,75	1251,31
322,96	1288,17
323,18	1253,36
323,39	1232,88
323,60	1292,27
323,81	1312,75
324,03	1347,56
324,24	1329,13
324,45	1368,04
324,66	1310,70
324,88	1189,87
325,09	1208,30
325,30	1337,32
325,52	1275,88
325,73	1304,56
325,94	1308,65
326,15	1255,40
326,37	1206,25
326,58	1302,51
326,79	1386,47
327,00	1286,12
327,22	1232,88
327,43	1239,02
327,64	1265,64
327,85	1312,75
328,07	1249,26
328,28	1265,64
328,49	1239,02
328,70	1275,88
328,92	1288,17
329,13	1320,94
329,34	1232,88
329,55	1304,56
329,76	1261,55
329,98	1236,97
330,19	1253,36
330,40	1261,55
330,61	1337,32
330,83	1277,93
331,04	1314,80
331,25	1263,60
331,46	1253,36
331,68	1304,56
331,89	1310,70
332,10	1339,37
332,31	1251,31
332,52	1292,27
332,74	1230,83
332,95	1202,16
333,16	1251,31
333,37	1286,12
333,58	1253,36
333,80	1308,65
334,01	1296,36
334,22	1366,00
334,43	1300,46
334,64	1271,79
334,86	1236,97
335,07	1312,75
335,28	1255,40
335,49	1310,70
335,70	1314,80
335,92	1355,76
336,13	1320,94
336,34	1261,55
336,55	1339,37
336,76	1249,26
336,98	1351,66
337,19	1236,97
337,40	1198,06
337,61	1357,80
337,82	1255,40
338,04	1243,12
338,25	1259,50
338,46	1243,12
338,67	1241,07
338,88	1277,93
339,09	1288,17
339,31	1247,21
339,52	1249,26
339,73	1259,50
339,94	1249,26
340,15	1208,30
340,36	1300,46
340,58	1339,37
340,79	1294,32
341,00	1259,50
341,21	1189,87
341,42	1275,88
341,63	1288,17
341,85	1249,26
342,06	1368,04
342,27	1224,69
342,48	1327,08
342,69	1245,16
342,90	1300,46
343,12	1290,22
343,33	1269,74
343,54	1288,17
343,75	1333,23
343,96	1239,02
344,17	1286,12
344,38	1316,84
344,60	1282,03
344,81	1226,73
345,02	1282,03
345,23	1296,36
345,44	1279,98
345,65	1253,36
345,86	1353,71
346,07	1316,84
346,29	1230,83
346,50	1185,77
346,71	1312,75
346,92	1329,13
347,13	1271,79
347,34	1251,31
347,55	1306,60
347,76	1216,49
347,98	1277,93
348,19	1224,69
348,40	1241,07
348,61	1361,90
348,82	1353,71
349,03	1312,75
349,24	1284,08
349,45	1312,75
349,66	1292,27
349,88	1288,17
350,09	1327,08
350,30	1150,96
350,51	1271,79
350,72	1243,12
350,93	1261,55
351,14	1302,51
351,35	1230,83
351,56	1304,56
351,77	1308,65
351,99	1302,51
352,20	1282,03
352,41	1286,12
352,62	1255,40
352,83	1282,03
353,04	1265,64
353,25	1279,98
353,46	1263,60
353,67	1206,25
353,88	1243,12
354,09	1284,08
354,30	1263,60
354,52	1314,80
354,73	1282,03
354,94	1232,88
355,15	1300,46
355,36	1396,71
355,57	1247,21
355,78	1263,60
355,99	1298,41
356,20	1271,79
356,41	1290,22
356,62	1200,11
356,83	1259,50
357,04	1296,36
357,25	1279,98
357,46	1259,50
357,68	1298,41
357,89	1253,36
358,10	1134,57
358,31	1302,51
358,52	1327,08
358,73	1245,16
358,94	1304,56
359,15	1277,93
359,36	1314,80
359,57	1224,69
359,78	1183,73
359,99	1247,21
360,20	1290,22
360,41	1275,88
360,62	1341,42
360,83	1292,27
361,04	1236,97
361,25	1279,98
361,46	1288,17
361,67	1243,12
361,88	1320,94
362,09	1318,89
362,30	1257,45
362,51	1275,88
362,72	1282,03
362,93	1300,46
363,14	1228,78
363,35	1222,64
363,56	1302,51
363,78	1288,17
363,99	1253,36
364,20	1284,08
364,41	1208,30
364,62	1306,60
364,83	1220,59
365,04	1277,93
365,25	1298,41
365,46	1277,93
365,67	1271,79
365,88	1282,03
366,09	1271,79
366,30	1314,80
366,51	1269,74
366,72	1277,93
366,93	1314,80
367,14	1292,27
367,35	1357,80
367,56	1259,50
367,77	1329,13
367,98	1232,88
368,18	1269,74
368,39	1253,36
368,60	1275,88
368,81	1296,36
369,02	1247,21
369,23	1308,65
369,44	1273,84
369,65	1232,88
369,86	1271,79
370,07	1304,56
370,28	1271,79
370,49	1345,52
370,70	1275,88
370,91	1339,37
371,12	1286,12
371,33	1247,21
371,54	1239,02
371,75	1241,07
371,96	1300,46
372,17	1265,64
372,38	1282,03
372,59	1282,03
372,80	1370,09
373,01	1269,74
373,22	1263,60
373,43	1302,51
373,64	1232,88
373,85	1316,84
374,06	1277,93
374,26	1310,70
374,47	1241,07
374,68	1312,75
374,89	1312,75
375,10	1230,83
375,31	1312,75
375,52	1265,64
375,73	1265,64
375,94	1179,63
376,15	1327,08
376,36	1310,70
376,57	1314,80
376,78	1292,27
376,99	1232,88
377,20	1247,21
377,40	1308,65
377,61	1142,77
377,82	1236,97
378,03	1224,69
378,24	1306,60
378,45	1349,61
378,66	1382,38
378,87	1222,64
379,08	1216,49
379,29	1298,41
379,50	1263,60
379,71	1284,08
379,91	1331,18
380,12	1314,80
380,33	1267,69
380,54	1267,69
380,75	1302,51
380,96	1327,08
381,17	1327,08
381,38	1314,80
381,59	1259,50
381,80	1302,51
382,00	1273,84
382,21	1214,45
382,42	1314,80
382,63	1243,12
382,84	1282,03
383,05	1312,75
383,26	1325,04
383,47	1320,94
383,68	1249,26
383,88	1255,40
384,09	1263,60
384,30	1308,65
384,51	1286,12
384,72	1253,36
384,93	1284,08
385,14	1288,17
385,35	1292,27
385,55	1255,40
385,76	1220,59
385,97	1232,88
386,18	1279,98
386,39	1308,65
386,60	1239,02
386,81	1345,52
387,02	1308,65
387,22	1296,36
387,43	1232,88
387,64	1286,12
387,85	1247,21
388,06	1224,69
388,27	1296,36
388,48	1232,88
388,68	1304,56
388,89	1263,60
389,10	1271,79
389,31	1310,70
389,52	1243,12
389,73	1228,78
389,93	1271,79
390,14	1308,65
390,35	1275,88
390,56	1253,36
390,77	1273,84
390,98	1286,12
391,18	1261,55
391,39	1222,64
391,60	1310,70
391,81	1314,80
392,02	1306,60
392,23	1251,31
392,43	1327,08
392,64	1251,31
392,85	1159,15
393,06	1288,17
393,27	1249,26
393,47	1263,60
393,68	1261,55
393,89	1271,79
394,10	1249,26
394,31	1257,45
394,52	1230,83
394,72	1210,35
394,93	1265,64
395,14	1306,60
395,35	1325,04
395,56	1263,60
395,76	1255,40
395,97	1259,50
396,18	1249,26
396,39	1314,80
396,60	1193,97
396,80	1306,60
397,01	1263,60
397,22	1259,50
397,43	1251,31
397,64	1253,36
397,84	1390,57
398,05	1255,40
398,26	1359,85
398,47	1247,21
398,67	1234,93
398,88	1224,69
399,09	1230,83
399,30	1302,51
399,51	1308,65
399,71	1245,16
399,92	1296,36
400,13	1310,70
400,34	1314,80
400,54	1247,21
400,75	1277,93
400,96	1187,82
401,17	1304,56
401,37	1296,36
401,58	1216,49
401,79	1253,36
402,00	1265,64
402,21	1302,51
402,41	1331,18
402,62	1269,74
402,83	1300,46
403,04	1234,93
403,24	1290,22
403,45	1257,45
403,66	1232,88
403,87	1310,70
404,07	1327,08
404,28	1314,80
404,49	1277,93
404,70	1290,22
404,90	1320,94
405,11	1263,60
405,32	1259,50
405,52	1277,93
405,73	1314,80
405,94	1269,74
406,15	1312,75
406,35	1277,93
406,56	1265,64
406,77	1245,16
406,98	1290,22
407,18	1241,07
407,39	1296,36
407,60	1290,22
407,80	1243,12
408,01	1271,79
408,22	1261,55
408,43	1208,30
408,63	1279,98
408,84	1232,88
409,05	1279,98
409,25	1236,97
409,46	1241,07
409,67	1210,35
409,88	1267,69
410,08	1251,31
410,29	1208,30
410,50	1239,02
410,70	1222,64
410,91	1243,12
411,12	1269,74
411,32	1277,93
411,53	1312,75
411,74	1329,13
411,95	1296,36
412,15	1316,84
412,36	1273,84
412,57	1251,31
412,77	1279,98
412,98	1294,32
413,19	1271,79
413,39	1355,76
413,60	1271,79
413,81	1300,46
414,01	1306,60
414,22	1218,54
414,43	1304,56
414,63	1226,73
414,84	1298,41
415,05	1243,12
415,25	1255,40
415,46	1306,60
415,67	1294,32
415,87	1298,41
416,08	1298,41
416,29	1216,49
416,49	1304,56
416,70	1232,88
416,91	1288,17
417,11	1265,64
417,32	1286,12
417,53	1294,32
417,73	1267,69
417,94	1300,46
418,15	1263,60
418,35	1224,69
418,56	1265,64
418,77	1335,28
418,97	1241,07
419,18	1273,84
419,38	1247,21
419,59	1292,27
419,80	1339,37
420,00	1269,74
420,21	1263,60
420,42	1273,84
420,62	1273,84
420,83	1243,12
421,04	1320,94
421,24	1298,41
421,45	1232,88
421,65	1318,89
421,86	1239,02
422,07	1193,97
422,27	1249,26
422,48	1271,79
422,69	1251,31
422,89	1284,08
423,10	1292,27
423,30	1267,69
423,51	1241,07
423,72	1277,93
423,92	1251,31
424,13	1218,54
424,33	1259,50
424,54	1343,47
424,75	1261,55
424,95	1253,36
425,16	1282,03
425,36	1226,73
425,57	1255,40
425,78	1282,03
425,98	1271,79
426,19	1296,36
426,39	1347,56
426,60	1253,36
426,81	1296,36
427,01	1314,80
427,22	1312,75
427,42	1294,32
427,63	1306,60
427,83	1288,17
428,04	1269,74
428,25	1361,90
428,45	1335,28
428,66	1267,69
428,86	1196,01
429,07	1275,88
429,28	1351,66
429,48	1261,55
429,69	1239,02
429,89	1302,51
430,10	1167,34
430,30	1273,84
430,51	1255,40
430,71	1302,51
430,92	1284,08
431,13	1249,26
431,33	1275,88
431,54	1331,18
431,74	1185,77
431,95	1189,87
432,15	1206,25
432,36	1265,64
432,56	1318,89
432,77	1277,93
432,98	1218,54
433,18	1298,41
433,39	1269,74
433,59	1286,12
433,80	1228,78
434,00	1271,79
434,21	1318,89
434,41	1239,02
434,62	1236,97
434,82	1273,84
435,03	1228,78
435,23	1353,71
435,44	1273,84
435,64	1279,98
435,85	1230,83
436,06	1263,60
436,26	1269,74
436,47	1288,17
436,67	1335,28
436,88	1226,73
437,08	1298,41
437,29	1331,18
437,49	1271,79
437,70	1251,31
437,90	1255,40
438,11	1269,74
438,31	1232,88
438,52	1253,36
438,72	1275,88
438,93	1290,22
439,13	1292,27
439,34	1286,12
439,54	1331,18
439,75	1337,32
439,95	1290,22
440,16	1232,88
440,36	1286,12
440,57	1298,41
440,77	1277,93
440,98	1320,94
441,18	1255,40
441,39	1361,90
441,59	1294,32
441,80	1261,55
442,00	1253,36
442,21	1249,26
442,41	1279,98
442,62	1212,40
442,82	1265,64
443,02	1288,17
443,23	1306,60
443,43	1310,70
443,64	1273,84
443,84	1239,02
444,05	1329,13
444,25	1271,79
444,46	1251,31
444,66	1263,60
444,87	1351,66
445,07	1312,75
445,28	1320,94
445,48	1265,64
445,69	1329,13
445,89	1300,46
446,09	1353,71
446,30	1218,54
446,50	1243,12
446,71	1269,74
446,91	1267,69
447,12	1267,69
447,32	1290,22
447,53	1294,32
447,73	1290,22
447,93	1329,13
448,14	1251,31
448,34	1255,40
448,55	1279,98
448,75	1294,32
448,96	1249,26
449,16	1312,75
449,36	1220,59
449,57	1277,93
449,77	1300,46
449,98	1261,55
450,18	1300,46
450,39	1325,04
450,59	1314,80
450,79	1349,61
451,00	1239,02
451,20	1341,42
451,41	1277,93
451,61	1279,98
451,81	1306,60
452,02	1265,64
452,22	1294,32
452,43	1284,08
452,63	1216,49
452,84	1243,12
453,04	1265,64
453,24	1300,46
453,45	1259,50
453,65	1269,74
453,86	1312,75
454,06	1271,79
454,26	1320,94
454,47	1210,35
454,67	1300,46
454,87	1333,23
455,08	1253,36
455,28	1230,83
455,49	1314,80
455,69	1247,21
455,89	1320,94
456,10	1220,59
456,30	1314,80
456,51	1335,28
456,71	1302,51
456,91	1286,12
457,12	1275,88
457,32	1310,70
457,52	1265,64
457,73	1306,60
457,93	1279,98
458,14	1306,60
458,34	1304,56
458,54	1253,36
458,75	1298,41
458,95	1277,93
459,15	1245,16
459,36	1320,94
459,56	1204,21
459,76	1255,40
459,97	1320,94
460,17	1249,26
460,37	1267,69
460,58	1341,42
460,78	1232,88
460,99	1343,47
461,19	1241,07
461,39	1300,46
461,60	1243,12
461,80	1247,21
462,00	1296,36
462,21	1263,60
462,41	1222,64
462,61	1222,64
462,82	1300,46
463,02	1314,80
463,22	1226,73
463,43	1288,17
463,63	1347,56
463,83	1277,93
464,04	1265,64
464,24	1247,21
464,44	1275,88
464,64	1279,98
464,85	1284,08
465,05	1337,32
465,25	1230,83
465,46	1257,45
465,66	1222,64
465,86	1296,36
466,07	1273,84
466,27	1322,99
466,47	1259,50
466,68	1286,12
466,88	1271,79
467,08	1269,74
467,29	1251,31
467,49	1206,25
467,69	1245,16
467,89	1284,08
468,10	1234,93
468,30	1322,99
468,50	1277,93
468,71	1347,56
468,91	1294,32
469,11	1265,64
469,31	1236,97
469,52	1222,64
469,72	1277,93
469,92	1286,12
470,13	1292,27
470,33	1271,79
470,53	1269,74
470,73	1282,03
470,94	1325,04
471,14	1218,54
471,34	1267,69
471,54	1271,79
471,75	1251,31
471,95	1312,75
472,15	1320,94
472,36	1300,46
472,56	1304,56
472,76	1284,08
472,96	1241,07
473,17	1230,83
473,37	1265,64
473,57	1218,54
473,77	1216,49
473,98	1214,45
474,18	1366,00
474,38	1337,32
474,58	1247,21
474,79	1255,40
474,99	1236,97
475,19	1259,50
475,39	1247,21
475,60	1322,99
475,80	1288,17
476,00	1259,50
476,20	1298,41
476,41	1267,69
476,61	1245,16
476,81	1349,61
477,01	1322,99
477,21	1271,79
477,42	1263,60
477,62	1361,90
477,82	1351,66
478,02	1279,98
478,23	1320,94
478,43	1351,66
478,63	1308,65
478,83	1267,69
479,03	1290,22
479,24	1320,94
479,44	1267,69
479,64	1216,49
479,84	1263,60
480,04	1275,88
480,25	1288,17
480,45	1245,16
480,65	1282,03
480,85	1261,55
481,06	1261,55
481,26	1220,59
481,46	1216,49
481,66	1322,99
481,86	1271,79
482,06	1318,89
482,27	1259,50
482,47	1218,54
482,67	1265,64
482,87	1275,88
483,07	1261,55
483,28	1241,07
483,48	1306,60
483,68	1288,17
483,88	1275,88
484,08	1308,65
484,29	1269,74
484,49	1269,74
484,69	1232,88
484,89	1263,60
485,09	1325,04
485,29	1337,32
485,50	1353,71
485,70	1228,78
485,90	1224,69
486,10	1322,99
486,30	1284,08
486,50	1247,21
486,71	1310,70
486,91	1249,26
487,11	1333,23
487,31	1243,12
487,51	1282,03
487,71	1263,60
487,91	1279,98
488,12	1282,03
488,32	1284,08
488,52	1261,55
488,72	1273,84
488,92	1288,17
489,12	1318,89
489,32	1333,23
489,53	1288,17
489,73	1230,83
489,93	1329,13
490,13	1314,80
490,33	1288,17
490,53	1277,93
490,73	1271,79
490,94	1279,98
491,14	1279,98
491,34	1251,31
491,54	1331,18
491,74	1249,26
491,94	1288,17
492,14	1314,80
492,34	1279,98
492,54	1277,93
492,75	1353,71
492,95	1306,60
493,15	1296,36
493,35	1288,17
493,55	1292,27
493,75	1271,79
493,95	1329,13
494,15	1255,40
494,35	1216,49
494,56	1304,56
494,76	1288,17
494,96	1253,36
495,16	1259,50
495,36	1290,22
495,56	1269,74
495,76	1310,70
495,96	1212,40
496,16	1228,78
496,36	1298,41
496,56	1269,74
496,77	1345,52
496,97	1337,32
497,17	1279,98
497,37	1239,02
497,57	1296,36
497,77	1294,32
497,97	1218,54
498,17	1290,22
498,37	1331,18
498,57	1230,83
498,77	1304,56
498,97	1253,36
499,17	1259,50
499,38	1267,69
499,58	1339,37
499,78	1273,84
499,98	1294,32
500,18	1357,80
500,38	1273,84
500,58	1265,64
500,78	1214,45
500,98	1261,55
501,18	1228,78
501,38	1265,64
501,58	1349,61
501,78	1327,08
501,98	1279,98
502,18	1302,51
502,38	1312,75
502,58	1284,08
502,78	1204,21
502,98	1261,55
503,18	1304,56
503,38	1296,36
503,59	1294,32
503,79	1277,93
503,99	1251,31
504,19	1230,83
504,39	1263,60
504,59	1366,00
504,79	1234,93
504,99	1257,45
505,19	1220,59
505,39	1232,88
505,59	1269,74
505,79	1224,69
505,99	1308,65
506,19	1275,88
506,39	1253,36
506,59	1314,80
506,79	1189,87
506,99	1200,11
507,19	1222,64
507,39	1380,33
507,59	1196,01
507,79	1329,13
507,99	1298,41
508,19	1259,50
508,39	1290,22
508,59	1255,40
508,79	1214,45
508,99	1265,64
509,19	1273,84
509,39	1265,64
509,59	1339,37
509,79	1230,83
509,99	1279,98
510,19	1263,60
510,39	1222,64
510,59	1234,93
510,79	1339,37
510,99	1290,22
511,19	1265,64
511,39	1212,40
511,59	1298,41
511,79	1275,88
511,99	1267,69
512,19	1341,42
512,38	1308,65
512,58	1308,65
512,78	1316,84
512,98	1232,88
513,18	1232,88
513,38	1288,17
513,58	1271,79
513,78	1226,73
513,98	1286,12
514,18	1302,51
514,38	1298,41
514,58	1204,21
514,78	1290,22
514,98	1261,55
515,18	1236,97
515,38	1214,45
515,58	1232,88
515,78	1269,74
515,98	1269,74
516,18	1282,03
516,38	1306,60
516,57	1259,50
516,77	1294,32
516,97	1273,84
517,17	1249,26
517,37	1282,03
517,57	1279,98
517,77	1253,36
517,97	1224,69
518,17	1224,69
518,37	1273,84
518,57	1298,41
518,77	1359,85
518,97	1294,32
519,16	1282,03
519,36	1290,22
519,56	1255,40
519,76	1255,40
519,96	1318,89
520,16	1294,32
520,36	1257,45
520,56	1239,02
520,76	1372,14
520,96	1236,97
521,16	1288,17
521,35	1273,84
521,55	1282,03
521,75	1290,22
521,95	1343,47
522,15	1288,17
522,35	1263,60
522,55	1316,84
522,75	1249,26
522,95	1304,56
523,14	1265,64
523,34	1273,84
523,54	1249,26
523,74	1341,42
523,94	1294,32
524,14	1257,45
524,34	1269,74
524,54	1290,22
524,73	1232,88
524,93	1296,36
525,13	1249,26
525,33	1284,08
525,53	1249,26
525,73	1374,19
525,93	1259,50
526,13	1273,84
526,32	1232,88
526,52	1343,47
526,72	1243,12
526,92	1257,45
527,12	1269,74
527,32	1306,60
527,52	1318,89
527,71	1239,02
527,91	1329,13
528,11	1290,22
528,31	1271,79
528,51	1253,36
528,71	1232,88
528,90	1257,45
529,10	1312,75
529,30	1224,69
529,50	1232,88
529,70	1226,73
529,90	1304,56
530,09	1267,69
530,29	1259,50
530,49	1245,16
530,69	1232,88
530,89	1257,45
531,09	1226,73
531,28	1275,88
531,48	1241,07
531,68	1255,40
531,88	1306,60
532,08	1239,02
532,28	1279,98
532,47	1302,51
532,67	1292,27
532,87	1331,18
533,07	1273,84
533,27	1251,31
533,46	1314,80
533,66	1273,84
533,86	1267,69
534,06	1232,88
534,26	1232,88
534,45	1243,12
534,65	1292,27
534,85	1249,26
535,05	1288,17
535,25	1257,45
535,44	1306,60
535,64	1271,79
535,84	1329,13
536,04	1320,94
536,24	1263,60
536,43	1265,64
536,63	1263,60
536,83	1263,60
537,03	1275,88
537,22	1277,93
537,42	1284,08
537,62	1320,94
537,82	1294,32
538,02	1331,18
538,21	1263,60
538,41	1337,32
538,61	1308,65
538,81	1273,84
539,00	1284,08
539,20	1292,27
539,40	1234,93
539,60	1333,23
539,79	1251,31
539,99	1267,69
540,19	1226,73
540,39	1277,93
540,58	1320,94
540,78	1298,41
540,98	1222,64
541,18	1345,52
541,37	1302,51
541,57	1279,98
541,77	1304,56
541,97	1255,40
542,16	1245,16
542,36	1218,54
542,56	1259,50
542,76	1253,36
542,95	1318,89
543,15	1337,32
543,35	1292,27
543,54	1298,41
543,74	1296,36
543,94	1263,60
544,14	1247,21
544,33	1288,17
544,53	1296,36
544,73	1253,36
544,93	1265,64
545,12	1220,59
545,32	1275,88
545,52	1181,68
545,71	1296,36
545,91	1296,36
546,11	1361,90
546,30	1304,56
546,50	1333,23
546,70	1312,75
546,90	1347,56
547,09	1265,64
547,29	1318,89
547,49	1273,84
547,68	1300,46
547,88	1257,45
548,08	1263,60
548,27	1322,99
548,47	1318,89
548,67	1243,12
548,87	1239,02
549,06	1261,55
549,26	1241,07
549,46	1271,79
549,65	1259,50
549,85	1226,73
550,05	1265,64
550,24	1265,64
550,44	1257,45
550,64	1347,56
550,83	1314,80
551,03	1327,08
551,23	1290,22
551,42	1214,45
551,62	1263,60
551,82	1261,55
552,01	1232,88
552,21	1261,55
552,41	1239,02
552,60	1296,36
552,80	1236,97
553,00	1196,01
553,19	1277,93
553,39	1224,69
553,59	1325,04
553,78	1249,26
553,98	1249,26
554,17	1296,36
554,37	1239,02
554,57	1288,17
554,76	1286,12
554,96	1196,01
555,16	1247,21
555,35	1292,27
555,55	1273,84
555,75	1286,12
555,94	1296,36
556,14	1259,50
556,33	1189,87
556,53	1300,46
556,73	1286,12
556,92	1247,21
557,12	1273,84
557,32	1224,69
557,51	1271,79
557,71	1234,93
557,90	1257,45
558,10	1204,21
558,30	1378,28
558,49	1277,93
558,69	1232,88
558,88	1306,60
559,08	1331,18
559,28	1241,07
559,47	1251,31
559,67	1318,89
559,86	1255,40
560,06	1271,79
560,26	1279,98
560,45	1279,98
560,65	1245,16
560,84	1249,26
561,04	1333,23
561,24	1322,99
561,43	1257,45
561,63	1273,84
561,82	1251,31
562,02	1263,60
562,22	1304,56
562,41	1259,50
562,61	1325,04
562,80	1292,27
563,00	1294,32
563,19	1236,97
563,39	1259,50
563,59	1286,12
563,78	1273,84
563,98	1300,46
564,17	1198,06
564,37	1236,97
564,56	1253,36
564,76	1282,03
564,96	1275,88
565,15	1275,88
565,35	1279,98
565,54	1296,36
565,74	1253,36
565,93	1269,74
566,13	1232,88
566,32	1255,40
566,52	1273,84
566,71	1224,69
566,91	1247,21
567,11	1214,45
567,30	1312,75
567,50	1247,21
567,69	1296,36
567,89	1220,59
568,08	1228,78
568,28	1247,21
568,47	1329,13
568,67	1322,99
568,86	1245,16
569,06	1243,12
569,25	1263,60
569,45	1318,89
569,64	1259,50
569,84	1316,84
570,04	1245,16
570,23	1292,27
570,43	1239,02
570,62	1286,12
570,82	1249,26
571,01	1314,80
571,21	1277,93
571,40	1245,16
571,60	1232,88
571,79	1269,74
571,99	1351,66
572,18	1263,60
572,38	1267,69
572,57	1210,35
572,77	1296,36
572,96	1249,26
573,16	1318,89
573,35	1288,17
573,55	1241,07
573,74	1277,93
573,94	1271,79
574,13	1269,74
574,33	1296,36
574,52	1243,12
574,71	1271,79
574,91	1253,36
575,10	1273,84
575,30	1312,75
575,49	1294,32
575,69	1265,64
575,88	1267,69
576,08	1368,04
576,27	1271,79
576,47	1329,13
576,66	1306,60
576,86	1247,21
577,05	1208,30
577,25	1265,64
577,44	1314,80
577,64	1368,04
577,83	1298,41
578,02	1286,12
578,22	1296,36
578,41	1261,55
578,61	1378,28
578,80	1298,41
579,00	1298,41
579,19	1265,64
579,39	1314,80
579,58	1241,07
579,77	1277,93
579,97	1302,51
580,16	1275,88
580,36	1337,32
580,55	1247,21
580,75	1267,69
580,94	1284,08
581,13	1314,80
581,33	1318,89
581,52	1288,17
581,72	1359,85
581,91	1267,69
582,11	1310,70
582,30	1230,83
582,49	1306,60
582,69	1255,40
582,88	1271,79
583,08	1300,46
583,27	1273,84
583,47	1277,93
583,66	1286,12
583,85	1310,70
584,05	1290,22
584,24	1277,93
584,44	1277,93
584,63	1263,60
584,82	1263,60
585,02	1228,78
585,21	1259,50
585,41	1302,51
585,60	1212,40
585,79	1210,35
585,99	1304,56
586,18	1265,64
586,37	1251,31
586,57	1269,74
586,76	1310,70
586,96	1243,12
587,15	1318,89
587,34	1290,22
587,54	1322,99
587,73	1288,17
587,93	1253,36
588,12	1243,12
588,31	1286,12
588,51	1243,12
588,70	1273,84
588,89	1296,36
589,09	1253,36
589,28	1245,16
589,47	1232,88
589,67	1265,64
589,86	1261,55
590,06	1306,60
590,25	1247,21
590,44	1279,98
590,64	1320,94
590,83	1273,84
591,02	1300,46
591,22	1224,69
591,41	1259,50
591,60	1249,26
591,80	1333,23
591,99	1359,85
592,18	1220,59
592,38	1261,55
592,57	1263,60
592,76	1343,47
592,96	1306,60
593,15	1228,78
593,34	1261,55
593,54	1228,78
593,73	1236,97
593,92	1224,69
594,12	1230,83
594,31	1284,08
594,50	1261,55
594,70	1345,52
594,89	1312,75
595,08	1232,88
595,28	1243,12
595,47	1300,46
595,66	1306,60
595,86	1277,93
596,05	1265,64
596,24	1228,78
596,43	1294,32
596,63	1251,31
596,82	1241,07
597,01	1363,95
597,21	1286,12
597,40	1322,99
597,59	1245,16
597,79	1232,88
597,98	1318,89
598,17	1312,75
598,36	1255,40
598,56	1261,55
598,75	1275,88
598,94	1247,21
599,14	1282,03
599,33	1243,12
599,52	1191,92
599,71	1255,40
599,91	1298,41
600,10	1322,99
600,29	1273,84
600,48	1286,12
600,68	1300,46
600,87	1312,75
601,06	1269,74
601,26	1292,27
601,45	1241,07
601,64	1304,56
601,83	1226,73
602,03	1255,40
602,22	1241,07
602,41	1228,78
602,60	1318,89
602,80	1343,47
602,99	1241,07
603,18	1320,94
603,37	1243,12
603,57	1232,88
603,76	1306,60
603,95	1327,08
604,14	1320,94
604,34	1277,93
604,53	1314,80
604,72	1216,49
604,91	1359,85
605,10	1331,18
605,30	1265,64
605,49	1316,84
605,68	1232,88
605,87	1259,50
606,07	1249,26
606,26	1298,41
606,45	1345,52
606,64	1255,40
606,84	1234,93
607,03	1286,12
607,22	1277,93
607,41	1288,17
607,60	1277,93
607,80	1320,94
607,99	1251,31
608,18	1245,16
608,37	1302,51
608,56	1277,93
608,76	1251,31
608,95	1187,82
609,14	1263,60
609,33	1275,88
609,52	1249,26
609,72	1284,08
609,91	1282,03
610,10	1273,84
610,29	1273,84
610,48	1318,89
610,68	1263,60
610,87	1304,56
611,06	1261,55
611,25	1247,21
611,44	1325,04
611,63	1298,41
611,83	1308,65
612,02	1271,79
612,21	1241,07
612,40	1312,75
612,59	1259,50
612,79	1214,45
612,98	1245,16
613,17	1249,26
613,36	1286,12
613,55	1304,56
613,74	1234,93
613,93	1251,31
614,13	1282,03
614,32	1255,40
614,51	1314,80
614,70	1304,56
614,89	1345,52
615,08	1273,84
615,28	1271,79
615,47	1292,27
615,66	1314,80
615,85	1265,64
616,04	1222,64
616,23	1261,55
616,42	1224,69
616,62	1304,56
616,81	1263,60
617,00	1294,32
617,19	1261,55
617,38	1232,88
617,57	1380,33
617,76	1292,27
617,95	1263,60
618,15	1322,99
618,34	1249,26
618,53	1353,71
618,72	1245,16
618,91	1288,17
619,10	1290,22
619,29	1220,59
619,48	1273,84
619,68	1355,76
619,87	1239,02
620,06	1232,88
620,25	1277,93
620,44	1183,73
620,63	1279,98
620,82	1277,93
621,01	1245,16
621,20	1312,75
621,39	1290,22
621,59	1296,36
621,78	1228,78
621,97	1247,21
622,16	1310,70
622,35	1243,12
622,54	1331,18
622,73	1279,98
622,92	1220,59
623,11	1267,69
623,30	1247,21
623,49	1273,84
623,68	1271,79
623,88	1269,74
624,07	1255,40
624,26	1255,40
624,45	1302,51
624,64	1259,50
624,83	1329,13
625,02	1290,22
625,21	1269,74
625,40	1312,75
625,59	1277,93
625,78	1302,51
625,97	1341,42
626,16	1347,56
626,35	1286,12
626,54	1275,88
626,74	1335,28
626,93	1236,97
627,12	1255,40
627,31	1294,32
627,50	1304,56
627,69	1341,42
627,88	1286,12
628,07	1271,79
628,26	1327,08
628,45	1253,36
628,64	1251,31
628,83	1331,18
629,02	1232,88
629,21	1286,12
629,40	1296,36
629,59	1243,12
629,78	1288,17
629,97	1335,28
630,16	1337,32
630,35	1269,74
630,54	1372,14
630,73	1296,36
630,92	1382,38
631,11	1378,28
631,30	1345,52
631,49	1363,95
631,68	1748,97
631,87	2934,74
632,06	7292,82
632,25	7882,63
632,44	14182,18
632,63	19896,02
632,82	32028,18
633,01	59989,10
633,20	62882,88
633,39	43064,69
633,58	20817,60
633,77	9588,59
633,96	6229,92
634,15	5363,63
634,34	3397,58
634,53	2254,81
634,72	1890,28
634,91	1556,46
635,10	1626,09
635,29	1689,57
635,48	1519,59
635,67	1513,45
635,86	1388,52
636,05	1501,16
636,24	1392,62
636,43	1396,71
636,62	1370,09
636,81	1351,66
637,00	1339,37
637,19	1300,46
637,38	1339,37
637,57	1361,90
637,76	1357,80
637,95	1271,79
638,14	1253,36
638,33	1312,75
638,52	1378,28
638,71	1255,40
638,89	1224,69
639,08	1290,22
639,27	1259,50
639,46	1269,74
639,65	1290,22
639,84	1234,93
640,03	1312,75
640,22	1241,07
640,41	1357,80
640,60	1320,94
640,79	1316,84
640,98	1277,93
641,17	1269,74
641,36	1255,40
641,55	1310,70
641,74	1253,36
641,92	1345,52
642,11	1247,21
642,30	1286,12
642,49	1290,22
642,68	1288,17
642,87	1284,08
643,06	1261,55
643,25	1292,27
643,44	1368,04
643,63	1261,55
643,82	1265,64
644,00	1273,84
644,19	1259,50
644,38	1282,03
644,57	1306,60
644,76	1304,56
644,95	1292,27
645,14	1284,08
645,33	1263,60
645,52	1282,03
645,71	1329,13
645,89	1279,98
646,08	1294,32
646,27	1275,88
646,46	1335,28
646,65	1292,27
646,84	1275,88
647,03	1302,51
647,22	1306,60
647,40	1269,74
647,59	1257,45
647,78	1290,22
647,97	1228,78
648,16	1279,98
648,35	1249,26
648,54	1273,84
648,73	1292,27
648,91	1355,76
649,10	1333,23
649,29	1304,56
649,48	1273,84
649,67	1290,22
649,86	1296,36
650,05	1251,31
650,23	1318,89
650,42	1349,61
650,61	1249,26
650,80	1210,35
650,99	1261,55
651,18	1257,45
651,36	1255,40
651,55	1279,98
651,74	1294,32
651,93	1271,79
652,12	1208,30
652,31	1255,40
652,49	1255,40
652,68	1232,88
652,87	1245,16
653,06	1316,84
653,25	1302,51
653,44	1290,22
653,62	1314,80
653,81	1322,99
654,00	1271,79
654,19	1259,50
654,38	1224,69
654,56	1208,30
654,75	1322,99
654,94	1273,84
655,13	1286,12
655,32	1259,50
655,51	1304,56
655,69	1374,19
655,88	1376,24
656,07	1273,84
656,26	1218,54
656,45	1230,83
656,63	1308,65
656,82	1310,70
657,01	1228,78
657,20	1257,45
657,38	1310,70
657,57	1265,64
657,76	1263,60
657,95	1316,84
658,14	1279,98
658,32	1292,27
658,51	1318,89
658,70	1302,51
658,89	1277,93
659,08	1347,56
659,26	1320,94
659,45	1214,45
659,64	1239,02
659,83	1310,70
660,01	1286,12
660,20	1263,60
660,39	1253,36
660,58	1290,22
660,76	1263,60
660,95	1273,84
661,14	1284,08
661,33	1384,43
661,51	1232,88
661,70	1218,54
661,89	1232,88
662,08	1296,36
662,26	1269,74
662,45	1196,01
662,64	1359,85
662,83	1253,36
663,01	1245,16
663,20	1259,50
663,39	1304,56
663,58	1320,94
663,76	1247,21
663,95	1245,16
664,14	1284,08
664,32	1279,98
664,51	1187,82
664,70	1243,12
664,89	1343,47
665,07	1259,50
665,26	1259,50
665,45	1265,64
665,64	1318,89
665,82	1294,32
666,01	1282,03
666,20	1302,51
666,38	1279,98
666,57	1228,78
666,76	1347,56
666,95	1300,46
667,13	1216,49
667,32	1251,31
667,51	1308,65
667,69	1277,93
667,88	1339,37
668,07	1257,45
668,25	1232,88
668,44	1243,12
668,63	1222,64
668,81	1230,83
669,00	1294,32
669,19	1370,09
669,38	1304,56
669,56	1269,74
669,75	1279,98
669,94	1259,50
670,12	1251,31
670,31	1265,64
670,50	1312,75
670,68	1224,69
670,87	1216,49
671,06	1298,41
671,24	1277,93
671,43	1230,83
671,62	1273,84
671,80	1298,41
671,99	1308,65
672,18	1249,26
672,36	1361,90
672,55	1277,93
672,74	1253,36
672,92	1288,17
673,11	1282,03
673,29	1294,32
673,48	1337,32
673,67	1257,45
673,85	1300,46
674,04	1300,46
674,23	1331,18
674,41	1271,79
674,60	1269,74
674,79	1290,22
674,97	1302,51
675,16	1314,80
675,34	1255,40
675,53	1255,40
675,72	1292,27
675,90	1284,08
676,09	1273,84
676,28	1312,75
676,46	1314,80
676,65	1177,58
676,83	1251,31
677,02	1273,84
677,21	1255,40
677,39	1236,97
677,58	1206,25
677,77	1306,60
677,95	1322,99
678,14	1265,64
678,32	1230,83
678,51	1279,98
678,70	1273,84
678,88	1239,02
679,07	1265,64
679,25	1286,12
679,44	1366,00
679,63	1282,03
679,81	1286,12
680,00	1279,98
680,18	1255,40
680,37	1277,93
680,55	1247,21
680,74	1302,51
680,93	1251,31
681,11	1288,17
681,30	1343,47
681,48	1179,63
681,67	1347,56
681,85	1189,87
682,04	1247,21
682,23	1318,89
682,41	1292,27
682,60	1224,69
682,78	1325,04
682,97	1230,83
683,15	1263,60
683,34	1363,95
683,53	1239,02
683,71	1349,61
683,90	1312,75
684,08	1292,27
684,27	1318,89
684,45	1265,64
684,64	1263,60
684,82	1273,84
685,01	1288,17
685,19	1253,36
685,38	1279,98
685,57	1298,41
685,75	1292,27
685,94	1239,02
686,12	1298,41
686,31	1314,80
686,49	1333,23
686,68	1351,66
686,86	1298,41
687,05	1290,22
687,23	1243,12
687,42	1341,42
687,60	1228,78
687,79	1331,18
687,97	1355,76
688,16	1265,64
688,34	1329,13
688,53	1298,41
688,71	1279,98
688,90	1214,45
689,08	1286,12
689,27	1259,50
689,45	1253,36
689,64	1263,60
689,82	1271,79
690,01	1249,26
690,19	1245,16
690,38	1304,56
690,56	1292,27
690,75	1337,32
690,93	1226,73
691,12	1267,69
691,30	1265,64
691,49	1204,21
691,67	1277,93
691,86	1308,65
692,04	1196,01
692,23	1214,45
692,41	1191,92
692,60	1275,88
692,78	1310,70
692,97	1298,41
693,15	1259,50
693,34	1355,76
693,52	1265,64
693,71	1198,06
693,89	1247,21
694,08	1286,12
694,26	1259,50
694,44	1259,50
694,63	1282,03
694,81	1249,26
695,00	1282,03
695,18	1251,31
695,37	1300,46
695,55	1292,27
695,74	1214,45
695,92	1261,55
696,10	1228,78
696,29	1265,64
696,47	1343,47
696,66	1302,51
696,84	1232,88
697,03	1314,80
697,21	1243,12
697,40	1376,24
697,58	1306,60
697,76	1294,32
697,95	1277,93
698,13	1296,36
698,32	1345,52
698,50	1308,65
698,68	1249,26
698,87	1245,16
699,05	1298,41
699,24	1273,84
699,42	1273,84
699,61	1306,60
699,79	1273,84
699,97	1363,95
700,16	1286,12
700,34	1257,45
700,53	1251,31
700,71	1388,52
700,89	1212,40
701,08	1224,69
701,26	1288,17
701,45	1273,84
701,63	1347,56
701,81	1218,54
702,00	1337,32
702,18	1320,94
702,37	1314,80
702,55	1277,93
702,73	1245,16
702,92	1224,69
703,10	1296,36
703,28	1245,16
703,47	1265,64
703,65	1230,83
703,84	1304,56
704,02	1308,65
704,20	1245,16
704,39	1263,60
704,57	1263,60
704,75	1273,84
704,94	1277,93
705,12	1265,64
705,30	1279,98
705,49	1247,21
705,67	1253,36
705,86	1275,88
706,04	1384,43
706,22	1249,26
706,41	1314,80
706,59	1265,64
706,77	1325,04
706,96	1279,98
707,14	1271,79
707,32	1273,84
707,51	1290,22
707,69	1257,45
707,87	1263,60
708,06	1277,93
708,24	1259,50
708,42	1222,64
708,61	1302,51
708,79	1257,45
708,97	1322,99
709,16	1224,69
709,34	1308,65
709,52	1265,64
709,71	1222,64
709,89	1241,07
710,07	1290,22
710,26	1255,40
710,44	1290,22
710,62	1296,36
710,80	1243,12
710,99	1357,80
711,17	1296,36
711,35	1255,40
711,54	1267,69
711,72	1243,12
711,90	1226,73
712,09	1294,32
712,27	1343,47
712,45	1279,98
712,63	1251,31
712,82	1263,60
713,00	1288,17
713,18	1196,01
713,37	1269,74
713,55	1261,55
713,73	1247,21
713,91	1308,65
714,10	1265,64
714,28	1261,55
714,46	1251,31
714,65	1275,88
714,83	1222,64
715,01	1284,08
715,19	1318,89
715,38	1296,36
715,56	1282,03
715,74	1265,64
715,92	1267,69
716,11	1308,65
716,29	1273,84
716,47	1279,98
716,65	1220,59
716,84	1288,17
717,02	1265,64
717,20	1292,27
717,38	1294,32
717,57	1259,50
717,75	1298,41
717,93	1273,84
718,11	1335,28
718,30	1200,11
718,48	1302,51
718,66	1273,84
718,84	1290,22
719,03	1275,88
719,21	1304,56
719,39	1325,04
719,57	1304,56
719,75	1204,21
719,94	1314,80
720,12	1320,94
720,30	1316,84
720,48	1275,88
720,67	1279,98
720,85	1306,60
721,03	1359,85
721,21	1236,97
721,39	1224,69
721,58	1236,97
721,76	1294,32
721,94	1312,75
722,12	1298,41
722,30	1253,36
722,49	1339,37
722,67	1290,22
722,85	1325,04
723,03	1249,26
723,21	1220,59
723,40	1161,20
723,58	1271,79
723,76	1255,40
723,94	1236,97
724,12	1269,74
724,30	1273,84
724,49	1232,88
724,67	1310,70
724,85	1251,31
725,03	1288,17
725,21	1327,08
725,40	1202,16
725,58	1261,55
725,76	1267,69
725,94	1312,75
726,12	1232,88
726,30	1286,12
726,49	1261,55
726,67	1314,80
726,85	1269,74
727,03	1282,03
727,21	1232,88
727,39	1304,56
727,57	1286,12
727,76	1269,74
727,94	1286,12
728,12	1253,36
728,30	1370,09
728,48	1298,41
728,66	1253,36
728,84	1288,17
729,03	1284,08
729,21	1288,17
729,39	1265,64
729,57	1333,23
729,75	1294,32
729,93	1243,12
730,11	1294,32
730,30	1318,89
730,48	1241,07
730,66	1318,89
730,84	1263,60
731,02	1259,50
731,20	1273,84
731,38	1210,35
731,56	1259,50
731,74	1310,70
731,93	1234,93
732,11	1325,04
732,29	1304,56
732,47	1198,06
732,65	1271,79
732,83	1318,89
733,01	1347,56
733,19	1382,38
733,37	1284,08
733,56	1255,40
733,74	1359,85
733,92	1228,78
734,10	1320,94
734,28	1257,45
734,46	1193,97
734,64	1257,45
734,82	1327,08
735,00	1279,98
735,18	1312,75
735,36	1265,64
735,54	1316,84
735,73	1380,33
735,91	1263,60
736,09	1284,08
736,27	1263,60
736,45	1277,93
736,63	1288,17
736,81	1300,46
736,99	1290,22
737,17	1353,71
737,35	1220,59
737,53	1230,83
737,71	1261,55
737,89	1296,36
738,07	1245,16
738,25	1249,26
738,43	1308,65
738,61	1253,36
738,80	1357,80
738,98	1196,01
739,16	1310,70
739,34	1310,70
739,52	1310,70
739,70	1247,21
739,88	1316,84
740,06	1257,45
740,24	1265,64
740,42	1222,64
740,60	1353,71
740,78	1236,97
740,96	1253,36
741,14	1261,55
741,32	1306,60
741,50	1249,26
741,68	1232,88
741,86	1273,84
742,04	1312,75
742,22	1239,02
742,40	1269,74
742,58	1265,64
742,76	1267,69
742,94	1271,79
743,12	1304,56
743,30	1267,69
743,48	1318,89
743,66	1241,07
743,84	1247,21
744,02	1304,56
744,20	1232,88
744,38	1337,32
744,56	1263,60
744,74	1314,80
744,92	1277,93
745,10	1284,08
745,28	1335,28
745,46	1296,36
745,64	1320,94
745,82	1232,88
746,00	1277,93
746,18	1335,28
746,36	1222,64
746,54	1247,21
746,72	1245,16
746,90	1259,50
747,08	1288,17
747,26	1239,02
747,44	1325,04
747,62	1318,89
747,80	1261,55
747,98	1206,25
748,15	1322,99
748,33	1245,16
748,51	1298,41
748,69	1222,64
748,87	1191,92
749,05	1251,31
749,23	1366,00
749,41	1300,46
749,59	1271,79
749,77	1331,18
749,95	1265,64
750,13	1335,28
750,31	1259,50
750,49	1310,70
750,67	1310,70
750,85	1284,08
751,03	1316,84
751,20	1361,90
751,38	1202,16
751,56	1374,19
751,74	1312,75
751,92	1359,85
752,10	1189,87
752,28	1339,37
752,46	1271,79
752,64	1306,60
752,82	1249,26
753,00	1196,01
753,18	1249,26
753,35	1325,04
753,53	1304,56
753,71	1247,21
753,89	1245,16
754,07	1222,64
754,25	1232,88
754,43	1290,22
754,61	1265,64
754,79	1249,26
754,97	1271,79
755,14	1310,70
755,32	1259,50
755,50	1267,69
755,68	1298,41
755,86	1265,64
756,04	1316,84
756,22	1271,79
756,40	1282,03
756,57	1298,41
756,75	1212,40
756,93	1298,41
757,11	1292,27
757,29	1284,08
757,47	1236,97
757,65	1306,60
757,82	1251,31
758,00	1277,93
758,18	1302,51
758,36	1355,76
758,54	1271,79
758,72	1261,55
758,90	1325,04
759,07	1265,64
759,25	1290,22
759,43	1335,28
759,61	1290,22
759,79	1304,56
759,97	1159,15
760,15	1263,60
760,32	1216,49
760,50	1208,30
760,68	1257,45
760,86	1230,83
761,04	1265,64
761,22	1322,99
761,39	1208,30
761,57	1257,45
761,75	1265,64
761,93	1288,17
762,11	1245,16
762,28	1314,80
762,46	1243,12
762,64	1251,31
762,82	1212,40
763,00	1263,60
763,18	1245,16
763,35	1288,17
763,53	1318,89
763,71	1308,65
763,89	1200,11
764,07	1325,04
764,24	1222,64
764,42	1335,28
764,60	1263,60
764,78	1243,12
764,96	1302,51
765,13	1312,75
765,31	1271,79
765,49	1292,27
765,67	1245,16
765,84	1265,64
766,02	1228,78
766,20	1290,22
766,38	1322,99
766,56	1296,36
766,73	1257,45
766,91	1335,28
767,09	1306,60
767,27	1284,08
767,44	1304,56
767,62	1230,83
767,80	1275,88
767,98	1290,22
768,15	1282,03
768,33	1263,60
768,51	1239,02
768,69	1271,79
768,87	1294,32
769,04	1245,16
769,22	1351,66
769,40	1245,16
769,58	1388,52
769,75	1316,84
769,93	1298,41
770,11	1296,36
770,28	1286,12
770,46	1243,12
770,64	1296,36
770,82	1245,16
770,99	1230,83
771,17	1218,54
771,35	1224,69
771,53	1177,58
771,70	1239,02
771,88	1271,79
772,06	1230,83
772,23	1306,60
772,41	1226,73
772,59	1286,12
772,77	1355,76
772,94	1236,97
773,12	1275,88
773,30	1304,56
773,47	1208,30
773,65	1292,27
773,83	1296,36
774,01	1286,12
774,18	1214,45
774,36	1308,65
774,54	1259,50
774,71	1296,36
774,89	1251,31
775,07	1337,32
775,24	1294,32
775,42	1220,59
775,60	1239,02
775,78	1267,69
775,95	1290,22
776,13	1279,98
776,31	1359,85
776,48	1300,46
776,66	1286,12
776,84	1269,74
777,01	1288,17
777,19	1300,46
777,37	1200,11
777,54	1286,12
777,72	1339,37
777,90	1294,32
778,07	1263,60
778,25	1273,84
778,43	1230,83
778,60	1275,88
778,78	1241,07
778,96	1331,18
779,13	1310,70
779,31	1318,89
779,49	1245,16
779,66	1222,64
779,84	1312,75
780,01	1189,87
780,19	1271,79
780,37	1243,12
780,54	1255,40
780,72	1247,21
780,90	1267,69
781,07	1294,32
781,25	1255,40
781,43	1245,16
781,60	1259,50
781,78	1257,45
781,95	1279,98
782,13	1269,74
782,31	1290,22
782,48	1230,83
782,66	1288,17
782,83	1259,50
783,01	1320,94
783,19	1339,37
783,36	1243,12
783,54	1318,89
783,72	1320,94
783,89	1306,60
784,07	1284,08
784,24	1277,93
784,42	1327,08
784,60	1261,55
784,77	1222,64
784,95	1191,92
785,12	1239,02
785,30	1316,84
785,47	1300,46
785,65	1269,74
785,83	1220,59
786,00	1271,79
786,18	1282,03
786,35	1261,55
786,53	1204,21
786,71	1296,36
786,88	1337,32
787,06	1255,40
787,23	1257,45
787,41	1257,45
787,58	1292,27
787,76	1216,49
787,94	1312,75
788,11	1298,41
788,29	1376,24
788,46	1282,03
788,64	1230,83
788,81	1243,12
788,99	1239,02
789,16	1249,26
789,34	1288,17
789,52	1282,03
789,69	1306,60
789,87	1232,88
790,04	1310,70
790,22	1253,36
790,39	1255,40
790,57	1247,21
790,74	1230,83
790,92	1314,80
791,09	1312,75
791,27	1314,80
791,44	1277,93
791,62	1300,46
791,79	1263,60
791,97	1263,60
792,15	1306,60
792,32	1329,13
792,50	1325,04
792,67	1239,02
792,85	1265,64
793,02	1271,79
793,20	1325,04
793,37	1329,13
793,55	1314,80
793,72	1216,49
793,90	1290,22
794,07	1286,12
794,25	1310,70
794,42	1275,88
794,60	1273,84
794,77	1273,84
794,95	1255,40
795,12	1314,80
795,30	1236,97
795,47	1284,08
795,65	1306,60
795,82	1232,88
796,00	1226,73
796,17	1241,07
796,34	1271,79
796,52	1343,47
796,69	1282,03
796,87	1257,45
797,04	1255,40
797,22	1318,89
797,39	1273,84
797,57	1386,47
797,74	1228,78
797,92	1279,98
798,09	1243,12
798,27	1265,64
798,44	1335,28
798,62	1325,04
798,79	1300,46
798,96	1349,61
799,14	1249,26
799,31	1304,56
799,49	1253,36
799,66	1269,74
799,84	1263,60
800,01	1253,36
800,19	1318,89
800,36	1271,79
800,53	1263,60
800,71	1282,03
800,88	1316,84
801,06	1298,41
801,23	1198,06
801,41	1322,99
801,58	1265,64
801,75	1232,88
801,93	1290,22
802,10	1273,84
802,28	1241,07
802,45	1294,32
802,63	1251,31
802,80	1224,69
802,97	1300,46
803,15	1361,90
803,32	1234,93
803,50	1294,32
803,67	1222,64
803,84	1202,16
804,02	1255,40
804,19	1247,21
804,37	1294,32
804,54	1241,07
804,71	1331,18
804,89	1247,21
805,06	1318,89
805,24	1277,93
805,41	1265,64
805,58	1259,50
805,76	1245,16
805,93	1333,23
806,10	1296,36
806,28	1208,30
806,45	1368,04
806,63	1245,16
806,80	1267,69
806,97	1239,02
807,15	1247,21
807,32	1249,26
807,49	1361,90
807,67	1241,07
807,84	1306,60
808,01	1220,59
808,19	1259,50
808,36	1271,79
808,54	1212,40
808,71	1255,40
808,88	1304,56
809,06	1294,32
809,23	1300,46
809,40	1267,69
809,58	1282,03
809,75	1353,71
809,92	1304,56
810,10	1296,36
810,27	1349,61
810,44	1265,64
810,62	1325,04
810,79	1277,93
810,96	1249,26
811,14	1282,03
811,31	1306,60
811,48	1269,74
811,66	1290,22
811,83	1286,12
812,00	1212,40
812,18	1290,22
812,35	1320,94
812,52	1288,17
812,69	1279,98
812,87	1329,13
813,04	1331,18
813,21	1302,51
813,39	1273,84
813,56	1267,69
813,73	1288,17
813,91	1239,02
814,08	1277,93
814,25	1279,98
814,42	1290,22
814,60	1267,69
814,77	1210,35
814,94	1220,59
815,12	1359,85
815,29	1267,69
815,46	1232,88
815,63	1310,70
815,81	1249,26
815,98	1269,74
816,15	1214,45
816,33	1284,08
816,50	1288,17
816,67	1251,31
816,84	1329,13
817,02	1265,64
817,19	1253,36
817,36	1247,21
817,53	1230,83
817,71	1269,74
817,88	1320,94
818,05	1306,60
818,22	1259,50
818,40	1265,64
818,57	1335,28
818,74	1294,32
818,91	1267,69
819,09	1306,60
819,26	1284,08
819,43	1269,74
819,60	1296,36
819,78	1300,46
819,95	1271,79
820,12	1316,84
820,29	1288,17
820,47	1279,98
820,64	1257,45
820,81	1257,45
820,98	1298,41
821,15	1241,07
821,33	1341,42
821,50	1290,22
821,67	1273,84
821,84	1259,50
822,02	1329,13
822,19	1302,51
822,36	1249,26
822,53	1318,89
822,70	1294,32
822,88	1236,97
823,05	1288,17
823,22	1345,52
823,39	1249,26
823,56	1251,31
823,74	1335,28
823,91	1292,27
824,08	1226,73
824,25	1189,87
824,42	1327,08
824,60	1234,93
824,77	1275,88
824,94	1310,70
825,11	1300,46
825,28	1269,74
825,45	1230,83
825,63	1282,03
825,80	1226,73
825,97	1255,40
826,14	1279,98
826,31	1273,84
826,48	1302,51
826,66	1306,60
826,83	1261,55
827,00	1200,11
827,17	1304,56
827,34	1294,32
827,51	1351,66
827,69	1277,93
827,86	1282,03
828,03	1251,31
828,20	1265,64
828,37	1234,93
828,54	1288,17
828,71	1275,88
828,89	1292,27
829,06	1306,60
829,23	1214,45
829,40	1304,56
829,57	1234,93
829,74	1310,70
829,91	1269,74
830,09	1298,41
830,26	1282,03
830,43	1241,07
830,60	1308,65
830,77	1261,55
830,94	1320,94
831,11	1300,46
831,28	1273,84
831,46	1277,93
831,63	1261,55
831,80	1277,93
831,97	1263,60
832,14	1312,75
832,31	1259,50
832,48	1308,65
832,65	1300,46
832,82	1316,84
832,99	1322,99
833,17	1263,60
833,34	1245,16
833,51	1304,56
833,68	1247,21
833,85	1320,94
834,02	1296,36
834,19	1292,27
834,36	1331,18
834,53	1273,84
834,70	1226,73
834,87	1318,89
835,04	1277,93
835,22	1257,45
835,39	1228,78
835,56	1189,87
835,73	1302,51
835,90	1263,60
836,07	1318,89
836,24	1329,13
836,41	1275,88
836,58	1279,98
836,75	1314,80
836,92	1269,74
837,09	1312,75
837,26	1294,32
837,43	1318,89
837,60	1275,88
837,77	1257,45
837,94	1259,50
838,12	1302,51
838,29	1279,98
838,46	1263,60
838,63	1265,64
838,80	1282,03
838,97	1267,69
839,14	1329,13
839,31	1271,79
839,48	1277,93
839,65	1294,32
839,82	1353,71
839,99	1232,88
840,16	1302,51
840,33	1265,64
840,50	1279,98
840,67	1193,97
840,84	1249,26
841,01	1292,27
841,18	1239,02
841,35	1337,32
841,52	1308,65
841,69	1279,98
841,86	1304,56
842,03	1257,45
842,20	1327,08
842,37	1255,40
842,54	1296,36
842,71	1294,32
842,88	1267,69
843,05	1257,45
843,22	1275,88
843,39	1298,41
843,56	1275,88
843,73	1308,65
843,90	1230,83
844,07	1236,97
844,24	1271,79
844,41	1316,84
844,58	1263,60
844,75	1269,74
844,92	1216,49
845,09	1366,00
845,26	1212,40
845,43	1314,80
845,60	1273,84
845,77	1251,31
845,94	1306,60
846,10	1310,70
846,27	1288,17
846,44	1314,80
846,61	1329,13
846,78	1316,84
846,95	1247,21
847,12	1306,60
847,29	1353,71
847,46	1306,60
847,63	1312,75
847,80	1249,26
847,97	1292,27
848,14	1337,32
848,31	1251,31
848,48	1302,51
848,65	1267,69
848,82	1290,22
848,98	1322,99
849,15	1255,40
849,32	1216,49
849,49	1361,90
849,66	1255,40
849,83	1284,08
850,00	1320,94
850,17	1218,54
850,34	1261,55
850,51	1308,65
850,68	1286,12
850,85	1269,74
851,01	1275,88
851,18	1394,67
851,35	1241,07
851,52	1247,21
851,69	1261,55
851,86	1208,30
852,03	1232,88
852,20	1279,98
852,37	1177,58
852,53	1247,21
852,70	1261,55
852,87	1269,74
853,04	1300,46
853,21	1314,80
853,38	1282,03
853,55	1304,56
853,72	1302,51
853,89	1261,55
854,05	1189,87
854,22	1357,80
854,39	1259,50
854,56	1331,18
854,73	1232,88
854,90	1286,12
855,07	1288,17
855,23	1241,07
855,40	1298,41
855,57	1331,18
855,74	1234,93
855,91	1271,79
856,08	1312,75
856,25	1310,70
856,41	1286,12
856,58	1208,30
856,75	1288,17
856,92	1241,07
857,09	1271,79
857,26	1298,41
857,42	1224,69
857,59	1251,31
857,76	1286,12
857,93	1327,08
858,10	1222,64
858,27	1261,55
858,43	1308,65
858,60	1314,80
858,77	1292,27
858,94	1200,11
859,11	1339,37
859,27	1277,93
859,44	1228,78
859,61	1331,18
859,78	1304,56
859,95	1339,37
860,12	1290,22
860,28	1288,17
860,45	1216,49
860,62	1212,40
860,79	1282,03
860,95	1320,94
861,12	1286,12
861,29	1314,80
861,46	1316,84
861,63	1253,36
861,79	1282,03
861,96	1298,41
862,13	1308,65
862,30	1327,08
862,47	1269,74
862,63	1267,69
862,80	1269,74
862,97	1294,32
863,14	1294,32
863,30	1269,74
863,47	1241,07
863,64	1294,32
863,81	1224,69
863,97	1290,22
864,14	1257,45
864,31	1224,69
864,48	1232,88
864,65	1263,60
864,81	1267,69
864,98	1275,88
865,15	1347,56
865,32	1243,12
865,48	1265,64
865,65	1265,64
865,82	1216,49
865,98	1306,60
866,15	1263,60
866,32	1302,51
866,49	1294,32
866,65	1220,59
866,82	1214,45
866,99	1331,18
867,16	1267,69
867,32	1177,58
867,49	1329,13
867,66	1331,18
867,83	1249,26
867,99	1249,26
868,16	1294,32
868,33	1216,49
868,49	1327,08
868,66	1247,21
868,83	1322,99
868,99	1269,74
869,16	1249,26
869,33	1243,12
869,50	1247,21
869,66	1302,51
869,83	1279,98
870,00	1273,84
870,16	1296,36
870,33	1269,74
870,50	1288,17
870,66	1314,80
870,83	1228,78
871,00	1247,21
871,17	1269,74
871,33	1310,70
871,50	1228,78
871,67	1288,17
871,83	1249,26
872,00	1253,36
872,17	1273,84
872,33	1316,84
872,50	1232,88
872,67	1292,27
872,83	1284,08
873,00	1271,79
873,17	1304,56
873,33	1261,55
873,50	1216,49
873,67	1322,99
873,83	1353,71
874,00	1212,40
874,16	1236,97
874,33	1341,42
874,50	1357,80
874,66	1292,27
874,83	1296,36
875,00	1243,12
875,16	1351,66
875,33	1275,88
875,50	1296,36
875,66	1257,45
875,83	1265,64
875,99	1249,26
876,16	1320,94
876,33	1292,27
876,49	1304,56
876,66	1329,13
876,83	1304,56
876,99	1249,26
877,16	1273,84
877,32	1200,11
877,49	1249,26
877,66	1236,97
877,82	1322,99
877,99	1275,88
878,15	1292,27
878,32	1288,17
878,49	1300,46
878,65	1304,56
878,82	1310,70
878,98	1196,01
879,15	1296,36
879,32	1282,03
879,48	1261,55
879,65	1251,31
879,81	1306,60
879,98	1290,22
880,15	1316,84
880,31	1282,03
880,48	1263,60
880,64	1245,16
880,81	1286,12
880,97	1329,13
881,14	1306,60
881,31	1269,74
881,47	1234,93
881,64	1269,74
881,80	1318,89
881,97	1335,28
882,13	1282,03
882,30	1175,53
882,47	1273,84
882,63	1255,40
882,80	1218,54
882,96	1271,79
883,13	1249,26
883,29	1286,12
883,46	1322,99
883,62	1277,93
883,79	1296,36
883,95	1261,55
884,12	1200,11
884,29	1286,12
884,45	1292,27
884,62	1345,52
884,78	1327,08
884,95	1288,17
885,11	1349,61
885,28	1284,08
885,44	1222,64
885,61	1282,03
885,77	1312,75
885,94	1269,74
886,10	1279,98
886,27	1318,89
886,43	1314,80
886,60	1310,70
886,76	1300,46
886,93	1269,74
887,09	1286,12
887,26	1300,46
887,42	1251,31
887,59	1294,32
887,75	1271,79
887,92	1273,84
888,08	1282,03
888,25	1236,97
888,41	1279,98
888,58	1368,04
888,74	1200,11
888,91	1230,83
>>>>>End Processed Spectral Data<<<<<
