SpectraSuite Data File
++++++++++++++++++++++++++++++++++++
Date: Sun Apr 03 15:34:04 CEST 2016
User: root
Dark Spectrum Present: No
Reference Spectrum Present: No
Number of Sampled Component Spectra: 1
Spectrometers: USB4C02835
Integration Time (usec): 10000 (USB4C02835)
Spectra Averaged: 1 (USB4C02835)
Boxcar Smoothing: 0 (USB4C02835)
Correct for Electrical Dark: No (USB4C02835)
Strobe/Lamp Enabled: No (USB4C02835)
Correct for Detector Non-linearity: No (USB4C02835)
Correct for Stray Light: No (USB4C02835)
Number of Pixels in Processed Spectrum: 3648
>>>>>Begin Processed Spectral Data<<<<<
177,47	1251,31
177,69	1251,31
177,91	1251,31
178,13	1267,69
178,36	1220,59
178,58	1265,64
178,80	1267,69
179,02	1208,30
179,24	1253,36
179,46	1314,80
179,68	1322,99
179,90	1308,65
180,13	1265,64
180,35	1282,03
180,57	1259,50
180,79	1202,16
181,01	1277,93
181,23	1290,22
181,45	1304,56
181,67	1282,03
181,90	1284,08
182,12	1232,88
182,34	1298,41
182,56	1273,84
182,78	1314,80
183,00	1239,02
183,22	1228,78
183,44	1255,40
183,66	1263,60
183,89	1271,79
184,11	1290,22
184,33	1318,89
184,55	1257,45
184,77	1267,69
184,99	1286,12
185,21	1241,07
185,43	1218,54
185,65	1292,27
185,87	1296,36
186,10	1202,16
186,32	1265,64
186,54	1232,88
186,76	1232,88
186,98	1269,74
187,20	1286,12
187,42	1284,08
187,64	1314,80
187,86	1288,17
188,08	1284,08
188,30	1296,36
188,52	1236,97
188,75	1286,12
188,97	1302,51
189,19	1247,21
189,41	1247,21
189,63	1290,22
189,85	1212,40
190,07	1259,50
190,29	1288,17
190,51	1253,36
190,73	1255,40
190,95	1230,83
191,17	1239,02
191,39	1239,02
191,61	1255,40
191,84	1325,04
192,06	1232,88
192,28	1275,88
192,50	1329,13
192,72	1286,12
192,94	1265,64
193,16	1249,26
193,38	1249,26
193,60	1253,36
193,82	1230,83
194,04	1263,60
194,26	1167,34
194,48	1253,36
194,70	1271,79
194,92	1271,79
195,14	1284,08
195,36	1243,12
195,58	1286,12
195,80	1310,70
196,02	1290,22
196,24	1259,50
196,46	1294,32
196,69	1255,40
196,91	1304,56
197,13	1282,03
197,35	1275,88
197,57	1263,60
197,79	1314,80
198,01	1310,70
198,23	1306,60
198,45	1206,25
198,67	1259,50
198,89	1271,79
199,11	1333,23
199,33	1261,55
199,55	1232,88
199,77	1286,12
199,99	1236,97
200,21	1261,55
200,43	1216,49
200,65	1304,56
200,87	1183,73
201,09	1265,64
201,31	1284,08
201,53	1261,55
201,75	1263,60
201,97	1322,99
202,19	1273,84
202,41	1331,18
202,63	1263,60
202,85	1273,84
203,07	1314,80
203,29	1308,65
203,51	1247,21
203,73	1314,80
203,95	1232,88
204,17	1228,78
204,39	1224,69
204,61	1251,31
204,83	1292,27
205,05	1261,55
205,27	1310,70
205,49	1263,60
205,71	1255,40
205,93	1261,55
206,15	1263,60
206,37	1335,28
206,59	1294,32
206,81	1267,69
207,03	1308,65
207,25	1236,97
207,47	1282,03
207,69	1251,31
207,91	1247,21
208,13	1243,12
208,34	1265,64
208,56	1232,88
208,78	1265,64
209,00	1200,11
209,22	1226,73
209,44	1230,83
209,66	1282,03
209,88	1267,69
210,10	1234,93
210,32	1261,55
210,54	1372,14
210,76	1181,68
210,98	1284,08
211,20	1282,03
211,42	1259,50
211,64	1232,88
211,86	1241,07
212,08	1325,04
212,30	1259,50
212,52	1302,51
212,74	1196,01
212,96	1308,65
213,17	1255,40
213,39	1265,64
213,61	1290,22
213,83	1310,70
214,05	1296,36
214,27	1249,26
214,49	1316,84
214,71	1261,55
214,93	1327,08
215,15	1200,11
215,37	1214,45
215,59	1259,50
215,81	1337,32
216,03	1288,17
216,24	1314,80
216,46	1300,46
216,68	1329,13
216,90	1304,56
217,12	1175,53
217,34	1255,40
217,56	1292,27
217,78	1341,42
218,00	1232,88
218,22	1224,69
218,44	1232,88
218,66	1267,69
218,87	1286,12
219,09	1275,88
219,31	1269,74
219,53	1234,93
219,75	1239,02
219,97	1306,60
220,19	1224,69
220,41	1370,09
220,63	1232,88
220,85	1333,23
221,06	1279,98
221,28	1378,28
221,50	1277,93
221,72	1286,12
221,94	1165,29
222,16	1273,84
222,38	1271,79
222,60	1259,50
222,82	1253,36
223,03	1247,21
223,25	1286,12
223,47	1220,59
223,69	1306,60
223,91	1322,99
224,13	1247,21
224,35	1347,56
224,57	1275,88
224,78	1277,93
225,00	1236,97
225,22	1232,88
225,44	1304,56
225,66	1329,13
225,88	1204,21
226,10	1302,51
226,32	1206,25
226,53	1288,17
226,75	1302,51
226,97	1273,84
227,19	1284,08
227,41	1277,93
227,63	1318,89
227,85	1165,29
228,06	1298,41
228,28	1302,51
228,50	1292,27
228,72	1228,78
228,94	1279,98
229,16	1275,88
229,37	1286,12
229,59	1304,56
229,81	1343,47
230,03	1292,27
230,25	1249,26
230,47	1245,16
230,69	1308,65
230,90	1232,88
231,12	1314,80
231,34	1335,28
231,56	1282,03
231,78	1230,83
232,00	1292,27
232,21	1273,84
232,43	1226,73
232,65	1290,22
232,87	1304,56
233,09	1298,41
233,30	1368,04
233,52	1265,64
233,74	1239,02
233,96	1224,69
234,18	1273,84
234,40	1253,36
234,61	1265,64
234,83	1298,41
235,05	1306,60
235,27	1275,88
235,49	1314,80
235,70	1300,46
235,92	1277,93
236,14	1284,08
236,36	1282,03
236,58	1310,70
236,79	1275,88
237,01	1230,83
237,23	1257,45
237,45	1218,54
237,67	1329,13
237,88	1300,46
238,10	1284,08
238,32	1247,21
238,54	1257,45
238,76	1335,28
238,97	1212,40
239,19	1300,46
239,41	1290,22
239,63	1236,97
239,85	1329,13
240,06	1269,74
240,28	1269,74
240,50	1322,99
240,72	1271,79
240,93	1279,98
241,15	1261,55
241,37	1261,55
241,59	1243,12
241,81	1261,55
242,02	1269,74
242,24	1218,54
242,46	1322,99
242,68	1279,98
242,89	1271,79
243,11	1249,26
243,33	1255,40
243,55	1275,88
243,76	1308,65
243,98	1273,84
244,20	1292,27
244,42	1294,32
244,64	1302,51
244,85	1226,73
245,07	1267,69
245,29	1333,23
245,51	1298,41
245,72	1243,12
245,94	1302,51
246,16	1220,59
246,38	1236,97
246,59	1259,50
246,81	1222,64
247,03	1226,73
247,24	1320,94
247,46	1337,32
247,68	1243,12
247,90	1310,70
248,11	1232,88
248,33	1253,36
248,55	1269,74
248,77	1259,50
248,98	1273,84
249,20	1232,88
249,42	1202,16
249,64	1296,36
249,85	1261,55
250,07	1204,21
250,29	1300,46
250,50	1353,71
250,72	1310,70
250,94	1232,88
251,16	1267,69
251,37	1261,55
251,59	1316,84
251,81	1222,64
252,02	1337,32
252,24	1298,41
252,46	1292,27
252,68	1300,46
252,89	1216,49
253,11	1353,71
253,33	1322,99
253,54	1296,36
253,76	1320,94
253,98	1243,12
254,20	1241,07
254,41	1284,08
254,63	1290,22
254,85	1308,65
255,06	1286,12
255,28	1239,02
255,50	1247,21
255,71	1302,51
255,93	1236,97
256,15	1236,97
256,36	1273,84
256,58	1290,22
256,80	1310,70
257,02	1353,71
257,23	1247,21
257,45	1239,02
257,67	1251,31
257,88	1271,79
258,10	1236,97
258,32	1314,80
258,53	1247,21
258,75	1304,56
258,97	1204,21
259,18	1290,22
259,40	1302,51
259,62	1337,32
259,83	1228,78
260,05	1271,79
260,27	1320,94
260,48	1290,22
260,70	1232,88
260,92	1271,79
261,13	1218,54
261,35	1273,84
261,57	1239,02
261,78	1290,22
262,00	1236,97
262,22	1331,18
262,43	1220,59
262,65	1253,36
262,86	1341,42
263,08	1251,31
263,30	1247,21
263,51	1265,64
263,73	1239,02
263,95	1239,02
264,16	1257,45
264,38	1239,02
264,60	1325,04
264,81	1239,02
265,03	1236,97
265,25	1239,02
265,46	1267,69
265,68	1277,93
265,89	1208,30
266,11	1230,83
266,33	1251,31
266,54	1306,60
266,76	1308,65
266,98	1286,12
267,19	1298,41
267,41	1366,00
267,62	1273,84
267,84	1239,02
268,06	1277,93
268,27	1290,22
268,49	1288,17
268,70	1286,12
268,92	1361,90
269,14	1261,55
269,35	1241,07
269,57	1251,31
269,79	1271,79
270,00	1222,64
270,22	1310,70
270,43	1236,97
270,65	1304,56
270,87	1247,21
271,08	1247,21
271,30	1243,12
271,51	1257,45
271,73	1265,64
271,95	1247,21
272,16	1275,88
272,38	1226,73
272,59	1210,35
272,81	1224,69
273,02	1261,55
273,24	1284,08
273,46	1271,79
273,67	1288,17
273,89	1218,54
274,10	1279,98
274,32	1292,27
274,54	1279,98
274,75	1245,16
274,97	1271,79
275,18	1314,80
275,40	1267,69
275,61	1265,64
275,83	1255,40
276,05	1282,03
276,26	1382,38
276,48	1259,50
276,69	1239,02
276,91	1304,56
277,12	1284,08
277,34	1294,32
277,55	1271,79
277,77	1277,93
277,99	1271,79
278,20	1298,41
278,42	1267,69
278,63	1286,12
278,85	1220,59
279,06	1286,12
279,28	1249,26
279,49	1212,40
279,71	1241,07
279,93	1308,65
280,14	1255,40
280,36	1277,93
280,57	1255,40
280,79	1265,64
281,00	1196,01
281,22	1310,70
281,43	1236,97
281,65	1241,07
281,86	1292,27
282,08	1234,93
282,29	1318,89
282,51	1290,22
282,73	1214,45
282,94	1318,89
283,16	1241,07
283,37	1259,50
283,59	1239,02
283,80	1253,36
284,02	1312,75
284,23	1318,89
284,45	1312,75
284,66	1308,65
284,88	1337,32
285,09	1275,88
285,31	1261,55
285,52	1316,84
285,74	1294,32
285,95	1267,69
286,17	1267,69
286,38	1296,36
286,60	1290,22
286,81	1241,07
287,03	1286,12
287,24	1228,78
287,46	1304,56
287,67	1335,28
287,89	1327,08
288,10	1290,22
288,32	1292,27
288,53	1222,64
288,75	1302,51
288,96	1284,08
289,18	1265,64
289,39	1251,31
289,61	1282,03
289,82	1296,36
290,04	1265,64
290,25	1216,49
290,47	1224,69
290,68	1243,12
290,90	1306,60
291,11	1292,27
291,33	1294,32
291,54	1269,74
291,76	1294,32
291,97	1261,55
292,18	1314,80
292,40	1222,64
292,61	1275,88
292,83	1271,79
293,04	1249,26
293,26	1290,22
293,47	1226,73
293,69	1267,69
293,90	1279,98
294,12	1263,60
294,33	1230,83
294,55	1284,08
294,76	1304,56
294,97	1296,36
295,19	1304,56
295,40	1292,27
295,62	1241,07
295,83	1265,64
296,05	1247,21
296,26	1322,99
296,48	1298,41
296,69	1204,21
296,90	1327,08
297,12	1228,78
297,33	1210,35
297,55	1286,12
297,76	1339,37
297,98	1212,40
298,19	1257,45
298,41	1298,41
298,62	1335,28
298,83	1273,84
299,05	1277,93
299,26	1257,45
299,48	1247,21
299,69	1298,41
299,90	1288,17
300,12	1310,70
300,33	1308,65
300,55	1284,08
300,76	1226,73
300,98	1320,94
301,19	1265,64
301,40	1282,03
301,62	1277,93
301,83	1241,07
302,05	1214,45
302,26	1347,56
302,47	1267,69
302,69	1243,12
302,90	1286,12
303,12	1263,60
303,33	1228,78
303,54	1234,93
303,76	1302,51
303,97	1261,55
304,19	1245,16
304,40	1267,69
304,61	1339,37
304,83	1310,70
305,04	1214,45
305,26	1232,88
305,47	1267,69
305,68	1263,60
305,90	1284,08
306,11	1222,64
306,33	1322,99
306,54	1306,60
306,75	1298,41
306,97	1251,31
307,18	1228,78
307,39	1263,60
307,61	1316,84
307,82	1216,49
308,04	1327,08
308,25	1189,87
308,46	1306,60
308,68	1259,50
308,89	1322,99
309,10	1263,60
309,32	1261,55
309,53	1247,21
309,74	1236,97
309,96	1277,93
310,17	1257,45
310,39	1255,40
310,60	1275,88
310,81	1333,23
311,03	1271,79
311,24	1247,21
311,45	1320,94
311,67	1257,45
311,88	1247,21
312,09	1257,45
312,31	1247,21
312,52	1304,56
312,73	1282,03
312,95	1282,03
313,16	1355,76
313,37	1210,35
313,59	1241,07
313,80	1224,69
314,01	1249,26
314,23	1255,40
314,44	1267,69
314,65	1249,26
314,87	1183,73
315,08	1257,45
315,29	1241,07
315,51	1298,41
315,72	1294,32
315,93	1298,41
316,15	1243,12
316,36	1339,37
316,57	1257,45
316,79	1234,93
317,00	1284,08
317,21	1273,84
317,43	1216,49
317,64	1175,53
317,85	1261,55
318,07	1374,19
318,28	1286,12
318,49	1298,41
318,70	1273,84
318,92	1214,45
319,13	1277,93
319,34	1327,08
319,56	1282,03
319,77	1228,78
319,98	1241,07
320,20	1245,16
320,41	1308,65
320,62	1308,65
320,83	1232,88
321,05	1259,50
321,26	1263,60
321,47	1255,40
321,69	1259,50
321,90	1257,45
322,11	1175,53
322,32	1245,16
322,54	1208,30
322,75	1193,97
322,96	1304,56
323,18	1290,22
323,39	1191,92
323,60	1167,34
323,81	1187,82
324,03	1302,51
324,24	1300,46
324,45	1265,64
324,66	1355,76
324,88	1269,74
325,09	1210,35
325,30	1261,55
325,52	1241,07
325,73	1265,64
325,94	1290,22
326,15	1255,40
326,37	1304,56
326,58	1241,07
326,79	1320,94
327,00	1284,08
327,22	1327,08
327,43	1249,26
327,64	1247,21
327,85	1228,78
328,07	1308,65
328,28	1269,74
328,49	1239,02
328,70	1249,26
328,92	1294,32
329,13	1234,93
329,34	1284,08
329,55	1320,94
329,76	1284,08
329,98	1263,60
330,19	1331,18
330,40	1263,60
330,61	1271,79
330,83	1290,22
331,04	1226,73
331,25	1286,12
331,46	1269,74
331,68	1259,50
331,89	1220,59
332,10	1228,78
332,31	1253,36
332,52	1239,02
332,74	1296,36
332,95	1329,13
333,16	1253,36
333,37	1277,93
333,58	1273,84
333,80	1263,60
334,01	1222,64
334,22	1259,50
334,43	1243,12
334,64	1263,60
334,86	1249,26
335,07	1292,27
335,28	1257,45
335,49	1275,88
335,70	1253,36
335,92	1206,25
336,13	1228,78
336,34	1318,89
336,55	1331,18
336,76	1294,32
336,98	1150,96
337,19	1257,45
337,40	1220,59
337,61	1255,40
337,82	1292,27
338,04	1300,46
338,25	1277,93
338,46	1210,35
338,67	1251,31
338,88	1284,08
339,09	1275,88
339,31	1216,49
339,52	1230,83
339,73	1257,45
339,94	1273,84
340,15	1269,74
340,36	1275,88
340,58	1273,84
340,79	1284,08
341,00	1279,98
341,21	1214,45
341,42	1290,22
341,63	1312,75
341,85	1363,95
342,06	1271,79
342,27	1290,22
342,48	1273,84
342,69	1286,12
342,90	1273,84
343,12	1243,12
343,33	1322,99
343,54	1202,16
343,75	1312,75
343,96	1288,17
344,17	1298,41
344,38	1304,56
344,60	1343,47
344,81	1263,60
345,02	1232,88
345,23	1322,99
345,44	1239,02
345,65	1243,12
345,86	1353,71
346,07	1261,55
346,29	1222,64
346,50	1267,69
346,71	1267,69
346,92	1282,03
347,13	1322,99
347,34	1263,60
347,55	1257,45
347,76	1290,22
347,98	1253,36
348,19	1288,17
348,40	1214,45
348,61	1304,56
348,82	1339,37
349,03	1265,64
349,24	1269,74
349,45	1269,74
349,66	1298,41
349,88	1245,16
350,09	1335,28
350,30	1257,45
350,51	1335,28
350,72	1286,12
350,93	1298,41
351,14	1247,21
351,35	1249,26
351,56	1257,45
351,77	1222,64
351,99	1214,45
352,20	1327,08
352,41	1234,93
352,62	1271,79
352,83	1304,56
353,04	1271,79
353,25	1267,69
353,46	1218,54
353,67	1220,59
353,88	1253,36
354,09	1159,15
354,30	1298,41
354,52	1282,03
354,73	1249,26
354,94	1306,60
355,15	1214,45
355,36	1298,41
355,57	1222,64
355,78	1343,47
355,99	1282,03
356,20	1234,93
356,41	1255,40
356,62	1216,49
356,83	1333,23
357,04	1290,22
357,25	1230,83
357,46	1216,49
357,68	1241,07
357,89	1277,93
358,10	1273,84
358,31	1236,97
358,52	1271,79
358,73	1175,53
358,94	1347,56
359,15	1275,88
359,36	1241,07
359,57	1239,02
359,78	1294,32
359,99	1226,73
360,20	1271,79
360,41	1277,93
360,62	1257,45
360,83	1216,49
361,04	1298,41
361,25	1296,36
361,46	1331,18
361,67	1212,40
361,88	1333,23
362,09	1271,79
362,30	1216,49
362,51	1253,36
362,72	1263,60
362,93	1263,60
363,14	1271,79
363,35	1232,88
363,56	1320,94
363,78	1279,98
363,99	1251,31
364,20	1247,21
364,41	1234,93
364,62	1259,50
364,83	1234,93
365,04	1273,84
365,25	1325,04
365,46	1339,37
365,67	1343,47
365,88	1261,55
366,09	1273,84
366,30	1263,60
366,51	1245,16
366,72	1200,11
366,93	1273,84
367,14	1206,25
367,35	1288,17
367,56	1282,03
367,77	1269,74
367,98	1318,89
368,18	1329,13
368,39	1333,23
368,60	1329,13
368,81	1253,36
369,02	1196,01
369,23	1290,22
369,44	1288,17
369,65	1325,04
369,86	1302,51
370,07	1292,27
370,28	1294,32
370,49	1269,74
370,70	1271,79
370,91	1232,88
371,12	1247,21
371,33	1249,26
371,54	1312,75
371,75	1261,55
371,96	1290,22
372,17	1226,73
372,38	1243,12
372,59	1263,60
372,80	1331,18
373,01	1251,31
373,22	1236,97
373,43	1273,84
373,64	1212,40
373,85	1191,92
374,06	1222,64
374,26	1279,98
374,47	1269,74
374,68	1273,84
374,89	1275,88
375,10	1306,60
375,31	1292,27
375,52	1292,27
375,73	1288,17
375,94	1294,32
376,15	1253,36
376,36	1220,59
376,57	1253,36
376,78	1286,12
376,99	1249,26
377,20	1187,82
377,40	1241,07
377,61	1277,93
377,82	1279,98
378,03	1267,69
378,24	1263,60
378,45	1267,69
378,66	1322,99
378,87	1198,06
379,08	1349,61
379,29	1267,69
379,50	1261,55
379,71	1322,99
379,91	1277,93
380,12	1169,39
380,33	1298,41
380,54	1314,80
380,75	1298,41
380,96	1251,31
381,17	1347,56
381,38	1335,28
381,59	1232,88
381,80	1171,44
382,00	1204,21
382,21	1298,41
382,42	1306,60
382,63	1220,59
382,84	1249,26
383,05	1243,12
383,26	1255,40
383,47	1279,98
383,68	1288,17
383,88	1259,50
384,09	1267,69
384,30	1286,12
384,51	1333,23
384,72	1298,41
384,93	1290,22
385,14	1308,65
385,35	1296,36
385,55	1275,88
385,76	1300,46
385,97	1200,11
386,18	1304,56
386,39	1257,45
386,60	1261,55
386,81	1259,50
387,02	1275,88
387,22	1265,64
387,43	1378,28
387,64	1257,45
387,85	1296,36
388,06	1230,83
388,27	1279,98
388,48	1310,70
388,68	1259,50
388,89	1208,30
389,10	1273,84
389,31	1255,40
389,52	1218,54
389,73	1245,16
389,93	1253,36
390,14	1259,50
390,35	1333,23
390,56	1263,60
390,77	1271,79
390,98	1224,69
391,18	1300,46
391,39	1318,89
391,60	1288,17
391,81	1220,59
392,02	1294,32
392,23	1363,95
392,43	1290,22
392,64	1245,16
392,85	1255,40
393,06	1243,12
393,27	1327,08
393,47	1318,89
393,68	1269,74
393,89	1253,36
394,10	1269,74
394,31	1327,08
394,52	1290,22
394,72	1261,55
394,93	1284,08
395,14	1247,21
395,35	1320,94
395,56	1255,40
395,76	1306,60
395,97	1196,01
396,18	1284,08
396,39	1269,74
396,60	1322,99
396,80	1191,92
397,01	1218,54
397,22	1189,87
397,43	1232,88
397,64	1290,22
397,84	1232,88
398,05	1196,01
398,26	1267,69
398,47	1290,22
398,67	1263,60
398,88	1279,98
399,09	1214,45
399,30	1228,78
399,51	1263,60
399,71	1226,73
399,92	1288,17
400,13	1183,73
400,34	1206,25
400,54	1300,46
400,75	1290,22
400,96	1245,16
401,17	1263,60
401,37	1253,36
401,58	1302,51
401,79	1284,08
402,00	1357,80
402,21	1247,21
402,41	1327,08
402,62	1239,02
402,83	1265,64
403,04	1218,54
403,24	1322,99
403,45	1247,21
403,66	1282,03
403,87	1337,32
404,07	1316,84
404,28	1325,04
404,49	1247,21
404,70	1228,78
404,90	1279,98
405,11	1269,74
405,32	1329,13
405,52	1339,37
405,73	1339,37
405,94	1218,54
406,15	1333,23
406,35	1271,79
406,56	1259,50
406,77	1241,07
406,98	1230,83
407,18	1271,79
407,39	1279,98
407,60	1249,26
407,80	1214,45
408,01	1306,60
408,22	1269,74
408,43	1312,75
408,63	1255,40
408,84	1206,25
409,05	1282,03
409,25	1255,40
409,46	1327,08
409,67	1259,50
409,88	1232,88
410,08	1290,22
410,29	1232,88
410,50	1255,40
410,70	1296,36
410,91	1282,03
411,12	1288,17
411,32	1292,27
411,53	1239,02
411,74	1298,41
411,95	1273,84
412,15	1261,55
412,36	1288,17
412,57	1282,03
412,77	1277,93
412,98	1284,08
413,19	1282,03
413,39	1279,98
413,60	1284,08
413,81	1269,74
414,01	1259,50
414,22	1273,84
414,43	1277,93
414,63	1294,32
414,84	1265,64
415,05	1304,56
415,25	1271,79
415,46	1273,84
415,67	1275,88
415,87	1284,08
416,08	1247,21
416,29	1347,56
416,49	1284,08
416,70	1269,74
416,91	1357,80
417,11	1306,60
417,32	1320,94
417,53	1306,60
417,73	1253,36
417,94	1279,98
418,15	1257,45
418,35	1214,45
418,56	1296,36
418,77	1259,50
418,97	1277,93
419,18	1261,55
419,38	1325,04
419,59	1308,65
419,80	1234,93
420,00	1306,60
420,21	1292,27
420,42	1226,73
420,62	1298,41
420,83	1239,02
421,04	1251,31
421,24	1202,16
421,45	1198,06
421,65	1355,76
421,86	1200,11
422,07	1239,02
422,27	1243,12
422,48	1300,46
422,69	1265,64
422,89	1271,79
423,10	1282,03
423,30	1275,88
423,51	1148,91
423,72	1204,21
423,92	1310,70
424,13	1271,79
424,33	1226,73
424,54	1216,49
424,75	1296,36
424,95	1271,79
425,16	1255,40
425,36	1255,40
425,57	1331,18
425,78	1314,80
425,98	1255,40
426,19	1304,56
426,39	1292,27
426,60	1228,78
426,81	1296,36
427,01	1273,84
427,22	1282,03
427,42	1239,02
427,63	1228,78
427,83	1312,75
428,04	1314,80
428,25	1234,93
428,45	1224,69
428,66	1251,31
428,86	1286,12
429,07	1312,75
429,28	1304,56
429,48	1232,88
429,69	1265,64
429,89	1349,61
430,10	1255,40
430,30	1255,40
430,51	1261,55
430,71	1253,36
430,92	1222,64
431,13	1292,27
431,33	1261,55
431,54	1335,28
431,74	1320,94
431,95	1284,08
432,15	1290,22
432,36	1245,16
432,56	1310,70
432,77	1210,35
432,98	1325,04
433,18	1284,08
433,39	1255,40
433,59	1212,40
433,80	1220,59
434,00	1277,93
434,21	1267,69
434,41	1333,23
434,62	1345,52
434,82	1257,45
435,03	1232,88
435,23	1228,78
435,44	1300,46
435,64	1259,50
435,85	1325,04
436,06	1296,36
436,26	1302,51
436,47	1183,73
436,67	1228,78
436,88	1243,12
437,08	1271,79
437,29	1304,56
437,49	1284,08
437,70	1210,35
437,90	1261,55
438,11	1279,98
438,31	1271,79
438,52	1284,08
438,72	1208,30
438,93	1249,26
439,13	1271,79
439,34	1292,27
439,54	1255,40
439,75	1232,88
439,95	1312,75
440,16	1261,55
440,36	1257,45
440,57	1255,40
440,77	1279,98
440,98	1318,89
441,18	1279,98
441,39	1376,24
441,59	1327,08
441,80	1259,50
442,00	1251,31
442,21	1257,45
442,41	1339,37
442,62	1335,28
442,82	1343,47
443,02	1329,13
443,23	1322,99
443,43	1298,41
443,64	1355,76
443,84	1222,64
444,05	1241,07
444,25	1337,32
444,46	1273,84
444,66	1222,64
444,87	1312,75
445,07	1296,36
445,28	1265,64
445,48	1236,97
445,69	1251,31
445,89	1259,50
446,09	1282,03
446,30	1222,64
446,50	1243,12
446,71	1327,08
446,91	1296,36
447,12	1259,50
447,32	1290,22
447,53	1294,32
447,73	1257,45
447,93	1284,08
448,14	1312,75
448,34	1310,70
448,55	1208,30
448,75	1288,17
448,96	1247,21
449,16	1290,22
449,36	1243,12
449,57	1308,65
449,77	1191,92
449,98	1193,97
450,18	1279,98
450,39	1245,16
450,59	1230,83
450,79	1196,01
451,00	1302,51
451,20	1277,93
451,41	1269,74
451,61	1210,35
451,81	1302,51
452,02	1265,64
452,22	1363,95
452,43	1343,47
452,63	1290,22
452,84	1191,92
453,04	1290,22
453,24	1273,84
453,45	1208,30
453,65	1310,70
453,86	1239,02
454,06	1259,50
454,26	1265,64
454,47	1222,64
454,67	1353,71
454,87	1249,26
455,08	1253,36
455,28	1312,75
455,49	1331,18
455,69	1286,12
455,89	1259,50
456,10	1216,49
456,30	1222,64
456,51	1222,64
456,71	1273,84
456,91	1263,60
457,12	1279,98
457,32	1245,16
457,52	1294,32
457,73	1214,45
457,93	1292,27
458,14	1341,42
458,34	1251,31
458,54	1228,78
458,75	1265,64
458,95	1249,26
459,15	1279,98
459,36	1253,36
459,56	1187,82
459,76	1245,16
459,97	1232,88
460,17	1253,36
460,37	1286,12
460,58	1298,41
460,78	1339,37
460,99	1273,84
461,19	1243,12
461,39	1306,60
461,60	1282,03
461,80	1290,22
462,00	1306,60
462,21	1390,57
462,41	1216,49
462,61	1187,82
462,82	1249,26
463,02	1210,35
463,22	1202,16
463,43	1290,22
463,63	1259,50
463,83	1241,07
464,04	1255,40
464,24	1292,27
464,44	1292,27
464,64	1294,32
464,85	1265,64
465,05	1263,60
465,25	1267,69
465,46	1202,16
465,66	1271,79
465,86	1277,93
466,07	1345,52
466,27	1325,04
466,47	1273,84
466,68	1255,40
466,88	1261,55
467,08	1212,40
467,29	1273,84
467,49	1245,16
467,69	1226,73
467,89	1273,84
468,10	1282,03
468,30	1343,47
468,50	1253,36
468,71	1228,78
468,91	1296,36
469,11	1267,69
469,31	1189,87
469,52	1277,93
469,72	1275,88
469,92	1296,36
470,13	1302,51
470,33	1312,75
470,53	1304,56
470,73	1259,50
470,94	1316,84
471,14	1263,60
471,34	1296,36
471,54	1273,84
471,75	1200,11
471,95	1206,25
472,15	1218,54
472,36	1210,35
472,56	1302,51
472,76	1271,79
472,96	1345,52
473,17	1273,84
473,37	1279,98
473,57	1144,81
473,77	1216,49
473,98	1257,45
474,18	1322,99
474,38	1333,23
474,58	1208,30
474,79	1226,73
474,99	1259,50
475,19	1239,02
475,39	1282,03
475,60	1241,07
475,80	1245,16
476,00	1331,18
476,20	1290,22
476,41	1304,56
476,61	1263,60
476,81	1351,66
477,01	1224,69
477,21	1273,84
477,42	1277,93
477,62	1288,17
477,82	1267,69
478,02	1294,32
478,23	1214,45
478,43	1216,49
478,63	1339,37
478,83	1333,23
479,03	1343,47
479,24	1228,78
479,44	1208,30
479,64	1333,23
479,84	1288,17
480,04	1196,01
480,25	1296,36
480,45	1296,36
480,65	1349,61
480,85	1269,74
481,06	1277,93
481,26	1329,13
481,46	1265,64
481,66	1279,98
481,86	1267,69
482,06	1286,12
482,27	1302,51
482,47	1331,18
482,67	1265,64
482,87	1255,40
483,07	1290,22
483,28	1286,12
483,48	1259,50
483,68	1245,16
483,88	1241,07
484,08	1271,79
484,29	1212,40
484,49	1259,50
484,69	1257,45
484,89	1363,95
485,09	1251,31
485,29	1239,02
485,50	1312,75
485,70	1185,77
485,90	1320,94
486,10	1316,84
486,30	1298,41
486,50	1253,36
486,71	1327,08
486,91	1300,46
487,11	1314,80
487,31	1230,83
487,51	1296,36
487,71	1308,65
487,91	1327,08
488,12	1234,93
488,32	1282,03
488,52	1279,98
488,72	1279,98
488,92	1322,99
489,12	1355,76
489,32	1153,01
489,53	1216,49
489,73	1247,21
489,93	1269,74
490,13	1228,78
490,33	1282,03
490,53	1218,54
490,73	1261,55
490,94	1249,26
491,14	1271,79
491,34	1236,97
491,54	1263,60
491,74	1306,60
491,94	1251,31
492,14	1300,46
492,34	1259,50
492,54	1239,02
492,75	1230,83
492,95	1249,26
493,15	1271,79
493,35	1316,84
493,55	1314,80
493,75	1298,41
493,95	1306,60
494,15	1290,22
494,35	1327,08
494,56	1267,69
494,76	1314,80
494,96	1249,26
495,16	1318,89
495,36	1191,92
495,56	1247,21
495,76	1290,22
495,96	1261,55
496,16	1247,21
496,36	1314,80
496,56	1329,13
496,77	1216,49
496,97	1282,03
497,17	1271,79
497,37	1249,26
497,57	1288,17
497,77	1257,45
497,97	1239,02
498,17	1210,35
498,37	1296,36
498,57	1304,56
498,77	1257,45
498,97	1265,64
499,17	1322,99
499,38	1251,31
499,58	1277,93
499,78	1228,78
499,98	1239,02
500,18	1259,50
500,38	1277,93
500,58	1200,11
500,78	1353,71
500,98	1286,12
501,18	1226,73
501,38	1267,69
501,58	1349,61
501,78	1282,03
501,98	1271,79
502,18	1271,79
502,38	1314,80
502,58	1296,36
502,78	1308,65
502,98	1239,02
503,18	1353,71
503,38	1259,50
503,59	1261,55
503,79	1255,40
503,99	1290,22
504,19	1236,97
504,39	1257,45
504,59	1249,26
504,79	1277,93
504,99	1306,60
505,19	1267,69
505,39	1234,93
505,59	1122,29
505,79	1263,60
505,99	1353,71
506,19	1320,94
506,39	1236,97
506,59	1232,88
506,79	1277,93
506,99	1298,41
507,19	1249,26
507,39	1310,70
507,59	1312,75
507,79	1298,41
507,99	1282,03
508,19	1335,28
508,39	1257,45
508,59	1271,79
508,79	1218,54
508,99	1306,60
509,19	1239,02
509,39	1318,89
509,59	1253,36
509,79	1249,26
509,99	1212,40
510,19	1275,88
510,39	1298,41
510,59	1294,32
510,79	1298,41
510,99	1312,75
511,19	1296,36
511,39	1273,84
511,59	1265,64
511,79	1232,88
511,99	1265,64
512,19	1224,69
512,38	1245,16
512,58	1226,73
512,78	1310,70
512,98	1196,01
513,18	1263,60
513,38	1218,54
513,58	1302,51
513,78	1245,16
513,98	1339,37
514,18	1232,88
514,38	1243,12
514,58	1243,12
514,78	1361,90
514,98	1275,88
515,18	1308,65
515,38	1320,94
515,58	1267,69
515,78	1277,93
515,98	1314,80
516,18	1339,37
516,38	1220,59
516,57	1337,32
516,77	1308,65
516,97	1290,22
517,17	1325,04
517,37	1224,69
517,57	1302,51
517,77	1232,88
517,97	1228,78
518,17	1318,89
518,37	1320,94
518,57	1296,36
518,77	1259,50
518,97	1261,55
519,16	1339,37
519,36	1275,88
519,56	1273,84
519,76	1241,07
519,96	1191,92
520,16	1265,64
520,36	1212,40
520,56	1241,07
520,76	1175,53
520,96	1312,75
521,16	1265,64
521,35	1277,93
521,55	1304,56
521,75	1220,59
521,95	1263,60
522,15	1202,16
522,35	1314,80
522,55	1294,32
522,75	1304,56
522,95	1224,69
523,14	1279,98
523,34	1241,07
523,54	1296,36
523,74	1253,36
523,94	1306,60
524,14	1290,22
524,34	1271,79
524,54	1288,17
524,73	1284,08
524,93	1300,46
525,13	1277,93
525,33	1249,26
525,53	1202,16
525,73	1239,02
525,93	1271,79
526,13	1269,74
526,32	1241,07
526,52	1298,41
526,72	1286,12
526,92	1249,26
527,12	1296,36
527,32	1304,56
527,52	1245,16
527,71	1292,27
527,91	1259,50
528,11	1239,02
528,31	1279,98
528,51	1267,69
528,71	1290,22
528,90	1331,18
529,10	1228,78
529,30	1308,65
529,50	1294,32
529,70	1263,60
529,90	1294,32
530,09	1255,40
530,29	1306,60
530,49	1322,99
530,69	1333,23
530,89	1251,31
531,09	1382,38
531,28	1269,74
531,48	1265,64
531,68	1308,65
531,88	1251,31
532,08	1271,79
532,28	1279,98
532,47	1243,12
532,67	1261,55
532,87	1218,54
533,07	1279,98
533,27	1282,03
533,46	1249,26
533,66	1312,75
533,86	1245,16
534,06	1325,04
534,26	1261,55
534,45	1265,64
534,65	1298,41
534,85	1247,21
535,05	1251,31
535,25	1304,56
535,44	1286,12
535,64	1236,97
535,84	1220,59
536,04	1196,01
536,24	1265,64
536,43	1292,27
536,63	1275,88
536,83	1298,41
537,03	1212,40
537,22	1259,50
537,42	1288,17
537,62	1292,27
537,82	1296,36
538,02	1253,36
538,21	1294,32
538,41	1245,16
538,61	1284,08
538,81	1177,58
539,00	1302,51
539,20	1349,61
539,40	1247,21
539,60	1304,56
539,79	1255,40
539,99	1253,36
540,19	1286,12
540,39	1249,26
540,58	1279,98
540,78	1261,55
540,98	1282,03
541,18	1208,30
541,37	1239,02
541,57	1259,50
541,77	1284,08
541,97	1245,16
542,16	1263,60
542,36	1279,98
542,56	1236,97
542,76	1245,16
542,95	1214,45
543,15	1292,27
543,35	1279,98
543,54	1302,51
543,74	1249,26
543,94	1218,54
544,14	1204,21
544,33	1314,80
544,53	1294,32
544,73	1316,84
544,93	1331,18
545,12	1251,31
545,32	1247,21
545,52	1253,36
545,71	1265,64
545,91	1310,70
546,11	1279,98
546,30	1261,55
546,50	1306,60
546,70	1257,45
546,90	1279,98
547,09	1251,31
547,29	1212,40
547,49	1282,03
547,68	1331,18
547,88	1216,49
548,08	1316,84
548,27	1320,94
548,47	1214,45
548,67	1269,74
548,87	1310,70
549,06	1155,05
549,26	1314,80
549,46	1247,21
549,65	1210,35
549,85	1253,36
550,05	1214,45
550,24	1216,49
550,44	1320,94
550,64	1269,74
550,83	1302,51
551,03	1263,60
551,23	1241,07
551,42	1218,54
551,62	1302,51
551,82	1265,64
552,01	1296,36
552,21	1265,64
552,41	1298,41
552,60	1279,98
552,80	1261,55
553,00	1296,36
553,19	1308,65
553,39	1271,79
553,59	1267,69
553,78	1304,56
553,98	1273,84
554,17	1282,03
554,37	1251,31
554,57	1269,74
554,76	1232,88
554,96	1318,89
555,16	1249,26
555,35	1253,36
555,55	1224,69
555,75	1253,36
555,94	1249,26
556,14	1204,21
556,33	1230,83
556,53	1294,32
556,73	1245,16
556,92	1310,70
557,12	1320,94
557,32	1265,64
557,51	1339,37
557,71	1257,45
557,90	1304,56
558,10	1318,89
558,30	1271,79
558,49	1267,69
558,69	1239,02
558,88	1296,36
559,08	1331,18
559,28	1267,69
559,47	1282,03
559,67	1241,07
559,86	1263,60
560,06	1306,60
560,26	1267,69
560,45	1224,69
560,65	1370,09
560,84	1277,93
561,04	1294,32
561,24	1279,98
561,43	1275,88
561,63	1282,03
561,82	1353,71
562,02	1216,49
562,22	1255,40
562,41	1271,79
562,61	1275,88
562,80	1239,02
563,00	1335,28
563,19	1271,79
563,39	1341,42
563,59	1304,56
563,78	1236,97
563,98	1282,03
564,17	1325,04
564,37	1210,35
564,56	1265,64
564,76	1263,60
564,96	1363,95
565,15	1232,88
565,35	1314,80
565,54	1279,98
565,74	1343,47
565,93	1279,98
566,13	1302,51
566,32	1320,94
566,52	1322,99
566,71	1249,26
566,91	1251,31
567,11	1308,65
567,30	1208,30
567,50	1277,93
567,69	1206,25
567,89	1308,65
568,08	1271,79
568,28	1345,52
568,47	1245,16
568,67	1257,45
568,86	1210,35
569,06	1296,36
569,25	1230,83
569,45	1273,84
569,64	1273,84
569,84	1247,21
570,04	1239,02
570,23	1232,88
570,43	1255,40
570,62	1222,64
570,82	1241,07
571,01	1286,12
571,21	1230,83
571,40	1277,93
571,60	1306,60
571,79	1253,36
571,99	1243,12
572,18	1220,59
572,38	1171,44
572,57	1261,55
572,77	1331,18
572,96	1282,03
573,16	1292,27
573,35	1282,03
573,55	1316,84
573,74	1214,45
573,94	1265,64
574,13	1234,93
574,33	1286,12
574,52	1241,07
574,71	1275,88
574,91	1253,36
575,10	1247,21
575,30	1249,26
575,49	1247,21
575,69	1230,83
575,88	1296,36
576,08	1292,27
576,27	1253,36
576,47	1292,27
576,66	1251,31
576,86	1257,45
577,05	1329,13
577,25	1310,70
577,44	1255,40
577,64	1148,91
577,83	1269,74
578,02	1232,88
578,22	1234,93
578,41	1353,71
578,61	1308,65
578,80	1277,93
579,00	1265,64
579,19	1236,97
579,39	1202,16
579,58	1249,26
579,77	1249,26
579,97	1269,74
580,16	1259,50
580,36	1257,45
580,55	1271,79
580,75	1308,65
580,94	1222,64
581,13	1271,79
581,33	1230,83
581,52	1255,40
581,72	1310,70
581,91	1284,08
582,11	1339,37
582,30	1263,60
582,49	1300,46
582,69	1249,26
582,88	1239,02
583,08	1294,32
583,27	1273,84
583,47	1247,21
583,66	1290,22
583,85	1337,32
584,05	1279,98
584,24	1257,45
584,44	1234,93
584,63	1202,16
584,82	1218,54
585,02	1327,08
585,21	1275,88
585,41	1228,78
585,60	1243,12
585,79	1292,27
585,99	1224,69
586,18	1310,70
586,37	1259,50
586,57	1224,69
586,76	1277,93
586,96	1290,22
587,15	1288,17
587,34	1277,93
587,54	1277,93
587,73	1300,46
587,93	1234,93
588,12	1224,69
588,31	1292,27
588,51	1265,64
588,70	1411,05
588,89	1257,45
589,09	1318,89
589,28	1312,75
589,47	1296,36
589,67	1316,84
589,86	1312,75
590,06	1279,98
590,25	1370,09
590,44	1300,46
590,64	1292,27
590,83	1257,45
591,02	1310,70
591,22	1302,51
591,41	1232,88
591,60	1206,25
591,80	1304,56
591,99	1191,92
592,18	1243,12
592,38	1206,25
592,57	1357,80
592,76	1347,56
592,96	1245,16
593,15	1261,55
593,34	1288,17
593,54	1290,22
593,73	1245,16
593,92	1282,03
594,12	1255,40
594,31	1189,87
594,50	1294,32
594,70	1243,12
594,89	1255,40
595,08	1292,27
595,28	1282,03
595,47	1284,08
595,66	1204,21
595,86	1236,97
596,05	1290,22
596,24	1265,64
596,43	1300,46
596,63	1271,79
596,82	1218,54
597,01	1245,16
597,21	1202,16
597,40	1228,78
597,59	1277,93
597,79	1310,70
597,98	1286,12
598,17	1302,51
598,36	1335,28
598,56	1290,22
598,75	1306,60
598,94	1226,73
599,14	1275,88
599,33	1247,21
599,52	1284,08
599,71	1239,02
599,91	1253,36
600,10	1257,45
600,29	1271,79
600,48	1230,83
600,68	1310,70
600,87	1251,31
601,06	1353,71
601,26	1189,87
601,45	1241,07
601,64	1308,65
601,83	1255,40
602,03	1208,30
602,22	1294,32
602,41	1265,64
602,60	1255,40
602,80	1193,97
602,99	1331,18
603,18	1308,65
603,37	1331,18
603,57	1298,41
603,76	1331,18
603,95	1304,56
604,14	1304,56
604,34	1275,88
604,53	1290,22
604,72	1257,45
604,91	1279,98
605,10	1241,07
605,30	1304,56
605,49	1220,59
605,68	1271,79
605,87	1308,65
606,07	1304,56
606,26	1329,13
606,45	1304,56
606,64	1322,99
606,84	1269,74
607,03	1282,03
607,22	1175,53
607,41	1261,55
607,60	1296,36
607,80	1296,36
607,99	1261,55
608,18	1230,83
608,37	1329,13
608,56	1273,84
608,76	1327,08
608,95	1298,41
609,14	1230,83
609,33	1232,88
609,52	1302,51
609,72	1290,22
609,91	1230,83
610,10	1329,13
610,29	1249,26
610,48	1267,69
610,68	1296,36
610,87	1247,21
611,06	1271,79
611,25	1222,64
611,44	1298,41
611,63	1286,12
611,83	1288,17
612,02	1228,78
612,21	1259,50
612,40	1216,49
612,59	1220,59
612,79	1277,93
612,98	1359,85
613,17	1282,03
613,36	1226,73
613,55	1261,55
613,74	1286,12
613,93	1271,79
614,13	1277,93
614,32	1251,31
614,51	1277,93
614,70	1263,60
614,89	1331,18
615,08	1343,47
615,28	1263,60
615,47	1251,31
615,66	1247,21
615,85	1267,69
616,04	1230,83
616,23	1265,64
616,42	1239,02
616,62	1234,93
616,81	1247,21
617,00	1286,12
617,19	1265,64
617,38	1277,93
617,57	1257,45
617,76	1271,79
617,95	1314,80
618,15	1351,66
618,34	1279,98
618,53	1236,97
618,72	1298,41
618,91	1286,12
619,10	1269,74
619,29	1218,54
619,48	1388,52
619,68	1228,78
619,87	1343,47
620,06	1251,31
620,25	1241,07
620,44	1277,93
620,63	1196,01
620,82	1257,45
621,01	1245,16
621,20	1228,78
621,39	1282,03
621,59	1210,35
621,78	1239,02
621,97	1241,07
622,16	1290,22
622,35	1273,84
622,54	1306,60
622,73	1265,64
622,92	1267,69
623,11	1265,64
623,30	1273,84
623,49	1277,93
623,68	1304,56
623,88	1273,84
624,07	1327,08
624,26	1308,65
624,45	1279,98
624,64	1279,98
624,83	1349,61
625,02	1253,36
625,21	1329,13
625,40	1232,88
625,59	1382,38
625,78	1273,84
625,97	1286,12
626,16	1263,60
626,35	1310,70
626,54	1271,79
626,74	1290,22
626,93	1257,45
627,12	1253,36
627,31	1220,59
627,50	1327,08
627,69	1286,12
627,88	1279,98
628,07	1261,55
628,26	1273,84
628,45	1306,60
628,64	1296,36
628,83	1269,74
629,02	1275,88
629,21	1345,52
629,40	1267,69
629,59	1288,17
629,78	1239,02
629,97	1253,36
630,16	1249,26
630,35	1300,46
630,54	1286,12
630,73	1327,08
630,92	1298,41
631,11	1349,61
631,30	1376,24
631,49	1300,46
631,68	1361,90
631,87	1529,83
632,06	1527,78
632,25	1517,54
632,44	1538,02
632,63	1552,36
632,82	1523,69
633,01	1757,16
633,20	1650,66
633,39	1628,14
633,58	1650,66
633,77	1613,80
633,96	1624,04
634,15	1609,70
634,34	1609,70
634,53	1562,60
634,72	1669,09
634,91	1613,80
635,10	1560,55
635,29	1568,74
635,48	1531,88
635,67	1562,60
635,86	1542,12
636,05	1427,43
636,24	1437,67
636,43	1386,47
636,62	1462,25
636,81	1355,76
637,00	1335,28
637,19	1386,47
637,38	1296,36
637,57	1345,52
637,76	1300,46
637,95	1312,75
638,14	1353,71
638,33	1286,12
638,52	1279,98
638,71	1325,04
638,89	1386,47
639,08	1331,18
639,27	1316,84
639,46	1296,36
639,65	1269,74
639,84	1243,12
640,03	1292,27
640,22	1372,14
640,41	1253,36
640,60	1241,07
640,79	1312,75
640,98	1245,16
641,17	1275,88
641,36	1308,65
641,55	1292,27
641,74	1218,54
641,92	1312,75
642,11	1302,51
642,30	1265,64
642,49	1294,32
642,68	1259,50
642,87	1218,54
643,06	1255,40
643,25	1320,94
643,44	1273,84
643,63	1298,41
643,82	1331,18
644,00	1273,84
644,19	1257,45
644,38	1312,75
644,57	1257,45
644,76	1277,93
644,95	1304,56
645,14	1298,41
645,33	1230,83
645,52	1288,17
645,71	1175,53
645,89	1273,84
646,08	1314,80
646,27	1228,78
646,46	1232,88
646,65	1279,98
646,84	1196,01
647,03	1230,83
647,22	1228,78
647,40	1286,12
647,59	1306,60
647,78	1314,80
647,97	1273,84
648,16	1255,40
648,35	1232,88
648,54	1322,99
648,73	1308,65
648,91	1279,98
649,10	1318,89
649,29	1255,40
649,48	1204,21
649,67	1275,88
649,86	1224,69
650,05	1202,16
650,23	1255,40
650,42	1255,40
650,61	1320,94
650,80	1271,79
650,99	1282,03
651,18	1298,41
651,36	1263,60
651,55	1273,84
651,74	1239,02
651,93	1214,45
652,12	1286,12
652,31	1286,12
652,49	1372,14
652,68	1282,03
652,87	1249,26
653,06	1277,93
653,25	1226,73
653,44	1269,74
653,62	1292,27
653,81	1255,40
654,00	1265,64
654,19	1296,36
654,38	1304,56
654,56	1302,51
654,75	1320,94
654,94	1157,10
655,13	1310,70
655,32	1263,60
655,51	1294,32
655,69	1269,74
655,88	1288,17
656,07	1249,26
656,26	1261,55
656,45	1247,21
656,63	1296,36
656,82	1222,64
657,01	1286,12
657,20	1263,60
657,38	1245,16
657,57	1259,50
657,76	1316,84
657,95	1337,32
658,14	1249,26
658,32	1396,71
658,51	1284,08
658,70	1294,32
658,89	1245,16
659,08	1320,94
659,26	1241,07
659,45	1251,31
659,64	1357,80
659,83	1216,49
660,01	1300,46
660,20	1236,97
660,39	1298,41
660,58	1279,98
660,76	1357,80
660,95	1339,37
661,14	1222,64
661,33	1331,18
661,51	1288,17
661,70	1226,73
661,89	1239,02
662,08	1251,31
662,26	1279,98
662,45	1222,64
662,64	1329,13
662,83	1206,25
663,01	1214,45
663,20	1331,18
663,39	1275,88
663,58	1267,69
663,76	1200,11
663,95	1282,03
664,14	1279,98
664,32	1236,97
664,51	1296,36
664,70	1251,31
664,89	1249,26
665,07	1296,36
665,26	1314,80
665,45	1243,12
665,64	1355,76
665,82	1247,21
666,01	1234,93
666,20	1290,22
666,38	1320,94
666,57	1279,98
666,76	1322,99
666,95	1230,83
667,13	1302,51
667,32	1271,79
667,51	1216,49
667,69	1234,93
667,88	1253,36
668,07	1175,53
668,25	1261,55
668,44	1279,98
668,63	1214,45
668,81	1296,36
669,00	1302,51
669,19	1320,94
669,38	1277,93
669,56	1267,69
669,75	1228,78
669,94	1243,12
670,12	1273,84
670,31	1273,84
670,50	1247,21
670,68	1306,60
670,87	1196,01
671,06	1304,56
671,24	1249,26
671,43	1257,45
671,62	1267,69
671,80	1259,50
671,99	1187,82
672,18	1239,02
672,36	1222,64
672,55	1306,60
672,74	1284,08
672,92	1267,69
673,11	1316,84
673,29	1284,08
673,48	1265,64
673,67	1290,22
673,85	1271,79
674,04	1314,80
674,23	1277,93
674,41	1290,22
674,60	1226,73
674,79	1208,30
674,97	1277,93
675,16	1288,17
675,34	1296,36
675,53	1271,79
675,72	1284,08
675,90	1273,84
676,09	1222,64
676,28	1290,22
676,46	1327,08
676,65	1310,70
676,83	1212,40
677,02	1271,79
677,21	1175,53
677,39	1193,97
677,58	1265,64
677,77	1310,70
677,95	1241,07
678,14	1298,41
678,32	1298,41
678,51	1300,46
678,70	1267,69
678,88	1245,16
679,07	1286,12
679,25	1296,36
679,44	1282,03
679,63	1245,16
679,81	1236,97
680,00	1298,41
680,18	1263,60
680,37	1253,36
680,55	1296,36
680,74	1253,36
680,93	1239,02
681,11	1333,23
681,30	1259,50
681,48	1177,58
681,67	1304,56
681,85	1314,80
682,04	1236,97
682,23	1214,45
682,41	1220,59
682,60	1245,16
682,78	1245,16
682,97	1263,60
683,15	1329,13
683,34	1300,46
683,53	1314,80
683,71	1222,64
683,90	1359,85
684,08	1347,56
684,27	1345,52
684,45	1241,07
684,64	1314,80
684,82	1275,88
685,01	1181,68
685,19	1277,93
685,38	1308,65
685,57	1355,76
685,75	1271,79
685,94	1218,54
686,12	1314,80
686,31	1214,45
686,49	1251,31
686,68	1316,84
686,86	1290,22
687,05	1228,78
687,23	1312,75
687,42	1249,26
687,60	1226,73
687,79	1308,65
687,97	1378,28
688,16	1298,41
688,34	1257,45
688,53	1310,70
688,71	1259,50
688,90	1288,17
689,08	1290,22
689,27	1241,07
689,45	1355,76
689,64	1345,52
689,82	1390,57
690,01	1257,45
690,19	1208,30
690,38	1210,35
690,56	1279,98
690,75	1198,06
690,93	1322,99
691,12	1241,07
691,30	1302,51
691,49	1322,99
691,67	1320,94
691,86	1220,59
692,04	1275,88
692,23	1245,16
692,41	1349,61
692,60	1322,99
692,78	1259,50
692,97	1245,16
693,15	1265,64
693,34	1277,93
693,52	1304,56
693,71	1208,30
693,89	1290,22
694,08	1275,88
694,26	1284,08
694,44	1277,93
694,63	1241,07
694,81	1351,66
695,00	1247,21
695,18	1265,64
695,37	1232,88
695,55	1306,60
695,74	1331,18
695,92	1241,07
696,10	1331,18
696,29	1230,83
696,47	1290,22
696,66	1271,79
696,84	1247,21
697,03	1255,40
697,21	1277,93
697,40	1275,88
697,58	1384,43
697,76	1302,51
697,95	1288,17
698,13	1279,98
698,32	1261,55
698,50	1232,88
698,68	1275,88
698,87	1294,32
699,05	1273,84
699,24	1247,21
699,42	1300,46
699,61	1277,93
699,79	1341,42
699,97	1286,12
700,16	1216,49
700,34	1288,17
700,53	1294,32
700,71	1286,12
700,89	1314,80
701,08	1267,69
701,26	1298,41
701,45	1263,60
701,63	1306,60
701,81	1222,64
702,00	1275,88
702,18	1275,88
702,37	1247,21
702,55	1286,12
702,73	1304,56
702,92	1288,17
703,10	1230,83
703,28	1267,69
703,47	1206,25
703,65	1290,22
703,84	1282,03
704,02	1208,30
704,20	1241,07
704,39	1226,73
704,57	1257,45
704,75	1226,73
704,94	1286,12
705,12	1245,16
705,30	1275,88
705,49	1325,04
705,67	1249,26
705,86	1292,27
706,04	1316,84
706,22	1255,40
706,41	1263,60
706,59	1316,84
706,77	1279,98
706,96	1316,84
707,14	1310,70
707,32	1249,26
707,51	1294,32
707,69	1347,56
707,87	1224,69
708,06	1265,64
708,24	1263,60
708,42	1329,13
708,61	1267,69
708,79	1202,16
708,97	1249,26
709,16	1234,93
709,34	1288,17
709,52	1261,55
709,71	1247,21
709,89	1279,98
710,07	1200,11
710,26	1222,64
710,44	1296,36
710,62	1196,01
710,80	1327,08
710,99	1247,21
711,17	1251,31
711,35	1331,18
711,54	1288,17
711,72	1265,64
711,90	1320,94
712,09	1208,30
712,27	1343,47
712,45	1314,80
712,63	1288,17
712,82	1363,95
713,00	1279,98
713,18	1286,12
713,37	1320,94
713,55	1243,12
713,73	1294,32
713,91	1269,74
714,10	1241,07
714,28	1304,56
714,46	1284,08
714,65	1210,35
714,83	1279,98
715,01	1286,12
715,19	1296,36
715,38	1267,69
715,56	1292,27
715,74	1239,02
715,92	1333,23
716,11	1345,52
716,29	1339,37
716,47	1245,16
716,65	1232,88
716,84	1257,45
717,02	1294,32
717,20	1239,02
717,38	1273,84
717,57	1259,50
717,75	1306,60
717,93	1275,88
718,11	1316,84
718,30	1275,88
718,48	1255,40
718,66	1322,99
718,84	1253,36
719,03	1355,76
719,21	1216,49
719,39	1212,40
719,57	1314,80
719,75	1273,84
719,94	1196,01
720,12	1224,69
720,30	1236,97
720,48	1288,17
720,67	1271,79
720,85	1279,98
721,03	1251,31
721,21	1279,98
721,39	1241,07
721,58	1236,97
721,76	1288,17
721,94	1206,25
722,12	1275,88
722,30	1329,13
722,49	1220,59
722,67	1249,26
722,85	1312,75
723,03	1275,88
723,21	1259,50
723,40	1361,90
723,58	1273,84
723,76	1329,13
723,94	1263,60
724,12	1286,12
724,30	1224,69
724,49	1322,99
724,67	1306,60
724,85	1304,56
725,03	1318,89
725,21	1318,89
725,40	1312,75
725,58	1284,08
725,76	1343,47
725,94	1249,26
726,12	1267,69
726,30	1298,41
726,49	1312,75
726,67	1333,23
726,85	1312,75
727,03	1241,07
727,21	1251,31
727,39	1282,03
727,57	1255,40
727,76	1314,80
727,94	1314,80
728,12	1306,60
728,30	1288,17
728,48	1298,41
728,66	1255,40
728,84	1312,75
729,03	1359,85
729,21	1232,88
729,39	1216,49
729,57	1269,74
729,75	1269,74
729,93	1265,64
730,11	1232,88
730,30	1271,79
730,48	1294,32
730,66	1226,73
730,84	1263,60
731,02	1304,56
731,20	1265,64
731,38	1298,41
731,56	1253,36
731,74	1218,54
731,93	1251,31
732,11	1314,80
732,29	1271,79
732,47	1196,01
732,65	1232,88
732,83	1277,93
733,01	1282,03
733,19	1298,41
733,37	1322,99
733,56	1243,12
733,74	1300,46
733,92	1318,89
734,10	1210,35
734,28	1230,83
734,46	1255,40
734,64	1236,97
734,82	1253,36
735,00	1202,16
735,18	1230,83
735,36	1243,12
735,54	1241,07
735,73	1241,07
735,91	1261,55
736,09	1249,26
736,27	1279,98
736,45	1282,03
736,63	1277,93
736,81	1253,36
736,99	1290,22
737,17	1265,64
737,35	1296,36
737,53	1327,08
737,71	1271,79
737,89	1269,74
738,07	1222,64
738,25	1322,99
738,43	1265,64
738,61	1298,41
738,80	1337,32
738,98	1247,21
739,16	1279,98
739,34	1284,08
739,52	1241,07
739,70	1273,84
739,88	1333,23
740,06	1275,88
740,24	1304,56
740,42	1288,17
740,60	1273,84
740,78	1308,65
740,96	1255,40
741,14	1271,79
741,32	1304,56
741,50	1267,69
741,68	1284,08
741,86	1263,60
742,04	1282,03
742,22	1196,01
742,40	1302,51
742,58	1216,49
742,76	1263,60
742,94	1249,26
743,12	1302,51
743,30	1269,74
743,48	1306,60
743,66	1279,98
743,84	1193,97
744,02	1337,32
744,20	1269,74
744,38	1277,93
744,56	1173,49
744,74	1247,21
744,92	1314,80
745,10	1292,27
745,28	1251,31
745,46	1198,06
745,64	1241,07
745,82	1296,36
746,00	1265,64
746,18	1222,64
746,36	1263,60
746,54	1314,80
746,72	1261,55
746,90	1314,80
747,08	1271,79
747,26	1239,02
747,44	1191,92
747,62	1241,07
747,80	1298,41
747,98	1273,84
748,15	1294,32
748,33	1249,26
748,51	1228,78
748,69	1306,60
748,87	1245,16
749,05	1173,49
749,23	1263,60
749,41	1312,75
749,59	1267,69
749,77	1279,98
749,95	1253,36
750,13	1245,16
750,31	1269,74
750,49	1249,26
750,67	1275,88
750,85	1304,56
751,03	1196,01
751,20	1271,79
751,38	1359,85
751,56	1277,93
751,74	1234,93
751,92	1265,64
752,10	1271,79
752,28	1277,93
752,46	1282,03
752,64	1218,54
752,82	1308,65
753,00	1206,25
753,18	1304,56
753,35	1185,77
753,53	1357,80
753,71	1322,99
753,89	1404,91
754,07	1245,16
754,25	1279,98
754,43	1333,23
754,61	1255,40
754,79	1329,13
754,97	1308,65
755,14	1292,27
755,32	1316,84
755,50	1329,13
755,68	1193,97
755,86	1243,12
756,04	1224,69
756,22	1218,54
756,40	1181,68
756,57	1216,49
756,75	1312,75
756,93	1294,32
757,11	1150,96
757,29	1226,73
757,47	1179,63
757,65	1320,94
757,82	1191,92
758,00	1257,45
758,18	1271,79
758,36	1218,54
758,54	1306,60
758,72	1331,18
758,90	1282,03
759,07	1255,40
759,25	1241,07
759,43	1308,65
759,61	1279,98
759,79	1265,64
759,97	1251,31
760,15	1222,64
760,32	1255,40
760,50	1236,97
760,68	1279,98
760,86	1253,36
761,04	1298,41
761,22	1218,54
761,39	1288,17
761,57	1304,56
761,75	1318,89
761,93	1210,35
762,11	1189,87
762,28	1306,60
762,46	1265,64
762,64	1320,94
762,82	1265,64
763,00	1230,83
763,18	1343,47
763,35	1259,50
763,53	1282,03
763,71	1241,07
763,89	1261,55
764,07	1259,50
764,24	1232,88
764,42	1202,16
764,60	1267,69
764,78	1290,22
764,96	1296,36
765,13	1269,74
765,31	1255,40
765,49	1210,35
765,67	1286,12
765,84	1236,97
766,02	1249,26
766,20	1275,88
766,38	1320,94
766,56	1138,67
766,73	1304,56
766,91	1228,78
767,09	1271,79
767,27	1329,13
767,44	1269,74
767,62	1224,69
767,80	1306,60
767,98	1333,23
768,15	1271,79
768,33	1290,22
768,51	1312,75
768,69	1310,70
768,87	1306,60
769,04	1230,83
769,22	1273,84
769,40	1345,52
769,58	1331,18
769,75	1249,26
769,93	1232,88
770,11	1206,25
770,28	1327,08
770,46	1210,35
770,64	1290,22
770,82	1249,26
770,99	1239,02
771,17	1245,16
771,35	1337,32
771,53	1265,64
771,70	1247,21
771,88	1331,18
772,06	1388,52
772,23	1241,07
772,41	1308,65
772,59	1220,59
772,77	1253,36
772,94	1181,68
773,12	1304,56
773,30	1292,27
773,47	1302,51
773,65	1255,40
773,83	1337,32
774,01	1314,80
774,18	1263,60
774,36	1224,69
774,54	1253,36
774,71	1269,74
774,89	1325,04
775,07	1263,60
775,24	1249,26
775,42	1245,16
775,60	1277,93
775,78	1302,51
775,95	1359,85
776,13	1269,74
776,31	1245,16
776,48	1257,45
776,66	1279,98
776,84	1275,88
777,01	1363,95
777,19	1273,84
777,37	1249,26
777,54	1224,69
777,72	1294,32
777,90	1263,60
778,07	1249,26
778,25	1216,49
778,43	1335,28
778,60	1208,30
778,78	1320,94
778,96	1284,08
779,13	1339,37
779,31	1290,22
779,49	1288,17
779,66	1234,93
779,84	1249,26
780,01	1290,22
780,19	1255,40
780,37	1282,03
780,54	1271,79
780,72	1296,36
780,90	1257,45
781,07	1241,07
781,25	1337,32
781,43	1251,31
781,60	1370,09
781,78	1308,65
781,95	1284,08
782,13	1251,31
782,31	1220,59
782,48	1253,36
782,66	1286,12
782,83	1241,07
783,01	1310,70
783,19	1267,69
783,36	1308,65
783,54	1212,40
783,72	1224,69
783,89	1200,11
784,07	1216,49
784,24	1263,60
784,42	1320,94
784,60	1232,88
784,77	1236,97
784,95	1257,45
785,12	1265,64
785,30	1216,49
785,47	1263,60
785,65	1265,64
785,83	1361,90
786,00	1249,26
786,18	1261,55
786,35	1286,12
786,53	1257,45
786,71	1294,32
786,88	1263,60
787,06	1193,97
787,23	1220,59
787,41	1249,26
787,58	1263,60
787,76	1228,78
787,94	1253,36
788,11	1290,22
788,29	1251,31
788,46	1282,03
788,64	1263,60
788,81	1175,53
788,99	1284,08
789,16	1331,18
789,34	1296,36
789,52	1247,21
789,69	1236,97
789,87	1300,46
790,04	1279,98
790,22	1277,93
790,39	1245,16
790,57	1253,36
790,74	1304,56
790,92	1214,45
791,09	1257,45
791,27	1300,46
791,44	1284,08
791,62	1259,50
791,79	1302,51
791,97	1277,93
792,15	1372,14
792,32	1269,74
792,50	1239,02
792,67	1261,55
792,85	1267,69
793,02	1222,64
793,20	1292,27
793,37	1236,97
793,55	1269,74
793,72	1322,99
793,90	1290,22
794,07	1296,36
794,25	1298,41
794,42	1257,45
794,60	1318,89
794,77	1298,41
794,95	1273,84
795,12	1234,93
795,30	1279,98
795,47	1249,26
795,65	1275,88
795,82	1234,93
796,00	1298,41
796,17	1290,22
796,34	1249,26
796,52	1300,46
796,69	1273,84
796,87	1255,40
797,04	1294,32
797,22	1351,66
797,39	1304,56
797,57	1216,49
797,74	1298,41
797,92	1265,64
798,09	1251,31
798,27	1253,36
798,44	1220,59
798,62	1265,64
798,79	1241,07
798,96	1322,99
799,14	1259,50
799,31	1218,54
799,49	1292,27
799,66	1234,93
799,84	1290,22
800,01	1267,69
800,19	1308,65
800,36	1265,64
800,53	1247,21
800,71	1337,32
800,88	1271,79
801,06	1181,68
801,23	1277,93
801,41	1296,36
801,58	1267,69
801,75	1234,93
801,93	1304,56
802,10	1298,41
802,28	1249,26
802,45	1269,74
802,63	1222,64
802,80	1277,93
802,97	1243,12
803,15	1253,36
803,32	1241,07
803,50	1208,30
803,67	1265,64
803,84	1286,12
804,02	1273,84
804,19	1247,21
804,37	1265,64
804,54	1286,12
804,71	1257,45
804,89	1286,12
805,06	1230,83
805,24	1275,88
805,41	1255,40
805,58	1296,36
805,76	1325,04
805,93	1290,22
806,10	1308,65
806,28	1222,64
806,45	1228,78
806,63	1214,45
806,80	1322,99
806,97	1273,84
807,15	1314,80
807,32	1267,69
807,49	1277,93
807,67	1196,01
807,84	1279,98
808,01	1290,22
808,19	1275,88
808,36	1314,80
808,54	1304,56
808,71	1267,69
808,88	1304,56
809,06	1257,45
809,23	1261,55
809,40	1193,97
809,58	1302,51
809,75	1249,26
809,92	1277,93
810,10	1230,83
810,27	1322,99
810,44	1259,50
810,62	1241,07
810,79	1206,25
810,96	1234,93
811,14	1294,32
811,31	1298,41
811,48	1277,93
811,66	1222,64
811,83	1273,84
812,00	1198,06
812,18	1224,69
812,35	1267,69
812,52	1228,78
812,69	1302,51
812,87	1290,22
813,04	1218,54
813,21	1208,30
813,39	1298,41
813,56	1234,93
813,73	1263,60
813,91	1271,79
814,08	1144,81
814,25	1294,32
814,42	1236,97
814,60	1224,69
814,77	1312,75
814,94	1298,41
815,12	1355,76
815,29	1228,78
815,46	1286,12
815,63	1218,54
815,81	1327,08
815,98	1273,84
816,15	1273,84
816,33	1257,45
816,50	1292,27
816,67	1236,97
816,84	1302,51
817,02	1249,26
817,19	1327,08
817,36	1282,03
817,53	1265,64
817,71	1302,51
817,88	1257,45
818,05	1282,03
818,22	1245,16
818,40	1236,97
818,57	1200,11
818,74	1241,07
818,91	1259,50
819,09	1251,31
819,26	1284,08
819,43	1218,54
819,60	1245,16
819,78	1236,97
819,95	1298,41
820,12	1212,40
820,29	1351,66
820,47	1269,74
820,64	1320,94
820,81	1277,93
820,98	1351,66
821,15	1310,70
821,33	1204,21
821,50	1286,12
821,67	1304,56
821,84	1236,97
822,02	1273,84
822,19	1220,59
822,36	1288,17
822,53	1267,69
822,70	1292,27
822,88	1267,69
823,05	1320,94
823,22	1288,17
823,39	1304,56
823,56	1273,84
823,74	1349,61
823,91	1304,56
824,08	1255,40
824,25	1288,17
824,42	1202,16
824,60	1279,98
824,77	1345,52
824,94	1310,70
825,11	1277,93
825,28	1282,03
825,45	1243,12
825,63	1282,03
825,80	1251,31
825,97	1314,80
826,14	1300,46
826,31	1232,88
826,48	1247,21
826,66	1265,64
826,83	1214,45
827,00	1257,45
827,17	1308,65
827,34	1296,36
827,51	1279,98
827,69	1378,28
827,86	1204,21
828,03	1255,40
828,20	1257,45
828,37	1259,50
828,54	1216,49
828,71	1308,65
828,89	1232,88
829,06	1288,17
829,23	1232,88
829,40	1210,35
829,57	1333,23
829,74	1253,36
829,91	1329,13
830,09	1306,60
830,26	1312,75
830,43	1212,40
830,60	1284,08
830,77	1271,79
830,94	1312,75
831,11	1261,55
831,28	1314,80
831,46	1259,50
831,63	1290,22
831,80	1306,60
831,97	1277,93
832,14	1284,08
832,31	1208,30
832,48	1294,32
832,65	1325,04
832,82	1265,64
832,99	1251,31
833,17	1279,98
833,34	1288,17
833,51	1230,83
833,68	1105,90
833,85	1243,12
834,02	1275,88
834,19	1234,93
834,36	1255,40
834,53	1294,32
834,70	1273,84
834,87	1236,97
835,04	1271,79
835,22	1206,25
835,39	1230,83
835,56	1290,22
835,73	1265,64
835,90	1284,08
836,07	1263,60
836,24	1261,55
836,41	1228,78
836,58	1239,02
836,75	1210,35
836,92	1236,97
837,09	1331,18
837,26	1279,98
837,43	1239,02
837,60	1341,42
837,77	1269,74
837,94	1286,12
838,12	1296,36
838,29	1279,98
838,46	1212,40
838,63	1294,32
838,80	1241,07
838,97	1279,98
839,14	1298,41
839,31	1279,98
839,48	1245,16
839,65	1271,79
839,82	1335,28
839,99	1325,04
840,16	1191,92
840,33	1363,95
840,50	1292,27
840,67	1251,31
840,84	1290,22
841,01	1304,56
841,18	1253,36
841,35	1236,97
841,52	1273,84
841,69	1296,36
841,86	1269,74
842,03	1249,26
842,20	1247,21
842,37	1196,01
842,54	1292,27
842,71	1259,50
842,88	1241,07
843,05	1220,59
843,22	1267,69
843,39	1284,08
843,56	1255,40
843,73	1318,89
843,90	1263,60
844,07	1318,89
844,24	1224,69
844,41	1294,32
844,58	1273,84
844,75	1322,99
844,92	1251,31
845,09	1275,88
845,26	1247,21
845,43	1271,79
845,60	1273,84
845,77	1298,41
845,94	1255,40
846,10	1267,69
846,27	1290,22
846,44	1288,17
846,61	1300,46
846,78	1322,99
846,95	1255,40
847,12	1302,51
847,29	1263,60
847,46	1286,12
847,63	1232,88
847,80	1273,84
847,97	1294,32
848,14	1322,99
848,31	1304,56
848,48	1269,74
848,65	1245,16
848,82	1279,98
848,98	1288,17
849,15	1259,50
849,32	1275,88
849,49	1282,03
849,66	1279,98
849,83	1277,93
850,00	1230,83
850,17	1253,36
850,34	1296,36
850,51	1261,55
850,68	1275,88
850,85	1277,93
851,01	1220,59
851,18	1191,92
851,35	1374,19
851,52	1288,17
851,69	1251,31
851,86	1265,64
852,03	1290,22
852,20	1286,12
852,37	1269,74
852,53	1331,18
852,70	1261,55
852,87	1212,40
853,04	1224,69
853,21	1318,89
853,38	1279,98
853,55	1214,45
853,72	1329,13
853,89	1228,78
854,05	1312,75
854,22	1275,88
854,39	1206,25
854,56	1298,41
854,73	1282,03
854,90	1269,74
855,07	1257,45
855,23	1288,17
855,40	1294,32
855,57	1292,27
855,74	1232,88
855,91	1304,56
856,08	1251,31
856,25	1208,30
856,41	1263,60
856,58	1245,16
856,75	1241,07
856,92	1277,93
857,09	1304,56
857,26	1226,73
857,42	1279,98
857,59	1224,69
857,76	1257,45
857,93	1239,02
858,10	1322,99
858,27	1202,16
858,43	1308,65
858,60	1234,93
858,77	1249,26
858,94	1273,84
859,11	1320,94
859,27	1206,25
859,44	1251,31
859,61	1341,42
859,78	1206,25
859,95	1288,17
860,12	1214,45
860,28	1265,64
860,45	1327,08
860,62	1294,32
860,79	1314,80
860,95	1275,88
861,12	1277,93
861,29	1239,02
861,46	1220,59
861,63	1202,16
861,79	1298,41
861,96	1259,50
862,13	1234,93
862,30	1224,69
862,47	1234,93
862,63	1239,02
862,80	1312,75
862,97	1220,59
863,14	1271,79
863,30	1208,30
863,47	1249,26
863,64	1318,89
863,81	1279,98
863,97	1279,98
864,14	1255,40
864,31	1286,12
864,48	1298,41
864,65	1290,22
864,81	1292,27
864,98	1251,31
865,15	1294,32
865,32	1345,52
865,48	1259,50
865,65	1273,84
865,82	1304,56
865,98	1226,73
866,15	1302,51
866,32	1236,97
866,49	1259,50
866,65	1234,93
866,82	1239,02
866,99	1239,02
867,16	1210,35
867,32	1308,65
867,49	1314,80
867,66	1288,17
867,83	1282,03
867,99	1196,01
868,16	1341,42
868,33	1318,89
868,49	1193,97
868,66	1296,36
868,83	1232,88
868,99	1259,50
869,16	1290,22
869,33	1243,12
869,50	1290,22
869,66	1343,47
869,83	1261,55
870,00	1241,07
870,16	1279,98
870,33	1284,08
870,50	1314,80
870,66	1343,47
870,83	1277,93
871,00	1222,64
871,17	1232,88
871,33	1239,02
871,50	1259,50
871,67	1239,02
871,83	1267,69
872,00	1314,80
872,17	1312,75
872,33	1275,88
872,50	1306,60
872,67	1320,94
872,83	1302,51
873,00	1273,84
873,17	1312,75
873,33	1224,69
873,50	1249,26
873,67	1337,32
873,83	1298,41
874,00	1294,32
874,16	1263,60
874,33	1232,88
874,50	1247,21
874,66	1288,17
874,83	1267,69
875,00	1269,74
875,16	1245,16
875,33	1294,32
875,50	1314,80
875,66	1277,93
875,83	1273,84
875,99	1208,30
876,16	1361,90
876,33	1257,45
876,49	1243,12
876,66	1337,32
876,83	1310,70
876,99	1247,21
877,16	1347,56
877,32	1232,88
877,49	1316,84
877,66	1234,93
877,82	1290,22
877,99	1284,08
878,15	1257,45
878,32	1306,60
878,49	1284,08
878,65	1318,89
878,82	1374,19
878,98	1214,45
879,15	1243,12
879,32	1292,27
879,48	1296,36
879,65	1253,36
879,81	1343,47
879,98	1277,93
880,15	1265,64
880,31	1329,13
880,48	1257,45
880,64	1234,93
880,81	1232,88
880,97	1181,68
881,14	1292,27
881,31	1247,21
881,47	1300,46
881,64	1259,50
881,80	1253,36
881,97	1210,35
882,13	1325,04
882,30	1282,03
882,47	1249,26
882,63	1257,45
882,80	1222,64
882,96	1269,74
883,13	1308,65
883,29	1187,82
883,46	1228,78
883,62	1302,51
883,79	1236,97
883,95	1337,32
884,12	1286,12
884,29	1343,47
884,45	1314,80
884,62	1255,40
884,78	1306,60
884,95	1298,41
885,11	1298,41
885,28	1193,97
885,44	1257,45
885,61	1218,54
885,77	1255,40
885,94	1277,93
886,10	1355,76
886,27	1306,60
886,43	1306,60
886,60	1306,60
886,76	1234,93
886,93	1249,26
887,09	1331,18
887,26	1234,93
887,42	1249,26
887,59	1218,54
887,75	1294,32
887,92	1247,21
888,08	1212,40
888,25	1279,98
888,41	1206,25
888,58	1312,75
888,74	1236,97
888,91	1286,12
>>>>>End Processed Spectral Data<<<<<
