SpectraSuite Data File
++++++++++++++++++++++++++++++++++++
Date: Sun Apr 03 15:45:04 CEST 2016
User: root
Dark Spectrum Present: No
Reference Spectrum Present: No
Number of Sampled Component Spectra: 1
Spectrometers: USB4C02835
Integration Time (usec): 10000 (USB4C02835)
Spectra Averaged: 1 (USB4C02835)
Boxcar Smoothing: 0 (USB4C02835)
Correct for Electrical Dark: No (USB4C02835)
Strobe/Lamp Enabled: No (USB4C02835)
Correct for Detector Non-linearity: No (USB4C02835)
Correct for Stray Light: No (USB4C02835)
Number of Pixels in Processed Spectrum: 3648
>>>>>Begin Processed Spectral Data<<<<<
177,47	1200,11
177,69	1200,11
177,91	1200,11
178,13	1236,97
178,36	1273,84
178,58	1220,59
178,80	1206,25
179,02	1243,12
179,24	1224,69
179,46	1267,69
179,68	1224,69
179,90	1290,22
180,13	1279,98
180,35	1279,98
180,57	1304,56
180,79	1222,64
181,01	1236,97
181,23	1292,27
181,45	1318,89
181,67	1312,75
181,90	1261,55
182,12	1257,45
182,34	1214,45
182,56	1255,40
182,78	1294,32
183,00	1277,93
183,22	1232,88
183,44	1366,00
183,66	1261,55
183,89	1284,08
184,11	1257,45
184,33	1296,36
184,55	1261,55
184,77	1277,93
184,99	1279,98
185,21	1306,60
185,43	1269,74
185,65	1261,55
185,87	1308,65
186,10	1302,51
186,32	1257,45
186,54	1257,45
186,76	1310,70
186,98	1275,88
187,20	1286,12
187,42	1234,93
187,64	1298,41
187,86	1245,16
188,08	1261,55
188,30	1312,75
188,52	1310,70
188,75	1284,08
188,97	1261,55
189,19	1191,92
189,41	1298,41
189,63	1265,64
189,85	1329,13
190,07	1277,93
190,29	1277,93
190,51	1327,08
190,73	1275,88
190,95	1294,32
191,17	1296,36
191,39	1236,97
191,61	1277,93
191,84	1349,61
192,06	1263,60
192,28	1282,03
192,50	1257,45
192,72	1232,88
192,94	1247,21
193,16	1339,37
193,38	1259,50
193,60	1296,36
193,82	1200,11
194,04	1245,16
194,26	1288,17
194,48	1206,25
194,70	1265,64
194,92	1216,49
195,14	1234,93
195,36	1284,08
195,58	1320,94
195,80	1339,37
196,02	1271,79
196,24	1322,99
196,46	1255,40
196,69	1228,78
196,91	1236,97
197,13	1232,88
197,35	1290,22
197,57	1228,78
197,79	1241,07
198,01	1318,89
198,23	1316,84
198,45	1263,60
198,67	1312,75
198,89	1288,17
199,11	1290,22
199,33	1327,08
199,55	1290,22
199,77	1267,69
199,99	1247,21
200,21	1230,83
200,43	1267,69
200,65	1253,36
200,87	1263,60
201,09	1269,74
201,31	1200,11
201,53	1290,22
201,75	1202,16
201,97	1335,28
202,19	1325,04
202,41	1294,32
202,63	1216,49
202,85	1234,93
203,07	1306,60
203,29	1339,37
203,51	1275,88
203,73	1290,22
203,95	1314,80
204,17	1279,98
204,39	1187,82
204,61	1234,93
204,83	1255,40
205,05	1322,99
205,27	1259,50
205,49	1279,98
205,71	1259,50
205,93	1253,36
206,15	1267,69
206,37	1277,93
206,59	1290,22
206,81	1286,12
207,03	1306,60
207,25	1271,79
207,47	1284,08
207,69	1234,93
207,91	1245,16
208,13	1212,40
208,34	1245,16
208,56	1341,42
208,78	1273,84
209,00	1257,45
209,22	1277,93
209,44	1224,69
209,66	1249,26
209,88	1300,46
210,10	1239,02
210,32	1294,32
210,54	1241,07
210,76	1224,69
210,98	1257,45
211,20	1236,97
211,42	1296,36
211,64	1349,61
211,86	1302,51
212,08	1257,45
212,30	1316,84
212,52	1300,46
212,74	1222,64
212,96	1232,88
213,17	1216,49
213,39	1271,79
213,61	1284,08
213,83	1320,94
214,05	1273,84
214,27	1253,36
214,49	1314,80
214,71	1265,64
214,93	1302,51
215,15	1239,02
215,37	1232,88
215,59	1239,02
215,81	1243,12
216,03	1214,45
216,24	1273,84
216,46	1249,26
216,68	1298,41
216,90	1200,11
217,12	1298,41
217,34	1282,03
217,56	1298,41
217,78	1318,89
218,00	1255,40
218,22	1185,77
218,44	1318,89
218,66	1279,98
218,87	1359,85
219,09	1249,26
219,31	1193,97
219,53	1263,60
219,75	1314,80
219,97	1265,64
220,19	1275,88
220,41	1218,54
220,63	1251,31
220,85	1335,28
221,06	1257,45
221,28	1275,88
221,50	1292,27
221,72	1255,40
221,94	1234,93
222,16	1322,99
222,38	1196,01
222,60	1310,70
222,82	1265,64
223,03	1376,24
223,25	1290,22
223,47	1275,88
223,69	1312,75
223,91	1312,75
224,13	1232,88
224,35	1325,04
224,57	1316,84
224,78	1298,41
225,00	1351,66
225,22	1249,26
225,44	1298,41
225,66	1271,79
225,88	1236,97
226,10	1302,51
226,32	1353,71
226,53	1239,02
226,75	1243,12
226,97	1247,21
227,19	1255,40
227,41	1294,32
227,63	1282,03
227,85	1224,69
228,06	1273,84
228,28	1279,98
228,50	1298,41
228,72	1187,82
228,94	1331,18
229,16	1300,46
229,37	1253,36
229,59	1298,41
229,81	1224,69
230,03	1255,40
230,25	1339,37
230,47	1230,83
230,69	1234,93
230,90	1245,16
231,12	1312,75
231,34	1269,74
231,56	1290,22
231,78	1286,12
232,00	1241,07
232,21	1247,21
232,43	1335,28
232,65	1249,26
232,87	1249,26
233,09	1245,16
233,30	1288,17
233,52	1206,25
233,74	1247,21
233,96	1327,08
234,18	1269,74
234,40	1288,17
234,61	1224,69
234,83	1228,78
235,05	1247,21
235,27	1298,41
235,49	1265,64
235,70	1236,97
235,92	1247,21
236,14	1282,03
236,36	1302,51
236,58	1288,17
236,79	1302,51
237,01	1236,97
237,23	1318,89
237,45	1298,41
237,67	1288,17
237,88	1277,93
238,10	1263,60
238,32	1273,84
238,54	1290,22
238,76	1273,84
238,97	1191,92
239,19	1286,12
239,41	1320,94
239,63	1261,55
239,85	1234,93
240,06	1335,28
240,28	1220,59
240,50	1228,78
240,72	1148,91
240,93	1314,80
241,15	1320,94
241,37	1282,03
241,59	1247,21
241,81	1257,45
242,02	1302,51
242,24	1257,45
242,46	1296,36
242,68	1261,55
242,89	1279,98
243,11	1183,73
243,33	1251,31
243,55	1286,12
243,76	1275,88
243,98	1247,21
244,20	1222,64
244,42	1282,03
244,64	1241,07
244,85	1271,79
245,07	1251,31
245,29	1284,08
245,51	1232,88
245,72	1183,73
245,94	1261,55
246,16	1306,60
246,38	1255,40
246,59	1306,60
246,81	1267,69
247,03	1200,11
247,24	1239,02
247,46	1249,26
247,68	1306,60
247,90	1282,03
248,11	1232,88
248,33	1226,73
248,55	1310,70
248,77	1249,26
248,98	1236,97
249,20	1314,80
249,42	1222,64
249,64	1226,73
249,85	1275,88
250,07	1306,60
250,29	1257,45
250,50	1286,12
250,72	1249,26
250,94	1288,17
251,16	1372,14
251,37	1253,36
251,59	1247,21
251,81	1286,12
252,02	1265,64
252,24	1269,74
252,46	1275,88
252,68	1273,84
252,89	1296,36
253,11	1363,95
253,33	1249,26
253,54	1282,03
253,76	1282,03
253,98	1249,26
254,20	1255,40
254,41	1228,78
254,63	1284,08
254,85	1284,08
255,06	1288,17
255,28	1247,21
255,50	1286,12
255,71	1230,83
255,93	1279,98
256,15	1216,49
256,36	1308,65
256,58	1322,99
256,80	1288,17
257,02	1255,40
257,23	1245,16
257,45	1271,79
257,67	1296,36
257,88	1363,95
258,10	1290,22
258,32	1277,93
258,53	1226,73
258,75	1353,71
258,97	1234,93
259,18	1208,30
259,40	1234,93
259,62	1234,93
259,83	1275,88
260,05	1366,00
260,27	1247,21
260,48	1282,03
260,70	1263,60
260,92	1337,32
261,13	1279,98
261,35	1269,74
261,57	1265,64
261,78	1269,74
262,00	1206,25
262,22	1230,83
262,43	1236,97
262,65	1279,98
262,86	1363,95
263,08	1243,12
263,30	1282,03
263,51	1290,22
263,73	1359,85
263,95	1269,74
264,16	1312,75
264,38	1210,35
264,60	1273,84
264,81	1255,40
265,03	1241,07
265,25	1249,26
265,46	1366,00
265,68	1286,12
265,89	1236,97
266,11	1259,50
266,33	1296,36
266,54	1318,89
266,76	1228,78
266,98	1249,26
267,19	1255,40
267,41	1212,40
267,62	1271,79
267,84	1261,55
268,06	1312,75
268,27	1288,17
268,49	1253,36
268,70	1222,64
268,92	1292,27
269,14	1271,79
269,35	1337,32
269,57	1302,51
269,79	1261,55
270,00	1247,21
270,22	1255,40
270,43	1261,55
270,65	1286,12
270,87	1249,26
271,08	1259,50
271,30	1239,02
271,51	1261,55
271,73	1234,93
271,95	1175,53
272,16	1286,12
272,38	1296,36
272,59	1267,69
272,81	1251,31
273,02	1279,98
273,24	1216,49
273,46	1345,52
273,67	1359,85
273,89	1193,97
274,10	1277,93
274,32	1220,59
274,54	1255,40
274,75	1316,84
274,97	1329,13
275,18	1214,45
275,40	1267,69
275,61	1243,12
275,83	1290,22
276,05	1271,79
276,26	1253,36
276,48	1210,35
276,69	1312,75
276,91	1318,89
277,12	1255,40
277,34	1239,02
277,55	1310,70
277,77	1253,36
277,99	1284,08
278,20	1263,60
278,42	1302,51
278,63	1273,84
278,85	1288,17
279,06	1271,79
279,28	1314,80
279,49	1251,31
279,71	1298,41
279,93	1228,78
280,14	1253,36
280,36	1310,70
280,57	1279,98
280,79	1349,61
281,00	1232,88
281,22	1343,47
281,43	1269,74
281,65	1181,68
281,86	1312,75
282,08	1370,09
282,29	1318,89
282,51	1269,74
282,73	1273,84
282,94	1282,03
283,16	1253,36
283,37	1214,45
283,59	1329,13
283,80	1318,89
284,02	1339,37
284,23	1261,55
284,45	1310,70
284,66	1325,04
284,88	1273,84
285,09	1275,88
285,31	1259,50
285,52	1314,80
285,74	1239,02
285,95	1204,21
286,17	1370,09
286,38	1267,69
286,60	1267,69
286,81	1288,17
287,03	1318,89
287,24	1267,69
287,46	1245,16
287,67	1243,12
287,89	1318,89
288,10	1241,07
288,32	1296,36
288,53	1296,36
288,75	1222,64
288,96	1327,08
289,18	1263,60
289,39	1298,41
289,61	1282,03
289,82	1306,60
290,04	1220,59
290,25	1322,99
290,47	1279,98
290,68	1261,55
290,90	1300,46
291,11	1282,03
291,33	1298,41
291,54	1255,40
291,76	1226,73
291,97	1251,31
292,18	1298,41
292,40	1277,93
292,61	1261,55
292,83	1224,69
293,04	1298,41
293,26	1212,40
293,47	1304,56
293,69	1292,27
293,90	1339,37
294,12	1300,46
294,33	1271,79
294,55	1239,02
294,76	1243,12
294,97	1198,06
295,19	1284,08
295,40	1206,25
295,62	1271,79
295,83	1298,41
296,05	1304,56
296,26	1335,28
296,48	1243,12
296,69	1245,16
296,90	1298,41
297,12	1239,02
297,33	1241,07
297,55	1241,07
297,76	1277,93
297,98	1206,25
298,19	1273,84
298,41	1249,26
298,62	1251,31
298,83	1263,60
299,05	1279,98
299,26	1279,98
299,48	1247,21
299,69	1200,11
299,90	1175,53
300,12	1224,69
300,33	1322,99
300,55	1265,64
300,76	1298,41
300,98	1226,73
301,19	1236,97
301,40	1288,17
301,62	1255,40
301,83	1277,93
302,05	1314,80
302,26	1261,55
302,47	1232,88
302,69	1306,60
302,90	1224,69
303,12	1265,64
303,33	1241,07
303,54	1275,88
303,76	1261,55
303,97	1224,69
304,19	1253,36
304,40	1249,26
304,61	1302,51
304,83	1284,08
305,04	1273,84
305,26	1259,50
305,47	1224,69
305,68	1241,07
305,90	1314,80
306,11	1347,56
306,33	1331,18
306,54	1236,97
306,75	1277,93
306,97	1245,16
307,18	1284,08
307,39	1308,65
307,61	1277,93
307,82	1271,79
308,04	1314,80
308,25	1273,84
308,46	1306,60
308,68	1230,83
308,89	1308,65
309,10	1193,97
309,32	1282,03
309,53	1267,69
309,74	1241,07
309,96	1279,98
310,17	1255,40
310,39	1265,64
310,60	1286,12
310,81	1306,60
311,03	1263,60
311,24	1339,37
311,45	1222,64
311,67	1271,79
311,88	1245,16
312,09	1257,45
312,31	1273,84
312,52	1243,12
312,73	1247,21
312,95	1351,66
313,16	1294,32
313,37	1302,51
313,59	1267,69
313,80	1302,51
314,01	1304,56
314,23	1273,84
314,44	1288,17
314,65	1267,69
314,87	1265,64
315,08	1251,31
315,29	1257,45
315,51	1329,13
315,72	1294,32
315,93	1288,17
316,15	1349,61
316,36	1325,04
316,57	1316,84
316,79	1214,45
317,00	1247,21
317,21	1277,93
317,43	1228,78
317,64	1253,36
317,85	1191,92
318,07	1333,23
318,28	1284,08
318,49	1243,12
318,70	1304,56
318,92	1312,75
319,13	1279,98
319,34	1275,88
319,56	1257,45
319,77	1273,84
319,98	1208,30
320,20	1228,78
320,41	1247,21
320,62	1308,65
320,83	1298,41
321,05	1226,73
321,26	1202,16
321,47	1265,64
321,69	1228,78
321,90	1185,77
322,11	1290,22
322,32	1288,17
322,54	1318,89
322,75	1243,12
322,96	1265,64
323,18	1294,32
323,39	1196,01
323,60	1286,12
323,81	1296,36
324,03	1236,97
324,24	1286,12
324,45	1245,16
324,66	1304,56
324,88	1146,86
325,09	1304,56
325,30	1312,75
325,52	1228,78
325,73	1214,45
325,94	1189,87
326,15	1347,56
326,37	1275,88
326,58	1306,60
326,79	1325,04
327,00	1241,07
327,22	1277,93
327,43	1202,16
327,64	1247,21
327,85	1296,36
328,07	1259,50
328,28	1263,60
328,49	1363,95
328,70	1259,50
328,92	1263,60
329,13	1263,60
329,34	1263,60
329,55	1331,18
329,76	1239,02
329,98	1286,12
330,19	1359,85
330,40	1275,88
330,61	1232,88
330,83	1234,93
331,04	1304,56
331,25	1228,78
331,46	1310,70
331,68	1253,36
331,89	1228,78
332,10	1257,45
332,31	1241,07
332,52	1296,36
332,74	1310,70
332,95	1245,16
333,16	1335,28
333,37	1232,88
333,58	1265,64
333,80	1312,75
334,01	1290,22
334,22	1198,06
334,43	1271,79
334,64	1298,41
334,86	1249,26
335,07	1259,50
335,28	1267,69
335,49	1296,36
335,70	1286,12
335,92	1329,13
336,13	1282,03
336,34	1304,56
336,55	1275,88
336,76	1185,77
336,98	1286,12
337,19	1282,03
337,40	1261,55
337,61	1296,36
337,82	1191,92
338,04	1265,64
338,25	1277,93
338,46	1279,98
338,67	1255,40
338,88	1294,32
339,09	1216,49
339,31	1232,88
339,52	1265,64
339,73	1355,76
339,94	1247,21
340,15	1208,30
340,36	1335,28
340,58	1304,56
340,79	1257,45
341,00	1308,65
341,21	1318,89
341,42	1277,93
341,63	1257,45
341,85	1263,60
342,06	1298,41
342,27	1290,22
342,48	1290,22
342,69	1273,84
342,90	1251,31
343,12	1212,40
343,33	1282,03
343,54	1337,32
343,75	1271,79
343,96	1222,64
344,17	1316,84
344,38	1261,55
344,60	1304,56
344,81	1275,88
345,02	1265,64
345,23	1206,25
345,44	1222,64
345,65	1257,45
345,86	1296,36
346,07	1286,12
346,29	1306,60
346,50	1312,75
346,71	1249,26
346,92	1286,12
347,13	1282,03
347,34	1290,22
347,55	1175,53
347,76	1271,79
347,98	1284,08
348,19	1267,69
348,40	1347,56
348,61	1257,45
348,82	1325,04
349,03	1163,25
349,24	1306,60
349,45	1224,69
349,66	1253,36
349,88	1325,04
350,09	1308,65
350,30	1257,45
350,51	1300,46
350,72	1288,17
350,93	1222,64
351,14	1239,02
351,35	1224,69
351,56	1212,40
351,77	1277,93
351,99	1304,56
352,20	1265,64
352,41	1302,51
352,62	1306,60
352,83	1343,47
353,04	1261,55
353,25	1275,88
353,46	1273,84
353,67	1300,46
353,88	1273,84
354,09	1257,45
354,30	1253,36
354,52	1236,97
354,73	1275,88
354,94	1239,02
355,15	1257,45
355,36	1241,07
355,57	1296,36
355,78	1230,83
355,99	1320,94
356,20	1148,91
356,41	1306,60
356,62	1267,69
356,83	1302,51
357,04	1271,79
357,25	1177,58
357,46	1241,07
357,68	1306,60
357,89	1263,60
358,10	1265,64
358,31	1300,46
358,52	1304,56
358,73	1167,34
358,94	1232,88
359,15	1277,93
359,36	1329,13
359,57	1224,69
359,78	1263,60
359,99	1277,93
360,20	1320,94
360,41	1341,42
360,62	1259,50
360,83	1210,35
361,04	1214,45
361,25	1304,56
361,46	1349,61
361,67	1265,64
361,88	1279,98
362,09	1273,84
362,30	1288,17
362,51	1261,55
362,72	1232,88
362,93	1279,98
363,14	1296,36
363,35	1312,75
363,56	1245,16
363,78	1267,69
363,99	1249,26
364,20	1294,32
364,41	1271,79
364,62	1282,03
364,83	1277,93
365,04	1331,18
365,25	1318,89
365,46	1187,82
365,67	1343,47
365,88	1255,40
366,09	1304,56
366,30	1236,97
366,51	1253,36
366,72	1290,22
366,93	1322,99
367,14	1245,16
367,35	1253,36
367,56	1302,51
367,77	1275,88
367,98	1322,99
368,18	1189,87
368,39	1267,69
368,60	1277,93
368,81	1261,55
369,02	1347,56
369,23	1279,98
369,44	1257,45
369,65	1284,08
369,86	1218,54
370,07	1255,40
370,28	1187,82
370,49	1261,55
370,70	1302,51
370,91	1236,97
371,12	1249,26
371,33	1245,16
371,54	1193,97
371,75	1251,31
371,96	1243,12
372,17	1322,99
372,38	1232,88
372,59	1277,93
372,80	1239,02
373,01	1308,65
373,22	1228,78
373,43	1218,54
373,64	1259,50
373,85	1292,27
374,06	1261,55
374,26	1331,18
374,47	1355,76
374,68	1210,35
374,89	1251,31
375,10	1214,45
375,31	1247,21
375,52	1277,93
375,73	1239,02
375,94	1298,41
376,15	1277,93
376,36	1296,36
376,57	1255,40
376,78	1208,30
376,99	1230,83
377,20	1298,41
377,40	1249,26
377,61	1343,47
377,82	1306,60
378,03	1273,84
378,24	1234,93
378,45	1257,45
378,66	1263,60
378,87	1257,45
379,08	1265,64
379,29	1216,49
379,50	1222,64
379,71	1353,71
379,91	1226,73
380,12	1263,60
380,33	1230,83
380,54	1249,26
380,75	1339,37
380,96	1308,65
381,17	1279,98
381,38	1284,08
381,59	1247,21
381,80	1249,26
382,00	1273,84
382,21	1218,54
382,42	1265,64
382,63	1257,45
382,84	1259,50
383,05	1273,84
383,26	1269,74
383,47	1279,98
383,68	1304,56
383,88	1261,55
384,09	1288,17
384,30	1359,85
384,51	1273,84
384,72	1265,64
384,93	1251,31
385,14	1267,69
385,35	1265,64
385,55	1284,08
385,76	1257,45
385,97	1292,27
386,18	1316,84
386,39	1245,16
386,60	1314,80
386,81	1204,21
387,02	1239,02
387,22	1214,45
387,43	1298,41
387,64	1304,56
387,85	1263,60
388,06	1206,25
388,27	1343,47
388,48	1277,93
388,68	1241,07
388,89	1255,40
389,10	1241,07
389,31	1226,73
389,52	1230,83
389,73	1294,32
389,93	1314,80
390,14	1243,12
390,35	1275,88
390,56	1251,31
390,77	1251,31
390,98	1251,31
391,18	1275,88
391,39	1181,68
391,60	1200,11
391,81	1284,08
392,02	1277,93
392,23	1249,26
392,43	1304,56
392,64	1230,83
392,85	1339,37
393,06	1310,70
393,27	1249,26
393,47	1261,55
393,68	1230,83
393,89	1191,92
394,10	1345,52
394,31	1296,36
394,52	1333,23
394,72	1259,50
394,93	1273,84
395,14	1222,64
395,35	1294,32
395,56	1275,88
395,76	1322,99
395,97	1341,42
396,18	1220,59
396,39	1236,97
396,60	1361,90
396,80	1308,65
397,01	1220,59
397,22	1271,79
397,43	1296,36
397,64	1263,60
397,84	1267,69
398,05	1275,88
398,26	1318,89
398,47	1308,65
398,67	1218,54
398,88	1279,98
399,09	1320,94
399,30	1320,94
399,51	1304,56
399,71	1234,93
399,92	1239,02
400,13	1230,83
400,34	1296,36
400,54	1316,84
400,75	1277,93
400,96	1275,88
401,17	1294,32
401,37	1286,12
401,58	1251,31
401,79	1265,64
402,00	1286,12
402,21	1255,40
402,41	1259,50
402,62	1359,85
402,83	1247,21
403,04	1318,89
403,24	1267,69
403,45	1261,55
403,66	1325,04
403,87	1251,31
404,07	1255,40
404,28	1241,07
404,49	1277,93
404,70	1251,31
404,90	1245,16
405,11	1239,02
405,32	1214,45
405,52	1339,37
405,73	1269,74
405,94	1318,89
406,15	1271,79
406,35	1265,64
406,56	1273,84
406,77	1302,51
406,98	1243,12
407,18	1150,96
407,39	1298,41
407,60	1243,12
407,80	1273,84
408,01	1255,40
408,22	1267,69
408,43	1245,16
408,63	1253,36
408,84	1230,83
409,05	1277,93
409,25	1302,51
409,46	1226,73
409,67	1339,37
409,88	1359,85
410,08	1284,08
410,29	1271,79
410,50	1269,74
410,70	1316,84
410,91	1267,69
411,12	1271,79
411,32	1187,82
411,53	1261,55
411,74	1239,02
411,95	1267,69
412,15	1273,84
412,36	1322,99
412,57	1314,80
412,77	1263,60
412,98	1222,64
413,19	1345,52
413,39	1273,84
413,60	1310,70
413,81	1261,55
414,01	1196,01
414,22	1286,12
414,43	1302,51
414,63	1279,98
414,84	1339,37
415,05	1302,51
415,25	1265,64
415,46	1198,06
415,67	1284,08
415,87	1239,02
416,08	1257,45
416,29	1255,40
416,49	1298,41
416,70	1302,51
416,91	1298,41
417,11	1368,04
417,32	1253,36
417,53	1288,17
417,73	1300,46
417,94	1239,02
418,15	1255,40
418,35	1239,02
418,56	1222,64
418,77	1251,31
418,97	1298,41
419,18	1290,22
419,38	1263,60
419,59	1185,77
419,80	1234,93
420,00	1216,49
420,21	1210,35
420,42	1277,93
420,62	1322,99
420,83	1257,45
421,04	1277,93
421,24	1298,41
421,45	1347,56
421,65	1236,97
421,86	1284,08
422,07	1322,99
422,27	1253,36
422,48	1241,07
422,69	1312,75
422,89	1247,21
423,10	1247,21
423,30	1263,60
423,51	1290,22
423,72	1353,71
423,92	1239,02
424,13	1296,36
424,33	1282,03
424,54	1308,65
424,75	1247,21
424,95	1198,06
425,16	1265,64
425,36	1224,69
425,57	1239,02
425,78	1200,11
425,98	1284,08
426,19	1259,50
426,39	1261,55
426,60	1220,59
426,81	1255,40
427,01	1306,60
427,22	1249,26
427,42	1173,49
427,63	1273,84
427,83	1236,97
428,04	1329,13
428,25	1273,84
428,45	1316,84
428,66	1265,64
428,86	1218,54
429,07	1183,73
429,28	1296,36
429,48	1275,88
429,69	1286,12
429,89	1247,21
430,10	1292,27
430,30	1249,26
430,51	1322,99
430,71	1304,56
430,92	1241,07
431,13	1255,40
431,33	1288,17
431,54	1255,40
431,74	1337,32
431,95	1206,25
432,15	1265,64
432,36	1257,45
432,56	1214,45
432,77	1273,84
432,98	1236,97
433,18	1196,01
433,39	1241,07
433,59	1275,88
433,80	1366,00
434,00	1196,01
434,21	1263,60
434,41	1282,03
434,62	1279,98
434,82	1208,30
435,03	1279,98
435,23	1224,69
435,44	1284,08
435,64	1222,64
435,85	1277,93
436,06	1284,08
436,26	1331,18
436,47	1294,32
436,67	1288,17
436,88	1306,60
437,08	1263,60
437,29	1255,40
437,49	1267,69
437,70	1355,76
437,90	1261,55
438,11	1196,01
438,31	1214,45
438,52	1210,35
438,72	1374,19
438,93	1251,31
439,13	1243,12
439,34	1271,79
439,54	1241,07
439,75	1306,60
439,95	1290,22
440,16	1286,12
440,36	1296,36
440,57	1241,07
440,77	1245,16
440,98	1181,68
441,18	1343,47
441,39	1249,26
441,59	1206,25
441,80	1247,21
442,00	1269,74
442,21	1296,36
442,41	1306,60
442,62	1290,22
442,82	1165,29
443,02	1263,60
443,23	1261,55
443,43	1261,55
443,64	1310,70
443,84	1228,78
444,05	1249,26
444,25	1214,45
444,46	1273,84
444,66	1249,26
444,87	1263,60
445,07	1251,31
445,28	1277,93
445,48	1216,49
445,69	1292,27
445,89	1239,02
446,09	1294,32
446,30	1304,56
446,50	1247,21
446,71	1308,65
446,91	1286,12
447,12	1302,51
447,32	1271,79
447,53	1292,27
447,73	1282,03
447,93	1282,03
448,14	1286,12
448,34	1302,51
448,55	1228,78
448,75	1236,97
448,96	1269,74
449,16	1249,26
449,36	1275,88
449,57	1265,64
449,77	1298,41
449,98	1294,32
450,18	1236,97
450,39	1294,32
450,59	1269,74
450,79	1337,32
451,00	1331,18
451,20	1308,65
451,41	1251,31
451,61	1284,08
451,81	1265,64
452,02	1351,66
452,22	1282,03
452,43	1230,83
452,63	1261,55
452,84	1253,36
453,04	1296,36
453,24	1300,46
453,45	1259,50
453,65	1251,31
453,86	1243,12
454,06	1259,50
454,26	1294,32
454,47	1236,97
454,67	1318,89
454,87	1204,21
455,08	1214,45
455,28	1290,22
455,49	1239,02
455,69	1239,02
455,89	1312,75
456,10	1302,51
456,30	1290,22
456,51	1245,16
456,71	1259,50
456,91	1222,64
457,12	1232,88
457,32	1241,07
457,52	1310,70
457,73	1259,50
457,93	1290,22
458,14	1247,21
458,34	1337,32
458,54	1275,88
458,75	1308,65
458,95	1325,04
459,15	1222,64
459,36	1308,65
459,56	1224,69
459,76	1284,08
459,97	1261,55
460,17	1318,89
460,37	1257,45
460,58	1302,51
460,78	1253,36
460,99	1312,75
461,19	1290,22
461,39	1298,41
461,60	1263,60
461,80	1204,21
462,00	1265,64
462,21	1243,12
462,41	1275,88
462,61	1247,21
462,82	1220,59
463,02	1284,08
463,22	1232,88
463,43	1249,26
463,63	1234,93
463,83	1286,12
464,04	1253,36
464,24	1261,55
464,44	1279,98
464,64	1296,36
464,85	1320,94
465,05	1327,08
465,25	1290,22
465,46	1200,11
465,66	1263,60
465,86	1288,17
466,07	1345,52
466,27	1185,77
466,47	1247,21
466,68	1243,12
466,88	1286,12
467,08	1294,32
467,29	1259,50
467,49	1312,75
467,69	1288,17
467,89	1318,89
468,10	1333,23
468,30	1341,42
468,50	1241,07
468,71	1255,40
468,91	1263,60
469,11	1257,45
469,31	1298,41
469,52	1292,27
469,72	1298,41
469,92	1290,22
470,13	1288,17
470,33	1277,93
470,53	1265,64
470,73	1230,83
470,94	1279,98
471,14	1322,99
471,34	1374,19
471,54	1224,69
471,75	1267,69
471,95	1275,88
472,15	1241,07
472,36	1296,36
472,56	1292,27
472,76	1306,60
472,96	1259,50
473,17	1263,60
473,37	1222,64
473,57	1325,04
473,77	1275,88
473,98	1257,45
474,18	1257,45
474,38	1249,26
474,58	1288,17
474,79	1226,73
474,99	1396,71
475,19	1259,50
475,39	1277,93
475,60	1288,17
475,80	1284,08
476,00	1241,07
476,20	1341,42
476,41	1259,50
476,61	1257,45
476,81	1310,70
477,01	1241,07
477,21	1288,17
477,42	1294,32
477,62	1288,17
477,82	1212,40
478,02	1325,04
478,23	1253,36
478,43	1296,36
478,63	1277,93
478,83	1247,21
479,03	1273,84
479,24	1314,80
479,44	1255,40
479,64	1282,03
479,84	1325,04
480,04	1208,30
480,25	1353,71
480,45	1269,74
480,65	1292,27
480,85	1257,45
481,06	1239,02
481,26	1255,40
481,46	1255,40
481,66	1265,64
481,86	1271,79
482,06	1300,46
482,27	1277,93
482,47	1279,98
482,67	1212,40
482,87	1294,32
483,07	1312,75
483,28	1310,70
483,48	1275,88
483,68	1243,12
483,88	1220,59
484,08	1251,31
484,29	1220,59
484,49	1279,98
484,69	1282,03
484,89	1222,64
485,09	1218,54
485,29	1259,50
485,50	1322,99
485,70	1282,03
485,90	1304,56
486,10	1304,56
486,30	1204,21
486,50	1257,45
486,71	1327,08
486,91	1279,98
487,11	1255,40
487,31	1218,54
487,51	1277,93
487,71	1263,60
487,91	1214,45
488,12	1292,27
488,32	1327,08
488,52	1298,41
488,72	1279,98
488,92	1257,45
489,12	1222,64
489,32	1265,64
489,53	1208,30
489,73	1259,50
489,93	1210,35
490,13	1333,23
490,33	1214,45
490,53	1286,12
490,73	1314,80
490,94	1247,21
491,14	1236,97
491,34	1224,69
491,54	1327,08
491,74	1224,69
491,94	1277,93
492,14	1171,44
492,34	1302,51
492,54	1290,22
492,75	1286,12
492,95	1302,51
493,15	1298,41
493,35	1220,59
493,55	1288,17
493,75	1226,73
493,95	1290,22
494,15	1314,80
494,35	1247,21
494,56	1322,99
494,76	1253,36
494,96	1245,16
495,16	1282,03
495,36	1267,69
495,56	1275,88
495,76	1245,16
495,96	1294,32
496,16	1222,64
496,36	1228,78
496,56	1269,74
496,77	1347,56
496,97	1243,12
497,17	1261,55
497,37	1279,98
497,57	1282,03
497,77	1261,55
497,97	1247,21
498,17	1224,69
498,37	1239,02
498,57	1257,45
498,77	1273,84
498,97	1265,64
499,17	1249,26
499,38	1220,59
499,58	1271,79
499,78	1241,07
499,98	1208,30
500,18	1239,02
500,38	1269,74
500,58	1290,22
500,78	1218,54
500,98	1232,88
501,18	1296,36
501,38	1294,32
501,58	1261,55
501,78	1255,40
501,98	1259,50
502,18	1183,73
502,38	1243,12
502,58	1241,07
502,78	1316,84
502,98	1277,93
503,18	1318,89
503,38	1247,21
503,59	1269,74
503,79	1210,35
503,99	1257,45
504,19	1288,17
504,39	1243,12
504,59	1232,88
504,79	1261,55
504,99	1286,12
505,19	1241,07
505,39	1214,45
505,59	1216,49
505,79	1333,23
505,99	1288,17
506,19	1304,56
506,39	1241,07
506,59	1261,55
506,79	1263,60
506,99	1210,35
507,19	1306,60
507,39	1298,41
507,59	1318,89
507,79	1267,69
507,99	1284,08
508,19	1216,49
508,39	1302,51
508,59	1284,08
508,79	1279,98
508,99	1261,55
509,19	1245,16
509,39	1265,64
509,59	1218,54
509,79	1308,65
509,99	1267,69
510,19	1322,99
510,39	1265,64
510,59	1329,13
510,79	1239,02
510,99	1214,45
511,19	1273,84
511,39	1282,03
511,59	1245,16
511,79	1198,06
511,99	1318,89
512,19	1165,29
512,38	1269,74
512,58	1304,56
512,78	1261,55
512,98	1253,36
513,18	1331,18
513,38	1261,55
513,58	1247,21
513,78	1271,79
513,98	1277,93
514,18	1273,84
514,38	1288,17
514,58	1279,98
514,78	1251,31
514,98	1296,36
515,18	1306,60
515,38	1298,41
515,58	1249,26
515,78	1279,98
515,98	1247,21
516,18	1273,84
516,38	1277,93
516,57	1343,47
516,77	1224,69
516,97	1224,69
517,17	1234,93
517,37	1232,88
517,57	1236,97
517,77	1279,98
517,97	1198,06
518,17	1259,50
518,37	1200,11
518,57	1290,22
518,77	1255,40
518,97	1318,89
519,16	1255,40
519,36	1222,64
519,56	1308,65
519,76	1255,40
519,96	1243,12
520,16	1236,97
520,36	1327,08
520,56	1247,21
520,76	1267,69
520,96	1243,12
521,16	1277,93
521,35	1316,84
521,55	1259,50
521,75	1265,64
521,95	1214,45
522,15	1263,60
522,35	1179,63
522,55	1282,03
522,75	1302,51
522,95	1259,50
523,14	1243,12
523,34	1247,21
523,54	1210,35
523,74	1347,56
523,94	1322,99
524,14	1263,60
524,34	1243,12
524,54	1347,56
524,73	1249,26
524,93	1296,36
525,13	1245,16
525,33	1288,17
525,53	1304,56
525,73	1212,40
525,93	1216,49
526,13	1267,69
526,32	1247,21
526,52	1239,02
526,72	1241,07
526,92	1277,93
527,12	1232,88
527,32	1261,55
527,52	1261,55
527,71	1282,03
527,91	1296,36
528,11	1265,64
528,31	1216,49
528,51	1366,00
528,71	1304,56
528,90	1232,88
529,10	1296,36
529,30	1325,04
529,50	1234,93
529,70	1226,73
529,90	1284,08
530,09	1312,75
530,29	1341,42
530,49	1202,16
530,69	1273,84
530,89	1259,50
531,09	1286,12
531,28	1257,45
531,48	1298,41
531,68	1234,93
531,88	1300,46
532,08	1265,64
532,28	1222,64
532,47	1282,03
532,67	1267,69
532,87	1239,02
533,07	1247,21
533,27	1247,21
533,46	1224,69
533,66	1320,94
533,86	1214,45
534,06	1255,40
534,26	1247,21
534,45	1236,97
534,65	1247,21
534,85	1267,69
535,05	1337,32
535,25	1239,02
535,44	1296,36
535,64	1234,93
535,84	1159,15
536,04	1312,75
536,24	1183,73
536,43	1308,65
536,63	1290,22
536,83	1232,88
537,03	1304,56
537,22	1290,22
537,42	1210,35
537,62	1275,88
537,82	1290,22
538,02	1298,41
538,21	1337,32
538,41	1241,07
538,61	1255,40
538,81	1241,07
539,00	1290,22
539,20	1275,88
539,40	1279,98
539,60	1247,21
539,79	1269,74
539,99	1241,07
540,19	1216,49
540,39	1257,45
540,58	1247,21
540,78	1263,60
540,98	1347,56
541,18	1249,26
541,37	1220,59
541,57	1220,59
541,77	1230,83
541,97	1226,73
542,16	1263,60
542,36	1204,21
542,56	1257,45
542,76	1333,23
542,95	1316,84
543,15	1333,23
543,35	1327,08
543,54	1294,32
543,74	1253,36
543,94	1243,12
544,14	1284,08
544,33	1220,59
544,53	1153,01
544,73	1284,08
544,93	1312,75
545,12	1277,93
545,32	1288,17
545,52	1320,94
545,71	1269,74
545,91	1245,16
546,11	1257,45
546,30	1286,12
546,50	1210,35
546,70	1277,93
546,90	1249,26
547,09	1286,12
547,29	1265,64
547,49	1226,73
547,68	1325,04
547,88	1226,73
548,08	1239,02
548,27	1279,98
548,47	1304,56
548,67	1228,78
548,87	1261,55
549,06	1296,36
549,26	1292,27
549,46	1261,55
549,65	1318,89
549,85	1249,26
550,05	1239,02
550,24	1261,55
550,44	1220,59
550,64	1230,83
550,83	1265,64
551,03	1253,36
551,23	1269,74
551,42	1257,45
551,62	1255,40
551,82	1273,84
552,01	1294,32
552,21	1255,40
552,41	1265,64
552,60	1322,99
552,80	1245,16
553,00	1304,56
553,19	1261,55
553,39	1247,21
553,59	1277,93
553,78	1245,16
553,98	1275,88
554,17	1222,64
554,37	1171,44
554,57	1310,70
554,76	1232,88
554,96	1243,12
555,16	1296,36
555,35	1216,49
555,55	1218,54
555,75	1286,12
555,94	1290,22
556,14	1318,89
556,33	1294,32
556,53	1279,98
556,73	1320,94
556,92	1218,54
557,12	1232,88
557,32	1232,88
557,51	1251,31
557,71	1218,54
557,90	1216,49
558,10	1259,50
558,30	1222,64
558,49	1263,60
558,69	1359,85
558,88	1196,01
559,08	1214,45
559,28	1261,55
559,47	1318,89
559,67	1312,75
559,86	1210,35
560,06	1286,12
560,26	1277,93
560,45	1214,45
560,65	1259,50
560,84	1247,21
561,04	1259,50
561,24	1306,60
561,43	1234,93
561,63	1253,36
561,82	1216,49
562,02	1247,21
562,22	1349,61
562,41	1308,65
562,61	1273,84
562,80	1247,21
563,00	1249,26
563,19	1314,80
563,39	1325,04
563,59	1267,69
563,78	1259,50
563,98	1241,07
564,17	1314,80
564,37	1230,83
564,56	1288,17
564,76	1296,36
564,96	1298,41
565,15	1251,31
565,35	1372,14
565,54	1279,98
565,74	1282,03
565,93	1331,18
566,13	1302,51
566,32	1257,45
566,52	1210,35
566,71	1337,32
566,91	1339,37
567,11	1255,40
567,30	1296,36
567,50	1277,93
567,69	1239,02
567,89	1325,04
568,08	1241,07
568,28	1202,16
568,47	1286,12
568,67	1259,50
568,86	1296,36
569,06	1290,22
569,25	1308,65
569,45	1247,21
569,64	1314,80
569,84	1200,11
570,04	1271,79
570,23	1288,17
570,43	1302,51
570,62	1275,88
570,82	1349,61
571,01	1304,56
571,21	1312,75
571,40	1269,74
571,60	1234,93
571,79	1306,60
571,99	1241,07
572,18	1263,60
572,38	1253,36
572,57	1304,56
572,77	1327,08
572,96	1265,64
573,16	1269,74
573,35	1236,97
573,55	1253,36
573,74	1273,84
573,94	1232,88
574,13	1241,07
574,33	1320,94
574,52	1241,07
574,71	1304,56
574,91	1275,88
575,10	1271,79
575,30	1314,80
575,49	1286,12
575,69	1202,16
575,88	1300,46
576,08	1253,36
576,27	1230,83
576,47	1271,79
576,66	1279,98
576,86	1312,75
577,05	1263,60
577,25	1290,22
577,44	1214,45
577,64	1288,17
577,83	1277,93
578,02	1302,51
578,22	1304,56
578,41	1255,40
578,61	1300,46
578,80	1279,98
579,00	1302,51
579,19	1296,36
579,39	1284,08
579,58	1275,88
579,77	1218,54
579,97	1294,32
580,16	1265,64
580,36	1249,26
580,55	1220,59
580,75	1255,40
580,94	1259,50
581,13	1304,56
581,33	1271,79
581,52	1251,31
581,72	1298,41
581,91	1314,80
582,11	1230,83
582,30	1294,32
582,49	1230,83
582,69	1300,46
582,88	1148,91
583,08	1200,11
583,27	1206,25
583,47	1247,21
583,66	1304,56
583,85	1273,84
584,05	1298,41
584,24	1216,49
584,44	1255,40
584,63	1296,36
584,82	1239,02
585,02	1294,32
585,21	1302,51
585,41	1341,42
585,60	1265,64
585,79	1284,08
585,99	1259,50
586,18	1261,55
586,37	1224,69
586,57	1245,16
586,76	1302,51
586,96	1216,49
587,15	1292,27
587,34	1230,83
587,54	1296,36
587,73	1333,23
587,93	1290,22
588,12	1210,35
588,31	1316,84
588,51	1251,31
588,70	1298,41
588,89	1214,45
589,09	1288,17
589,28	1292,27
589,47	1224,69
589,67	1212,40
589,86	1273,84
590,06	1210,35
590,25	1193,97
590,44	1290,22
590,64	1288,17
590,83	1226,73
591,02	1249,26
591,22	1251,31
591,41	1329,13
591,60	1302,51
591,80	1239,02
591,99	1208,30
592,18	1290,22
592,38	1277,93
592,57	1241,07
592,76	1292,27
592,96	1286,12
593,15	1241,07
593,34	1200,11
593,54	1333,23
593,73	1265,64
593,92	1275,88
594,12	1304,56
594,31	1296,36
594,50	1282,03
594,70	1171,44
594,89	1261,55
595,08	1310,70
595,28	1284,08
595,47	1204,21
595,66	1284,08
595,86	1245,16
596,05	1259,50
596,24	1304,56
596,43	1282,03
596,63	1234,93
596,82	1318,89
597,01	1349,61
597,21	1214,45
597,40	1200,11
597,59	1298,41
597,79	1226,73
597,98	1292,27
598,17	1239,02
598,36	1271,79
598,56	1220,59
598,75	1322,99
598,94	1286,12
599,14	1314,80
599,33	1286,12
599,52	1271,79
599,71	1384,43
599,91	1234,93
600,10	1279,98
600,29	1290,22
600,48	1269,74
600,68	1282,03
600,87	1253,36
601,06	1259,50
601,26	1269,74
601,45	1300,46
601,64	1265,64
601,83	1263,60
602,03	1271,79
602,22	1298,41
602,41	1304,56
602,60	1271,79
602,80	1261,55
602,99	1257,45
603,18	1249,26
603,37	1314,80
603,57	1269,74
603,76	1263,60
603,95	1335,28
604,14	1239,02
604,34	1232,88
604,53	1314,80
604,72	1284,08
604,91	1277,93
605,10	1308,65
605,30	1224,69
605,49	1191,92
605,68	1247,21
605,87	1222,64
606,07	1347,56
606,26	1267,69
606,45	1202,16
606,64	1177,58
606,84	1265,64
607,03	1286,12
607,22	1284,08
607,41	1267,69
607,60	1335,28
607,80	1325,04
607,99	1284,08
608,18	1282,03
608,37	1288,17
608,56	1198,06
608,76	1288,17
608,95	1255,40
609,14	1290,22
609,33	1312,75
609,52	1290,22
609,72	1282,03
609,91	1318,89
610,10	1183,73
610,29	1372,14
610,48	1249,26
610,68	1271,79
610,87	1263,60
611,06	1284,08
611,25	1294,32
611,44	1277,93
611,63	1310,70
611,83	1267,69
612,02	1308,65
612,21	1282,03
612,40	1290,22
612,59	1308,65
612,79	1253,36
612,98	1263,60
613,17	1210,35
613,36	1329,13
613,55	1288,17
613,74	1210,35
613,93	1279,98
614,13	1251,31
614,32	1249,26
614,51	1327,08
614,70	1306,60
614,89	1224,69
615,08	1251,31
615,28	1361,90
615,47	1294,32
615,66	1255,40
615,85	1228,78
616,04	1331,18
616,23	1218,54
616,42	1230,83
616,62	1251,31
616,81	1277,93
617,00	1265,64
617,19	1245,16
617,38	1259,50
617,57	1288,17
617,76	1251,31
617,95	1288,17
618,15	1214,45
618,34	1204,21
618,53	1279,98
618,72	1245,16
618,91	1277,93
619,10	1275,88
619,29	1263,60
619,48	1265,64
619,68	1251,31
619,87	1277,93
620,06	1208,30
620,25	1239,02
620,44	1294,32
620,63	1259,50
620,82	1245,16
621,01	1316,84
621,20	1220,59
621,39	1232,88
621,59	1255,40
621,78	1249,26
621,97	1275,88
622,16	1310,70
622,35	1245,16
622,54	1308,65
622,73	1253,36
622,92	1300,46
623,11	1306,60
623,30	1279,98
623,49	1296,36
623,68	1347,56
623,88	1249,26
624,07	1314,80
624,26	1253,36
624,45	1298,41
624,64	1230,83
624,83	1241,07
625,02	1239,02
625,21	1292,27
625,40	1222,64
625,59	1251,31
625,78	1271,79
625,97	1265,64
626,16	1304,56
626,35	1314,80
626,54	1308,65
626,74	1296,36
626,93	1302,51
627,12	1347,56
627,31	1271,79
627,50	1302,51
627,69	1257,45
627,88	1247,21
628,07	1245,16
628,26	1216,49
628,45	1331,18
628,64	1320,94
628,83	1269,74
629,02	1273,84
629,21	1329,13
629,40	1312,75
629,59	1243,12
629,78	1232,88
629,97	1275,88
630,16	1263,60
630,35	1296,36
630,54	1294,32
630,73	1347,56
630,92	1298,41
631,11	1400,81
631,30	1308,65
631,49	1314,80
631,68	1939,43
631,87	5517,23
632,06	20276,94
632,25	41665,92
632,44	37000,65
632,63	32179,73
632,82	21489,34
633,01	7073,68
633,20	3600,33
633,39	3051,47
633,58	2568,15
633,77	2174,94
633,96	2035,68
634,15	2015,20
634,34	1861,60
634,53	1730,53
634,72	1796,07
634,91	1560,55
635,10	1662,95
635,29	1560,55
635,48	1599,46
635,67	1511,40
635,86	1548,26
636,05	1478,63
636,24	1445,87
636,43	1447,91
636,62	1386,47
636,81	1443,82
637,00	1359,85
637,19	1329,13
637,38	1421,29
637,57	1314,80
637,76	1392,62
637,95	1337,32
638,14	1345,52
638,33	1322,99
638,52	1286,12
638,71	1300,46
638,89	1327,08
639,08	1288,17
639,27	1277,93
639,46	1306,60
639,65	1376,24
639,84	1236,97
640,03	1322,99
640,22	1255,40
640,41	1333,23
640,60	1257,45
640,79	1296,36
640,98	1322,99
641,17	1298,41
641,36	1271,79
641,55	1316,84
641,74	1329,13
641,92	1298,41
642,11	1261,55
642,30	1380,33
642,49	1251,31
642,68	1259,50
642,87	1363,95
643,06	1202,16
643,25	1333,23
643,44	1292,27
643,63	1251,31
643,82	1341,42
644,00	1304,56
644,19	1282,03
644,38	1351,66
644,57	1251,31
644,76	1296,36
644,95	1374,19
645,14	1214,45
645,33	1304,56
645,52	1261,55
645,71	1288,17
645,89	1318,89
646,08	1251,31
646,27	1236,97
646,46	1286,12
646,65	1263,60
646,84	1277,93
647,03	1275,88
647,22	1296,36
647,40	1308,65
647,59	1243,12
647,78	1216,49
647,97	1265,64
648,16	1345,52
648,35	1204,21
648,54	1271,79
648,73	1294,32
648,91	1292,27
649,10	1294,32
649,29	1255,40
649,48	1275,88
649,67	1245,16
649,86	1296,36
650,05	1261,55
650,23	1202,16
650,42	1249,26
650,61	1247,21
650,80	1312,75
650,99	1288,17
651,18	1290,22
651,36	1290,22
651,55	1271,79
651,74	1214,45
651,93	1271,79
652,12	1304,56
652,31	1210,35
652,49	1265,64
652,68	1204,21
652,87	1241,07
653,06	1259,50
653,25	1339,37
653,44	1232,88
653,62	1261,55
653,81	1331,18
654,00	1329,13
654,19	1245,16
654,38	1220,59
654,56	1327,08
654,75	1290,22
654,94	1361,90
655,13	1286,12
655,32	1316,84
655,51	1263,60
655,69	1232,88
655,88	1232,88
656,07	1273,84
656,26	1304,56
656,45	1271,79
656,63	1322,99
656,82	1267,69
657,01	1249,26
657,20	1312,75
657,38	1306,60
657,57	1286,12
657,76	1345,52
657,95	1245,16
658,14	1298,41
658,32	1277,93
658,51	1263,60
658,70	1282,03
658,89	1290,22
659,08	1277,93
659,26	1298,41
659,45	1269,74
659,64	1310,70
659,83	1318,89
660,01	1236,97
660,20	1302,51
660,39	1232,88
660,58	1267,69
660,76	1286,12
660,95	1286,12
661,14	1257,45
661,33	1193,97
661,51	1259,50
661,70	1261,55
661,89	1185,77
662,08	1279,98
662,26	1245,16
662,45	1218,54
662,64	1245,16
662,83	1230,83
663,01	1198,06
663,20	1218,54
663,39	1200,11
663,58	1282,03
663,76	1300,46
663,95	1275,88
664,14	1320,94
664,32	1284,08
664,51	1288,17
664,70	1306,60
664,89	1300,46
665,07	1359,85
665,26	1310,70
665,45	1150,96
665,64	1241,07
665,82	1284,08
666,01	1271,79
666,20	1296,36
666,38	1284,08
666,57	1214,45
666,76	1251,31
666,95	1261,55
667,13	1294,32
667,32	1269,74
667,51	1279,98
667,69	1228,78
667,88	1253,36
668,07	1224,69
668,25	1228,78
668,44	1339,37
668,63	1247,21
668,81	1271,79
669,00	1255,40
669,19	1288,17
669,38	1253,36
669,56	1241,07
669,75	1279,98
669,94	1284,08
670,12	1257,45
670,31	1290,22
670,50	1282,03
670,68	1318,89
670,87	1247,21
671,06	1292,27
671,24	1206,25
671,43	1265,64
671,62	1265,64
671,80	1298,41
671,99	1236,97
672,18	1320,94
672,36	1294,32
672,55	1241,07
672,74	1306,60
672,92	1288,17
673,11	1259,50
673,29	1265,64
673,48	1191,92
673,67	1222,64
673,85	1247,21
674,04	1320,94
674,23	1294,32
674,41	1228,78
674,60	1304,56
674,79	1290,22
674,97	1296,36
675,16	1202,16
675,34	1241,07
675,53	1271,79
675,72	1308,65
675,90	1259,50
676,09	1261,55
676,28	1290,22
676,46	1316,84
676,65	1245,16
676,83	1279,98
677,02	1271,79
677,21	1300,46
677,39	1333,23
677,58	1206,25
677,77	1251,31
677,95	1191,92
678,14	1253,36
678,32	1191,92
678,51	1306,60
678,70	1320,94
678,88	1236,97
679,07	1261,55
679,25	1222,64
679,44	1255,40
679,63	1259,50
679,81	1249,26
680,00	1255,40
680,18	1232,88
680,37	1239,02
680,55	1310,70
680,74	1335,28
680,93	1279,98
681,11	1265,64
681,30	1234,93
681,48	1224,69
681,67	1275,88
681,85	1277,93
682,04	1273,84
682,23	1312,75
682,41	1155,05
682,60	1279,98
682,78	1253,36
682,97	1290,22
683,15	1247,21
683,34	1279,98
683,53	1294,32
683,71	1224,69
683,90	1310,70
684,08	1300,46
684,27	1267,69
684,45	1302,51
684,64	1232,88
684,82	1255,40
685,01	1243,12
685,19	1282,03
685,38	1288,17
685,57	1308,65
685,75	1294,32
685,94	1279,98
686,12	1241,07
686,31	1310,70
686,49	1216,49
686,68	1208,30
686,86	1222,64
687,05	1251,31
687,23	1196,01
687,42	1277,93
687,60	1249,26
687,79	1265,64
687,97	1306,60
688,16	1318,89
688,34	1261,55
688,53	1269,74
688,71	1312,75
688,90	1263,60
689,08	1333,23
689,27	1308,65
689,45	1275,88
689,64	1271,79
689,82	1251,31
690,01	1232,88
690,19	1277,93
690,38	1259,50
690,56	1243,12
690,75	1200,11
690,93	1226,73
691,12	1263,60
691,30	1261,55
691,49	1245,16
691,67	1265,64
691,86	1241,07
692,04	1279,98
692,23	1304,56
692,41	1234,93
692,60	1292,27
692,78	1249,26
692,97	1290,22
693,15	1288,17
693,34	1196,01
693,52	1263,60
693,71	1267,69
693,89	1290,22
694,08	1245,16
694,26	1214,45
694,44	1290,22
694,63	1361,90
694,81	1265,64
695,00	1216,49
695,18	1261,55
695,37	1249,26
695,55	1349,61
695,74	1271,79
695,92	1210,35
696,10	1288,17
696,29	1351,66
696,47	1318,89
696,66	1277,93
696,84	1292,27
697,03	1279,98
697,21	1232,88
697,40	1345,52
697,58	1263,60
697,76	1325,04
697,95	1224,69
698,13	1230,83
698,32	1228,78
698,50	1253,36
698,68	1224,69
698,87	1275,88
699,05	1263,60
699,24	1300,46
699,42	1329,13
699,61	1210,35
699,79	1245,16
699,97	1261,55
700,16	1286,12
700,34	1269,74
700,53	1284,08
700,71	1290,22
700,89	1282,03
701,08	1273,84
701,26	1298,41
701,45	1239,02
701,63	1265,64
701,81	1261,55
702,00	1275,88
702,18	1220,59
702,37	1314,80
702,55	1228,78
702,73	1282,03
702,92	1220,59
703,10	1269,74
703,28	1320,94
703,47	1355,76
703,65	1353,71
703,84	1310,70
704,02	1267,69
704,20	1247,21
704,39	1284,08
704,57	1249,26
704,75	1255,40
704,94	1218,54
705,12	1331,18
705,30	1322,99
705,49	1208,30
705,67	1329,13
705,86	1241,07
706,04	1243,12
706,22	1228,78
706,41	1247,21
706,59	1257,45
706,77	1288,17
706,96	1267,69
707,14	1279,98
707,32	1290,22
707,51	1320,94
707,69	1335,28
707,87	1298,41
708,06	1253,36
708,24	1257,45
708,42	1255,40
708,61	1302,51
708,79	1279,98
708,97	1310,70
709,16	1220,59
709,34	1298,41
709,52	1271,79
709,71	1239,02
709,89	1296,36
710,07	1290,22
710,26	1279,98
710,44	1290,22
710,62	1349,61
710,80	1279,98
710,99	1253,36
711,17	1290,22
711,35	1243,12
711,54	1247,21
711,72	1257,45
711,90	1308,65
712,09	1294,32
712,27	1259,50
712,45	1232,88
712,63	1269,74
712,82	1255,40
713,00	1314,80
713,18	1261,55
713,37	1337,32
713,55	1294,32
713,73	1331,18
713,91	1341,42
714,10	1263,60
714,28	1271,79
714,46	1144,81
714,65	1204,21
714,83	1255,40
715,01	1236,97
715,19	1189,87
715,38	1189,87
715,56	1320,94
715,74	1282,03
715,92	1228,78
716,11	1273,84
716,29	1253,36
716,47	1239,02
716,65	1236,97
716,84	1247,21
717,02	1325,04
717,20	1353,71
717,38	1312,75
717,57	1251,31
717,75	1318,89
717,93	1284,08
718,11	1322,99
718,30	1249,26
718,48	1288,17
718,66	1302,51
718,84	1304,56
719,03	1300,46
719,21	1259,50
719,39	1279,98
719,57	1247,21
719,75	1300,46
719,94	1286,12
720,12	1241,07
720,30	1263,60
720,48	1228,78
720,67	1239,02
720,85	1284,08
721,03	1314,80
721,21	1216,49
721,39	1341,42
721,58	1290,22
721,76	1286,12
721,94	1243,12
722,12	1310,70
722,30	1282,03
722,49	1273,84
722,67	1290,22
722,85	1269,74
723,03	1249,26
723,21	1275,88
723,40	1257,45
723,58	1245,16
723,76	1277,93
723,94	1273,84
724,12	1228,78
724,30	1282,03
724,49	1288,17
724,67	1232,88
724,85	1290,22
725,03	1236,97
725,21	1222,64
725,40	1210,35
725,58	1368,04
725,76	1265,64
725,94	1292,27
726,12	1320,94
726,30	1282,03
726,49	1302,51
726,67	1267,69
726,85	1269,74
727,03	1232,88
727,21	1249,26
727,39	1216,49
727,57	1359,85
727,76	1320,94
727,94	1322,99
728,12	1288,17
728,30	1198,06
728,48	1306,60
728,66	1357,80
728,84	1312,75
729,03	1300,46
729,21	1263,60
729,39	1224,69
729,57	1210,35
729,75	1251,31
729,93	1296,36
730,11	1265,64
730,30	1245,16
730,48	1255,40
730,66	1222,64
730,84	1304,56
731,02	1282,03
731,20	1304,56
731,38	1308,65
731,56	1245,16
731,74	1273,84
731,93	1279,98
732,11	1259,50
732,29	1236,97
732,47	1300,46
732,65	1304,56
732,83	1290,22
733,01	1214,45
733,19	1228,78
733,37	1269,74
733,56	1310,70
733,74	1208,30
733,92	1292,27
734,10	1257,45
734,28	1208,30
734,46	1261,55
734,64	1251,31
734,82	1257,45
735,00	1216,49
735,18	1206,25
735,36	1331,18
735,54	1341,42
735,73	1257,45
735,91	1310,70
736,09	1329,13
736,27	1259,50
736,45	1245,16
736,63	1181,68
736,81	1228,78
736,99	1255,40
737,17	1249,26
737,35	1263,60
737,53	1236,97
737,71	1191,92
737,89	1288,17
738,07	1210,35
738,25	1308,65
738,43	1255,40
738,61	1202,16
738,80	1239,02
738,98	1288,17
739,16	1255,40
739,34	1279,98
739,52	1273,84
739,70	1251,31
739,88	1290,22
740,06	1286,12
740,24	1257,45
740,42	1257,45
740,60	1337,32
740,78	1302,51
740,96	1255,40
741,14	1298,41
741,32	1228,78
741,50	1286,12
741,68	1282,03
741,86	1327,08
742,04	1241,07
742,22	1267,69
742,40	1257,45
742,58	1286,12
742,76	1234,93
742,94	1218,54
743,12	1331,18
743,30	1232,88
743,48	1314,80
743,66	1265,64
743,84	1277,93
744,02	1249,26
744,20	1251,31
744,38	1269,74
744,56	1298,41
744,74	1204,21
744,92	1290,22
745,10	1234,93
745,28	1267,69
745,46	1284,08
745,64	1279,98
745,82	1277,93
746,00	1269,74
746,18	1275,88
746,36	1230,83
746,54	1296,36
746,72	1251,31
746,90	1349,61
747,08	1302,51
747,26	1257,45
747,44	1314,80
747,62	1255,40
747,80	1267,69
747,98	1349,61
748,15	1216,49
748,33	1290,22
748,51	1265,64
748,69	1253,36
748,87	1273,84
749,05	1257,45
749,23	1261,55
749,41	1218,54
749,59	1239,02
749,77	1359,85
749,95	1312,75
750,13	1316,84
750,31	1294,32
750,49	1292,27
750,67	1257,45
750,85	1357,80
751,03	1261,55
751,20	1236,97
751,38	1269,74
751,56	1327,08
751,74	1335,28
751,92	1275,88
752,10	1304,56
752,28	1249,26
752,46	1249,26
752,64	1259,50
752,82	1245,16
753,00	1261,55
753,18	1269,74
753,35	1265,64
753,53	1232,88
753,71	1269,74
753,89	1269,74
754,07	1273,84
754,25	1257,45
754,43	1292,27
754,61	1267,69
754,79	1263,60
754,97	1322,99
755,14	1271,79
755,32	1257,45
755,50	1316,84
755,68	1265,64
755,86	1216,49
756,04	1187,82
756,22	1308,65
756,40	1314,80
756,57	1249,26
756,75	1273,84
756,93	1273,84
757,11	1275,88
757,29	1181,68
757,47	1271,79
757,65	1310,70
757,82	1257,45
758,00	1204,21
758,18	1282,03
758,36	1222,64
758,54	1259,50
758,72	1198,06
758,90	1329,13
759,07	1318,89
759,25	1279,98
759,43	1310,70
759,61	1228,78
759,79	1290,22
759,97	1378,28
760,15	1265,64
760,32	1288,17
760,50	1273,84
760,68	1265,64
760,86	1357,80
761,04	1288,17
761,22	1257,45
761,39	1279,98
761,57	1284,08
761,75	1220,59
761,93	1273,84
762,11	1322,99
762,28	1247,21
762,46	1290,22
762,64	1312,75
762,82	1257,45
763,00	1296,36
763,18	1230,83
763,35	1351,66
763,53	1265,64
763,71	1218,54
763,89	1343,47
764,07	1286,12
764,24	1228,78
764,42	1230,83
764,60	1306,60
764,78	1288,17
764,96	1306,60
765,13	1251,31
765,31	1251,31
765,49	1208,30
765,67	1255,40
765,84	1286,12
766,02	1310,70
766,20	1296,36
766,38	1327,08
766,56	1224,69
766,73	1288,17
766,91	1239,02
767,09	1202,16
767,27	1265,64
767,44	1294,32
767,62	1329,13
767,80	1271,79
767,98	1261,55
768,15	1261,55
768,33	1331,18
768,51	1257,45
768,69	1298,41
768,87	1216,49
769,04	1316,84
769,22	1251,31
769,40	1255,40
769,58	1279,98
769,75	1277,93
769,93	1363,95
770,11	1290,22
770,28	1304,56
770,46	1271,79
770,64	1255,40
770,82	1282,03
770,99	1351,66
771,17	1267,69
771,35	1275,88
771,53	1288,17
771,70	1320,94
771,88	1306,60
772,06	1292,27
772,23	1243,12
772,41	1298,41
772,59	1273,84
772,77	1337,32
772,94	1267,69
773,12	1316,84
773,30	1290,22
773,47	1337,32
773,65	1306,60
773,83	1300,46
774,01	1228,78
774,18	1259,50
774,36	1255,40
774,54	1255,40
774,71	1282,03
774,89	1282,03
775,07	1296,36
775,24	1310,70
775,42	1206,25
775,60	1271,79
775,78	1212,40
775,95	1275,88
776,13	1298,41
776,31	1286,12
776,48	1288,17
776,66	1302,51
776,84	1245,16
777,01	1353,71
777,19	1241,07
777,37	1353,71
777,54	1249,26
777,72	1261,55
777,90	1265,64
778,07	1345,52
778,25	1249,26
778,43	1271,79
778,60	1220,59
778,78	1216,49
778,96	1288,17
779,13	1239,02
779,31	1234,93
779,49	1312,75
779,66	1335,28
779,84	1282,03
780,01	1347,56
780,19	1273,84
780,37	1202,16
780,54	1224,69
780,72	1288,17
780,90	1263,60
781,07	1286,12
781,25	1312,75
781,43	1191,92
781,60	1220,59
781,78	1257,45
781,95	1214,45
782,13	1275,88
782,31	1239,02
782,48	1296,36
782,66	1325,04
782,83	1236,97
783,01	1265,64
783,19	1257,45
783,36	1241,07
783,54	1181,68
783,72	1329,13
783,89	1216,49
784,07	1226,73
784,24	1232,88
784,42	1345,52
784,60	1292,27
784,77	1279,98
784,95	1245,16
785,12	1257,45
785,30	1247,21
785,47	1273,84
785,65	1245,16
785,83	1259,50
786,00	1261,55
786,18	1239,02
786,35	1302,51
786,53	1257,45
786,71	1265,64
786,88	1286,12
787,06	1247,21
787,23	1312,75
787,41	1267,69
787,58	1294,32
787,76	1249,26
787,94	1275,88
788,11	1314,80
788,29	1234,93
788,46	1343,47
788,64	1341,42
788,81	1265,64
788,99	1198,06
789,16	1255,40
789,34	1314,80
789,52	1249,26
789,69	1241,07
789,87	1253,36
790,04	1269,74
790,22	1306,60
790,39	1290,22
790,57	1220,59
790,74	1298,41
790,92	1245,16
791,09	1247,21
791,27	1277,93
791,44	1363,95
791,62	1277,93
791,79	1304,56
791,97	1288,17
792,15	1265,64
792,32	1271,79
792,50	1249,26
792,67	1222,64
792,85	1236,97
793,02	1267,69
793,20	1279,98
793,37	1316,84
793,55	1314,80
793,72	1331,18
793,90	1343,47
794,07	1284,08
794,25	1210,35
794,42	1220,59
794,60	1347,56
794,77	1298,41
794,95	1279,98
795,12	1232,88
795,30	1234,93
795,47	1337,32
795,65	1222,64
795,82	1271,79
796,00	1247,21
796,17	1314,80
796,34	1267,69
796,52	1316,84
796,69	1345,52
796,87	1265,64
797,04	1288,17
797,22	1288,17
797,39	1157,10
797,57	1249,26
797,74	1271,79
797,92	1267,69
798,09	1261,55
798,27	1349,61
798,44	1228,78
798,62	1290,22
798,79	1306,60
798,96	1249,26
799,14	1288,17
799,31	1318,89
799,49	1232,88
799,66	1284,08
799,84	1212,40
800,01	1271,79
800,19	1257,45
800,36	1265,64
800,53	1273,84
800,71	1322,99
800,88	1275,88
801,06	1261,55
801,23	1271,79
801,41	1247,21
801,58	1251,31
801,75	1284,08
801,93	1302,51
802,10	1226,73
802,28	1267,69
802,45	1236,97
802,63	1279,98
802,80	1286,12
802,97	1255,40
803,15	1288,17
803,32	1247,21
803,50	1239,02
803,67	1284,08
803,84	1308,65
804,02	1290,22
804,19	1243,12
804,37	1249,26
804,54	1247,21
804,71	1249,26
804,89	1249,26
805,06	1284,08
805,24	1318,89
805,41	1249,26
805,58	1243,12
805,76	1286,12
805,93	1267,69
806,10	1239,02
806,28	1335,28
806,45	1253,36
806,63	1216,49
806,80	1265,64
806,97	1288,17
807,15	1239,02
807,32	1241,07
807,49	1298,41
807,67	1255,40
807,84	1286,12
808,01	1241,07
808,19	1220,59
808,36	1253,36
808,54	1304,56
808,71	1253,36
808,88	1306,60
809,06	1228,78
809,23	1273,84
809,40	1226,73
809,58	1273,84
809,75	1310,70
809,92	1239,02
810,10	1277,93
810,27	1249,26
810,44	1288,17
810,62	1247,21
810,79	1259,50
810,96	1273,84
811,14	1265,64
811,31	1232,88
811,48	1286,12
811,66	1259,50
811,83	1257,45
812,00	1255,40
812,18	1222,64
812,35	1210,35
812,52	1220,59
812,69	1265,64
812,87	1247,21
813,04	1333,23
813,21	1259,50
813,39	1232,88
813,56	1196,01
813,73	1255,40
813,91	1279,98
814,08	1239,02
814,25	1335,28
814,42	1236,97
814,60	1275,88
814,77	1249,26
814,94	1222,64
815,12	1339,37
815,29	1257,45
815,46	1236,97
815,63	1234,93
815,81	1177,58
815,98	1208,30
816,15	1236,97
816,33	1267,69
816,50	1318,89
816,67	1273,84
816,84	1329,13
817,02	1263,60
817,19	1196,01
817,36	1325,04
817,53	1286,12
817,71	1243,12
817,88	1253,36
818,05	1306,60
818,22	1294,32
818,40	1269,74
818,57	1249,26
818,74	1265,64
818,91	1316,84
819,09	1306,60
819,26	1275,88
819,43	1298,41
819,60	1345,52
819,78	1298,41
819,95	1284,08
820,12	1325,04
820,29	1263,60
820,47	1273,84
820,64	1263,60
820,81	1255,40
820,98	1214,45
821,15	1279,98
821,33	1247,21
821,50	1251,31
821,67	1277,93
821,84	1259,50
822,02	1245,16
822,19	1206,25
822,36	1257,45
822,53	1210,35
822,70	1220,59
822,88	1222,64
823,05	1306,60
823,22	1279,98
823,39	1304,56
823,56	1251,31
823,74	1284,08
823,91	1275,88
824,08	1243,12
824,25	1306,60
824,42	1310,70
824,60	1232,88
824,77	1273,84
824,94	1247,21
825,11	1261,55
825,28	1294,32
825,45	1239,02
825,63	1236,97
825,80	1257,45
825,97	1329,13
826,14	1329,13
826,31	1357,80
826,48	1290,22
826,66	1181,68
826,83	1232,88
827,00	1271,79
827,17	1255,40
827,34	1304,56
827,51	1265,64
827,69	1257,45
827,86	1302,51
828,03	1290,22
828,20	1241,07
828,37	1230,83
828,54	1230,83
828,71	1318,89
828,89	1259,50
829,06	1265,64
829,23	1267,69
829,40	1271,79
829,57	1269,74
829,74	1306,60
829,91	1294,32
830,09	1347,56
830,26	1257,45
830,43	1198,06
830,60	1300,46
830,77	1263,60
830,94	1230,83
831,11	1310,70
831,28	1220,59
831,46	1290,22
831,63	1314,80
831,80	1241,07
831,97	1259,50
832,14	1230,83
832,31	1249,26
832,48	1222,64
832,65	1304,56
832,82	1255,40
832,99	1187,82
833,17	1263,60
833,34	1236,97
833,51	1261,55
833,68	1206,25
833,85	1296,36
834,02	1363,95
834,19	1314,80
834,36	1316,84
834,53	1304,56
834,70	1290,22
834,87	1269,74
835,04	1234,93
835,22	1243,12
835,39	1247,21
835,56	1327,08
835,73	1257,45
835,90	1343,47
836,07	1306,60
836,24	1300,46
836,41	1208,30
836,58	1308,65
836,75	1187,82
836,92	1232,88
837,09	1255,40
837,26	1257,45
837,43	1339,37
837,60	1273,84
837,77	1247,21
837,94	1273,84
838,12	1423,34
838,29	1257,45
838,46	1277,93
838,63	1234,93
838,80	1343,47
838,97	1292,27
839,14	1347,56
839,31	1271,79
839,48	1314,80
839,65	1255,40
839,82	1343,47
839,99	1253,36
840,16	1269,74
840,33	1279,98
840,50	1322,99
840,67	1232,88
840,84	1249,26
841,01	1245,16
841,18	1345,52
841,35	1253,36
841,52	1306,60
841,69	1279,98
841,86	1329,13
842,03	1202,16
842,20	1271,79
842,37	1236,97
842,54	1335,28
842,71	1277,93
842,88	1253,36
843,05	1263,60
843,22	1228,78
843,39	1284,08
843,56	1304,56
843,73	1228,78
843,90	1251,31
844,07	1228,78
844,24	1312,75
844,41	1224,69
844,58	1253,36
844,75	1275,88
844,92	1224,69
845,09	1183,73
845,26	1302,51
845,43	1300,46
845,60	1239,02
845,77	1253,36
845,94	1241,07
846,10	1232,88
846,27	1351,66
846,44	1200,11
846,61	1284,08
846,78	1216,49
846,95	1312,75
847,12	1306,60
847,29	1173,49
847,46	1222,64
847,63	1206,25
847,80	1189,87
847,97	1224,69
848,14	1253,36
848,31	1249,26
848,48	1300,46
848,65	1271,79
848,82	1271,79
848,98	1341,42
849,15	1214,45
849,32	1245,16
849,49	1279,98
849,66	1257,45
849,83	1239,02
850,00	1245,16
850,17	1255,40
850,34	1298,41
850,51	1228,78
850,68	1269,74
850,85	1312,75
851,01	1226,73
851,18	1298,41
851,35	1251,31
851,52	1161,20
851,69	1259,50
851,86	1265,64
852,03	1329,13
852,20	1310,70
852,37	1261,55
852,53	1243,12
852,70	1300,46
852,87	1290,22
853,04	1302,51
853,21	1312,75
853,38	1247,21
853,55	1275,88
853,72	1255,40
853,89	1304,56
854,05	1279,98
854,22	1234,93
854,39	1255,40
854,56	1304,56
854,73	1271,79
854,90	1269,74
855,07	1245,16
855,23	1216,49
855,40	1306,60
855,57	1267,69
855,74	1310,70
855,91	1294,32
856,08	1300,46
856,25	1279,98
856,41	1318,89
856,58	1234,93
856,75	1208,30
856,92	1294,32
857,09	1267,69
857,26	1261,55
857,42	1329,13
857,59	1257,45
857,76	1251,31
857,93	1286,12
858,10	1232,88
858,27	1312,75
858,43	1282,03
858,60	1200,11
858,77	1263,60
858,94	1277,93
859,11	1353,71
859,27	1271,79
859,44	1261,55
859,61	1245,16
859,78	1243,12
859,95	1247,21
860,12	1296,36
860,28	1337,32
860,45	1292,27
860,62	1247,21
860,79	1204,21
860,95	1300,46
861,12	1290,22
861,29	1314,80
861,46	1329,13
861,63	1220,59
861,79	1185,77
861,96	1267,69
862,13	1275,88
862,30	1226,73
862,47	1251,31
862,63	1245,16
862,80	1279,98
862,97	1236,97
863,14	1187,82
863,30	1298,41
863,47	1265,64
863,64	1302,51
863,81	1320,94
863,97	1249,26
864,14	1298,41
864,31	1243,12
864,48	1327,08
864,65	1232,88
864,81	1255,40
864,98	1304,56
865,15	1294,32
865,32	1282,03
865,48	1257,45
865,65	1239,02
865,82	1372,14
865,98	1284,08
866,15	1277,93
866,32	1310,70
866,49	1228,78
866,65	1265,64
866,82	1230,83
866,99	1345,52
867,16	1376,24
867,32	1310,70
867,49	1253,36
867,66	1327,08
867,83	1284,08
867,99	1239,02
868,16	1263,60
868,33	1306,60
868,49	1234,93
868,66	1329,13
868,83	1261,55
868,99	1275,88
869,16	1271,79
869,33	1173,49
869,50	1341,42
869,66	1257,45
869,83	1220,59
870,00	1241,07
870,16	1282,03
870,33	1284,08
870,50	1257,45
870,66	1247,21
870,83	1249,26
871,00	1277,93
871,17	1226,73
871,33	1171,44
871,50	1224,69
871,67	1308,65
871,83	1255,40
872,00	1257,45
872,17	1306,60
872,33	1296,36
872,50	1325,04
872,67	1204,21
872,83	1222,64
873,00	1275,88
873,17	1312,75
873,33	1275,88
873,50	1327,08
873,67	1277,93
873,83	1263,60
874,00	1292,27
874,16	1212,40
874,33	1208,30
874,50	1277,93
874,66	1177,58
874,83	1368,04
875,00	1275,88
875,16	1273,84
875,33	1253,36
875,50	1345,52
875,66	1290,22
875,83	1253,36
875,99	1263,60
876,16	1302,51
876,33	1282,03
876,49	1263,60
876,66	1265,64
876,83	1302,51
876,99	1191,92
877,16	1222,64
877,32	1322,99
877,49	1284,08
877,66	1288,17
877,82	1318,89
877,99	1298,41
878,15	1290,22
878,32	1290,22
878,49	1222,64
878,65	1294,32
878,82	1327,08
878,98	1253,36
879,15	1279,98
879,32	1222,64
879,48	1216,49
879,65	1286,12
879,81	1259,50
879,98	1282,03
880,15	1259,50
880,31	1214,45
880,48	1230,83
880,64	1284,08
880,81	1288,17
880,97	1284,08
881,14	1304,56
881,31	1314,80
881,47	1269,74
881,64	1273,84
881,80	1351,66
881,97	1230,83
882,13	1230,83
882,30	1253,36
882,47	1263,60
882,63	1204,21
882,80	1286,12
882,96	1218,54
883,13	1288,17
883,29	1261,55
883,46	1294,32
883,62	1265,64
883,79	1298,41
883,95	1263,60
884,12	1308,65
884,29	1318,89
884,45	1292,27
884,62	1265,64
884,78	1279,98
884,95	1271,79
885,11	1208,30
885,28	1284,08
885,44	1312,75
885,61	1339,37
885,77	1263,60
885,94	1308,65
886,10	1286,12
886,27	1216,49
886,43	1249,26
886,60	1322,99
886,76	1273,84
886,93	1300,46
887,09	1247,21
887,26	1292,27
887,42	1279,98
887,59	1202,16
887,75	1255,40
887,92	1234,93
888,08	1312,75
888,25	1302,51
888,41	1320,94
888,58	1257,45
888,74	1261,55
888,91	1257,45
>>>>>End Processed Spectral Data<<<<<
