SpectraSuite Data File
++++++++++++++++++++++++++++++++++++
Date: Sun Apr 03 14:42:04 CEST 2016
User: root
Dark Spectrum Present: No
Reference Spectrum Present: No
Number of Sampled Component Spectra: 1
Spectrometers: USB4C02835
Integration Time (usec): 10000 (USB4C02835)
Spectra Averaged: 1 (USB4C02835)
Boxcar Smoothing: 0 (USB4C02835)
Correct for Electrical Dark: No (USB4C02835)
Strobe/Lamp Enabled: No (USB4C02835)
Correct for Detector Non-linearity: No (USB4C02835)
Correct for Stray Light: No (USB4C02835)
Number of Pixels in Processed Spectrum: 3648
>>>>>Begin Processed Spectral Data<<<<<
177,47	1288,17
177,69	1288,17
177,91	1288,17
178,13	1249,26
178,36	1241,07
178,58	1257,45
178,80	1267,69
179,02	1286,12
179,24	1232,88
179,46	1320,94
179,68	1306,60
179,90	1261,55
180,13	1327,08
180,35	1335,28
180,57	1257,45
180,79	1222,64
181,01	1267,69
181,23	1257,45
181,45	1273,84
181,67	1257,45
181,90	1275,88
182,12	1273,84
182,34	1259,50
182,56	1302,51
182,78	1318,89
183,00	1284,08
183,22	1269,74
183,44	1259,50
183,66	1259,50
183,89	1314,80
184,11	1275,88
184,33	1290,22
184,55	1269,74
184,77	1271,79
184,99	1265,64
185,21	1298,41
185,43	1304,56
185,65	1243,12
185,87	1247,21
186,10	1306,60
186,32	1263,60
186,54	1247,21
186,76	1259,50
186,98	1210,35
187,20	1269,74
187,42	1236,97
187,64	1337,32
187,86	1304,56
188,08	1214,45
188,30	1267,69
188,52	1249,26
188,75	1224,69
188,97	1296,36
189,19	1247,21
189,41	1294,32
189,63	1251,31
189,85	1275,88
190,07	1339,37
190,29	1271,79
190,51	1251,31
190,73	1216,49
190,95	1265,64
191,17	1279,98
191,39	1155,05
191,61	1279,98
191,84	1134,57
192,06	1282,03
192,28	1245,16
192,50	1337,32
192,72	1339,37
192,94	1267,69
193,16	1298,41
193,38	1353,71
193,60	1288,17
193,82	1320,94
194,04	1249,26
194,26	1273,84
194,48	1226,73
194,70	1269,74
194,92	1226,73
195,14	1273,84
195,36	1216,49
195,58	1218,54
195,80	1273,84
196,02	1275,88
196,24	1300,46
196,46	1265,64
196,69	1222,64
196,91	1273,84
197,13	1263,60
197,35	1261,55
197,57	1306,60
197,79	1290,22
198,01	1318,89
198,23	1259,50
198,45	1312,75
198,67	1251,31
198,89	1320,94
199,11	1298,41
199,33	1230,83
199,55	1253,36
199,77	1228,78
199,99	1355,76
200,21	1357,80
200,43	1277,93
200,65	1265,64
200,87	1320,94
201,09	1261,55
201,31	1286,12
201,53	1239,02
201,75	1273,84
201,97	1331,18
202,19	1198,06
202,41	1187,82
202,63	1288,17
202,85	1243,12
203,07	1310,70
203,29	1232,88
203,51	1275,88
203,73	1271,79
203,95	1253,36
204,17	1259,50
204,39	1224,69
204,61	1261,55
204,83	1245,16
205,05	1271,79
205,27	1337,32
205,49	1263,60
205,71	1273,84
205,93	1261,55
206,15	1333,23
206,37	1312,75
206,59	1214,45
206,81	1269,74
207,03	1310,70
207,25	1228,78
207,47	1226,73
207,69	1271,79
207,91	1220,59
208,13	1302,51
208,34	1271,79
208,56	1310,70
208,78	1228,78
209,00	1200,11
209,22	1329,13
209,44	1210,35
209,66	1298,41
209,88	1230,83
210,10	1253,36
210,32	1286,12
210,54	1255,40
210,76	1279,98
210,98	1239,02
211,20	1241,07
211,42	1253,36
211,64	1249,26
211,86	1232,88
212,08	1312,75
212,30	1271,79
212,52	1275,88
212,74	1273,84
212,96	1251,31
213,17	1308,65
213,39	1310,70
213,61	1333,23
213,83	1243,12
214,05	1206,25
214,27	1296,36
214,49	1298,41
214,71	1318,89
214,93	1267,69
215,15	1331,18
215,37	1263,60
215,59	1277,93
215,81	1273,84
216,03	1312,75
216,24	1267,69
216,46	1232,88
216,68	1267,69
216,90	1269,74
217,12	1298,41
217,34	1335,28
217,56	1236,97
217,78	1232,88
218,00	1185,77
218,22	1306,60
218,44	1335,28
218,66	1251,31
218,87	1243,12
219,09	1179,63
219,31	1306,60
219,53	1243,12
219,75	1269,74
219,97	1265,64
220,19	1298,41
220,41	1337,32
220,63	1302,51
220,85	1308,65
221,06	1257,45
221,28	1251,31
221,50	1271,79
221,72	1234,93
221,94	1314,80
222,16	1267,69
222,38	1279,98
222,60	1304,56
222,82	1159,15
223,03	1339,37
223,25	1261,55
223,47	1210,35
223,69	1267,69
223,91	1212,40
224,13	1253,36
224,35	1206,25
224,57	1226,73
224,78	1191,92
225,00	1267,69
225,22	1239,02
225,44	1349,61
225,66	1267,69
225,88	1249,26
226,10	1247,21
226,32	1384,43
226,53	1312,75
226,75	1290,22
226,97	1234,93
227,19	1327,08
227,41	1265,64
227,63	1290,22
227,85	1259,50
228,06	1267,69
228,28	1279,98
228,50	1353,71
228,72	1196,01
228,94	1298,41
229,16	1312,75
229,37	1259,50
229,59	1269,74
229,81	1277,93
230,03	1259,50
230,25	1214,45
230,47	1257,45
230,69	1218,54
230,90	1333,23
231,12	1329,13
231,34	1243,12
231,56	1279,98
231,78	1290,22
232,00	1257,45
232,21	1267,69
232,43	1300,46
232,65	1271,79
232,87	1271,79
233,09	1290,22
233,30	1296,36
233,52	1245,16
233,74	1322,99
233,96	1241,07
234,18	1204,21
234,40	1327,08
234,61	1218,54
234,83	1249,26
235,05	1298,41
235,27	1322,99
235,49	1210,35
235,70	1218,54
235,92	1335,28
236,14	1290,22
236,36	1247,21
236,58	1271,79
236,79	1288,17
237,01	1232,88
237,23	1273,84
237,45	1255,40
237,67	1279,98
237,88	1333,23
238,10	1263,60
238,32	1298,41
238,54	1298,41
238,76	1306,60
238,97	1296,36
239,19	1298,41
239,41	1277,93
239,63	1331,18
239,85	1282,03
240,06	1320,94
240,28	1251,31
240,50	1308,65
240,72	1259,50
240,93	1314,80
241,15	1273,84
241,37	1296,36
241,59	1306,60
241,81	1378,28
242,02	1284,08
242,24	1249,26
242,46	1325,04
242,68	1220,59
242,89	1269,74
243,11	1263,60
243,33	1320,94
243,55	1239,02
243,76	1273,84
243,98	1191,92
244,20	1314,80
244,42	1241,07
244,64	1322,99
244,85	1232,88
245,07	1394,67
245,29	1245,16
245,51	1316,84
245,72	1300,46
245,94	1249,26
246,16	1275,88
246,38	1247,21
246,59	1234,93
246,81	1292,27
247,03	1265,64
247,24	1204,21
247,46	1239,02
247,68	1282,03
247,90	1261,55
248,11	1249,26
248,33	1271,79
248,55	1234,93
248,77	1277,93
248,98	1329,13
249,20	1335,28
249,42	1284,08
249,64	1316,84
249,85	1245,16
250,07	1261,55
250,29	1265,64
250,50	1216,49
250,72	1322,99
250,94	1224,69
251,16	1249,26
251,37	1320,94
251,59	1243,12
251,81	1288,17
252,02	1298,41
252,24	1265,64
252,46	1269,74
252,68	1308,65
252,89	1198,06
253,11	1189,87
253,33	1298,41
253,54	1343,47
253,76	1187,82
253,98	1232,88
254,20	1277,93
254,41	1267,69
254,63	1290,22
254,85	1312,75
255,06	1275,88
255,28	1312,75
255,50	1241,07
255,71	1296,36
255,93	1185,77
256,15	1314,80
256,36	1349,61
256,58	1296,36
256,80	1333,23
257,02	1327,08
257,23	1239,02
257,45	1220,59
257,67	1282,03
257,88	1325,04
258,10	1294,32
258,32	1277,93
258,53	1251,31
258,75	1273,84
258,97	1288,17
259,18	1275,88
259,40	1263,60
259,62	1314,80
259,83	1214,45
260,05	1312,75
260,27	1308,65
260,48	1263,60
260,70	1304,56
260,92	1353,71
261,13	1241,07
261,35	1230,83
261,57	1312,75
261,78	1271,79
262,00	1343,47
262,22	1347,56
262,43	1273,84
262,65	1294,32
262,86	1273,84
263,08	1322,99
263,30	1300,46
263,51	1261,55
263,73	1298,41
263,95	1269,74
264,16	1263,60
264,38	1269,74
264,60	1376,24
264,81	1298,41
265,03	1243,12
265,25	1212,40
265,46	1257,45
265,68	1284,08
265,89	1261,55
266,11	1314,80
266,33	1214,45
266,54	1302,51
266,76	1271,79
266,98	1294,32
267,19	1329,13
267,41	1298,41
267,62	1236,97
267,84	1224,69
268,06	1249,26
268,27	1230,83
268,49	1302,51
268,70	1345,52
268,92	1298,41
269,14	1298,41
269,35	1249,26
269,57	1257,45
269,79	1249,26
270,00	1290,22
270,22	1263,60
270,43	1314,80
270,65	1308,65
270,87	1249,26
271,08	1314,80
271,30	1288,17
271,51	1271,79
271,73	1241,07
271,95	1261,55
272,16	1263,60
272,38	1216,49
272,59	1200,11
272,81	1304,56
273,02	1306,60
273,24	1314,80
273,46	1282,03
273,67	1208,30
273,89	1294,32
274,10	1269,74
274,32	1222,64
274,54	1228,78
274,75	1263,60
274,97	1271,79
275,18	1288,17
275,40	1277,93
275,61	1308,65
275,83	1216,49
276,05	1263,60
276,26	1298,41
276,48	1187,82
276,69	1296,36
276,91	1251,31
277,12	1212,40
277,34	1290,22
277,55	1306,60
277,77	1292,27
277,99	1318,89
278,20	1189,87
278,42	1257,45
278,63	1251,31
278,85	1279,98
279,06	1249,26
279,28	1236,97
279,49	1226,73
279,71	1259,50
279,93	1277,93
280,14	1277,93
280,36	1210,35
280,57	1320,94
280,79	1265,64
281,00	1312,75
281,22	1302,51
281,43	1216,49
281,65	1318,89
281,86	1282,03
282,08	1273,84
282,29	1398,76
282,51	1298,41
282,73	1298,41
282,94	1249,26
283,16	1300,46
283,37	1263,60
283,59	1159,15
283,80	1279,98
284,02	1331,18
284,23	1318,89
284,45	1296,36
284,66	1236,97
284,88	1263,60
285,09	1339,37
285,31	1310,70
285,52	1261,55
285,74	1290,22
285,95	1230,83
286,17	1198,06
286,38	1320,94
286,60	1288,17
286,81	1282,03
287,03	1304,56
287,24	1341,42
287,46	1255,40
287,67	1234,93
287,89	1294,32
288,10	1253,36
288,32	1165,29
288,53	1331,18
288,75	1232,88
288,96	1271,79
289,18	1310,70
289,39	1288,17
289,61	1302,51
289,82	1243,12
290,04	1351,66
290,25	1234,93
290,47	1247,21
290,68	1304,56
290,90	1335,28
291,11	1265,64
291,33	1306,60
291,54	1224,69
291,76	1288,17
291,97	1245,16
292,18	1284,08
292,40	1267,69
292,61	1300,46
292,83	1279,98
293,04	1306,60
293,26	1265,64
293,47	1253,36
293,69	1292,27
293,90	1232,88
294,12	1308,65
294,33	1318,89
294,55	1261,55
294,76	1255,40
294,97	1286,12
295,19	1277,93
295,40	1290,22
295,62	1271,79
295,83	1241,07
296,05	1290,22
296,26	1277,93
296,48	1290,22
296,69	1259,50
296,90	1253,36
297,12	1288,17
297,33	1263,60
297,55	1277,93
297,76	1259,50
297,98	1286,12
298,19	1247,21
298,41	1279,98
298,62	1212,40
298,83	1296,36
299,05	1261,55
299,26	1322,99
299,48	1312,75
299,69	1296,36
299,90	1302,51
300,12	1290,22
300,33	1296,36
300,55	1286,12
300,76	1247,21
300,98	1322,99
301,19	1282,03
301,40	1218,54
301,62	1210,35
301,83	1277,93
302,05	1245,16
302,26	1263,60
302,47	1292,27
302,69	1333,23
302,90	1300,46
303,12	1275,88
303,33	1267,69
303,54	1300,46
303,76	1230,83
303,97	1312,75
304,19	1239,02
304,40	1259,50
304,61	1292,27
304,83	1286,12
305,04	1257,45
305,26	1300,46
305,47	1247,21
305,68	1263,60
305,90	1257,45
306,11	1243,12
306,33	1220,59
306,54	1282,03
306,75	1265,64
306,97	1200,11
307,18	1294,32
307,39	1263,60
307,61	1259,50
307,82	1292,27
308,04	1310,70
308,25	1320,94
308,46	1185,77
308,68	1302,51
308,89	1294,32
309,10	1239,02
309,32	1249,26
309,53	1179,63
309,74	1210,35
309,96	1265,64
310,17	1298,41
310,39	1277,93
310,60	1282,03
310,81	1251,31
311,03	1249,26
311,24	1368,04
311,45	1265,64
311,67	1269,74
311,88	1327,08
312,09	1347,56
312,31	1288,17
312,52	1214,45
312,73	1249,26
312,95	1273,84
313,16	1245,16
313,37	1228,78
313,59	1255,40
313,80	1210,35
314,01	1216,49
314,23	1257,45
314,44	1265,64
314,65	1239,02
314,87	1269,74
315,08	1257,45
315,29	1257,45
315,51	1282,03
315,72	1255,40
315,93	1316,84
316,15	1279,98
316,36	1265,64
316,57	1279,98
316,79	1333,23
317,00	1234,93
317,21	1302,51
317,43	1263,60
317,64	1218,54
317,85	1216,49
318,07	1243,12
318,28	1314,80
318,49	1349,61
318,70	1226,73
318,92	1306,60
319,13	1320,94
319,34	1224,69
319,56	1271,79
319,77	1216,49
319,98	1314,80
320,20	1251,31
320,41	1239,02
320,62	1294,32
320,83	1216,49
321,05	1165,29
321,26	1284,08
321,47	1214,45
321,69	1239,02
321,90	1249,26
322,11	1243,12
322,32	1314,80
322,54	1380,33
322,75	1277,93
322,96	1282,03
323,18	1312,75
323,39	1273,84
323,60	1245,16
323,81	1277,93
324,03	1273,84
324,24	1320,94
324,45	1310,70
324,66	1279,98
324,88	1269,74
325,09	1232,88
325,30	1329,13
325,52	1261,55
325,73	1171,44
325,94	1269,74
326,15	1265,64
326,37	1288,17
326,58	1249,26
326,79	1279,98
327,00	1292,27
327,22	1241,07
327,43	1273,84
327,64	1191,92
327,85	1306,60
328,07	1241,07
328,28	1304,56
328,49	1314,80
328,70	1279,98
328,92	1216,49
329,13	1353,71
329,34	1255,40
329,55	1259,50
329,76	1286,12
329,98	1234,93
330,19	1296,36
330,40	1228,78
330,61	1296,36
330,83	1290,22
331,04	1191,92
331,25	1236,97
331,46	1282,03
331,68	1200,11
331,89	1308,65
332,10	1251,31
332,31	1247,21
332,52	1355,76
332,74	1214,45
332,95	1179,63
333,16	1234,93
333,37	1290,22
333,58	1249,26
333,80	1290,22
334,01	1230,83
334,22	1257,45
334,43	1198,06
334,64	1204,21
334,86	1241,07
335,07	1339,37
335,28	1257,45
335,49	1273,84
335,70	1335,28
335,92	1288,17
336,13	1247,21
336,34	1300,46
336,55	1273,84
336,76	1249,26
336,98	1214,45
337,19	1296,36
337,40	1277,93
337,61	1322,99
337,82	1337,32
338,04	1349,61
338,25	1345,52
338,46	1279,98
338,67	1279,98
338,88	1267,69
339,09	1316,84
339,31	1286,12
339,52	1282,03
339,73	1347,56
339,94	1247,21
340,15	1212,40
340,36	1298,41
340,58	1298,41
340,79	1304,56
341,00	1331,18
341,21	1222,64
341,42	1290,22
341,63	1243,12
341,85	1243,12
342,06	1327,08
342,27	1263,60
342,48	1300,46
342,69	1208,30
342,90	1296,36
343,12	1249,26
343,33	1206,25
343,54	1282,03
343,75	1271,79
343,96	1243,12
344,17	1286,12
344,38	1288,17
344,60	1265,64
344,81	1232,88
345,02	1312,75
345,23	1243,12
345,44	1288,17
345,65	1284,08
345,86	1314,80
346,07	1224,69
346,29	1218,54
346,50	1265,64
346,71	1263,60
346,92	1269,74
347,13	1277,93
347,34	1241,07
347,55	1318,89
347,76	1306,60
347,98	1265,64
348,19	1241,07
348,40	1239,02
348,61	1226,73
348,82	1294,32
349,03	1218,54
349,24	1251,31
349,45	1271,79
349,66	1259,50
349,88	1249,26
350,09	1271,79
350,30	1277,93
350,51	1286,12
350,72	1298,41
350,93	1329,13
351,14	1234,93
351,35	1249,26
351,56	1366,00
351,77	1239,02
351,99	1269,74
352,20	1255,40
352,41	1318,89
352,62	1224,69
352,83	1290,22
353,04	1286,12
353,25	1290,22
353,46	1279,98
353,67	1222,64
353,88	1345,52
354,09	1310,70
354,30	1241,07
354,52	1228,78
354,73	1288,17
354,94	1273,84
355,15	1275,88
355,36	1296,36
355,57	1259,50
355,78	1267,69
355,99	1255,40
356,20	1292,27
356,41	1288,17
356,62	1341,42
356,83	1292,27
357,04	1271,79
357,25	1282,03
357,46	1263,60
357,68	1290,22
357,89	1269,74
358,10	1222,64
358,31	1228,78
358,52	1245,16
358,73	1234,93
358,94	1232,88
359,15	1290,22
359,36	1292,27
359,57	1335,28
359,78	1255,40
359,99	1216,49
360,20	1329,13
360,41	1341,42
360,62	1322,99
360,83	1232,88
361,04	1298,41
361,25	1239,02
361,46	1222,64
361,67	1265,64
361,88	1243,12
362,09	1277,93
362,30	1279,98
362,51	1187,82
362,72	1181,68
362,93	1296,36
363,14	1261,55
363,35	1275,88
363,56	1310,70
363,78	1304,56
363,99	1222,64
364,20	1265,64
364,41	1257,45
364,62	1286,12
364,83	1318,89
365,04	1302,51
365,25	1282,03
365,46	1322,99
365,67	1292,27
365,88	1322,99
366,09	1175,53
366,30	1241,07
366,51	1255,40
366,72	1273,84
366,93	1239,02
367,14	1247,21
367,35	1257,45
367,56	1257,45
367,77	1271,79
367,98	1251,31
368,18	1210,35
368,39	1271,79
368,60	1296,36
368,81	1249,26
369,02	1290,22
369,23	1228,78
369,44	1279,98
369,65	1251,31
369,86	1241,07
370,07	1239,02
370,28	1241,07
370,49	1236,97
370,70	1245,16
370,91	1273,84
371,12	1273,84
371,33	1234,93
371,54	1236,97
371,75	1320,94
371,96	1239,02
372,17	1247,21
372,38	1275,88
372,59	1247,21
372,80	1208,30
373,01	1265,64
373,22	1245,16
373,43	1249,26
373,64	1273,84
373,85	1279,98
374,06	1265,64
374,26	1243,12
374,47	1292,27
374,68	1265,64
374,89	1239,02
375,10	1255,40
375,31	1314,80
375,52	1239,02
375,73	1245,16
375,94	1298,41
376,15	1302,51
376,36	1257,45
376,57	1245,16
376,78	1286,12
376,99	1263,60
377,20	1245,16
377,40	1300,46
377,61	1275,88
377,82	1267,69
378,03	1245,16
378,24	1284,08
378,45	1226,73
378,66	1298,41
378,87	1290,22
379,08	1284,08
379,29	1241,07
379,50	1265,64
379,71	1298,41
379,91	1257,45
380,12	1298,41
380,33	1241,07
380,54	1298,41
380,75	1282,03
380,96	1247,21
381,17	1308,65
381,38	1243,12
381,59	1161,20
381,80	1296,36
382,00	1265,64
382,21	1298,41
382,42	1282,03
382,63	1290,22
382,84	1261,55
383,05	1304,56
383,26	1232,88
383,47	1288,17
383,68	1331,18
383,88	1226,73
384,09	1273,84
384,30	1234,93
384,51	1282,03
384,72	1292,27
384,93	1333,23
385,14	1284,08
385,35	1183,73
385,55	1282,03
385,76	1245,16
385,97	1259,50
386,18	1216,49
386,39	1279,98
386,60	1308,65
386,81	1243,12
387,02	1257,45
387,22	1271,79
387,43	1269,74
387,64	1263,60
387,85	1273,84
388,06	1230,83
388,27	1273,84
388,48	1316,84
388,68	1329,13
388,89	1234,93
389,10	1249,26
389,31	1275,88
389,52	1314,80
389,73	1253,36
389,93	1253,36
390,14	1208,30
390,35	1300,46
390,56	1312,75
390,77	1306,60
390,98	1236,97
391,18	1292,27
391,39	1189,87
391,60	1320,94
391,81	1269,74
392,02	1269,74
392,23	1241,07
392,43	1296,36
392,64	1183,73
392,85	1318,89
393,06	1292,27
393,27	1247,21
393,47	1245,16
393,68	1277,93
393,89	1273,84
394,10	1271,79
394,31	1318,89
394,52	1312,75
394,72	1255,40
394,93	1245,16
395,14	1236,97
395,35	1306,60
395,56	1251,31
395,76	1275,88
395,97	1220,59
396,18	1331,18
396,39	1284,08
396,60	1245,16
396,80	1271,79
397,01	1290,22
397,22	1220,59
397,43	1320,94
397,64	1304,56
397,84	1275,88
398,05	1333,23
398,26	1286,12
398,47	1251,31
398,67	1267,69
398,88	1290,22
399,09	1212,40
399,30	1279,98
399,51	1298,41
399,71	1167,34
399,92	1263,60
400,13	1224,69
400,34	1288,17
400,54	1245,16
400,75	1282,03
400,96	1322,99
401,17	1282,03
401,37	1232,88
401,58	1267,69
401,79	1294,32
402,00	1228,78
402,21	1251,31
402,41	1294,32
402,62	1273,84
402,83	1279,98
403,04	1185,77
403,24	1279,98
403,45	1310,70
403,66	1286,12
403,87	1261,55
404,07	1312,75
404,28	1288,17
404,49	1337,32
404,70	1236,97
404,90	1314,80
405,11	1169,39
405,32	1253,36
405,52	1288,17
405,73	1286,12
405,94	1249,26
406,15	1228,78
406,35	1292,27
406,56	1222,64
406,77	1247,21
406,98	1302,51
407,18	1243,12
407,39	1279,98
407,60	1167,34
407,80	1339,37
408,01	1191,92
408,22	1318,89
408,43	1239,02
408,63	1288,17
408,84	1269,74
409,05	1337,32
409,25	1282,03
409,46	1228,78
409,67	1200,11
409,88	1316,84
410,08	1251,31
410,29	1263,60
410,50	1325,04
410,70	1314,80
410,91	1253,36
411,12	1243,12
411,32	1251,31
411,53	1265,64
411,74	1298,41
411,95	1288,17
412,15	1296,36
412,36	1316,84
412,57	1224,69
412,77	1230,83
412,98	1214,45
413,19	1306,60
413,39	1226,73
413,60	1265,64
413,81	1241,07
414,01	1241,07
414,22	1222,64
414,43	1282,03
414,63	1279,98
414,84	1282,03
415,05	1224,69
415,25	1228,78
415,46	1300,46
415,67	1241,07
415,87	1290,22
416,08	1261,55
416,29	1290,22
416,49	1165,29
416,70	1296,36
416,91	1226,73
417,11	1298,41
417,32	1271,79
417,53	1257,45
417,73	1236,97
417,94	1253,36
418,15	1286,12
418,35	1265,64
418,56	1304,56
418,77	1232,88
418,97	1273,84
419,18	1275,88
419,38	1302,51
419,59	1267,69
419,80	1251,31
420,00	1247,21
420,21	1216,49
420,42	1200,11
420,62	1273,84
420,83	1232,88
421,04	1312,75
421,24	1259,50
421,45	1212,40
421,65	1224,69
421,86	1181,68
422,07	1275,88
422,27	1210,35
422,48	1327,08
422,69	1236,97
422,89	1208,30
423,10	1290,22
423,30	1179,63
423,51	1279,98
423,72	1265,64
423,92	1292,27
424,13	1239,02
424,33	1265,64
424,54	1347,56
424,75	1255,40
424,95	1288,17
425,16	1247,21
425,36	1263,60
425,57	1345,52
425,78	1243,12
425,98	1302,51
426,19	1257,45
426,39	1255,40
426,60	1322,99
426,81	1251,31
427,01	1284,08
427,22	1363,95
427,42	1198,06
427,63	1247,21
427,83	1322,99
428,04	1263,60
428,25	1245,16
428,45	1337,32
428,66	1269,74
428,86	1290,22
429,07	1292,27
429,28	1241,07
429,48	1322,99
429,69	1253,36
429,89	1249,26
430,10	1230,83
430,30	1273,84
430,51	1163,25
430,71	1245,16
430,92	1245,16
431,13	1298,41
431,33	1230,83
431,54	1232,88
431,74	1234,93
431,95	1294,32
432,15	1253,36
432,36	1265,64
432,56	1300,46
432,77	1302,51
432,98	1308,65
433,18	1253,36
433,39	1292,27
433,59	1273,84
433,80	1339,37
434,00	1241,07
434,21	1208,30
434,41	1294,32
434,62	1259,50
434,82	1265,64
435,03	1351,66
435,23	1300,46
435,44	1320,94
435,64	1296,36
435,85	1243,12
436,06	1322,99
436,26	1273,84
436,47	1222,64
436,67	1282,03
436,88	1286,12
437,08	1296,36
437,29	1267,69
437,49	1257,45
437,70	1216,49
437,90	1269,74
438,11	1296,36
438,31	1322,99
438,52	1310,70
438,72	1273,84
438,93	1322,99
439,13	1265,64
439,34	1286,12
439,54	1183,73
439,75	1310,70
439,95	1279,98
440,16	1320,94
440,36	1247,21
440,57	1282,03
440,77	1329,13
440,98	1322,99
441,18	1208,30
441,39	1316,84
441,59	1179,63
441,80	1286,12
442,00	1279,98
442,21	1259,50
442,41	1253,36
442,62	1333,23
442,82	1226,73
443,02	1228,78
443,23	1275,88
443,43	1284,08
443,64	1253,36
443,84	1222,64
444,05	1232,88
444,25	1239,02
444,46	1239,02
444,66	1257,45
444,87	1265,64
445,07	1234,93
445,28	1304,56
445,48	1181,68
445,69	1230,83
445,89	1236,97
446,09	1282,03
446,30	1286,12
446,50	1263,60
446,71	1214,45
446,91	1271,79
447,12	1222,64
447,32	1236,97
447,53	1228,78
447,73	1222,64
447,93	1300,46
448,14	1261,55
448,34	1259,50
448,55	1263,60
448,75	1222,64
448,96	1261,55
449,16	1208,30
449,36	1255,40
449,57	1175,53
449,77	1282,03
449,98	1275,88
450,18	1310,70
450,39	1300,46
450,59	1337,32
450,79	1255,40
451,00	1214,45
451,20	1251,31
451,41	1253,36
451,61	1193,97
451,81	1255,40
452,02	1277,93
452,22	1243,12
452,43	1341,42
452,63	1277,93
452,84	1310,70
453,04	1275,88
453,24	1263,60
453,45	1261,55
453,65	1228,78
453,86	1273,84
454,06	1222,64
454,26	1273,84
454,47	1196,01
454,67	1218,54
454,87	1282,03
455,08	1282,03
455,28	1224,69
455,49	1271,79
455,69	1220,59
455,89	1210,35
456,10	1290,22
456,30	1298,41
456,51	1273,84
456,71	1296,36
456,91	1255,40
457,12	1316,84
457,32	1292,27
457,52	1288,17
457,73	1255,40
457,93	1218,54
458,14	1288,17
458,34	1288,17
458,54	1288,17
458,75	1261,55
458,95	1298,41
459,15	1271,79
459,36	1335,28
459,56	1286,12
459,76	1306,60
459,97	1302,51
460,17	1245,16
460,37	1255,40
460,58	1236,97
460,78	1298,41
460,99	1253,36
461,19	1236,97
461,39	1273,84
461,60	1249,26
461,80	1284,08
462,00	1351,66
462,21	1228,78
462,41	1234,93
462,61	1239,02
462,82	1304,56
463,02	1298,41
463,22	1333,23
463,43	1273,84
463,63	1376,24
463,83	1355,76
464,04	1198,06
464,24	1302,51
464,44	1327,08
464,64	1277,93
464,85	1271,79
465,05	1265,64
465,25	1243,12
465,46	1228,78
465,66	1273,84
465,86	1241,07
466,07	1331,18
466,27	1218,54
466,47	1286,12
466,68	1300,46
466,88	1327,08
467,08	1286,12
467,29	1222,64
467,49	1314,80
467,69	1302,51
467,89	1282,03
468,10	1210,35
468,30	1294,32
468,50	1288,17
468,71	1329,13
468,91	1288,17
469,11	1220,59
469,31	1265,64
469,52	1234,93
469,72	1339,37
469,92	1257,45
470,13	1271,79
470,33	1273,84
470,53	1320,94
470,73	1308,65
470,94	1286,12
471,14	1292,27
471,34	1255,40
471,54	1218,54
471,75	1296,36
471,95	1241,07
472,15	1288,17
472,36	1245,16
472,56	1277,93
472,76	1277,93
472,96	1286,12
473,17	1351,66
473,37	1288,17
473,57	1228,78
473,77	1298,41
473,98	1286,12
474,18	1275,88
474,38	1294,32
474,58	1232,88
474,79	1179,63
474,99	1214,45
475,19	1245,16
475,39	1310,70
475,60	1290,22
475,80	1288,17
476,00	1282,03
476,20	1275,88
476,41	1286,12
476,61	1226,73
476,81	1294,32
477,01	1296,36
477,21	1349,61
477,42	1239,02
477,62	1263,60
477,82	1241,07
478,02	1247,21
478,23	1290,22
478,43	1259,50
478,63	1253,36
478,83	1271,79
479,03	1298,41
479,24	1308,65
479,44	1271,79
479,64	1271,79
479,84	1271,79
480,04	1271,79
480,25	1273,84
480,45	1187,82
480,65	1228,78
480,85	1247,21
481,06	1247,21
481,26	1306,60
481,46	1255,40
481,66	1255,40
481,86	1267,69
482,06	1312,75
482,27	1312,75
482,47	1284,08
482,67	1261,55
482,87	1298,41
483,07	1255,40
483,28	1230,83
483,48	1257,45
483,68	1243,12
483,88	1241,07
484,08	1202,16
484,29	1296,36
484,49	1273,84
484,69	1222,64
484,89	1357,80
485,09	1282,03
485,29	1230,83
485,50	1173,49
485,70	1318,89
485,90	1239,02
486,10	1290,22
486,30	1234,93
486,50	1282,03
486,71	1241,07
486,91	1247,21
487,11	1265,64
487,31	1247,21
487,51	1239,02
487,71	1263,60
487,91	1273,84
488,12	1300,46
488,32	1335,28
488,52	1288,17
488,72	1322,99
488,92	1236,97
489,12	1210,35
489,32	1298,41
489,53	1282,03
489,73	1265,64
489,93	1259,50
490,13	1232,88
490,33	1191,92
490,53	1245,16
490,73	1273,84
490,94	1241,07
491,14	1234,93
491,34	1212,40
491,54	1302,51
491,74	1196,01
491,94	1251,31
492,14	1224,69
492,34	1269,74
492,54	1288,17
492,75	1200,11
492,95	1288,17
493,15	1259,50
493,35	1222,64
493,55	1243,12
493,75	1232,88
493,95	1279,98
494,15	1294,32
494,35	1314,80
494,56	1314,80
494,76	1308,65
494,96	1265,64
495,16	1257,45
495,36	1196,01
495,56	1265,64
495,76	1253,36
495,96	1234,93
496,16	1288,17
496,36	1230,83
496,56	1249,26
496,77	1282,03
496,97	1239,02
497,17	1267,69
497,37	1288,17
497,57	1292,27
497,77	1265,64
497,97	1241,07
498,17	1202,16
498,37	1370,09
498,57	1269,74
498,77	1230,83
498,97	1261,55
499,17	1302,51
499,38	1228,78
499,58	1282,03
499,78	1265,64
499,98	1251,31
500,18	1228,78
500,38	1234,93
500,58	1359,85
500,78	1320,94
500,98	1243,12
501,18	1222,64
501,38	1298,41
501,58	1277,93
501,78	1263,60
501,98	1261,55
502,18	1245,16
502,38	1253,36
502,58	1273,84
502,78	1273,84
502,98	1302,51
503,18	1322,99
503,38	1226,73
503,59	1320,94
503,79	1290,22
503,99	1267,69
504,19	1284,08
504,39	1318,89
504,59	1339,37
504,79	1265,64
504,99	1251,31
505,19	1222,64
505,39	1300,46
505,59	1232,88
505,79	1290,22
505,99	1259,50
506,19	1263,60
506,39	1288,17
506,59	1208,30
506,79	1245,16
506,99	1288,17
507,19	1300,46
507,39	1236,97
507,59	1253,36
507,79	1310,70
507,99	1316,84
508,19	1265,64
508,39	1290,22
508,59	1269,74
508,79	1273,84
508,99	1175,53
509,19	1228,78
509,39	1273,84
509,59	1314,80
509,79	1308,65
509,99	1374,19
510,19	1331,18
510,39	1275,88
510,59	1232,88
510,79	1198,06
510,99	1284,08
511,19	1316,84
511,39	1279,98
511,59	1296,36
511,79	1261,55
511,99	1288,17
512,19	1290,22
512,38	1245,16
512,58	1279,98
512,78	1263,60
512,98	1288,17
513,18	1241,07
513,38	1300,46
513,58	1234,93
513,78	1366,00
513,98	1236,97
514,18	1253,36
514,38	1187,82
514,58	1275,88
514,78	1236,97
514,98	1255,40
515,18	1286,12
515,38	1208,30
515,58	1247,21
515,78	1263,60
515,98	1296,36
516,18	1335,28
516,38	1286,12
516,57	1263,60
516,77	1255,40
516,97	1290,22
517,17	1208,30
517,37	1275,88
517,57	1247,21
517,77	1202,16
517,97	1214,45
518,17	1228,78
518,37	1200,11
518,57	1327,08
518,77	1265,64
518,97	1236,97
519,16	1290,22
519,36	1273,84
519,56	1236,97
519,76	1257,45
519,96	1239,02
520,16	1304,56
520,36	1282,03
520,56	1191,92
520,76	1284,08
520,96	1288,17
521,16	1325,04
521,35	1290,22
521,55	1255,40
521,75	1306,60
521,95	1271,79
522,15	1232,88
522,35	1228,78
522,55	1310,70
522,75	1265,64
522,95	1247,21
523,14	1320,94
523,34	1273,84
523,54	1265,64
523,74	1296,36
523,94	1337,32
524,14	1224,69
524,34	1273,84
524,54	1230,83
524,73	1296,36
524,93	1284,08
525,13	1351,66
525,33	1263,60
525,53	1257,45
525,73	1216,49
525,93	1245,16
526,13	1318,89
526,32	1355,76
526,52	1245,16
526,72	1320,94
526,92	1269,74
527,12	1251,31
527,32	1269,74
527,52	1241,07
527,71	1253,36
527,91	1288,17
528,11	1271,79
528,31	1265,64
528,51	1222,64
528,71	1269,74
528,90	1277,93
529,10	1239,02
529,30	1243,12
529,50	1259,50
529,70	1300,46
529,90	1179,63
530,09	1279,98
530,29	1263,60
530,49	1271,79
530,69	1290,22
530,89	1255,40
531,09	1359,85
531,28	1271,79
531,48	1277,93
531,68	1294,32
531,88	1290,22
532,08	1290,22
532,28	1216,49
532,47	1257,45
532,67	1239,02
532,87	1232,88
533,07	1288,17
533,27	1282,03
533,46	1255,40
533,66	1343,47
533,86	1282,03
534,06	1325,04
534,26	1325,04
534,45	1298,41
534,65	1271,79
534,85	1320,94
535,05	1271,79
535,25	1216,49
535,44	1312,75
535,64	1273,84
535,84	1288,17
536,04	1273,84
536,24	1257,45
536,43	1296,36
536,63	1316,84
536,83	1316,84
537,03	1218,54
537,22	1277,93
537,42	1388,52
537,62	1310,70
537,82	1220,59
538,02	1263,60
538,21	1171,44
538,41	1241,07
538,61	1277,93
538,81	1300,46
539,00	1304,56
539,20	1210,35
539,40	1257,45
539,60	1269,74
539,79	1298,41
539,99	1316,84
540,19	1265,64
540,39	1236,97
540,58	1232,88
540,78	1249,26
540,98	1251,31
541,18	1314,80
541,37	1173,49
541,57	1251,31
541,77	1234,93
541,97	1329,13
542,16	1216,49
542,36	1355,76
542,56	1271,79
542,76	1343,47
542,95	1206,25
543,15	1286,12
543,35	1247,21
543,54	1247,21
543,74	1329,13
543,94	1232,88
544,14	1218,54
544,33	1275,88
544,53	1347,56
544,73	1257,45
544,93	1331,18
545,12	1261,55
545,32	1243,12
545,52	1269,74
545,71	1320,94
545,91	1300,46
546,11	1216,49
546,30	1228,78
546,50	1312,75
546,70	1204,21
546,90	1224,69
547,09	1253,36
547,29	1277,93
547,49	1279,98
547,68	1304,56
547,88	1335,28
548,08	1243,12
548,27	1355,76
548,47	1331,18
548,67	1257,45
548,87	1337,32
549,06	1314,80
549,26	1273,84
549,46	1269,74
549,65	1220,59
549,85	1220,59
550,05	1253,36
550,24	1245,16
550,44	1279,98
550,64	1198,06
550,83	1306,60
551,03	1230,83
551,23	1312,75
551,42	1218,54
551,62	1288,17
551,82	1265,64
552,01	1288,17
552,21	1273,84
552,41	1296,36
552,60	1351,66
552,80	1288,17
553,00	1259,50
553,19	1290,22
553,39	1277,93
553,59	1228,78
553,78	1239,02
553,98	1353,71
554,17	1282,03
554,37	1302,51
554,57	1284,08
554,76	1247,21
554,96	1286,12
555,16	1257,45
555,35	1302,51
555,55	1198,06
555,75	1243,12
555,94	1298,41
556,14	1271,79
556,33	1314,80
556,53	1220,59
556,73	1198,06
556,92	1273,84
557,12	1333,23
557,32	1263,60
557,51	1298,41
557,71	1267,69
557,90	1275,88
558,10	1253,36
558,30	1234,93
558,49	1310,70
558,69	1335,28
558,88	1314,80
559,08	1241,07
559,28	1265,64
559,47	1273,84
559,67	1216,49
559,86	1325,04
560,06	1222,64
560,26	1265,64
560,45	1298,41
560,65	1277,93
560,84	1269,74
561,04	1273,84
561,24	1222,64
561,43	1228,78
561,63	1206,25
561,82	1282,03
562,02	1253,36
562,22	1306,60
562,41	1159,15
562,61	1277,93
562,80	1232,88
563,00	1302,51
563,19	1269,74
563,39	1306,60
563,59	1279,98
563,78	1232,88
563,98	1286,12
564,17	1279,98
564,37	1286,12
564,56	1224,69
564,76	1239,02
564,96	1251,31
565,15	1290,22
565,35	1347,56
565,54	1331,18
565,74	1290,22
565,93	1300,46
566,13	1259,50
566,32	1261,55
566,52	1320,94
566,71	1288,17
566,91	1249,26
567,11	1271,79
567,30	1277,93
567,50	1292,27
567,69	1271,79
567,89	1290,22
568,08	1208,30
568,28	1208,30
568,47	1267,69
568,67	1267,69
568,86	1273,84
569,06	1292,27
569,25	1228,78
569,45	1282,03
569,64	1249,26
569,84	1284,08
570,04	1298,41
570,23	1257,45
570,43	1247,21
570,62	1284,08
570,82	1359,85
571,01	1257,45
571,21	1239,02
571,40	1228,78
571,60	1302,51
571,79	1198,06
571,99	1241,07
572,18	1339,37
572,38	1314,80
572,57	1298,41
572,77	1228,78
572,96	1296,36
573,16	1271,79
573,35	1341,42
573,55	1279,98
573,74	1310,70
573,94	1259,50
574,13	1216,49
574,33	1341,42
574,52	1241,07
574,71	1222,64
574,91	1312,75
575,10	1263,60
575,30	1228,78
575,49	1284,08
575,69	1232,88
575,88	1247,21
576,08	1214,45
576,27	1284,08
576,47	1312,75
576,66	1310,70
576,86	1259,50
577,05	1386,47
577,25	1249,26
577,44	1318,89
577,64	1304,56
577,83	1265,64
578,02	1261,55
578,22	1282,03
578,41	1265,64
578,61	1343,47
578,80	1337,32
579,00	1275,88
579,19	1329,13
579,39	1232,88
579,58	1269,74
579,77	1273,84
579,97	1339,37
580,16	1259,50
580,36	1279,98
580,55	1314,80
580,75	1306,60
580,94	1290,22
581,13	1245,16
581,33	1320,94
581,52	1241,07
581,72	1282,03
581,91	1269,74
582,11	1304,56
582,30	1279,98
582,49	1271,79
582,69	1298,41
582,88	1316,84
583,08	1228,78
583,27	1261,55
583,47	1249,26
583,66	1286,12
583,85	1267,69
584,05	1314,80
584,24	1296,36
584,44	1249,26
584,63	1314,80
584,82	1306,60
585,02	1249,26
585,21	1232,88
585,41	1249,26
585,60	1224,69
585,79	1304,56
585,99	1253,36
586,18	1269,74
586,37	1249,26
586,57	1226,73
586,76	1253,36
586,96	1288,17
587,15	1243,12
587,34	1314,80
587,54	1249,26
587,73	1290,22
587,93	1345,52
588,12	1202,16
588,31	1249,26
588,51	1308,65
588,70	1230,83
588,89	1245,16
589,09	1245,16
589,28	1241,07
589,47	1245,16
589,67	1198,06
589,86	1247,21
590,06	1220,59
590,25	1263,60
590,44	1208,30
590,64	1208,30
590,83	1259,50
591,02	1271,79
591,22	1337,32
591,41	1193,97
591,60	1316,84
591,80	1329,13
591,99	1302,51
592,18	1216,49
592,38	1236,97
592,57	1275,88
592,76	1308,65
592,96	1284,08
593,15	1224,69
593,34	1335,28
593,54	1286,12
593,73	1222,64
593,92	1341,42
594,12	1261,55
594,31	1331,18
594,50	1296,36
594,70	1224,69
594,89	1253,36
595,08	1232,88
595,28	1325,04
595,47	1247,21
595,66	1263,60
595,86	1239,02
596,05	1296,36
596,24	1286,12
596,43	1269,74
596,63	1271,79
596,82	1253,36
597,01	1255,40
597,21	1245,16
597,40	1253,36
597,59	1288,17
597,79	1208,30
597,98	1286,12
598,17	1208,30
598,36	1282,03
598,56	1191,92
598,75	1239,02
598,94	1267,69
599,14	1239,02
599,33	1222,64
599,52	1234,93
599,71	1269,74
599,91	1308,65
600,10	1349,61
600,29	1224,69
600,48	1269,74
600,68	1271,79
600,87	1222,64
601,06	1261,55
601,26	1247,21
601,45	1304,56
601,64	1236,97
601,83	1232,88
602,03	1245,16
602,22	1359,85
602,41	1191,92
602,60	1337,32
602,80	1142,77
602,99	1298,41
603,18	1208,30
603,37	1292,27
603,57	1275,88
603,76	1316,84
603,95	1310,70
604,14	1312,75
604,34	1228,78
604,53	1247,21
604,72	1329,13
604,91	1208,30
605,10	1198,06
605,30	1216,49
605,49	1308,65
605,68	1263,60
605,87	1181,68
606,07	1257,45
606,26	1216,49
606,45	1214,45
606,64	1253,36
606,84	1322,99
607,03	1200,11
607,22	1286,12
607,41	1312,75
607,60	1320,94
607,80	1304,56
607,99	1310,70
608,18	1318,89
608,37	1279,98
608,56	1310,70
608,76	1286,12
608,95	1224,69
609,14	1312,75
609,33	1249,26
609,52	1222,64
609,72	1298,41
609,91	1308,65
610,10	1232,88
610,29	1306,60
610,48	1298,41
610,68	1284,08
610,87	1296,36
611,06	1257,45
611,25	1232,88
611,44	1253,36
611,63	1222,64
611,83	1304,56
612,02	1247,21
612,21	1363,95
612,40	1243,12
612,59	1265,64
612,79	1206,25
612,98	1255,40
613,17	1312,75
613,36	1273,84
613,55	1298,41
613,74	1341,42
613,93	1212,40
614,13	1310,70
614,32	1269,74
614,51	1310,70
614,70	1261,55
614,89	1241,07
615,08	1259,50
615,28	1320,94
615,47	1251,31
615,66	1320,94
615,85	1251,31
616,04	1329,13
616,23	1269,74
616,42	1241,07
616,62	1263,60
616,81	1243,12
617,00	1318,89
617,19	1302,51
617,38	1159,15
617,57	1241,07
617,76	1288,17
617,95	1288,17
618,15	1239,02
618,34	1322,99
618,53	1327,08
618,72	1302,51
618,91	1310,70
619,10	1298,41
619,29	1263,60
619,48	1239,02
619,68	1288,17
619,87	1206,25
620,06	1296,36
620,25	1304,56
620,44	1257,45
620,63	1329,13
620,82	1257,45
621,01	1286,12
621,20	1277,93
621,39	1232,88
621,59	1224,69
621,78	1288,17
621,97	1245,16
622,16	1296,36
622,35	1239,02
622,54	1257,45
622,73	1273,84
622,92	1298,41
623,11	1259,50
623,30	1271,79
623,49	1249,26
623,68	1247,21
623,88	1286,12
624,07	1273,84
624,26	1236,97
624,45	1239,02
624,64	1243,12
624,83	1253,36
625,02	1288,17
625,21	1232,88
625,40	1181,68
625,59	1306,60
625,78	1300,46
625,97	1204,21
626,16	1230,83
626,35	1335,28
626,54	1325,04
626,74	1331,18
626,93	1361,90
627,12	1210,35
627,31	1257,45
627,50	1331,18
627,69	1222,64
627,88	1290,22
628,07	1234,93
628,26	1284,08
628,45	1325,04
628,64	1343,47
628,83	1286,12
629,02	1271,79
629,21	1284,08
629,40	1304,56
629,59	1327,08
629,78	1298,41
629,97	1300,46
630,16	1271,79
630,35	1351,66
630,54	1347,56
630,73	1318,89
630,92	1308,65
631,11	1247,21
631,30	1357,80
631,49	1370,09
631,68	1478,63
631,87	1665,00
632,06	1658,85
632,25	1605,61
632,44	1675,24
632,63	1626,09
632,82	1648,61
633,01	1636,33
633,20	1544,17
633,39	1632,23
633,58	1726,44
633,77	1630,18
633,96	1748,97
634,15	1837,03
634,34	1841,12
634,53	1726,44
634,72	1712,10
634,91	1675,24
635,10	1826,79
635,29	1779,68
635,48	1863,65
635,67	1822,69
635,86	1806,31
636,05	1769,44
636,24	1761,25
636,43	1761,25
636,62	1716,20
636,81	1652,71
637,00	1562,60
637,19	1470,44
637,38	1482,73
637,57	1445,87
637,76	1443,82
637,95	1314,80
638,14	1347,56
638,33	1239,02
638,52	1368,04
638,71	1294,32
638,89	1269,74
639,08	1290,22
639,27	1306,60
639,46	1251,31
639,65	1255,40
639,84	1189,87
640,03	1191,92
640,22	1345,52
640,41	1298,41
640,60	1228,78
640,79	1308,65
640,98	1253,36
641,17	1312,75
641,36	1253,36
641,55	1302,51
641,74	1343,47
641,92	1259,50
642,11	1308,65
642,30	1255,40
642,49	1265,64
642,68	1304,56
642,87	1294,32
643,06	1294,32
643,25	1216,49
643,44	1320,94
643,63	1282,03
643,82	1282,03
644,00	1298,41
644,19	1255,40
644,38	1253,36
644,57	1245,16
644,76	1259,50
644,95	1298,41
645,14	1314,80
645,33	1292,27
645,52	1271,79
645,71	1394,67
645,89	1249,26
646,08	1300,46
646,27	1212,40
646,46	1243,12
646,65	1232,88
646,84	1277,93
647,03	1212,40
647,22	1273,84
647,40	1265,64
647,59	1337,32
647,78	1349,61
647,97	1253,36
648,16	1306,60
648,35	1406,95
648,54	1286,12
648,73	1271,79
648,91	1318,89
649,10	1269,74
649,29	1300,46
649,48	1298,41
649,67	1263,60
649,86	1292,27
650,05	1306,60
650,23	1165,29
650,42	1243,12
650,61	1253,36
650,80	1341,42
650,99	1296,36
651,18	1273,84
651,36	1310,70
651,55	1265,64
651,74	1304,56
651,93	1224,69
652,12	1232,88
652,31	1249,26
652,49	1294,32
652,68	1296,36
652,87	1224,69
653,06	1255,40
653,25	1318,89
653,44	1228,78
653,62	1275,88
653,81	1310,70
654,00	1234,93
654,19	1277,93
654,38	1357,80
654,56	1316,84
654,75	1312,75
654,94	1337,32
655,13	1267,69
655,32	1220,59
655,51	1331,18
655,69	1216,49
655,88	1247,21
656,07	1345,52
656,26	1277,93
656,45	1189,87
656,63	1241,07
656,82	1267,69
657,01	1372,14
657,20	1310,70
657,38	1298,41
657,57	1284,08
657,76	1288,17
657,95	1273,84
658,14	1271,79
658,32	1243,12
658,51	1294,32
658,70	1298,41
658,89	1343,47
659,08	1204,21
659,26	1269,74
659,45	1304,56
659,64	1259,50
659,83	1327,08
660,01	1255,40
660,20	1261,55
660,39	1335,28
660,58	1196,01
660,76	1322,99
660,95	1228,78
661,14	1314,80
661,33	1296,36
661,51	1298,41
661,70	1267,69
661,89	1277,93
662,08	1298,41
662,26	1282,03
662,45	1243,12
662,64	1284,08
662,83	1265,64
663,01	1239,02
663,20	1202,16
663,39	1216,49
663,58	1325,04
663,76	1275,88
663,95	1265,64
664,14	1265,64
664,32	1253,36
664,51	1253,36
664,70	1273,84
664,89	1245,16
665,07	1284,08
665,26	1257,45
665,45	1273,84
665,64	1359,85
665,82	1312,75
666,01	1271,79
666,20	1220,59
666,38	1214,45
666,57	1224,69
666,76	1298,41
666,95	1298,41
667,13	1239,02
667,32	1271,79
667,51	1265,64
667,69	1253,36
667,88	1243,12
668,07	1314,80
668,25	1241,07
668,44	1239,02
668,63	1216,49
668,81	1282,03
669,00	1345,52
669,19	1333,23
669,38	1187,82
669,56	1247,21
669,75	1312,75
669,94	1265,64
670,12	1220,59
670,31	1282,03
670,50	1241,07
670,68	1212,40
670,87	1306,60
671,06	1198,06
671,24	1255,40
671,43	1267,69
671,62	1247,21
671,80	1263,60
671,99	1300,46
672,18	1179,63
672,36	1314,80
672,55	1277,93
672,74	1302,51
672,92	1308,65
673,11	1312,75
673,29	1257,45
673,48	1273,84
673,67	1243,12
673,85	1228,78
674,04	1277,93
674,23	1255,40
674,41	1282,03
674,60	1279,98
674,79	1243,12
674,97	1253,36
675,16	1261,55
675,34	1269,74
675,53	1191,92
675,72	1298,41
675,90	1279,98
676,09	1355,76
676,28	1271,79
676,46	1251,31
676,65	1288,17
676,83	1228,78
677,02	1265,64
677,21	1275,88
677,39	1335,28
677,58	1263,60
677,77	1290,22
677,95	1206,25
678,14	1318,89
678,32	1327,08
678,51	1220,59
678,70	1255,40
678,88	1255,40
679,07	1335,28
679,25	1212,40
679,44	1241,07
679,63	1236,97
679,81	1226,73
680,00	1253,36
680,18	1271,79
680,37	1312,75
680,55	1253,36
680,74	1290,22
680,93	1298,41
681,11	1288,17
681,30	1284,08
681,48	1290,22
681,67	1245,16
681,85	1279,98
682,04	1286,12
682,23	1267,69
682,41	1316,84
682,60	1284,08
682,78	1275,88
682,97	1357,80
683,15	1245,16
683,34	1316,84
683,53	1294,32
683,71	1224,69
683,90	1245,16
684,08	1286,12
684,27	1294,32
684,45	1286,12
684,64	1247,21
684,82	1247,21
685,01	1298,41
685,19	1249,26
685,38	1296,36
685,57	1206,25
685,75	1265,64
685,94	1249,26
686,12	1306,60
686,31	1335,28
686,49	1320,94
686,68	1294,32
686,86	1253,36
687,05	1243,12
687,23	1277,93
687,42	1277,93
687,60	1163,25
687,79	1318,89
687,97	1347,56
688,16	1337,32
688,34	1290,22
688,53	1329,13
688,71	1294,32
688,90	1282,03
689,08	1230,83
689,27	1204,21
689,45	1343,47
689,64	1230,83
689,82	1288,17
690,01	1277,93
690,19	1228,78
690,38	1222,64
690,56	1257,45
690,75	1236,97
690,93	1310,70
691,12	1265,64
691,30	1204,21
691,49	1257,45
691,67	1261,55
691,86	1310,70
692,04	1251,31
692,23	1357,80
692,41	1304,56
692,60	1306,60
692,78	1339,37
692,97	1236,97
693,15	1279,98
693,34	1366,00
693,52	1306,60
693,71	1335,28
693,89	1300,46
694,08	1253,36
694,26	1337,32
694,44	1255,40
694,63	1308,65
694,81	1210,35
695,00	1271,79
695,18	1282,03
695,37	1282,03
695,55	1304,56
695,74	1249,26
695,92	1286,12
696,10	1273,84
696,29	1245,16
696,47	1206,25
696,66	1290,22
696,84	1318,89
697,03	1251,31
697,21	1273,84
697,40	1261,55
697,58	1318,89
697,76	1191,92
697,95	1290,22
698,13	1251,31
698,32	1304,56
698,50	1335,28
698,68	1279,98
698,87	1345,52
699,05	1290,22
699,24	1239,02
699,42	1286,12
699,61	1187,82
699,79	1263,60
699,97	1345,52
700,16	1243,12
700,34	1279,98
700,53	1288,17
700,71	1234,93
700,89	1312,75
701,08	1271,79
701,26	1191,92
701,45	1335,28
701,63	1249,26
701,81	1239,02
702,00	1275,88
702,18	1333,23
702,37	1224,69
702,55	1306,60
702,73	1222,64
702,92	1226,73
703,10	1224,69
703,28	1275,88
703,47	1255,40
703,65	1314,80
703,84	1329,13
704,02	1290,22
704,20	1253,36
704,39	1239,02
704,57	1265,64
704,75	1181,68
704,94	1255,40
705,12	1253,36
705,30	1243,12
705,49	1300,46
705,67	1284,08
705,86	1277,93
706,04	1241,07
706,22	1320,94
706,41	1253,36
706,59	1277,93
706,77	1247,21
706,96	1286,12
707,14	1236,97
707,32	1257,45
707,51	1312,75
707,69	1298,41
707,87	1279,98
708,06	1224,69
708,24	1257,45
708,42	1296,36
708,61	1273,84
708,79	1263,60
708,97	1273,84
709,16	1245,16
709,34	1208,30
709,52	1185,77
709,71	1245,16
709,89	1292,27
710,07	1257,45
710,26	1290,22
710,44	1208,30
710,62	1288,17
710,80	1296,36
710,99	1363,95
711,17	1337,32
711,35	1236,97
711,54	1263,60
711,72	1279,98
711,90	1253,36
712,09	1290,22
712,27	1265,64
712,45	1249,26
712,63	1363,95
712,82	1241,07
713,00	1249,26
713,18	1222,64
713,37	1282,03
713,55	1275,88
713,73	1265,64
713,91	1216,49
714,10	1271,79
714,28	1255,40
714,46	1288,17
714,65	1241,07
714,83	1263,60
715,01	1210,35
715,19	1236,97
715,38	1277,93
715,56	1257,45
715,74	1202,16
715,92	1236,97
716,11	1249,26
716,29	1284,08
716,47	1312,75
716,65	1277,93
716,84	1247,21
717,02	1277,93
717,20	1183,73
717,38	1277,93
717,57	1290,22
717,75	1277,93
717,93	1255,40
718,11	1253,36
718,30	1249,26
718,48	1329,13
718,66	1239,02
718,84	1255,40
719,03	1316,84
719,21	1271,79
719,39	1298,41
719,57	1187,82
719,75	1236,97
719,94	1306,60
720,12	1298,41
720,30	1232,88
720,48	1302,51
720,67	1222,64
720,85	1269,74
721,03	1282,03
721,21	1335,28
721,39	1173,49
721,58	1304,56
721,76	1318,89
721,94	1290,22
722,12	1204,21
722,30	1292,27
722,49	1298,41
722,67	1261,55
722,85	1275,88
723,03	1206,25
723,21	1236,97
723,40	1228,78
723,58	1259,50
723,76	1269,74
723,94	1294,32
724,12	1224,69
724,30	1341,42
724,49	1267,69
724,67	1298,41
724,85	1228,78
725,03	1306,60
725,21	1222,64
725,40	1277,93
725,58	1169,39
725,76	1292,27
725,94	1249,26
726,12	1263,60
726,30	1273,84
726,49	1298,41
726,67	1292,27
726,85	1267,69
727,03	1224,69
727,21	1357,80
727,39	1320,94
727,57	1282,03
727,76	1300,46
727,94	1255,40
728,12	1216,49
728,30	1290,22
728,48	1298,41
728,66	1187,82
728,84	1271,79
729,03	1253,36
729,21	1339,37
729,39	1318,89
729,57	1232,88
729,75	1310,70
729,93	1296,36
730,11	1263,60
730,30	1202,16
730,48	1306,60
730,66	1279,98
730,84	1339,37
731,02	1265,64
731,20	1288,17
731,38	1339,37
731,56	1255,40
731,74	1251,31
731,93	1380,33
732,11	1261,55
732,29	1261,55
732,47	1277,93
732,65	1296,36
732,83	1261,55
733,01	1222,64
733,19	1257,45
733,37	1261,55
733,56	1300,46
733,74	1265,64
733,92	1216,49
734,10	1247,21
734,28	1308,65
734,46	1241,07
734,64	1302,51
734,82	1245,16
735,00	1265,64
735,18	1286,12
735,36	1243,12
735,54	1288,17
735,73	1296,36
735,91	1286,12
736,09	1253,36
736,27	1286,12
736,45	1312,75
736,63	1308,65
736,81	1310,70
736,99	1216,49
737,17	1335,28
737,35	1241,07
737,53	1247,21
737,71	1271,79
737,89	1286,12
738,07	1300,46
738,25	1294,32
738,43	1316,84
738,61	1269,74
738,80	1282,03
738,98	1269,74
739,16	1282,03
739,34	1241,07
739,52	1306,60
739,70	1302,51
739,88	1259,50
740,06	1208,30
740,24	1286,12
740,42	1286,12
740,60	1322,99
740,78	1273,84
740,96	1265,64
741,14	1279,98
741,32	1196,01
741,50	1275,88
741,68	1273,84
741,86	1290,22
742,04	1167,34
742,22	1312,75
742,40	1345,52
742,58	1222,64
742,76	1277,93
742,94	1263,60
743,12	1200,11
743,30	1253,36
743,48	1245,16
743,66	1298,41
743,84	1263,60
744,02	1337,32
744,20	1312,75
744,38	1232,88
744,56	1273,84
744,74	1271,79
744,92	1259,50
745,10	1249,26
745,28	1257,45
745,46	1327,08
745,64	1263,60
745,82	1239,02
746,00	1265,64
746,18	1251,31
746,36	1255,40
746,54	1251,31
746,72	1282,03
746,90	1277,93
747,08	1241,07
747,26	1259,50
747,44	1292,27
747,62	1228,78
747,80	1241,07
747,98	1284,08
748,15	1286,12
748,33	1273,84
748,51	1257,45
748,69	1343,47
748,87	1294,32
749,05	1257,45
749,23	1279,98
749,41	1296,36
749,59	1228,78
749,77	1318,89
749,95	1298,41
750,13	1245,16
750,31	1253,36
750,49	1232,88
750,67	1329,13
750,85	1255,40
751,03	1224,69
751,20	1191,92
751,38	1239,02
751,56	1245,16
751,74	1271,79
751,92	1306,60
752,10	1251,31
752,28	1179,63
752,46	1292,27
752,64	1273,84
752,82	1216,49
753,00	1269,74
753,18	1322,99
753,35	1253,36
753,53	1302,51
753,71	1275,88
753,89	1214,45
754,07	1230,83
754,25	1318,89
754,43	1263,60
754,61	1271,79
754,79	1263,60
754,97	1265,64
755,14	1279,98
755,32	1288,17
755,50	1247,21
755,68	1257,45
755,86	1247,21
756,04	1294,32
756,22	1249,26
756,40	1320,94
756,57	1239,02
756,75	1290,22
756,93	1351,66
757,11	1300,46
757,29	1306,60
757,47	1279,98
757,65	1300,46
757,82	1247,21
758,00	1308,65
758,18	1288,17
758,36	1241,07
758,54	1263,60
758,72	1292,27
758,90	1296,36
759,07	1282,03
759,25	1322,99
759,43	1216,49
759,61	1218,54
759,79	1253,36
759,97	1191,92
760,15	1308,65
760,32	1245,16
760,50	1286,12
760,68	1294,32
760,86	1208,30
761,04	1286,12
761,22	1179,63
761,39	1298,41
761,57	1251,31
761,75	1263,60
761,93	1310,70
762,11	1273,84
762,28	1290,22
762,46	1255,40
762,64	1224,69
762,82	1243,12
763,00	1204,21
763,18	1279,98
763,35	1247,21
763,53	1259,50
763,71	1267,69
763,89	1294,32
764,07	1265,64
764,24	1282,03
764,42	1284,08
764,60	1255,40
764,78	1312,75
764,96	1359,85
765,13	1304,56
765,31	1318,89
765,49	1214,45
765,67	1204,21
765,84	1277,93
766,02	1236,97
766,20	1216,49
766,38	1345,52
766,56	1277,93
766,73	1290,22
766,91	1322,99
767,09	1296,36
767,27	1282,03
767,44	1273,84
767,62	1322,99
767,80	1236,97
767,98	1210,35
768,15	1327,08
768,33	1257,45
768,51	1193,97
768,69	1245,16
768,87	1333,23
769,04	1296,36
769,22	1329,13
769,40	1230,83
769,58	1269,74
769,75	1314,80
769,93	1251,31
770,11	1292,27
770,28	1232,88
770,46	1339,37
770,64	1300,46
770,82	1263,60
770,99	1294,32
771,17	1298,41
771,35	1271,79
771,53	1271,79
771,70	1271,79
771,88	1292,27
772,06	1302,51
772,23	1230,83
772,41	1236,97
772,59	1269,74
772,77	1296,36
772,94	1359,85
773,12	1335,28
773,30	1316,84
773,47	1302,51
773,65	1214,45
773,83	1308,65
774,01	1275,88
774,18	1249,26
774,36	1263,60
774,54	1314,80
774,71	1247,21
774,89	1275,88
775,07	1198,06
775,24	1257,45
775,42	1273,84
775,60	1247,21
775,78	1241,07
775,95	1345,52
776,13	1337,32
776,31	1261,55
776,48	1222,64
776,66	1226,73
776,84	1298,41
777,01	1249,26
777,19	1212,40
777,37	1249,26
777,54	1239,02
777,72	1298,41
777,90	1314,80
778,07	1300,46
778,25	1275,88
778,43	1294,32
778,60	1322,99
778,78	1183,73
778,96	1294,32
779,13	1241,07
779,31	1220,59
779,49	1222,64
779,66	1253,36
779,84	1298,41
780,01	1249,26
780,19	1277,93
780,37	1232,88
780,54	1302,51
780,72	1322,99
780,90	1267,69
781,07	1183,73
781,25	1294,32
781,43	1206,25
781,60	1234,93
781,78	1286,12
781,95	1263,60
782,13	1255,40
782,31	1333,23
782,48	1282,03
782,66	1261,55
782,83	1263,60
783,01	1312,75
783,19	1257,45
783,36	1269,74
783,54	1306,60
783,72	1212,40
783,89	1279,98
784,07	1232,88
784,24	1310,70
784,42	1226,73
784,60	1257,45
784,77	1279,98
784,95	1331,18
785,12	1294,32
785,30	1220,59
785,47	1290,22
785,65	1327,08
785,83	1259,50
786,00	1275,88
786,18	1333,23
786,35	1243,12
786,53	1243,12
786,71	1224,69
786,88	1282,03
787,06	1279,98
787,23	1337,32
787,41	1247,21
787,58	1249,26
787,76	1302,51
787,94	1202,16
788,11	1220,59
788,29	1255,40
788,46	1247,21
788,64	1320,94
788,81	1345,52
788,99	1329,13
789,16	1224,69
789,34	1292,27
789,52	1277,93
789,69	1320,94
789,87	1279,98
790,04	1249,26
790,22	1265,64
790,39	1284,08
790,57	1277,93
790,74	1273,84
790,92	1261,55
791,09	1259,50
791,27	1267,69
791,44	1288,17
791,62	1224,69
791,79	1241,07
791,97	1316,84
792,15	1292,27
792,32	1275,88
792,50	1273,84
792,67	1312,75
792,85	1267,69
793,02	1224,69
793,20	1306,60
793,37	1214,45
793,55	1314,80
793,72	1206,25
793,90	1296,36
794,07	1290,22
794,25	1222,64
794,42	1232,88
794,60	1230,83
794,77	1175,53
794,95	1222,64
795,12	1277,93
795,30	1288,17
795,47	1343,47
795,65	1241,07
795,82	1251,31
796,00	1296,36
796,17	1228,78
796,34	1224,69
796,52	1249,26
796,69	1265,64
796,87	1245,16
797,04	1314,80
797,22	1224,69
797,39	1241,07
797,57	1253,36
797,74	1294,32
797,92	1191,92
798,09	1337,32
798,27	1232,88
798,44	1296,36
798,62	1224,69
798,79	1241,07
798,96	1236,97
799,14	1298,41
799,31	1351,66
799,49	1273,84
799,66	1253,36
799,84	1241,07
800,01	1255,40
800,19	1308,65
800,36	1308,65
800,53	1245,16
800,71	1241,07
800,88	1286,12
801,06	1327,08
801,23	1226,73
801,41	1286,12
801,58	1222,64
801,75	1259,50
801,93	1327,08
802,10	1251,31
802,28	1226,73
802,45	1277,93
802,63	1249,26
802,80	1257,45
802,97	1279,98
803,15	1224,69
803,32	1245,16
803,50	1228,78
803,67	1245,16
803,84	1318,89
804,02	1255,40
804,19	1275,88
804,37	1269,74
804,54	1286,12
804,71	1193,97
804,89	1198,06
805,06	1236,97
805,24	1249,26
805,41	1290,22
805,58	1320,94
805,76	1208,30
805,93	1275,88
806,10	1251,31
806,28	1253,36
806,45	1300,46
806,63	1300,46
806,80	1228,78
806,97	1290,22
807,15	1327,08
807,32	1189,87
807,49	1239,02
807,67	1284,08
807,84	1196,01
808,01	1292,27
808,19	1216,49
808,36	1247,21
808,54	1259,50
808,71	1253,36
808,88	1302,51
809,06	1277,93
809,23	1322,99
809,40	1292,27
809,58	1296,36
809,75	1253,36
809,92	1267,69
810,10	1275,88
810,27	1273,84
810,44	1320,94
810,62	1314,80
810,79	1224,69
810,96	1271,79
811,14	1185,77
811,31	1241,07
811,48	1275,88
811,66	1228,78
811,83	1148,91
812,00	1243,12
812,18	1236,97
812,35	1263,60
812,52	1202,16
812,69	1290,22
812,87	1232,88
813,04	1261,55
813,21	1282,03
813,39	1249,26
813,56	1316,84
813,73	1341,42
813,91	1239,02
814,08	1290,22
814,25	1290,22
814,42	1288,17
814,60	1325,04
814,77	1222,64
814,94	1185,77
815,12	1273,84
815,29	1208,30
815,46	1204,21
815,63	1249,26
815,81	1261,55
815,98	1298,41
816,15	1236,97
816,33	1247,21
816,50	1310,70
816,67	1284,08
816,84	1226,73
817,02	1255,40
817,19	1325,04
817,36	1212,40
817,53	1261,55
817,71	1282,03
817,88	1257,45
818,05	1263,60
818,22	1259,50
818,40	1232,88
818,57	1210,35
818,74	1257,45
818,91	1253,36
819,09	1267,69
819,26	1241,07
819,43	1261,55
819,60	1230,83
819,78	1204,21
819,95	1300,46
820,12	1218,54
820,29	1259,50
820,47	1239,02
820,64	1177,58
820,81	1167,34
820,98	1284,08
821,15	1165,29
821,33	1341,42
821,50	1236,97
821,67	1271,79
821,84	1325,04
822,02	1204,21
822,19	1273,84
822,36	1222,64
822,53	1306,60
822,70	1191,92
822,88	1292,27
823,05	1284,08
823,22	1304,56
823,39	1263,60
823,56	1279,98
823,74	1284,08
823,91	1243,12
824,08	1286,12
824,25	1232,88
824,42	1224,69
824,60	1210,35
824,77	1228,78
824,94	1232,88
825,11	1212,40
825,28	1370,09
825,45	1322,99
825,63	1286,12
825,80	1212,40
825,97	1277,93
826,14	1234,93
826,31	1263,60
826,48	1226,73
826,66	1329,13
826,83	1220,59
827,00	1220,59
827,17	1251,31
827,34	1277,93
827,51	1279,98
827,69	1214,45
827,86	1183,73
828,03	1292,27
828,20	1308,65
828,37	1290,22
828,54	1222,64
828,71	1288,17
828,89	1298,41
829,06	1329,13
829,23	1329,13
829,40	1214,45
829,57	1292,27
829,74	1230,83
829,91	1230,83
830,09	1236,97
830,26	1232,88
830,43	1368,04
830,60	1284,08
830,77	1269,74
830,94	1257,45
831,11	1253,36
831,28	1239,02
831,46	1263,60
831,63	1306,60
831,80	1261,55
831,97	1279,98
832,14	1286,12
832,31	1271,79
832,48	1372,14
832,65	1241,07
832,82	1306,60
832,99	1226,73
833,17	1239,02
833,34	1294,32
833,51	1273,84
833,68	1288,17
833,85	1314,80
834,02	1288,17
834,19	1269,74
834,36	1279,98
834,53	1239,02
834,70	1214,45
834,87	1269,74
835,04	1257,45
835,22	1175,53
835,39	1282,03
835,56	1296,36
835,73	1228,78
835,90	1241,07
836,07	1302,51
836,24	1255,40
836,41	1253,36
836,58	1298,41
836,75	1277,93
836,92	1249,26
837,09	1232,88
837,26	1220,59
837,43	1322,99
837,60	1222,64
837,77	1196,01
837,94	1310,70
838,12	1310,70
838,29	1226,73
838,46	1292,27
838,63	1339,37
838,80	1267,69
838,97	1202,16
839,14	1218,54
839,31	1263,60
839,48	1247,21
839,65	1220,59
839,82	1322,99
839,99	1271,79
840,16	1277,93
840,33	1222,64
840,50	1257,45
840,67	1286,12
840,84	1277,93
841,01	1259,50
841,18	1263,60
841,35	1241,07
841,52	1351,66
841,69	1241,07
841,86	1331,18
842,03	1259,50
842,20	1296,36
842,37	1255,40
842,54	1304,56
842,71	1257,45
842,88	1241,07
843,05	1329,13
843,22	1296,36
843,39	1259,50
843,56	1351,66
843,73	1284,08
843,90	1230,83
844,07	1259,50
844,24	1249,26
844,41	1216,49
844,58	1292,27
844,75	1279,98
844,92	1253,36
845,09	1282,03
845,26	1284,08
845,43	1282,03
845,60	1265,64
845,77	1271,79
845,94	1271,79
846,10	1218,54
846,27	1200,11
846,44	1228,78
846,61	1247,21
846,78	1216,49
846,95	1232,88
847,12	1243,12
847,29	1329,13
847,46	1239,02
847,63	1304,56
847,80	1288,17
847,97	1277,93
848,14	1269,74
848,31	1310,70
848,48	1269,74
848,65	1212,40
848,82	1300,46
848,98	1308,65
849,15	1294,32
849,32	1339,37
849,49	1222,64
849,66	1273,84
849,83	1298,41
850,00	1198,06
850,17	1241,07
850,34	1320,94
850,51	1286,12
850,68	1320,94
850,85	1282,03
851,01	1253,36
851,18	1294,32
851,35	1236,97
851,52	1257,45
851,69	1337,32
851,86	1345,52
852,03	1298,41
852,20	1202,16
852,37	1265,64
852,53	1290,22
852,70	1234,93
852,87	1239,02
853,04	1312,75
853,21	1230,83
853,38	1271,79
853,55	1279,98
853,72	1265,64
853,89	1290,22
854,05	1259,50
854,22	1161,20
854,39	1245,16
854,56	1249,26
854,73	1290,22
854,90	1255,40
855,07	1355,76
855,23	1247,21
855,40	1298,41
855,57	1331,18
855,74	1302,51
855,91	1294,32
856,08	1298,41
856,25	1302,51
856,41	1220,59
856,58	1351,66
856,75	1261,55
856,92	1345,52
857,09	1241,07
857,26	1200,11
857,42	1290,22
857,59	1271,79
857,76	1277,93
857,93	1224,69
858,10	1208,30
858,27	1302,51
858,43	1267,69
858,60	1302,51
858,77	1286,12
858,94	1310,70
859,11	1247,21
859,27	1243,12
859,44	1298,41
859,61	1314,80
859,78	1394,67
859,95	1222,64
860,12	1247,21
860,28	1269,74
860,45	1279,98
860,62	1277,93
860,79	1277,93
860,95	1325,04
861,12	1167,34
861,29	1247,21
861,46	1224,69
861,63	1259,50
861,79	1234,93
861,96	1294,32
862,13	1263,60
862,30	1351,66
862,47	1239,02
862,63	1247,21
862,80	1363,95
862,97	1220,59
863,14	1253,36
863,30	1247,21
863,47	1312,75
863,64	1220,59
863,81	1259,50
863,97	1265,64
864,14	1318,89
864,31	1257,45
864,48	1265,64
864,65	1261,55
864,81	1294,32
864,98	1286,12
865,15	1216,49
865,32	1257,45
865,48	1228,78
865,65	1300,46
865,82	1353,71
865,98	1226,73
866,15	1290,22
866,32	1298,41
866,49	1249,26
866,65	1241,07
866,82	1222,64
866,99	1320,94
867,16	1337,32
867,32	1247,21
867,49	1296,36
867,66	1241,07
867,83	1261,55
867,99	1290,22
868,16	1298,41
868,33	1206,25
868,49	1318,89
868,66	1241,07
868,83	1257,45
868,99	1277,93
869,16	1255,40
869,33	1337,32
869,50	1331,18
869,66	1226,73
869,83	1298,41
870,00	1318,89
870,16	1239,02
870,33	1308,65
870,50	1271,79
870,66	1318,89
870,83	1290,22
871,00	1265,64
871,17	1296,36
871,33	1261,55
871,50	1253,36
871,67	1228,78
871,83	1267,69
872,00	1261,55
872,17	1257,45
872,33	1185,77
872,50	1296,36
872,67	1265,64
872,83	1298,41
873,00	1196,01
873,17	1267,69
873,33	1329,13
873,50	1253,36
873,67	1288,17
873,83	1273,84
874,00	1212,40
874,16	1306,60
874,33	1263,60
874,50	1294,32
874,66	1187,82
874,83	1265,64
875,00	1327,08
875,16	1273,84
875,33	1277,93
875,50	1234,93
875,66	1224,69
875,83	1267,69
875,99	1298,41
876,16	1198,06
876,33	1269,74
876,49	1249,26
876,66	1345,52
876,83	1290,22
876,99	1232,88
877,16	1290,22
877,32	1322,99
877,49	1230,83
877,66	1265,64
877,82	1247,21
877,99	1349,61
878,15	1230,83
878,32	1339,37
878,49	1269,74
878,65	1265,64
878,82	1282,03
878,98	1327,08
879,15	1269,74
879,32	1318,89
879,48	1275,88
879,65	1298,41
879,81	1286,12
879,98	1284,08
880,15	1212,40
880,31	1302,51
880,48	1220,59
880,64	1241,07
880,81	1292,27
880,97	1300,46
881,14	1345,52
881,31	1337,32
881,47	1239,02
881,64	1265,64
881,80	1259,50
881,97	1263,60
882,13	1279,98
882,30	1290,22
882,47	1263,60
882,63	1255,40
882,80	1271,79
882,96	1148,91
883,13	1279,98
883,29	1245,16
883,46	1296,36
883,62	1302,51
883,79	1253,36
883,95	1202,16
884,12	1236,97
884,29	1243,12
884,45	1241,07
884,62	1212,40
884,78	1302,51
884,95	1265,64
885,11	1271,79
885,28	1230,83
885,44	1206,25
885,61	1243,12
885,77	1290,22
885,94	1322,99
886,10	1275,88
886,27	1286,12
886,43	1263,60
886,60	1163,25
886,76	1263,60
886,93	1175,53
887,09	1271,79
887,26	1253,36
887,42	1288,17
887,59	1220,59
887,75	1267,69
887,92	1349,61
888,08	1232,88
888,25	1286,12
888,41	1294,32
888,58	1245,16
888,74	1355,76
888,91	1206,25
>>>>>End Processed Spectral Data<<<<<
