SpectraSuite Data File
++++++++++++++++++++++++++++++++++++
Date: Sun Apr 03 18:34:04 CEST 2016
User: root
Dark Spectrum Present: No
Reference Spectrum Present: No
Number of Sampled Component Spectra: 1
Spectrometers: USB4C02835
Integration Time (usec): 10000 (USB4C02835)
Spectra Averaged: 1 (USB4C02835)
Boxcar Smoothing: 0 (USB4C02835)
Correct for Electrical Dark: No (USB4C02835)
Strobe/Lamp Enabled: No (USB4C02835)
Correct for Detector Non-linearity: No (USB4C02835)
Correct for Stray Light: No (USB4C02835)
Number of Pixels in Processed Spectrum: 3648
>>>>>Begin Processed Spectral Data<<<<<
177,47	1259,50
177,69	1259,50
177,91	1259,50
178,13	1224,69
178,36	1277,93
178,58	1214,45
178,80	1296,36
179,02	1253,36
179,24	1329,13
179,46	1241,07
179,68	1239,02
179,90	1273,84
180,13	1314,80
180,35	1331,18
180,57	1263,60
180,79	1284,08
181,01	1198,06
181,23	1275,88
181,45	1273,84
181,67	1239,02
181,90	1257,45
182,12	1239,02
182,34	1232,88
182,56	1255,40
182,78	1339,37
183,00	1275,88
183,22	1259,50
183,44	1224,69
183,66	1251,31
183,89	1325,04
184,11	1206,25
184,33	1286,12
184,55	1294,32
184,77	1286,12
184,99	1257,45
185,21	1304,56
185,43	1325,04
185,65	1259,50
185,87	1327,08
186,10	1251,31
186,32	1228,78
186,54	1271,79
186,76	1275,88
186,98	1232,88
187,20	1286,12
187,42	1220,59
187,64	1343,47
187,86	1282,03
188,08	1241,07
188,30	1185,77
188,52	1269,74
188,75	1294,32
188,97	1247,21
189,19	1286,12
189,41	1345,52
189,63	1279,98
189,85	1259,50
190,07	1224,69
190,29	1204,21
190,51	1308,65
190,73	1273,84
190,95	1159,15
191,17	1181,68
191,39	1228,78
191,61	1286,12
191,84	1234,93
192,06	1265,64
192,28	1243,12
192,50	1302,51
192,72	1277,93
192,94	1275,88
193,16	1257,45
193,38	1312,75
193,60	1249,26
193,82	1279,98
194,04	1359,85
194,26	1234,93
194,48	1183,73
194,70	1273,84
194,92	1290,22
195,14	1325,04
195,36	1325,04
195,58	1257,45
195,80	1251,31
196,02	1277,93
196,24	1279,98
196,46	1253,36
196,69	1232,88
196,91	1241,07
197,13	1220,59
197,35	1241,07
197,57	1304,56
197,79	1251,31
198,01	1275,88
198,23	1255,40
198,45	1210,35
198,67	1239,02
198,89	1271,79
199,11	1247,21
199,33	1230,83
199,55	1271,79
199,77	1230,83
199,99	1279,98
200,21	1247,21
200,43	1214,45
200,65	1271,79
200,87	1271,79
201,09	1196,01
201,31	1226,73
201,53	1329,13
201,75	1247,21
201,97	1167,34
202,19	1259,50
202,41	1322,99
202,63	1304,56
202,85	1257,45
203,07	1279,98
203,29	1159,15
203,51	1275,88
203,73	1294,32
203,95	1294,32
204,17	1318,89
204,39	1296,36
204,61	1259,50
204,83	1226,73
205,05	1253,36
205,27	1245,16
205,49	1288,17
205,71	1345,52
205,93	1208,30
206,15	1282,03
206,37	1241,07
206,59	1288,17
206,81	1284,08
207,03	1290,22
207,25	1208,30
207,47	1271,79
207,69	1255,40
207,91	1216,49
208,13	1296,36
208,34	1232,88
208,56	1296,36
208,78	1263,60
209,00	1286,12
209,22	1269,74
209,44	1318,89
209,66	1277,93
209,88	1234,93
210,10	1290,22
210,32	1214,45
210,54	1275,88
210,76	1329,13
210,98	1279,98
211,20	1275,88
211,42	1282,03
211,64	1286,12
211,86	1198,06
212,08	1296,36
212,30	1304,56
212,52	1259,50
212,74	1214,45
212,96	1255,40
213,17	1372,14
213,39	1300,46
213,61	1263,60
213,83	1255,40
214,05	1331,18
214,27	1249,26
214,49	1294,32
214,71	1322,99
214,93	1241,07
215,15	1339,37
215,37	1267,69
215,59	1224,69
215,81	1306,60
216,03	1226,73
216,24	1265,64
216,46	1282,03
216,68	1304,56
216,90	1296,36
217,12	1320,94
217,34	1259,50
217,56	1308,65
217,78	1226,73
218,00	1282,03
218,22	1269,74
218,44	1249,26
218,66	1255,40
218,87	1302,51
219,09	1232,88
219,31	1284,08
219,53	1347,56
219,75	1193,97
219,97	1298,41
220,19	1267,69
220,41	1181,68
220,63	1216,49
220,85	1335,28
221,06	1265,64
221,28	1312,75
221,50	1257,45
221,72	1247,21
221,94	1249,26
222,16	1290,22
222,38	1288,17
222,60	1292,27
222,82	1292,27
223,03	1290,22
223,25	1236,97
223,47	1282,03
223,69	1236,97
223,91	1294,32
224,13	1226,73
224,35	1239,02
224,57	1210,35
224,78	1263,60
225,00	1183,73
225,22	1300,46
225,44	1306,60
225,66	1167,34
225,88	1273,84
226,10	1298,41
226,32	1290,22
226,53	1304,56
226,75	1314,80
226,97	1286,12
227,19	1292,27
227,41	1290,22
227,63	1370,09
227,85	1234,93
228,06	1279,98
228,28	1265,64
228,50	1312,75
228,72	1247,21
228,94	1306,60
229,16	1277,93
229,37	1263,60
229,59	1243,12
229,81	1306,60
230,03	1220,59
230,25	1228,78
230,47	1275,88
230,69	1300,46
230,90	1304,56
231,12	1251,31
231,34	1232,88
231,56	1298,41
231,78	1214,45
232,00	1251,31
232,21	1251,31
232,43	1249,26
232,65	1226,73
232,87	1263,60
233,09	1249,26
233,30	1243,12
233,52	1290,22
233,74	1241,07
233,96	1230,83
234,18	1327,08
234,40	1306,60
234,61	1290,22
234,83	1257,45
235,05	1286,12
235,27	1251,31
235,49	1216,49
235,70	1273,84
235,92	1284,08
236,14	1191,92
236,36	1316,84
236,58	1265,64
236,79	1204,21
237,01	1228,78
237,23	1314,80
237,45	1269,74
237,67	1269,74
237,88	1257,45
238,10	1316,84
238,32	1265,64
238,54	1312,75
238,76	1257,45
238,97	1243,12
239,19	1267,69
239,41	1304,56
239,63	1300,46
239,85	1265,64
240,06	1214,45
240,28	1253,36
240,50	1288,17
240,72	1245,16
240,93	1243,12
241,15	1214,45
241,37	1331,18
241,59	1261,55
241,81	1193,97
242,02	1308,65
242,24	1253,36
242,46	1306,60
242,68	1284,08
242,89	1300,46
243,11	1298,41
243,33	1236,97
243,55	1243,12
243,76	1288,17
243,98	1296,36
244,20	1232,88
244,42	1368,04
244,64	1224,69
244,85	1224,69
245,07	1245,16
245,29	1294,32
245,51	1249,26
245,72	1230,83
245,94	1329,13
246,16	1253,36
246,38	1282,03
246,59	1228,78
246,81	1261,55
247,03	1216,49
247,24	1220,59
247,46	1275,88
247,68	1273,84
247,90	1316,84
248,11	1322,99
248,33	1327,08
248,55	1245,16
248,77	1196,01
248,98	1230,83
249,20	1253,36
249,42	1263,60
249,64	1284,08
249,85	1310,70
250,07	1290,22
250,29	1290,22
250,50	1267,69
250,72	1253,36
250,94	1228,78
251,16	1298,41
251,37	1159,15
251,59	1251,31
251,81	1204,21
252,02	1310,70
252,24	1339,37
252,46	1249,26
252,68	1312,75
252,89	1306,60
253,11	1208,30
253,33	1263,60
253,54	1279,98
253,76	1275,88
253,98	1329,13
254,20	1230,83
254,41	1230,83
254,63	1286,12
254,85	1245,16
255,06	1212,40
255,28	1253,36
255,50	1306,60
255,71	1263,60
255,93	1300,46
256,15	1208,30
256,36	1273,84
256,58	1269,74
256,80	1277,93
257,02	1259,50
257,23	1288,17
257,45	1228,78
257,67	1265,64
257,88	1243,12
258,10	1265,64
258,32	1234,93
258,53	1304,56
258,75	1255,40
258,97	1304,56
259,18	1306,60
259,40	1327,08
259,62	1277,93
259,83	1239,02
260,05	1302,51
260,27	1404,91
260,48	1282,03
260,70	1312,75
260,92	1259,50
261,13	1257,45
261,35	1265,64
261,57	1243,12
261,78	1228,78
262,00	1226,73
262,22	1228,78
262,43	1306,60
262,65	1255,40
262,86	1212,40
263,08	1249,26
263,30	1241,07
263,51	1226,73
263,73	1206,25
263,95	1320,94
264,16	1355,76
264,38	1222,64
264,60	1226,73
264,81	1224,69
265,03	1202,16
265,25	1286,12
265,46	1329,13
265,68	1279,98
265,89	1226,73
266,11	1290,22
266,33	1259,50
266,54	1310,70
266,76	1304,56
266,98	1357,80
267,19	1218,54
267,41	1222,64
267,62	1314,80
267,84	1312,75
268,06	1222,64
268,27	1300,46
268,49	1275,88
268,70	1302,51
268,92	1333,23
269,14	1292,27
269,35	1292,27
269,57	1183,73
269,79	1218,54
270,00	1257,45
270,22	1327,08
270,43	1282,03
270,65	1318,89
270,87	1198,06
271,08	1306,60
271,30	1277,93
271,51	1282,03
271,73	1253,36
271,95	1282,03
272,16	1236,97
272,38	1294,32
272,59	1253,36
272,81	1314,80
273,02	1275,88
273,24	1320,94
273,46	1269,74
273,67	1292,27
273,89	1261,55
274,10	1284,08
274,32	1249,26
274,54	1239,02
274,75	1327,08
274,97	1298,41
275,18	1239,02
275,40	1275,88
275,61	1259,50
275,83	1230,83
276,05	1234,93
276,26	1282,03
276,48	1243,12
276,69	1353,71
276,91	1318,89
277,12	1327,08
277,34	1269,74
277,55	1265,64
277,77	1239,02
277,99	1241,07
278,20	1296,36
278,42	1290,22
278,63	1261,55
278,85	1273,84
279,06	1239,02
279,28	1302,51
279,49	1341,42
279,71	1325,04
279,93	1331,18
280,14	1341,42
280,36	1302,51
280,57	1269,74
280,79	1322,99
281,00	1265,64
281,22	1286,12
281,43	1345,52
281,65	1265,64
281,86	1173,49
282,08	1220,59
282,29	1277,93
282,51	1198,06
282,73	1265,64
282,94	1245,16
283,16	1220,59
283,37	1290,22
283,59	1247,21
283,80	1275,88
284,02	1288,17
284,23	1234,93
284,45	1282,03
284,66	1294,32
284,88	1343,47
285,09	1230,83
285,31	1271,79
285,52	1329,13
285,74	1226,73
285,95	1261,55
286,17	1286,12
286,38	1329,13
286,60	1251,31
286,81	1288,17
287,03	1325,04
287,24	1251,31
287,46	1210,35
287,67	1212,40
287,89	1255,40
288,10	1343,47
288,32	1300,46
288,53	1296,36
288,75	1269,74
288,96	1263,60
289,18	1263,60
289,39	1304,56
289,61	1314,80
289,82	1306,60
290,04	1267,69
290,25	1331,18
290,47	1273,84
290,68	1339,37
290,90	1269,74
291,11	1226,73
291,33	1331,18
291,54	1263,60
291,76	1247,21
291,97	1271,79
292,18	1259,50
292,40	1261,55
292,61	1148,91
292,83	1300,46
293,04	1290,22
293,26	1308,65
293,47	1261,55
293,69	1249,26
293,90	1212,40
294,12	1306,60
294,33	1286,12
294,55	1308,65
294,76	1236,97
294,97	1267,69
295,19	1296,36
295,40	1353,71
295,62	1333,23
295,83	1294,32
296,05	1247,21
296,26	1286,12
296,48	1282,03
296,69	1245,16
296,90	1222,64
297,12	1282,03
297,33	1218,54
297,55	1282,03
297,76	1173,49
297,98	1247,21
298,19	1308,65
298,41	1222,64
298,62	1306,60
298,83	1269,74
299,05	1304,56
299,26	1251,31
299,48	1306,60
299,69	1230,83
299,90	1296,36
300,12	1202,16
300,33	1290,22
300,55	1366,00
300,76	1261,55
300,98	1183,73
301,19	1277,93
301,40	1345,52
301,62	1316,84
301,83	1277,93
302,05	1372,14
302,26	1241,07
302,47	1331,18
302,69	1257,45
302,90	1228,78
303,12	1288,17
303,33	1271,79
303,54	1273,84
303,76	1269,74
303,97	1191,92
304,19	1271,79
304,40	1351,66
304,61	1255,40
304,83	1279,98
305,04	1232,88
305,26	1333,23
305,47	1279,98
305,68	1230,83
305,90	1234,93
306,11	1253,36
306,33	1267,69
306,54	1318,89
306,75	1261,55
306,97	1228,78
307,18	1298,41
307,39	1267,69
307,61	1277,93
307,82	1294,32
308,04	1257,45
308,25	1335,28
308,46	1310,70
308,68	1269,74
308,89	1265,64
309,10	1265,64
309,32	1261,55
309,53	1361,90
309,74	1234,93
309,96	1228,78
310,17	1265,64
310,39	1243,12
310,60	1294,32
310,81	1263,60
311,03	1304,56
311,24	1230,83
311,45	1251,31
311,67	1212,40
311,88	1236,97
312,09	1269,74
312,31	1222,64
312,52	1345,52
312,73	1290,22
312,95	1277,93
313,16	1257,45
313,37	1259,50
313,59	1220,59
313,80	1220,59
314,01	1277,93
314,23	1222,64
314,44	1222,64
314,65	1275,88
314,87	1234,93
315,08	1277,93
315,29	1230,83
315,51	1228,78
315,72	1265,64
315,93	1286,12
316,15	1241,07
316,36	1282,03
316,57	1282,03
316,79	1236,97
317,00	1247,21
317,21	1241,07
317,43	1290,22
317,64	1259,50
317,85	1259,50
318,07	1341,42
318,28	1257,45
318,49	1239,02
318,70	1279,98
318,92	1290,22
319,13	1302,51
319,34	1189,87
319,56	1372,14
319,77	1196,01
319,98	1322,99
320,20	1290,22
320,41	1292,27
320,62	1263,60
320,83	1304,56
321,05	1333,23
321,26	1259,50
321,47	1185,77
321,69	1253,36
321,90	1196,01
322,11	1312,75
322,32	1284,08
322,54	1288,17
322,75	1325,04
322,96	1259,50
323,18	1234,93
323,39	1275,88
323,60	1273,84
323,81	1253,36
324,03	1187,82
324,24	1314,80
324,45	1273,84
324,66	1288,17
324,88	1263,60
325,09	1243,12
325,30	1267,69
325,52	1351,66
325,73	1234,93
325,94	1302,51
326,15	1204,21
326,37	1269,74
326,58	1298,41
326,79	1279,98
327,00	1232,88
327,22	1263,60
327,43	1277,93
327,64	1271,79
327,85	1267,69
328,07	1314,80
328,28	1312,75
328,49	1228,78
328,70	1265,64
328,92	1312,75
329,13	1236,97
329,34	1279,98
329,55	1284,08
329,76	1255,40
329,98	1286,12
330,19	1345,52
330,40	1216,49
330,61	1331,18
330,83	1222,64
331,04	1265,64
331,25	1257,45
331,46	1279,98
331,68	1259,50
331,89	1269,74
332,10	1224,69
332,31	1226,73
332,52	1249,26
332,74	1236,97
332,95	1220,59
333,16	1253,36
333,37	1294,32
333,58	1247,21
333,80	1245,16
334,01	1331,18
334,22	1216,49
334,43	1232,88
334,64	1286,12
334,86	1224,69
335,07	1302,51
335,28	1257,45
335,49	1204,21
335,70	1214,45
335,92	1282,03
336,13	1286,12
336,34	1257,45
336,55	1277,93
336,76	1296,36
336,98	1251,31
337,19	1206,25
337,40	1273,84
337,61	1282,03
337,82	1232,88
338,04	1265,64
338,25	1220,59
338,46	1277,93
338,67	1218,54
338,88	1234,93
339,09	1236,97
339,31	1247,21
339,52	1290,22
339,73	1153,01
339,94	1251,31
340,15	1257,45
340,36	1239,02
340,58	1251,31
340,79	1257,45
341,00	1255,40
341,21	1257,45
341,42	1218,54
341,63	1214,45
341,85	1339,37
342,06	1263,60
342,27	1232,88
342,48	1302,51
342,69	1277,93
342,90	1298,41
343,12	1296,36
343,33	1279,98
343,54	1298,41
343,75	1241,07
343,96	1222,64
344,17	1322,99
344,38	1261,55
344,60	1314,80
344,81	1232,88
345,02	1277,93
345,23	1220,59
345,44	1271,79
345,65	1306,60
345,86	1337,32
346,07	1306,60
346,29	1257,45
346,50	1279,98
346,71	1290,22
346,92	1322,99
347,13	1275,88
347,34	1286,12
347,55	1218,54
347,76	1331,18
347,98	1218,54
348,19	1198,06
348,40	1183,73
348,61	1257,45
348,82	1302,51
349,03	1282,03
349,24	1316,84
349,45	1204,21
349,66	1331,18
349,88	1259,50
350,09	1277,93
350,30	1288,17
350,51	1226,73
350,72	1312,75
350,93	1243,12
351,14	1232,88
351,35	1247,21
351,56	1232,88
351,77	1218,54
351,99	1198,06
352,20	1282,03
352,41	1234,93
352,62	1329,13
352,83	1212,40
353,04	1263,60
353,25	1251,31
353,46	1253,36
353,67	1167,34
353,88	1265,64
354,09	1316,84
354,30	1232,88
354,52	1253,36
354,73	1173,49
354,94	1271,79
355,15	1261,55
355,36	1257,45
355,57	1298,41
355,78	1341,42
355,99	1339,37
356,20	1234,93
356,41	1296,36
356,62	1255,40
356,83	1247,21
357,04	1302,51
357,25	1277,93
357,46	1257,45
357,68	1277,93
357,89	1277,93
358,10	1202,16
358,31	1269,74
358,52	1292,27
358,73	1282,03
358,94	1220,59
359,15	1220,59
359,36	1226,73
359,57	1267,69
359,78	1206,25
359,99	1298,41
360,20	1273,84
360,41	1216,49
360,62	1269,74
360,83	1257,45
361,04	1230,83
361,25	1236,97
361,46	1230,83
361,67	1300,46
361,88	1294,32
362,09	1212,40
362,30	1267,69
362,51	1318,89
362,72	1310,70
362,93	1241,07
363,14	1224,69
363,35	1257,45
363,56	1228,78
363,78	1232,88
363,99	1208,30
364,20	1202,16
364,41	1363,95
364,62	1232,88
364,83	1282,03
365,04	1191,92
365,25	1288,17
365,46	1228,78
365,67	1308,65
365,88	1249,26
366,09	1271,79
366,30	1290,22
366,51	1306,60
366,72	1300,46
366,93	1239,02
367,14	1251,31
367,35	1306,60
367,56	1290,22
367,77	1200,11
367,98	1292,27
368,18	1263,60
368,39	1318,89
368,60	1300,46
368,81	1257,45
369,02	1279,98
369,23	1284,08
369,44	1294,32
369,65	1292,27
369,86	1314,80
370,07	1230,83
370,28	1206,25
370,49	1261,55
370,70	1169,39
370,91	1331,18
371,12	1220,59
371,33	1288,17
371,54	1249,26
371,75	1292,27
371,96	1239,02
372,17	1288,17
372,38	1243,12
372,59	1251,31
372,80	1232,88
373,01	1253,36
373,22	1304,56
373,43	1230,83
373,64	1273,84
373,85	1290,22
374,06	1198,06
374,26	1288,17
374,47	1271,79
374,68	1310,70
374,89	1212,40
375,10	1224,69
375,31	1265,64
375,52	1310,70
375,73	1243,12
375,94	1220,59
376,15	1267,69
376,36	1230,83
376,57	1298,41
376,78	1279,98
376,99	1255,40
377,20	1230,83
377,40	1314,80
377,61	1228,78
377,82	1251,31
378,03	1214,45
378,24	1232,88
378,45	1327,08
378,66	1302,51
378,87	1267,69
379,08	1282,03
379,29	1339,37
379,50	1271,79
379,71	1165,29
379,91	1239,02
380,12	1277,93
380,33	1284,08
380,54	1220,59
380,75	1259,50
380,96	1249,26
381,17	1253,36
381,38	1224,69
381,59	1310,70
381,80	1257,45
382,00	1265,64
382,21	1245,16
382,42	1214,45
382,63	1312,75
382,84	1279,98
383,05	1267,69
383,26	1259,50
383,47	1310,70
383,68	1187,82
383,88	1304,56
384,09	1241,07
384,30	1306,60
384,51	1294,32
384,72	1288,17
384,93	1302,51
385,14	1267,69
385,35	1265,64
385,55	1286,12
385,76	1253,36
385,97	1202,16
386,18	1255,40
386,39	1230,83
386,60	1378,28
386,81	1204,21
387,02	1234,93
387,22	1253,36
387,43	1314,80
387,64	1263,60
387,85	1196,01
388,06	1302,51
388,27	1284,08
388,48	1275,88
388,68	1339,37
388,89	1290,22
389,10	1241,07
389,31	1251,31
389,52	1257,45
389,73	1298,41
389,93	1230,83
390,14	1304,56
390,35	1279,98
390,56	1345,52
390,77	1210,35
390,98	1376,24
391,18	1206,25
391,39	1333,23
391,60	1261,55
391,81	1265,64
392,02	1218,54
392,23	1212,40
392,43	1216,49
392,64	1200,11
392,85	1232,88
393,06	1261,55
393,27	1296,36
393,47	1271,79
393,68	1247,21
393,89	1271,79
394,10	1302,51
394,31	1257,45
394,52	1251,31
394,72	1259,50
394,93	1265,64
395,14	1230,83
395,35	1249,26
395,56	1208,30
395,76	1206,25
395,97	1296,36
396,18	1259,50
396,39	1247,21
396,60	1239,02
396,80	1239,02
397,01	1339,37
397,22	1265,64
397,43	1273,84
397,64	1239,02
397,84	1282,03
398,05	1261,55
398,26	1349,61
398,47	1261,55
398,67	1310,70
398,88	1298,41
399,09	1206,25
399,30	1265,64
399,51	1236,97
399,71	1343,47
399,92	1208,30
400,13	1288,17
400,34	1294,32
400,54	1312,75
400,75	1288,17
400,96	1236,97
401,17	1300,46
401,37	1249,26
401,58	1269,74
401,79	1292,27
402,00	1245,16
402,21	1314,80
402,41	1228,78
402,62	1312,75
402,83	1349,61
403,04	1316,84
403,24	1234,93
403,45	1253,36
403,66	1296,36
403,87	1220,59
404,07	1316,84
404,28	1222,64
404,49	1232,88
404,70	1320,94
404,90	1216,49
405,11	1337,32
405,32	1273,84
405,52	1243,12
405,73	1255,40
405,94	1234,93
406,15	1251,31
406,35	1267,69
406,56	1232,88
406,77	1322,99
406,98	1325,04
407,18	1265,64
407,39	1310,70
407,60	1353,71
407,80	1216,49
408,01	1259,50
408,22	1271,79
408,43	1228,78
408,63	1320,94
408,84	1300,46
409,05	1279,98
409,25	1255,40
409,46	1222,64
409,67	1224,69
409,88	1306,60
410,08	1396,71
410,29	1302,51
410,50	1271,79
410,70	1265,64
410,91	1230,83
411,12	1257,45
411,32	1290,22
411,53	1335,28
411,74	1316,84
411,95	1239,02
412,15	1249,26
412,36	1222,64
412,57	1308,65
412,77	1189,87
412,98	1218,54
413,19	1220,59
413,39	1216,49
413,60	1298,41
413,81	1267,69
414,01	1251,31
414,22	1327,08
414,43	1275,88
414,63	1241,07
414,84	1292,27
415,05	1329,13
415,25	1214,45
415,46	1273,84
415,67	1267,69
415,87	1277,93
416,08	1337,32
416,29	1277,93
416,49	1249,26
416,70	1208,30
416,91	1247,21
417,11	1304,56
417,32	1269,74
417,53	1288,17
417,73	1224,69
417,94	1241,07
418,15	1273,84
418,35	1318,89
418,56	1269,74
418,77	1267,69
418,97	1253,36
419,18	1218,54
419,38	1200,11
419,59	1247,21
419,80	1288,17
420,00	1226,73
420,21	1331,18
420,42	1226,73
420,62	1261,55
420,83	1265,64
421,04	1228,78
421,24	1249,26
421,45	1218,54
421,65	1331,18
421,86	1216,49
422,07	1249,26
422,27	1249,26
422,48	1261,55
422,69	1296,36
422,89	1220,59
423,10	1271,79
423,30	1296,36
423,51	1294,32
423,72	1308,65
423,92	1322,99
424,13	1314,80
424,33	1257,45
424,54	1243,12
424,75	1150,96
424,95	1263,60
425,16	1298,41
425,36	1245,16
425,57	1216,49
425,78	1267,69
425,98	1232,88
426,19	1245,16
426,39	1208,30
426,60	1241,07
426,81	1230,83
427,01	1284,08
427,22	1220,59
427,42	1306,60
427,63	1251,31
427,83	1245,16
428,04	1296,36
428,25	1353,71
428,45	1257,45
428,66	1189,87
428,86	1306,60
429,07	1245,16
429,28	1327,08
429,48	1208,30
429,69	1271,79
429,89	1191,92
430,10	1259,50
430,30	1239,02
430,51	1298,41
430,71	1271,79
430,92	1183,73
431,13	1259,50
431,33	1279,98
431,54	1253,36
431,74	1339,37
431,95	1255,40
432,15	1288,17
432,36	1239,02
432,56	1228,78
432,77	1259,50
432,98	1271,79
433,18	1183,73
433,39	1218,54
433,59	1273,84
433,80	1271,79
434,00	1292,27
434,21	1282,03
434,41	1243,12
434,62	1279,98
434,82	1261,55
435,03	1255,40
435,23	1259,50
435,44	1277,93
435,64	1253,36
435,85	1265,64
436,06	1253,36
436,26	1279,98
436,47	1257,45
436,67	1300,46
436,88	1236,97
437,08	1302,51
437,29	1370,09
437,49	1279,98
437,70	1327,08
437,90	1290,22
438,11	1249,26
438,31	1208,30
438,52	1314,80
438,72	1322,99
438,93	1300,46
439,13	1208,30
439,34	1228,78
439,54	1269,74
439,75	1239,02
439,95	1310,70
440,16	1284,08
440,36	1269,74
440,57	1259,50
440,77	1306,60
440,98	1222,64
441,18	1349,61
441,39	1232,88
441,59	1210,35
441,80	1210,35
442,00	1249,26
442,21	1271,79
442,41	1257,45
442,62	1263,60
442,82	1234,93
443,02	1277,93
443,23	1232,88
443,43	1210,35
443,64	1306,60
443,84	1224,69
444,05	1257,45
444,25	1245,16
444,46	1265,64
444,66	1241,07
444,87	1312,75
445,07	1296,36
445,28	1316,84
445,48	1251,31
445,69	1329,13
445,89	1230,83
446,09	1230,83
446,30	1214,45
446,50	1253,36
446,71	1325,04
446,91	1288,17
447,12	1251,31
447,32	1304,56
447,53	1290,22
447,73	1304,56
447,93	1298,41
448,14	1298,41
448,34	1261,55
448,55	1290,22
448,75	1275,88
448,96	1277,93
449,16	1196,01
449,36	1363,95
449,57	1218,54
449,77	1249,26
449,98	1279,98
450,18	1273,84
450,39	1255,40
450,59	1259,50
450,79	1273,84
451,00	1271,79
451,20	1255,40
451,41	1322,99
451,61	1220,59
451,81	1265,64
452,02	1253,36
452,22	1288,17
452,43	1212,40
452,63	1269,74
452,84	1241,07
453,04	1193,97
453,24	1226,73
453,45	1273,84
453,65	1290,22
453,86	1257,45
454,06	1288,17
454,26	1259,50
454,47	1251,31
454,67	1204,21
454,87	1216,49
455,08	1275,88
455,28	1331,18
455,49	1220,59
455,69	1277,93
455,89	1239,02
456,10	1322,99
456,30	1273,84
456,51	1269,74
456,71	1279,98
456,91	1204,21
457,12	1294,32
457,32	1325,04
457,52	1261,55
457,73	1243,12
457,93	1241,07
458,14	1220,59
458,34	1292,27
458,54	1259,50
458,75	1236,97
458,95	1265,64
459,15	1247,21
459,36	1284,08
459,56	1263,60
459,76	1234,93
459,97	1216,49
460,17	1347,56
460,37	1327,08
460,58	1312,75
460,78	1265,64
460,99	1308,65
461,19	1181,68
461,39	1279,98
461,60	1273,84
461,80	1308,65
462,00	1230,83
462,21	1257,45
462,41	1255,40
462,61	1275,88
462,82	1230,83
463,02	1263,60
463,22	1284,08
463,43	1259,50
463,63	1279,98
463,83	1282,03
464,04	1183,73
464,24	1288,17
464,44	1345,52
464,64	1265,64
464,85	1216,49
465,05	1243,12
465,25	1292,27
465,46	1257,45
465,66	1300,46
465,86	1251,31
466,07	1325,04
466,27	1208,30
466,47	1263,60
466,68	1265,64
466,88	1310,70
467,08	1228,78
467,29	1294,32
467,49	1269,74
467,69	1347,56
467,89	1257,45
468,10	1218,54
468,30	1304,56
468,50	1249,26
468,71	1212,40
468,91	1322,99
469,11	1251,31
469,31	1243,12
469,52	1220,59
469,72	1224,69
469,92	1253,36
470,13	1177,58
470,33	1304,56
470,53	1279,98
470,73	1245,16
470,94	1234,93
471,14	1273,84
471,34	1290,22
471,54	1288,17
471,75	1189,87
471,95	1378,28
472,15	1273,84
472,36	1284,08
472,56	1284,08
472,76	1245,16
472,96	1239,02
473,17	1288,17
473,37	1247,21
473,57	1304,56
473,77	1228,78
473,98	1210,35
474,18	1265,64
474,38	1214,45
474,58	1249,26
474,79	1191,92
474,99	1257,45
475,19	1224,69
475,39	1267,69
475,60	1257,45
475,80	1263,60
476,00	1273,84
476,20	1243,12
476,41	1304,56
476,61	1255,40
476,81	1277,93
477,01	1320,94
477,21	1241,07
477,42	1251,31
477,62	1216,49
477,82	1273,84
478,02	1288,17
478,23	1230,83
478,43	1265,64
478,63	1206,25
478,83	1261,55
479,03	1249,26
479,24	1214,45
479,44	1288,17
479,64	1261,55
479,84	1388,52
480,04	1196,01
480,25	1224,69
480,45	1239,02
480,65	1247,21
480,85	1226,73
481,06	1251,31
481,26	1261,55
481,46	1286,12
481,66	1269,74
481,86	1282,03
482,06	1322,99
482,27	1310,70
482,47	1255,40
482,67	1255,40
482,87	1230,83
483,07	1288,17
483,28	1216,49
483,48	1300,46
483,68	1282,03
483,88	1298,41
484,08	1241,07
484,29	1286,12
484,49	1228,78
484,69	1290,22
484,89	1329,13
485,09	1273,84
485,29	1269,74
485,50	1165,29
485,70	1265,64
485,90	1230,83
486,10	1298,41
486,30	1310,70
486,50	1277,93
486,71	1279,98
486,91	1298,41
487,11	1314,80
487,31	1236,97
487,51	1236,97
487,71	1245,16
487,91	1239,02
488,12	1257,45
488,32	1261,55
488,52	1245,16
488,72	1302,51
488,92	1294,32
489,12	1325,04
489,32	1236,97
489,53	1298,41
489,73	1230,83
489,93	1253,36
490,13	1279,98
490,33	1247,21
490,53	1255,40
490,73	1241,07
490,94	1196,01
491,14	1349,61
491,34	1249,26
491,54	1234,93
491,74	1335,28
491,94	1236,97
492,14	1279,98
492,34	1290,22
492,54	1263,60
492,75	1155,05
492,95	1329,13
493,15	1300,46
493,35	1257,45
493,55	1316,84
493,75	1234,93
493,95	1245,16
494,15	1222,64
494,35	1273,84
494,56	1263,60
494,76	1226,73
494,96	1300,46
495,16	1243,12
495,36	1239,02
495,56	1218,54
495,76	1232,88
495,96	1226,73
496,16	1294,32
496,36	1245,16
496,56	1284,08
496,77	1318,89
496,97	1298,41
497,17	1234,93
497,37	1290,22
497,57	1222,64
497,77	1269,74
497,97	1247,21
498,17	1292,27
498,37	1198,06
498,57	1316,84
498,77	1255,40
498,97	1290,22
499,17	1249,26
499,38	1253,36
499,58	1290,22
499,78	1294,32
499,98	1239,02
500,18	1310,70
500,38	1304,56
500,58	1294,32
500,78	1239,02
500,98	1208,30
501,18	1249,26
501,38	1339,37
501,58	1312,75
501,78	1298,41
501,98	1290,22
502,18	1263,60
502,38	1271,79
502,58	1267,69
502,78	1298,41
502,98	1292,27
503,18	1259,50
503,38	1288,17
503,59	1310,70
503,79	1273,84
503,99	1314,80
504,19	1282,03
504,39	1230,83
504,59	1325,04
504,79	1263,60
504,99	1314,80
505,19	1359,85
505,39	1263,60
505,59	1247,21
505,79	1271,79
505,99	1284,08
506,19	1273,84
506,39	1228,78
506,59	1288,17
506,79	1290,22
506,99	1257,45
507,19	1265,64
507,39	1265,64
507,59	1269,74
507,79	1267,69
507,99	1220,59
508,19	1220,59
508,39	1257,45
508,59	1214,45
508,79	1216,49
508,99	1316,84
509,19	1269,74
509,39	1165,29
509,59	1298,41
509,79	1241,07
509,99	1191,92
510,19	1310,70
510,39	1222,64
510,59	1310,70
510,79	1189,87
510,99	1247,21
511,19	1308,65
511,39	1310,70
511,59	1282,03
511,79	1243,12
511,99	1224,69
512,19	1286,12
512,38	1282,03
512,58	1239,02
512,78	1318,89
512,98	1329,13
513,18	1282,03
513,38	1288,17
513,58	1212,40
513,78	1247,21
513,98	1267,69
514,18	1308,65
514,38	1341,42
514,58	1269,74
514,78	1279,98
514,98	1314,80
515,18	1325,04
515,38	1239,02
515,58	1331,18
515,78	1189,87
515,98	1155,05
516,18	1304,56
516,38	1265,64
516,57	1222,64
516,77	1322,99
516,97	1206,25
517,17	1282,03
517,37	1224,69
517,57	1302,51
517,77	1257,45
517,97	1337,32
518,17	1271,79
518,37	1292,27
518,57	1257,45
518,77	1202,16
518,97	1212,40
519,16	1288,17
519,36	1212,40
519,56	1265,64
519,76	1339,37
519,96	1275,88
520,16	1277,93
520,36	1300,46
520,56	1265,64
520,76	1269,74
520,96	1337,32
521,16	1239,02
521,35	1290,22
521,55	1193,97
521,75	1241,07
521,95	1263,60
522,15	1259,50
522,35	1251,31
522,55	1255,40
522,75	1306,60
522,95	1228,78
523,14	1263,60
523,34	1232,88
523,54	1200,11
523,74	1222,64
523,94	1204,21
524,14	1220,59
524,34	1296,36
524,54	1255,40
524,73	1255,40
524,93	1298,41
525,13	1198,06
525,33	1261,55
525,53	1339,37
525,73	1259,50
525,93	1288,17
526,13	1206,25
526,32	1333,23
526,52	1353,71
526,72	1314,80
526,92	1210,35
527,12	1257,45
527,32	1306,60
527,52	1314,80
527,71	1243,12
527,91	1183,73
528,11	1302,51
528,31	1302,51
528,51	1304,56
528,71	1294,32
528,90	1292,27
529,10	1316,84
529,30	1312,75
529,50	1261,55
529,70	1259,50
529,90	1273,84
530,09	1234,93
530,29	1284,08
530,49	1312,75
530,69	1370,09
530,89	1284,08
531,09	1290,22
531,28	1327,08
531,48	1292,27
531,68	1312,75
531,88	1292,27
532,08	1230,83
532,28	1288,17
532,47	1257,45
532,67	1220,59
532,87	1271,79
533,07	1236,97
533,27	1290,22
533,46	1255,40
533,66	1228,78
533,86	1282,03
534,06	1265,64
534,26	1282,03
534,45	1212,40
534,65	1189,87
534,85	1308,65
535,05	1230,83
535,25	1275,88
535,44	1290,22
535,64	1277,93
535,84	1208,30
536,04	1230,83
536,24	1214,45
536,43	1259,50
536,63	1216,49
536,83	1296,36
537,03	1288,17
537,22	1265,64
537,42	1290,22
537,62	1247,21
537,82	1279,98
538,02	1310,70
538,21	1202,16
538,41	1284,08
538,61	1279,98
538,81	1232,88
539,00	1341,42
539,20	1234,93
539,40	1261,55
539,60	1314,80
539,79	1273,84
539,99	1312,75
540,19	1310,70
540,39	1239,02
540,58	1312,75
540,78	1288,17
540,98	1279,98
541,18	1243,12
541,37	1312,75
541,57	1343,47
541,77	1232,88
541,97	1275,88
542,16	1304,56
542,36	1206,25
542,56	1239,02
542,76	1257,45
542,95	1249,26
543,15	1259,50
543,35	1273,84
543,54	1253,36
543,74	1304,56
543,94	1241,07
544,14	1286,12
544,33	1269,74
544,53	1271,79
544,73	1261,55
544,93	1306,60
545,12	1212,40
545,32	1234,93
545,52	1245,16
545,71	1279,98
545,91	1189,87
546,11	1255,40
546,30	1263,60
546,50	1320,94
546,70	1259,50
546,90	1302,51
547,09	1279,98
547,29	1298,41
547,49	1232,88
547,68	1269,74
547,88	1269,74
548,08	1282,03
548,27	1310,70
548,47	1226,73
548,67	1259,50
548,87	1277,93
549,06	1306,60
549,26	1239,02
549,46	1288,17
549,65	1273,84
549,85	1212,40
550,05	1189,87
550,24	1224,69
550,44	1306,60
550,64	1251,31
550,83	1265,64
551,03	1230,83
551,23	1222,64
551,42	1339,37
551,62	1269,74
551,82	1208,30
552,01	1292,27
552,21	1335,28
552,41	1251,31
552,60	1253,36
552,80	1331,18
553,00	1277,93
553,19	1224,69
553,39	1249,26
553,59	1318,89
553,78	1322,99
553,98	1247,21
554,17	1312,75
554,37	1265,64
554,57	1189,87
554,76	1214,45
554,96	1304,56
555,16	1314,80
555,35	1310,70
555,55	1275,88
555,75	1226,73
555,94	1271,79
556,14	1245,16
556,33	1304,56
556,53	1265,64
556,73	1282,03
556,92	1230,83
557,12	1318,89
557,32	1191,92
557,51	1296,36
557,71	1206,25
557,90	1273,84
558,10	1247,21
558,30	1234,93
558,49	1302,51
558,69	1306,60
558,88	1273,84
559,08	1241,07
559,28	1308,65
559,47	1224,69
559,67	1314,80
559,86	1327,08
560,06	1265,64
560,26	1290,22
560,45	1314,80
560,65	1169,39
560,84	1279,98
561,04	1294,32
561,24	1294,32
561,43	1269,74
561,63	1302,51
561,82	1255,40
562,02	1214,45
562,22	1288,17
562,41	1325,04
562,61	1220,59
562,80	1267,69
563,00	1267,69
563,19	1216,49
563,39	1249,26
563,59	1279,98
563,78	1202,16
563,98	1230,83
564,17	1318,89
564,37	1226,73
564,56	1257,45
564,76	1288,17
564,96	1288,17
565,15	1218,54
565,35	1212,40
565,54	1265,64
565,74	1245,16
565,93	1263,60
566,13	1304,56
566,32	1271,79
566,52	1245,16
566,71	1196,01
566,91	1341,42
567,11	1290,22
567,30	1284,08
567,50	1220,59
567,69	1279,98
567,89	1282,03
568,08	1290,22
568,28	1255,40
568,47	1310,70
568,67	1222,64
568,86	1318,89
569,06	1286,12
569,25	1277,93
569,45	1253,36
569,64	1255,40
569,84	1236,97
570,04	1228,78
570,23	1243,12
570,43	1257,45
570,62	1232,88
570,82	1239,02
571,01	1306,60
571,21	1239,02
571,40	1241,07
571,60	1269,74
571,79	1290,22
571,99	1271,79
572,18	1351,66
572,38	1216,49
572,57	1288,17
572,77	1290,22
572,96	1253,36
573,16	1261,55
573,35	1300,46
573,55	1294,32
573,74	1247,21
573,94	1255,40
574,13	1261,55
574,33	1269,74
574,52	1279,98
574,71	1275,88
574,91	1216,49
575,10	1257,45
575,30	1208,30
575,49	1292,27
575,69	1275,88
575,88	1275,88
576,08	1216,49
576,27	1312,75
576,47	1288,17
576,66	1265,64
576,86	1277,93
577,05	1316,84
577,25	1249,26
577,44	1286,12
577,64	1320,94
577,83	1331,18
578,02	1249,26
578,22	1294,32
578,41	1298,41
578,61	1337,32
578,80	1257,45
579,00	1318,89
579,19	1239,02
579,39	1390,57
579,58	1296,36
579,77	1210,35
579,97	1161,20
580,16	1322,99
580,36	1263,60
580,55	1290,22
580,75	1288,17
580,94	1245,16
581,13	1308,65
581,33	1308,65
581,52	1310,70
581,72	1331,18
581,91	1216,49
582,11	1339,37
582,30	1243,12
582,49	1159,15
582,69	1277,93
582,88	1243,12
583,08	1239,02
583,27	1273,84
583,47	1337,32
583,66	1288,17
583,85	1282,03
584,05	1216,49
584,24	1314,80
584,44	1245,16
584,63	1245,16
584,82	1241,07
585,02	1230,83
585,21	1255,40
585,41	1271,79
585,60	1232,88
585,79	1263,60
585,99	1230,83
586,18	1230,83
586,37	1277,93
586,57	1320,94
586,76	1214,45
586,96	1261,55
587,15	1290,22
587,34	1265,64
587,54	1204,21
587,73	1253,36
587,93	1216,49
588,12	1296,36
588,31	1271,79
588,51	1282,03
588,70	1253,36
588,89	1277,93
589,09	1265,64
589,28	1273,84
589,47	1239,02
589,67	1226,73
589,86	1282,03
590,06	1347,56
590,25	1216,49
590,44	1212,40
590,64	1308,65
590,83	1243,12
591,02	1265,64
591,22	1322,99
591,41	1273,84
591,60	1208,30
591,80	1320,94
591,99	1218,54
592,18	1239,02
592,38	1243,12
592,57	1296,36
592,76	1236,97
592,96	1226,73
593,15	1249,26
593,34	1320,94
593,54	1257,45
593,73	1275,88
593,92	1210,35
594,12	1179,63
594,31	1275,88
594,50	1232,88
594,70	1243,12
594,89	1255,40
595,08	1304,56
595,28	1189,87
595,47	1312,75
595,66	1282,03
595,86	1292,27
596,05	1228,78
596,24	1259,50
596,43	1255,40
596,63	1204,21
596,82	1269,74
597,01	1304,56
597,21	1304,56
597,40	1355,76
597,59	1255,40
597,79	1224,69
597,98	1249,26
598,17	1245,16
598,36	1304,56
598,56	1284,08
598,75	1284,08
598,94	1245,16
599,14	1296,36
599,33	1282,03
599,52	1220,59
599,71	1187,82
599,91	1294,32
600,10	1243,12
600,29	1253,36
600,48	1261,55
600,68	1243,12
600,87	1193,97
601,06	1239,02
601,26	1279,98
601,45	1232,88
601,64	1271,79
601,83	1247,21
602,03	1318,89
602,22	1228,78
602,41	1245,16
602,60	1288,17
602,80	1214,45
602,99	1275,88
603,18	1210,35
603,37	1273,84
603,57	1167,34
603,76	1290,22
603,95	1279,98
604,14	1241,07
604,34	1243,12
604,53	1284,08
604,72	1298,41
604,91	1286,12
605,10	1253,36
605,30	1224,69
605,49	1265,64
605,68	1294,32
605,87	1230,83
606,07	1241,07
606,26	1226,73
606,45	1339,37
606,64	1261,55
606,84	1331,18
607,03	1308,65
607,22	1286,12
607,41	1247,21
607,60	1294,32
607,80	1322,99
607,99	1290,22
608,18	1353,71
608,37	1284,08
608,56	1355,76
608,76	1230,83
608,95	1269,74
609,14	1177,58
609,33	1247,21
609,52	1331,18
609,72	1269,74
609,91	1316,84
610,10	1273,84
610,29	1210,35
610,48	1243,12
610,68	1269,74
610,87	1279,98
611,06	1206,25
611,25	1228,78
611,44	1296,36
611,63	1300,46
611,83	1271,79
612,02	1339,37
612,21	1255,40
612,40	1312,75
612,59	1290,22
612,79	1263,60
612,98	1390,57
613,17	1282,03
613,36	1234,93
613,55	1230,83
613,74	1279,98
613,93	1320,94
614,13	1269,74
614,32	1198,06
614,51	1331,18
614,70	1196,01
614,89	1325,04
615,08	1298,41
615,28	1316,84
615,47	1288,17
615,66	1279,98
615,85	1372,14
616,04	1308,65
616,23	1284,08
616,42	1239,02
616,62	1243,12
616,81	1288,17
617,00	1191,92
617,19	1255,40
617,38	1284,08
617,57	1298,41
617,76	1216,49
617,95	1345,52
618,15	1239,02
618,34	1265,64
618,53	1210,35
618,72	1263,60
618,91	1224,69
619,10	1196,01
619,29	1228,78
619,48	1277,93
619,68	1259,50
619,87	1265,64
620,06	1208,30
620,25	1257,45
620,44	1335,28
620,63	1253,36
620,82	1210,35
621,01	1249,26
621,20	1222,64
621,39	1257,45
621,59	1288,17
621,78	1249,26
621,97	1318,89
622,16	1302,51
622,35	1320,94
622,54	1337,32
622,73	1202,16
622,92	1292,27
623,11	1241,07
623,30	1230,83
623,49	1294,32
623,68	1228,78
623,88	1241,07
624,07	1245,16
624,26	1337,32
624,45	1314,80
624,64	1288,17
624,83	1306,60
625,02	1267,69
625,21	1234,93
625,40	1208,30
625,59	1279,98
625,78	1335,28
625,97	1355,76
626,16	1265,64
626,35	1282,03
626,54	1232,88
626,74	1372,14
626,93	1251,31
627,12	1288,17
627,31	1245,16
627,50	1279,98
627,69	1308,65
627,88	1282,03
628,07	1273,84
628,26	1275,88
628,45	1216,49
628,64	1286,12
628,83	1230,83
629,02	1202,16
629,21	1322,99
629,40	1343,47
629,59	1325,04
629,78	1241,07
629,97	1230,83
630,16	1296,36
630,35	1320,94
630,54	1298,41
630,73	1368,04
630,92	1380,33
631,11	1351,66
631,30	1325,04
631,49	1366,00
631,68	1452,01
631,87	3762,12
632,06	12222,28
632,25	24100,50
632,44	28491,34
632,63	29935,16
632,82	15648,53
633,01	5609,39
633,20	3733,45
633,39	3260,37
633,58	2504,67
633,77	1996,77
633,96	1843,17
634,15	1931,23
634,34	1843,17
634,53	1675,24
634,72	1617,90
634,91	1507,30
635,10	1554,41
635,29	1619,94
635,48	1572,84
635,67	1507,30
635,86	1499,11
636,05	1431,53
636,24	1427,43
636,43	1343,47
636,62	1275,88
636,81	1273,84
637,00	1359,85
637,19	1279,98
637,38	1314,80
637,57	1359,85
637,76	1343,47
637,95	1255,40
638,14	1196,01
638,33	1368,04
638,52	1265,64
638,71	1239,02
638,89	1222,64
639,08	1255,40
639,27	1263,60
639,46	1294,32
639,65	1277,93
639,84	1247,21
640,03	1304,56
640,22	1247,21
640,41	1247,21
640,60	1236,97
640,79	1302,51
640,98	1247,21
641,17	1275,88
641,36	1208,30
641,55	1261,55
641,74	1263,60
641,92	1253,36
642,11	1329,13
642,30	1312,75
642,49	1234,93
642,68	1296,36
642,87	1308,65
643,06	1337,32
643,25	1263,60
643,44	1298,41
643,63	1273,84
643,82	1271,79
644,00	1286,12
644,19	1290,22
644,38	1277,93
644,57	1228,78
644,76	1236,97
644,95	1302,51
645,14	1284,08
645,33	1259,50
645,52	1308,65
645,71	1361,90
645,89	1259,50
646,08	1206,25
646,27	1257,45
646,46	1275,88
646,65	1183,73
646,84	1282,03
647,03	1259,50
647,22	1282,03
647,40	1273,84
647,59	1259,50
647,78	1257,45
647,97	1249,26
648,16	1249,26
648,35	1314,80
648,54	1273,84
648,73	1236,97
648,91	1290,22
649,10	1288,17
649,29	1255,40
649,48	1290,22
649,67	1200,11
649,86	1273,84
650,05	1222,64
650,23	1267,69
650,42	1249,26
650,61	1296,36
650,80	1300,46
650,99	1239,02
651,18	1249,26
651,36	1232,88
651,55	1320,94
651,74	1325,04
651,93	1263,60
652,12	1370,09
652,31	1300,46
652,49	1294,32
652,68	1318,89
652,87	1243,12
653,06	1337,32
653,25	1253,36
653,44	1284,08
653,62	1316,84
653,81	1255,40
654,00	1325,04
654,19	1206,25
654,38	1275,88
654,56	1263,60
654,75	1312,75
654,94	1226,73
655,13	1288,17
655,32	1232,88
655,51	1359,85
655,69	1306,60
655,88	1216,49
656,07	1253,36
656,26	1277,93
656,45	1267,69
656,63	1255,40
656,82	1253,36
657,01	1298,41
657,20	1294,32
657,38	1241,07
657,57	1288,17
657,76	1284,08
657,95	1306,60
658,14	1277,93
658,32	1282,03
658,51	1249,26
658,70	1202,16
658,89	1247,21
659,08	1271,79
659,26	1253,36
659,45	1279,98
659,64	1290,22
659,83	1271,79
660,01	1277,93
660,20	1230,83
660,39	1290,22
660,58	1339,37
660,76	1269,74
660,95	1275,88
661,14	1314,80
661,33	1261,55
661,51	1234,93
661,70	1302,51
661,89	1271,79
662,08	1347,56
662,26	1245,16
662,45	1191,92
662,64	1198,06
662,83	1300,46
663,01	1228,78
663,20	1296,36
663,39	1261,55
663,58	1300,46
663,76	1218,54
663,95	1349,61
664,14	1249,26
664,32	1302,51
664,51	1290,22
664,70	1314,80
664,89	1239,02
665,07	1304,56
665,26	1296,36
665,45	1249,26
665,64	1263,60
665,82	1273,84
666,01	1308,65
666,20	1236,97
666,38	1245,16
666,57	1230,83
666,76	1300,46
666,95	1257,45
667,13	1249,26
667,32	1333,23
667,51	1239,02
667,69	1273,84
667,88	1265,64
668,07	1247,21
668,25	1343,47
668,44	1271,79
668,63	1222,64
668,81	1251,31
669,00	1196,01
669,19	1290,22
669,38	1263,60
669,56	1273,84
669,75	1277,93
669,94	1259,50
670,12	1331,18
670,31	1257,45
670,50	1216,49
670,68	1222,64
670,87	1232,88
671,06	1288,17
671,24	1302,51
671,43	1247,21
671,62	1277,93
671,80	1243,12
671,99	1251,31
672,18	1261,55
672,36	1263,60
672,55	1310,70
672,74	1232,88
672,92	1255,40
673,11	1306,60
673,29	1263,60
673,48	1290,22
673,67	1294,32
673,85	1277,93
674,04	1325,04
674,23	1230,83
674,41	1304,56
674,60	1202,16
674,79	1206,25
674,97	1232,88
675,16	1288,17
675,34	1304,56
675,53	1279,98
675,72	1200,11
675,90	1335,28
676,09	1255,40
676,28	1210,35
676,46	1275,88
676,65	1241,07
676,83	1234,93
677,02	1239,02
677,21	1247,21
677,39	1257,45
677,58	1173,49
677,77	1304,56
677,95	1243,12
678,14	1263,60
678,32	1245,16
678,51	1202,16
678,70	1263,60
678,88	1282,03
679,07	1296,36
679,25	1243,12
679,44	1241,07
679,63	1222,64
679,81	1284,08
680,00	1259,50
680,18	1292,27
680,37	1251,31
680,55	1226,73
680,74	1271,79
680,93	1275,88
681,11	1282,03
681,30	1298,41
681,48	1314,80
681,67	1310,70
681,85	1271,79
682,04	1218,54
682,23	1228,78
682,41	1292,27
682,60	1181,68
682,78	1327,08
682,97	1292,27
683,15	1253,36
683,34	1234,93
683,53	1275,88
683,71	1275,88
683,90	1347,56
684,08	1286,12
684,27	1282,03
684,45	1253,36
684,64	1282,03
684,82	1183,73
685,01	1261,55
685,19	1279,98
685,38	1314,80
685,57	1212,40
685,75	1288,17
685,94	1267,69
686,12	1284,08
686,31	1302,51
686,49	1298,41
686,68	1236,97
686,86	1271,79
687,05	1275,88
687,23	1230,83
687,42	1257,45
687,60	1271,79
687,79	1165,29
687,97	1196,01
688,16	1245,16
688,34	1282,03
688,53	1196,01
688,71	1224,69
688,90	1337,32
689,08	1306,60
689,27	1239,02
689,45	1279,98
689,64	1216,49
689,82	1245,16
690,01	1273,84
690,19	1257,45
690,38	1277,93
690,56	1228,78
690,75	1271,79
690,93	1249,26
691,12	1189,87
691,30	1265,64
691,49	1226,73
691,67	1265,64
691,86	1306,60
692,04	1236,97
692,23	1236,97
692,41	1222,64
692,60	1331,18
692,78	1322,99
692,97	1339,37
693,15	1228,78
693,34	1251,31
693,52	1232,88
693,71	1286,12
693,89	1331,18
694,08	1298,41
694,26	1230,83
694,44	1234,93
694,63	1302,51
694,81	1232,88
695,00	1300,46
695,18	1249,26
695,37	1267,69
695,55	1275,88
695,74	1251,31
695,92	1253,36
696,10	1241,07
696,29	1243,12
696,47	1247,21
696,66	1216,49
696,84	1259,50
697,03	1245,16
697,21	1200,11
697,40	1392,62
697,58	1259,50
697,76	1296,36
697,95	1230,83
698,13	1185,77
698,32	1327,08
698,50	1273,84
698,68	1241,07
698,87	1284,08
699,05	1261,55
699,24	1239,02
699,42	1230,83
699,61	1255,40
699,79	1302,51
699,97	1265,64
700,16	1273,84
700,34	1275,88
700,53	1312,75
700,71	1331,18
700,89	1304,56
701,08	1218,54
701,26	1335,28
701,45	1222,64
701,63	1308,65
701,81	1253,36
702,00	1269,74
702,18	1271,79
702,37	1259,50
702,55	1204,21
702,73	1269,74
702,92	1210,35
703,10	1263,60
703,28	1196,01
703,47	1286,12
703,65	1259,50
703,84	1247,21
704,02	1251,31
704,20	1343,47
704,39	1212,40
704,57	1257,45
704,75	1220,59
704,94	1193,97
705,12	1243,12
705,30	1269,74
705,49	1353,71
705,67	1265,64
705,86	1236,97
706,04	1228,78
706,22	1204,21
706,41	1296,36
706,59	1200,11
706,77	1210,35
706,96	1288,17
707,14	1353,71
707,32	1296,36
707,51	1294,32
707,69	1290,22
707,87	1249,26
708,06	1228,78
708,24	1230,83
708,42	1322,99
708,61	1200,11
708,79	1222,64
708,97	1353,71
709,16	1232,88
709,34	1236,97
709,52	1296,36
709,71	1279,98
709,89	1230,83
710,07	1286,12
710,26	1253,36
710,44	1212,40
710,62	1228,78
710,80	1251,31
710,99	1275,88
711,17	1308,65
711,35	1245,16
711,54	1298,41
711,72	1220,59
711,90	1243,12
712,09	1239,02
712,27	1202,16
712,45	1206,25
712,63	1314,80
712,82	1198,06
713,00	1290,22
713,18	1241,07
713,37	1298,41
713,55	1243,12
713,73	1222,64
713,91	1284,08
714,10	1230,83
714,28	1290,22
714,46	1294,32
714,65	1275,88
714,83	1306,60
715,01	1243,12
715,19	1259,50
715,38	1288,17
715,56	1275,88
715,74	1243,12
715,92	1200,11
716,11	1277,93
716,29	1216,49
716,47	1288,17
716,65	1163,25
716,84	1265,64
717,02	1337,32
717,20	1243,12
717,38	1241,07
717,57	1284,08
717,75	1245,16
717,93	1214,45
718,11	1222,64
718,30	1288,17
718,48	1193,97
718,66	1216,49
718,84	1245,16
719,03	1269,74
719,21	1232,88
719,39	1331,18
719,57	1306,60
719,75	1236,97
719,94	1241,07
720,12	1247,21
720,30	1314,80
720,48	1310,70
720,67	1236,97
720,85	1333,23
721,03	1218,54
721,21	1282,03
721,39	1314,80
721,58	1300,46
721,76	1343,47
721,94	1298,41
722,12	1232,88
722,30	1259,50
722,49	1247,21
722,67	1320,94
722,85	1294,32
723,03	1232,88
723,21	1249,26
723,40	1329,13
723,58	1312,75
723,76	1298,41
723,94	1232,88
724,12	1286,12
724,30	1284,08
724,49	1298,41
724,67	1210,35
724,85	1249,26
725,03	1271,79
725,21	1259,50
725,40	1292,27
725,58	1232,88
725,76	1273,84
725,94	1198,06
726,12	1294,32
726,30	1259,50
726,49	1239,02
726,67	1257,45
726,85	1253,36
727,03	1265,64
727,21	1302,51
727,39	1306,60
727,57	1208,30
727,76	1208,30
727,94	1228,78
728,12	1282,03
728,30	1230,83
728,48	1196,01
728,66	1214,45
728,84	1300,46
729,03	1251,31
729,21	1236,97
729,39	1314,80
729,57	1228,78
729,75	1255,40
729,93	1279,98
730,11	1294,32
730,30	1269,74
730,48	1228,78
730,66	1150,96
730,84	1296,36
731,02	1239,02
731,20	1255,40
731,38	1269,74
731,56	1355,76
731,74	1288,17
731,93	1294,32
732,11	1259,50
732,29	1239,02
732,47	1232,88
732,65	1275,88
732,83	1228,78
733,01	1308,65
733,19	1208,30
733,37	1282,03
733,56	1220,59
733,74	1243,12
733,92	1253,36
734,10	1222,64
734,28	1273,84
734,46	1218,54
734,64	1275,88
734,82	1185,77
735,00	1286,12
735,18	1255,40
735,36	1325,04
735,54	1204,21
735,73	1249,26
735,91	1247,21
736,09	1308,65
736,27	1261,55
736,45	1257,45
736,63	1236,97
736,81	1234,93
736,99	1226,73
737,17	1275,88
737,35	1329,13
737,53	1337,32
737,71	1273,84
737,89	1271,79
738,07	1329,13
738,25	1355,76
738,43	1296,36
738,61	1224,69
738,80	1251,31
738,98	1314,80
739,16	1261,55
739,34	1325,04
739,52	1259,50
739,70	1300,46
739,88	1251,31
740,06	1275,88
740,24	1222,64
740,42	1191,92
740,60	1222,64
740,78	1193,97
740,96	1275,88
741,14	1214,45
741,32	1310,70
741,50	1288,17
741,68	1302,51
741,86	1257,45
742,04	1296,36
742,22	1271,79
742,40	1273,84
742,58	1193,97
742,76	1228,78
742,94	1306,60
743,12	1230,83
743,30	1257,45
743,48	1222,64
743,66	1247,21
743,84	1265,64
744,02	1198,06
744,20	1308,65
744,38	1220,59
744,56	1288,17
744,74	1286,12
744,92	1204,21
745,10	1202,16
745,28	1265,64
745,46	1220,59
745,64	1228,78
745,82	1232,88
746,00	1269,74
746,18	1234,93
746,36	1269,74
746,54	1261,55
746,72	1245,16
746,90	1249,26
747,08	1294,32
747,26	1298,41
747,44	1243,12
747,62	1198,06
747,80	1265,64
747,98	1286,12
748,15	1277,93
748,33	1265,64
748,51	1306,60
748,69	1265,64
748,87	1232,88
749,05	1247,21
749,23	1282,03
749,41	1288,17
749,59	1206,25
749,77	1300,46
749,95	1288,17
750,13	1318,89
750,31	1279,98
750,49	1230,83
750,67	1245,16
750,85	1310,70
751,03	1292,27
751,20	1322,99
751,38	1230,83
751,56	1312,75
751,74	1277,93
751,92	1234,93
752,10	1265,64
752,28	1257,45
752,46	1312,75
752,64	1232,88
752,82	1212,40
753,00	1298,41
753,18	1331,18
753,35	1228,78
753,53	1193,97
753,71	1253,36
753,89	1241,07
754,07	1255,40
754,25	1228,78
754,43	1249,26
754,61	1286,12
754,79	1273,84
754,97	1249,26
755,14	1318,89
755,32	1259,50
755,50	1331,18
755,68	1234,93
755,86	1234,93
756,04	1257,45
756,22	1245,16
756,40	1329,13
756,57	1277,93
756,75	1306,60
756,93	1359,85
757,11	1255,40
757,29	1304,56
757,47	1183,73
757,65	1306,60
757,82	1333,23
758,00	1294,32
758,18	1212,40
758,36	1265,64
758,54	1275,88
758,72	1286,12
758,90	1286,12
759,07	1218,54
759,25	1298,41
759,43	1298,41
759,61	1253,36
759,79	1318,89
759,97	1261,55
760,15	1265,64
760,32	1294,32
760,50	1318,89
760,68	1218,54
760,86	1282,03
761,04	1331,18
761,22	1218,54
761,39	1302,51
761,57	1267,69
761,75	1220,59
761,93	1349,61
762,11	1255,40
762,28	1279,98
762,46	1282,03
762,64	1306,60
762,82	1267,69
763,00	1236,97
763,18	1208,30
763,35	1212,40
763,53	1304,56
763,71	1290,22
763,89	1271,79
764,07	1265,64
764,24	1253,36
764,42	1245,16
764,60	1296,36
764,78	1247,21
764,96	1275,88
765,13	1298,41
765,31	1263,60
765,49	1247,21
765,67	1208,30
765,84	1249,26
766,02	1259,50
766,20	1218,54
766,38	1279,98
766,56	1290,22
766,73	1234,93
766,91	1234,93
767,09	1275,88
767,27	1265,64
767,44	1224,69
767,62	1282,03
767,80	1232,88
767,98	1290,22
768,15	1320,94
768,33	1243,12
768,51	1247,21
768,69	1251,31
768,87	1347,56
769,04	1255,40
769,22	1282,03
769,40	1345,52
769,58	1273,84
769,75	1222,64
769,93	1310,70
770,11	1288,17
770,28	1234,93
770,46	1275,88
770,64	1245,16
770,82	1257,45
770,99	1210,35
771,17	1286,12
771,35	1282,03
771,53	1251,31
771,70	1243,12
771,88	1249,26
772,06	1290,22
772,23	1271,79
772,41	1261,55
772,59	1157,10
772,77	1263,60
772,94	1255,40
773,12	1236,97
773,30	1251,31
773,47	1294,32
773,65	1269,74
773,83	1267,69
774,01	1249,26
774,18	1208,30
774,36	1247,21
774,54	1282,03
774,71	1212,40
774,89	1224,69
775,07	1234,93
775,24	1173,49
775,42	1226,73
775,60	1279,98
775,78	1261,55
775,95	1296,36
776,13	1241,07
776,31	1269,74
776,48	1275,88
776,66	1282,03
776,84	1220,59
777,01	1300,46
777,19	1269,74
777,37	1306,60
777,54	1284,08
777,72	1279,98
777,90	1255,40
778,07	1269,74
778,25	1257,45
778,43	1277,93
778,60	1226,73
778,78	1243,12
778,96	1286,12
779,13	1253,36
779,31	1261,55
779,49	1261,55
779,66	1329,13
779,84	1269,74
780,01	1255,40
780,19	1249,26
780,37	1257,45
780,54	1204,21
780,72	1177,58
780,90	1230,83
781,07	1257,45
781,25	1298,41
781,43	1243,12
781,60	1253,36
781,78	1245,16
781,95	1282,03
782,13	1196,01
782,31	1247,21
782,48	1239,02
782,66	1239,02
782,83	1251,31
783,01	1329,13
783,19	1198,06
783,36	1300,46
783,54	1239,02
783,72	1257,45
783,89	1228,78
784,07	1155,05
784,24	1271,79
784,42	1253,36
784,60	1282,03
784,77	1230,83
784,95	1185,77
785,12	1357,80
785,30	1282,03
785,47	1275,88
785,65	1253,36
785,83	1230,83
786,00	1226,73
786,18	1271,79
786,35	1245,16
786,53	1267,69
786,71	1304,56
786,88	1294,32
787,06	1232,88
787,23	1306,60
787,41	1218,54
787,58	1245,16
787,76	1220,59
787,94	1320,94
788,11	1261,55
788,29	1337,32
788,46	1245,16
788,64	1259,50
788,81	1310,70
788,99	1267,69
789,16	1294,32
789,34	1271,79
789,52	1269,74
789,69	1228,78
789,87	1212,40
790,04	1214,45
790,22	1232,88
790,39	1243,12
790,57	1257,45
790,74	1271,79
790,92	1275,88
791,09	1318,89
791,27	1200,11
791,44	1189,87
791,62	1306,60
791,79	1206,25
791,97	1279,98
792,15	1263,60
792,32	1335,28
792,50	1251,31
792,67	1273,84
792,85	1347,56
793,02	1298,41
793,20	1228,78
793,37	1228,78
793,55	1298,41
793,72	1269,74
793,90	1193,97
794,07	1296,36
794,25	1261,55
794,42	1251,31
794,60	1282,03
794,77	1255,40
794,95	1333,23
795,12	1337,32
795,30	1292,27
795,47	1269,74
795,65	1286,12
795,82	1327,08
796,00	1290,22
796,17	1200,11
796,34	1239,02
796,52	1218,54
796,69	1230,83
796,87	1298,41
797,04	1327,08
797,22	1236,97
797,39	1282,03
797,57	1275,88
797,74	1263,60
797,92	1269,74
798,09	1224,69
798,27	1234,93
798,44	1265,64
798,62	1249,26
798,79	1277,93
798,96	1261,55
799,14	1249,26
799,31	1337,32
799,49	1279,98
799,66	1245,16
799,84	1253,36
800,01	1257,45
800,19	1284,08
800,36	1253,36
800,53	1288,17
800,71	1318,89
800,88	1318,89
801,06	1220,59
801,23	1329,13
801,41	1239,02
801,58	1255,40
801,75	1263,60
801,93	1329,13
802,10	1232,88
802,28	1230,83
802,45	1267,69
802,63	1271,79
802,80	1232,88
802,97	1220,59
803,15	1193,97
803,32	1232,88
803,50	1226,73
803,67	1271,79
803,84	1210,35
804,02	1241,07
804,19	1245,16
804,37	1226,73
804,54	1144,81
804,71	1269,74
804,89	1306,60
805,06	1271,79
805,24	1236,97
805,41	1288,17
805,58	1253,36
805,76	1288,17
805,93	1220,59
806,10	1282,03
806,28	1271,79
806,45	1257,45
806,63	1259,50
806,80	1286,12
806,97	1241,07
807,15	1259,50
807,32	1273,84
807,49	1318,89
807,67	1228,78
807,84	1234,93
808,01	1322,99
808,19	1288,17
808,36	1267,69
808,54	1329,13
808,71	1359,85
808,88	1325,04
809,06	1236,97
809,23	1257,45
809,40	1279,98
809,58	1243,12
809,75	1232,88
809,92	1261,55
810,10	1288,17
810,27	1339,37
810,44	1271,79
810,62	1245,16
810,79	1292,27
810,96	1265,64
811,14	1236,97
811,31	1222,64
811,48	1236,97
811,66	1277,93
811,83	1220,59
812,00	1327,08
812,18	1243,12
812,35	1218,54
812,52	1204,21
812,69	1257,45
812,87	1224,69
813,04	1312,75
813,21	1284,08
813,39	1279,98
813,56	1222,64
813,73	1273,84
813,91	1255,40
814,08	1288,17
814,25	1269,74
814,42	1279,98
814,60	1255,40
814,77	1306,60
814,94	1247,21
815,12	1247,21
815,29	1202,16
815,46	1284,08
815,63	1228,78
815,81	1263,60
815,98	1284,08
816,15	1241,07
816,33	1245,16
816,50	1236,97
816,67	1318,89
816,84	1288,17
817,02	1210,35
817,19	1243,12
817,36	1220,59
817,53	1302,51
817,71	1273,84
817,88	1271,79
818,05	1230,83
818,22	1265,64
818,40	1302,51
818,57	1198,06
818,74	1196,01
818,91	1284,08
819,09	1208,30
819,26	1282,03
819,43	1271,79
819,60	1251,31
819,78	1232,88
819,95	1261,55
820,12	1318,89
820,29	1284,08
820,47	1253,36
820,64	1265,64
820,81	1267,69
820,98	1288,17
821,15	1193,97
821,33	1243,12
821,50	1236,97
821,67	1290,22
821,84	1265,64
822,02	1331,18
822,19	1302,51
822,36	1366,00
822,53	1298,41
822,70	1300,46
822,88	1179,63
823,05	1208,30
823,22	1269,74
823,39	1300,46
823,56	1308,65
823,74	1300,46
823,91	1236,97
824,08	1277,93
824,25	1269,74
824,42	1267,69
824,60	1269,74
824,77	1245,16
824,94	1255,40
825,11	1241,07
825,28	1316,84
825,45	1282,03
825,63	1306,60
825,80	1306,60
825,97	1302,51
826,14	1275,88
826,31	1249,26
826,48	1228,78
826,66	1273,84
826,83	1314,80
827,00	1290,22
827,17	1263,60
827,34	1271,79
827,51	1249,26
827,69	1245,16
827,86	1265,64
828,03	1298,41
828,20	1318,89
828,37	1282,03
828,54	1302,51
828,71	1257,45
828,89	1234,93
829,06	1320,94
829,23	1341,42
829,40	1239,02
829,57	1269,74
829,74	1253,36
829,91	1230,83
830,09	1265,64
830,26	1331,18
830,43	1288,17
830,60	1292,27
830,77	1228,78
830,94	1271,79
831,11	1257,45
831,28	1302,51
831,46	1294,32
831,63	1273,84
831,80	1210,35
831,97	1239,02
832,14	1224,69
832,31	1302,51
832,48	1298,41
832,65	1202,16
832,82	1273,84
832,99	1290,22
833,17	1282,03
833,34	1241,07
833,51	1261,55
833,68	1247,21
833,85	1249,26
834,02	1259,50
834,19	1282,03
834,36	1255,40
834,53	1220,59
834,70	1232,88
834,87	1243,12
835,04	1196,01
835,22	1318,89
835,39	1277,93
835,56	1243,12
835,73	1239,02
835,90	1294,32
836,07	1292,27
836,24	1341,42
836,41	1320,94
836,58	1277,93
836,75	1265,64
836,92	1294,32
837,09	1288,17
837,26	1279,98
837,43	1220,59
837,60	1208,30
837,77	1275,88
837,94	1224,69
838,12	1253,36
838,29	1273,84
838,46	1247,21
838,63	1300,46
838,80	1277,93
838,97	1290,22
839,14	1259,50
839,31	1304,56
839,48	1265,64
839,65	1308,65
839,82	1236,97
839,99	1277,93
840,16	1353,71
840,33	1271,79
840,50	1241,07
840,67	1277,93
840,84	1241,07
841,01	1273,84
841,18	1259,50
841,35	1300,46
841,52	1263,60
841,69	1218,54
841,86	1247,21
842,03	1273,84
842,20	1310,70
842,37	1300,46
842,54	1253,36
842,71	1249,26
842,88	1257,45
843,05	1296,36
843,22	1218,54
843,39	1230,83
843,56	1345,52
843,73	1314,80
843,90	1273,84
844,07	1312,75
844,24	1300,46
844,41	1366,00
844,58	1208,30
844,75	1284,08
844,92	1277,93
845,09	1198,06
845,26	1265,64
845,43	1228,78
845,60	1245,16
845,77	1275,88
845,94	1318,89
846,10	1239,02
846,27	1257,45
846,44	1290,22
846,61	1271,79
846,78	1279,98
846,95	1298,41
847,12	1333,23
847,29	1232,88
847,46	1271,79
847,63	1241,07
847,80	1146,86
847,97	1259,50
848,14	1224,69
848,31	1232,88
848,48	1216,49
848,65	1247,21
848,82	1300,46
848,98	1286,12
849,15	1253,36
849,32	1302,51
849,49	1224,69
849,66	1298,41
849,83	1290,22
850,00	1259,50
850,17	1259,50
850,34	1306,60
850,51	1273,84
850,68	1320,94
850,85	1253,36
851,01	1189,87
851,18	1261,55
851,35	1263,60
851,52	1259,50
851,69	1277,93
851,86	1277,93
852,03	1222,64
852,20	1245,16
852,37	1200,11
852,53	1282,03
852,70	1220,59
852,87	1232,88
853,04	1288,17
853,21	1261,55
853,38	1306,60
853,55	1212,40
853,72	1255,40
853,89	1286,12
854,05	1339,37
854,22	1320,94
854,39	1312,75
854,56	1294,32
854,73	1245,16
854,90	1282,03
855,07	1171,44
855,23	1234,93
855,40	1327,08
855,57	1269,74
855,74	1304,56
855,91	1257,45
856,08	1294,32
856,25	1232,88
856,41	1335,28
856,58	1288,17
856,75	1234,93
856,92	1224,69
857,09	1198,06
857,26	1265,64
857,42	1361,90
857,59	1239,02
857,76	1255,40
857,93	1257,45
858,10	1290,22
858,27	1228,78
858,43	1249,26
858,60	1261,55
858,77	1226,73
858,94	1261,55
859,11	1257,45
859,27	1292,27
859,44	1304,56
859,61	1179,63
859,78	1234,93
859,95	1273,84
860,12	1271,79
860,28	1257,45
860,45	1282,03
860,62	1286,12
860,79	1265,64
860,95	1263,60
861,12	1255,40
861,29	1267,69
861,46	1245,16
861,63	1310,70
861,79	1294,32
861,96	1286,12
862,13	1222,64
862,30	1249,26
862,47	1263,60
862,63	1245,16
862,80	1271,79
862,97	1269,74
863,14	1320,94
863,30	1208,30
863,47	1259,50
863,64	1298,41
863,81	1243,12
863,97	1282,03
864,14	1239,02
864,31	1298,41
864,48	1277,93
864,65	1218,54
864,81	1288,17
864,98	1226,73
865,15	1263,60
865,32	1234,93
865,48	1282,03
865,65	1232,88
865,82	1290,22
865,98	1298,41
866,15	1255,40
866,32	1228,78
866,49	1277,93
866,65	1216,49
866,82	1216,49
866,99	1239,02
867,16	1243,12
867,32	1265,64
867,49	1320,94
867,66	1243,12
867,83	1183,73
867,99	1279,98
868,16	1288,17
868,33	1288,17
868,49	1273,84
868,66	1245,16
868,83	1263,60
868,99	1310,70
869,16	1271,79
869,33	1251,31
869,50	1345,52
869,66	1269,74
869,83	1263,60
870,00	1355,76
870,16	1259,50
870,33	1239,02
870,50	1218,54
870,66	1284,08
870,83	1249,26
871,00	1247,21
871,17	1304,56
871,33	1273,84
871,50	1232,88
871,67	1185,77
871,83	1239,02
872,00	1232,88
872,17	1204,21
872,33	1357,80
872,50	1206,25
872,67	1249,26
872,83	1259,50
873,00	1279,98
873,17	1296,36
873,33	1300,46
873,50	1208,30
873,67	1243,12
873,83	1292,27
874,00	1316,84
874,16	1271,79
874,33	1239,02
874,50	1314,80
874,66	1255,40
874,83	1284,08
875,00	1331,18
875,16	1333,23
875,33	1212,40
875,50	1239,02
875,66	1279,98
875,83	1292,27
875,99	1265,64
876,16	1353,71
876,33	1218,54
876,49	1206,25
876,66	1269,74
876,83	1259,50
876,99	1296,36
877,16	1271,79
877,32	1304,56
877,49	1290,22
877,66	1216,49
877,82	1316,84
877,99	1279,98
878,15	1290,22
878,32	1228,78
878,49	1232,88
878,65	1179,63
878,82	1265,64
878,98	1300,46
879,15	1300,46
879,32	1290,22
879,48	1247,21
879,65	1308,65
879,81	1218,54
879,98	1304,56
880,15	1314,80
880,31	1345,52
880,48	1277,93
880,64	1243,12
880,81	1230,83
880,97	1322,99
881,14	1308,65
881,31	1200,11
881,47	1294,32
881,64	1263,60
881,80	1263,60
881,97	1243,12
882,13	1296,36
882,30	1271,79
882,47	1243,12
882,63	1310,70
882,80	1306,60
882,96	1290,22
883,13	1206,25
883,29	1273,84
883,46	1243,12
883,62	1284,08
883,79	1216,49
883,95	1302,51
884,12	1273,84
884,29	1239,02
884,45	1279,98
884,62	1198,06
884,78	1282,03
884,95	1277,93
885,11	1279,98
885,28	1239,02
885,44	1216,49
885,61	1265,64
885,77	1261,55
885,94	1288,17
886,10	1263,60
886,27	1286,12
886,43	1265,64
886,60	1288,17
886,76	1304,56
886,93	1232,88
887,09	1298,41
887,26	1224,69
887,42	1290,22
887,59	1370,09
887,75	1292,27
887,92	1341,42
888,08	1298,41
888,25	1279,98
888,41	1259,50
888,58	1275,88
888,74	1310,70
888,91	1243,12
>>>>>End Processed Spectral Data<<<<<
