SpectraSuite Data File
++++++++++++++++++++++++++++++++++++
Date: Sun Apr 03 18:13:04 CEST 2016
User: root
Dark Spectrum Present: No
Reference Spectrum Present: No
Number of Sampled Component Spectra: 1
Spectrometers: USB4C02835
Integration Time (usec): 10000 (USB4C02835)
Spectra Averaged: 1 (USB4C02835)
Boxcar Smoothing: 0 (USB4C02835)
Correct for Electrical Dark: No (USB4C02835)
Strobe/Lamp Enabled: No (USB4C02835)
Correct for Detector Non-linearity: No (USB4C02835)
Correct for Stray Light: No (USB4C02835)
Number of Pixels in Processed Spectrum: 3648
>>>>>Begin Processed Spectral Data<<<<<
177,47	1263,60
177,69	1263,60
177,91	1263,60
178,13	1216,49
178,36	1259,50
178,58	1243,12
178,80	1218,54
179,02	1255,40
179,24	1210,35
179,46	1245,16
179,68	1230,83
179,90	1234,93
180,13	1282,03
180,35	1257,45
180,57	1279,98
180,79	1243,12
181,01	1241,07
181,23	1277,93
181,45	1318,89
181,67	1247,21
181,90	1310,70
182,12	1300,46
182,34	1241,07
182,56	1302,51
182,78	1239,02
183,00	1251,31
183,22	1316,84
183,44	1257,45
183,66	1206,25
183,89	1210,35
184,11	1302,51
184,33	1261,55
184,55	1296,36
184,77	1236,97
184,99	1351,66
185,21	1339,37
185,43	1247,21
185,65	1241,07
185,87	1265,64
186,10	1257,45
186,32	1320,94
186,54	1302,51
186,76	1269,74
186,98	1300,46
187,20	1312,75
187,42	1191,92
187,64	1253,36
187,86	1234,93
188,08	1243,12
188,30	1261,55
188,52	1312,75
188,75	1236,97
188,97	1241,07
189,19	1245,16
189,41	1304,56
189,63	1312,75
189,85	1251,31
190,07	1216,49
190,29	1183,73
190,51	1247,21
190,73	1314,80
190,95	1269,74
191,17	1257,45
191,39	1255,40
191,61	1263,60
191,84	1269,74
192,06	1308,65
192,28	1279,98
192,50	1294,32
192,72	1200,11
192,94	1245,16
193,16	1253,36
193,38	1296,36
193,60	1263,60
193,82	1275,88
194,04	1298,41
194,26	1269,74
194,48	1216,49
194,70	1259,50
194,92	1267,69
195,14	1255,40
195,36	1290,22
195,58	1214,45
195,80	1279,98
196,02	1282,03
196,24	1277,93
196,46	1239,02
196,69	1253,36
196,91	1310,70
197,13	1271,79
197,35	1230,83
197,57	1251,31
197,79	1232,88
198,01	1267,69
198,23	1247,21
198,45	1236,97
198,67	1277,93
198,89	1232,88
199,11	1265,64
199,33	1247,21
199,55	1294,32
199,77	1136,62
199,99	1273,84
200,21	1255,40
200,43	1226,73
200,65	1208,30
200,87	1273,84
201,09	1212,40
201,31	1265,64
201,53	1286,12
201,75	1245,16
201,97	1284,08
202,19	1249,26
202,41	1269,74
202,63	1290,22
202,85	1220,59
203,07	1269,74
203,29	1255,40
203,51	1253,36
203,73	1267,69
203,95	1228,78
204,17	1263,60
204,39	1286,12
204,61	1234,93
204,83	1251,31
205,05	1236,97
205,27	1214,45
205,49	1259,50
205,71	1296,36
205,93	1251,31
206,15	1232,88
206,37	1247,21
206,59	1259,50
206,81	1337,32
207,03	1214,45
207,25	1277,93
207,47	1277,93
207,69	1275,88
207,91	1345,52
208,13	1259,50
208,34	1271,79
208,56	1290,22
208,78	1273,84
209,00	1298,41
209,22	1259,50
209,44	1241,07
209,66	1265,64
209,88	1236,97
210,10	1249,26
210,32	1286,12
210,54	1304,56
210,76	1290,22
210,98	1273,84
211,20	1247,21
211,42	1284,08
211,64	1245,16
211,86	1245,16
212,08	1331,18
212,30	1265,64
212,52	1294,32
212,74	1263,60
212,96	1230,83
213,17	1208,30
213,39	1236,97
213,61	1310,70
213,83	1271,79
214,05	1300,46
214,27	1282,03
214,49	1230,83
214,71	1286,12
214,93	1304,56
215,15	1261,55
215,37	1329,13
215,59	1277,93
215,81	1210,35
216,03	1298,41
216,24	1232,88
216,46	1284,08
216,68	1345,52
216,90	1284,08
217,12	1320,94
217,34	1300,46
217,56	1282,03
217,78	1255,40
218,00	1234,93
218,22	1329,13
218,44	1296,36
218,66	1300,46
218,87	1279,98
219,09	1228,78
219,31	1302,51
219,53	1327,08
219,75	1200,11
219,97	1247,21
220,19	1234,93
220,41	1271,79
220,63	1282,03
220,85	1267,69
221,06	1175,53
221,28	1257,45
221,50	1261,55
221,72	1212,40
221,94	1249,26
222,16	1193,97
222,38	1226,73
222,60	1294,32
222,82	1214,45
223,03	1210,35
223,25	1286,12
223,47	1257,45
223,69	1255,40
223,91	1304,56
224,13	1286,12
224,35	1318,89
224,57	1357,80
224,78	1230,83
225,00	1271,79
225,22	1265,64
225,44	1249,26
225,66	1298,41
225,88	1245,16
226,10	1245,16
226,32	1279,98
226,53	1312,75
226,75	1263,60
226,97	1200,11
227,19	1243,12
227,41	1247,21
227,63	1259,50
227,85	1282,03
228,06	1296,36
228,28	1366,00
228,50	1288,17
228,72	1153,01
228,94	1318,89
229,16	1255,40
229,37	1232,88
229,59	1288,17
229,81	1355,76
230,03	1273,84
230,25	1255,40
230,47	1290,22
230,69	1286,12
230,90	1298,41
231,12	1292,27
231,34	1234,93
231,56	1230,83
231,78	1286,12
232,00	1241,07
232,21	1255,40
232,43	1269,74
232,65	1214,45
232,87	1206,25
233,09	1296,36
233,30	1284,08
233,52	1267,69
233,74	1255,40
233,96	1261,55
234,18	1206,25
234,40	1294,32
234,61	1208,30
234,83	1239,02
235,05	1292,27
235,27	1222,64
235,49	1253,36
235,70	1257,45
235,92	1218,54
236,14	1257,45
236,36	1259,50
236,58	1261,55
236,79	1271,79
237,01	1261,55
237,23	1320,94
237,45	1200,11
237,67	1232,88
237,88	1304,56
238,10	1275,88
238,32	1241,07
238,54	1267,69
238,76	1255,40
238,97	1284,08
239,19	1265,64
239,41	1304,56
239,63	1232,88
239,85	1230,83
240,06	1263,60
240,28	1273,84
240,50	1286,12
240,72	1259,50
240,93	1191,92
241,15	1259,50
241,37	1175,53
241,59	1306,60
241,81	1286,12
242,02	1251,31
242,24	1267,69
242,46	1314,80
242,68	1269,74
242,89	1294,32
243,11	1288,17
243,33	1183,73
243,55	1277,93
243,76	1208,30
243,98	1243,12
244,20	1327,08
244,42	1265,64
244,64	1312,75
244,85	1333,23
245,07	1271,79
245,29	1257,45
245,51	1298,41
245,72	1263,60
245,94	1220,59
246,16	1284,08
246,38	1302,51
246,59	1304,56
246,81	1306,60
247,03	1245,16
247,24	1189,87
247,46	1273,84
247,68	1271,79
247,90	1288,17
248,11	1286,12
248,33	1234,93
248,55	1308,65
248,77	1320,94
248,98	1357,80
249,20	1300,46
249,42	1306,60
249,64	1290,22
249,85	1257,45
250,07	1273,84
250,29	1329,13
250,50	1267,69
250,72	1282,03
250,94	1339,37
251,16	1318,89
251,37	1304,56
251,59	1239,02
251,81	1247,21
252,02	1325,04
252,24	1269,74
252,46	1257,45
252,68	1286,12
252,89	1288,17
253,11	1339,37
253,33	1298,41
253,54	1214,45
253,76	1253,36
253,98	1308,65
254,20	1277,93
254,41	1222,64
254,63	1282,03
254,85	1232,88
255,06	1271,79
255,28	1286,12
255,50	1279,98
255,71	1222,64
255,93	1251,31
256,15	1257,45
256,36	1271,79
256,58	1230,83
256,80	1306,60
257,02	1253,36
257,23	1304,56
257,45	1257,45
257,67	1257,45
257,88	1196,01
258,10	1306,60
258,32	1224,69
258,53	1288,17
258,75	1318,89
258,97	1222,64
259,18	1183,73
259,40	1206,25
259,62	1333,23
259,83	1241,07
260,05	1282,03
260,27	1333,23
260,48	1310,70
260,70	1275,88
260,92	1230,83
261,13	1284,08
261,35	1259,50
261,57	1286,12
261,78	1279,98
262,00	1247,21
262,22	1320,94
262,43	1234,93
262,65	1230,83
262,86	1206,25
263,08	1261,55
263,30	1286,12
263,51	1230,83
263,73	1253,36
263,95	1226,73
264,16	1228,78
264,38	1210,35
264,60	1284,08
264,81	1243,12
265,03	1243,12
265,25	1300,46
265,46	1269,74
265,68	1208,30
265,89	1271,79
266,11	1261,55
266,33	1251,31
266,54	1271,79
266,76	1310,70
266,98	1304,56
267,19	1318,89
267,41	1236,97
267,62	1212,40
267,84	1292,27
268,06	1269,74
268,27	1286,12
268,49	1212,40
268,70	1208,30
268,92	1239,02
269,14	1232,88
269,35	1279,98
269,57	1302,51
269,79	1282,03
270,00	1259,50
270,22	1261,55
270,43	1220,59
270,65	1284,08
270,87	1343,47
271,08	1296,36
271,30	1286,12
271,51	1228,78
271,73	1249,26
271,95	1284,08
272,16	1245,16
272,38	1253,36
272,59	1273,84
272,81	1222,64
273,02	1239,02
273,24	1236,97
273,46	1259,50
273,67	1275,88
273,89	1284,08
274,10	1181,68
274,32	1259,50
274,54	1257,45
274,75	1222,64
274,97	1306,60
275,18	1292,27
275,40	1298,41
275,61	1241,07
275,83	1222,64
276,05	1312,75
276,26	1247,21
276,48	1290,22
276,69	1279,98
276,91	1245,16
277,12	1339,37
277,34	1228,78
277,55	1277,93
277,77	1236,97
277,99	1241,07
278,20	1241,07
278,42	1230,83
278,63	1214,45
278,85	1214,45
279,06	1241,07
279,28	1286,12
279,49	1277,93
279,71	1304,56
279,93	1306,60
280,14	1271,79
280,36	1269,74
280,57	1261,55
280,79	1198,06
281,00	1308,65
281,22	1296,36
281,43	1220,59
281,65	1241,07
281,86	1249,26
282,08	1279,98
282,29	1271,79
282,51	1200,11
282,73	1284,08
282,94	1216,49
283,16	1304,56
283,37	1333,23
283,59	1306,60
283,80	1300,46
284,02	1273,84
284,23	1279,98
284,45	1245,16
284,66	1275,88
284,88	1193,97
285,09	1226,73
285,31	1230,83
285,52	1286,12
285,74	1296,36
285,95	1310,70
286,17	1241,07
286,38	1251,31
286,60	1282,03
286,81	1310,70
287,03	1271,79
287,24	1269,74
287,46	1251,31
287,67	1253,36
287,89	1286,12
288,10	1243,12
288,32	1322,99
288,53	1273,84
288,75	1294,32
288,96	1316,84
289,18	1347,56
289,39	1351,66
289,61	1236,97
289,82	1265,64
290,04	1267,69
290,25	1308,65
290,47	1294,32
290,68	1230,83
290,90	1290,22
291,11	1218,54
291,33	1216,49
291,54	1241,07
291,76	1322,99
291,97	1198,06
292,18	1294,32
292,40	1243,12
292,61	1284,08
292,83	1308,65
293,04	1288,17
293,26	1282,03
293,47	1277,93
293,69	1273,84
293,90	1308,65
294,12	1226,73
294,33	1284,08
294,55	1230,83
294,76	1214,45
294,97	1316,84
295,19	1241,07
295,40	1290,22
295,62	1257,45
295,83	1284,08
296,05	1224,69
296,26	1222,64
296,48	1279,98
296,69	1294,32
296,90	1228,78
297,12	1224,69
297,33	1232,88
297,55	1316,84
297,76	1314,80
297,98	1241,07
298,19	1255,40
298,41	1220,59
298,62	1273,84
298,83	1239,02
299,05	1255,40
299,26	1257,45
299,48	1218,54
299,69	1271,79
299,90	1267,69
300,12	1234,93
300,33	1243,12
300,55	1318,89
300,76	1288,17
300,98	1222,64
301,19	1230,83
301,40	1243,12
301,62	1304,56
301,83	1294,32
302,05	1257,45
302,26	1304,56
302,47	1310,70
302,69	1288,17
302,90	1251,31
303,12	1236,97
303,33	1232,88
303,54	1282,03
303,76	1318,89
303,97	1261,55
304,19	1236,97
304,40	1255,40
304,61	1298,41
304,83	1273,84
305,04	1279,98
305,26	1261,55
305,47	1222,64
305,68	1230,83
305,90	1206,25
306,11	1273,84
306,33	1316,84
306,54	1284,08
306,75	1261,55
306,97	1267,69
307,18	1236,97
307,39	1282,03
307,61	1265,64
307,82	1261,55
308,04	1290,22
308,25	1239,02
308,46	1232,88
308,68	1218,54
308,89	1320,94
309,10	1239,02
309,32	1222,64
309,53	1300,46
309,74	1273,84
309,96	1265,64
310,17	1245,16
310,39	1329,13
310,60	1257,45
310,81	1290,22
311,03	1241,07
311,24	1249,26
311,45	1232,88
311,67	1257,45
311,88	1392,62
312,09	1269,74
312,31	1234,93
312,52	1271,79
312,73	1249,26
312,95	1279,98
313,16	1247,21
313,37	1257,45
313,59	1247,21
313,80	1216,49
314,01	1226,73
314,23	1265,64
314,44	1302,51
314,65	1232,88
314,87	1228,78
315,08	1239,02
315,29	1241,07
315,51	1222,64
315,72	1331,18
315,93	1224,69
316,15	1349,61
316,36	1255,40
316,57	1263,60
316,79	1292,27
317,00	1220,59
317,21	1273,84
317,43	1140,72
317,64	1245,16
317,85	1302,51
318,07	1294,32
318,28	1294,32
318,49	1284,08
318,70	1320,94
318,92	1234,93
319,13	1236,97
319,34	1294,32
319,56	1320,94
319,77	1257,45
319,98	1296,36
320,20	1210,35
320,41	1241,07
320,62	1175,53
320,83	1196,01
321,05	1251,31
321,26	1265,64
321,47	1253,36
321,69	1288,17
321,90	1331,18
322,11	1294,32
322,32	1169,39
322,54	1273,84
322,75	1277,93
322,96	1277,93
323,18	1277,93
323,39	1243,12
323,60	1179,63
323,81	1234,93
324,03	1271,79
324,24	1300,46
324,45	1275,88
324,66	1210,35
324,88	1253,36
325,09	1282,03
325,30	1181,68
325,52	1222,64
325,73	1282,03
325,94	1200,11
326,15	1277,93
326,37	1298,41
326,58	1275,88
326,79	1200,11
327,00	1296,36
327,22	1249,26
327,43	1304,56
327,64	1216,49
327,85	1314,80
328,07	1322,99
328,28	1322,99
328,49	1247,21
328,70	1236,97
328,92	1292,27
329,13	1257,45
329,34	1331,18
329,55	1320,94
329,76	1253,36
329,98	1241,07
330,19	1277,93
330,40	1279,98
330,61	1284,08
330,83	1191,92
331,04	1249,26
331,25	1230,83
331,46	1306,60
331,68	1368,04
331,89	1275,88
332,10	1167,34
332,31	1255,40
332,52	1243,12
332,74	1241,07
332,95	1236,97
333,16	1282,03
333,37	1243,12
333,58	1191,92
333,80	1212,40
334,01	1198,06
334,22	1310,70
334,43	1277,93
334,64	1282,03
334,86	1232,88
335,07	1286,12
335,28	1335,28
335,49	1261,55
335,70	1294,32
335,92	1241,07
336,13	1292,27
336,34	1253,36
336,55	1277,93
336,76	1243,12
336,98	1275,88
337,19	1269,74
337,40	1277,93
337,61	1243,12
337,82	1275,88
338,04	1304,56
338,25	1245,16
338,46	1261,55
338,67	1282,03
338,88	1245,16
339,09	1298,41
339,31	1292,27
339,52	1234,93
339,73	1249,26
339,94	1265,64
340,15	1288,17
340,36	1239,02
340,58	1273,84
340,79	1290,22
341,00	1159,15
341,21	1265,64
341,42	1312,75
341,63	1271,79
341,85	1298,41
342,06	1345,52
342,27	1292,27
342,48	1314,80
342,69	1327,08
342,90	1290,22
343,12	1288,17
343,33	1241,07
343,54	1286,12
343,75	1253,36
343,96	1218,54
344,17	1308,65
344,38	1239,02
344,60	1261,55
344,81	1206,25
345,02	1314,80
345,23	1277,93
345,44	1271,79
345,65	1296,36
345,86	1230,83
346,07	1267,69
346,29	1265,64
346,50	1228,78
346,71	1247,21
346,92	1277,93
347,13	1273,84
347,34	1288,17
347,55	1269,74
347,76	1204,21
347,98	1327,08
348,19	1247,21
348,40	1263,60
348,61	1345,52
348,82	1294,32
349,03	1306,60
349,24	1302,51
349,45	1210,35
349,66	1298,41
349,88	1210,35
350,09	1318,89
350,30	1251,31
350,51	1339,37
350,72	1290,22
350,93	1361,90
351,14	1290,22
351,35	1322,99
351,56	1273,84
351,77	1329,13
351,99	1253,36
352,20	1306,60
352,41	1284,08
352,62	1343,47
352,83	1261,55
353,04	1257,45
353,25	1306,60
353,46	1267,69
353,67	1255,40
353,88	1214,45
354,09	1298,41
354,30	1265,64
354,52	1177,58
354,73	1304,56
354,94	1286,12
355,15	1253,36
355,36	1292,27
355,57	1245,16
355,78	1288,17
355,99	1298,41
356,20	1212,40
356,41	1273,84
356,62	1245,16
356,83	1265,64
357,04	1269,74
357,25	1265,64
357,46	1243,12
357,68	1241,07
357,89	1333,23
358,10	1241,07
358,31	1206,25
358,52	1279,98
358,73	1185,77
358,94	1288,17
359,15	1175,53
359,36	1292,27
359,57	1255,40
359,78	1279,98
359,99	1304,56
360,20	1310,70
360,41	1384,43
360,62	1279,98
360,83	1370,09
361,04	1361,90
361,25	1253,36
361,46	1306,60
361,67	1253,36
361,88	1165,29
362,09	1230,83
362,30	1224,69
362,51	1275,88
362,72	1241,07
362,93	1226,73
363,14	1277,93
363,35	1212,40
363,56	1181,68
363,78	1216,49
363,99	1284,08
364,20	1267,69
364,41	1196,01
364,62	1247,21
364,83	1263,60
365,04	1239,02
365,25	1277,93
365,46	1310,70
365,67	1230,83
365,88	1286,12
366,09	1249,26
366,30	1247,21
366,51	1277,93
366,72	1312,75
366,93	1308,65
367,14	1265,64
367,35	1232,88
367,56	1275,88
367,77	1312,75
367,98	1306,60
368,18	1259,50
368,39	1228,78
368,60	1294,32
368,81	1288,17
369,02	1249,26
369,23	1279,98
369,44	1189,87
369,65	1322,99
369,86	1230,83
370,07	1247,21
370,28	1255,40
370,49	1275,88
370,70	1243,12
370,91	1236,97
371,12	1265,64
371,33	1339,37
371,54	1327,08
371,75	1265,64
371,96	1241,07
372,17	1239,02
372,38	1265,64
372,59	1294,32
372,80	1284,08
373,01	1232,88
373,22	1265,64
373,43	1279,98
373,64	1245,16
373,85	1279,98
374,06	1363,95
374,26	1320,94
374,47	1269,74
374,68	1296,36
374,89	1345,52
375,10	1288,17
375,31	1275,88
375,52	1308,65
375,73	1232,88
375,94	1253,36
376,15	1214,45
376,36	1204,21
376,57	1228,78
376,78	1179,63
376,99	1243,12
377,20	1191,92
377,40	1179,63
377,61	1265,64
377,82	1261,55
378,03	1245,16
378,24	1200,11
378,45	1337,32
378,66	1273,84
378,87	1241,07
379,08	1298,41
379,29	1275,88
379,50	1271,79
379,71	1322,99
379,91	1329,13
380,12	1257,45
380,33	1218,54
380,54	1243,12
380,75	1161,20
380,96	1193,97
381,17	1220,59
381,38	1228,78
381,59	1292,27
381,80	1288,17
382,00	1380,33
382,21	1269,74
382,42	1290,22
382,63	1259,50
382,84	1239,02
383,05	1259,50
383,26	1245,16
383,47	1271,79
383,68	1259,50
383,88	1247,21
384,09	1181,68
384,30	1232,88
384,51	1306,60
384,72	1296,36
384,93	1245,16
385,14	1251,31
385,35	1263,60
385,55	1222,64
385,76	1288,17
385,97	1273,84
386,18	1230,83
386,39	1265,64
386,60	1298,41
386,81	1310,70
387,02	1185,77
387,22	1249,26
387,43	1312,75
387,64	1263,60
387,85	1206,25
388,06	1296,36
388,27	1216,49
388,48	1243,12
388,68	1341,42
388,89	1236,97
389,10	1259,50
389,31	1179,63
389,52	1312,75
389,73	1273,84
389,93	1345,52
390,14	1273,84
390,35	1296,36
390,56	1271,79
390,77	1236,97
390,98	1279,98
391,18	1200,11
391,39	1279,98
391,60	1310,70
391,81	1298,41
392,02	1255,40
392,23	1275,88
392,43	1282,03
392,64	1226,73
392,85	1200,11
393,06	1343,47
393,27	1277,93
393,47	1239,02
393,68	1269,74
393,89	1204,21
394,10	1298,41
394,31	1214,45
394,52	1255,40
394,72	1241,07
394,93	1294,32
395,14	1245,16
395,35	1296,36
395,56	1163,25
395,76	1273,84
395,97	1329,13
396,18	1298,41
396,39	1200,11
396,60	1290,22
396,80	1253,36
397,01	1271,79
397,22	1241,07
397,43	1206,25
397,64	1185,77
397,84	1241,07
398,05	1216,49
398,26	1202,16
398,47	1253,36
398,67	1296,36
398,88	1230,83
399,09	1255,40
399,30	1279,98
399,51	1290,22
399,71	1226,73
399,92	1327,08
400,13	1251,31
400,34	1294,32
400,54	1277,93
400,75	1290,22
400,96	1306,60
401,17	1251,31
401,37	1290,22
401,58	1210,35
401,79	1288,17
402,00	1187,82
402,21	1316,84
402,41	1208,30
402,62	1257,45
402,83	1253,36
403,04	1302,51
403,24	1279,98
403,45	1247,21
403,66	1193,97
403,87	1322,99
404,07	1298,41
404,28	1310,70
404,49	1202,16
404,70	1277,93
404,90	1292,27
405,11	1277,93
405,32	1320,94
405,52	1298,41
405,73	1314,80
405,94	1259,50
406,15	1273,84
406,35	1253,36
406,56	1282,03
406,77	1249,26
406,98	1265,64
407,18	1318,89
407,39	1273,84
407,60	1193,97
407,80	1277,93
408,01	1253,36
408,22	1245,16
408,43	1216,49
408,63	1282,03
408,84	1302,51
409,05	1310,70
409,25	1269,74
409,46	1306,60
409,67	1249,26
409,88	1259,50
410,08	1304,56
410,29	1236,97
410,50	1286,12
410,70	1353,71
410,91	1279,98
411,12	1286,12
411,32	1282,03
411,53	1286,12
411,74	1243,12
411,95	1257,45
412,15	1206,25
412,36	1282,03
412,57	1298,41
412,77	1394,67
412,98	1245,16
413,19	1284,08
413,39	1327,08
413,60	1322,99
413,81	1249,26
414,01	1232,88
414,22	1300,46
414,43	1247,21
414,63	1279,98
414,84	1279,98
415,05	1230,83
415,25	1255,40
415,46	1300,46
415,67	1243,12
415,87	1298,41
416,08	1261,55
416,29	1220,59
416,49	1224,69
416,70	1220,59
416,91	1265,64
417,11	1261,55
417,32	1271,79
417,53	1187,82
417,73	1320,94
417,94	1247,21
418,15	1273,84
418,35	1239,02
418,56	1279,98
418,77	1236,97
418,97	1253,36
419,18	1318,89
419,38	1253,36
419,59	1232,88
419,80	1355,76
420,00	1212,40
420,21	1378,28
420,42	1271,79
420,62	1275,88
420,83	1241,07
421,04	1304,56
421,24	1216,49
421,45	1241,07
421,65	1257,45
421,86	1247,21
422,07	1257,45
422,27	1255,40
422,48	1269,74
422,69	1271,79
422,89	1245,16
423,10	1310,70
423,30	1277,93
423,51	1290,22
423,72	1282,03
423,92	1294,32
424,13	1302,51
424,33	1239,02
424,54	1259,50
424,75	1220,59
424,95	1210,35
425,16	1355,76
425,36	1294,32
425,57	1337,32
425,78	1308,65
425,98	1302,51
426,19	1208,30
426,39	1230,83
426,60	1193,97
426,81	1253,36
427,01	1363,95
427,22	1308,65
427,42	1282,03
427,63	1214,45
427,83	1196,01
428,04	1263,60
428,25	1247,21
428,45	1241,07
428,66	1263,60
428,86	1312,75
429,07	1265,64
429,28	1255,40
429,48	1191,92
429,69	1247,21
429,89	1329,13
430,10	1279,98
430,30	1347,56
430,51	1230,83
430,71	1255,40
430,92	1261,55
431,13	1277,93
431,33	1273,84
431,54	1222,64
431,74	1298,41
431,95	1310,70
432,15	1269,74
432,36	1333,23
432,56	1247,21
432,77	1318,89
432,98	1202,16
433,18	1269,74
433,39	1335,28
433,59	1241,07
433,80	1234,93
434,00	1314,80
434,21	1306,60
434,41	1279,98
434,62	1318,89
434,82	1306,60
435,03	1181,68
435,23	1290,22
435,44	1271,79
435,64	1218,54
435,85	1298,41
436,06	1218,54
436,26	1353,71
436,47	1341,42
436,67	1308,65
436,88	1257,45
437,08	1257,45
437,29	1249,26
437,49	1294,32
437,70	1234,93
437,90	1298,41
438,11	1345,52
438,31	1265,64
438,52	1269,74
438,72	1282,03
438,93	1310,70
439,13	1320,94
439,34	1255,40
439,54	1257,45
439,75	1261,55
439,95	1257,45
440,16	1241,07
440,36	1271,79
440,57	1212,40
440,77	1355,76
440,98	1261,55
441,18	1288,17
441,39	1302,51
441,59	1269,74
441,80	1230,83
442,00	1224,69
442,21	1263,60
442,41	1251,31
442,62	1267,69
442,82	1208,30
443,02	1331,18
443,23	1292,27
443,43	1249,26
443,64	1230,83
443,84	1306,60
444,05	1234,93
444,25	1253,36
444,46	1265,64
444,66	1255,40
444,87	1247,21
445,07	1222,64
445,28	1269,74
445,48	1245,16
445,69	1251,31
445,89	1263,60
446,09	1275,88
446,30	1302,51
446,50	1210,35
446,71	1255,40
446,91	1259,50
447,12	1224,69
447,32	1269,74
447,53	1394,67
447,73	1263,60
447,93	1169,39
448,14	1259,50
448,34	1316,84
448,55	1216,49
448,75	1282,03
448,96	1206,25
449,16	1308,65
449,36	1316,84
449,57	1212,40
449,77	1282,03
449,98	1265,64
450,18	1241,07
450,39	1290,22
450,59	1286,12
450,79	1279,98
451,00	1304,56
451,20	1261,55
451,41	1310,70
451,61	1251,31
451,81	1343,47
452,02	1257,45
452,22	1322,99
452,43	1202,16
452,63	1220,59
452,84	1239,02
453,04	1284,08
453,24	1257,45
453,45	1265,64
453,65	1273,84
453,86	1222,64
454,06	1234,93
454,26	1275,88
454,47	1286,12
454,67	1193,97
454,87	1253,36
455,08	1243,12
455,28	1261,55
455,49	1314,80
455,69	1204,21
455,89	1300,46
456,10	1271,79
456,30	1273,84
456,51	1224,69
456,71	1253,36
456,91	1228,78
457,12	1284,08
457,32	1288,17
457,52	1220,59
457,73	1290,22
457,93	1292,27
458,14	1327,08
458,34	1269,74
458,54	1241,07
458,75	1271,79
458,95	1204,21
459,15	1255,40
459,36	1304,56
459,56	1292,27
459,76	1251,31
459,97	1226,73
460,17	1216,49
460,37	1253,36
460,58	1282,03
460,78	1267,69
460,99	1189,87
461,19	1286,12
461,39	1263,60
461,60	1273,84
461,80	1218,54
462,00	1251,31
462,21	1273,84
462,41	1265,64
462,61	1204,21
462,82	1273,84
463,02	1279,98
463,22	1279,98
463,43	1322,99
463,63	1282,03
463,83	1310,70
464,04	1306,60
464,24	1245,16
464,44	1282,03
464,64	1318,89
464,85	1241,07
465,05	1275,88
465,25	1275,88
465,46	1314,80
465,66	1185,77
465,86	1253,36
466,07	1167,34
466,27	1279,98
466,47	1357,80
466,68	1298,41
466,88	1261,55
467,08	1306,60
467,29	1241,07
467,49	1257,45
467,69	1294,32
467,89	1275,88
468,10	1261,55
468,30	1298,41
468,50	1284,08
468,71	1335,28
468,91	1142,77
469,11	1296,36
469,31	1302,51
469,52	1300,46
469,72	1236,97
469,92	1204,21
470,13	1236,97
470,33	1224,69
470,53	1228,78
470,73	1271,79
470,94	1279,98
471,14	1234,93
471,34	1269,74
471,54	1261,55
471,75	1306,60
471,95	1251,31
472,15	1290,22
472,36	1181,68
472,56	1359,85
472,76	1314,80
472,96	1253,36
473,17	1331,18
473,37	1249,26
473,57	1228,78
473,77	1273,84
473,98	1224,69
474,18	1304,56
474,38	1296,36
474,58	1312,75
474,79	1220,59
474,99	1325,04
475,19	1267,69
475,39	1263,60
475,60	1273,84
475,80	1271,79
476,00	1277,93
476,20	1198,06
476,41	1290,22
476,61	1290,22
476,81	1265,64
477,01	1265,64
477,21	1339,37
477,42	1292,27
477,62	1286,12
477,82	1318,89
478,02	1230,83
478,23	1273,84
478,43	1277,93
478,63	1241,07
478,83	1263,60
479,03	1271,79
479,24	1257,45
479,44	1335,28
479,64	1241,07
479,84	1265,64
480,04	1292,27
480,25	1269,74
480,45	1290,22
480,65	1294,32
480,85	1314,80
481,06	1259,50
481,26	1222,64
481,46	1316,84
481,66	1259,50
481,86	1355,76
482,06	1318,89
482,27	1243,12
482,47	1257,45
482,67	1310,70
482,87	1273,84
483,07	1298,41
483,28	1230,83
483,48	1300,46
483,68	1265,64
483,88	1282,03
484,08	1243,12
484,29	1208,30
484,49	1241,07
484,69	1212,40
484,89	1257,45
485,09	1294,32
485,29	1220,59
485,50	1247,21
485,70	1288,17
485,90	1290,22
486,10	1253,36
486,30	1208,30
486,50	1314,80
486,71	1216,49
486,91	1230,83
487,11	1249,26
487,31	1290,22
487,51	1310,70
487,71	1241,07
487,91	1259,50
488,12	1220,59
488,32	1259,50
488,52	1304,56
488,72	1230,83
488,92	1298,41
489,12	1208,30
489,32	1294,32
489,53	1259,50
489,73	1292,27
489,93	1322,99
490,13	1327,08
490,33	1200,11
490,53	1290,22
490,73	1325,04
490,94	1288,17
491,14	1345,52
491,34	1265,64
491,54	1273,84
491,74	1226,73
491,94	1216,49
492,14	1257,45
492,34	1214,45
492,54	1290,22
492,75	1245,16
492,95	1329,13
493,15	1335,28
493,35	1286,12
493,55	1312,75
493,75	1236,97
493,95	1329,13
494,15	1218,54
494,35	1253,36
494,56	1208,30
494,76	1314,80
494,96	1245,16
495,16	1298,41
495,36	1247,21
495,56	1230,83
495,76	1302,51
495,96	1259,50
496,16	1255,40
496,36	1277,93
496,56	1263,60
496,77	1265,64
496,97	1226,73
497,17	1263,60
497,37	1189,87
497,57	1273,84
497,77	1382,38
497,97	1290,22
498,17	1312,75
498,37	1271,79
498,57	1224,69
498,77	1239,02
498,97	1220,59
499,17	1255,40
499,38	1247,21
499,58	1249,26
499,78	1239,02
499,98	1337,32
500,18	1216,49
500,38	1230,83
500,58	1241,07
500,78	1191,92
500,98	1333,23
501,18	1245,16
501,38	1175,53
501,58	1263,60
501,78	1286,12
501,98	1284,08
502,18	1275,88
502,38	1230,83
502,58	1275,88
502,78	1245,16
502,98	1187,82
503,18	1273,84
503,38	1296,36
503,59	1208,30
503,79	1269,74
503,99	1239,02
504,19	1208,30
504,39	1263,60
504,59	1204,21
504,79	1277,93
504,99	1243,12
505,19	1269,74
505,39	1259,50
505,59	1257,45
505,79	1302,51
505,99	1216,49
506,19	1257,45
506,39	1222,64
506,59	1239,02
506,79	1361,90
506,99	1208,30
507,19	1255,40
507,39	1271,79
507,59	1282,03
507,79	1271,79
507,99	1259,50
508,19	1275,88
508,39	1257,45
508,59	1255,40
508,79	1259,50
508,99	1251,31
509,19	1273,84
509,39	1329,13
509,59	1261,55
509,79	1277,93
509,99	1339,37
510,19	1345,52
510,39	1255,40
510,59	1286,12
510,79	1259,50
510,99	1284,08
511,19	1249,26
511,39	1253,36
511,59	1245,16
511,79	1171,44
511,99	1359,85
512,19	1282,03
512,38	1286,12
512,58	1255,40
512,78	1214,45
512,98	1327,08
513,18	1279,98
513,38	1232,88
513,58	1220,59
513,78	1236,97
513,98	1230,83
514,18	1261,55
514,38	1265,64
514,58	1269,74
514,78	1214,45
514,98	1257,45
515,18	1292,27
515,38	1253,36
515,58	1275,88
515,78	1206,25
515,98	1269,74
516,18	1286,12
516,38	1245,16
516,57	1241,07
516,77	1316,84
516,97	1234,93
517,17	1271,79
517,37	1212,40
517,57	1261,55
517,77	1216,49
517,97	1204,21
518,17	1226,73
518,37	1288,17
518,57	1267,69
518,77	1298,41
518,97	1224,69
519,16	1304,56
519,36	1224,69
519,56	1243,12
519,76	1286,12
519,96	1255,40
520,16	1329,13
520,36	1361,90
520,56	1300,46
520,76	1279,98
520,96	1175,53
521,16	1263,60
521,35	1234,93
521,55	1284,08
521,75	1232,88
521,95	1224,69
522,15	1275,88
522,35	1273,84
522,55	1310,70
522,75	1255,40
522,95	1220,59
523,14	1243,12
523,34	1210,35
523,54	1255,40
523,74	1187,82
523,94	1341,42
524,14	1269,74
524,34	1228,78
524,54	1234,93
524,73	1277,93
524,93	1265,64
525,13	1247,21
525,33	1216,49
525,53	1372,14
525,73	1269,74
525,93	1288,17
526,13	1255,40
526,32	1296,36
526,52	1316,84
526,72	1265,64
526,92	1228,78
527,12	1273,84
527,32	1288,17
527,52	1236,97
527,71	1189,87
527,91	1247,21
528,11	1282,03
528,31	1282,03
528,51	1232,88
528,71	1339,37
528,90	1374,19
529,10	1329,13
529,30	1343,47
529,50	1275,88
529,70	1232,88
529,90	1277,93
530,09	1212,40
530,29	1267,69
530,49	1263,60
530,69	1226,73
530,89	1204,21
531,09	1271,79
531,28	1181,68
531,48	1282,03
531,68	1286,12
531,88	1286,12
532,08	1228,78
532,28	1236,97
532,47	1298,41
532,67	1232,88
532,87	1286,12
533,07	1206,25
533,27	1210,35
533,46	1316,84
533,66	1261,55
533,86	1282,03
534,06	1288,17
534,26	1337,32
534,45	1259,50
534,65	1277,93
534,85	1241,07
535,05	1243,12
535,25	1230,83
535,44	1277,93
535,64	1316,84
535,84	1277,93
536,04	1277,93
536,24	1288,17
536,43	1261,55
536,63	1275,88
536,83	1234,93
537,03	1298,41
537,22	1292,27
537,42	1239,02
537,62	1269,74
537,82	1251,31
538,02	1249,26
538,21	1273,84
538,41	1245,16
538,61	1284,08
538,81	1277,93
539,00	1282,03
539,20	1316,84
539,40	1269,74
539,60	1204,21
539,79	1327,08
539,99	1196,01
540,19	1265,64
540,39	1284,08
540,58	1257,45
540,78	1314,80
540,98	1366,00
541,18	1282,03
541,37	1267,69
541,57	1249,26
541,77	1239,02
541,97	1232,88
542,16	1288,17
542,36	1189,87
542,56	1269,74
542,76	1306,60
542,95	1325,04
543,15	1253,36
543,35	1206,25
543,54	1339,37
543,74	1204,21
543,94	1263,60
544,14	1255,40
544,33	1273,84
544,53	1228,78
544,73	1255,40
544,93	1273,84
545,12	1232,88
545,32	1353,71
545,52	1288,17
545,71	1298,41
545,91	1312,75
546,11	1232,88
546,30	1216,49
546,50	1290,22
546,70	1265,64
546,90	1273,84
547,09	1222,64
547,29	1249,26
547,49	1239,02
547,68	1249,26
547,88	1218,54
548,08	1277,93
548,27	1286,12
548,47	1253,36
548,67	1214,45
548,87	1331,18
549,06	1273,84
549,26	1282,03
549,46	1241,07
549,65	1282,03
549,85	1282,03
550,05	1226,73
550,24	1306,60
550,44	1181,68
550,64	1273,84
550,83	1282,03
551,03	1286,12
551,23	1296,36
551,42	1249,26
551,62	1257,45
551,82	1234,93
552,01	1329,13
552,21	1308,65
552,41	1263,60
552,60	1165,29
552,80	1259,50
553,00	1230,83
553,19	1259,50
553,39	1261,55
553,59	1265,64
553,78	1310,70
553,98	1312,75
554,17	1259,50
554,37	1286,12
554,57	1292,27
554,76	1263,60
554,96	1249,26
555,16	1322,99
555,35	1191,92
555,55	1257,45
555,75	1234,93
555,94	1243,12
556,14	1257,45
556,33	1282,03
556,53	1331,18
556,73	1267,69
556,92	1204,21
557,12	1271,79
557,32	1282,03
557,51	1282,03
557,71	1282,03
557,90	1294,32
558,10	1282,03
558,30	1282,03
558,49	1253,36
558,69	1216,49
558,88	1261,55
559,08	1212,40
559,28	1275,88
559,47	1241,07
559,67	1206,25
559,86	1273,84
560,06	1304,56
560,26	1284,08
560,45	1249,26
560,65	1255,40
560,84	1271,79
561,04	1282,03
561,24	1261,55
561,43	1318,89
561,63	1327,08
561,82	1312,75
562,02	1273,84
562,22	1253,36
562,41	1208,30
562,61	1243,12
562,80	1208,30
563,00	1273,84
563,19	1255,40
563,39	1226,73
563,59	1226,73
563,78	1259,50
563,98	1251,31
564,17	1282,03
564,37	1257,45
564,56	1234,93
564,76	1247,21
564,96	1263,60
565,15	1234,93
565,35	1282,03
565,54	1241,07
565,74	1241,07
565,93	1277,93
566,13	1271,79
566,32	1263,60
566,52	1282,03
566,71	1275,88
566,91	1226,73
567,11	1253,36
567,30	1298,41
567,50	1224,69
567,69	1292,27
567,89	1224,69
568,08	1263,60
568,28	1232,88
568,47	1206,25
568,67	1277,93
568,86	1304,56
569,06	1181,68
569,25	1308,65
569,45	1271,79
569,64	1267,69
569,84	1273,84
570,04	1261,55
570,23	1277,93
570,43	1263,60
570,62	1282,03
570,82	1304,56
571,01	1198,06
571,21	1302,51
571,40	1331,18
571,60	1167,34
571,79	1279,98
571,99	1353,71
572,18	1273,84
572,38	1265,64
572,57	1255,40
572,77	1253,36
572,96	1224,69
573,16	1318,89
573,35	1308,65
573,55	1234,93
573,74	1265,64
573,94	1269,74
574,13	1251,31
574,33	1245,16
574,52	1234,93
574,71	1277,93
574,91	1279,98
575,10	1198,06
575,30	1257,45
575,49	1259,50
575,69	1298,41
575,88	1239,02
576,08	1196,01
576,27	1275,88
576,47	1257,45
576,66	1284,08
576,86	1269,74
577,05	1275,88
577,25	1265,64
577,44	1253,36
577,64	1243,12
577,83	1298,41
578,02	1312,75
578,22	1232,88
578,41	1247,21
578,61	1222,64
578,80	1265,64
579,00	1294,32
579,19	1269,74
579,39	1257,45
579,58	1245,16
579,77	1243,12
579,97	1257,45
580,16	1304,56
580,36	1269,74
580,55	1263,60
580,75	1269,74
580,94	1230,83
581,13	1300,46
581,33	1335,28
581,52	1251,31
581,72	1271,79
581,91	1269,74
582,11	1286,12
582,30	1243,12
582,49	1284,08
582,69	1261,55
582,88	1353,71
583,08	1267,69
583,27	1288,17
583,47	1284,08
583,66	1288,17
583,85	1286,12
584,05	1239,02
584,24	1327,08
584,44	1271,79
584,63	1247,21
584,82	1230,83
585,02	1232,88
585,21	1239,02
585,41	1302,51
585,60	1255,40
585,79	1288,17
585,99	1306,60
586,18	1216,49
586,37	1347,56
586,57	1286,12
586,76	1288,17
586,96	1277,93
587,15	1263,60
587,34	1183,73
587,54	1216,49
587,73	1292,27
587,93	1271,79
588,12	1232,88
588,31	1292,27
588,51	1339,37
588,70	1316,84
588,89	1310,70
589,09	1241,07
589,28	1302,51
589,47	1214,45
589,67	1284,08
589,86	1300,46
590,06	1239,02
590,25	1306,60
590,44	1314,80
590,64	1208,30
590,83	1308,65
591,02	1216,49
591,22	1202,16
591,41	1230,83
591,60	1294,32
591,80	1279,98
591,99	1255,40
592,18	1263,60
592,38	1234,93
592,57	1275,88
592,76	1247,21
592,96	1187,82
593,15	1298,41
593,34	1329,13
593,54	1290,22
593,73	1204,21
593,92	1265,64
594,12	1282,03
594,31	1247,21
594,50	1257,45
594,70	1284,08
594,89	1261,55
595,08	1232,88
595,28	1329,13
595,47	1247,21
595,66	1351,66
595,86	1284,08
596,05	1294,32
596,24	1263,60
596,43	1335,28
596,63	1265,64
596,82	1337,32
597,01	1212,40
597,21	1263,60
597,40	1251,31
597,59	1298,41
597,79	1288,17
597,98	1298,41
598,17	1220,59
598,36	1282,03
598,56	1224,69
598,75	1288,17
598,94	1224,69
599,14	1259,50
599,33	1249,26
599,52	1247,21
599,71	1251,31
599,91	1269,74
600,10	1224,69
600,29	1271,79
600,48	1320,94
600,68	1222,64
600,87	1247,21
601,06	1294,32
601,26	1198,06
601,45	1226,73
601,64	1232,88
601,83	1300,46
602,03	1333,23
602,22	1175,53
602,41	1249,26
602,60	1304,56
602,80	1290,22
602,99	1282,03
603,18	1316,84
603,37	1239,02
603,57	1222,64
603,76	1243,12
603,95	1261,55
604,14	1230,83
604,34	1224,69
604,53	1255,40
604,72	1232,88
604,91	1261,55
605,10	1255,40
605,30	1261,55
605,49	1318,89
605,68	1263,60
605,87	1296,36
606,07	1304,56
606,26	1236,97
606,45	1284,08
606,64	1245,16
606,84	1261,55
607,03	1359,85
607,22	1294,32
607,41	1230,83
607,60	1273,84
607,80	1318,89
607,99	1290,22
608,18	1284,08
608,37	1198,06
608,56	1191,92
608,76	1257,45
608,95	1265,64
609,14	1279,98
609,33	1394,67
609,52	1294,32
609,72	1314,80
609,91	1308,65
610,10	1173,49
610,29	1257,45
610,48	1273,84
610,68	1150,96
610,87	1224,69
611,06	1263,60
611,25	1308,65
611,44	1320,94
611,63	1347,56
611,83	1335,28
612,02	1177,58
612,21	1294,32
612,40	1222,64
612,59	1259,50
612,79	1310,70
612,98	1265,64
613,17	1269,74
613,36	1314,80
613,55	1257,45
613,74	1259,50
613,93	1212,40
614,13	1265,64
614,32	1249,26
614,51	1310,70
614,70	1316,84
614,89	1294,32
615,08	1277,93
615,28	1273,84
615,47	1263,60
615,66	1245,16
615,85	1275,88
616,04	1304,56
616,23	1282,03
616,42	1288,17
616,62	1292,27
616,81	1253,36
617,00	1198,06
617,19	1247,21
617,38	1284,08
617,57	1277,93
617,76	1294,32
617,95	1220,59
618,15	1294,32
618,34	1308,65
618,53	1312,75
618,72	1267,69
618,91	1277,93
619,10	1208,30
619,29	1296,36
619,48	1370,09
619,68	1288,17
619,87	1275,88
620,06	1271,79
620,25	1216,49
620,44	1247,21
620,63	1245,16
620,82	1271,79
621,01	1271,79
621,20	1273,84
621,39	1320,94
621,59	1294,32
621,78	1329,13
621,97	1179,63
622,16	1179,63
622,35	1359,85
622,54	1329,13
622,73	1290,22
622,92	1245,16
623,11	1284,08
623,30	1306,60
623,49	1255,40
623,68	1212,40
623,88	1222,64
624,07	1290,22
624,26	1308,65
624,45	1253,36
624,64	1314,80
624,83	1257,45
625,02	1300,46
625,21	1269,74
625,40	1282,03
625,59	1253,36
625,78	1312,75
625,97	1271,79
626,16	1351,66
626,35	1314,80
626,54	1339,37
626,74	1357,80
626,93	1312,75
627,12	1236,97
627,31	1247,21
627,50	1304,56
627,69	1290,22
627,88	1322,99
628,07	1343,47
628,26	1312,75
628,45	1282,03
628,64	1255,40
628,83	1236,97
629,02	1302,51
629,21	1327,08
629,40	1312,75
629,59	1228,78
629,78	1251,31
629,97	1220,59
630,16	1216,49
630,35	1277,93
630,54	1257,45
630,73	1275,88
630,92	1331,18
631,11	1308,65
631,30	1322,99
631,49	1294,32
631,68	1396,71
631,87	1413,10
632,06	1538,02
632,25	1464,30
632,44	1435,63
632,63	1439,72
632,82	1738,73
633,01	1910,75
633,20	1705,96
633,39	1812,45
633,58	1787,88
633,77	1814,50
633,96	1716,20
634,15	1660,90
634,34	1791,97
634,53	1726,44
634,72	1724,39
634,91	1621,99
635,10	1492,97
635,29	1505,26
635,48	1554,41
635,67	1396,71
635,86	1456,11
636,05	1316,84
636,24	1320,94
636,43	1396,71
636,62	1349,61
636,81	1320,94
637,00	1271,79
637,19	1279,98
637,38	1300,46
637,57	1310,70
637,76	1255,40
637,95	1322,99
638,14	1316,84
638,33	1288,17
638,52	1349,61
638,71	1298,41
638,89	1273,84
639,08	1218,54
639,27	1331,18
639,46	1236,97
639,65	1292,27
639,84	1208,30
640,03	1335,28
640,22	1290,22
640,41	1284,08
640,60	1294,32
640,79	1273,84
640,98	1236,97
641,17	1239,02
641,36	1271,79
641,55	1343,47
641,74	1228,78
641,92	1257,45
642,11	1247,21
642,30	1282,03
642,49	1333,23
642,68	1204,21
642,87	1239,02
643,06	1333,23
643,25	1167,34
643,44	1267,69
643,63	1263,60
643,82	1255,40
644,00	1300,46
644,19	1198,06
644,38	1279,98
644,57	1204,21
644,76	1218,54
644,95	1333,23
645,14	1269,74
645,33	1247,21
645,52	1286,12
645,71	1290,22
645,89	1239,02
646,08	1306,60
646,27	1333,23
646,46	1320,94
646,65	1181,68
646,84	1241,07
647,03	1236,97
647,22	1335,28
647,40	1265,64
647,59	1271,79
647,78	1316,84
647,97	1310,70
648,16	1239,02
648,35	1224,69
648,54	1257,45
648,73	1253,36
648,91	1253,36
649,10	1224,69
649,29	1175,53
649,48	1284,08
649,67	1318,89
649,86	1265,64
650,05	1263,60
650,23	1294,32
650,42	1247,21
650,61	1298,41
650,80	1257,45
650,99	1234,93
651,18	1185,77
651,36	1204,21
651,55	1273,84
651,74	1286,12
651,93	1312,75
652,12	1245,16
652,31	1259,50
652,49	1212,40
652,68	1257,45
652,87	1318,89
653,06	1284,08
653,25	1239,02
653,44	1271,79
653,62	1308,65
653,81	1202,16
654,00	1257,45
654,19	1179,63
654,38	1228,78
654,56	1222,64
654,75	1306,60
654,94	1275,88
655,13	1292,27
655,32	1288,17
655,51	1273,84
655,69	1261,55
655,88	1273,84
656,07	1222,64
656,26	1304,56
656,45	1255,40
656,63	1208,30
656,82	1288,17
657,01	1216,49
657,20	1241,07
657,38	1298,41
657,57	1302,51
657,76	1255,40
657,95	1273,84
658,14	1329,13
658,32	1294,32
658,51	1288,17
658,70	1288,17
658,89	1210,35
659,08	1191,92
659,26	1243,12
659,45	1282,03
659,64	1261,55
659,83	1277,93
660,01	1298,41
660,20	1245,16
660,39	1241,07
660,58	1249,26
660,76	1247,21
660,95	1312,75
661,14	1322,99
661,33	1247,21
661,51	1173,49
661,70	1234,93
661,89	1255,40
662,08	1220,59
662,26	1320,94
662,45	1271,79
662,64	1288,17
662,83	1370,09
663,01	1251,31
663,20	1277,93
663,39	1271,79
663,58	1261,55
663,76	1347,56
663,95	1263,60
664,14	1239,02
664,32	1189,87
664,51	1224,69
664,70	1234,93
664,89	1216,49
665,07	1296,36
665,26	1218,54
665,45	1331,18
665,64	1288,17
665,82	1218,54
666,01	1322,99
666,20	1241,07
666,38	1296,36
666,57	1269,74
666,76	1245,16
666,95	1296,36
667,13	1228,78
667,32	1206,25
667,51	1296,36
667,69	1329,13
667,88	1198,06
668,07	1284,08
668,25	1261,55
668,44	1298,41
668,63	1333,23
668,81	1261,55
669,00	1286,12
669,19	1257,45
669,38	1265,64
669,56	1234,93
669,75	1226,73
669,94	1269,74
670,12	1282,03
670,31	1294,32
670,50	1322,99
670,68	1327,08
670,87	1308,65
671,06	1267,69
671,24	1224,69
671,43	1218,54
671,62	1277,93
671,80	1249,26
671,99	1304,56
672,18	1251,31
672,36	1331,18
672,55	1220,59
672,74	1269,74
672,92	1249,26
673,11	1241,07
673,29	1329,13
673,48	1265,64
673,67	1247,21
673,85	1271,79
674,04	1257,45
674,23	1259,50
674,41	1288,17
674,60	1222,64
674,79	1257,45
674,97	1275,88
675,16	1298,41
675,34	1327,08
675,53	1345,52
675,72	1228,78
675,90	1284,08
676,09	1249,26
676,28	1255,40
676,46	1224,69
676,65	1259,50
676,83	1232,88
677,02	1277,93
677,21	1259,50
677,39	1273,84
677,58	1214,45
677,77	1189,87
677,95	1239,02
678,14	1234,93
678,32	1257,45
678,51	1202,16
678,70	1296,36
678,88	1224,69
679,07	1251,31
679,25	1193,97
679,44	1239,02
679,63	1314,80
679,81	1306,60
680,00	1298,41
680,18	1271,79
680,37	1214,45
680,55	1255,40
680,74	1308,65
680,93	1189,87
681,11	1300,46
681,30	1312,75
681,48	1265,64
681,67	1271,79
681,85	1220,59
682,04	1239,02
682,23	1333,23
682,41	1247,21
682,60	1204,21
682,78	1376,24
682,97	1255,40
683,15	1282,03
683,34	1261,55
683,53	1312,75
683,71	1208,30
683,90	1308,65
684,08	1320,94
684,27	1253,36
684,45	1269,74
684,64	1267,69
684,82	1234,93
685,01	1232,88
685,19	1228,78
685,38	1306,60
685,57	1265,64
685,75	1327,08
685,94	1275,88
686,12	1245,16
686,31	1222,64
686,49	1208,30
686,68	1290,22
686,86	1304,56
687,05	1318,89
687,23	1298,41
687,42	1226,73
687,60	1265,64
687,79	1216,49
687,97	1173,49
688,16	1298,41
688,34	1224,69
688,53	1267,69
688,71	1257,45
688,90	1251,31
689,08	1288,17
689,27	1208,30
689,45	1257,45
689,64	1247,21
689,82	1232,88
690,01	1257,45
690,19	1269,74
690,38	1292,27
690,56	1228,78
690,75	1263,60
690,93	1306,60
691,12	1288,17
691,30	1308,65
691,49	1279,98
691,67	1259,50
691,86	1259,50
692,04	1273,84
692,23	1267,69
692,41	1259,50
692,60	1267,69
692,78	1273,84
692,97	1251,31
693,15	1261,55
693,34	1308,65
693,52	1271,79
693,71	1314,80
693,89	1277,93
694,08	1269,74
694,26	1261,55
694,44	1308,65
694,63	1292,27
694,81	1271,79
695,00	1298,41
695,18	1325,04
695,37	1322,99
695,55	1271,79
695,74	1298,41
695,92	1251,31
696,10	1191,92
696,29	1234,93
696,47	1325,04
696,66	1241,07
696,84	1296,36
697,03	1222,64
697,21	1296,36
697,40	1318,89
697,58	1259,50
697,76	1249,26
697,95	1200,11
698,13	1263,60
698,32	1257,45
698,50	1228,78
698,68	1247,21
698,87	1236,97
699,05	1347,56
699,24	1208,30
699,42	1279,98
699,61	1271,79
699,79	1314,80
699,97	1263,60
700,16	1269,74
700,34	1277,93
700,53	1269,74
700,71	1316,84
700,89	1177,58
701,08	1300,46
701,26	1273,84
701,45	1245,16
701,63	1247,21
701,81	1271,79
702,00	1259,50
702,18	1193,97
702,37	1226,73
702,55	1261,55
702,73	1249,26
702,92	1282,03
703,10	1273,84
703,28	1234,93
703,47	1282,03
703,65	1267,69
703,84	1304,56
704,02	1277,93
704,20	1247,21
704,39	1298,41
704,57	1312,75
704,75	1261,55
704,94	1279,98
705,12	1331,18
705,30	1189,87
705,49	1269,74
705,67	1279,98
705,86	1251,31
706,04	1279,98
706,22	1288,17
706,41	1284,08
706,59	1286,12
706,77	1304,56
706,96	1200,11
707,14	1234,93
707,32	1296,36
707,51	1249,26
707,69	1196,01
707,87	1251,31
708,06	1191,92
708,24	1257,45
708,42	1304,56
708,61	1290,22
708,79	1265,64
708,97	1202,16
709,16	1320,94
709,34	1322,99
709,52	1249,26
709,71	1277,93
709,89	1200,11
710,07	1275,88
710,26	1306,60
710,44	1236,97
710,62	1277,93
710,80	1286,12
710,99	1234,93
711,17	1173,49
711,35	1187,82
711,54	1347,56
711,72	1267,69
711,90	1322,99
712,09	1239,02
712,27	1249,26
712,45	1304,56
712,63	1249,26
712,82	1249,26
713,00	1255,40
713,18	1310,70
713,37	1331,18
713,55	1159,15
713,73	1212,40
713,91	1243,12
714,10	1279,98
714,28	1312,75
714,46	1310,70
714,65	1249,26
714,83	1353,71
715,01	1206,25
715,19	1316,84
715,38	1224,69
715,56	1216,49
715,74	1267,69
715,92	1230,83
716,11	1249,26
716,29	1253,36
716,47	1222,64
716,65	1284,08
716,84	1234,93
717,02	1243,12
717,20	1204,21
717,38	1263,60
717,57	1224,69
717,75	1216,49
717,93	1251,31
718,11	1253,36
718,30	1241,07
718,48	1273,84
718,66	1318,89
718,84	1236,97
719,03	1273,84
719,21	1273,84
719,39	1329,13
719,57	1239,02
719,75	1249,26
719,94	1230,83
720,12	1279,98
720,30	1286,12
720,48	1331,18
720,67	1214,45
720,85	1253,36
721,03	1249,26
721,21	1296,36
721,39	1271,79
721,58	1277,93
721,76	1277,93
721,94	1277,93
722,12	1241,07
722,30	1206,25
722,49	1312,75
722,67	1267,69
722,85	1224,69
723,03	1200,11
723,21	1239,02
723,40	1247,21
723,58	1249,26
723,76	1257,45
723,94	1306,60
724,12	1187,82
724,30	1265,64
724,49	1261,55
724,67	1234,93
724,85	1212,40
725,03	1220,59
725,21	1232,88
725,40	1271,79
725,58	1257,45
725,76	1279,98
725,94	1243,12
726,12	1239,02
726,30	1306,60
726,49	1257,45
726,67	1239,02
726,85	1245,16
727,03	1232,88
727,21	1282,03
727,39	1296,36
727,57	1257,45
727,76	1286,12
727,94	1263,60
728,12	1267,69
728,30	1179,63
728,48	1310,70
728,66	1275,88
728,84	1255,40
729,03	1265,64
729,21	1298,41
729,39	1273,84
729,57	1267,69
729,75	1263,60
729,93	1251,31
730,11	1294,32
730,30	1210,35
730,48	1241,07
730,66	1306,60
730,84	1253,36
731,02	1306,60
731,20	1185,77
731,38	1210,35
731,56	1273,84
731,74	1294,32
731,93	1265,64
732,11	1239,02
732,29	1290,22
732,47	1277,93
732,65	1263,60
732,83	1284,08
733,01	1277,93
733,19	1359,85
733,37	1361,90
733,56	1294,32
733,74	1310,70
733,92	1267,69
734,10	1245,16
734,28	1318,89
734,46	1214,45
734,64	1245,16
734,82	1239,02
735,00	1296,36
735,18	1249,26
735,36	1245,16
735,54	1312,75
735,73	1257,45
735,91	1290,22
736,09	1320,94
736,27	1275,88
736,45	1241,07
736,63	1292,27
736,81	1267,69
736,99	1241,07
737,17	1261,55
737,35	1200,11
737,53	1257,45
737,71	1204,21
737,89	1239,02
738,07	1273,84
738,25	1300,46
738,43	1206,25
738,61	1282,03
738,80	1232,88
738,98	1236,97
739,16	1296,36
739,34	1302,51
739,52	1290,22
739,70	1359,85
739,88	1243,12
740,06	1257,45
740,24	1255,40
740,42	1216,49
740,60	1288,17
740,78	1263,60
740,96	1245,16
741,14	1265,64
741,32	1228,78
741,50	1320,94
741,68	1212,40
741,86	1310,70
742,04	1230,83
742,22	1290,22
742,40	1308,65
742,58	1204,21
742,76	1279,98
742,94	1331,18
743,12	1302,51
743,30	1298,41
743,48	1294,32
743,66	1200,11
743,84	1275,88
744,02	1247,21
744,20	1286,12
744,38	1218,54
744,56	1312,75
744,74	1265,64
744,92	1273,84
745,10	1361,90
745,28	1251,31
745,46	1196,01
745,64	1308,65
745,82	1257,45
746,00	1243,12
746,18	1236,97
746,36	1306,60
746,54	1253,36
746,72	1265,64
746,90	1257,45
747,08	1271,79
747,26	1202,16
747,44	1308,65
747,62	1308,65
747,80	1292,27
747,98	1409,00
748,15	1187,82
748,33	1296,36
748,51	1288,17
748,69	1335,28
748,87	1239,02
749,05	1308,65
749,23	1263,60
749,41	1302,51
749,59	1214,45
749,77	1267,69
749,95	1245,16
750,13	1292,27
750,31	1224,69
750,49	1179,63
750,67	1198,06
750,85	1279,98
751,03	1236,97
751,20	1298,41
751,38	1361,90
751,56	1247,21
751,74	1245,16
751,92	1243,12
752,10	1200,11
752,28	1284,08
752,46	1230,83
752,64	1294,32
752,82	1255,40
753,00	1265,64
753,18	1269,74
753,35	1214,45
753,53	1236,97
753,71	1269,74
753,89	1220,59
754,07	1241,07
754,25	1279,98
754,43	1269,74
754,61	1247,21
754,79	1200,11
754,97	1306,60
755,14	1275,88
755,32	1271,79
755,50	1288,17
755,68	1245,16
755,86	1310,70
756,04	1286,12
756,22	1261,55
756,40	1271,79
756,57	1247,21
756,75	1212,40
756,93	1245,16
757,11	1327,08
757,29	1329,13
757,47	1335,28
757,65	1304,56
757,82	1243,12
758,00	1222,64
758,18	1263,60
758,36	1255,40
758,54	1306,60
758,72	1310,70
758,90	1226,73
759,07	1263,60
759,25	1298,41
759,43	1316,84
759,61	1306,60
759,79	1333,23
759,97	1279,98
760,15	1318,89
760,32	1284,08
760,50	1304,56
760,68	1302,51
760,86	1243,12
761,04	1294,32
761,22	1214,45
761,39	1257,45
761,57	1282,03
761,75	1212,40
761,93	1294,32
762,11	1255,40
762,28	1267,69
762,46	1339,37
762,64	1304,56
762,82	1247,21
763,00	1189,87
763,18	1331,18
763,35	1271,79
763,53	1259,50
763,71	1290,22
763,89	1310,70
764,07	1273,84
764,24	1298,41
764,42	1245,16
764,60	1279,98
764,78	1239,02
764,96	1290,22
765,13	1232,88
765,31	1279,98
765,49	1249,26
765,67	1243,12
765,84	1286,12
766,02	1265,64
766,20	1247,21
766,38	1314,80
766,56	1251,31
766,73	1259,50
766,91	1263,60
767,09	1261,55
767,27	1302,51
767,44	1216,49
767,62	1288,17
767,80	1316,84
767,98	1212,40
768,15	1275,88
768,33	1249,26
768,51	1239,02
768,69	1247,21
768,87	1296,36
769,04	1251,31
769,22	1320,94
769,40	1314,80
769,58	1282,03
769,75	1255,40
769,93	1161,20
770,11	1312,75
770,28	1204,21
770,46	1304,56
770,64	1255,40
770,82	1247,21
770,99	1224,69
771,17	1259,50
771,35	1267,69
771,53	1288,17
771,70	1296,36
771,88	1302,51
772,06	1333,23
772,23	1290,22
772,41	1239,02
772,59	1245,16
772,77	1275,88
772,94	1304,56
773,12	1304,56
773,30	1257,45
773,47	1269,74
773,65	1179,63
773,83	1308,65
774,01	1290,22
774,18	1255,40
774,36	1320,94
774,54	1247,21
774,71	1234,93
774,89	1271,79
775,07	1241,07
775,24	1263,60
775,42	1224,69
775,60	1202,16
775,78	1222,64
775,95	1325,04
776,13	1290,22
776,31	1191,92
776,48	1191,92
776,66	1308,65
776,84	1322,99
777,01	1249,26
777,19	1277,93
777,37	1286,12
777,54	1275,88
777,72	1234,93
777,90	1210,35
778,07	1275,88
778,25	1294,32
778,43	1214,45
778,60	1263,60
778,78	1269,74
778,96	1279,98
779,13	1179,63
779,31	1300,46
779,49	1284,08
779,66	1259,50
779,84	1228,78
780,01	1298,41
780,19	1263,60
780,37	1212,40
780,54	1249,26
780,72	1290,22
780,90	1265,64
781,07	1275,88
781,25	1337,32
781,43	1230,83
781,60	1296,36
781,78	1294,32
781,95	1241,07
782,13	1191,92
782,31	1275,88
782,48	1241,07
782,66	1302,51
782,83	1286,12
783,01	1269,74
783,19	1302,51
783,36	1243,12
783,54	1224,69
783,72	1298,41
783,89	1339,37
784,07	1245,16
784,24	1282,03
784,42	1286,12
784,60	1226,73
784,77	1300,46
784,95	1222,64
785,12	1236,97
785,30	1300,46
785,47	1343,47
785,65	1222,64
785,83	1212,40
786,00	1224,69
786,18	1267,69
786,35	1304,56
786,53	1300,46
786,71	1204,21
786,88	1282,03
787,06	1251,31
787,23	1232,88
787,41	1220,59
787,58	1245,16
787,76	1218,54
787,94	1261,55
788,11	1318,89
788,29	1257,45
788,46	1255,40
788,64	1226,73
788,81	1222,64
788,99	1230,83
789,16	1255,40
789,34	1234,93
789,52	1222,64
789,69	1269,74
789,87	1325,04
790,04	1284,08
790,22	1292,27
790,39	1273,84
790,57	1273,84
790,74	1273,84
790,92	1220,59
791,09	1263,60
791,27	1345,52
791,44	1261,55
791,62	1249,26
791,79	1220,59
791,97	1265,64
792,15	1325,04
792,32	1322,99
792,50	1331,18
792,67	1310,70
792,85	1245,16
793,02	1230,83
793,20	1294,32
793,37	1230,83
793,55	1298,41
793,72	1306,60
793,90	1304,56
794,07	1273,84
794,25	1298,41
794,42	1306,60
794,60	1273,84
794,77	1214,45
794,95	1216,49
795,12	1251,31
795,30	1282,03
795,47	1300,46
795,65	1191,92
795,82	1212,40
796,00	1290,22
796,17	1220,59
796,34	1294,32
796,52	1277,93
796,69	1304,56
796,87	1257,45
797,04	1273,84
797,22	1218,54
797,39	1329,13
797,57	1335,28
797,74	1325,04
797,92	1298,41
798,09	1288,17
798,27	1224,69
798,44	1318,89
798,62	1210,35
798,79	1275,88
798,96	1290,22
799,14	1347,56
799,31	1196,01
799,49	1304,56
799,66	1208,30
799,84	1224,69
800,01	1210,35
800,19	1214,45
800,36	1243,12
800,53	1191,92
800,71	1271,79
800,88	1271,79
801,06	1224,69
801,23	1232,88
801,41	1234,93
801,58	1273,84
801,75	1288,17
801,93	1308,65
802,10	1216,49
802,28	1312,75
802,45	1222,64
802,63	1298,41
802,80	1312,75
802,97	1263,60
803,15	1261,55
803,32	1234,93
803,50	1216,49
803,67	1247,21
803,84	1206,25
804,02	1241,07
804,19	1253,36
804,37	1286,12
804,54	1269,74
804,71	1304,56
804,89	1282,03
805,06	1239,02
805,24	1245,16
805,41	1290,22
805,58	1218,54
805,76	1236,97
805,93	1284,08
806,10	1232,88
806,28	1245,16
806,45	1232,88
806,63	1230,83
806,80	1288,17
806,97	1228,78
807,15	1288,17
807,32	1214,45
807,49	1255,40
807,67	1255,40
807,84	1204,21
808,01	1290,22
808,19	1271,79
808,36	1271,79
808,54	1261,55
808,71	1218,54
808,88	1228,78
809,06	1241,07
809,23	1304,56
809,40	1179,63
809,58	1304,56
809,75	1261,55
809,92	1239,02
810,10	1241,07
810,27	1232,88
810,44	1177,58
810,62	1226,73
810,79	1241,07
810,96	1216,49
811,14	1222,64
811,31	1202,16
811,48	1298,41
811,66	1284,08
811,83	1296,36
812,00	1259,50
812,18	1224,69
812,35	1267,69
812,52	1292,27
812,69	1267,69
812,87	1292,27
813,04	1255,40
813,21	1259,50
813,39	1220,59
813,56	1267,69
813,73	1245,16
813,91	1277,93
814,08	1234,93
814,25	1247,21
814,42	1282,03
814,60	1347,56
814,77	1269,74
814,94	1241,07
815,12	1247,21
815,29	1292,27
815,46	1275,88
815,63	1253,36
815,81	1249,26
815,98	1267,69
816,15	1265,64
816,33	1183,73
816,50	1273,84
816,67	1220,59
816,84	1257,45
817,02	1216,49
817,19	1279,98
817,36	1226,73
817,53	1263,60
817,71	1257,45
817,88	1294,32
818,05	1243,12
818,22	1224,69
818,40	1294,32
818,57	1228,78
818,74	1304,56
818,91	1210,35
819,09	1257,45
819,26	1218,54
819,43	1232,88
819,60	1230,83
819,78	1212,40
819,95	1191,92
820,12	1273,84
820,29	1279,98
820,47	1226,73
820,64	1249,26
820,81	1228,78
820,98	1259,50
821,15	1247,21
821,33	1261,55
821,50	1302,51
821,67	1288,17
821,84	1253,36
822,02	1263,60
822,19	1187,82
822,36	1343,47
822,53	1279,98
822,70	1243,12
822,88	1269,74
823,05	1290,22
823,22	1267,69
823,39	1282,03
823,56	1341,42
823,74	1288,17
823,91	1312,75
824,08	1322,99
824,25	1232,88
824,42	1243,12
824,60	1241,07
824,77	1212,40
824,94	1298,41
825,11	1286,12
825,28	1234,93
825,45	1208,30
825,63	1327,08
825,80	1198,06
825,97	1325,04
826,14	1257,45
826,31	1314,80
826,48	1239,02
826,66	1228,78
826,83	1232,88
827,00	1261,55
827,17	1308,65
827,34	1273,84
827,51	1292,27
827,69	1251,31
827,86	1298,41
828,03	1294,32
828,20	1230,83
828,37	1243,12
828,54	1259,50
828,71	1282,03
828,89	1333,23
829,06	1269,74
829,23	1279,98
829,40	1220,59
829,57	1265,64
829,74	1269,74
829,91	1267,69
830,09	1298,41
830,26	1322,99
830,43	1226,73
830,60	1308,65
830,77	1279,98
830,94	1296,36
831,11	1214,45
831,28	1282,03
831,46	1300,46
831,63	1273,84
831,80	1265,64
831,97	1339,37
832,14	1234,93
832,31	1236,97
832,48	1292,27
832,65	1271,79
832,82	1298,41
832,99	1257,45
833,17	1224,69
833,34	1286,12
833,51	1318,89
833,68	1277,93
833,85	1234,93
834,02	1220,59
834,19	1335,28
834,36	1279,98
834,53	1236,97
834,70	1228,78
834,87	1228,78
835,04	1292,27
835,22	1234,93
835,39	1239,02
835,56	1263,60
835,73	1228,78
835,90	1263,60
836,07	1232,88
836,24	1183,73
836,41	1255,40
836,58	1241,07
836,75	1253,36
836,92	1308,65
837,09	1224,69
837,26	1253,36
837,43	1234,93
837,60	1265,64
837,77	1255,40
837,94	1279,98
838,12	1292,27
838,29	1298,41
838,46	1249,26
838,63	1239,02
838,80	1263,60
838,97	1269,74
839,14	1241,07
839,31	1300,46
839,48	1294,32
839,65	1286,12
839,82	1275,88
839,99	1247,21
840,16	1347,56
840,33	1267,69
840,50	1286,12
840,67	1255,40
840,84	1220,59
841,01	1249,26
841,18	1339,37
841,35	1306,60
841,52	1183,73
841,69	1214,45
841,86	1265,64
842,03	1294,32
842,20	1300,46
842,37	1308,65
842,54	1247,21
842,71	1226,73
842,88	1298,41
843,05	1224,69
843,22	1251,31
843,39	1265,64
843,56	1286,12
843,73	1214,45
843,90	1228,78
844,07	1236,97
844,24	1255,40
844,41	1294,32
844,58	1259,50
844,75	1224,69
844,92	1271,79
845,09	1257,45
845,26	1320,94
845,43	1286,12
845,60	1277,93
845,77	1261,55
845,94	1308,65
846,10	1210,35
846,27	1300,46
846,44	1198,06
846,61	1279,98
846,78	1351,66
846,95	1314,80
847,12	1322,99
847,29	1286,12
847,46	1257,45
847,63	1290,22
847,80	1232,88
847,97	1300,46
848,14	1349,61
848,31	1302,51
848,48	1247,21
848,65	1359,85
848,82	1271,79
848,98	1245,16
849,15	1271,79
849,32	1322,99
849,49	1290,22
849,66	1331,18
849,83	1208,30
850,00	1226,73
850,17	1257,45
850,34	1312,75
850,51	1282,03
850,68	1333,23
850,85	1286,12
851,01	1331,18
851,18	1277,93
851,35	1275,88
851,52	1263,60
851,69	1343,47
851,86	1327,08
852,03	1277,93
852,20	1255,40
852,37	1269,74
852,53	1191,92
852,70	1288,17
852,87	1277,93
853,04	1236,97
853,21	1267,69
853,38	1314,80
853,55	1288,17
853,72	1277,93
853,89	1232,88
854,05	1294,32
854,22	1255,40
854,39	1232,88
854,56	1292,27
854,73	1320,94
854,90	1206,25
855,07	1300,46
855,23	1245,16
855,40	1220,59
855,57	1230,83
855,74	1257,45
855,91	1290,22
856,08	1249,26
856,25	1206,25
856,41	1263,60
856,58	1255,40
856,75	1236,97
856,92	1224,69
857,09	1232,88
857,26	1257,45
857,42	1331,18
857,59	1259,50
857,76	1284,08
857,93	1224,69
858,10	1245,16
858,27	1222,64
858,43	1255,40
858,60	1251,31
858,77	1255,40
858,94	1269,74
859,11	1245,16
859,27	1236,97
859,44	1267,69
859,61	1243,12
859,78	1277,93
859,95	1249,26
860,12	1224,69
860,28	1218,54
860,45	1331,18
860,62	1230,83
860,79	1320,94
860,95	1232,88
861,12	1232,88
861,29	1236,97
861,46	1263,60
861,63	1263,60
861,79	1216,49
861,96	1294,32
862,13	1232,88
862,30	1269,74
862,47	1261,55
862,63	1302,51
862,80	1234,93
862,97	1200,11
863,14	1245,16
863,30	1224,69
863,47	1308,65
863,64	1232,88
863,81	1232,88
863,97	1236,97
864,14	1257,45
864,31	1316,84
864,48	1302,51
864,65	1103,86
864,81	1251,31
864,98	1249,26
865,15	1312,75
865,32	1241,07
865,48	1310,70
865,65	1230,83
865,82	1316,84
865,98	1263,60
866,15	1257,45
866,32	1292,27
866,49	1277,93
866,65	1241,07
866,82	1314,80
866,99	1271,79
867,16	1286,12
867,32	1273,84
867,49	1239,02
867,66	1292,27
867,83	1304,56
867,99	1212,40
868,16	1284,08
868,33	1279,98
868,49	1228,78
868,66	1249,26
868,83	1271,79
868,99	1298,41
869,16	1271,79
869,33	1284,08
869,50	1245,16
869,66	1251,31
869,83	1292,27
870,00	1269,74
870,16	1220,59
870,33	1253,36
870,50	1261,55
870,66	1234,93
870,83	1259,50
871,00	1269,74
871,17	1265,64
871,33	1335,28
871,50	1302,51
871,67	1339,37
871,83	1204,21
872,00	1234,93
872,17	1290,22
872,33	1282,03
872,50	1253,36
872,67	1325,04
872,83	1273,84
873,00	1236,97
873,17	1322,99
873,33	1183,73
873,50	1257,45
873,67	1247,21
873,83	1202,16
874,00	1267,69
874,16	1251,31
874,33	1294,32
874,50	1351,66
874,66	1245,16
874,83	1257,45
875,00	1224,69
875,16	1224,69
875,33	1318,89
875,50	1273,84
875,66	1294,32
875,83	1255,40
875,99	1255,40
876,16	1259,50
876,33	1259,50
876,49	1282,03
876,66	1296,36
876,83	1230,83
876,99	1269,74
877,16	1318,89
877,32	1261,55
877,49	1196,01
877,66	1228,78
877,82	1220,59
877,99	1214,45
878,15	1292,27
878,32	1239,02
878,49	1220,59
878,65	1255,40
878,82	1292,27
878,98	1273,84
879,15	1279,98
879,32	1277,93
879,48	1191,92
879,65	1239,02
879,81	1206,25
879,98	1302,51
880,15	1269,74
880,31	1273,84
880,48	1220,59
880,64	1279,98
880,81	1210,35
880,97	1271,79
881,14	1261,55
881,31	1249,26
881,47	1292,27
881,64	1257,45
881,80	1245,16
881,97	1298,41
882,13	1282,03
882,30	1247,21
882,47	1320,94
882,63	1300,46
882,80	1300,46
882,96	1314,80
883,13	1277,93
883,29	1273,84
883,46	1253,36
883,62	1263,60
883,79	1294,32
883,95	1316,84
884,12	1267,69
884,29	1259,50
884,45	1335,28
884,62	1257,45
884,78	1275,88
884,95	1206,25
885,11	1196,01
885,28	1269,74
885,44	1269,74
885,61	1302,51
885,77	1232,88
885,94	1269,74
886,10	1257,45
886,27	1349,61
886,43	1226,73
886,60	1191,92
886,76	1253,36
886,93	1298,41
887,09	1306,60
887,26	1216,49
887,42	1271,79
887,59	1249,26
887,75	1329,13
887,92	1236,97
888,08	1116,14
888,25	1245,16
888,41	1257,45
888,58	1257,45
888,74	1290,22
888,91	1306,60
>>>>>End Processed Spectral Data<<<<<
