SpectraSuite Data File
++++++++++++++++++++++++++++++++++++
Date: Sun Apr 03 19:42:04 CEST 2016
User: root
Dark Spectrum Present: No
Reference Spectrum Present: No
Number of Sampled Component Spectra: 1
Spectrometers: USB4C02835
Integration Time (usec): 10000 (USB4C02835)
Spectra Averaged: 1 (USB4C02835)
Boxcar Smoothing: 0 (USB4C02835)
Correct for Electrical Dark: No (USB4C02835)
Strobe/Lamp Enabled: No (USB4C02835)
Correct for Detector Non-linearity: No (USB4C02835)
Correct for Stray Light: No (USB4C02835)
Number of Pixels in Processed Spectrum: 3648
>>>>>Begin Processed Spectral Data<<<<<
177,47	1302,51
177,69	1302,51
177,91	1302,51
178,13	1259,50
178,36	1171,44
178,58	1282,03
178,80	1241,07
179,02	1318,89
179,24	1218,54
179,46	1306,60
179,68	1312,75
179,90	1263,60
180,13	1271,79
180,35	1310,70
180,57	1312,75
180,79	1232,88
181,01	1273,84
181,23	1243,12
181,45	1294,32
181,67	1269,74
181,90	1265,64
182,12	1253,36
182,34	1308,65
182,56	1351,66
182,78	1273,84
183,00	1245,16
183,22	1167,34
183,44	1253,36
183,66	1306,60
183,89	1222,64
184,11	1249,26
184,33	1224,69
184,55	1265,64
184,77	1222,64
184,99	1263,60
185,21	1302,51
185,43	1286,12
185,65	1232,88
185,87	1273,84
186,10	1282,03
186,32	1255,40
186,54	1273,84
186,76	1239,02
186,98	1261,55
187,20	1347,56
187,42	1228,78
187,64	1253,36
187,86	1216,49
188,08	1269,74
188,30	1230,83
188,52	1288,17
188,75	1216,49
188,97	1214,45
189,19	1265,64
189,41	1249,26
189,63	1298,41
189,85	1191,92
190,07	1292,27
190,29	1210,35
190,51	1335,28
190,73	1318,89
190,95	1222,64
191,17	1259,50
191,39	1236,97
191,61	1228,78
191,84	1271,79
192,06	1261,55
192,28	1312,75
192,50	1239,02
192,72	1226,73
192,94	1253,36
193,16	1267,69
193,38	1284,08
193,60	1232,88
193,82	1273,84
194,04	1200,11
194,26	1292,27
194,48	1243,12
194,70	1322,99
194,92	1216,49
195,14	1296,36
195,36	1279,98
195,58	1222,64
195,80	1279,98
196,02	1255,40
196,24	1232,88
196,46	1214,45
196,69	1224,69
196,91	1312,75
197,13	1218,54
197,35	1308,65
197,57	1198,06
197,79	1298,41
198,01	1273,84
198,23	1331,18
198,45	1236,97
198,67	1304,56
198,89	1286,12
199,11	1247,21
199,33	1316,84
199,55	1247,21
199,77	1249,26
199,99	1296,36
200,21	1243,12
200,43	1263,60
200,65	1288,17
200,87	1251,31
201,09	1239,02
201,31	1279,98
201,53	1226,73
201,75	1304,56
201,97	1212,40
202,19	1306,60
202,41	1286,12
202,63	1288,17
202,85	1232,88
203,07	1318,89
203,29	1318,89
203,51	1220,59
203,73	1255,40
203,95	1298,41
204,17	1249,26
204,39	1308,65
204,61	1265,64
204,83	1232,88
205,05	1253,36
205,27	1312,75
205,49	1267,69
205,71	1243,12
205,93	1267,69
206,15	1230,83
206,37	1173,49
206,59	1277,93
206,81	1275,88
207,03	1331,18
207,25	1210,35
207,47	1193,97
207,69	1232,88
207,91	1273,84
208,13	1177,58
208,34	1226,73
208,56	1265,64
208,78	1261,55
209,00	1290,22
209,22	1169,39
209,44	1292,27
209,66	1312,75
209,88	1236,97
210,10	1255,40
210,32	1228,78
210,54	1236,97
210,76	1288,17
210,98	1347,56
211,20	1243,12
211,42	1208,30
211,64	1185,77
211,86	1263,60
212,08	1294,32
212,30	1269,74
212,52	1398,76
212,74	1249,26
212,96	1267,69
213,17	1288,17
213,39	1218,54
213,61	1277,93
213,83	1322,99
214,05	1253,36
214,27	1208,30
214,49	1279,98
214,71	1206,25
214,93	1298,41
215,15	1306,60
215,37	1247,21
215,59	1241,07
215,81	1298,41
216,03	1327,08
216,24	1279,98
216,46	1335,28
216,68	1271,79
216,90	1257,45
217,12	1279,98
217,34	1239,02
217,56	1312,75
217,78	1234,93
218,00	1279,98
218,22	1271,79
218,44	1255,40
218,66	1253,36
218,87	1308,65
219,09	1241,07
219,31	1265,64
219,53	1265,64
219,75	1271,79
219,97	1265,64
220,19	1277,93
220,41	1255,40
220,63	1290,22
220,85	1222,64
221,06	1314,80
221,28	1320,94
221,50	1253,36
221,72	1296,36
221,94	1271,79
222,16	1269,74
222,38	1314,80
222,60	1290,22
222,82	1236,97
223,03	1255,40
223,25	1282,03
223,47	1322,99
223,69	1294,32
223,91	1247,21
224,13	1331,18
224,35	1345,52
224,57	1257,45
224,78	1208,30
225,00	1255,40
225,22	1239,02
225,44	1273,84
225,66	1298,41
225,88	1208,30
226,10	1327,08
226,32	1282,03
226,53	1312,75
226,75	1294,32
226,97	1298,41
227,19	1314,80
227,41	1288,17
227,63	1232,88
227,85	1216,49
228,06	1239,02
228,28	1222,64
228,50	1228,78
228,72	1230,83
228,94	1218,54
229,16	1304,56
229,37	1275,88
229,59	1290,22
229,81	1300,46
230,03	1181,68
230,25	1288,17
230,47	1234,93
230,69	1327,08
230,90	1210,35
231,12	1265,64
231,34	1226,73
231,56	1290,22
231,78	1255,40
232,00	1290,22
232,21	1175,53
232,43	1230,83
232,65	1277,93
232,87	1376,24
233,09	1234,93
233,30	1234,93
233,52	1392,62
233,74	1255,40
233,96	1298,41
234,18	1251,31
234,40	1218,54
234,61	1296,36
234,83	1269,74
235,05	1271,79
235,27	1288,17
235,49	1273,84
235,70	1337,32
235,92	1245,16
236,14	1279,98
236,36	1200,11
236,58	1304,56
236,79	1263,60
237,01	1300,46
237,23	1255,40
237,45	1245,16
237,67	1269,74
237,88	1236,97
238,10	1273,84
238,32	1288,17
238,54	1241,07
238,76	1253,36
238,97	1329,13
239,19	1300,46
239,41	1329,13
239,63	1290,22
239,85	1306,60
240,06	1230,83
240,28	1325,04
240,50	1232,88
240,72	1245,16
240,93	1277,93
241,15	1294,32
241,37	1302,51
241,59	1275,88
241,81	1267,69
242,02	1337,32
242,24	1279,98
242,46	1257,45
242,68	1228,78
242,89	1228,78
243,11	1286,12
243,33	1279,98
243,55	1255,40
243,76	1251,31
243,98	1230,83
244,20	1265,64
244,42	1226,73
244,64	1292,27
244,85	1247,21
245,07	1241,07
245,29	1296,36
245,51	1312,75
245,72	1224,69
245,94	1320,94
246,16	1345,52
246,38	1275,88
246,59	1288,17
246,81	1239,02
247,03	1232,88
247,24	1236,97
247,46	1261,55
247,68	1294,32
247,90	1292,27
248,11	1296,36
248,33	1257,45
248,55	1210,35
248,77	1292,27
248,98	1202,16
249,20	1304,56
249,42	1224,69
249,64	1259,50
249,85	1212,40
250,07	1255,40
250,29	1279,98
250,50	1279,98
250,72	1290,22
250,94	1275,88
251,16	1236,97
251,37	1208,30
251,59	1241,07
251,81	1269,74
252,02	1312,75
252,24	1290,22
252,46	1312,75
252,68	1224,69
252,89	1214,45
253,11	1212,40
253,33	1304,56
253,54	1325,04
253,76	1294,32
253,98	1249,26
254,20	1284,08
254,41	1245,16
254,63	1275,88
254,85	1251,31
255,06	1292,27
255,28	1241,07
255,50	1210,35
255,71	1257,45
255,93	1269,74
256,15	1310,70
256,36	1296,36
256,58	1259,50
256,80	1142,77
257,02	1294,32
257,23	1271,79
257,45	1226,73
257,67	1183,73
257,88	1177,58
258,10	1239,02
258,32	1253,36
258,53	1290,22
258,75	1251,31
258,97	1259,50
259,18	1286,12
259,40	1261,55
259,62	1275,88
259,83	1290,22
260,05	1261,55
260,27	1243,12
260,48	1247,21
260,70	1193,97
260,92	1288,17
261,13	1298,41
261,35	1277,93
261,57	1265,64
261,78	1261,55
262,00	1247,21
262,22	1333,23
262,43	1271,79
262,65	1341,42
262,86	1320,94
263,08	1259,50
263,30	1239,02
263,51	1261,55
263,73	1239,02
263,95	1216,49
264,16	1241,07
264,38	1236,97
264,60	1322,99
264,81	1216,49
265,03	1275,88
265,25	1284,08
265,46	1265,64
265,68	1308,65
265,89	1253,36
266,11	1138,67
266,33	1261,55
266,54	1214,45
266,76	1279,98
266,98	1275,88
267,19	1325,04
267,41	1155,05
267,62	1103,86
267,84	1331,18
268,06	1312,75
268,27	1312,75
268,49	1318,89
268,70	1193,97
268,92	1216,49
269,14	1261,55
269,35	1239,02
269,57	1261,55
269,79	1343,47
270,00	1243,12
270,22	1310,70
270,43	1167,34
270,65	1325,04
270,87	1273,84
271,08	1230,83
271,30	1263,60
271,51	1204,21
271,73	1288,17
271,95	1253,36
272,16	1306,60
272,38	1318,89
272,59	1241,07
272,81	1294,32
273,02	1308,65
273,24	1255,40
273,46	1279,98
273,67	1279,98
273,89	1251,31
274,10	1320,94
274,32	1241,07
274,54	1292,27
274,75	1228,78
274,97	1247,21
275,18	1318,89
275,40	1302,51
275,61	1298,41
275,83	1300,46
276,05	1206,25
276,26	1302,51
276,48	1275,88
276,69	1290,22
276,91	1265,64
277,12	1318,89
277,34	1265,64
277,55	1206,25
277,77	1271,79
277,99	1236,97
278,20	1282,03
278,42	1232,88
278,63	1241,07
278,85	1226,73
279,06	1282,03
279,28	1302,51
279,49	1279,98
279,71	1273,84
279,93	1314,80
280,14	1255,40
280,36	1216,49
280,57	1275,88
280,79	1331,18
281,00	1226,73
281,22	1279,98
281,43	1269,74
281,65	1273,84
281,86	1249,26
282,08	1290,22
282,29	1294,32
282,51	1212,40
282,73	1247,21
282,94	1241,07
283,16	1314,80
283,37	1224,69
283,59	1282,03
283,80	1228,78
284,02	1339,37
284,23	1267,69
284,45	1292,27
284,66	1316,84
284,88	1294,32
285,09	1294,32
285,31	1247,21
285,52	1265,64
285,74	1249,26
285,95	1271,79
286,17	1335,28
286,38	1279,98
286,60	1243,12
286,81	1263,60
287,03	1255,40
287,24	1208,30
287,46	1259,50
287,67	1284,08
287,89	1218,54
288,10	1251,31
288,32	1288,17
288,53	1333,23
288,75	1296,36
288,96	1275,88
289,18	1228,78
289,39	1212,40
289,61	1206,25
289,82	1310,70
290,04	1308,65
290,25	1265,64
290,47	1236,97
290,68	1277,93
290,90	1327,08
291,11	1335,28
291,33	1236,97
291,54	1247,21
291,76	1271,79
291,97	1298,41
292,18	1279,98
292,40	1173,49
292,61	1210,35
292,83	1284,08
293,04	1284,08
293,26	1261,55
293,47	1251,31
293,69	1304,56
293,90	1259,50
294,12	1290,22
294,33	1212,40
294,55	1241,07
294,76	1245,16
294,97	1298,41
295,19	1236,97
295,40	1236,97
295,62	1298,41
295,83	1288,17
296,05	1368,04
296,26	1292,27
296,48	1259,50
296,69	1255,40
296,90	1302,51
297,12	1304,56
297,33	1288,17
297,55	1189,87
297,76	1232,88
297,98	1284,08
298,19	1222,64
298,41	1314,80
298,62	1265,64
298,83	1318,89
299,05	1279,98
299,26	1284,08
299,48	1255,40
299,69	1302,51
299,90	1314,80
300,12	1243,12
300,33	1216,49
300,55	1226,73
300,76	1249,26
300,98	1179,63
301,19	1296,36
301,40	1210,35
301,62	1232,88
301,83	1247,21
302,05	1214,45
302,26	1318,89
302,47	1239,02
302,69	1255,40
302,90	1282,03
303,12	1228,78
303,33	1241,07
303,54	1265,64
303,76	1351,66
303,97	1314,80
304,19	1200,11
304,40	1226,73
304,61	1282,03
304,83	1322,99
305,04	1222,64
305,26	1347,56
305,47	1241,07
305,68	1253,36
305,90	1232,88
306,11	1282,03
306,33	1300,46
306,54	1345,52
306,75	1329,13
306,97	1234,93
307,18	1241,07
307,39	1191,92
307,61	1300,46
307,82	1261,55
308,04	1249,26
308,25	1320,94
308,46	1261,55
308,68	1353,71
308,89	1277,93
309,10	1282,03
309,32	1308,65
309,53	1290,22
309,74	1273,84
309,96	1241,07
310,17	1267,69
310,39	1304,56
310,60	1292,27
310,81	1232,88
311,03	1245,16
311,24	1236,97
311,45	1255,40
311,67	1247,21
311,88	1245,16
312,09	1245,16
312,31	1288,17
312,52	1208,30
312,73	1224,69
312,95	1239,02
313,16	1304,56
313,37	1269,74
313,59	1226,73
313,80	1241,07
314,01	1329,13
314,23	1232,88
314,44	1241,07
314,65	1224,69
314,87	1273,84
315,08	1282,03
315,29	1253,36
315,51	1322,99
315,72	1284,08
315,93	1206,25
316,15	1282,03
316,36	1191,92
316,57	1294,32
316,79	1212,40
317,00	1187,82
317,21	1282,03
317,43	1249,26
317,64	1255,40
317,85	1282,03
318,07	1232,88
318,28	1271,79
318,49	1239,02
318,70	1275,88
318,92	1253,36
319,13	1277,93
319,34	1292,27
319,56	1286,12
319,77	1263,60
319,98	1290,22
320,20	1333,23
320,41	1257,45
320,62	1247,21
320,83	1224,69
321,05	1282,03
321,26	1296,36
321,47	1222,64
321,69	1234,93
321,90	1304,56
322,11	1243,12
322,32	1239,02
322,54	1286,12
322,75	1284,08
322,96	1282,03
323,18	1247,21
323,39	1304,56
323,60	1263,60
323,81	1263,60
324,03	1226,73
324,24	1210,35
324,45	1216,49
324,66	1251,31
324,88	1239,02
325,09	1273,84
325,30	1212,40
325,52	1290,22
325,73	1275,88
325,94	1271,79
326,15	1198,06
326,37	1292,27
326,58	1265,64
326,79	1282,03
327,00	1208,30
327,22	1320,94
327,43	1259,50
327,64	1296,36
327,85	1308,65
328,07	1302,51
328,28	1249,26
328,49	1185,77
328,70	1226,73
328,92	1298,41
329,13	1261,55
329,34	1251,31
329,55	1202,16
329,76	1292,27
329,98	1249,26
330,19	1290,22
330,40	1232,88
330,61	1335,28
330,83	1228,78
331,04	1275,88
331,25	1306,60
331,46	1212,40
331,68	1253,36
331,89	1216,49
332,10	1308,65
332,31	1265,64
332,52	1267,69
332,74	1306,60
332,95	1234,93
333,16	1228,78
333,37	1308,65
333,58	1228,78
333,80	1214,45
334,01	1271,79
334,22	1282,03
334,43	1271,79
334,64	1243,12
334,86	1245,16
335,07	1210,35
335,28	1318,89
335,49	1255,40
335,70	1232,88
335,92	1236,97
336,13	1329,13
336,34	1245,16
336,55	1275,88
336,76	1236,97
336,98	1216,49
337,19	1222,64
337,40	1214,45
337,61	1271,79
337,82	1292,27
338,04	1300,46
338,25	1249,26
338,46	1212,40
338,67	1322,99
338,88	1263,60
339,09	1261,55
339,31	1243,12
339,52	1269,74
339,73	1239,02
339,94	1257,45
340,15	1286,12
340,36	1241,07
340,58	1275,88
340,79	1249,26
341,00	1220,59
341,21	1296,36
341,42	1322,99
341,63	1320,94
341,85	1322,99
342,06	1218,54
342,27	1269,74
342,48	1304,56
342,69	1165,29
342,90	1271,79
343,12	1243,12
343,33	1251,31
343,54	1265,64
343,75	1239,02
343,96	1230,83
344,17	1314,80
344,38	1251,31
344,60	1331,18
344,81	1263,60
345,02	1261,55
345,23	1181,68
345,44	1226,73
345,65	1251,31
345,86	1284,08
346,07	1241,07
346,29	1224,69
346,50	1310,70
346,71	1339,37
346,92	1353,71
347,13	1191,92
347,34	1255,40
347,55	1222,64
347,76	1255,40
347,98	1267,69
348,19	1226,73
348,40	1259,50
348,61	1247,21
348,82	1259,50
349,03	1265,64
349,24	1257,45
349,45	1294,32
349,66	1263,60
349,88	1298,41
350,09	1265,64
350,30	1230,83
350,51	1279,98
350,72	1249,26
350,93	1267,69
351,14	1279,98
351,35	1232,88
351,56	1300,46
351,77	1196,01
351,99	1259,50
352,20	1224,69
352,41	1265,64
352,62	1259,50
352,83	1316,84
353,04	1300,46
353,25	1269,74
353,46	1320,94
353,67	1284,08
353,88	1351,66
354,09	1275,88
354,30	1228,78
354,52	1318,89
354,73	1200,11
354,94	1308,65
355,15	1312,75
355,36	1257,45
355,57	1331,18
355,78	1241,07
355,99	1253,36
356,20	1327,08
356,41	1255,40
356,62	1271,79
356,83	1259,50
357,04	1236,97
357,25	1282,03
357,46	1189,87
357,68	1331,18
357,89	1224,69
358,10	1282,03
358,31	1322,99
358,52	1290,22
358,73	1327,08
358,94	1249,26
359,15	1245,16
359,36	1302,51
359,57	1294,32
359,78	1191,92
359,99	1222,64
360,20	1308,65
360,41	1255,40
360,62	1128,43
360,83	1259,50
361,04	1288,17
361,25	1335,28
361,46	1202,16
361,67	1286,12
361,88	1327,08
362,09	1251,31
362,30	1325,04
362,51	1282,03
362,72	1232,88
362,93	1275,88
363,14	1269,74
363,35	1212,40
363,56	1220,59
363,78	1308,65
363,99	1273,84
364,20	1322,99
364,41	1286,12
364,62	1265,64
364,83	1279,98
365,04	1286,12
365,25	1296,36
365,46	1284,08
365,67	1247,21
365,88	1263,60
366,09	1253,36
366,30	1269,74
366,51	1265,64
366,72	1263,60
366,93	1296,36
367,14	1277,93
367,35	1282,03
367,56	1310,70
367,77	1314,80
367,98	1218,54
368,18	1275,88
368,39	1261,55
368,60	1271,79
368,81	1214,45
369,02	1304,56
369,23	1267,69
369,44	1304,56
369,65	1288,17
369,86	1239,02
370,07	1265,64
370,28	1275,88
370,49	1228,78
370,70	1300,46
370,91	1243,12
371,12	1212,40
371,33	1271,79
371,54	1236,97
371,75	1253,36
371,96	1265,64
372,17	1241,07
372,38	1265,64
372,59	1304,56
372,80	1206,25
373,01	1279,98
373,22	1200,11
373,43	1269,74
373,64	1271,79
373,85	1298,41
374,06	1204,21
374,26	1275,88
374,47	1263,60
374,68	1261,55
374,89	1267,69
375,10	1236,97
375,31	1284,08
375,52	1187,82
375,73	1249,26
375,94	1251,31
376,15	1279,98
376,36	1253,36
376,57	1263,60
376,78	1267,69
376,99	1282,03
377,20	1267,69
377,40	1273,84
377,61	1255,40
377,82	1300,46
378,03	1298,41
378,24	1282,03
378,45	1220,59
378,66	1179,63
378,87	1218,54
379,08	1255,40
379,29	1249,26
379,50	1314,80
379,71	1282,03
379,91	1290,22
380,12	1247,21
380,33	1327,08
380,54	1255,40
380,75	1247,21
380,96	1230,83
381,17	1265,64
381,38	1288,17
381,59	1296,36
381,80	1212,40
382,00	1224,69
382,21	1298,41
382,42	1208,30
382,63	1218,54
382,84	1298,41
383,05	1263,60
383,26	1288,17
383,47	1298,41
383,68	1376,24
383,88	1239,02
384,09	1228,78
384,30	1300,46
384,51	1249,26
384,72	1279,98
384,93	1304,56
385,14	1290,22
385,35	1292,27
385,55	1306,60
385,76	1284,08
385,97	1181,68
386,18	1216,49
386,39	1316,84
386,60	1216,49
386,81	1282,03
387,02	1253,36
387,22	1294,32
387,43	1218,54
387,64	1304,56
387,85	1273,84
388,06	1263,60
388,27	1296,36
388,48	1261,55
388,68	1249,26
388,89	1265,64
389,10	1269,74
389,31	1298,41
389,52	1310,70
389,73	1310,70
389,93	1306,60
390,14	1249,26
390,35	1251,31
390,56	1241,07
390,77	1232,88
390,98	1232,88
391,18	1273,84
391,39	1294,32
391,60	1288,17
391,81	1331,18
392,02	1232,88
392,23	1267,69
392,43	1298,41
392,64	1198,06
392,85	1300,46
393,06	1214,45
393,27	1204,21
393,47	1191,92
393,68	1288,17
393,89	1273,84
394,10	1230,83
394,31	1245,16
394,52	1208,30
394,72	1236,97
394,93	1220,59
395,14	1200,11
395,35	1294,32
395,56	1290,22
395,76	1298,41
395,97	1247,21
396,18	1316,84
396,39	1273,84
396,60	1257,45
396,80	1239,02
397,01	1286,12
397,22	1253,36
397,43	1290,22
397,64	1259,50
397,84	1279,98
398,05	1218,54
398,26	1257,45
398,47	1318,89
398,67	1302,51
398,88	1228,78
399,09	1232,88
399,30	1224,69
399,51	1282,03
399,71	1296,36
399,92	1306,60
400,13	1261,55
400,34	1239,02
400,54	1226,73
400,75	1257,45
400,96	1249,26
401,17	1249,26
401,37	1216,49
401,58	1269,74
401,79	1269,74
402,00	1202,16
402,21	1282,03
402,41	1325,04
402,62	1224,69
402,83	1275,88
403,04	1290,22
403,24	1304,56
403,45	1261,55
403,66	1212,40
403,87	1282,03
404,07	1259,50
404,28	1294,32
404,49	1208,30
404,70	1251,31
404,90	1300,46
405,11	1259,50
405,32	1247,21
405,52	1353,71
405,73	1239,02
405,94	1261,55
406,15	1292,27
406,35	1282,03
406,56	1329,13
406,77	1290,22
406,98	1222,64
407,18	1288,17
407,39	1277,93
407,60	1247,21
407,80	1282,03
408,01	1308,65
408,22	1218,54
408,43	1204,21
408,63	1353,71
408,84	1265,64
409,05	1273,84
409,25	1314,80
409,46	1257,45
409,67	1304,56
409,88	1282,03
410,08	1208,30
410,29	1216,49
410,50	1296,36
410,70	1279,98
410,91	1290,22
411,12	1302,51
411,32	1298,41
411,53	1255,40
411,74	1300,46
411,95	1257,45
412,15	1216,49
412,36	1271,79
412,57	1259,50
412,77	1333,23
412,98	1247,21
413,19	1300,46
413,39	1273,84
413,60	1202,16
413,81	1185,77
414,01	1306,60
414,22	1239,02
414,43	1370,09
414,63	1259,50
414,84	1269,74
415,05	1263,60
415,25	1331,18
415,46	1228,78
415,67	1298,41
415,87	1257,45
416,08	1277,93
416,29	1314,80
416,49	1200,11
416,70	1253,36
416,91	1308,65
417,11	1245,16
417,32	1275,88
417,53	1236,97
417,73	1261,55
417,94	1261,55
418,15	1263,60
418,35	1191,92
418,56	1265,64
418,77	1368,04
418,97	1292,27
419,18	1273,84
419,38	1302,51
419,59	1218,54
419,80	1257,45
420,00	1290,22
420,21	1251,31
420,42	1298,41
420,62	1284,08
420,83	1275,88
421,04	1325,04
421,24	1251,31
421,45	1292,27
421,65	1247,21
421,86	1208,30
422,07	1310,70
422,27	1216,49
422,48	1249,26
422,69	1261,55
422,89	1249,26
423,10	1320,94
423,30	1232,88
423,51	1234,93
423,72	1353,71
423,92	1267,69
424,13	1279,98
424,33	1241,07
424,54	1253,36
424,75	1193,97
424,95	1316,84
425,16	1247,21
425,36	1191,92
425,57	1263,60
425,78	1325,04
425,98	1298,41
426,19	1257,45
426,39	1306,60
426,60	1226,73
426,81	1304,56
427,01	1261,55
427,22	1257,45
427,42	1257,45
427,63	1288,17
427,83	1261,55
428,04	1273,84
428,25	1257,45
428,45	1239,02
428,66	1320,94
428,86	1245,16
429,07	1232,88
429,28	1232,88
429,48	1279,98
429,69	1261,55
429,89	1277,93
430,10	1296,36
430,30	1279,98
430,51	1224,69
430,71	1267,69
430,92	1296,36
431,13	1306,60
431,33	1277,93
431,54	1269,74
431,74	1271,79
431,95	1310,70
432,15	1259,50
432,36	1253,36
432,56	1236,97
432,77	1288,17
432,98	1302,51
433,18	1290,22
433,39	1241,07
433,59	1275,88
433,80	1208,30
434,00	1298,41
434,21	1191,92
434,41	1286,12
434,62	1288,17
434,82	1222,64
435,03	1247,21
435,23	1288,17
435,44	1314,80
435,64	1228,78
435,85	1253,36
436,06	1216,49
436,26	1263,60
436,47	1265,64
436,67	1304,56
436,88	1251,31
437,08	1284,08
437,29	1292,27
437,49	1312,75
437,70	1206,25
437,90	1318,89
438,11	1343,47
438,31	1267,69
438,52	1277,93
438,72	1282,03
438,93	1300,46
439,13	1269,74
439,34	1327,08
439,54	1302,51
439,75	1284,08
439,95	1275,88
440,16	1228,78
440,36	1271,79
440,57	1220,59
440,77	1236,97
440,98	1185,77
441,18	1198,06
441,39	1288,17
441,59	1218,54
441,80	1304,56
442,00	1247,21
442,21	1232,88
442,41	1255,40
442,62	1261,55
442,82	1255,40
443,02	1249,26
443,23	1296,36
443,43	1267,69
443,64	1304,56
443,84	1269,74
444,05	1228,78
444,25	1257,45
444,46	1292,27
444,66	1236,97
444,87	1263,60
445,07	1187,82
445,28	1249,26
445,48	1271,79
445,69	1282,03
445,89	1232,88
446,09	1247,21
446,30	1245,16
446,50	1263,60
446,71	1210,35
446,91	1271,79
447,12	1218,54
447,32	1333,23
447,53	1284,08
447,73	1232,88
447,93	1286,12
448,14	1314,80
448,34	1288,17
448,55	1339,37
448,75	1257,45
448,96	1259,50
449,16	1208,30
449,36	1290,22
449,57	1196,01
449,77	1263,60
449,98	1206,25
450,18	1292,27
450,39	1318,89
450,59	1267,69
450,79	1294,32
451,00	1294,32
451,20	1327,08
451,41	1261,55
451,61	1329,13
451,81	1282,03
452,02	1173,49
452,22	1222,64
452,43	1292,27
452,63	1314,80
452,84	1245,16
453,04	1290,22
453,24	1183,73
453,45	1263,60
453,65	1245,16
453,86	1312,75
454,06	1253,36
454,26	1251,31
454,47	1263,60
454,67	1277,93
454,87	1267,69
455,08	1234,93
455,28	1284,08
455,49	1316,84
455,69	1257,45
455,89	1202,16
456,10	1232,88
456,30	1243,12
456,51	1257,45
456,71	1216,49
456,91	1263,60
457,12	1247,21
457,32	1257,45
457,52	1267,69
457,73	1290,22
457,93	1241,07
458,14	1216,49
458,34	1206,25
458,54	1286,12
458,75	1294,32
458,95	1230,83
459,15	1331,18
459,36	1312,75
459,56	1288,17
459,76	1284,08
459,97	1347,56
460,17	1193,97
460,37	1329,13
460,58	1286,12
460,78	1222,64
460,99	1245,16
461,19	1290,22
461,39	1255,40
461,60	1263,60
461,80	1214,45
462,00	1247,21
462,21	1275,88
462,41	1312,75
462,61	1271,79
462,82	1265,64
463,02	1271,79
463,22	1269,74
463,43	1232,88
463,63	1282,03
463,83	1271,79
464,04	1329,13
464,24	1232,88
464,44	1232,88
464,64	1241,07
464,85	1251,31
465,05	1255,40
465,25	1318,89
465,46	1308,65
465,66	1288,17
465,86	1269,74
466,07	1316,84
466,27	1343,47
466,47	1259,50
466,68	1355,76
466,88	1267,69
467,08	1294,32
467,29	1230,83
467,49	1300,46
467,69	1343,47
467,89	1273,84
468,10	1286,12
468,30	1232,88
468,50	1361,90
468,71	1230,83
468,91	1275,88
469,11	1243,12
469,31	1290,22
469,52	1257,45
469,72	1222,64
469,92	1232,88
470,13	1290,22
470,33	1282,03
470,53	1245,16
470,73	1318,89
470,94	1257,45
471,14	1306,60
471,34	1331,18
471,54	1292,27
471,75	1224,69
471,95	1257,45
472,15	1322,99
472,36	1241,07
472,56	1232,88
472,76	1212,40
472,96	1273,84
473,17	1236,97
473,37	1368,04
473,57	1216,49
473,77	1288,17
473,98	1208,30
474,18	1253,36
474,38	1290,22
474,58	1210,35
474,79	1263,60
474,99	1284,08
475,19	1245,16
475,39	1249,26
475,60	1273,84
475,80	1273,84
476,00	1269,74
476,20	1304,56
476,41	1273,84
476,61	1345,52
476,81	1214,45
477,01	1232,88
477,21	1224,69
477,42	1263,60
477,62	1224,69
477,82	1271,79
478,02	1247,21
478,23	1306,60
478,43	1212,40
478,63	1263,60
478,83	1318,89
479,03	1241,07
479,24	1329,13
479,44	1318,89
479,64	1200,11
479,84	1279,98
480,04	1261,55
480,25	1241,07
480,45	1241,07
480,65	1339,37
480,85	1232,88
481,06	1292,27
481,26	1257,45
481,46	1329,13
481,66	1226,73
481,86	1263,60
482,06	1253,36
482,27	1263,60
482,47	1282,03
482,67	1288,17
482,87	1232,88
483,07	1284,08
483,28	1261,55
483,48	1257,45
483,68	1310,70
483,88	1265,64
484,08	1300,46
484,29	1277,93
484,49	1265,64
484,69	1214,45
484,89	1286,12
485,09	1322,99
485,29	1337,32
485,50	1263,60
485,70	1265,64
485,90	1282,03
486,10	1273,84
486,30	1230,83
486,50	1218,54
486,71	1284,08
486,91	1232,88
487,11	1212,40
487,31	1282,03
487,51	1245,16
487,71	1241,07
487,91	1361,90
488,12	1230,83
488,32	1224,69
488,52	1216,49
488,72	1243,12
488,92	1302,51
489,12	1265,64
489,32	1267,69
489,53	1277,93
489,73	1253,36
489,93	1214,45
490,13	1279,98
490,33	1333,23
490,53	1249,26
490,73	1296,36
490,94	1212,40
491,14	1290,22
491,34	1226,73
491,54	1226,73
491,74	1306,60
491,94	1282,03
492,14	1279,98
492,34	1253,36
492,54	1279,98
492,75	1267,69
492,95	1236,97
493,15	1290,22
493,35	1236,97
493,55	1273,84
493,75	1288,17
493,95	1259,50
494,15	1228,78
494,35	1208,30
494,56	1208,30
494,76	1255,40
494,96	1224,69
495,16	1230,83
495,36	1290,22
495,56	1279,98
495,76	1282,03
495,96	1224,69
496,16	1257,45
496,36	1286,12
496,56	1288,17
496,77	1218,54
496,97	1298,41
497,17	1224,69
497,37	1251,31
497,57	1255,40
497,77	1249,26
497,97	1218,54
498,17	1284,08
498,37	1247,21
498,57	1243,12
498,77	1261,55
498,97	1302,51
499,17	1173,49
499,38	1187,82
499,58	1218,54
499,78	1273,84
499,98	1206,25
500,18	1255,40
500,38	1249,26
500,58	1261,55
500,78	1265,64
500,98	1304,56
501,18	1232,88
501,38	1253,36
501,58	1234,93
501,78	1204,21
501,98	1300,46
502,18	1335,28
502,38	1288,17
502,58	1279,98
502,78	1212,40
502,98	1232,88
503,18	1310,70
503,38	1202,16
503,59	1282,03
503,79	1273,84
503,99	1310,70
504,19	1263,60
504,39	1339,37
504,59	1232,88
504,79	1232,88
504,99	1304,56
505,19	1222,64
505,39	1279,98
505,59	1318,89
505,79	1290,22
505,99	1232,88
506,19	1251,31
506,39	1273,84
506,59	1290,22
506,79	1247,21
506,99	1269,74
507,19	1284,08
507,39	1271,79
507,59	1310,70
507,79	1269,74
507,99	1353,71
508,19	1298,41
508,39	1179,63
508,59	1236,97
508,79	1298,41
508,99	1310,70
509,19	1239,02
509,39	1269,74
509,59	1304,56
509,79	1302,51
509,99	1269,74
510,19	1236,97
510,39	1214,45
510,59	1232,88
510,79	1253,36
510,99	1202,16
511,19	1259,50
511,39	1249,26
511,59	1294,32
511,79	1263,60
511,99	1271,79
512,19	1279,98
512,38	1351,66
512,58	1282,03
512,78	1306,60
512,98	1181,68
513,18	1318,89
513,38	1241,07
513,58	1314,80
513,78	1251,31
513,98	1288,17
514,18	1251,31
514,38	1304,56
514,58	1304,56
514,78	1255,40
514,98	1243,12
515,18	1279,98
515,38	1284,08
515,58	1265,64
515,78	1329,13
515,98	1298,41
516,18	1253,36
516,38	1234,93
516,57	1245,16
516,77	1253,36
516,97	1202,16
517,17	1353,71
517,37	1296,36
517,57	1314,80
517,77	1255,40
517,97	1286,12
518,17	1247,21
518,37	1220,59
518,57	1286,12
518,77	1239,02
518,97	1232,88
519,16	1302,51
519,36	1314,80
519,56	1288,17
519,76	1290,22
519,96	1234,93
520,16	1277,93
520,36	1216,49
520,56	1269,74
520,76	1279,98
520,96	1325,04
521,16	1224,69
521,35	1322,99
521,55	1300,46
521,75	1230,83
521,95	1298,41
522,15	1181,68
522,35	1247,21
522,55	1288,17
522,75	1339,37
522,95	1282,03
523,14	1345,52
523,34	1247,21
523,54	1191,92
523,74	1277,93
523,94	1288,17
524,14	1263,60
524,34	1239,02
524,54	1232,88
524,73	1236,97
524,93	1279,98
525,13	1245,16
525,33	1296,36
525,53	1284,08
525,73	1282,03
525,93	1232,88
526,13	1208,30
526,32	1271,79
526,52	1282,03
526,72	1247,21
526,92	1263,60
527,12	1290,22
527,32	1286,12
527,52	1263,60
527,71	1208,30
527,91	1271,79
528,11	1214,45
528,31	1239,02
528,51	1232,88
528,71	1261,55
528,90	1351,66
529,10	1277,93
529,30	1282,03
529,50	1249,26
529,70	1322,99
529,90	1208,30
530,09	1249,26
530,29	1232,88
530,49	1234,93
530,69	1298,41
530,89	1277,93
531,09	1282,03
531,28	1259,50
531,48	1337,32
531,68	1267,69
531,88	1294,32
532,08	1300,46
532,28	1265,64
532,47	1228,78
532,67	1290,22
532,87	1187,82
533,07	1265,64
533,27	1320,94
533,46	1331,18
533,66	1269,74
533,86	1277,93
534,06	1247,21
534,26	1331,18
534,45	1302,51
534,65	1263,60
534,85	1275,88
535,05	1302,51
535,25	1310,70
535,44	1308,65
535,64	1290,22
535,84	1271,79
536,04	1202,16
536,24	1273,84
536,43	1247,21
536,63	1325,04
536,83	1232,88
537,03	1286,12
537,22	1269,74
537,42	1306,60
537,62	1224,69
537,82	1236,97
538,02	1230,83
538,21	1271,79
538,41	1302,51
538,61	1271,79
538,81	1292,27
539,00	1257,45
539,20	1224,69
539,40	1300,46
539,60	1241,07
539,79	1286,12
539,99	1314,80
540,19	1273,84
540,39	1329,13
540,58	1329,13
540,78	1243,12
540,98	1269,74
541,18	1282,03
541,37	1273,84
541,57	1218,54
541,77	1249,26
541,97	1320,94
542,16	1279,98
542,36	1210,35
542,56	1269,74
542,76	1226,73
542,95	1279,98
543,15	1185,77
543,35	1288,17
543,54	1222,64
543,74	1327,08
543,94	1300,46
544,14	1263,60
544,33	1284,08
544,53	1228,78
544,73	1269,74
544,93	1253,36
545,12	1232,88
545,32	1263,60
545,52	1245,16
545,71	1138,67
545,91	1318,89
546,11	1251,31
546,30	1279,98
546,50	1245,16
546,70	1232,88
546,90	1331,18
547,09	1255,40
547,29	1306,60
547,49	1245,16
547,68	1206,25
547,88	1265,64
548,08	1218,54
548,27	1384,43
548,47	1251,31
548,67	1286,12
548,87	1257,45
549,06	1327,08
549,26	1322,99
549,46	1286,12
549,65	1261,55
549,85	1273,84
550,05	1265,64
550,24	1300,46
550,44	1273,84
550,64	1261,55
550,83	1239,02
551,03	1259,50
551,23	1300,46
551,42	1333,23
551,62	1224,69
551,82	1183,73
552,01	1314,80
552,21	1290,22
552,41	1316,84
552,60	1294,32
552,80	1261,55
553,00	1277,93
553,19	1302,51
553,39	1343,47
553,59	1239,02
553,78	1308,65
553,98	1247,21
554,17	1255,40
554,37	1222,64
554,57	1243,12
554,76	1204,21
554,96	1277,93
555,16	1275,88
555,35	1257,45
555,55	1341,42
555,75	1290,22
555,94	1279,98
556,14	1230,83
556,33	1230,83
556,53	1318,89
556,73	1288,17
556,92	1236,97
557,12	1341,42
557,32	1261,55
557,51	1341,42
557,71	1296,36
557,90	1214,45
558,10	1210,35
558,30	1220,59
558,49	1290,22
558,69	1259,50
558,88	1257,45
559,08	1394,67
559,28	1290,22
559,47	1241,07
559,67	1265,64
559,86	1269,74
560,06	1331,18
560,26	1318,89
560,45	1247,21
560,65	1230,83
560,84	1292,27
561,04	1222,64
561,24	1318,89
561,43	1255,40
561,63	1259,50
561,82	1232,88
562,02	1191,92
562,22	1265,64
562,41	1177,58
562,61	1249,26
562,80	1259,50
563,00	1337,32
563,19	1257,45
563,39	1310,70
563,59	1275,88
563,78	1294,32
563,98	1304,56
564,17	1292,27
564,37	1247,21
564,56	1261,55
564,76	1273,84
564,96	1202,16
565,15	1218,54
565,35	1292,27
565,54	1257,45
565,74	1232,88
565,93	1249,26
566,13	1259,50
566,32	1286,12
566,52	1212,40
566,71	1263,60
566,91	1273,84
567,11	1318,89
567,30	1277,93
567,50	1265,64
567,69	1253,36
567,89	1271,79
568,08	1220,59
568,28	1284,08
568,47	1269,74
568,67	1267,69
568,86	1243,12
569,06	1253,36
569,25	1304,56
569,45	1234,93
569,64	1279,98
569,84	1247,21
570,04	1257,45
570,23	1282,03
570,43	1261,55
570,62	1314,80
570,82	1284,08
571,01	1277,93
571,21	1267,69
571,40	1208,30
571,60	1212,40
571,79	1224,69
571,99	1277,93
572,18	1224,69
572,38	1261,55
572,57	1351,66
572,77	1277,93
572,96	1275,88
573,16	1255,40
573,35	1273,84
573,55	1331,18
573,74	1224,69
573,94	1232,88
574,13	1314,80
574,33	1261,55
574,52	1208,30
574,71	1294,32
574,91	1239,02
575,10	1288,17
575,30	1236,97
575,49	1257,45
575,69	1253,36
575,88	1273,84
576,08	1249,26
576,27	1310,70
576,47	1267,69
576,66	1265,64
576,86	1222,64
577,05	1261,55
577,25	1216,49
577,44	1265,64
577,64	1208,30
577,83	1275,88
578,02	1275,88
578,22	1189,87
578,41	1261,55
578,61	1275,88
578,80	1232,88
579,00	1288,17
579,19	1243,12
579,39	1216,49
579,58	1296,36
579,77	1232,88
579,97	1257,45
580,16	1279,98
580,36	1232,88
580,55	1239,02
580,75	1308,65
580,94	1208,30
581,13	1298,41
581,33	1355,76
581,52	1265,64
581,72	1257,45
581,91	1247,21
582,11	1288,17
582,30	1169,39
582,49	1226,73
582,69	1259,50
582,88	1302,51
583,08	1273,84
583,27	1331,18
583,47	1236,97
583,66	1312,75
583,85	1302,51
584,05	1196,01
584,24	1224,69
584,44	1259,50
584,63	1218,54
584,82	1300,46
585,02	1302,51
585,21	1251,31
585,41	1286,12
585,60	1234,93
585,79	1257,45
585,99	1290,22
586,18	1290,22
586,37	1277,93
586,57	1282,03
586,76	1247,21
586,96	1247,21
587,15	1241,07
587,34	1296,36
587,54	1228,78
587,73	1259,50
587,93	1296,36
588,12	1331,18
588,31	1249,26
588,51	1259,50
588,70	1257,45
588,89	1208,30
589,09	1304,56
589,28	1271,79
589,47	1247,21
589,67	1290,22
589,86	1222,64
590,06	1216,49
590,25	1269,74
590,44	1302,51
590,64	1290,22
590,83	1212,40
591,02	1206,25
591,22	1249,26
591,41	1265,64
591,60	1271,79
591,80	1292,27
591,99	1243,12
592,18	1304,56
592,38	1312,75
592,57	1267,69
592,76	1292,27
592,96	1228,78
593,15	1329,13
593,34	1247,21
593,54	1249,26
593,73	1181,68
593,92	1202,16
594,12	1259,50
594,31	1318,89
594,50	1298,41
594,70	1175,53
594,89	1288,17
595,08	1294,32
595,28	1314,80
595,47	1286,12
595,66	1320,94
595,86	1196,01
596,05	1275,88
596,24	1218,54
596,43	1277,93
596,63	1290,22
596,82	1271,79
597,01	1331,18
597,21	1243,12
597,40	1210,35
597,59	1277,93
597,79	1288,17
597,98	1279,98
598,17	1234,93
598,36	1241,07
598,56	1273,84
598,75	1308,65
598,94	1298,41
599,14	1193,97
599,33	1292,27
599,52	1282,03
599,71	1288,17
599,91	1292,27
600,10	1138,67
600,29	1249,26
600,48	1253,36
600,68	1359,85
600,87	1222,64
601,06	1312,75
601,26	1257,45
601,45	1251,31
601,64	1282,03
601,83	1257,45
602,03	1337,32
602,22	1243,12
602,41	1206,25
602,60	1302,51
602,80	1273,84
602,99	1255,40
603,18	1239,02
603,37	1214,45
603,57	1347,56
603,76	1341,42
603,95	1296,36
604,14	1265,64
604,34	1204,21
604,53	1224,69
604,72	1212,40
604,91	1310,70
605,10	1269,74
605,30	1232,88
605,49	1294,32
605,68	1284,08
605,87	1228,78
606,07	1196,01
606,26	1298,41
606,45	1263,60
606,64	1236,97
606,84	1257,45
607,03	1245,16
607,22	1335,28
607,41	1327,08
607,60	1314,80
607,80	1263,60
607,99	1298,41
608,18	1257,45
608,37	1286,12
608,56	1271,79
608,76	1181,68
608,95	1251,31
609,14	1304,56
609,33	1265,64
609,52	1282,03
609,72	1290,22
609,91	1282,03
610,10	1234,93
610,29	1196,01
610,48	1277,93
610,68	1263,60
610,87	1271,79
611,06	1331,18
611,25	1298,41
611,44	1282,03
611,63	1142,77
611,83	1245,16
612,02	1269,74
612,21	1265,64
612,40	1210,35
612,59	1308,65
612,79	1277,93
612,98	1318,89
613,17	1290,22
613,36	1230,83
613,55	1275,88
613,74	1232,88
613,93	1255,40
614,13	1304,56
614,32	1212,40
614,51	1306,60
614,70	1200,11
614,89	1228,78
615,08	1259,50
615,28	1296,36
615,47	1224,69
615,66	1300,46
615,85	1155,05
616,04	1316,84
616,23	1191,92
616,42	1253,36
616,62	1271,79
616,81	1306,60
617,00	1275,88
617,19	1374,19
617,38	1355,76
617,57	1271,79
617,76	1275,88
617,95	1247,21
618,15	1288,17
618,34	1327,08
618,53	1327,08
618,72	1298,41
618,91	1325,04
619,10	1271,79
619,29	1193,97
619,48	1279,98
619,68	1224,69
619,87	1282,03
620,06	1286,12
620,25	1173,49
620,44	1343,47
620,63	1290,22
620,82	1335,28
621,01	1282,03
621,20	1269,74
621,39	1267,69
621,59	1228,78
621,78	1310,70
621,97	1142,77
622,16	1374,19
622,35	1249,26
622,54	1183,73
622,73	1271,79
622,92	1300,46
623,11	1222,64
623,30	1230,83
623,49	1290,22
623,68	1230,83
623,88	1222,64
624,07	1337,32
624,26	1273,84
624,45	1247,21
624,64	1306,60
624,83	1265,64
625,02	1282,03
625,21	1284,08
625,40	1277,93
625,59	1228,78
625,78	1277,93
625,97	1304,56
626,16	1206,25
626,35	1282,03
626,54	1259,50
626,74	1320,94
626,93	1292,27
627,12	1347,56
627,31	1320,94
627,50	1288,17
627,69	1261,55
627,88	1312,75
628,07	1251,31
628,26	1279,98
628,45	1294,32
628,64	1333,23
628,83	1167,34
629,02	1320,94
629,21	1312,75
629,40	1269,74
629,59	1322,99
629,78	1322,99
629,97	1347,56
630,16	1327,08
630,35	1341,42
630,54	1363,95
630,73	1241,07
630,92	1320,94
631,11	1300,46
631,30	1288,17
631,49	1384,43
631,68	1380,33
631,87	2574,30
632,06	7479,18
632,25	12529,47
632,44	18869,98
632,63	29568,57
632,82	32171,54
633,01	17329,91
633,20	6956,95
633,39	4351,93
633,58	3164,11
633,77	2519,00
633,96	2418,65
634,15	2297,82
634,34	2025,44
634,53	1826,79
634,72	1705,96
634,91	1697,77
635,10	1669,09
635,29	1615,85
635,48	1632,23
635,67	1615,85
635,86	1564,65
636,05	1505,26
636,24	1390,57
636,43	1441,77
636,62	1368,04
636,81	1341,42
637,00	1331,18
637,19	1361,90
637,38	1279,98
637,57	1300,46
637,76	1382,38
637,95	1345,52
638,14	1329,13
638,33	1302,51
638,52	1304,56
638,71	1327,08
638,89	1273,84
639,08	1298,41
639,27	1265,64
639,46	1302,51
639,65	1247,21
639,84	1314,80
640,03	1314,80
640,22	1249,26
640,41	1345,52
640,60	1230,83
640,79	1279,98
640,98	1294,32
641,17	1310,70
641,36	1300,46
641,55	1329,13
641,74	1212,40
641,92	1255,40
642,11	1263,60
642,30	1273,84
642,49	1339,37
642,68	1257,45
642,87	1331,18
643,06	1316,84
643,25	1277,93
643,44	1249,26
643,63	1312,75
643,82	1259,50
644,00	1306,60
644,19	1300,46
644,38	1316,84
644,57	1212,40
644,76	1277,93
644,95	1320,94
645,14	1302,51
645,33	1249,26
645,52	1279,98
645,71	1306,60
645,89	1304,56
646,08	1218,54
646,27	1228,78
646,46	1318,89
646,65	1253,36
646,84	1292,27
647,03	1288,17
647,22	1294,32
647,40	1273,84
647,59	1288,17
647,78	1282,03
647,97	1380,33
648,16	1302,51
648,35	1247,21
648,54	1245,16
648,73	1331,18
648,91	1214,45
649,10	1269,74
649,29	1296,36
649,48	1236,97
649,67	1298,41
649,86	1232,88
650,05	1183,73
650,23	1359,85
650,42	1322,99
650,61	1161,20
650,80	1251,31
650,99	1282,03
651,18	1236,97
651,36	1214,45
651,55	1341,42
651,74	1263,60
651,93	1239,02
652,12	1298,41
652,31	1224,69
652,49	1282,03
652,68	1251,31
652,87	1263,60
653,06	1284,08
653,25	1314,80
653,44	1249,26
653,62	1247,21
653,81	1243,12
654,00	1269,74
654,19	1257,45
654,38	1232,88
654,56	1236,97
654,75	1370,09
654,94	1230,83
655,13	1249,26
655,32	1312,75
655,51	1222,64
655,69	1329,13
655,88	1257,45
656,07	1220,59
656,26	1343,47
656,45	1236,97
656,63	1271,79
656,82	1312,75
657,01	1255,40
657,20	1187,82
657,38	1294,32
657,57	1236,97
657,76	1210,35
657,95	1261,55
658,14	1308,65
658,32	1230,83
658,51	1200,11
658,70	1267,69
658,89	1212,40
659,08	1230,83
659,26	1249,26
659,45	1255,40
659,64	1243,12
659,83	1271,79
660,01	1206,25
660,20	1185,77
660,39	1320,94
660,58	1267,69
660,76	1290,22
660,95	1271,79
661,14	1275,88
661,33	1286,12
661,51	1247,21
661,70	1292,27
661,89	1247,21
662,08	1236,97
662,26	1249,26
662,45	1204,21
662,64	1251,31
662,83	1224,69
663,01	1294,32
663,20	1212,40
663,39	1232,88
663,58	1290,22
663,76	1261,55
663,95	1214,45
664,14	1226,73
664,32	1355,76
664,51	1279,98
664,70	1325,04
664,89	1179,63
665,07	1292,27
665,26	1163,25
665,45	1347,56
665,64	1249,26
665,82	1247,21
666,01	1286,12
666,20	1249,26
666,38	1269,74
666,57	1310,70
666,76	1198,06
666,95	1261,55
667,13	1206,25
667,32	1245,16
667,51	1282,03
667,69	1232,88
667,88	1259,50
668,07	1241,07
668,25	1265,64
668,44	1298,41
668,63	1286,12
668,81	1302,51
669,00	1247,21
669,19	1212,40
669,38	1212,40
669,56	1277,93
669,75	1249,26
669,94	1298,41
670,12	1322,99
670,31	1196,01
670,50	1273,84
670,68	1169,39
670,87	1333,23
671,06	1277,93
671,24	1269,74
671,43	1259,50
671,62	1236,97
671,80	1273,84
671,99	1163,25
672,18	1296,36
672,36	1271,79
672,55	1279,98
672,74	1341,42
672,92	1284,08
673,11	1286,12
673,29	1322,99
673,48	1290,22
673,67	1200,11
673,85	1232,88
674,04	1234,93
674,23	1239,02
674,41	1230,83
674,60	1261,55
674,79	1261,55
674,97	1241,07
675,16	1255,40
675,34	1275,88
675,53	1196,01
675,72	1306,60
675,90	1282,03
676,09	1232,88
676,28	1224,69
676,46	1312,75
676,65	1251,31
676,83	1251,31
677,02	1277,93
677,21	1290,22
677,39	1253,36
677,58	1277,93
677,77	1271,79
677,95	1279,98
678,14	1257,45
678,32	1341,42
678,51	1286,12
678,70	1271,79
678,88	1191,92
679,07	1286,12
679,25	1263,60
679,44	1329,13
679,63	1282,03
679,81	1202,16
680,00	1218,54
680,18	1265,64
680,37	1214,45
680,55	1251,31
680,74	1253,36
680,93	1259,50
681,11	1275,88
681,30	1298,41
681,48	1234,93
681,67	1282,03
681,85	1275,88
682,04	1339,37
682,23	1286,12
682,41	1220,59
682,60	1259,50
682,78	1236,97
682,97	1243,12
683,15	1290,22
683,34	1343,47
683,53	1304,56
683,71	1269,74
683,90	1310,70
684,08	1271,79
684,27	1214,45
684,45	1241,07
684,64	1269,74
684,82	1247,21
685,01	1261,55
685,19	1245,16
685,38	1206,25
685,57	1290,22
685,75	1222,64
685,94	1318,89
686,12	1284,08
686,31	1269,74
686,49	1257,45
686,68	1284,08
686,86	1290,22
687,05	1257,45
687,23	1230,83
687,42	1148,91
687,60	1282,03
687,79	1306,60
687,97	1247,21
688,16	1226,73
688,34	1314,80
688,53	1273,84
688,71	1261,55
688,90	1214,45
689,08	1349,61
689,27	1214,45
689,45	1261,55
689,64	1261,55
689,82	1204,21
690,01	1259,50
690,19	1282,03
690,38	1314,80
690,56	1279,98
690,75	1286,12
690,93	1222,64
691,12	1232,88
691,30	1380,33
691,49	1271,79
691,67	1294,32
691,86	1333,23
692,04	1279,98
692,23	1249,26
692,41	1292,27
692,60	1335,28
692,78	1390,57
692,97	1220,59
693,15	1249,26
693,34	1253,36
693,52	1261,55
693,71	1394,67
693,89	1282,03
694,08	1320,94
694,26	1257,45
694,44	1314,80
694,63	1284,08
694,81	1263,60
695,00	1337,32
695,18	1257,45
695,37	1226,73
695,55	1292,27
695,74	1247,21
695,92	1224,69
696,10	1345,52
696,29	1236,97
696,47	1322,99
696,66	1216,49
696,84	1181,68
697,03	1263,60
697,21	1300,46
697,40	1296,36
697,58	1282,03
697,76	1277,93
697,95	1239,02
698,13	1271,79
698,32	1249,26
698,50	1173,49
698,68	1204,21
698,87	1284,08
699,05	1347,56
699,24	1177,58
699,42	1271,79
699,61	1269,74
699,79	1290,22
699,97	1279,98
700,16	1216,49
700,34	1286,12
700,53	1282,03
700,71	1232,88
700,89	1320,94
701,08	1286,12
701,26	1271,79
701,45	1282,03
701,63	1378,28
701,81	1286,12
702,00	1247,21
702,18	1206,25
702,37	1279,98
702,55	1253,36
702,73	1251,31
702,92	1224,69
703,10	1306,60
703,28	1185,77
703,47	1265,64
703,65	1243,12
703,84	1224,69
704,02	1232,88
704,20	1265,64
704,39	1212,40
704,57	1261,55
704,75	1341,42
704,94	1263,60
705,12	1269,74
705,30	1351,66
705,49	1318,89
705,67	1267,69
705,86	1251,31
706,04	1206,25
706,22	1279,98
706,41	1241,07
706,59	1212,40
706,77	1224,69
706,96	1257,45
707,14	1261,55
707,32	1210,35
707,51	1275,88
707,69	1163,25
707,87	1329,13
708,06	1363,95
708,24	1239,02
708,42	1298,41
708,61	1228,78
708,79	1245,16
708,97	1288,17
709,16	1288,17
709,34	1290,22
709,52	1312,75
709,71	1220,59
709,89	1331,18
710,07	1306,60
710,26	1265,64
710,44	1222,64
710,62	1265,64
710,80	1243,12
710,99	1333,23
711,17	1304,56
711,35	1292,27
711,54	1282,03
711,72	1239,02
711,90	1294,32
712,09	1247,21
712,27	1263,60
712,45	1298,41
712,63	1277,93
712,82	1208,30
713,00	1206,25
713,18	1329,13
713,37	1218,54
713,55	1335,28
713,73	1273,84
713,91	1249,26
714,10	1230,83
714,28	1245,16
714,46	1286,12
714,65	1230,83
714,83	1230,83
715,01	1196,01
715,19	1263,60
715,38	1243,12
715,56	1259,50
715,74	1277,93
715,92	1210,35
716,11	1263,60
716,29	1257,45
716,47	1255,40
716,65	1230,83
716,84	1234,93
717,02	1265,64
717,20	1277,93
717,38	1292,27
717,57	1310,70
717,75	1294,32
717,93	1249,26
718,11	1286,12
718,30	1261,55
718,48	1300,46
718,66	1345,52
718,84	1286,12
719,03	1263,60
719,21	1216,49
719,39	1239,02
719,57	1232,88
719,75	1308,65
719,94	1234,93
720,12	1261,55
720,30	1257,45
720,48	1247,21
720,67	1263,60
720,85	1255,40
721,03	1249,26
721,21	1257,45
721,39	1222,64
721,58	1288,17
721,76	1206,25
721,94	1282,03
722,12	1273,84
722,30	1257,45
722,49	1298,41
722,67	1275,88
722,85	1290,22
723,03	1269,74
723,21	1228,78
723,40	1273,84
723,58	1345,52
723,76	1261,55
723,94	1292,27
724,12	1214,45
724,30	1353,71
724,49	1236,97
724,67	1320,94
724,85	1335,28
725,03	1263,60
725,21	1232,88
725,40	1265,64
725,58	1249,26
725,76	1249,26
725,94	1277,93
726,12	1314,80
726,30	1253,36
726,49	1261,55
726,67	1216,49
726,85	1261,55
727,03	1331,18
727,21	1247,21
727,39	1343,47
727,57	1189,87
727,76	1273,84
727,94	1263,60
728,12	1290,22
728,30	1236,97
728,48	1220,59
728,66	1306,60
728,84	1282,03
729,03	1308,65
729,21	1228,78
729,39	1302,51
729,57	1292,27
729,75	1284,08
729,93	1193,97
730,11	1275,88
730,30	1228,78
730,48	1325,04
730,66	1236,97
730,84	1286,12
731,02	1347,56
731,20	1232,88
731,38	1325,04
731,56	1249,26
731,74	1300,46
731,93	1226,73
732,11	1333,23
732,29	1261,55
732,47	1245,16
732,65	1247,21
732,83	1294,32
733,01	1306,60
733,19	1191,92
733,37	1239,02
733,56	1308,65
733,74	1308,65
733,92	1214,45
734,10	1310,70
734,28	1257,45
734,46	1247,21
734,64	1257,45
734,82	1263,60
735,00	1296,36
735,18	1279,98
735,36	1228,78
735,54	1304,56
735,73	1259,50
735,91	1247,21
736,09	1265,64
736,27	1363,95
736,45	1245,16
736,63	1214,45
736,81	1288,17
736,99	1271,79
737,17	1284,08
737,35	1263,60
737,53	1320,94
737,71	1275,88
737,89	1265,64
738,07	1282,03
738,25	1327,08
738,43	1273,84
738,61	1318,89
738,80	1341,42
738,98	1308,65
739,16	1189,87
739,34	1255,40
739,52	1273,84
739,70	1257,45
739,88	1290,22
740,06	1255,40
740,24	1253,36
740,42	1261,55
740,60	1273,84
740,78	1357,80
740,96	1183,73
741,14	1198,06
741,32	1216,49
741,50	1204,21
741,68	1298,41
741,86	1312,75
742,04	1292,27
742,22	1245,16
742,40	1245,16
742,58	1228,78
742,76	1247,21
742,94	1337,32
743,12	1273,84
743,30	1312,75
743,48	1251,31
743,66	1259,50
743,84	1271,79
744,02	1284,08
744,20	1345,52
744,38	1294,32
744,56	1296,36
744,74	1224,69
744,92	1243,12
745,10	1236,97
745,28	1361,90
745,46	1286,12
745,64	1243,12
745,82	1314,80
746,00	1296,36
746,18	1251,31
746,36	1300,46
746,54	1302,51
746,72	1267,69
746,90	1322,99
747,08	1267,69
747,26	1239,02
747,44	1308,65
747,62	1349,61
747,80	1288,17
747,98	1308,65
748,15	1273,84
748,33	1290,22
748,51	1284,08
748,69	1234,93
748,87	1304,56
749,05	1304,56
749,23	1312,75
749,41	1302,51
749,59	1241,07
749,77	1224,69
749,95	1269,74
750,13	1284,08
750,31	1304,56
750,49	1239,02
750,67	1189,87
750,85	1241,07
751,03	1290,22
751,20	1279,98
751,38	1300,46
751,56	1247,21
751,74	1275,88
751,92	1290,22
752,10	1273,84
752,28	1245,16
752,46	1269,74
752,64	1210,35
752,82	1263,60
753,00	1253,36
753,18	1259,50
753,35	1249,26
753,53	1277,93
753,71	1232,88
753,89	1257,45
754,07	1288,17
754,25	1261,55
754,43	1312,75
754,61	1267,69
754,79	1267,69
754,97	1316,84
755,14	1257,45
755,32	1292,27
755,50	1204,21
755,68	1253,36
755,86	1329,13
756,04	1255,40
756,22	1232,88
756,40	1224,69
756,57	1288,17
756,75	1304,56
756,93	1282,03
757,11	1247,21
757,29	1163,25
757,47	1294,32
757,65	1208,30
757,82	1257,45
758,00	1241,07
758,18	1234,93
758,36	1243,12
758,54	1378,28
758,72	1284,08
758,90	1288,17
759,07	1320,94
759,25	1263,60
759,43	1222,64
759,61	1224,69
759,79	1282,03
759,97	1220,59
760,15	1279,98
760,32	1282,03
760,50	1253,36
760,68	1255,40
760,86	1259,50
761,04	1357,80
761,22	1226,73
761,39	1286,12
761,57	1286,12
761,75	1325,04
761,93	1275,88
762,11	1314,80
762,28	1247,21
762,46	1273,84
762,64	1224,69
762,82	1327,08
763,00	1236,97
763,18	1234,93
763,35	1267,69
763,53	1239,02
763,71	1298,41
763,89	1288,17
764,07	1275,88
764,24	1226,73
764,42	1226,73
764,60	1294,32
764,78	1232,88
764,96	1302,51
765,13	1277,93
765,31	1214,45
765,49	1257,45
765,67	1288,17
765,84	1296,36
766,02	1204,21
766,20	1206,25
766,38	1357,80
766,56	1218,54
766,73	1300,46
766,91	1284,08
767,09	1214,45
767,27	1216,49
767,44	1271,79
767,62	1312,75
767,80	1226,73
767,98	1245,16
768,15	1269,74
768,33	1290,22
768,51	1294,32
768,69	1228,78
768,87	1228,78
769,04	1232,88
769,22	1292,27
769,40	1263,60
769,58	1286,12
769,75	1273,84
769,93	1239,02
770,11	1236,97
770,28	1245,16
770,46	1259,50
770,64	1255,40
770,82	1259,50
770,99	1288,17
771,17	1253,36
771,35	1269,74
771,53	1259,50
771,70	1329,13
771,88	1189,87
772,06	1304,56
772,23	1261,55
772,41	1236,97
772,59	1265,64
772,77	1322,99
772,94	1204,21
773,12	1232,88
773,30	1230,83
773,47	1273,84
773,65	1269,74
773,83	1292,27
774,01	1288,17
774,18	1290,22
774,36	1308,65
774,54	1259,50
774,71	1304,56
774,89	1204,21
775,07	1234,93
775,24	1314,80
775,42	1247,21
775,60	1298,41
775,78	1269,74
775,95	1206,25
776,13	1210,35
776,31	1286,12
776,48	1271,79
776,66	1236,97
776,84	1294,32
777,01	1282,03
777,19	1259,50
777,37	1257,45
777,54	1259,50
777,72	1290,22
777,90	1261,55
778,07	1267,69
778,25	1290,22
778,43	1286,12
778,60	1230,83
778,78	1247,21
778,96	1310,70
779,13	1232,88
779,31	1222,64
779,49	1232,88
779,66	1255,40
779,84	1288,17
780,01	1249,26
780,19	1222,64
780,37	1286,12
780,54	1267,69
780,72	1261,55
780,90	1284,08
781,07	1224,69
781,25	1265,64
781,43	1284,08
781,60	1265,64
781,78	1247,21
781,95	1273,84
782,13	1277,93
782,31	1380,33
782,48	1249,26
782,66	1314,80
782,83	1220,59
783,01	1279,98
783,19	1241,07
783,36	1333,23
783,54	1275,88
783,72	1230,83
783,89	1257,45
784,07	1216,49
784,24	1271,79
784,42	1331,18
784,60	1239,02
784,77	1294,32
784,95	1316,84
785,12	1267,69
785,30	1243,12
785,47	1320,94
785,65	1288,17
785,83	1212,40
786,00	1302,51
786,18	1241,07
786,35	1249,26
786,53	1304,56
786,71	1294,32
786,88	1259,50
787,06	1277,93
787,23	1282,03
787,41	1257,45
787,58	1243,12
787,76	1249,26
787,94	1333,23
788,11	1333,23
788,29	1202,16
788,46	1206,25
788,64	1259,50
788,81	1257,45
788,99	1259,50
789,16	1271,79
789,34	1228,78
789,52	1261,55
789,69	1265,64
789,87	1298,41
790,04	1208,30
790,22	1251,31
790,39	1251,31
790,57	1288,17
790,74	1347,56
790,92	1265,64
791,09	1310,70
791,27	1247,21
791,44	1224,69
791,62	1241,07
791,79	1243,12
791,97	1224,69
792,15	1261,55
792,32	1288,17
792,50	1265,64
792,67	1329,13
792,85	1302,51
793,02	1273,84
793,20	1277,93
793,37	1177,58
793,55	1257,45
793,72	1255,40
793,90	1267,69
794,07	1204,21
794,25	1261,55
794,42	1294,32
794,60	1265,64
794,77	1282,03
794,95	1292,27
795,12	1234,93
795,30	1267,69
795,47	1218,54
795,65	1331,18
795,82	1261,55
796,00	1218,54
796,17	1331,18
796,34	1241,07
796,52	1239,02
796,69	1263,60
796,87	1322,99
797,04	1204,21
797,22	1204,21
797,39	1239,02
797,57	1273,84
797,74	1310,70
797,92	1288,17
798,09	1275,88
798,27	1253,36
798,44	1204,21
798,62	1329,13
798,79	1273,84
798,96	1314,80
799,14	1312,75
799,31	1249,26
799,49	1273,84
799,66	1279,98
799,84	1288,17
800,01	1300,46
800,19	1290,22
800,36	1300,46
800,53	1253,36
800,71	1265,64
800,88	1239,02
801,06	1234,93
801,23	1257,45
801,41	1220,59
801,58	1175,53
801,75	1222,64
801,93	1271,79
802,10	1341,42
802,28	1220,59
802,45	1198,06
802,63	1241,07
802,80	1288,17
802,97	1247,21
803,15	1265,64
803,32	1169,39
803,50	1230,83
803,67	1296,36
803,84	1282,03
804,02	1251,31
804,19	1284,08
804,37	1257,45
804,54	1224,69
804,71	1251,31
804,89	1288,17
805,06	1298,41
805,24	1312,75
805,41	1279,98
805,58	1263,60
805,76	1288,17
805,93	1282,03
806,10	1234,93
806,28	1261,55
806,45	1220,59
806,63	1218,54
806,80	1236,97
806,97	1228,78
807,15	1329,13
807,32	1286,12
807,49	1236,97
807,67	1294,32
807,84	1318,89
808,01	1261,55
808,19	1271,79
808,36	1218,54
808,54	1163,25
808,71	1191,92
808,88	1228,78
809,06	1341,42
809,23	1243,12
809,40	1294,32
809,58	1279,98
809,75	1288,17
809,92	1255,40
810,10	1284,08
810,27	1236,97
810,44	1282,03
810,62	1257,45
810,79	1273,84
810,96	1251,31
811,14	1216,49
811,31	1218,54
811,48	1222,64
811,66	1282,03
811,83	1296,36
812,00	1265,64
812,18	1271,79
812,35	1265,64
812,52	1337,32
812,69	1208,30
812,87	1224,69
813,04	1279,98
813,21	1208,30
813,39	1249,26
813,56	1275,88
813,73	1255,40
813,91	1310,70
814,08	1239,02
814,25	1308,65
814,42	1273,84
814,60	1302,51
814,77	1273,84
814,94	1261,55
815,12	1300,46
815,29	1265,64
815,46	1236,97
815,63	1247,21
815,81	1251,31
815,98	1261,55
816,15	1251,31
816,33	1220,59
816,50	1257,45
816,67	1257,45
816,84	1314,80
817,02	1257,45
817,19	1304,56
817,36	1279,98
817,53	1290,22
817,71	1232,88
817,88	1327,08
818,05	1208,30
818,22	1263,60
818,40	1353,71
818,57	1273,84
818,74	1177,58
818,91	1288,17
819,09	1277,93
819,26	1312,75
819,43	1228,78
819,60	1298,41
819,78	1290,22
819,95	1239,02
820,12	1208,30
820,29	1271,79
820,47	1329,13
820,64	1279,98
820,81	1275,88
820,98	1273,84
821,15	1284,08
821,33	1339,37
821,50	1271,79
821,67	1220,59
821,84	1257,45
822,02	1294,32
822,19	1308,65
822,36	1298,41
822,53	1239,02
822,70	1257,45
822,88	1290,22
823,05	1167,34
823,22	1284,08
823,39	1247,21
823,56	1202,16
823,74	1308,65
823,91	1232,88
824,08	1253,36
824,25	1290,22
824,42	1277,93
824,60	1218,54
824,77	1304,56
824,94	1263,60
825,11	1304,56
825,28	1316,84
825,45	1239,02
825,63	1269,74
825,80	1304,56
825,97	1275,88
826,14	1288,17
826,31	1224,69
826,48	1245,16
826,66	1177,58
826,83	1216,49
827,00	1247,21
827,17	1253,36
827,34	1271,79
827,51	1308,65
827,69	1269,74
827,86	1265,64
828,03	1245,16
828,20	1284,08
828,37	1247,21
828,54	1292,27
828,71	1232,88
828,89	1298,41
829,06	1269,74
829,23	1290,22
829,40	1275,88
829,57	1271,79
829,74	1267,69
829,91	1277,93
830,09	1234,93
830,26	1300,46
830,43	1230,83
830,60	1310,70
830,77	1251,31
830,94	1292,27
831,11	1273,84
831,28	1210,35
831,46	1282,03
831,63	1267,69
831,80	1271,79
831,97	1267,69
832,14	1298,41
832,31	1275,88
832,48	1279,98
832,65	1308,65
832,82	1273,84
832,99	1241,07
833,17	1210,35
833,34	1218,54
833,51	1253,36
833,68	1282,03
833,85	1265,64
834,02	1216,49
834,19	1273,84
834,36	1269,74
834,53	1331,18
834,70	1263,60
834,87	1247,21
835,04	1298,41
835,22	1224,69
835,39	1279,98
835,56	1224,69
835,73	1232,88
835,90	1273,84
836,07	1273,84
836,24	1279,98
836,41	1249,26
836,58	1355,76
836,75	1247,21
836,92	1249,26
837,09	1247,21
837,26	1294,32
837,43	1243,12
837,60	1241,07
837,77	1286,12
837,94	1267,69
838,12	1255,40
838,29	1257,45
838,46	1239,02
838,63	1273,84
838,80	1306,60
838,97	1277,93
839,14	1290,22
839,31	1239,02
839,48	1314,80
839,65	1224,69
839,82	1228,78
839,99	1230,83
840,16	1277,93
840,33	1239,02
840,50	1232,88
840,67	1239,02
840,84	1249,26
841,01	1239,02
841,18	1245,16
841,35	1253,36
841,52	1325,04
841,69	1265,64
841,86	1224,69
842,03	1273,84
842,20	1261,55
842,37	1239,02
842,54	1286,12
842,71	1249,26
842,88	1259,50
843,05	1249,26
843,22	1288,17
843,39	1302,51
843,56	1271,79
843,73	1275,88
843,90	1224,69
844,07	1316,84
844,24	1241,07
844,41	1253,36
844,58	1347,56
844,75	1257,45
844,92	1239,02
845,09	1296,36
845,26	1247,21
845,43	1216,49
845,60	1316,84
845,77	1249,26
845,94	1290,22
846,10	1261,55
846,27	1214,45
846,44	1216,49
846,61	1318,89
846,78	1265,64
846,95	1273,84
847,12	1171,44
847,29	1255,40
847,46	1271,79
847,63	1216,49
847,80	1257,45
847,97	1198,06
848,14	1263,60
848,31	1222,64
848,48	1259,50
848,65	1269,74
848,82	1255,40
848,98	1308,65
849,15	1185,77
849,32	1308,65
849,49	1257,45
849,66	1302,51
849,83	1318,89
850,00	1292,27
850,17	1271,79
850,34	1316,84
850,51	1273,84
850,68	1318,89
850,85	1163,25
851,01	1275,88
851,18	1196,01
851,35	1255,40
851,52	1288,17
851,69	1331,18
851,86	1286,12
852,03	1279,98
852,20	1253,36
852,37	1267,69
852,53	1279,98
852,70	1308,65
852,87	1253,36
853,04	1212,40
853,21	1259,50
853,38	1349,61
853,55	1243,12
853,72	1269,74
853,89	1273,84
854,05	1318,89
854,22	1302,51
854,39	1269,74
854,56	1249,26
854,73	1282,03
854,90	1257,45
855,07	1343,47
855,23	1193,97
855,40	1228,78
855,57	1273,84
855,74	1271,79
855,91	1298,41
856,08	1302,51
856,25	1298,41
856,41	1290,22
856,58	1265,64
856,75	1292,27
856,92	1302,51
857,09	1304,56
857,26	1273,84
857,42	1312,75
857,59	1247,21
857,76	1282,03
857,93	1339,37
858,10	1300,46
858,27	1232,88
858,43	1294,32
858,60	1265,64
858,77	1249,26
858,94	1257,45
859,11	1304,56
859,27	1259,50
859,44	1361,90
859,61	1290,22
859,78	1286,12
859,95	1220,59
860,12	1304,56
860,28	1269,74
860,45	1185,77
860,62	1284,08
860,79	1247,21
860,95	1286,12
861,12	1228,78
861,29	1245,16
861,46	1257,45
861,63	1318,89
861,79	1296,36
861,96	1308,65
862,13	1259,50
862,30	1232,88
862,47	1226,73
862,63	1298,41
862,80	1257,45
862,97	1269,74
863,14	1273,84
863,30	1353,71
863,47	1273,84
863,64	1214,45
863,81	1243,12
863,97	1288,17
864,14	1329,13
864,31	1282,03
864,48	1279,98
864,65	1234,93
864,81	1224,69
864,98	1269,74
865,15	1288,17
865,32	1218,54
865,48	1253,36
865,65	1234,93
865,82	1249,26
865,98	1239,02
866,15	1232,88
866,32	1267,69
866,49	1292,27
866,65	1290,22
866,82	1304,56
866,99	1292,27
867,16	1220,59
867,32	1193,97
867,49	1263,60
867,66	1282,03
867,83	1286,12
867,99	1271,79
868,16	1239,02
868,33	1232,88
868,49	1292,27
868,66	1241,07
868,83	1318,89
868,99	1351,66
869,16	1282,03
869,33	1239,02
869,50	1200,11
869,66	1261,55
869,83	1247,21
870,00	1312,75
870,16	1236,97
870,33	1277,93
870,50	1245,16
870,66	1234,93
870,83	1312,75
871,00	1255,40
871,17	1200,11
871,33	1298,41
871,50	1200,11
871,67	1271,79
871,83	1253,36
872,00	1286,12
872,17	1265,64
872,33	1277,93
872,50	1224,69
872,67	1245,16
872,83	1263,60
873,00	1284,08
873,17	1275,88
873,33	1296,36
873,50	1265,64
873,67	1277,93
873,83	1253,36
874,00	1230,83
874,16	1265,64
874,33	1269,74
874,50	1292,27
874,66	1275,88
874,83	1300,46
875,00	1255,40
875,16	1298,41
875,33	1251,31
875,50	1333,23
875,66	1189,87
875,83	1316,84
875,99	1245,16
876,16	1284,08
876,33	1292,27
876,49	1269,74
876,66	1284,08
876,83	1286,12
876,99	1298,41
877,16	1210,35
877,32	1273,84
877,49	1277,93
877,66	1245,16
877,82	1234,93
877,99	1265,64
878,15	1320,94
878,32	1247,21
878,49	1261,55
878,65	1208,30
878,82	1279,98
878,98	1279,98
879,15	1251,31
879,32	1286,12
879,48	1212,40
879,65	1282,03
879,81	1234,93
879,98	1288,17
880,15	1236,97
880,31	1243,12
880,48	1224,69
880,64	1241,07
880,81	1232,88
880,97	1251,31
881,14	1292,27
881,31	1263,60
881,47	1296,36
881,64	1220,59
881,80	1177,58
881,97	1269,74
882,13	1312,75
882,30	1228,78
882,47	1333,23
882,63	1179,63
882,80	1286,12
882,96	1290,22
883,13	1265,64
883,29	1198,06
883,46	1322,99
883,62	1265,64
883,79	1288,17
883,95	1271,79
884,12	1259,50
884,29	1322,99
884,45	1296,36
884,62	1265,64
884,78	1308,65
884,95	1273,84
885,11	1247,21
885,28	1239,02
885,44	1300,46
885,61	1279,98
885,77	1316,84
885,94	1228,78
886,10	1279,98
886,27	1253,36
886,43	1322,99
886,60	1208,30
886,76	1253,36
886,93	1290,22
887,09	1269,74
887,26	1243,12
887,42	1206,25
887,59	1273,84
887,75	1300,46
887,92	1318,89
888,08	1339,37
888,25	1202,16
888,41	1273,84
888,58	1284,08
888,74	1282,03
888,91	1253,36
>>>>>End Processed Spectral Data<<<<<
