SpectraSuite Data File
++++++++++++++++++++++++++++++++++++
Date: Sun Apr 03 14:45:34 CEST 2016
User: root
Dark Spectrum Present: No
Reference Spectrum Present: No
Number of Sampled Component Spectra: 1
Spectrometers: USB4C02835
Integration Time (usec): 10000 (USB4C02835)
Spectra Averaged: 1 (USB4C02835)
Boxcar Smoothing: 0 (USB4C02835)
Correct for Electrical Dark: No (USB4C02835)
Strobe/Lamp Enabled: No (USB4C02835)
Correct for Detector Non-linearity: No (USB4C02835)
Correct for Stray Light: No (USB4C02835)
Number of Pixels in Processed Spectrum: 3648
>>>>>Begin Processed Spectral Data<<<<<
177,47	1275,88
177,69	1275,88
177,91	1275,88
178,13	1200,11
178,36	1251,31
178,58	1259,50
178,80	1284,08
179,02	1146,86
179,24	1304,56
179,46	1220,59
179,68	1245,16
179,90	1273,84
180,13	1296,36
180,35	1265,64
180,57	1230,83
180,79	1286,12
181,01	1359,85
181,23	1290,22
181,45	1261,55
181,67	1251,31
181,90	1277,93
182,12	1314,80
182,34	1243,12
182,56	1271,79
182,78	1259,50
183,00	1265,64
183,22	1279,98
183,44	1310,70
183,66	1310,70
183,89	1257,45
184,11	1304,56
184,33	1243,12
184,55	1202,16
184,77	1279,98
184,99	1294,32
185,21	1259,50
185,43	1247,21
185,65	1234,93
185,87	1204,21
186,10	1298,41
186,32	1288,17
186,54	1232,88
186,76	1232,88
186,98	1134,57
187,20	1241,07
187,42	1304,56
187,64	1333,23
187,86	1261,55
188,08	1236,97
188,30	1294,32
188,52	1208,30
188,75	1249,26
188,97	1337,32
189,19	1310,70
189,41	1318,89
189,63	1265,64
189,85	1208,30
190,07	1351,66
190,29	1302,51
190,51	1255,40
190,73	1251,31
190,95	1271,79
191,17	1236,97
191,39	1241,07
191,61	1296,36
191,84	1247,21
192,06	1234,93
192,28	1269,74
192,50	1253,36
192,72	1267,69
192,94	1241,07
193,16	1290,22
193,38	1183,73
193,60	1257,45
193,82	1271,79
194,04	1275,88
194,26	1257,45
194,48	1282,03
194,70	1306,60
194,92	1255,40
195,14	1320,94
195,36	1236,97
195,58	1312,75
195,80	1226,73
196,02	1198,06
196,24	1251,31
196,46	1306,60
196,69	1288,17
196,91	1257,45
197,13	1329,13
197,35	1282,03
197,57	1292,27
197,79	1343,47
198,01	1282,03
198,23	1239,02
198,45	1265,64
198,67	1265,64
198,89	1251,31
199,11	1327,08
199,33	1335,28
199,55	1284,08
199,77	1322,99
199,99	1316,84
200,21	1318,89
200,43	1255,40
200,65	1198,06
200,87	1257,45
201,09	1269,74
201,31	1322,99
201,53	1253,36
201,75	1259,50
201,97	1247,21
202,19	1290,22
202,41	1247,21
202,63	1314,80
202,85	1279,98
203,07	1265,64
203,29	1292,27
203,51	1282,03
203,73	1241,07
203,95	1247,21
204,17	1239,02
204,39	1286,12
204,61	1261,55
204,83	1298,41
205,05	1269,74
205,27	1310,70
205,49	1306,60
205,71	1277,93
205,93	1236,97
206,15	1318,89
206,37	1200,11
206,59	1259,50
206,81	1282,03
207,03	1329,13
207,25	1275,88
207,47	1322,99
207,69	1312,75
207,91	1222,64
208,13	1257,45
208,34	1257,45
208,56	1310,70
208,78	1228,78
209,00	1288,17
209,22	1236,97
209,44	1171,44
209,66	1302,51
209,88	1277,93
210,10	1222,64
210,32	1228,78
210,54	1208,30
210,76	1255,40
210,98	1255,40
211,20	1251,31
211,42	1302,51
211,64	1355,76
211,86	1263,60
212,08	1275,88
212,30	1259,50
212,52	1220,59
212,74	1286,12
212,96	1335,28
213,17	1325,04
213,39	1200,11
213,61	1339,37
213,83	1230,83
214,05	1316,84
214,27	1241,07
214,49	1298,41
214,71	1247,21
214,93	1247,21
215,15	1216,49
215,37	1183,73
215,59	1255,40
215,81	1296,36
216,03	1202,16
216,24	1286,12
216,46	1286,12
216,68	1314,80
216,90	1255,40
217,12	1251,31
217,34	1245,16
217,56	1247,21
217,78	1312,75
218,00	1279,98
218,22	1310,70
218,44	1288,17
218,66	1214,45
218,87	1331,18
219,09	1216,49
219,31	1253,36
219,53	1267,69
219,75	1179,63
219,97	1257,45
220,19	1249,26
220,41	1200,11
220,63	1230,83
220,85	1187,82
221,06	1329,13
221,28	1218,54
221,50	1275,88
221,72	1257,45
221,94	1347,56
222,16	1263,60
222,38	1239,02
222,60	1265,64
222,82	1263,60
223,03	1247,21
223,25	1316,84
223,47	1230,83
223,69	1245,16
223,91	1320,94
224,13	1320,94
224,35	1228,78
224,57	1267,69
224,78	1290,22
225,00	1259,50
225,22	1179,63
225,44	1298,41
225,66	1288,17
225,88	1349,61
226,10	1236,97
226,32	1298,41
226,53	1251,31
226,75	1271,79
226,97	1263,60
227,19	1249,26
227,41	1218,54
227,63	1265,64
227,85	1220,59
228,06	1312,75
228,28	1406,95
228,50	1288,17
228,72	1236,97
228,94	1345,52
229,16	1314,80
229,37	1273,84
229,59	1290,22
229,81	1335,28
230,03	1306,60
230,25	1275,88
230,47	1298,41
230,69	1294,32
230,90	1204,21
231,12	1245,16
231,34	1269,74
231,56	1236,97
231,78	1335,28
232,00	1339,37
232,21	1236,97
232,43	1279,98
232,65	1269,74
232,87	1314,80
233,09	1286,12
233,30	1243,12
233,52	1390,57
233,74	1220,59
233,96	1320,94
234,18	1282,03
234,40	1284,08
234,61	1232,88
234,83	1341,42
235,05	1288,17
235,27	1257,45
235,49	1277,93
235,70	1312,75
235,92	1249,26
236,14	1320,94
236,36	1316,84
236,58	1302,51
236,79	1269,74
237,01	1245,16
237,23	1286,12
237,45	1277,93
237,67	1228,78
237,88	1255,40
238,10	1304,56
238,32	1251,31
238,54	1247,21
238,76	1284,08
238,97	1247,21
239,19	1202,16
239,41	1286,12
239,63	1279,98
239,85	1353,71
240,06	1322,99
240,28	1282,03
240,50	1251,31
240,72	1243,12
240,93	1277,93
241,15	1335,28
241,37	1282,03
241,59	1290,22
241,81	1316,84
242,02	1273,84
242,24	1302,51
242,46	1312,75
242,68	1251,31
242,89	1302,51
243,11	1226,73
243,33	1191,92
243,55	1247,21
243,76	1290,22
243,98	1249,26
244,20	1277,93
244,42	1310,70
244,64	1312,75
244,85	1314,80
245,07	1263,60
245,29	1282,03
245,51	1341,42
245,72	1239,02
245,94	1275,88
246,16	1261,55
246,38	1265,64
246,59	1243,12
246,81	1257,45
247,03	1286,12
247,24	1259,50
247,46	1325,04
247,68	1273,84
247,90	1331,18
248,11	1224,69
248,33	1251,31
248,55	1265,64
248,77	1333,23
248,98	1253,36
249,20	1239,02
249,42	1265,64
249,64	1335,28
249,85	1286,12
250,07	1222,64
250,29	1241,07
250,50	1265,64
250,72	1279,98
250,94	1275,88
251,16	1214,45
251,37	1234,93
251,59	1243,12
251,81	1343,47
252,02	1267,69
252,24	1273,84
252,46	1196,01
252,68	1263,60
252,89	1300,46
253,11	1251,31
253,33	1282,03
253,54	1286,12
253,76	1181,68
253,98	1286,12
254,20	1253,36
254,41	1214,45
254,63	1343,47
254,85	1253,36
255,06	1327,08
255,28	1257,45
255,50	1343,47
255,71	1284,08
255,93	1279,98
256,15	1224,69
256,36	1296,36
256,58	1298,41
256,80	1267,69
257,02	1298,41
257,23	1312,75
257,45	1257,45
257,67	1320,94
257,88	1271,79
258,10	1363,95
258,32	1245,16
258,53	1306,60
258,75	1314,80
258,97	1206,25
259,18	1267,69
259,40	1286,12
259,62	1267,69
259,83	1255,40
260,05	1181,68
260,27	1318,89
260,48	1288,17
260,70	1239,02
260,92	1243,12
261,13	1331,18
261,35	1316,84
261,57	1374,19
261,78	1312,75
262,00	1302,51
262,22	1290,22
262,43	1247,21
262,65	1247,21
262,86	1286,12
263,08	1253,36
263,30	1288,17
263,51	1312,75
263,73	1257,45
263,95	1251,31
264,16	1304,56
264,38	1239,02
264,60	1263,60
264,81	1304,56
265,03	1247,21
265,25	1259,50
265,46	1286,12
265,68	1331,18
265,89	1239,02
266,11	1288,17
266,33	1335,28
266,54	1259,50
266,76	1279,98
266,98	1241,07
267,19	1273,84
267,41	1263,60
267,62	1171,44
267,84	1249,26
268,06	1222,64
268,27	1333,23
268,49	1284,08
268,70	1222,64
268,92	1216,49
269,14	1271,79
269,35	1173,49
269,57	1277,93
269,79	1236,97
270,00	1210,35
270,22	1314,80
270,43	1310,70
270,65	1236,97
270,87	1302,51
271,08	1288,17
271,30	1292,27
271,51	1216,49
271,73	1296,36
271,95	1175,53
272,16	1210,35
272,38	1234,93
272,59	1232,88
272,81	1300,46
273,02	1357,80
273,24	1247,21
273,46	1296,36
273,67	1263,60
273,89	1230,83
274,10	1249,26
274,32	1251,31
274,54	1271,79
274,75	1290,22
274,97	1333,23
275,18	1196,01
275,40	1335,28
275,61	1310,70
275,83	1294,32
276,05	1279,98
276,26	1288,17
276,48	1306,60
276,69	1224,69
276,91	1263,60
277,12	1306,60
277,34	1259,50
277,55	1224,69
277,77	1273,84
277,99	1263,60
278,20	1257,45
278,42	1255,40
278,63	1200,11
278,85	1267,69
279,06	1312,75
279,28	1290,22
279,49	1265,64
279,71	1232,88
279,93	1259,50
280,14	1296,36
280,36	1189,87
280,57	1191,92
280,79	1286,12
281,00	1198,06
281,22	1226,73
281,43	1226,73
281,65	1222,64
281,86	1273,84
282,08	1228,78
282,29	1304,56
282,51	1220,59
282,73	1282,03
282,94	1282,03
283,16	1279,98
283,37	1298,41
283,59	1302,51
283,80	1302,51
284,02	1228,78
284,23	1292,27
284,45	1271,79
284,66	1294,32
284,88	1253,36
285,09	1275,88
285,31	1249,26
285,52	1273,84
285,74	1325,04
285,95	1320,94
286,17	1273,84
286,38	1282,03
286,60	1329,13
286,81	1204,21
287,03	1212,40
287,24	1269,74
287,46	1294,32
287,67	1224,69
287,89	1267,69
288,10	1288,17
288,32	1273,84
288,53	1234,93
288,75	1261,55
288,96	1273,84
289,18	1277,93
289,39	1220,59
289,61	1226,73
289,82	1310,70
290,04	1306,60
290,25	1191,92
290,47	1277,93
290,68	1257,45
290,90	1286,12
291,11	1249,26
291,33	1366,00
291,54	1273,84
291,76	1241,07
291,97	1234,93
292,18	1222,64
292,40	1249,26
292,61	1210,35
292,83	1232,88
293,04	1241,07
293,26	1277,93
293,47	1288,17
293,69	1302,51
293,90	1273,84
294,12	1261,55
294,33	1259,50
294,55	1349,61
294,76	1296,36
294,97	1245,16
295,19	1249,26
295,40	1212,40
295,62	1206,25
295,83	1279,98
296,05	1302,51
296,26	1277,93
296,48	1263,60
296,69	1288,17
296,90	1267,69
297,12	1228,78
297,33	1224,69
297,55	1302,51
297,76	1241,07
297,98	1263,60
298,19	1241,07
298,41	1316,84
298,62	1286,12
298,83	1269,74
299,05	1282,03
299,26	1269,74
299,48	1286,12
299,69	1255,40
299,90	1312,75
300,12	1220,59
300,33	1243,12
300,55	1230,83
300,76	1284,08
300,98	1173,49
301,19	1275,88
301,40	1282,03
301,62	1273,84
301,83	1220,59
302,05	1341,42
302,26	1265,64
302,47	1294,32
302,69	1150,96
302,90	1290,22
303,12	1300,46
303,33	1239,02
303,54	1245,16
303,76	1296,36
303,97	1253,36
304,19	1370,09
304,40	1253,36
304,61	1286,12
304,83	1239,02
305,04	1271,79
305,26	1226,73
305,47	1198,06
305,68	1261,55
305,90	1318,89
306,11	1230,83
306,33	1249,26
306,54	1226,73
306,75	1222,64
306,97	1249,26
307,18	1261,55
307,39	1216,49
307,61	1294,32
307,82	1200,11
308,04	1232,88
308,25	1234,93
308,46	1329,13
308,68	1282,03
308,89	1222,64
309,10	1333,23
309,32	1302,51
309,53	1329,13
309,74	1214,45
309,96	1296,36
310,17	1300,46
310,39	1306,60
310,60	1263,60
310,81	1282,03
311,03	1277,93
311,24	1243,12
311,45	1267,69
311,67	1282,03
311,88	1261,55
312,09	1314,80
312,31	1290,22
312,52	1279,98
312,73	1251,31
312,95	1312,75
313,16	1292,27
313,37	1277,93
313,59	1261,55
313,80	1265,64
314,01	1183,73
314,23	1241,07
314,44	1310,70
314,65	1273,84
314,87	1288,17
315,08	1294,32
315,29	1314,80
315,51	1216,49
315,72	1282,03
315,93	1384,43
316,15	1314,80
316,36	1222,64
316,57	1251,31
316,79	1331,18
317,00	1286,12
317,21	1253,36
317,43	1339,37
317,64	1308,65
317,85	1316,84
318,07	1220,59
318,28	1255,40
318,49	1185,77
318,70	1263,60
318,92	1314,80
319,13	1279,98
319,34	1329,13
319,56	1290,22
319,77	1214,45
319,98	1339,37
320,20	1335,28
320,41	1312,75
320,62	1179,63
320,83	1310,70
321,05	1253,36
321,26	1122,29
321,47	1306,60
321,69	1306,60
321,90	1316,84
322,11	1318,89
322,32	1282,03
322,54	1232,88
322,75	1308,65
322,96	1296,36
323,18	1183,73
323,39	1245,16
323,60	1222,64
323,81	1310,70
324,03	1220,59
324,24	1273,84
324,45	1232,88
324,66	1247,21
324,88	1247,21
325,09	1308,65
325,30	1218,54
325,52	1255,40
325,73	1265,64
325,94	1218,54
326,15	1275,88
326,37	1298,41
326,58	1288,17
326,79	1216,49
327,00	1271,79
327,22	1353,71
327,43	1265,64
327,64	1318,89
327,85	1259,50
328,07	1226,73
328,28	1263,60
328,49	1169,39
328,70	1284,08
328,92	1331,18
329,13	1257,45
329,34	1325,04
329,55	1304,56
329,76	1261,55
329,98	1273,84
330,19	1363,95
330,40	1261,55
330,61	1265,64
330,83	1255,40
331,04	1267,69
331,25	1271,79
331,46	1329,13
331,68	1339,37
331,89	1275,88
332,10	1277,93
332,31	1286,12
332,52	1245,16
332,74	1259,50
332,95	1353,71
333,16	1372,14
333,37	1265,64
333,58	1222,64
333,80	1290,22
334,01	1179,63
334,22	1265,64
334,43	1312,75
334,64	1239,02
334,86	1335,28
335,07	1230,83
335,28	1255,40
335,49	1300,46
335,70	1253,36
335,92	1329,13
336,13	1247,21
336,34	1343,47
336,55	1261,55
336,76	1337,32
336,98	1249,26
337,19	1273,84
337,40	1243,12
337,61	1288,17
337,82	1241,07
338,04	1263,60
338,25	1261,55
338,46	1222,64
338,67	1314,80
338,88	1239,02
339,09	1400,81
339,31	1232,88
339,52	1290,22
339,73	1193,97
339,94	1247,21
340,15	1269,74
340,36	1290,22
340,58	1318,89
340,79	1269,74
341,00	1236,97
341,21	1306,60
341,42	1236,97
341,63	1259,50
341,85	1265,64
342,06	1263,60
342,27	1226,73
342,48	1320,94
342,69	1261,55
342,90	1277,93
343,12	1327,08
343,33	1271,79
343,54	1245,16
343,75	1333,23
343,96	1318,89
344,17	1251,31
344,38	1232,88
344,60	1271,79
344,81	1232,88
345,02	1267,69
345,23	1257,45
345,44	1322,99
345,65	1257,45
345,86	1288,17
346,07	1318,89
346,29	1212,40
346,50	1292,27
346,71	1314,80
346,92	1298,41
347,13	1179,63
347,34	1251,31
347,55	1292,27
347,76	1241,07
347,98	1286,12
348,19	1286,12
348,40	1322,99
348,61	1298,41
348,82	1247,21
349,03	1282,03
349,24	1247,21
349,45	1267,69
349,66	1273,84
349,88	1329,13
350,09	1298,41
350,30	1322,99
350,51	1265,64
350,72	1241,07
350,93	1247,21
351,14	1294,32
351,35	1236,97
351,56	1243,12
351,77	1220,59
351,99	1300,46
352,20	1214,45
352,41	1228,78
352,62	1284,08
352,83	1224,69
353,04	1267,69
353,25	1279,98
353,46	1277,93
353,67	1257,45
353,88	1251,31
354,09	1249,26
354,30	1210,35
354,52	1245,16
354,73	1277,93
354,94	1212,40
355,15	1222,64
355,36	1308,65
355,57	1251,31
355,78	1277,93
355,99	1275,88
356,20	1318,89
356,41	1265,64
356,62	1316,84
356,83	1288,17
357,04	1243,12
357,25	1255,40
357,46	1263,60
357,68	1247,21
357,89	1206,25
358,10	1290,22
358,31	1255,40
358,52	1312,75
358,73	1208,30
358,94	1228,78
359,15	1286,12
359,36	1306,60
359,57	1249,26
359,78	1286,12
359,99	1308,65
360,20	1343,47
360,41	1241,07
360,62	1290,22
360,83	1322,99
361,04	1376,24
361,25	1308,65
361,46	1302,51
361,67	1277,93
361,88	1271,79
362,09	1232,88
362,30	1265,64
362,51	1304,56
362,72	1316,84
362,93	1267,69
363,14	1236,97
363,35	1247,21
363,56	1263,60
363,78	1187,82
363,99	1339,37
364,20	1312,75
364,41	1292,27
364,62	1226,73
364,83	1193,97
365,04	1247,21
365,25	1208,30
365,46	1322,99
365,67	1228,78
365,88	1341,42
366,09	1255,40
366,30	1193,97
366,51	1265,64
366,72	1269,74
366,93	1310,70
367,14	1284,08
367,35	1236,97
367,56	1318,89
367,77	1282,03
367,98	1271,79
368,18	1302,51
368,39	1269,74
368,60	1249,26
368,81	1228,78
369,02	1298,41
369,23	1236,97
369,44	1249,26
369,65	1261,55
369,86	1232,88
370,07	1277,93
370,28	1204,21
370,49	1261,55
370,70	1314,80
370,91	1288,17
371,12	1288,17
371,33	1228,78
371,54	1271,79
371,75	1202,16
371,96	1320,94
372,17	1279,98
372,38	1249,26
372,59	1255,40
372,80	1341,42
373,01	1267,69
373,22	1275,88
373,43	1312,75
373,64	1310,70
373,85	1224,69
374,06	1314,80
374,26	1304,56
374,47	1253,36
374,68	1267,69
374,89	1241,07
375,10	1288,17
375,31	1282,03
375,52	1288,17
375,73	1308,65
375,94	1224,69
376,15	1322,99
376,36	1296,36
376,57	1271,79
376,78	1185,77
376,99	1284,08
377,20	1249,26
377,40	1269,74
377,61	1300,46
377,82	1363,95
378,03	1320,94
378,24	1331,18
378,45	1271,79
378,66	1286,12
378,87	1257,45
379,08	1284,08
379,29	1327,08
379,50	1267,69
379,71	1247,21
379,91	1273,84
380,12	1304,56
380,33	1302,51
380,54	1302,51
380,75	1261,55
380,96	1263,60
381,17	1329,13
381,38	1277,93
381,59	1312,75
381,80	1261,55
382,00	1210,35
382,21	1275,88
382,42	1316,84
382,63	1341,42
382,84	1241,07
383,05	1236,97
383,26	1257,45
383,47	1304,56
383,68	1247,21
383,88	1271,79
384,09	1269,74
384,30	1271,79
384,51	1320,94
384,72	1220,59
384,93	1296,36
385,14	1286,12
385,35	1294,32
385,55	1263,60
385,76	1271,79
385,97	1275,88
386,18	1261,55
386,39	1261,55
386,60	1267,69
386,81	1232,88
387,02	1228,78
387,22	1196,01
387,43	1302,51
387,64	1236,97
387,85	1245,16
388,06	1257,45
388,27	1284,08
388,48	1304,56
388,68	1243,12
388,89	1286,12
389,10	1236,97
389,31	1384,43
389,52	1265,64
389,73	1296,36
389,93	1353,71
390,14	1241,07
390,35	1304,56
390,56	1212,40
390,77	1298,41
390,98	1257,45
391,18	1284,08
391,39	1210,35
391,60	1200,11
391,81	1206,25
392,02	1210,35
392,23	1255,40
392,43	1306,60
392,64	1320,94
392,85	1306,60
393,06	1337,32
393,27	1337,32
393,47	1353,71
393,68	1220,59
393,89	1267,69
394,10	1376,24
394,31	1277,93
394,52	1236,97
394,72	1247,21
394,93	1179,63
395,14	1273,84
395,35	1298,41
395,56	1218,54
395,76	1236,97
395,97	1304,56
396,18	1263,60
396,39	1241,07
396,60	1271,79
396,80	1290,22
397,01	1271,79
397,22	1265,64
397,43	1284,08
397,64	1234,93
397,84	1277,93
398,05	1261,55
398,26	1249,26
398,47	1212,40
398,67	1269,74
398,88	1275,88
399,09	1198,06
399,30	1232,88
399,51	1245,16
399,71	1290,22
399,92	1284,08
400,13	1261,55
400,34	1257,45
400,54	1269,74
400,75	1241,07
400,96	1304,56
401,17	1249,26
401,37	1277,93
401,58	1351,66
401,79	1312,75
402,00	1279,98
402,21	1282,03
402,41	1234,93
402,62	1245,16
402,83	1310,70
403,04	1282,03
403,24	1341,42
403,45	1239,02
403,66	1245,16
403,87	1288,17
404,07	1290,22
404,28	1239,02
404,49	1230,83
404,70	1296,36
404,90	1292,27
405,11	1257,45
405,32	1290,22
405,52	1331,18
405,73	1314,80
405,94	1318,89
406,15	1343,47
406,35	1271,79
406,56	1292,27
406,77	1314,80
406,98	1267,69
407,18	1312,75
407,39	1222,64
407,60	1239,02
407,80	1269,74
408,01	1222,64
408,22	1214,45
408,43	1286,12
408,63	1304,56
408,84	1277,93
409,05	1183,73
409,25	1310,70
409,46	1247,21
409,67	1275,88
409,88	1279,98
410,08	1220,59
410,29	1322,99
410,50	1259,50
410,70	1259,50
410,91	1257,45
411,12	1253,36
411,32	1269,74
411,53	1257,45
411,74	1222,64
411,95	1267,69
412,15	1296,36
412,36	1343,47
412,57	1304,56
412,77	1290,22
412,98	1300,46
413,19	1208,30
413,39	1286,12
413,60	1316,84
413,81	1277,93
414,01	1339,37
414,22	1212,40
414,43	1316,84
414,63	1275,88
414,84	1277,93
415,05	1253,36
415,25	1224,69
415,46	1290,22
415,67	1222,64
415,87	1290,22
416,08	1322,99
416,29	1245,16
416,49	1273,84
416,70	1230,83
416,91	1208,30
417,11	1236,97
417,32	1294,32
417,53	1210,35
417,73	1331,18
417,94	1255,40
418,15	1302,51
418,35	1261,55
418,56	1267,69
418,77	1273,84
418,97	1249,26
419,18	1277,93
419,38	1279,98
419,59	1247,21
419,80	1255,40
420,00	1290,22
420,21	1327,08
420,42	1275,88
420,62	1257,45
420,83	1259,50
421,04	1314,80
421,24	1302,51
421,45	1296,36
421,65	1312,75
421,86	1232,88
422,07	1288,17
422,27	1257,45
422,48	1232,88
422,69	1331,18
422,89	1298,41
423,10	1234,93
423,30	1286,12
423,51	1249,26
423,72	1257,45
423,92	1257,45
424,13	1267,69
424,33	1312,75
424,54	1300,46
424,75	1312,75
424,95	1253,36
425,16	1245,16
425,36	1279,98
425,57	1255,40
425,78	1284,08
425,98	1386,47
426,19	1302,51
426,39	1239,02
426,60	1218,54
426,81	1325,04
427,01	1298,41
427,22	1329,13
427,42	1245,16
427,63	1288,17
427,83	1271,79
428,04	1282,03
428,25	1257,45
428,45	1273,84
428,66	1245,16
428,86	1245,16
429,07	1275,88
429,28	1279,98
429,48	1269,74
429,69	1265,64
429,89	1327,08
430,10	1261,55
430,30	1253,36
430,51	1271,79
430,71	1271,79
430,92	1265,64
431,13	1243,12
431,33	1329,13
431,54	1216,49
431,74	1269,74
431,95	1316,84
432,15	1380,33
432,36	1282,03
432,56	1216,49
432,77	1304,56
432,98	1249,26
433,18	1288,17
433,39	1200,11
433,59	1277,93
433,80	1230,83
434,00	1249,26
434,21	1265,64
434,41	1265,64
434,62	1288,17
434,82	1275,88
435,03	1271,79
435,23	1253,36
435,44	1224,69
435,64	1273,84
435,85	1216,49
436,06	1191,92
436,26	1282,03
436,47	1257,45
436,67	1251,31
436,88	1288,17
437,08	1298,41
437,29	1296,36
437,49	1310,70
437,70	1255,40
437,90	1263,60
438,11	1271,79
438,31	1257,45
438,52	1218,54
438,72	1273,84
438,93	1259,50
439,13	1333,23
439,34	1226,73
439,54	1257,45
439,75	1306,60
439,95	1243,12
440,16	1275,88
440,36	1282,03
440,57	1234,93
440,77	1286,12
440,98	1269,74
441,18	1220,59
441,39	1263,60
441,59	1234,93
441,80	1361,90
442,00	1257,45
442,21	1288,17
442,41	1316,84
442,62	1286,12
442,82	1253,36
443,02	1259,50
443,23	1282,03
443,43	1208,30
443,64	1316,84
443,84	1333,23
444,05	1322,99
444,25	1279,98
444,46	1259,50
444,66	1275,88
444,87	1241,07
445,07	1265,64
445,28	1312,75
445,48	1253,36
445,69	1318,89
445,89	1306,60
446,09	1263,60
446,30	1353,71
446,50	1288,17
446,71	1220,59
446,91	1290,22
447,12	1312,75
447,32	1306,60
447,53	1212,40
447,73	1253,36
447,93	1257,45
448,14	1277,93
448,34	1257,45
448,55	1267,69
448,75	1245,16
448,96	1255,40
449,16	1234,93
449,36	1239,02
449,57	1153,01
449,77	1208,30
449,98	1255,40
450,18	1257,45
450,39	1228,78
450,59	1230,83
450,79	1308,65
451,00	1208,30
451,20	1249,26
451,41	1265,64
451,61	1255,40
451,81	1300,46
452,02	1273,84
452,22	1267,69
452,43	1277,93
452,63	1304,56
452,84	1312,75
453,04	1265,64
453,24	1286,12
453,45	1296,36
453,65	1228,78
453,86	1271,79
454,06	1275,88
454,26	1204,21
454,47	1304,56
454,67	1339,37
454,87	1335,28
455,08	1230,83
455,28	1261,55
455,49	1263,60
455,69	1253,36
455,89	1226,73
456,10	1257,45
456,30	1269,74
456,51	1212,40
456,71	1263,60
456,91	1191,92
457,12	1298,41
457,32	1236,97
457,52	1265,64
457,73	1247,21
457,93	1284,08
458,14	1286,12
458,34	1257,45
458,54	1298,41
458,75	1232,88
458,95	1288,17
459,15	1284,08
459,36	1234,93
459,56	1259,50
459,76	1261,55
459,97	1277,93
460,17	1296,36
460,37	1265,64
460,58	1288,17
460,78	1247,21
460,99	1249,26
461,19	1210,35
461,39	1251,31
461,60	1259,50
461,80	1228,78
462,00	1228,78
462,21	1234,93
462,41	1236,97
462,61	1279,98
462,82	1210,35
463,02	1269,74
463,22	1243,12
463,43	1312,75
463,63	1263,60
463,83	1284,08
464,04	1263,60
464,24	1234,93
464,44	1255,40
464,64	1212,40
464,85	1302,51
465,05	1265,64
465,25	1288,17
465,46	1216,49
465,66	1308,65
465,86	1261,55
466,07	1236,97
466,27	1175,53
466,47	1277,93
466,68	1275,88
466,88	1312,75
467,08	1210,35
467,29	1298,41
467,49	1228,78
467,69	1306,60
467,89	1279,98
468,10	1263,60
468,30	1308,65
468,50	1288,17
468,71	1251,31
468,91	1216,49
469,11	1292,27
469,31	1380,33
469,52	1277,93
469,72	1286,12
469,92	1230,83
470,13	1245,16
470,33	1294,32
470,53	1247,21
470,73	1277,93
470,94	1298,41
471,14	1239,02
471,34	1279,98
471,54	1239,02
471,75	1222,64
471,95	1277,93
472,15	1273,84
472,36	1187,82
472,56	1265,64
472,76	1257,45
472,96	1325,04
473,17	1294,32
473,37	1312,75
473,57	1277,93
473,77	1294,32
473,98	1320,94
474,18	1247,21
474,38	1288,17
474,58	1298,41
474,79	1232,88
474,99	1273,84
475,19	1318,89
475,39	1298,41
475,60	1296,36
475,80	1341,42
476,00	1331,18
476,20	1320,94
476,41	1230,83
476,61	1304,56
476,81	1341,42
477,01	1300,46
477,21	1245,16
477,42	1304,56
477,62	1286,12
477,82	1224,69
478,02	1273,84
478,23	1263,60
478,43	1300,46
478,63	1273,84
478,83	1277,93
479,03	1214,45
479,24	1351,66
479,44	1277,93
479,64	1249,26
479,84	1310,70
480,04	1249,26
480,25	1218,54
480,45	1232,88
480,65	1279,98
480,85	1191,92
481,06	1261,55
481,26	1171,44
481,46	1304,56
481,66	1241,07
481,86	1241,07
482,06	1167,34
482,27	1286,12
482,47	1347,56
482,67	1284,08
482,87	1286,12
483,07	1331,18
483,28	1257,45
483,48	1306,60
483,68	1265,64
483,88	1277,93
484,08	1310,70
484,29	1247,21
484,49	1257,45
484,69	1304,56
484,89	1275,88
485,09	1279,98
485,29	1265,64
485,50	1331,18
485,70	1302,51
485,90	1222,64
486,10	1279,98
486,30	1236,97
486,50	1306,60
486,71	1392,62
486,91	1245,16
487,11	1271,79
487,31	1325,04
487,51	1302,51
487,71	1265,64
487,91	1298,41
488,12	1300,46
488,32	1286,12
488,52	1308,65
488,72	1312,75
488,92	1222,64
489,12	1255,40
489,32	1193,97
489,53	1300,46
489,73	1179,63
489,93	1288,17
490,13	1243,12
490,33	1212,40
490,53	1325,04
490,73	1296,36
490,94	1314,80
491,14	1314,80
491,34	1181,68
491,54	1267,69
491,74	1267,69
491,94	1339,37
492,14	1273,84
492,34	1271,79
492,54	1292,27
492,75	1294,32
492,95	1263,60
493,15	1279,98
493,35	1234,93
493,55	1349,61
493,75	1218,54
493,95	1261,55
494,15	1226,73
494,35	1247,21
494,56	1316,84
494,76	1298,41
494,96	1304,56
495,16	1296,36
495,36	1269,74
495,56	1259,50
495,76	1261,55
495,96	1249,26
496,16	1251,31
496,36	1282,03
496,56	1304,56
496,77	1224,69
496,97	1222,64
497,17	1363,95
497,37	1345,52
497,57	1284,08
497,77	1169,39
497,97	1261,55
498,17	1247,21
498,37	1234,93
498,57	1249,26
498,77	1316,84
498,97	1277,93
499,17	1253,36
499,38	1302,51
499,58	1310,70
499,78	1275,88
499,98	1255,40
500,18	1374,19
500,38	1247,21
500,58	1200,11
500,78	1269,74
500,98	1224,69
501,18	1251,31
501,38	1218,54
501,58	1249,26
501,78	1243,12
501,98	1230,83
502,18	1210,35
502,38	1249,26
502,58	1284,08
502,78	1322,99
502,98	1279,98
503,18	1259,50
503,38	1228,78
503,59	1253,36
503,79	1357,80
503,99	1208,30
504,19	1341,42
504,39	1230,83
504,59	1302,51
504,79	1294,32
504,99	1312,75
505,19	1277,93
505,39	1302,51
505,59	1296,36
505,79	1298,41
505,99	1257,45
506,19	1277,93
506,39	1222,64
506,59	1222,64
506,79	1261,55
506,99	1269,74
507,19	1380,33
507,39	1249,26
507,59	1339,37
507,79	1239,02
507,99	1286,12
508,19	1286,12
508,39	1288,17
508,59	1218,54
508,79	1333,23
508,99	1282,03
509,19	1263,60
509,39	1239,02
509,59	1236,97
509,79	1247,21
509,99	1294,32
510,19	1193,97
510,39	1341,42
510,59	1216,49
510,79	1255,40
510,99	1232,88
511,19	1255,40
511,39	1269,74
511,59	1290,22
511,79	1243,12
511,99	1271,79
512,19	1247,21
512,38	1273,84
512,58	1279,98
512,78	1247,21
512,98	1212,40
513,18	1314,80
513,38	1271,79
513,58	1196,01
513,78	1284,08
513,98	1376,24
514,18	1296,36
514,38	1290,22
514,58	1269,74
514,78	1277,93
514,98	1245,16
515,18	1253,36
515,38	1183,73
515,58	1191,92
515,78	1296,36
515,98	1304,56
516,18	1210,35
516,38	1224,69
516,57	1296,36
516,77	1247,21
516,97	1232,88
517,17	1269,74
517,37	1284,08
517,57	1230,83
517,77	1216,49
517,97	1271,79
518,17	1296,36
518,37	1300,46
518,57	1282,03
518,77	1306,60
518,97	1366,00
519,16	1329,13
519,36	1269,74
519,56	1255,40
519,76	1290,22
519,96	1232,88
520,16	1257,45
520,36	1329,13
520,56	1251,31
520,76	1249,26
520,96	1304,56
521,16	1275,88
521,35	1318,89
521,55	1275,88
521,75	1251,31
521,95	1290,22
522,15	1277,93
522,35	1327,08
522,55	1212,40
522,75	1261,55
522,95	1292,27
523,14	1253,36
523,34	1339,37
523,54	1314,80
523,74	1253,36
523,94	1202,16
524,14	1196,01
524,34	1249,26
524,54	1249,26
524,73	1243,12
524,93	1269,74
525,13	1310,70
525,33	1294,32
525,53	1302,51
525,73	1355,76
525,93	1247,21
526,13	1245,16
526,32	1329,13
526,52	1230,83
526,72	1263,60
526,92	1255,40
527,12	1294,32
527,32	1277,93
527,52	1298,41
527,71	1275,88
527,91	1267,69
528,11	1222,64
528,31	1263,60
528,51	1232,88
528,71	1322,99
528,90	1366,00
529,10	1245,16
529,30	1257,45
529,50	1249,26
529,70	1267,69
529,90	1234,93
530,09	1269,74
530,29	1255,40
530,49	1259,50
530,69	1296,36
530,89	1306,60
531,09	1314,80
531,28	1245,16
531,48	1300,46
531,68	1306,60
531,88	1265,64
532,08	1257,45
532,28	1251,31
532,47	1271,79
532,67	1325,04
532,87	1339,37
533,07	1271,79
533,27	1282,03
533,46	1288,17
533,66	1357,80
533,86	1208,30
534,06	1255,40
534,26	1331,18
534,45	1234,93
534,65	1263,60
534,85	1167,34
535,05	1165,29
535,25	1267,69
535,44	1265,64
535,64	1300,46
535,84	1259,50
536,04	1255,40
536,24	1216,49
536,43	1335,28
536,63	1271,79
536,83	1251,31
537,03	1265,64
537,22	1259,50
537,42	1202,16
537,62	1308,65
537,82	1261,55
538,02	1292,27
538,21	1290,22
538,41	1232,88
538,61	1294,32
538,81	1273,84
539,00	1269,74
539,20	1304,56
539,40	1261,55
539,60	1306,60
539,79	1232,88
539,99	1265,64
540,19	1277,93
540,39	1247,21
540,58	1300,46
540,78	1279,98
540,98	1368,04
541,18	1290,22
541,37	1308,65
541,57	1265,64
541,77	1273,84
541,97	1157,10
542,16	1314,80
542,36	1279,98
542,56	1296,36
542,76	1284,08
542,95	1331,18
543,15	1253,36
543,35	1271,79
543,54	1327,08
543,74	1306,60
543,94	1247,21
544,14	1314,80
544,33	1236,97
544,53	1204,21
544,73	1316,84
544,93	1320,94
545,12	1316,84
545,32	1312,75
545,52	1247,21
545,71	1273,84
545,91	1327,08
546,11	1329,13
546,30	1277,93
546,50	1261,55
546,70	1249,26
546,90	1232,88
547,09	1288,17
547,29	1265,64
547,49	1347,56
547,68	1263,60
547,88	1232,88
548,08	1335,28
548,27	1257,45
548,47	1312,75
548,67	1300,46
548,87	1312,75
549,06	1271,79
549,26	1200,11
549,46	1355,76
549,65	1261,55
549,85	1279,98
550,05	1251,31
550,24	1312,75
550,44	1249,26
550,64	1247,21
550,83	1339,37
551,03	1282,03
551,23	1275,88
551,42	1302,51
551,62	1271,79
551,82	1200,11
552,01	1306,60
552,21	1214,45
552,41	1226,73
552,60	1214,45
552,80	1261,55
553,00	1239,02
553,19	1261,55
553,39	1265,64
553,59	1261,55
553,78	1284,08
553,98	1269,74
554,17	1267,69
554,37	1279,98
554,57	1300,46
554,76	1253,36
554,96	1183,73
555,16	1220,59
555,35	1204,21
555,55	1322,99
555,75	1257,45
555,94	1298,41
556,14	1294,32
556,33	1265,64
556,53	1204,21
556,73	1179,63
556,92	1255,40
557,12	1183,73
557,32	1241,07
557,51	1245,16
557,71	1257,45
557,90	1261,55
558,10	1263,60
558,30	1243,12
558,49	1275,88
558,69	1232,88
558,88	1243,12
559,08	1273,84
559,28	1312,75
559,47	1232,88
559,67	1279,98
559,86	1288,17
560,06	1306,60
560,26	1345,52
560,45	1222,64
560,65	1249,26
560,84	1376,24
561,04	1302,51
561,24	1259,50
561,43	1300,46
561,63	1275,88
561,82	1298,41
562,02	1273,84
562,22	1263,60
562,41	1284,08
562,61	1273,84
562,80	1306,60
563,00	1271,79
563,19	1226,73
563,39	1232,88
563,59	1232,88
563,78	1245,16
563,98	1255,40
564,17	1247,21
564,37	1263,60
564,56	1267,69
564,76	1210,35
564,96	1284,08
565,15	1232,88
565,35	1325,04
565,54	1275,88
565,74	1273,84
565,93	1241,07
566,13	1239,02
566,32	1224,69
566,52	1226,73
566,71	1284,08
566,91	1247,21
567,11	1279,98
567,30	1290,22
567,50	1257,45
567,69	1261,55
567,89	1216,49
568,08	1159,15
568,28	1257,45
568,47	1298,41
568,67	1294,32
568,86	1306,60
569,06	1263,60
569,25	1288,17
569,45	1220,59
569,64	1292,27
569,84	1236,97
570,04	1298,41
570,23	1267,69
570,43	1296,36
570,62	1239,02
570,82	1355,76
571,01	1292,27
571,21	1298,41
571,40	1314,80
571,60	1296,36
571,79	1224,69
571,99	1284,08
572,18	1241,07
572,38	1306,60
572,57	1269,74
572,77	1331,18
572,96	1296,36
573,16	1263,60
573,35	1337,32
573,55	1284,08
573,74	1279,98
573,94	1208,30
574,13	1292,27
574,33	1249,26
574,52	1259,50
574,71	1327,08
574,91	1251,31
575,10	1333,23
575,30	1288,17
575,49	1204,21
575,69	1210,35
575,88	1177,58
576,08	1273,84
576,27	1263,60
576,47	1308,65
576,66	1343,47
576,86	1310,70
577,05	1277,93
577,25	1294,32
577,44	1290,22
577,64	1228,78
577,83	1271,79
578,02	1224,69
578,22	1290,22
578,41	1232,88
578,61	1249,26
578,80	1269,74
579,00	1327,08
579,19	1292,27
579,39	1249,26
579,58	1218,54
579,77	1251,31
579,97	1284,08
580,16	1366,00
580,36	1232,88
580,55	1298,41
580,75	1267,69
580,94	1255,40
581,13	1279,98
581,33	1251,31
581,52	1314,80
581,72	1329,13
581,91	1325,04
582,11	1249,26
582,30	1279,98
582,49	1202,16
582,69	1232,88
582,88	1320,94
583,08	1243,12
583,27	1255,40
583,47	1222,64
583,66	1239,02
583,85	1236,97
584,05	1236,97
584,24	1232,88
584,44	1263,60
584,63	1257,45
584,82	1337,32
585,02	1282,03
585,21	1288,17
585,41	1241,07
585,60	1253,36
585,79	1257,45
585,99	1259,50
586,18	1286,12
586,37	1312,75
586,57	1312,75
586,76	1320,94
586,96	1269,74
587,15	1273,84
587,34	1327,08
587,54	1247,21
587,73	1361,90
587,93	1320,94
588,12	1290,22
588,31	1232,88
588,51	1249,26
588,70	1298,41
588,89	1142,77
589,09	1185,77
589,28	1322,99
589,47	1236,97
589,67	1241,07
589,86	1288,17
590,06	1322,99
590,25	1239,02
590,44	1263,60
590,64	1253,36
590,83	1208,30
591,02	1247,21
591,22	1304,56
591,41	1167,34
591,60	1208,30
591,80	1185,77
591,99	1290,22
592,18	1273,84
592,38	1275,88
592,57	1222,64
592,76	1253,36
592,96	1263,60
593,15	1218,54
593,34	1228,78
593,54	1353,71
593,73	1198,06
593,92	1314,80
594,12	1257,45
594,31	1218,54
594,50	1257,45
594,70	1290,22
594,89	1325,04
595,08	1288,17
595,28	1279,98
595,47	1271,79
595,66	1286,12
595,86	1228,78
596,05	1329,13
596,24	1198,06
596,43	1265,64
596,63	1257,45
596,82	1261,55
597,01	1288,17
597,21	1267,69
597,40	1290,22
597,59	1243,12
597,79	1261,55
597,98	1306,60
598,17	1304,56
598,36	1298,41
598,56	1286,12
598,75	1234,93
598,94	1232,88
599,14	1265,64
599,33	1247,21
599,52	1206,25
599,71	1212,40
599,91	1282,03
600,10	1290,22
600,29	1247,21
600,48	1265,64
600,68	1296,36
600,87	1273,84
601,06	1257,45
601,26	1259,50
601,45	1220,59
601,64	1232,88
601,83	1277,93
602,03	1232,88
602,22	1210,35
602,41	1245,16
602,60	1232,88
602,80	1302,51
602,99	1304,56
603,18	1298,41
603,37	1298,41
603,57	1361,90
603,76	1296,36
603,95	1263,60
604,14	1320,94
604,34	1279,98
604,53	1253,36
604,72	1175,53
604,91	1290,22
605,10	1302,51
605,30	1269,74
605,49	1294,32
605,68	1306,60
605,87	1267,69
606,07	1265,64
606,26	1265,64
606,45	1290,22
606,64	1220,59
606,84	1224,69
607,03	1265,64
607,22	1239,02
607,41	1275,88
607,60	1306,60
607,80	1243,12
607,99	1269,74
608,18	1183,73
608,37	1239,02
608,56	1243,12
608,76	1230,83
608,95	1239,02
609,14	1302,51
609,33	1257,45
609,52	1265,64
609,72	1214,45
609,91	1251,31
610,10	1189,87
610,29	1316,84
610,48	1366,00
610,68	1331,18
610,87	1251,31
611,06	1308,65
611,25	1306,60
611,44	1259,50
611,63	1249,26
611,83	1220,59
612,02	1200,11
612,21	1294,32
612,40	1282,03
612,59	1322,99
612,79	1273,84
612,98	1337,32
613,17	1322,99
613,36	1259,50
613,55	1249,26
613,74	1312,75
613,93	1298,41
614,13	1224,69
614,32	1239,02
614,51	1273,84
614,70	1302,51
614,89	1247,21
615,08	1216,49
615,28	1329,13
615,47	1267,69
615,66	1335,28
615,85	1234,93
616,04	1296,36
616,23	1243,12
616,42	1245,16
616,62	1275,88
616,81	1253,36
617,00	1208,30
617,19	1290,22
617,38	1236,97
617,57	1294,32
617,76	1255,40
617,95	1325,04
618,15	1349,61
618,34	1273,84
618,53	1286,12
618,72	1298,41
618,91	1239,02
619,10	1288,17
619,29	1277,93
619,48	1286,12
619,68	1273,84
619,87	1271,79
620,06	1296,36
620,25	1286,12
620,44	1255,40
620,63	1251,31
620,82	1327,08
621,01	1251,31
621,20	1249,26
621,39	1251,31
621,59	1300,46
621,78	1282,03
621,97	1241,07
622,16	1247,21
622,35	1284,08
622,54	1249,26
622,73	1382,38
622,92	1288,17
623,11	1294,32
623,30	1253,36
623,49	1310,70
623,68	1247,21
623,88	1282,03
624,07	1255,40
624,26	1298,41
624,45	1275,88
624,64	1224,69
624,83	1265,64
625,02	1259,50
625,21	1279,98
625,40	1310,70
625,59	1277,93
625,78	1368,04
625,97	1282,03
626,16	1292,27
626,35	1298,41
626,54	1279,98
626,74	1329,13
626,93	1327,08
627,12	1361,90
627,31	1370,09
627,50	1349,61
627,69	1304,56
627,88	1263,60
628,07	1290,22
628,26	1259,50
628,45	1267,69
628,64	1288,17
628,83	1251,31
629,02	1259,50
629,21	1277,93
629,40	1318,89
629,59	1286,12
629,78	1322,99
629,97	1298,41
630,16	1282,03
630,35	1269,74
630,54	1374,19
630,73	1249,26
630,92	1339,37
631,11	1335,28
631,30	1343,47
631,49	1427,43
631,68	1771,49
631,87	2695,13
632,06	5576,62
632,25	8673,15
632,44	16461,57
632,63	26742,38
632,82	45550,92
633,01	43515,24
633,20	18781,92
633,39	7352,21
633,58	4108,23
633,77	3436,49
633,96	3104,72
634,15	2299,87
634,34	1931,23
634,53	1863,65
634,72	1744,87
634,91	1593,32
635,10	1515,50
635,29	1454,06
635,48	1476,59
635,67	1554,41
635,86	1462,25
636,05	1443,82
636,24	1322,99
636,43	1366,00
636,62	1390,57
636,81	1320,94
637,00	1286,12
637,19	1316,84
637,38	1273,84
637,57	1363,95
637,76	1275,88
637,95	1290,22
638,14	1312,75
638,33	1386,47
638,52	1314,80
638,71	1290,22
638,89	1353,71
639,08	1308,65
639,27	1298,41
639,46	1292,27
639,65	1320,94
639,84	1277,93
640,03	1286,12
640,22	1298,41
640,41	1236,97
640,60	1286,12
640,79	1265,64
640,98	1312,75
641,17	1271,79
641,36	1343,47
641,55	1359,85
641,74	1245,16
641,92	1345,52
642,11	1296,36
642,30	1310,70
642,49	1265,64
642,68	1359,85
642,87	1378,28
643,06	1263,60
643,25	1239,02
643,44	1296,36
643,63	1359,85
643,82	1261,55
644,00	1249,26
644,19	1310,70
644,38	1286,12
644,57	1181,68
644,76	1271,79
644,95	1279,98
645,14	1263,60
645,33	1263,60
645,52	1275,88
645,71	1290,22
645,89	1179,63
646,08	1361,90
646,27	1265,64
646,46	1329,13
646,65	1208,30
646,84	1294,32
647,03	1245,16
647,22	1277,93
647,40	1302,51
647,59	1255,40
647,78	1232,88
647,97	1329,13
648,16	1302,51
648,35	1249,26
648,54	1277,93
648,73	1275,88
648,91	1216,49
649,10	1249,26
649,29	1318,89
649,48	1288,17
649,67	1384,43
649,86	1259,50
650,05	1210,35
650,23	1206,25
650,42	1290,22
650,61	1228,78
650,80	1290,22
650,99	1181,68
651,18	1249,26
651,36	1337,32
651,55	1222,64
651,74	1294,32
651,93	1302,51
652,12	1339,37
652,31	1236,97
652,49	1200,11
652,68	1222,64
652,87	1273,84
653,06	1259,50
653,25	1302,51
653,44	1290,22
653,62	1298,41
653,81	1337,32
654,00	1255,40
654,19	1316,84
654,38	1279,98
654,56	1257,45
654,75	1263,60
654,94	1296,36
655,13	1214,45
655,32	1222,64
655,51	1284,08
655,69	1294,32
655,88	1286,12
656,07	1214,45
656,26	1339,37
656,45	1261,55
656,63	1212,40
656,82	1314,80
657,01	1357,80
657,20	1302,51
657,38	1357,80
657,57	1329,13
657,76	1277,93
657,95	1212,40
658,14	1304,56
658,32	1267,69
658,51	1224,69
658,70	1273,84
658,89	1247,21
659,08	1296,36
659,26	1288,17
659,45	1267,69
659,64	1310,70
659,83	1368,04
660,01	1306,60
660,20	1282,03
660,39	1329,13
660,58	1249,26
660,76	1284,08
660,95	1245,16
661,14	1265,64
661,33	1232,88
661,51	1267,69
661,70	1282,03
661,89	1290,22
662,08	1228,78
662,26	1210,35
662,45	1363,95
662,64	1304,56
662,83	1290,22
663,01	1222,64
663,20	1316,84
663,39	1279,98
663,58	1320,94
663,76	1275,88
663,95	1267,69
664,14	1224,69
664,32	1322,99
664,51	1234,93
664,70	1284,08
664,89	1257,45
665,07	1267,69
665,26	1318,89
665,45	1257,45
665,64	1224,69
665,82	1288,17
666,01	1331,18
666,20	1310,70
666,38	1337,32
666,57	1318,89
666,76	1312,75
666,95	1255,40
667,13	1294,32
667,32	1288,17
667,51	1341,42
667,69	1222,64
667,88	1255,40
668,07	1210,35
668,25	1241,07
668,44	1261,55
668,63	1318,89
668,81	1286,12
669,00	1234,93
669,19	1216,49
669,38	1298,41
669,56	1220,59
669,75	1255,40
669,94	1290,22
670,12	1288,17
670,31	1249,26
670,50	1288,17
670,68	1230,83
670,87	1286,12
671,06	1273,84
671,24	1208,30
671,43	1255,40
671,62	1296,36
671,80	1282,03
671,99	1282,03
672,18	1249,26
672,36	1226,73
672,55	1241,07
672,74	1335,28
672,92	1220,59
673,11	1259,50
673,29	1245,16
673,48	1320,94
673,67	1271,79
673,85	1249,26
674,04	1279,98
674,23	1220,59
674,41	1335,28
674,60	1271,79
674,79	1273,84
674,97	1329,13
675,16	1335,28
675,34	1310,70
675,53	1261,55
675,72	1284,08
675,90	1349,61
676,09	1253,36
676,28	1286,12
676,46	1355,76
676,65	1232,88
676,83	1275,88
677,02	1286,12
677,21	1296,36
677,39	1275,88
677,58	1267,69
677,77	1232,88
677,95	1288,17
678,14	1259,50
678,32	1230,83
678,51	1265,64
678,70	1306,60
678,88	1335,28
679,07	1294,32
679,25	1277,93
679,44	1236,97
679,63	1230,83
679,81	1302,51
680,00	1298,41
680,18	1292,27
680,37	1243,12
680,55	1337,32
680,74	1347,56
680,93	1263,60
681,11	1302,51
681,30	1230,83
681,48	1263,60
681,67	1312,75
681,85	1222,64
682,04	1277,93
682,23	1220,59
682,41	1267,69
682,60	1273,84
682,78	1263,60
682,97	1290,22
683,15	1257,45
683,34	1271,79
683,53	1263,60
683,71	1255,40
683,90	1273,84
684,08	1269,74
684,27	1257,45
684,45	1296,36
684,64	1327,08
684,82	1228,78
685,01	1241,07
685,19	1314,80
685,38	1318,89
685,57	1234,93
685,75	1261,55
685,94	1288,17
686,12	1284,08
686,31	1261,55
686,49	1279,98
686,68	1179,63
686,86	1314,80
687,05	1257,45
687,23	1314,80
687,42	1261,55
687,60	1279,98
687,79	1320,94
687,97	1277,93
688,16	1249,26
688,34	1304,56
688,53	1327,08
688,71	1286,12
688,90	1253,36
689,08	1232,88
689,27	1343,47
689,45	1269,74
689,64	1230,83
689,82	1255,40
690,01	1310,70
690,19	1298,41
690,38	1308,65
690,56	1267,69
690,75	1218,54
690,93	1329,13
691,12	1253,36
691,30	1200,11
691,49	1185,77
691,67	1269,74
691,86	1224,69
692,04	1247,21
692,23	1288,17
692,41	1286,12
692,60	1273,84
692,78	1290,22
692,97	1245,16
693,15	1239,02
693,34	1275,88
693,52	1247,21
693,71	1251,31
693,89	1308,65
694,08	1181,68
694,26	1298,41
694,44	1296,36
694,63	1294,32
694,81	1259,50
695,00	1277,93
695,18	1308,65
695,37	1284,08
695,55	1325,04
695,74	1212,40
695,92	1247,21
696,10	1361,90
696,29	1261,55
696,47	1312,75
696,66	1234,93
696,84	1228,78
697,03	1279,98
697,21	1341,42
697,40	1310,70
697,58	1267,69
697,76	1263,60
697,95	1255,40
698,13	1300,46
698,32	1267,69
698,50	1282,03
698,68	1255,40
698,87	1224,69
699,05	1255,40
699,24	1331,18
699,42	1253,36
699,61	1222,64
699,79	1253,36
699,97	1302,51
700,16	1241,07
700,34	1265,64
700,53	1339,37
700,71	1290,22
700,89	1284,08
701,08	1294,32
701,26	1282,03
701,45	1347,56
701,63	1325,04
701,81	1202,16
702,00	1263,60
702,18	1271,79
702,37	1329,13
702,55	1224,69
702,73	1286,12
702,92	1265,64
703,10	1257,45
703,28	1247,21
703,47	1275,88
703,65	1279,98
703,84	1189,87
704,02	1255,40
704,20	1306,60
704,39	1306,60
704,57	1282,03
704,75	1298,41
704,94	1310,70
705,12	1247,21
705,30	1300,46
705,49	1257,45
705,67	1300,46
705,86	1245,16
706,04	1277,93
706,22	1316,84
706,41	1263,60
706,59	1316,84
706,77	1263,60
706,96	1302,51
707,14	1271,79
707,32	1236,97
707,51	1312,75
707,69	1279,98
707,87	1204,21
708,06	1333,23
708,24	1261,55
708,42	1275,88
708,61	1220,59
708,79	1306,60
708,97	1271,79
709,16	1239,02
709,34	1255,40
709,52	1208,30
709,71	1228,78
709,89	1349,61
710,07	1218,54
710,26	1343,47
710,44	1267,69
710,62	1261,55
710,80	1257,45
710,99	1296,36
711,17	1304,56
711,35	1241,07
711,54	1239,02
711,72	1265,64
711,90	1263,60
712,09	1236,97
712,27	1296,36
712,45	1271,79
712,63	1298,41
712,82	1224,69
713,00	1294,32
713,18	1222,64
713,37	1251,31
713,55	1302,51
713,73	1290,22
713,91	1177,58
714,10	1282,03
714,28	1271,79
714,46	1288,17
714,65	1222,64
714,83	1187,82
715,01	1282,03
715,19	1267,69
715,38	1308,65
715,56	1255,40
715,74	1314,80
715,92	1269,74
716,11	1320,94
716,29	1257,45
716,47	1243,12
716,65	1206,25
716,84	1322,99
717,02	1314,80
717,20	1236,97
717,38	1277,93
717,57	1325,04
717,75	1263,60
717,93	1322,99
718,11	1302,51
718,30	1232,88
718,48	1298,41
718,66	1267,69
718,84	1314,80
719,03	1255,40
719,21	1302,51
719,39	1284,08
719,57	1396,71
719,75	1296,36
719,94	1400,81
720,12	1306,60
720,30	1288,17
720,48	1298,41
720,67	1269,74
720,85	1337,32
721,03	1232,88
721,21	1251,31
721,39	1316,84
721,58	1245,16
721,76	1355,76
721,94	1247,21
722,12	1257,45
722,30	1253,36
722,49	1210,35
722,67	1241,07
722,85	1339,37
723,03	1224,69
723,21	1286,12
723,40	1224,69
723,58	1322,99
723,76	1263,60
723,94	1230,83
724,12	1290,22
724,30	1282,03
724,49	1179,63
724,67	1241,07
724,85	1247,21
725,03	1181,68
725,21	1234,93
725,40	1306,60
725,58	1286,12
725,76	1265,64
725,94	1261,55
726,12	1245,16
726,30	1232,88
726,49	1269,74
726,67	1241,07
726,85	1277,93
727,03	1236,97
727,21	1296,36
727,39	1257,45
727,57	1263,60
727,76	1316,84
727,94	1331,18
728,12	1277,93
728,30	1230,83
728,48	1306,60
728,66	1286,12
728,84	1255,40
729,03	1298,41
729,21	1329,13
729,39	1279,98
729,57	1322,99
729,75	1302,51
729,93	1257,45
730,11	1298,41
730,30	1212,40
730,48	1331,18
730,66	1298,41
730,84	1263,60
731,02	1288,17
731,20	1243,12
731,38	1230,83
731,56	1275,88
731,74	1290,22
731,93	1247,21
732,11	1339,37
732,29	1341,42
732,47	1255,40
732,65	1312,75
732,83	1353,71
733,01	1257,45
733,19	1288,17
733,37	1282,03
733,56	1261,55
733,74	1232,88
733,92	1210,35
734,10	1329,13
734,28	1288,17
734,46	1189,87
734,64	1265,64
734,82	1277,93
735,00	1220,59
735,18	1267,69
735,36	1261,55
735,54	1296,36
735,73	1267,69
735,91	1212,40
736,09	1282,03
736,27	1263,60
736,45	1239,02
736,63	1239,02
736,81	1265,64
736,99	1273,84
737,17	1292,27
737,35	1228,78
737,53	1263,60
737,71	1198,06
737,89	1185,77
738,07	1290,22
738,25	1249,26
738,43	1349,61
738,61	1263,60
738,80	1349,61
738,98	1224,69
739,16	1304,56
739,34	1308,65
739,52	1259,50
739,70	1347,56
739,88	1261,55
740,06	1288,17
740,24	1306,60
740,42	1271,79
740,60	1320,94
740,78	1243,12
740,96	1222,64
741,14	1202,16
741,32	1245,16
741,50	1322,99
741,68	1257,45
741,86	1255,40
742,04	1282,03
742,22	1243,12
742,40	1284,08
742,58	1298,41
742,76	1249,26
742,94	1302,51
743,12	1288,17
743,30	1208,30
743,48	1298,41
743,66	1302,51
743,84	1267,69
744,02	1275,88
744,20	1304,56
744,38	1286,12
744,56	1327,08
744,74	1282,03
744,92	1249,26
745,10	1290,22
745,28	1312,75
745,46	1279,98
745,64	1292,27
745,82	1349,61
746,00	1220,59
746,18	1304,56
746,36	1236,97
746,54	1267,69
746,72	1224,69
746,90	1300,46
747,08	1247,21
747,26	1282,03
747,44	1220,59
747,62	1228,78
747,80	1296,36
747,98	1318,89
748,15	1304,56
748,33	1290,22
748,51	1306,60
748,69	1269,74
748,87	1232,88
749,05	1286,12
749,23	1306,60
749,41	1273,84
749,59	1275,88
749,77	1306,60
749,95	1279,98
750,13	1202,16
750,31	1245,16
750,49	1216,49
750,67	1329,13
750,85	1308,65
751,03	1310,70
751,20	1290,22
751,38	1255,40
751,56	1214,45
751,74	1214,45
751,92	1308,65
752,10	1279,98
752,28	1222,64
752,46	1318,89
752,64	1320,94
752,82	1222,64
753,00	1216,49
753,18	1335,28
753,35	1279,98
753,53	1271,79
753,71	1267,69
753,89	1331,18
754,07	1300,46
754,25	1341,42
754,43	1273,84
754,61	1372,14
754,79	1255,40
754,97	1284,08
755,14	1269,74
755,32	1255,40
755,50	1232,88
755,68	1290,22
755,86	1251,31
756,04	1208,30
756,22	1224,69
756,40	1259,50
756,57	1239,02
756,75	1267,69
756,93	1290,22
757,11	1302,51
757,29	1212,40
757,47	1218,54
757,65	1257,45
757,82	1296,36
758,00	1273,84
758,18	1316,84
758,36	1282,03
758,54	1239,02
758,72	1259,50
758,90	1312,75
759,07	1339,37
759,25	1247,21
759,43	1275,88
759,61	1322,99
759,79	1220,59
759,97	1288,17
760,15	1234,93
760,32	1249,26
760,50	1253,36
760,68	1302,51
760,86	1351,66
761,04	1269,74
761,22	1273,84
761,39	1271,79
761,57	1314,80
761,75	1257,45
761,93	1312,75
762,11	1279,98
762,28	1322,99
762,46	1312,75
762,64	1251,31
762,82	1271,79
763,00	1331,18
763,18	1320,94
763,35	1271,79
763,53	1306,60
763,71	1322,99
763,89	1257,45
764,07	1279,98
764,24	1247,21
764,42	1273,84
764,60	1257,45
764,78	1277,93
764,96	1255,40
765,13	1245,16
765,31	1243,12
765,49	1193,97
765,67	1331,18
765,84	1241,07
766,02	1236,97
766,20	1275,88
766,38	1239,02
766,56	1257,45
766,73	1208,30
766,91	1288,17
767,09	1216,49
767,27	1286,12
767,44	1275,88
767,62	1286,12
767,80	1296,36
767,98	1294,32
768,15	1273,84
768,33	1314,80
768,51	1234,93
768,69	1292,27
768,87	1296,36
769,04	1292,27
769,22	1345,52
769,40	1234,93
769,58	1370,09
769,75	1267,69
769,93	1312,75
770,11	1265,64
770,28	1302,51
770,46	1335,28
770,64	1245,16
770,82	1288,17
770,99	1294,32
771,17	1310,70
771,35	1302,51
771,53	1269,74
771,70	1200,11
771,88	1218,54
772,06	1220,59
772,23	1288,17
772,41	1286,12
772,59	1177,58
772,77	1273,84
772,94	1247,21
773,12	1273,84
773,30	1277,93
773,47	1292,27
773,65	1282,03
773,83	1288,17
774,01	1279,98
774,18	1279,98
774,36	1224,69
774,54	1292,27
774,71	1208,30
774,89	1265,64
775,07	1232,88
775,24	1306,60
775,42	1251,31
775,60	1310,70
775,78	1241,07
775,95	1206,25
776,13	1320,94
776,31	1263,60
776,48	1302,51
776,66	1286,12
776,84	1202,16
777,01	1245,16
777,19	1234,93
777,37	1339,37
777,54	1282,03
777,72	1298,41
777,90	1316,84
778,07	1245,16
778,25	1318,89
778,43	1288,17
778,60	1296,36
778,78	1310,70
778,96	1277,93
779,13	1286,12
779,31	1275,88
779,49	1327,08
779,66	1247,21
779,84	1232,88
780,01	1271,79
780,19	1239,02
780,37	1232,88
780,54	1253,36
780,72	1273,84
780,90	1298,41
781,07	1253,36
781,25	1306,60
781,43	1189,87
781,60	1265,64
781,78	1249,26
781,95	1277,93
782,13	1277,93
782,31	1263,60
782,48	1191,92
782,66	1273,84
782,83	1267,69
783,01	1222,64
783,19	1304,56
783,36	1279,98
783,54	1282,03
783,72	1296,36
783,89	1312,75
784,07	1279,98
784,24	1277,93
784,42	1265,64
784,60	1296,36
784,77	1353,71
784,95	1261,55
785,12	1343,47
785,30	1271,79
785,47	1247,21
785,65	1265,64
785,83	1286,12
786,00	1282,03
786,18	1347,56
786,35	1214,45
786,53	1284,08
786,71	1300,46
786,88	1284,08
787,06	1284,08
787,23	1222,64
787,41	1288,17
787,58	1282,03
787,76	1253,36
787,94	1267,69
788,11	1322,99
788,29	1241,07
788,46	1288,17
788,64	1245,16
788,81	1214,45
788,99	1294,32
789,16	1255,40
789,34	1265,64
789,52	1282,03
789,69	1263,60
789,87	1300,46
790,04	1318,89
790,22	1269,74
790,39	1247,21
790,57	1249,26
790,74	1320,94
790,92	1290,22
791,09	1269,74
791,27	1300,46
791,44	1234,93
791,62	1284,08
791,79	1345,52
791,97	1241,07
792,15	1251,31
792,32	1200,11
792,50	1277,93
792,67	1327,08
792,85	1296,36
793,02	1243,12
793,20	1251,31
793,37	1200,11
793,55	1200,11
793,72	1284,08
793,90	1327,08
794,07	1265,64
794,25	1261,55
794,42	1304,56
794,60	1314,80
794,77	1271,79
794,95	1265,64
795,12	1275,88
795,30	1236,97
795,47	1273,84
795,65	1298,41
795,82	1314,80
796,00	1183,73
796,17	1296,36
796,34	1232,88
796,52	1218,54
796,69	1222,64
796,87	1204,21
797,04	1337,32
797,22	1294,32
797,39	1271,79
797,57	1322,99
797,74	1226,73
797,92	1257,45
798,09	1241,07
798,27	1282,03
798,44	1337,32
798,62	1234,93
798,79	1312,75
798,96	1275,88
799,14	1245,16
799,31	1271,79
799,49	1275,88
799,66	1273,84
799,84	1312,75
800,01	1298,41
800,19	1292,27
800,36	1374,19
800,53	1380,33
800,71	1210,35
800,88	1329,13
801,06	1320,94
801,23	1249,26
801,41	1267,69
801,58	1234,93
801,75	1245,16
801,93	1243,12
802,10	1245,16
802,28	1296,36
802,45	1257,45
802,63	1241,07
802,80	1314,80
802,97	1306,60
803,15	1236,97
803,32	1214,45
803,50	1298,41
803,67	1239,02
803,84	1269,74
804,02	1298,41
804,19	1222,64
804,37	1247,21
804,54	1286,12
804,71	1347,56
804,89	1271,79
805,06	1220,59
805,24	1277,93
805,41	1214,45
805,58	1308,65
805,76	1312,75
805,93	1279,98
806,10	1304,56
806,28	1226,73
806,45	1232,88
806,63	1310,70
806,80	1279,98
806,97	1263,60
807,15	1275,88
807,32	1351,66
807,49	1271,79
807,67	1284,08
807,84	1247,21
808,01	1271,79
808,19	1249,26
808,36	1265,64
808,54	1341,42
808,71	1185,77
808,88	1308,65
809,06	1290,22
809,23	1290,22
809,40	1265,64
809,58	1249,26
809,75	1247,21
809,92	1335,28
810,10	1263,60
810,27	1310,70
810,44	1263,60
810,62	1327,08
810,79	1249,26
810,96	1261,55
811,14	1216,49
811,31	1333,23
811,48	1298,41
811,66	1228,78
811,83	1296,36
812,00	1337,32
812,18	1273,84
812,35	1384,43
812,52	1302,51
812,69	1212,40
812,87	1259,50
813,04	1290,22
813,21	1265,64
813,39	1320,94
813,56	1253,36
813,73	1257,45
813,91	1255,40
814,08	1275,88
814,25	1290,22
814,42	1230,83
814,60	1284,08
814,77	1292,27
814,94	1277,93
815,12	1228,78
815,29	1284,08
815,46	1275,88
815,63	1208,30
815,81	1189,87
815,98	1279,98
816,15	1282,03
816,33	1327,08
816,50	1247,21
816,67	1290,22
816,84	1300,46
817,02	1261,55
817,19	1290,22
817,36	1271,79
817,53	1347,56
817,71	1271,79
817,88	1259,50
818,05	1259,50
818,22	1329,13
818,40	1185,77
818,57	1271,79
818,74	1267,69
818,91	1204,21
819,09	1271,79
819,26	1288,17
819,43	1202,16
819,60	1257,45
819,78	1284,08
819,95	1226,73
820,12	1206,25
820,29	1320,94
820,47	1222,64
820,64	1210,35
820,81	1296,36
820,98	1322,99
821,15	1198,06
821,33	1253,36
821,50	1316,84
821,67	1257,45
821,84	1269,74
822,02	1142,77
822,19	1275,88
822,36	1251,31
822,53	1290,22
822,70	1279,98
822,88	1208,30
823,05	1312,75
823,22	1257,45
823,39	1294,32
823,56	1298,41
823,74	1308,65
823,91	1218,54
824,08	1245,16
824,25	1277,93
824,42	1273,84
824,60	1284,08
824,77	1314,80
824,94	1265,64
825,11	1169,39
825,28	1290,22
825,45	1239,02
825,63	1216,49
825,80	1318,89
825,97	1325,04
826,14	1212,40
826,31	1251,31
826,48	1298,41
826,66	1316,84
826,83	1161,20
827,00	1290,22
827,17	1259,50
827,34	1257,45
827,51	1265,64
827,69	1232,88
827,86	1351,66
828,03	1236,97
828,20	1269,74
828,37	1208,30
828,54	1273,84
828,71	1249,26
828,89	1271,79
829,06	1273,84
829,23	1271,79
829,40	1210,35
829,57	1282,03
829,74	1306,60
829,91	1292,27
830,09	1261,55
830,26	1312,75
830,43	1263,60
830,60	1241,07
830,77	1298,41
830,94	1294,32
831,11	1245,16
831,28	1226,73
831,46	1224,69
831,63	1204,21
831,80	1273,84
831,97	1214,45
832,14	1282,03
832,31	1275,88
832,48	1349,61
832,65	1224,69
832,82	1271,79
832,99	1257,45
833,17	1232,88
833,34	1222,64
833,51	1212,40
833,68	1320,94
833,85	1306,60
834,02	1288,17
834,19	1296,36
834,36	1265,64
834,53	1300,46
834,70	1263,60
834,87	1279,98
835,04	1325,04
835,22	1234,93
835,39	1294,32
835,56	1257,45
835,73	1286,12
835,90	1251,31
836,07	1294,32
836,24	1245,16
836,41	1273,84
836,58	1306,60
836,75	1341,42
836,92	1261,55
837,09	1314,80
837,26	1236,97
837,43	1222,64
837,60	1337,32
837,77	1284,08
837,94	1261,55
838,12	1243,12
838,29	1279,98
838,46	1267,69
838,63	1234,93
838,80	1257,45
838,97	1257,45
839,14	1329,13
839,31	1329,13
839,48	1271,79
839,65	1249,26
839,82	1296,36
839,99	1275,88
840,16	1267,69
840,33	1249,26
840,50	1263,60
840,67	1316,84
840,84	1259,50
841,01	1234,93
841,18	1316,84
841,35	1306,60
841,52	1249,26
841,69	1304,56
841,86	1320,94
842,03	1279,98
842,20	1312,75
842,37	1318,89
842,54	1243,12
842,71	1216,49
842,88	1292,27
843,05	1308,65
843,22	1247,21
843,39	1318,89
843,56	1325,04
843,73	1277,93
843,90	1314,80
844,07	1335,28
844,24	1239,02
844,41	1259,50
844,58	1249,26
844,75	1249,26
844,92	1273,84
845,09	1312,75
845,26	1286,12
845,43	1263,60
845,60	1300,46
845,77	1282,03
845,94	1232,88
846,10	1314,80
846,27	1288,17
846,44	1314,80
846,61	1263,60
846,78	1273,84
846,95	1304,56
847,12	1216,49
847,29	1179,63
847,46	1261,55
847,63	1236,97
847,80	1353,71
847,97	1300,46
848,14	1222,64
848,31	1200,11
848,48	1269,74
848,65	1304,56
848,82	1224,69
848,98	1273,84
849,15	1232,88
849,32	1310,70
849,49	1255,40
849,66	1259,50
849,83	1329,13
850,00	1247,21
850,17	1288,17
850,34	1239,02
850,51	1318,89
850,68	1282,03
850,85	1300,46
851,01	1247,21
851,18	1329,13
851,35	1288,17
851,52	1257,45
851,69	1267,69
851,86	1290,22
852,03	1314,80
852,20	1271,79
852,37	1249,26
852,53	1271,79
852,70	1314,80
852,87	1239,02
853,04	1234,93
853,21	1284,08
853,38	1198,06
853,55	1284,08
853,72	1329,13
853,89	1251,31
854,05	1236,97
854,22	1247,21
854,39	1263,60
854,56	1228,78
854,73	1251,31
854,90	1216,49
855,07	1335,28
855,23	1253,36
855,40	1249,26
855,57	1224,69
855,74	1277,93
855,91	1284,08
856,08	1265,64
856,25	1245,16
856,41	1304,56
856,58	1249,26
856,75	1290,22
856,92	1253,36
857,09	1239,02
857,26	1282,03
857,42	1329,13
857,59	1284,08
857,76	1288,17
857,93	1265,64
858,10	1218,54
858,27	1226,73
858,43	1271,79
858,60	1314,80
858,77	1343,47
858,94	1337,32
859,11	1220,59
859,27	1263,60
859,44	1247,21
859,61	1351,66
859,78	1322,99
859,95	1206,25
860,12	1224,69
860,28	1335,28
860,45	1306,60
860,62	1265,64
860,79	1216,49
860,95	1279,98
861,12	1255,40
861,29	1226,73
861,46	1290,22
861,63	1251,31
861,79	1298,41
861,96	1284,08
862,13	1325,04
862,30	1239,02
862,47	1253,36
862,63	1269,74
862,80	1294,32
862,97	1273,84
863,14	1226,73
863,30	1294,32
863,47	1279,98
863,64	1312,75
863,81	1253,36
863,97	1351,66
864,14	1259,50
864,31	1236,97
864,48	1236,97
864,65	1337,32
864,81	1208,30
864,98	1300,46
865,15	1189,87
865,32	1296,36
865,48	1306,60
865,65	1300,46
865,82	1263,60
865,98	1320,94
866,15	1257,45
866,32	1298,41
866,49	1329,13
866,65	1218,54
866,82	1218,54
866,99	1273,84
867,16	1327,08
867,32	1220,59
867,49	1329,13
867,66	1241,07
867,83	1288,17
867,99	1249,26
868,16	1370,09
868,33	1212,40
868,49	1222,64
868,66	1247,21
868,83	1247,21
868,99	1247,21
869,16	1304,56
869,33	1232,88
869,50	1298,41
869,66	1241,07
869,83	1185,77
870,00	1251,31
870,16	1333,23
870,33	1230,83
870,50	1251,31
870,66	1253,36
870,83	1292,27
871,00	1271,79
871,17	1265,64
871,33	1193,97
871,50	1226,73
871,67	1286,12
871,83	1298,41
872,00	1279,98
872,17	1226,73
872,33	1312,75
872,50	1241,07
872,67	1345,52
872,83	1241,07
873,00	1187,82
873,17	1198,06
873,33	1322,99
873,50	1296,36
873,67	1298,41
873,83	1282,03
874,00	1335,28
874,16	1251,31
874,33	1198,06
874,50	1271,79
874,66	1263,60
874,83	1198,06
875,00	1179,63
875,16	1257,45
875,33	1214,45
875,50	1271,79
875,66	1265,64
875,83	1298,41
875,99	1257,45
876,16	1267,69
876,33	1329,13
876,49	1310,70
876,66	1286,12
876,83	1218,54
876,99	1304,56
877,16	1265,64
877,32	1302,51
877,49	1296,36
877,66	1294,32
877,82	1239,02
877,99	1241,07
878,15	1298,41
878,32	1320,94
878,49	1261,55
878,65	1267,69
878,82	1218,54
878,98	1230,83
879,15	1312,75
879,32	1277,93
879,48	1273,84
879,65	1236,97
879,81	1193,97
879,98	1263,60
880,15	1327,08
880,31	1298,41
880,48	1310,70
880,64	1249,26
880,81	1271,79
880,97	1247,21
881,14	1282,03
881,31	1257,45
881,47	1298,41
881,64	1277,93
881,80	1206,25
881,97	1218,54
882,13	1265,64
882,30	1222,64
882,47	1294,32
882,63	1202,16
882,80	1335,28
882,96	1220,59
883,13	1288,17
883,29	1253,36
883,46	1236,97
883,62	1277,93
883,79	1230,83
883,95	1277,93
884,12	1253,36
884,29	1204,21
884,45	1290,22
884,62	1329,13
884,78	1249,26
884,95	1249,26
885,11	1302,51
885,28	1286,12
885,44	1230,83
885,61	1261,55
885,77	1329,13
885,94	1306,60
886,10	1343,47
886,27	1228,78
886,43	1208,30
886,60	1288,17
886,76	1220,59
886,93	1269,74
887,09	1282,03
887,26	1236,97
887,42	1202,16
887,59	1284,08
887,75	1292,27
887,92	1284,08
888,08	1247,21
888,25	1224,69
888,41	1265,64
888,58	1339,37
888,74	1275,88
888,91	1230,83
>>>>>End Processed Spectral Data<<<<<
