SpectraSuite Data File
++++++++++++++++++++++++++++++++++++
Date: Sun Apr 03 19:02:04 CEST 2016
User: root
Dark Spectrum Present: No
Reference Spectrum Present: No
Number of Sampled Component Spectra: 1
Spectrometers: USB4C02835
Integration Time (usec): 10000 (USB4C02835)
Spectra Averaged: 1 (USB4C02835)
Boxcar Smoothing: 0 (USB4C02835)
Correct for Electrical Dark: No (USB4C02835)
Strobe/Lamp Enabled: No (USB4C02835)
Correct for Detector Non-linearity: No (USB4C02835)
Correct for Stray Light: No (USB4C02835)
Number of Pixels in Processed Spectrum: 3648
>>>>>Begin Processed Spectral Data<<<<<
177,47	1335,28
177,69	1335,28
177,91	1335,28
178,13	1279,98
178,36	1290,22
178,58	1232,88
178,80	1247,21
179,02	1259,50
179,24	1222,64
179,46	1228,78
179,68	1322,99
179,90	1308,65
180,13	1277,93
180,35	1220,59
180,57	1253,36
180,79	1257,45
181,01	1218,54
181,23	1294,32
181,45	1284,08
181,67	1208,30
181,90	1247,21
182,12	1265,64
182,34	1241,07
182,56	1308,65
182,78	1353,71
183,00	1232,88
183,22	1232,88
183,44	1273,84
183,66	1255,40
183,89	1261,55
184,11	1247,21
184,33	1327,08
184,55	1255,40
184,77	1273,84
184,99	1275,88
185,21	1224,69
185,43	1247,21
185,65	1191,92
185,87	1279,98
186,10	1206,25
186,32	1249,26
186,54	1261,55
186,76	1294,32
186,98	1241,07
187,20	1286,12
187,42	1314,80
187,64	1277,93
187,86	1212,40
188,08	1232,88
188,30	1157,10
188,52	1282,03
188,75	1298,41
188,97	1198,06
189,19	1314,80
189,41	1214,45
189,63	1253,36
189,85	1206,25
190,07	1257,45
190,29	1236,97
190,51	1165,29
190,73	1218,54
190,95	1265,64
191,17	1241,07
191,39	1206,25
191,61	1343,47
191,84	1257,45
192,06	1265,64
192,28	1271,79
192,50	1290,22
192,72	1253,36
192,94	1245,16
193,16	1204,21
193,38	1288,17
193,60	1304,56
193,82	1308,65
194,04	1232,88
194,26	1286,12
194,48	1236,97
194,70	1230,83
194,92	1277,93
195,14	1318,89
195,36	1265,64
195,58	1290,22
195,80	1304,56
196,02	1273,84
196,24	1269,74
196,46	1298,41
196,69	1230,83
196,91	1290,22
197,13	1277,93
197,35	1259,50
197,57	1179,63
197,79	1275,88
198,01	1249,26
198,23	1234,93
198,45	1294,32
198,67	1253,36
198,89	1255,40
199,11	1320,94
199,33	1245,16
199,55	1318,89
199,77	1304,56
199,99	1255,40
200,21	1279,98
200,43	1316,84
200,65	1251,31
200,87	1314,80
201,09	1251,31
201,31	1249,26
201,53	1247,21
201,75	1286,12
201,97	1257,45
202,19	1284,08
202,41	1185,77
202,63	1226,73
202,85	1282,03
203,07	1279,98
203,29	1253,36
203,51	1247,21
203,73	1290,22
203,95	1318,89
204,17	1286,12
204,39	1239,02
204,61	1322,99
204,83	1138,67
205,05	1224,69
205,27	1230,83
205,49	1302,51
205,71	1298,41
205,93	1259,50
206,15	1253,36
206,37	1286,12
206,59	1341,42
206,81	1279,98
207,03	1255,40
207,25	1253,36
207,47	1279,98
207,69	1191,92
207,91	1228,78
208,13	1322,99
208,34	1282,03
208,56	1249,26
208,78	1282,03
209,00	1263,60
209,22	1247,21
209,44	1222,64
209,66	1269,74
209,88	1279,98
210,10	1261,55
210,32	1200,11
210,54	1282,03
210,76	1263,60
210,98	1198,06
211,20	1275,88
211,42	1247,21
211,64	1273,84
211,86	1228,78
212,08	1329,13
212,30	1230,83
212,52	1224,69
212,74	1304,56
212,96	1243,12
213,17	1236,97
213,39	1251,31
213,61	1212,40
213,83	1300,46
214,05	1273,84
214,27	1335,28
214,49	1249,26
214,71	1232,88
214,93	1306,60
215,15	1257,45
215,37	1282,03
215,59	1220,59
215,81	1329,13
216,03	1249,26
216,24	1314,80
216,46	1298,41
216,68	1312,75
216,90	1257,45
217,12	1273,84
217,34	1263,60
217,56	1294,32
217,78	1263,60
218,00	1241,07
218,22	1300,46
218,44	1312,75
218,66	1255,40
218,87	1300,46
219,09	1273,84
219,31	1236,97
219,53	1253,36
219,75	1288,17
219,97	1234,93
220,19	1267,69
220,41	1292,27
220,63	1185,77
220,85	1249,26
221,06	1239,02
221,28	1322,99
221,50	1241,07
221,72	1310,70
221,94	1277,93
222,16	1220,59
222,38	1241,07
222,60	1290,22
222,82	1255,40
223,03	1232,88
223,25	1327,08
223,47	1339,37
223,69	1316,84
223,91	1208,30
224,13	1267,69
224,35	1220,59
224,57	1212,40
224,78	1288,17
225,00	1245,16
225,22	1269,74
225,44	1316,84
225,66	1277,93
225,88	1230,83
226,10	1234,93
226,32	1267,69
226,53	1269,74
226,75	1320,94
226,97	1208,30
227,19	1239,02
227,41	1241,07
227,63	1243,12
227,85	1249,26
228,06	1273,84
228,28	1343,47
228,50	1265,64
228,72	1243,12
228,94	1286,12
229,16	1243,12
229,37	1249,26
229,59	1259,50
229,81	1269,74
230,03	1257,45
230,25	1288,17
230,47	1214,45
230,69	1196,01
230,90	1347,56
231,12	1243,12
231,34	1257,45
231,56	1263,60
231,78	1251,31
232,00	1228,78
232,21	1222,64
232,43	1314,80
232,65	1263,60
232,87	1263,60
233,09	1204,21
233,30	1300,46
233,52	1232,88
233,74	1279,98
233,96	1327,08
234,18	1337,32
234,40	1204,21
234,61	1316,84
234,83	1191,92
235,05	1288,17
235,27	1239,02
235,49	1282,03
235,70	1243,12
235,92	1306,60
236,14	1333,23
236,36	1322,99
236,58	1265,64
236,79	1239,02
237,01	1275,88
237,23	1314,80
237,45	1296,36
237,67	1239,02
237,88	1161,20
238,10	1314,80
238,32	1304,56
238,54	1191,92
238,76	1300,46
238,97	1208,30
239,19	1265,64
239,41	1210,35
239,63	1306,60
239,85	1214,45
240,06	1310,70
240,28	1306,60
240,50	1269,74
240,72	1282,03
240,93	1318,89
241,15	1284,08
241,37	1335,28
241,59	1282,03
241,81	1286,12
242,02	1236,97
242,24	1187,82
242,46	1284,08
242,68	1224,69
242,89	1296,36
243,11	1294,32
243,33	1263,60
243,55	1273,84
243,76	1218,54
243,98	1286,12
244,20	1275,88
244,42	1265,64
244,64	1273,84
244,85	1318,89
245,07	1277,93
245,29	1253,36
245,51	1183,73
245,72	1236,97
245,94	1230,83
246,16	1251,31
246,38	1314,80
246,59	1265,64
246,81	1304,56
247,03	1341,42
247,24	1226,73
247,46	1257,45
247,68	1210,35
247,90	1320,94
248,11	1329,13
248,33	1314,80
248,55	1232,88
248,77	1298,41
248,98	1249,26
249,20	1290,22
249,42	1279,98
249,64	1294,32
249,85	1300,46
250,07	1345,52
250,29	1253,36
250,50	1335,28
250,72	1298,41
250,94	1292,27
251,16	1210,35
251,37	1208,30
251,59	1286,12
251,81	1327,08
252,02	1239,02
252,24	1253,36
252,46	1306,60
252,68	1191,92
252,89	1232,88
253,11	1261,55
253,33	1255,40
253,54	1294,32
253,76	1273,84
253,98	1261,55
254,20	1292,27
254,41	1273,84
254,63	1232,88
254,85	1345,52
255,06	1279,98
255,28	1306,60
255,50	1273,84
255,71	1267,69
255,93	1333,23
256,15	1298,41
256,36	1220,59
256,58	1294,32
256,80	1304,56
257,02	1220,59
257,23	1308,65
257,45	1282,03
257,67	1243,12
257,88	1288,17
258,10	1302,51
258,32	1263,60
258,53	1249,26
258,75	1284,08
258,97	1255,40
259,18	1251,31
259,40	1259,50
259,62	1279,98
259,83	1198,06
260,05	1243,12
260,27	1296,36
260,48	1296,36
260,70	1275,88
260,92	1239,02
261,13	1259,50
261,35	1269,74
261,57	1200,11
261,78	1243,12
262,00	1298,41
262,22	1239,02
262,43	1253,36
262,65	1284,08
262,86	1302,51
263,08	1271,79
263,30	1245,16
263,51	1290,22
263,73	1259,50
263,95	1298,41
264,16	1253,36
264,38	1259,50
264,60	1255,40
264,81	1271,79
265,03	1341,42
265,25	1292,27
265,46	1294,32
265,68	1232,88
265,89	1325,04
266,11	1259,50
266,33	1216,49
266,54	1325,04
266,76	1302,51
266,98	1261,55
267,19	1265,64
267,41	1228,78
267,62	1257,45
267,84	1277,93
268,06	1241,07
268,27	1218,54
268,49	1226,73
268,70	1232,88
268,92	1279,98
269,14	1245,16
269,35	1267,69
269,57	1257,45
269,79	1296,36
270,00	1284,08
270,22	1167,34
270,43	1251,31
270,65	1259,50
270,87	1243,12
271,08	1269,74
271,30	1241,07
271,51	1206,25
271,73	1314,80
271,95	1257,45
272,16	1275,88
272,38	1257,45
272,59	1232,88
272,81	1208,30
273,02	1310,70
273,24	1224,69
273,46	1241,07
273,67	1263,60
273,89	1275,88
274,10	1232,88
274,32	1204,21
274,54	1230,83
274,75	1320,94
274,97	1306,60
275,18	1325,04
275,40	1298,41
275,61	1275,88
275,83	1286,12
276,05	1220,59
276,26	1216,49
276,48	1333,23
276,69	1163,25
276,91	1243,12
277,12	1253,36
277,34	1206,25
277,55	1232,88
277,77	1288,17
277,99	1263,60
278,20	1234,93
278,42	1339,37
278,63	1263,60
278,85	1230,83
279,06	1245,16
279,28	1236,97
279,49	1275,88
279,71	1298,41
279,93	1191,92
280,14	1255,40
280,36	1314,80
280,57	1320,94
280,79	1234,93
281,00	1329,13
281,22	1214,45
281,43	1251,31
281,65	1294,32
281,86	1239,02
282,08	1286,12
282,29	1296,36
282,51	1247,21
282,73	1224,69
282,94	1204,21
283,16	1306,60
283,37	1218,54
283,59	1343,47
283,80	1257,45
284,02	1243,12
284,23	1296,36
284,45	1279,98
284,66	1255,40
284,88	1267,69
285,09	1247,21
285,31	1273,84
285,52	1257,45
285,74	1269,74
285,95	1284,08
286,17	1298,41
286,38	1296,36
286,60	1189,87
286,81	1286,12
287,03	1253,36
287,24	1239,02
287,46	1282,03
287,67	1226,73
287,89	1304,56
288,10	1181,68
288,32	1275,88
288,53	1232,88
288,75	1335,28
288,96	1277,93
289,18	1212,40
289,39	1275,88
289,61	1243,12
289,82	1355,76
290,04	1271,79
290,25	1206,25
290,47	1284,08
290,68	1288,17
290,90	1249,26
291,11	1261,55
291,33	1314,80
291,54	1265,64
291,76	1337,32
291,97	1271,79
292,18	1255,40
292,40	1245,16
292,61	1310,70
292,83	1239,02
293,04	1304,56
293,26	1273,84
293,47	1236,97
293,69	1202,16
293,90	1269,74
294,12	1239,02
294,33	1267,69
294,55	1275,88
294,76	1234,93
294,97	1273,84
295,19	1286,12
295,40	1251,31
295,62	1294,32
295,83	1277,93
296,05	1273,84
296,26	1216,49
296,48	1292,27
296,69	1310,70
296,90	1296,36
297,12	1275,88
297,33	1294,32
297,55	1273,84
297,76	1325,04
297,98	1265,64
298,19	1286,12
298,41	1257,45
298,62	1298,41
298,83	1300,46
299,05	1193,97
299,26	1255,40
299,48	1232,88
299,69	1316,84
299,90	1347,56
300,12	1218,54
300,33	1304,56
300,55	1214,45
300,76	1343,47
300,98	1271,79
301,19	1228,78
301,40	1191,92
301,62	1304,56
301,83	1277,93
302,05	1302,51
302,26	1253,36
302,47	1222,64
302,69	1226,73
302,90	1253,36
303,12	1220,59
303,33	1294,32
303,54	1243,12
303,76	1232,88
303,97	1294,32
304,19	1292,27
304,40	1261,55
304,61	1241,07
304,83	1224,69
305,04	1314,80
305,26	1232,88
305,47	1255,40
305,68	1279,98
305,90	1271,79
306,11	1257,45
306,33	1279,98
306,54	1241,07
306,75	1271,79
306,97	1216,49
307,18	1333,23
307,39	1183,73
307,61	1183,73
307,82	1212,40
308,04	1224,69
308,25	1193,97
308,46	1200,11
308,68	1288,17
308,89	1236,97
309,10	1220,59
309,32	1236,97
309,53	1243,12
309,74	1298,41
309,96	1327,08
310,17	1214,45
310,39	1202,16
310,60	1296,36
310,81	1271,79
311,03	1253,36
311,24	1306,60
311,45	1298,41
311,67	1333,23
311,88	1320,94
312,09	1253,36
312,31	1206,25
312,52	1294,32
312,73	1259,50
312,95	1279,98
313,16	1265,64
313,37	1292,27
313,59	1243,12
313,80	1310,70
314,01	1286,12
314,23	1290,22
314,44	1290,22
314,65	1286,12
314,87	1288,17
315,08	1329,13
315,29	1259,50
315,51	1300,46
315,72	1298,41
315,93	1339,37
316,15	1212,40
316,36	1265,64
316,57	1241,07
316,79	1253,36
317,00	1171,44
317,21	1310,70
317,43	1277,93
317,64	1259,50
317,85	1239,02
318,07	1277,93
318,28	1275,88
318,49	1284,08
318,70	1318,89
318,92	1314,80
319,13	1282,03
319,34	1273,84
319,56	1263,60
319,77	1327,08
319,98	1265,64
320,20	1263,60
320,41	1269,74
320,62	1294,32
320,83	1208,30
321,05	1333,23
321,26	1327,08
321,47	1294,32
321,69	1327,08
321,90	1204,21
322,11	1335,28
322,32	1255,40
322,54	1288,17
322,75	1320,94
322,96	1320,94
323,18	1282,03
323,39	1251,31
323,60	1232,88
323,81	1282,03
324,03	1284,08
324,24	1204,21
324,45	1257,45
324,66	1310,70
324,88	1239,02
325,09	1247,21
325,30	1212,40
325,52	1230,83
325,73	1255,40
325,94	1300,46
326,15	1337,32
326,37	1306,60
326,58	1228,78
326,79	1275,88
327,00	1167,34
327,22	1288,17
327,43	1243,12
327,64	1259,50
327,85	1294,32
328,07	1329,13
328,28	1273,84
328,49	1282,03
328,70	1267,69
328,92	1251,31
329,13	1341,42
329,34	1257,45
329,55	1304,56
329,76	1267,69
329,98	1202,16
330,19	1257,45
330,40	1327,08
330,61	1333,23
330,83	1232,88
331,04	1259,50
331,25	1210,35
331,46	1265,64
331,68	1200,11
331,89	1284,08
332,10	1290,22
332,31	1300,46
332,52	1245,16
332,74	1284,08
332,95	1284,08
333,16	1253,36
333,37	1265,64
333,58	1298,41
333,80	1239,02
334,01	1234,93
334,22	1261,55
334,43	1275,88
334,64	1228,78
334,86	1275,88
335,07	1247,21
335,28	1296,36
335,49	1234,93
335,70	1286,12
335,92	1314,80
336,13	1253,36
336,34	1232,88
336,55	1247,21
336,76	1228,78
336,98	1265,64
337,19	1241,07
337,40	1286,12
337,61	1292,27
337,82	1306,60
338,04	1335,28
338,25	1273,84
338,46	1335,28
338,67	1222,64
338,88	1269,74
339,09	1236,97
339,31	1277,93
339,52	1273,84
339,73	1212,40
339,94	1232,88
340,15	1259,50
340,36	1304,56
340,58	1312,75
340,79	1282,03
341,00	1253,36
341,21	1228,78
341,42	1296,36
341,63	1245,16
341,85	1327,08
342,06	1310,70
342,27	1325,04
342,48	1290,22
342,69	1255,40
342,90	1279,98
343,12	1284,08
343,33	1247,21
343,54	1296,36
343,75	1236,97
343,96	1253,36
344,17	1222,64
344,38	1263,60
344,60	1267,69
344,81	1183,73
345,02	1251,31
345,23	1284,08
345,44	1251,31
345,65	1253,36
345,86	1247,21
346,07	1179,63
346,29	1314,80
346,50	1267,69
346,71	1271,79
346,92	1216,49
347,13	1314,80
347,34	1187,82
347,55	1236,97
347,76	1327,08
347,98	1304,56
348,19	1271,79
348,40	1273,84
348,61	1269,74
348,82	1314,80
349,03	1253,36
349,24	1200,11
349,45	1243,12
349,66	1288,17
349,88	1273,84
350,09	1208,30
350,30	1177,58
350,51	1310,70
350,72	1304,56
350,93	1314,80
351,14	1241,07
351,35	1259,50
351,56	1212,40
351,77	1257,45
351,99	1247,21
352,20	1257,45
352,41	1314,80
352,62	1234,93
352,83	1230,83
353,04	1228,78
353,25	1277,93
353,46	1222,64
353,67	1290,22
353,88	1261,55
354,09	1271,79
354,30	1269,74
354,52	1306,60
354,73	1298,41
354,94	1212,40
355,15	1257,45
355,36	1286,12
355,57	1294,32
355,78	1282,03
355,99	1218,54
356,20	1267,69
356,41	1255,40
356,62	1294,32
356,83	1312,75
357,04	1300,46
357,25	1351,66
357,46	1214,45
357,68	1341,42
357,89	1165,29
358,10	1245,16
358,31	1261,55
358,52	1314,80
358,73	1202,16
358,94	1286,12
359,15	1339,37
359,36	1310,70
359,57	1273,84
359,78	1191,92
359,99	1230,83
360,20	1263,60
360,41	1288,17
360,62	1269,74
360,83	1259,50
361,04	1320,94
361,25	1232,88
361,46	1208,30
361,67	1288,17
361,88	1169,39
362,09	1288,17
362,30	1247,21
362,51	1249,26
362,72	1257,45
362,93	1228,78
363,14	1300,46
363,35	1290,22
363,56	1228,78
363,78	1257,45
363,99	1218,54
364,20	1234,93
364,41	1261,55
364,62	1302,51
364,83	1249,26
365,04	1296,36
365,25	1310,70
365,46	1282,03
365,67	1247,21
365,88	1249,26
366,09	1253,36
366,30	1284,08
366,51	1279,98
366,72	1265,64
366,93	1275,88
367,14	1189,87
367,35	1308,65
367,56	1236,97
367,77	1284,08
367,98	1265,64
368,18	1253,36
368,39	1271,79
368,60	1222,64
368,81	1243,12
369,02	1259,50
369,23	1212,40
369,44	1288,17
369,65	1251,31
369,86	1335,28
370,07	1300,46
370,28	1265,64
370,49	1318,89
370,70	1273,84
370,91	1243,12
371,12	1251,31
371,33	1239,02
371,54	1294,32
371,75	1261,55
371,96	1282,03
372,17	1247,21
372,38	1279,98
372,59	1257,45
372,80	1290,22
373,01	1304,56
373,22	1224,69
373,43	1255,40
373,64	1277,93
373,85	1275,88
374,06	1320,94
374,26	1196,01
374,47	1259,50
374,68	1234,93
374,89	1288,17
375,10	1257,45
375,31	1257,45
375,52	1236,97
375,73	1239,02
375,94	1222,64
376,15	1245,16
376,36	1183,73
376,57	1347,56
376,78	1269,74
376,99	1257,45
377,20	1347,56
377,40	1282,03
377,61	1290,22
377,82	1275,88
378,03	1243,12
378,24	1347,56
378,45	1232,88
378,66	1249,26
378,87	1279,98
379,08	1277,93
379,29	1318,89
379,50	1222,64
379,71	1253,36
379,91	1230,83
380,12	1259,50
380,33	1259,50
380,54	1226,73
380,75	1273,84
380,96	1275,88
381,17	1275,88
381,38	1212,40
381,59	1220,59
381,80	1228,78
382,00	1263,60
382,21	1306,60
382,42	1271,79
382,63	1316,84
382,84	1247,21
383,05	1259,50
383,26	1265,64
383,47	1265,64
383,68	1253,36
383,88	1239,02
384,09	1230,83
384,30	1220,59
384,51	1232,88
384,72	1259,50
384,93	1220,59
385,14	1257,45
385,35	1337,32
385,55	1277,93
385,76	1296,36
385,97	1212,40
386,18	1236,97
386,39	1271,79
386,60	1243,12
386,81	1226,73
387,02	1265,64
387,22	1290,22
387,43	1314,80
387,64	1263,60
387,85	1333,23
388,06	1261,55
388,27	1312,75
388,48	1298,41
388,68	1263,60
388,89	1275,88
389,10	1267,69
389,31	1224,69
389,52	1269,74
389,73	1339,37
389,93	1269,74
390,14	1302,51
390,35	1312,75
390,56	1286,12
390,77	1234,93
390,98	1255,40
391,18	1249,26
391,39	1208,30
391,60	1312,75
391,81	1277,93
392,02	1222,64
392,23	1245,16
392,43	1196,01
392,64	1314,80
392,85	1167,34
393,06	1355,76
393,27	1273,84
393,47	1218,54
393,68	1333,23
393,89	1265,64
394,10	1290,22
394,31	1148,91
394,52	1263,60
394,72	1196,01
394,93	1322,99
395,14	1300,46
395,35	1179,63
395,56	1286,12
395,76	1259,50
395,97	1185,77
396,18	1236,97
396,39	1239,02
396,60	1269,74
396,80	1241,07
397,01	1216,49
397,22	1290,22
397,43	1345,52
397,64	1259,50
397,84	1193,97
398,05	1286,12
398,26	1245,16
398,47	1322,99
398,67	1325,04
398,88	1279,98
399,09	1243,12
399,30	1269,74
399,51	1257,45
399,71	1288,17
399,92	1298,41
400,13	1282,03
400,34	1331,18
400,54	1290,22
400,75	1333,23
400,96	1288,17
401,17	1282,03
401,37	1316,84
401,58	1284,08
401,79	1288,17
402,00	1265,64
402,21	1277,93
402,41	1236,97
402,62	1300,46
402,83	1212,40
403,04	1220,59
403,24	1200,11
403,45	1322,99
403,66	1216,49
403,87	1310,70
404,07	1230,83
404,28	1288,17
404,49	1306,60
404,70	1298,41
404,90	1222,64
405,11	1288,17
405,32	1320,94
405,52	1290,22
405,73	1318,89
405,94	1284,08
406,15	1306,60
406,35	1245,16
406,56	1284,08
406,77	1245,16
406,98	1302,51
407,18	1288,17
407,39	1251,31
407,60	1222,64
407,80	1214,45
408,01	1259,50
408,22	1290,22
408,43	1204,21
408,63	1214,45
408,84	1253,36
409,05	1249,26
409,25	1236,97
409,46	1298,41
409,67	1249,26
409,88	1265,64
410,08	1312,75
410,29	1277,93
410,50	1267,69
410,70	1239,02
410,91	1243,12
411,12	1200,11
411,32	1255,40
411,53	1253,36
411,74	1314,80
411,95	1290,22
412,15	1286,12
412,36	1185,77
412,57	1296,36
412,77	1339,37
412,98	1277,93
413,19	1230,83
413,39	1296,36
413,60	1275,88
413,81	1265,64
414,01	1320,94
414,22	1310,70
414,43	1222,64
414,63	1232,88
414,84	1234,93
415,05	1218,54
415,25	1249,26
415,46	1282,03
415,67	1189,87
415,87	1282,03
416,08	1306,60
416,29	1277,93
416,49	1329,13
416,70	1243,12
416,91	1282,03
417,11	1288,17
417,32	1210,35
417,53	1245,16
417,73	1245,16
417,94	1290,22
418,15	1284,08
418,35	1214,45
418,56	1265,64
418,77	1286,12
418,97	1234,93
419,18	1290,22
419,38	1320,94
419,59	1294,32
419,80	1304,56
420,00	1220,59
420,21	1234,93
420,42	1279,98
420,62	1271,79
420,83	1247,21
421,04	1282,03
421,24	1257,45
421,45	1255,40
421,65	1245,16
421,86	1314,80
422,07	1269,74
422,27	1277,93
422,48	1265,64
422,69	1249,26
422,89	1267,69
423,10	1261,55
423,30	1247,21
423,51	1222,64
423,72	1329,13
423,92	1349,61
424,13	1269,74
424,33	1271,79
424,54	1271,79
424,75	1251,31
424,95	1230,83
425,16	1230,83
425,36	1308,65
425,57	1374,19
425,78	1214,45
425,98	1327,08
426,19	1347,56
426,39	1239,02
426,60	1288,17
426,81	1200,11
427,01	1288,17
427,22	1249,26
427,42	1236,97
427,63	1232,88
427,83	1275,88
428,04	1304,56
428,25	1220,59
428,45	1255,40
428,66	1294,32
428,86	1241,07
429,07	1216,49
429,28	1304,56
429,48	1220,59
429,69	1224,69
429,89	1236,97
430,10	1304,56
430,30	1261,55
430,51	1267,69
430,71	1300,46
430,92	1253,36
431,13	1263,60
431,33	1298,41
431,54	1265,64
431,74	1245,16
431,95	1261,55
432,15	1288,17
432,36	1204,21
432,56	1284,08
432,77	1253,36
432,98	1286,12
433,18	1298,41
433,39	1226,73
433,59	1282,03
433,80	1325,04
434,00	1261,55
434,21	1232,88
434,41	1310,70
434,62	1167,34
434,82	1241,07
435,03	1271,79
435,23	1255,40
435,44	1275,88
435,64	1302,51
435,85	1310,70
436,06	1267,69
436,26	1232,88
436,47	1265,64
436,67	1337,32
436,88	1241,07
437,08	1245,16
437,29	1228,78
437,49	1275,88
437,70	1261,55
437,90	1265,64
438,11	1230,83
438,31	1220,59
438,52	1218,54
438,72	1261,55
438,93	1265,64
439,13	1298,41
439,34	1292,27
439,54	1230,83
439,75	1341,42
439,95	1331,18
440,16	1261,55
440,36	1286,12
440,57	1228,78
440,77	1196,01
440,98	1222,64
441,18	1339,37
441,39	1222,64
441,59	1282,03
441,80	1312,75
442,00	1286,12
442,21	1302,51
442,41	1193,97
442,62	1236,97
442,82	1296,36
443,02	1218,54
443,23	1212,40
443,43	1255,40
443,64	1312,75
443,84	1214,45
444,05	1310,70
444,25	1212,40
444,46	1216,49
444,66	1298,41
444,87	1277,93
445,07	1228,78
445,28	1239,02
445,48	1243,12
445,69	1212,40
445,89	1320,94
446,09	1206,25
446,30	1339,37
446,50	1275,88
446,71	1288,17
446,91	1265,64
447,12	1198,06
447,32	1353,71
447,53	1290,22
447,73	1267,69
447,93	1241,07
448,14	1245,16
448,34	1271,79
448,55	1325,04
448,75	1232,88
448,96	1259,50
449,16	1327,08
449,36	1243,12
449,57	1218,54
449,77	1247,21
449,98	1255,40
450,18	1310,70
450,39	1333,23
450,59	1206,25
450,79	1298,41
451,00	1230,83
451,20	1275,88
451,41	1241,07
451,61	1243,12
451,81	1288,17
452,02	1273,84
452,22	1255,40
452,43	1271,79
452,63	1239,02
452,84	1261,55
453,04	1214,45
453,24	1255,40
453,45	1355,76
453,65	1329,13
453,86	1279,98
454,06	1294,32
454,26	1220,59
454,47	1249,26
454,67	1327,08
454,87	1298,41
455,08	1253,36
455,28	1302,51
455,49	1251,31
455,69	1245,16
455,89	1099,76
456,10	1325,04
456,30	1284,08
456,51	1259,50
456,71	1294,32
456,91	1251,31
457,12	1214,45
457,32	1312,75
457,52	1249,26
457,73	1245,16
457,93	1282,03
458,14	1271,79
458,34	1236,97
458,54	1183,73
458,75	1239,02
458,95	1265,64
459,15	1200,11
459,36	1290,22
459,56	1261,55
459,76	1239,02
459,97	1290,22
460,17	1282,03
460,37	1286,12
460,58	1216,49
460,78	1271,79
460,99	1226,73
461,19	1265,64
461,39	1204,21
461,60	1247,21
461,80	1279,98
462,00	1322,99
462,21	1273,84
462,41	1322,99
462,61	1282,03
462,82	1277,93
463,02	1224,69
463,22	1208,30
463,43	1325,04
463,63	1236,97
463,83	1329,13
464,04	1318,89
464,24	1296,36
464,44	1298,41
464,64	1245,16
464,85	1249,26
465,05	1300,46
465,25	1286,12
465,46	1279,98
465,66	1214,45
465,86	1312,75
466,07	1294,32
466,27	1239,02
466,47	1253,36
466,68	1269,74
466,88	1320,94
467,08	1241,07
467,29	1265,64
467,49	1214,45
467,69	1210,35
467,89	1286,12
468,10	1214,45
468,30	1314,80
468,50	1310,70
468,71	1257,45
468,91	1314,80
469,11	1245,16
469,31	1214,45
469,52	1279,98
469,72	1353,71
469,92	1243,12
470,13	1294,32
470,33	1214,45
470,53	1212,40
470,73	1216,49
470,94	1206,25
471,14	1290,22
471,34	1329,13
471,54	1226,73
471,75	1269,74
471,95	1296,36
472,15	1255,40
472,36	1318,89
472,56	1232,88
472,76	1228,78
472,96	1290,22
473,17	1314,80
473,37	1249,26
473,57	1226,73
473,77	1255,40
473,98	1277,93
474,18	1247,21
474,38	1247,21
474,58	1214,45
474,79	1343,47
474,99	1273,84
475,19	1282,03
475,39	1269,74
475,60	1300,46
475,80	1343,47
476,00	1243,12
476,20	1159,15
476,41	1257,45
476,61	1259,50
476,81	1267,69
477,01	1228,78
477,21	1351,66
477,42	1288,17
477,62	1239,02
477,82	1261,55
478,02	1284,08
478,23	1249,26
478,43	1288,17
478,63	1298,41
478,83	1243,12
479,03	1282,03
479,24	1222,64
479,44	1249,26
479,64	1277,93
479,84	1298,41
480,04	1232,88
480,25	1275,88
480,45	1304,56
480,65	1206,25
480,85	1279,98
481,06	1300,46
481,26	1282,03
481,46	1263,60
481,66	1265,64
481,86	1294,32
482,06	1284,08
482,27	1300,46
482,47	1271,79
482,67	1308,65
482,87	1304,56
483,07	1247,21
483,28	1310,70
483,48	1208,30
483,68	1236,97
483,88	1284,08
484,08	1245,16
484,29	1222,64
484,49	1265,64
484,69	1265,64
484,89	1257,45
485,09	1245,16
485,29	1282,03
485,50	1279,98
485,70	1275,88
485,90	1286,12
486,10	1284,08
486,30	1198,06
486,50	1329,13
486,71	1325,04
486,91	1216,49
487,11	1304,56
487,31	1263,60
487,51	1282,03
487,71	1300,46
487,91	1269,74
488,12	1183,73
488,32	1298,41
488,52	1292,27
488,72	1257,45
488,92	1173,49
489,12	1296,36
489,32	1196,01
489,53	1257,45
489,73	1239,02
489,93	1286,12
490,13	1200,11
490,33	1273,84
490,53	1247,21
490,73	1241,07
490,94	1249,26
491,14	1310,70
491,34	1230,83
491,54	1259,50
491,74	1275,88
491,94	1290,22
492,14	1236,97
492,34	1259,50
492,54	1232,88
492,75	1228,78
492,95	1218,54
493,15	1273,84
493,35	1286,12
493,55	1296,36
493,75	1298,41
493,95	1363,95
494,15	1333,23
494,35	1232,88
494,56	1271,79
494,76	1275,88
494,96	1208,30
495,16	1300,46
495,36	1318,89
495,56	1271,79
495,76	1232,88
495,96	1241,07
496,16	1284,08
496,36	1273,84
496,56	1284,08
496,77	1286,12
496,97	1269,74
497,17	1304,56
497,37	1265,64
497,57	1265,64
497,77	1218,54
497,97	1273,84
498,17	1273,84
498,37	1247,21
498,57	1269,74
498,77	1275,88
498,97	1220,59
499,17	1269,74
499,38	1208,30
499,58	1337,32
499,78	1282,03
499,98	1304,56
500,18	1296,36
500,38	1206,25
500,58	1304,56
500,78	1257,45
500,98	1363,95
501,18	1218,54
501,38	1300,46
501,58	1312,75
501,78	1236,97
501,98	1322,99
502,18	1331,18
502,38	1325,04
502,58	1214,45
502,78	1253,36
502,98	1282,03
503,18	1224,69
503,38	1249,26
503,59	1347,56
503,79	1316,84
503,99	1277,93
504,19	1261,55
504,39	1298,41
504,59	1322,99
504,79	1230,83
504,99	1253,36
505,19	1220,59
505,39	1232,88
505,59	1212,40
505,79	1267,69
505,99	1298,41
506,19	1208,30
506,39	1318,89
506,59	1300,46
506,79	1273,84
506,99	1206,25
507,19	1208,30
507,39	1294,32
507,59	1261,55
507,79	1263,60
507,99	1341,42
508,19	1263,60
508,39	1294,32
508,59	1290,22
508,79	1214,45
508,99	1251,31
509,19	1245,16
509,39	1257,45
509,59	1271,79
509,79	1236,97
509,99	1314,80
510,19	1390,57
510,39	1255,40
510,59	1261,55
510,79	1230,83
510,99	1277,93
511,19	1263,60
511,39	1279,98
511,59	1294,32
511,79	1257,45
511,99	1322,99
512,19	1339,37
512,38	1245,16
512,58	1251,31
512,78	1222,64
512,98	1212,40
513,18	1298,41
513,38	1333,23
513,58	1214,45
513,78	1249,26
513,98	1353,71
514,18	1167,34
514,38	1269,74
514,58	1308,65
514,78	1216,49
514,98	1230,83
515,18	1302,51
515,38	1232,88
515,58	1259,50
515,78	1302,51
515,98	1312,75
516,18	1306,60
516,38	1218,54
516,57	1236,97
516,77	1351,66
516,97	1200,11
517,17	1306,60
517,37	1222,64
517,57	1222,64
517,77	1304,56
517,97	1214,45
518,17	1191,92
518,37	1275,88
518,57	1236,97
518,77	1277,93
518,97	1245,16
519,16	1232,88
519,36	1349,61
519,56	1251,31
519,76	1200,11
519,96	1298,41
520,16	1263,60
520,36	1159,15
520,56	1175,53
520,76	1253,36
520,96	1302,51
521,16	1216,49
521,35	1290,22
521,55	1222,64
521,75	1286,12
521,95	1232,88
522,15	1269,74
522,35	1226,73
522,55	1296,36
522,75	1247,21
522,95	1241,07
523,14	1220,59
523,34	1265,64
523,54	1255,40
523,74	1214,45
523,94	1312,75
524,14	1265,64
524,34	1273,84
524,54	1361,90
524,73	1286,12
524,93	1279,98
525,13	1273,84
525,33	1292,27
525,53	1312,75
525,73	1282,03
525,93	1239,02
526,13	1286,12
526,32	1329,13
526,52	1210,35
526,72	1234,93
526,92	1277,93
527,12	1249,26
527,32	1316,84
527,52	1312,75
527,71	1202,16
527,91	1331,18
528,11	1339,37
528,31	1310,70
528,51	1288,17
528,71	1257,45
528,90	1290,22
529,10	1284,08
529,30	1284,08
529,50	1275,88
529,70	1224,69
529,90	1300,46
530,09	1292,27
530,29	1282,03
530,49	1245,16
530,69	1306,60
530,89	1269,74
531,09	1271,79
531,28	1253,36
531,48	1243,12
531,68	1275,88
531,88	1282,03
532,08	1282,03
532,28	1271,79
532,47	1343,47
532,67	1333,23
532,87	1200,11
533,07	1212,40
533,27	1251,31
533,46	1261,55
533,66	1282,03
533,86	1265,64
534,06	1325,04
534,26	1290,22
534,45	1224,69
534,65	1302,51
534,85	1271,79
535,05	1239,02
535,25	1296,36
535,44	1245,16
535,64	1208,30
535,84	1273,84
536,04	1218,54
536,24	1267,69
536,43	1214,45
536,63	1357,80
536,83	1263,60
537,03	1220,59
537,22	1245,16
537,42	1275,88
537,62	1257,45
537,82	1271,79
538,02	1271,79
538,21	1310,70
538,41	1306,60
538,61	1314,80
538,81	1294,32
539,00	1296,36
539,20	1335,28
539,40	1247,21
539,60	1284,08
539,79	1206,25
539,99	1163,25
540,19	1193,97
540,39	1265,64
540,58	1263,60
540,78	1220,59
540,98	1257,45
541,18	1363,95
541,37	1255,40
541,57	1310,70
541,77	1251,31
541,97	1261,55
542,16	1214,45
542,36	1273,84
542,56	1294,32
542,76	1249,26
542,95	1310,70
543,15	1257,45
543,35	1243,12
543,54	1294,32
543,74	1257,45
543,94	1253,36
544,14	1230,83
544,33	1220,59
544,53	1249,26
544,73	1271,79
544,93	1208,30
545,12	1282,03
545,32	1277,93
545,52	1271,79
545,71	1306,60
545,91	1241,07
546,11	1241,07
546,30	1279,98
546,50	1304,56
546,70	1288,17
546,90	1261,55
547,09	1261,55
547,29	1245,16
547,49	1306,60
547,68	1370,09
547,88	1290,22
548,08	1261,55
548,27	1275,88
548,47	1265,64
548,67	1298,41
548,87	1230,83
549,06	1294,32
549,26	1228,78
549,46	1267,69
549,65	1345,52
549,85	1245,16
550,05	1294,32
550,24	1298,41
550,44	1245,16
550,64	1236,97
550,83	1298,41
551,03	1284,08
551,23	1318,89
551,42	1241,07
551,62	1339,37
551,82	1273,84
552,01	1277,93
552,21	1310,70
552,41	1357,80
552,60	1222,64
552,80	1306,60
553,00	1236,97
553,19	1226,73
553,39	1263,60
553,59	1241,07
553,78	1314,80
553,98	1245,16
554,17	1304,56
554,37	1275,88
554,57	1257,45
554,76	1304,56
554,96	1286,12
555,16	1339,37
555,35	1284,08
555,55	1255,40
555,75	1302,51
555,94	1249,26
556,14	1259,50
556,33	1279,98
556,53	1290,22
556,73	1279,98
556,92	1232,88
557,12	1245,16
557,32	1282,03
557,51	1230,83
557,71	1220,59
557,90	1294,32
558,10	1253,36
558,30	1300,46
558,49	1269,74
558,69	1296,36
558,88	1187,82
559,08	1265,64
559,28	1249,26
559,47	1304,56
559,67	1259,50
559,86	1175,53
560,06	1191,92
560,26	1345,52
560,45	1318,89
560,65	1306,60
560,84	1247,21
561,04	1234,93
561,24	1265,64
561,43	1208,30
561,63	1329,13
561,82	1265,64
562,02	1257,45
562,22	1214,45
562,41	1310,70
562,61	1275,88
562,80	1294,32
563,00	1292,27
563,19	1243,12
563,39	1206,25
563,59	1253,36
563,78	1277,93
563,98	1265,64
564,17	1290,22
564,37	1214,45
564,56	1265,64
564,76	1222,64
564,96	1257,45
565,15	1275,88
565,35	1249,26
565,54	1275,88
565,74	1292,27
565,93	1265,64
566,13	1318,89
566,32	1314,80
566,52	1263,60
566,71	1226,73
566,91	1243,12
567,11	1292,27
567,30	1322,99
567,50	1265,64
567,69	1279,98
567,89	1239,02
568,08	1202,16
568,28	1279,98
568,47	1314,80
568,67	1325,04
568,86	1241,07
569,06	1279,98
569,25	1261,55
569,45	1220,59
569,64	1302,51
569,84	1251,31
570,04	1249,26
570,23	1282,03
570,43	1265,64
570,62	1224,69
570,82	1310,70
571,01	1290,22
571,21	1337,32
571,40	1271,79
571,60	1275,88
571,79	1275,88
571,99	1288,17
572,18	1232,88
572,38	1300,46
572,57	1239,02
572,77	1273,84
572,96	1290,22
573,16	1241,07
573,35	1247,21
573,55	1220,59
573,74	1243,12
573,94	1284,08
574,13	1320,94
574,33	1310,70
574,52	1288,17
574,71	1234,93
574,91	1269,74
575,10	1202,16
575,30	1251,31
575,49	1304,56
575,69	1208,30
575,88	1263,60
576,08	1257,45
576,27	1245,16
576,47	1196,01
576,66	1275,88
576,86	1206,25
577,05	1236,97
577,25	1236,97
577,44	1273,84
577,64	1282,03
577,83	1230,83
578,02	1318,89
578,22	1241,07
578,41	1206,25
578,61	1265,64
578,80	1243,12
579,00	1220,59
579,19	1249,26
579,39	1294,32
579,58	1261,55
579,77	1337,32
579,97	1357,80
580,16	1286,12
580,36	1288,17
580,55	1232,88
580,75	1208,30
580,94	1208,30
581,13	1294,32
581,33	1153,01
581,52	1263,60
581,72	1265,64
581,91	1255,40
582,11	1279,98
582,30	1296,36
582,49	1222,64
582,69	1271,79
582,88	1183,73
583,08	1294,32
583,27	1331,18
583,47	1247,21
583,66	1279,98
583,85	1273,84
584,05	1286,12
584,24	1282,03
584,44	1263,60
584,63	1312,75
584,82	1335,28
585,02	1267,69
585,21	1259,50
585,41	1284,08
585,60	1368,04
585,79	1220,59
585,99	1300,46
586,18	1304,56
586,37	1185,77
586,57	1226,73
586,76	1222,64
586,96	1241,07
587,15	1325,04
587,34	1263,60
587,54	1341,42
587,73	1306,60
587,93	1204,21
588,12	1251,31
588,31	1298,41
588,51	1187,82
588,70	1335,28
588,89	1331,18
589,09	1325,04
589,28	1282,03
589,47	1255,40
589,67	1292,27
589,86	1292,27
590,06	1290,22
590,25	1370,09
590,44	1249,26
590,64	1228,78
590,83	1265,64
591,02	1226,73
591,22	1261,55
591,41	1239,02
591,60	1296,36
591,80	1322,99
591,99	1308,65
592,18	1282,03
592,38	1318,89
592,57	1253,36
592,76	1290,22
592,96	1339,37
593,15	1271,79
593,34	1249,26
593,54	1277,93
593,73	1298,41
593,92	1255,40
594,12	1347,56
594,31	1224,69
594,50	1232,88
594,70	1314,80
594,89	1279,98
595,08	1243,12
595,28	1206,25
595,47	1347,56
595,66	1249,26
595,86	1183,73
596,05	1222,64
596,24	1310,70
596,43	1224,69
596,63	1208,30
596,82	1259,50
597,01	1308,65
597,21	1251,31
597,40	1325,04
597,59	1318,89
597,79	1249,26
597,98	1312,75
598,17	1204,21
598,36	1206,25
598,56	1241,07
598,75	1247,21
598,94	1232,88
599,14	1241,07
599,33	1298,41
599,52	1318,89
599,71	1277,93
599,91	1267,69
600,10	1234,93
600,29	1279,98
600,48	1355,76
600,68	1173,49
600,87	1210,35
601,06	1279,98
601,26	1325,04
601,45	1277,93
601,64	1208,30
601,83	1282,03
602,03	1288,17
602,22	1300,46
602,41	1286,12
602,60	1216,49
602,80	1325,04
602,99	1322,99
603,18	1290,22
603,37	1298,41
603,57	1312,75
603,76	1271,79
603,95	1210,35
604,14	1239,02
604,34	1345,52
604,53	1279,98
604,72	1333,23
604,91	1193,97
605,10	1286,12
605,30	1271,79
605,49	1290,22
605,68	1294,32
605,87	1302,51
606,07	1327,08
606,26	1228,78
606,45	1224,69
606,64	1269,74
606,84	1271,79
607,03	1292,27
607,22	1251,31
607,41	1218,54
607,60	1257,45
607,80	1277,93
607,99	1220,59
608,18	1292,27
608,37	1247,21
608,56	1345,52
608,76	1304,56
608,95	1327,08
609,14	1284,08
609,33	1288,17
609,52	1243,12
609,72	1224,69
609,91	1298,41
610,10	1228,78
610,29	1224,69
610,48	1249,26
610,68	1200,11
610,87	1279,98
611,06	1224,69
611,25	1312,75
611,44	1279,98
611,63	1277,93
611,83	1271,79
612,02	1253,36
612,21	1257,45
612,40	1259,50
612,59	1236,97
612,79	1269,74
612,98	1261,55
613,17	1306,60
613,36	1261,55
613,55	1247,21
613,74	1312,75
613,93	1243,12
614,13	1253,36
614,32	1265,64
614,51	1302,51
614,70	1312,75
614,89	1251,31
615,08	1335,28
615,28	1300,46
615,47	1325,04
615,66	1263,60
615,85	1226,73
616,04	1273,84
616,23	1212,40
616,42	1245,16
616,62	1284,08
616,81	1222,64
617,00	1277,93
617,19	1212,40
617,38	1310,70
617,57	1216,49
617,76	1267,69
617,95	1312,75
618,15	1290,22
618,34	1179,63
618,53	1253,36
618,72	1265,64
618,91	1253,36
619,10	1314,80
619,29	1345,52
619,48	1247,21
619,68	1200,11
619,87	1273,84
620,06	1331,18
620,25	1329,13
620,44	1275,88
620,63	1368,04
620,82	1314,80
621,01	1236,97
621,20	1239,02
621,39	1241,07
621,59	1331,18
621,78	1232,88
621,97	1253,36
622,16	1257,45
622,35	1304,56
622,54	1288,17
622,73	1232,88
622,92	1296,36
623,11	1214,45
623,30	1267,69
623,49	1277,93
623,68	1298,41
623,88	1241,07
624,07	1312,75
624,26	1251,31
624,45	1316,84
624,64	1269,74
624,83	1249,26
625,02	1331,18
625,21	1275,88
625,40	1300,46
625,59	1216,49
625,78	1275,88
625,97	1361,90
626,16	1290,22
626,35	1368,04
626,54	1251,31
626,74	1257,45
626,93	1282,03
627,12	1181,68
627,31	1230,83
627,50	1345,52
627,69	1288,17
627,88	1345,52
628,07	1273,84
628,26	1306,60
628,45	1263,60
628,64	1288,17
628,83	1249,26
629,02	1267,69
629,21	1353,71
629,40	1353,71
629,59	1296,36
629,78	1329,13
629,97	1259,50
630,16	1366,00
630,35	1265,64
630,54	1220,59
630,73	1284,08
630,92	1286,12
631,11	1351,66
631,30	1308,65
631,49	1368,04
631,68	1380,33
631,87	1574,89
632,06	1959,91
632,25	1656,81
632,44	1595,37
632,63	1955,81
632,82	2201,57
633,01	5431,21
633,20	5201,84
633,39	4026,31
633,58	2009,06
633,77	2955,22
633,96	5863,33
634,15	6846,36
634,34	5689,26
634,53	4014,02
634,72	2740,18
634,91	1957,86
635,10	1650,66
635,29	1597,42
635,48	1562,60
635,67	1523,69
635,86	1392,62
636,05	1406,95
636,24	1390,57
636,43	1388,52
636,62	1335,28
636,81	1314,80
637,00	1288,17
637,19	1318,89
637,38	1400,81
637,57	1329,13
637,76	1277,93
637,95	1308,65
638,14	1279,98
638,33	1306,60
638,52	1267,69
638,71	1269,74
638,89	1374,19
639,08	1271,79
639,27	1282,03
639,46	1302,51
639,65	1232,88
639,84	1224,69
640,03	1292,27
640,22	1318,89
640,41	1263,60
640,60	1234,93
640,79	1200,11
640,98	1277,93
641,17	1243,12
641,36	1191,92
641,55	1279,98
641,74	1290,22
641,92	1265,64
642,11	1241,07
642,30	1286,12
642,49	1312,75
642,68	1288,17
642,87	1232,88
643,06	1273,84
643,25	1279,98
643,44	1257,45
643,63	1255,40
643,82	1265,64
644,00	1212,40
644,19	1275,88
644,38	1208,30
644,57	1310,70
644,76	1322,99
644,95	1273,84
645,14	1228,78
645,33	1232,88
645,52	1255,40
645,71	1263,60
645,89	1230,83
646,08	1259,50
646,27	1269,74
646,46	1308,65
646,65	1275,88
646,84	1298,41
647,03	1249,26
647,22	1320,94
647,40	1243,12
647,59	1286,12
647,78	1232,88
647,97	1239,02
648,16	1331,18
648,35	1327,08
648,54	1300,46
648,73	1284,08
648,91	1193,97
649,10	1312,75
649,29	1234,93
649,48	1300,46
649,67	1284,08
649,86	1224,69
650,05	1279,98
650,23	1247,21
650,42	1257,45
650,61	1239,02
650,80	1306,60
650,99	1284,08
651,18	1228,78
651,36	1282,03
651,55	1255,40
651,74	1275,88
651,93	1245,16
652,12	1271,79
652,31	1224,69
652,49	1304,56
652,68	1257,45
652,87	1296,36
653,06	1189,87
653,25	1279,98
653,44	1232,88
653,62	1212,40
653,81	1206,25
654,00	1230,83
654,19	1302,51
654,38	1208,30
654,56	1222,64
654,75	1290,22
654,94	1261,55
655,13	1269,74
655,32	1226,73
655,51	1316,84
655,69	1325,04
655,88	1210,35
656,07	1265,64
656,26	1249,26
656,45	1208,30
656,63	1239,02
656,82	1224,69
657,01	1298,41
657,20	1273,84
657,38	1257,45
657,57	1230,83
657,76	1316,84
657,95	1282,03
658,14	1232,88
658,32	1255,40
658,51	1343,47
658,70	1224,69
658,89	1249,26
659,08	1249,26
659,26	1282,03
659,45	1253,36
659,64	1331,18
659,83	1232,88
660,01	1241,07
660,20	1296,36
660,39	1290,22
660,58	1236,97
660,76	1236,97
660,95	1265,64
661,14	1288,17
661,33	1257,45
661,51	1249,26
661,70	1202,16
661,89	1245,16
662,08	1294,32
662,26	1296,36
662,45	1228,78
662,64	1236,97
662,83	1273,84
663,01	1296,36
663,20	1259,50
663,39	1239,02
663,58	1255,40
663,76	1337,32
663,95	1216,49
664,14	1304,56
664,32	1232,88
664,51	1277,93
664,70	1275,88
664,89	1275,88
665,07	1304,56
665,26	1179,63
665,45	1247,21
665,64	1210,35
665,82	1257,45
666,01	1302,51
666,20	1249,26
666,38	1312,75
666,57	1245,16
666,76	1300,46
666,95	1212,40
667,13	1296,36
667,32	1310,70
667,51	1316,84
667,69	1253,36
667,88	1259,50
668,07	1341,42
668,25	1310,70
668,44	1273,84
668,63	1339,37
668,81	1189,87
669,00	1189,87
669,19	1210,35
669,38	1294,32
669,56	1198,06
669,75	1157,10
669,94	1275,88
670,12	1306,60
670,31	1228,78
670,50	1337,32
670,68	1355,76
670,87	1263,60
671,06	1216,49
671,24	1277,93
671,43	1159,15
671,62	1296,36
671,80	1277,93
671,99	1175,53
672,18	1284,08
672,36	1308,65
672,55	1275,88
672,74	1249,26
672,92	1218,54
673,11	1306,60
673,29	1255,40
673,48	1232,88
673,67	1296,36
673,85	1298,41
674,04	1251,31
674,23	1298,41
674,41	1286,12
674,60	1302,51
674,79	1282,03
674,97	1288,17
675,16	1224,69
675,34	1241,07
675,53	1284,08
675,72	1275,88
675,90	1218,54
676,09	1210,35
676,28	1296,36
676,46	1210,35
676,65	1294,32
676,83	1290,22
677,02	1282,03
677,21	1312,75
677,39	1273,84
677,58	1269,74
677,77	1353,71
677,95	1253,36
678,14	1279,98
678,32	1259,50
678,51	1208,30
678,70	1236,97
678,88	1249,26
679,07	1267,69
679,25	1327,08
679,44	1236,97
679,63	1198,06
679,81	1243,12
680,00	1302,51
680,18	1333,23
680,37	1310,70
680,55	1337,32
680,74	1290,22
680,93	1234,93
681,11	1243,12
681,30	1224,69
681,48	1234,93
681,67	1282,03
681,85	1277,93
682,04	1288,17
682,23	1241,07
682,41	1263,60
682,60	1284,08
682,78	1241,07
682,97	1282,03
683,15	1310,70
683,34	1286,12
683,53	1241,07
683,71	1216,49
683,90	1277,93
684,08	1290,22
684,27	1275,88
684,45	1218,54
684,64	1314,80
684,82	1282,03
685,01	1325,04
685,19	1245,16
685,38	1177,58
685,57	1228,78
685,75	1253,36
685,94	1292,27
686,12	1241,07
686,31	1228,78
686,49	1210,35
686,68	1288,17
686,86	1306,60
687,05	1200,11
687,23	1253,36
687,42	1236,97
687,60	1263,60
687,79	1222,64
687,97	1230,83
688,16	1284,08
688,34	1167,34
688,53	1253,36
688,71	1363,95
688,90	1286,12
689,08	1322,99
689,27	1290,22
689,45	1247,21
689,64	1259,50
689,82	1228,78
690,01	1279,98
690,19	1232,88
690,38	1232,88
690,56	1255,40
690,75	1259,50
690,93	1212,40
691,12	1171,44
691,30	1271,79
691,49	1271,79
691,67	1312,75
691,86	1255,40
692,04	1337,32
692,23	1249,26
692,41	1347,56
692,60	1290,22
692,78	1310,70
692,97	1177,58
693,15	1232,88
693,34	1312,75
693,52	1239,02
693,71	1269,74
693,89	1247,21
694,08	1241,07
694,26	1214,45
694,44	1292,27
694,63	1212,40
694,81	1302,51
695,00	1312,75
695,18	1294,32
695,37	1263,60
695,55	1372,14
695,74	1279,98
695,92	1290,22
696,10	1310,70
696,29	1234,93
696,47	1267,69
696,66	1302,51
696,84	1224,69
697,03	1241,07
697,21	1241,07
697,40	1320,94
697,58	1273,84
697,76	1189,87
697,95	1234,93
698,13	1329,13
698,32	1232,88
698,50	1189,87
698,68	1230,83
698,87	1202,16
699,05	1355,76
699,24	1279,98
699,42	1351,66
699,61	1251,31
699,79	1243,12
699,97	1220,59
700,16	1218,54
700,34	1228,78
700,53	1259,50
700,71	1288,17
700,89	1169,39
701,08	1275,88
701,26	1271,79
701,45	1245,16
701,63	1259,50
701,81	1296,36
702,00	1279,98
702,18	1273,84
702,37	1208,30
702,55	1335,28
702,73	1200,11
702,92	1286,12
703,10	1226,73
703,28	1292,27
703,47	1226,73
703,65	1263,60
703,84	1284,08
704,02	1157,10
704,20	1257,45
704,39	1267,69
704,57	1286,12
704,75	1306,60
704,94	1255,40
705,12	1304,56
705,30	1200,11
705,49	1230,83
705,67	1269,74
705,86	1220,59
706,04	1322,99
706,22	1239,02
706,41	1247,21
706,59	1310,70
706,77	1259,50
706,96	1275,88
707,14	1277,93
707,32	1245,16
707,51	1314,80
707,69	1282,03
707,87	1286,12
708,06	1208,30
708,24	1273,84
708,42	1253,36
708,61	1181,68
708,79	1306,60
708,97	1310,70
709,16	1175,53
709,34	1277,93
709,52	1290,22
709,71	1312,75
709,89	1273,84
710,07	1222,64
710,26	1279,98
710,44	1196,01
710,62	1257,45
710,80	1288,17
710,99	1327,08
711,17	1249,26
711,35	1310,70
711,54	1318,89
711,72	1249,26
711,90	1282,03
712,09	1222,64
712,27	1255,40
712,45	1243,12
712,63	1224,69
712,82	1322,99
713,00	1269,74
713,18	1304,56
713,37	1206,25
713,55	1269,74
713,73	1241,07
713,91	1243,12
714,10	1249,26
714,28	1294,32
714,46	1218,54
714,65	1325,04
714,83	1222,64
715,01	1245,16
715,19	1327,08
715,38	1241,07
715,56	1226,73
715,74	1261,55
715,92	1202,16
716,11	1236,97
716,29	1232,88
716,47	1259,50
716,65	1265,64
716,84	1263,60
717,02	1304,56
717,20	1220,59
717,38	1290,22
717,57	1255,40
717,75	1255,40
717,93	1249,26
718,11	1310,70
718,30	1284,08
718,48	1241,07
718,66	1296,36
718,84	1265,64
719,03	1284,08
719,21	1259,50
719,39	1263,60
719,57	1325,04
719,75	1306,60
719,94	1249,26
720,12	1241,07
720,30	1173,49
720,48	1277,93
720,67	1167,34
720,85	1294,32
721,03	1273,84
721,21	1241,07
721,39	1302,51
721,58	1288,17
721,76	1249,26
721,94	1249,26
722,12	1322,99
722,30	1247,21
722,49	1267,69
722,67	1327,08
722,85	1226,73
723,03	1196,01
723,21	1286,12
723,40	1245,16
723,58	1306,60
723,76	1191,92
723,94	1269,74
724,12	1269,74
724,30	1314,80
724,49	1214,45
724,67	1261,55
724,85	1236,97
725,03	1232,88
725,21	1296,36
725,40	1339,37
725,58	1335,28
725,76	1239,02
725,94	1372,14
726,12	1179,63
726,30	1239,02
726,49	1298,41
726,67	1253,36
726,85	1222,64
727,03	1187,82
727,21	1279,98
727,39	1271,79
727,57	1202,16
727,76	1298,41
727,94	1284,08
728,12	1245,16
728,30	1277,93
728,48	1251,31
728,66	1335,28
728,84	1181,68
729,03	1177,58
729,21	1312,75
729,39	1236,97
729,57	1259,50
729,75	1294,32
729,93	1241,07
730,11	1269,74
730,30	1191,92
730,48	1257,45
730,66	1302,51
730,84	1292,27
731,02	1247,21
731,20	1241,07
731,38	1265,64
731,56	1253,36
731,74	1282,03
731,93	1298,41
732,11	1275,88
732,29	1263,60
732,47	1257,45
732,65	1232,88
732,83	1251,31
733,01	1310,70
733,19	1271,79
733,37	1275,88
733,56	1261,55
733,74	1327,08
733,92	1279,98
734,10	1265,64
734,28	1282,03
734,46	1290,22
734,64	1267,69
734,82	1232,88
735,00	1263,60
735,18	1236,97
735,36	1292,27
735,54	1263,60
735,73	1253,36
735,91	1282,03
736,09	1255,40
736,27	1327,08
736,45	1269,74
736,63	1308,65
736,81	1261,55
736,99	1294,32
737,17	1335,28
737,35	1292,27
737,53	1259,50
737,71	1236,97
737,89	1247,21
738,07	1325,04
738,25	1269,74
738,43	1345,52
738,61	1214,45
738,80	1216,49
738,98	1255,40
739,16	1294,32
739,34	1228,78
739,52	1267,69
739,70	1261,55
739,88	1296,36
740,06	1222,64
740,24	1220,59
740,42	1286,12
740,60	1329,13
740,78	1292,27
740,96	1269,74
741,14	1234,93
741,32	1198,06
741,50	1277,93
741,68	1222,64
741,86	1312,75
742,04	1294,32
742,22	1267,69
742,40	1183,73
742,58	1243,12
742,76	1292,27
742,94	1216,49
743,12	1288,17
743,30	1224,69
743,48	1228,78
743,66	1316,84
743,84	1306,60
744,02	1318,89
744,20	1288,17
744,38	1247,21
744,56	1200,11
744,74	1286,12
744,92	1208,30
745,10	1253,36
745,28	1282,03
745,46	1265,64
745,64	1368,04
745,82	1239,02
746,00	1267,69
746,18	1255,40
746,36	1253,36
746,54	1187,82
746,72	1230,83
746,90	1265,64
747,08	1345,52
747,26	1245,16
747,44	1310,70
747,62	1212,40
747,80	1318,89
747,98	1308,65
748,15	1222,64
748,33	1353,71
748,51	1187,82
748,69	1300,46
748,87	1222,64
749,05	1269,74
749,23	1249,26
749,41	1202,16
749,59	1318,89
749,77	1253,36
749,95	1357,80
750,13	1234,93
750,31	1282,03
750,49	1294,32
750,67	1200,11
750,85	1304,56
751,03	1310,70
751,20	1269,74
751,38	1198,06
751,56	1234,93
751,74	1345,52
751,92	1316,84
752,10	1216,49
752,28	1288,17
752,46	1261,55
752,64	1277,93
752,82	1200,11
753,00	1380,33
753,18	1230,83
753,35	1279,98
753,53	1294,32
753,71	1204,21
753,89	1339,37
754,07	1294,32
754,25	1224,69
754,43	1357,80
754,61	1257,45
754,79	1298,41
754,97	1333,23
755,14	1236,97
755,32	1265,64
755,50	1337,32
755,68	1271,79
755,86	1245,16
756,04	1263,60
756,22	1302,51
756,40	1255,40
756,57	1275,88
756,75	1218,54
756,93	1306,60
757,11	1261,55
757,29	1310,70
757,47	1286,12
757,65	1243,12
757,82	1249,26
758,00	1218,54
758,18	1320,94
758,36	1241,07
758,54	1259,50
758,72	1243,12
758,90	1257,45
759,07	1263,60
759,25	1265,64
759,43	1273,84
759,61	1253,36
759,79	1355,76
759,97	1314,80
760,15	1234,93
760,32	1298,41
760,50	1275,88
760,68	1312,75
760,86	1277,93
761,04	1294,32
761,22	1206,25
761,39	1337,32
761,57	1226,73
761,75	1255,40
761,93	1282,03
762,11	1216,49
762,28	1208,30
762,46	1273,84
762,64	1269,74
762,82	1312,75
763,00	1198,06
763,18	1255,40
763,35	1290,22
763,53	1232,88
763,71	1255,40
763,89	1271,79
764,07	1232,88
764,24	1267,69
764,42	1202,16
764,60	1261,55
764,78	1271,79
764,96	1198,06
765,13	1247,21
765,31	1333,23
765,49	1304,56
765,67	1267,69
765,84	1241,07
766,02	1296,36
766,20	1304,56
766,38	1218,54
766,56	1239,02
766,73	1265,64
766,91	1253,36
767,09	1296,36
767,27	1239,02
767,44	1247,21
767,62	1304,56
767,80	1241,07
767,98	1267,69
768,15	1263,60
768,33	1347,56
768,51	1333,23
768,69	1355,76
768,87	1284,08
769,04	1222,64
769,22	1366,00
769,40	1296,36
769,58	1329,13
769,75	1249,26
769,93	1343,47
770,11	1198,06
770,28	1222,64
770,46	1259,50
770,64	1265,64
770,82	1224,69
770,99	1310,70
771,17	1257,45
771,35	1200,11
771,53	1224,69
771,70	1183,73
771,88	1247,21
772,06	1261,55
772,23	1267,69
772,41	1216,49
772,59	1259,50
772,77	1292,27
772,94	1286,12
773,12	1288,17
773,30	1304,56
773,47	1249,26
773,65	1179,63
773,83	1327,08
774,01	1253,36
774,18	1282,03
774,36	1251,31
774,54	1222,64
774,71	1286,12
774,89	1269,74
775,07	1261,55
775,24	1316,84
775,42	1216,49
775,60	1230,83
775,78	1236,97
775,95	1304,56
776,13	1226,73
776,31	1359,85
776,48	1222,64
776,66	1216,49
776,84	1259,50
777,01	1279,98
777,19	1241,07
777,37	1265,64
777,54	1279,98
777,72	1366,00
777,90	1284,08
778,07	1263,60
778,25	1257,45
778,43	1282,03
778,60	1265,64
778,78	1202,16
778,96	1230,83
779,13	1232,88
779,31	1265,64
779,49	1286,12
779,66	1304,56
779,84	1300,46
780,01	1249,26
780,19	1302,51
780,37	1271,79
780,54	1241,07
780,72	1310,70
780,90	1296,36
781,07	1288,17
781,25	1216,49
781,43	1296,36
781,60	1179,63
781,78	1265,64
781,95	1245,16
782,13	1279,98
782,31	1239,02
782,48	1232,88
782,66	1282,03
782,83	1296,36
783,01	1236,97
783,19	1226,73
783,36	1239,02
783,54	1253,36
783,72	1206,25
783,89	1247,21
784,07	1286,12
784,24	1208,30
784,42	1294,32
784,60	1306,60
784,77	1277,93
784,95	1171,44
785,12	1273,84
785,30	1243,12
785,47	1265,64
785,65	1308,65
785,83	1208,30
786,00	1261,55
786,18	1345,52
786,35	1239,02
786,53	1224,69
786,71	1275,88
786,88	1314,80
787,06	1292,27
787,23	1290,22
787,41	1267,69
787,58	1200,11
787,76	1241,07
787,94	1232,88
788,11	1312,75
788,29	1269,74
788,46	1255,40
788,64	1230,83
788,81	1253,36
788,99	1243,12
789,16	1224,69
789,34	1202,16
789,52	1263,60
789,69	1255,40
789,87	1247,21
790,04	1232,88
790,22	1279,98
790,39	1312,75
790,57	1257,45
790,74	1378,28
790,92	1243,12
791,09	1290,22
791,27	1298,41
791,44	1187,82
791,62	1161,20
791,79	1304,56
791,97	1290,22
792,15	1310,70
792,32	1316,84
792,50	1261,55
792,67	1265,64
792,85	1290,22
793,02	1263,60
793,20	1325,04
793,37	1222,64
793,55	1298,41
793,72	1218,54
793,90	1304,56
794,07	1243,12
794,25	1302,51
794,42	1257,45
794,60	1220,59
794,77	1232,88
794,95	1228,78
795,12	1187,82
795,30	1300,46
795,47	1302,51
795,65	1290,22
795,82	1232,88
796,00	1232,88
796,17	1241,07
796,34	1308,65
796,52	1241,07
796,69	1298,41
796,87	1236,97
797,04	1343,47
797,22	1282,03
797,39	1200,11
797,57	1243,12
797,74	1290,22
797,92	1202,16
798,09	1298,41
798,27	1316,84
798,44	1320,94
798,62	1312,75
798,79	1312,75
798,96	1269,74
799,14	1239,02
799,31	1247,21
799,49	1216,49
799,66	1228,78
799,84	1277,93
800,01	1257,45
800,19	1224,69
800,36	1257,45
800,53	1179,63
800,71	1206,25
800,88	1241,07
801,06	1222,64
801,23	1265,64
801,41	1259,50
801,58	1277,93
801,75	1259,50
801,93	1296,36
802,10	1296,36
802,28	1275,88
802,45	1263,60
802,63	1257,45
802,80	1179,63
802,97	1320,94
803,15	1224,69
803,32	1255,40
803,50	1216,49
803,67	1282,03
803,84	1255,40
804,02	1271,79
804,19	1228,78
804,37	1314,80
804,54	1267,69
804,71	1337,32
804,89	1230,83
805,06	1234,93
805,24	1204,21
805,41	1243,12
805,58	1257,45
805,76	1239,02
805,93	1279,98
806,10	1230,83
806,28	1304,56
806,45	1294,32
806,63	1191,92
806,80	1230,83
806,97	1247,21
807,15	1279,98
807,32	1230,83
807,49	1322,99
807,67	1236,97
807,84	1302,51
808,01	1331,18
808,19	1273,84
808,36	1279,98
808,54	1232,88
808,71	1220,59
808,88	1308,65
809,06	1335,28
809,23	1234,93
809,40	1228,78
809,58	1308,65
809,75	1216,49
809,92	1271,79
810,10	1378,28
810,27	1267,69
810,44	1343,47
810,62	1329,13
810,79	1249,26
810,96	1257,45
811,14	1339,37
811,31	1296,36
811,48	1222,64
811,66	1236,97
811,83	1173,49
812,00	1271,79
812,18	1296,36
812,35	1226,73
812,52	1230,83
812,69	1261,55
812,87	1236,97
813,04	1302,51
813,21	1347,56
813,39	1279,98
813,56	1236,97
813,73	1306,60
813,91	1191,92
814,08	1271,79
814,25	1296,36
814,42	1277,93
814,60	1275,88
814,77	1271,79
814,94	1261,55
815,12	1259,50
815,29	1273,84
815,46	1265,64
815,63	1282,03
815,81	1290,22
815,98	1288,17
816,15	1239,02
816,33	1163,25
816,50	1306,60
816,67	1300,46
816,84	1298,41
817,02	1214,45
817,19	1236,97
817,36	1241,07
817,53	1259,50
817,71	1277,93
817,88	1284,08
818,05	1322,99
818,22	1202,16
818,40	1322,99
818,57	1247,21
818,74	1290,22
818,91	1249,26
819,09	1314,80
819,26	1239,02
819,43	1253,36
819,60	1251,31
819,78	1257,45
819,95	1243,12
820,12	1212,40
820,29	1351,66
820,47	1318,89
820,64	1273,84
820,81	1183,73
820,98	1282,03
821,15	1253,36
821,33	1247,21
821,50	1249,26
821,67	1296,36
821,84	1304,56
822,02	1279,98
822,19	1245,16
822,36	1267,69
822,53	1255,40
822,70	1261,55
822,88	1294,32
823,05	1259,50
823,22	1253,36
823,39	1261,55
823,56	1112,05
823,74	1198,06
823,91	1310,70
824,08	1224,69
824,25	1265,64
824,42	1288,17
824,60	1245,16
824,77	1312,75
824,94	1325,04
825,11	1261,55
825,28	1243,12
825,45	1249,26
825,63	1185,77
825,80	1263,60
825,97	1175,53
826,14	1290,22
826,31	1216,49
826,48	1255,40
826,66	1241,07
826,83	1296,36
827,00	1257,45
827,17	1228,78
827,34	1220,59
827,51	1259,50
827,69	1236,97
827,86	1257,45
828,03	1220,59
828,20	1267,69
828,37	1335,28
828,54	1304,56
828,71	1308,65
828,89	1261,55
829,06	1249,26
829,23	1251,31
829,40	1279,98
829,57	1267,69
829,74	1173,49
829,91	1214,45
830,09	1314,80
830,26	1306,60
830,43	1290,22
830,60	1333,23
830,77	1220,59
830,94	1292,27
831,11	1269,74
831,28	1273,84
831,46	1327,08
831,63	1187,82
831,80	1249,26
831,97	1247,21
832,14	1202,16
832,31	1288,17
832,48	1302,51
832,65	1310,70
832,82	1214,45
832,99	1216,49
833,17	1273,84
833,34	1245,16
833,51	1329,13
833,68	1302,51
833,85	1163,25
834,02	1232,88
834,19	1294,32
834,36	1263,60
834,53	1327,08
834,70	1232,88
834,87	1222,64
835,04	1218,54
835,22	1218,54
835,39	1230,83
835,56	1290,22
835,73	1331,18
835,90	1316,84
836,07	1249,26
836,24	1284,08
836,41	1257,45
836,58	1236,97
836,75	1322,99
836,92	1243,12
837,09	1239,02
837,26	1234,93
837,43	1306,60
837,60	1210,35
837,77	1286,12
837,94	1298,41
838,12	1279,98
838,29	1302,51
838,46	1265,64
838,63	1265,64
838,80	1212,40
838,97	1337,32
839,14	1284,08
839,31	1271,79
839,48	1259,50
839,65	1304,56
839,82	1327,08
839,99	1220,59
840,16	1257,45
840,33	1322,99
840,50	1292,27
840,67	1175,53
840,84	1214,45
841,01	1277,93
841,18	1234,93
841,35	1331,18
841,52	1359,85
841,69	1255,40
841,86	1345,52
842,03	1355,76
842,20	1273,84
842,37	1286,12
842,54	1304,56
842,71	1312,75
842,88	1245,16
843,05	1273,84
843,22	1196,01
843,39	1222,64
843,56	1210,35
843,73	1228,78
843,90	1247,21
844,07	1267,69
844,24	1302,51
844,41	1269,74
844,58	1271,79
844,75	1204,21
844,92	1279,98
845,09	1183,73
845,26	1282,03
845,43	1288,17
845,60	1275,88
845,77	1343,47
845,94	1234,93
846,10	1310,70
846,27	1331,18
846,44	1261,55
846,61	1343,47
846,78	1208,30
846,95	1251,31
847,12	1284,08
847,29	1341,42
847,46	1255,40
847,63	1314,80
847,80	1255,40
847,97	1347,56
848,14	1263,60
848,31	1275,88
848,48	1226,73
848,65	1292,27
848,82	1286,12
848,98	1171,44
849,15	1216,49
849,32	1288,17
849,49	1300,46
849,66	1273,84
849,83	1282,03
850,00	1345,52
850,17	1325,04
850,34	1224,69
850,51	1333,23
850,68	1298,41
850,85	1245,16
851,01	1292,27
851,18	1263,60
851,35	1224,69
851,52	1236,97
851,69	1179,63
851,86	1288,17
852,03	1273,84
852,20	1282,03
852,37	1275,88
852,53	1273,84
852,70	1230,83
852,87	1290,22
853,04	1294,32
853,21	1251,31
853,38	1275,88
853,55	1351,66
853,72	1261,55
853,89	1327,08
854,05	1325,04
854,22	1261,55
854,39	1271,79
854,56	1296,36
854,73	1298,41
854,90	1335,28
855,07	1269,74
855,23	1214,45
855,40	1298,41
855,57	1251,31
855,74	1204,21
855,91	1298,41
856,08	1271,79
856,25	1230,83
856,41	1239,02
856,58	1263,60
856,75	1277,93
856,92	1294,32
857,09	1292,27
857,26	1286,12
857,42	1234,93
857,59	1249,26
857,76	1249,26
857,93	1284,08
858,10	1282,03
858,27	1279,98
858,43	1183,73
858,60	1282,03
858,77	1275,88
858,94	1236,97
859,11	1298,41
859,27	1316,84
859,44	1273,84
859,61	1251,31
859,78	1273,84
859,95	1284,08
860,12	1286,12
860,28	1290,22
860,45	1249,26
860,62	1302,51
860,79	1351,66
860,95	1284,08
861,12	1282,03
861,29	1228,78
861,46	1232,88
861,63	1277,93
861,79	1267,69
861,96	1208,30
862,13	1316,84
862,30	1339,37
862,47	1243,12
862,63	1279,98
862,80	1271,79
862,97	1337,32
863,14	1286,12
863,30	1282,03
863,47	1259,50
863,64	1271,79
863,81	1173,49
863,97	1269,74
864,14	1251,31
864,31	1304,56
864,48	1263,60
864,65	1222,64
864,81	1259,50
864,98	1298,41
865,15	1331,18
865,32	1290,22
865,48	1302,51
865,65	1277,93
865,82	1300,46
865,98	1288,17
866,15	1273,84
866,32	1284,08
866,49	1263,60
866,65	1245,16
866,82	1349,61
866,99	1234,93
867,16	1245,16
867,32	1273,84
867,49	1282,03
867,66	1236,97
867,83	1286,12
867,99	1333,23
868,16	1284,08
868,33	1253,36
868,49	1273,84
868,66	1249,26
868,83	1296,36
868,99	1275,88
869,16	1271,79
869,33	1255,40
869,50	1239,02
869,66	1232,88
869,83	1208,30
870,00	1304,56
870,16	1273,84
870,33	1296,36
870,50	1312,75
870,66	1292,27
870,83	1279,98
871,00	1273,84
871,17	1275,88
871,33	1249,26
871,50	1204,21
871,67	1196,01
871,83	1222,64
872,00	1273,84
872,17	1216,49
872,33	1273,84
872,50	1273,84
872,67	1286,12
872,83	1261,55
873,00	1300,46
873,17	1300,46
873,33	1312,75
873,50	1220,59
873,67	1224,69
873,83	1198,06
874,00	1216,49
874,16	1206,25
874,33	1247,21
874,50	1210,35
874,66	1257,45
874,83	1282,03
875,00	1259,50
875,16	1314,80
875,33	1241,07
875,50	1232,88
875,66	1214,45
875,83	1308,65
875,99	1292,27
876,16	1286,12
876,33	1224,69
876,49	1318,89
876,66	1234,93
876,83	1288,17
876,99	1290,22
877,16	1286,12
877,32	1277,93
877,49	1206,25
877,66	1193,97
877,82	1241,07
877,99	1331,18
878,15	1220,59
878,32	1267,69
878,49	1251,31
878,65	1298,41
878,82	1249,26
878,98	1208,30
879,15	1284,08
879,32	1282,03
879,48	1318,89
879,65	1247,21
879,81	1245,16
879,98	1251,31
880,15	1273,84
880,31	1247,21
880,48	1263,60
880,64	1279,98
880,81	1245,16
880,97	1259,50
881,14	1249,26
881,31	1187,82
881,47	1265,64
881,64	1220,59
881,80	1282,03
881,97	1298,41
882,13	1245,16
882,30	1296,36
882,47	1239,02
882,63	1249,26
882,80	1271,79
882,96	1269,74
883,13	1239,02
883,29	1222,64
883,46	1298,41
883,62	1218,54
883,79	1241,07
883,95	1236,97
884,12	1189,87
884,29	1290,22
884,45	1251,31
884,62	1271,79
884,78	1261,55
884,95	1230,83
885,11	1314,80
885,28	1298,41
885,44	1206,25
885,61	1236,97
885,77	1290,22
885,94	1300,46
886,10	1288,17
886,27	1208,30
886,43	1265,64
886,60	1286,12
886,76	1241,07
886,93	1243,12
887,09	1230,83
887,26	1159,15
887,42	1302,51
887,59	1304,56
887,75	1277,93
887,92	1234,93
888,08	1269,74
888,25	1261,55
888,41	1263,60
888,58	1279,98
888,74	1218,54
888,91	1286,12
>>>>>End Processed Spectral Data<<<<<
