SpectraSuite Data File
++++++++++++++++++++++++++++++++++++
Date: Sun Apr 03 18:15:34 CEST 2016
User: root
Dark Spectrum Present: No
Reference Spectrum Present: No
Number of Sampled Component Spectra: 1
Spectrometers: USB4C02835
Integration Time (usec): 10000 (USB4C02835)
Spectra Averaged: 1 (USB4C02835)
Boxcar Smoothing: 0 (USB4C02835)
Correct for Electrical Dark: No (USB4C02835)
Strobe/Lamp Enabled: No (USB4C02835)
Correct for Detector Non-linearity: No (USB4C02835)
Correct for Stray Light: No (USB4C02835)
Number of Pixels in Processed Spectrum: 3648
>>>>>Begin Processed Spectral Data<<<<<
177,47	1128,43
177,69	1128,43
177,91	1128,43
178,13	1189,87
178,36	1279,98
178,58	1245,16
178,80	1226,73
179,02	1165,29
179,24	1228,78
179,46	1253,36
179,68	1243,12
179,90	1292,27
180,13	1255,40
180,35	1279,98
180,57	1296,36
180,79	1265,64
181,01	1298,41
181,23	1265,64
181,45	1271,79
181,67	1243,12
181,90	1275,88
182,12	1234,93
182,34	1179,63
182,56	1204,21
182,78	1204,21
183,00	1232,88
183,22	1253,36
183,44	1243,12
183,66	1304,56
183,89	1316,84
184,11	1226,73
184,33	1189,87
184,55	1390,57
184,77	1282,03
184,99	1206,25
185,21	1267,69
185,43	1310,70
185,65	1189,87
185,87	1263,60
186,10	1245,16
186,32	1198,06
186,54	1245,16
186,76	1251,31
186,98	1251,31
187,20	1292,27
187,42	1282,03
187,64	1320,94
187,86	1308,65
188,08	1230,83
188,30	1269,74
188,52	1243,12
188,75	1251,31
188,97	1372,14
189,19	1257,45
189,41	1351,66
189,63	1265,64
189,85	1239,02
190,07	1234,93
190,29	1261,55
190,51	1253,36
190,73	1257,45
190,95	1232,88
191,17	1271,79
191,39	1294,32
191,61	1273,84
191,84	1351,66
192,06	1279,98
192,28	1179,63
192,50	1361,90
192,72	1239,02
192,94	1255,40
193,16	1300,46
193,38	1286,12
193,60	1126,38
193,82	1216,49
194,04	1202,16
194,26	1222,64
194,48	1257,45
194,70	1206,25
194,92	1273,84
195,14	1247,21
195,36	1267,69
195,58	1275,88
195,80	1220,59
196,02	1312,75
196,24	1282,03
196,46	1273,84
196,69	1220,59
196,91	1267,69
197,13	1257,45
197,35	1208,30
197,57	1255,40
197,79	1245,16
198,01	1222,64
198,23	1265,64
198,45	1269,74
198,67	1216,49
198,89	1314,80
199,11	1279,98
199,33	1265,64
199,55	1189,87
199,77	1247,21
199,99	1279,98
200,21	1241,07
200,43	1300,46
200,65	1265,64
200,87	1286,12
201,09	1282,03
201,31	1279,98
201,53	1200,11
201,75	1236,97
201,97	1325,04
202,19	1255,40
202,41	1239,02
202,63	1275,88
202,85	1220,59
203,07	1275,88
203,29	1279,98
203,51	1249,26
203,73	1249,26
203,95	1271,79
204,17	1306,60
204,39	1308,65
204,61	1241,07
204,83	1335,28
205,05	1269,74
205,27	1288,17
205,49	1271,79
205,71	1187,82
205,93	1296,36
206,15	1271,79
206,37	1380,33
206,59	1314,80
206,81	1277,93
207,03	1214,45
207,25	1261,55
207,47	1259,50
207,69	1261,55
207,91	1279,98
208,13	1300,46
208,34	1273,84
208,56	1282,03
208,78	1269,74
209,00	1247,21
209,22	1306,60
209,44	1320,94
209,66	1288,17
209,88	1263,60
210,10	1245,16
210,32	1282,03
210,54	1325,04
210,76	1220,59
210,98	1261,55
211,20	1271,79
211,42	1284,08
211,64	1226,73
211,86	1273,84
212,08	1249,26
212,30	1331,18
212,52	1241,07
212,74	1265,64
212,96	1257,45
213,17	1239,02
213,39	1224,69
213,61	1275,88
213,83	1212,40
214,05	1239,02
214,27	1210,35
214,49	1236,97
214,71	1257,45
214,93	1218,54
215,15	1296,36
215,37	1294,32
215,59	1191,92
215,81	1269,74
216,03	1241,07
216,24	1259,50
216,46	1232,88
216,68	1216,49
216,90	1245,16
217,12	1325,04
217,34	1349,61
217,56	1351,66
217,78	1232,88
218,00	1243,12
218,22	1249,26
218,44	1372,14
218,66	1294,32
218,87	1279,98
219,09	1230,83
219,31	1249,26
219,53	1243,12
219,75	1325,04
219,97	1232,88
220,19	1245,16
220,41	1220,59
220,63	1247,21
220,85	1232,88
221,06	1241,07
221,28	1261,55
221,50	1267,69
221,72	1247,21
221,94	1232,88
222,16	1236,97
222,38	1249,26
222,60	1263,60
222,82	1224,69
223,03	1300,46
223,25	1245,16
223,47	1159,15
223,69	1265,64
223,91	1300,46
224,13	1374,19
224,35	1296,36
224,57	1265,64
224,78	1259,50
225,00	1269,74
225,22	1230,83
225,44	1230,83
225,66	1290,22
225,88	1259,50
226,10	1290,22
226,32	1200,11
226,53	1198,06
226,75	1288,17
226,97	1320,94
227,19	1255,40
227,41	1228,78
227,63	1271,79
227,85	1261,55
228,06	1236,97
228,28	1322,99
228,50	1312,75
228,72	1253,36
228,94	1226,73
229,16	1196,01
229,37	1228,78
229,59	1322,99
229,81	1220,59
230,03	1243,12
230,25	1269,74
230,47	1253,36
230,69	1277,93
230,90	1239,02
231,12	1208,30
231,34	1279,98
231,56	1310,70
231,78	1308,65
232,00	1271,79
232,21	1249,26
232,43	1230,83
232,65	1249,26
232,87	1261,55
233,09	1298,41
233,30	1232,88
233,52	1226,73
233,74	1245,16
233,96	1269,74
234,18	1253,36
234,40	1202,16
234,61	1183,73
234,83	1290,22
235,05	1265,64
235,27	1239,02
235,49	1226,73
235,70	1288,17
235,92	1249,26
236,14	1310,70
236,36	1273,84
236,58	1306,60
236,79	1228,78
237,01	1257,45
237,23	1255,40
237,45	1247,21
237,67	1284,08
237,88	1351,66
238,10	1212,40
238,32	1300,46
238,54	1306,60
238,76	1261,55
238,97	1320,94
239,19	1288,17
239,41	1288,17
239,63	1265,64
239,85	1261,55
240,06	1200,11
240,28	1189,87
240,50	1267,69
240,72	1282,03
240,93	1296,36
241,15	1273,84
241,37	1191,92
241,59	1222,64
241,81	1251,31
242,02	1296,36
242,24	1304,56
242,46	1312,75
242,68	1282,03
242,89	1292,27
243,11	1308,65
243,33	1265,64
243,55	1247,21
243,76	1292,27
243,98	1243,12
244,20	1351,66
244,42	1249,26
244,64	1302,51
244,85	1247,21
245,07	1247,21
245,29	1224,69
245,51	1314,80
245,72	1247,21
245,94	1208,30
246,16	1263,60
246,38	1255,40
246,59	1288,17
246,81	1282,03
247,03	1259,50
247,24	1261,55
247,46	1241,07
247,68	1316,84
247,90	1261,55
248,11	1322,99
248,33	1232,88
248,55	1253,36
248,77	1279,98
248,98	1273,84
249,20	1345,52
249,42	1232,88
249,64	1224,69
249,85	1308,65
250,07	1249,26
250,29	1232,88
250,50	1290,22
250,72	1279,98
250,94	1265,64
251,16	1345,52
251,37	1230,83
251,59	1329,13
251,81	1284,08
252,02	1257,45
252,24	1230,83
252,46	1249,26
252,68	1269,74
252,89	1349,61
253,11	1177,58
253,33	1263,60
253,54	1273,84
253,76	1257,45
253,98	1228,78
254,20	1202,16
254,41	1196,01
254,63	1212,40
254,85	1261,55
255,06	1239,02
255,28	1241,07
255,50	1282,03
255,71	1325,04
255,93	1257,45
256,15	1261,55
256,36	1275,88
256,58	1243,12
256,80	1343,47
257,02	1263,60
257,23	1257,45
257,45	1196,01
257,67	1173,49
257,88	1265,64
258,10	1300,46
258,32	1282,03
258,53	1298,41
258,75	1300,46
258,97	1273,84
259,18	1210,35
259,40	1286,12
259,62	1286,12
259,83	1331,18
260,05	1218,54
260,27	1333,23
260,48	1216,49
260,70	1296,36
260,92	1247,21
261,13	1300,46
261,35	1318,89
261,57	1226,73
261,78	1353,71
262,00	1261,55
262,22	1261,55
262,43	1347,56
262,65	1282,03
262,86	1329,13
263,08	1269,74
263,30	1261,55
263,51	1351,66
263,73	1202,16
263,95	1286,12
264,16	1312,75
264,38	1306,60
264,60	1284,08
264,81	1245,16
265,03	1251,31
265,25	1284,08
265,46	1314,80
265,68	1206,25
265,89	1263,60
266,11	1298,41
266,33	1273,84
266,54	1198,06
266,76	1265,64
266,98	1282,03
267,19	1310,70
267,41	1230,83
267,62	1292,27
267,84	1236,97
268,06	1320,94
268,27	1220,59
268,49	1259,50
268,70	1257,45
268,92	1279,98
269,14	1187,82
269,35	1327,08
269,57	1226,73
269,79	1241,07
270,00	1292,27
270,22	1202,16
270,43	1232,88
270,65	1214,45
270,87	1290,22
271,08	1308,65
271,30	1241,07
271,51	1275,88
271,73	1206,25
271,95	1255,40
272,16	1302,51
272,38	1288,17
272,59	1271,79
272,81	1247,21
273,02	1331,18
273,24	1243,12
273,46	1142,77
273,67	1314,80
273,89	1212,40
274,10	1279,98
274,32	1243,12
274,54	1241,07
274,75	1277,93
274,97	1282,03
275,18	1282,03
275,40	1292,27
275,61	1253,36
275,83	1325,04
276,05	1200,11
276,26	1245,16
276,48	1366,00
276,69	1304,56
276,91	1265,64
277,12	1271,79
277,34	1263,60
277,55	1265,64
277,77	1329,13
277,99	1337,32
278,20	1284,08
278,42	1202,16
278,63	1241,07
278,85	1196,01
279,06	1265,64
279,28	1210,35
279,49	1290,22
279,71	1218,54
279,93	1267,69
280,14	1261,55
280,36	1204,21
280,57	1134,57
280,79	1286,12
281,00	1304,56
281,22	1265,64
281,43	1212,40
281,65	1257,45
281,86	1329,13
282,08	1253,36
282,29	1273,84
282,51	1228,78
282,73	1286,12
282,94	1253,36
283,16	1241,07
283,37	1275,88
283,59	1282,03
283,80	1290,22
284,02	1206,25
284,23	1277,93
284,45	1255,40
284,66	1269,74
284,88	1236,97
285,09	1267,69
285,31	1312,75
285,52	1249,26
285,74	1271,79
285,95	1275,88
286,17	1308,65
286,38	1261,55
286,60	1265,64
286,81	1316,84
287,03	1259,50
287,24	1282,03
287,46	1212,40
287,67	1255,40
287,89	1320,94
288,10	1259,50
288,32	1298,41
288,53	1351,66
288,75	1282,03
288,96	1284,08
289,18	1308,65
289,39	1279,98
289,61	1263,60
289,82	1253,36
290,04	1261,55
290,25	1298,41
290,47	1277,93
290,68	1292,27
290,90	1257,45
291,11	1253,36
291,33	1347,56
291,54	1292,27
291,76	1288,17
291,97	1265,64
292,18	1282,03
292,40	1275,88
292,61	1292,27
292,83	1275,88
293,04	1253,36
293,26	1255,40
293,47	1298,41
293,69	1265,64
293,90	1232,88
294,12	1337,32
294,33	1267,69
294,55	1296,36
294,76	1269,74
294,97	1234,93
295,19	1208,30
295,40	1259,50
295,62	1292,27
295,83	1259,50
296,05	1279,98
296,26	1294,32
296,48	1286,12
296,69	1232,88
296,90	1261,55
297,12	1261,55
297,33	1255,40
297,55	1220,59
297,76	1232,88
297,98	1320,94
298,19	1318,89
298,41	1232,88
298,62	1257,45
298,83	1232,88
299,05	1241,07
299,26	1265,64
299,48	1261,55
299,69	1267,69
299,90	1236,97
300,12	1273,84
300,33	1241,07
300,55	1349,61
300,76	1312,75
300,98	1286,12
301,19	1277,93
301,40	1261,55
301,62	1191,92
301,83	1277,93
302,05	1224,69
302,26	1222,64
302,47	1296,36
302,69	1243,12
302,90	1257,45
303,12	1263,60
303,33	1314,80
303,54	1312,75
303,76	1191,92
303,97	1363,95
304,19	1314,80
304,40	1288,17
304,61	1316,84
304,83	1286,12
305,04	1271,79
305,26	1253,36
305,47	1257,45
305,68	1314,80
305,90	1245,16
306,11	1290,22
306,33	1245,16
306,54	1277,93
306,75	1189,87
306,97	1265,64
307,18	1277,93
307,39	1277,93
307,61	1253,36
307,82	1261,55
308,04	1298,41
308,25	1290,22
308,46	1271,79
308,68	1243,12
308,89	1366,00
309,10	1253,36
309,32	1204,21
309,53	1275,88
309,74	1249,26
309,96	1310,70
310,17	1224,69
310,39	1275,88
310,60	1322,99
310,81	1288,17
311,03	1314,80
311,24	1308,65
311,45	1271,79
311,67	1322,99
311,88	1263,60
312,09	1204,21
312,31	1265,64
312,52	1212,40
312,73	1255,40
312,95	1298,41
313,16	1239,02
313,37	1247,21
313,59	1241,07
313,80	1296,36
314,01	1337,32
314,23	1167,34
314,44	1224,69
314,65	1269,74
314,87	1253,36
315,08	1224,69
315,29	1251,31
315,51	1247,21
315,72	1208,30
315,93	1302,51
316,15	1294,32
316,36	1327,08
316,57	1251,31
316,79	1230,83
317,00	1331,18
317,21	1241,07
317,43	1286,12
317,64	1247,21
317,85	1220,59
318,07	1202,16
318,28	1329,13
318,49	1282,03
318,70	1261,55
318,92	1339,37
319,13	1357,80
319,34	1333,23
319,56	1312,75
319,77	1241,07
319,98	1282,03
320,20	1251,31
320,41	1322,99
320,62	1230,83
320,83	1310,70
321,05	1329,13
321,26	1279,98
321,47	1232,88
321,69	1234,93
321,90	1288,17
322,11	1286,12
322,32	1243,12
322,54	1185,77
322,75	1224,69
322,96	1267,69
323,18	1232,88
323,39	1245,16
323,60	1208,30
323,81	1310,70
324,03	1275,88
324,24	1212,40
324,45	1208,30
324,66	1263,60
324,88	1316,84
325,09	1298,41
325,30	1302,51
325,52	1273,84
325,73	1232,88
325,94	1245,16
326,15	1284,08
326,37	1304,56
326,58	1357,80
326,79	1282,03
327,00	1308,65
327,22	1269,74
327,43	1251,31
327,64	1187,82
327,85	1302,51
328,07	1249,26
328,28	1241,07
328,49	1306,60
328,70	1279,98
328,92	1271,79
329,13	1267,69
329,34	1286,12
329,55	1288,17
329,76	1265,64
329,98	1292,27
330,19	1210,35
330,40	1218,54
330,61	1290,22
330,83	1200,11
331,04	1261,55
331,25	1271,79
331,46	1259,50
331,68	1267,69
331,89	1304,56
332,10	1245,16
332,31	1282,03
332,52	1288,17
332,74	1265,64
332,95	1257,45
333,16	1259,50
333,37	1251,31
333,58	1243,12
333,80	1312,75
334,01	1263,60
334,22	1241,07
334,43	1308,65
334,64	1314,80
334,86	1265,64
335,07	1273,84
335,28	1288,17
335,49	1183,73
335,70	1298,41
335,92	1124,33
336,13	1282,03
336,34	1204,21
336,55	1310,70
336,76	1257,45
336,98	1243,12
337,19	1269,74
337,40	1327,08
337,61	1337,32
337,82	1253,36
338,04	1335,28
338,25	1282,03
338,46	1224,69
338,67	1290,22
338,88	1351,66
339,09	1339,37
339,31	1255,40
339,52	1173,49
339,73	1251,31
339,94	1269,74
340,15	1294,32
340,36	1288,17
340,58	1222,64
340,79	1314,80
341,00	1232,88
341,21	1269,74
341,42	1284,08
341,63	1300,46
341,85	1245,16
342,06	1294,32
342,27	1259,50
342,48	1263,60
342,69	1282,03
342,90	1304,56
343,12	1249,26
343,33	1314,80
343,54	1312,75
343,75	1245,16
343,96	1261,55
344,17	1298,41
344,38	1288,17
344,60	1290,22
344,81	1329,13
345,02	1255,40
345,23	1263,60
345,44	1282,03
345,65	1300,46
345,86	1275,88
346,07	1279,98
346,29	1200,11
346,50	1320,94
346,71	1271,79
346,92	1140,72
347,13	1230,83
347,34	1329,13
347,55	1210,35
347,76	1243,12
347,98	1216,49
348,19	1189,87
348,40	1241,07
348,61	1245,16
348,82	1243,12
349,03	1310,70
349,24	1253,36
349,45	1284,08
349,66	1202,16
349,88	1298,41
350,09	1296,36
350,30	1327,08
350,51	1239,02
350,72	1234,93
350,93	1245,16
351,14	1265,64
351,35	1234,93
351,56	1310,70
351,77	1212,40
351,99	1269,74
352,20	1288,17
352,41	1267,69
352,62	1300,46
352,83	1275,88
353,04	1261,55
353,25	1216,49
353,46	1314,80
353,67	1333,23
353,88	1310,70
354,09	1241,07
354,30	1314,80
354,52	1251,31
354,73	1271,79
354,94	1312,75
355,15	1189,87
355,36	1288,17
355,57	1300,46
355,78	1286,12
355,99	1316,84
356,20	1232,88
356,41	1304,56
356,62	1196,01
356,83	1273,84
357,04	1239,02
357,25	1224,69
357,46	1296,36
357,68	1247,21
357,89	1273,84
358,10	1282,03
358,31	1261,55
358,52	1290,22
358,73	1236,97
358,94	1312,75
359,15	1198,06
359,36	1183,73
359,57	1273,84
359,78	1298,41
359,99	1261,55
360,20	1245,16
360,41	1222,64
360,62	1243,12
360,83	1245,16
361,04	1200,11
361,25	1275,88
361,46	1296,36
361,67	1212,40
361,88	1294,32
362,09	1275,88
362,30	1255,40
362,51	1245,16
362,72	1265,64
362,93	1220,59
363,14	1267,69
363,35	1343,47
363,56	1327,08
363,78	1277,93
363,99	1314,80
364,20	1193,97
364,41	1222,64
364,62	1173,49
364,83	1239,02
365,04	1243,12
365,25	1282,03
365,46	1232,88
365,67	1271,79
365,88	1214,45
366,09	1247,21
366,30	1273,84
366,51	1269,74
366,72	1222,64
366,93	1282,03
367,14	1181,68
367,35	1265,64
367,56	1232,88
367,77	1261,55
367,98	1216,49
368,18	1222,64
368,39	1214,45
368,60	1292,27
368,81	1253,36
369,02	1296,36
369,23	1210,35
369,44	1259,50
369,65	1347,56
369,86	1308,65
370,07	1243,12
370,28	1292,27
370,49	1271,79
370,70	1310,70
370,91	1253,36
371,12	1296,36
371,33	1341,42
371,54	1296,36
371,75	1327,08
371,96	1247,21
372,17	1224,69
372,38	1226,73
372,59	1284,08
372,80	1214,45
373,01	1282,03
373,22	1361,90
373,43	1202,16
373,64	1275,88
373,85	1177,58
374,06	1265,64
374,26	1245,16
374,47	1292,27
374,68	1282,03
374,89	1255,40
375,10	1263,60
375,31	1343,47
375,52	1212,40
375,73	1226,73
375,94	1296,36
376,15	1294,32
376,36	1275,88
376,57	1277,93
376,78	1288,17
376,99	1267,69
377,20	1275,88
377,40	1232,88
377,61	1277,93
377,82	1263,60
378,03	1300,46
378,24	1251,31
378,45	1253,36
378,66	1275,88
378,87	1279,98
379,08	1249,26
379,29	1220,59
379,50	1261,55
379,71	1275,88
379,91	1337,32
380,12	1253,36
380,33	1247,21
380,54	1249,26
380,75	1279,98
380,96	1216,49
381,17	1273,84
381,38	1277,93
381,59	1247,21
381,80	1247,21
382,00	1345,52
382,21	1277,93
382,42	1216,49
382,63	1212,40
382,84	1306,60
383,05	1253,36
383,26	1337,32
383,47	1314,80
383,68	1273,84
383,88	1232,88
384,09	1245,16
384,30	1263,60
384,51	1284,08
384,72	1257,45
384,93	1253,36
385,14	1259,50
385,35	1275,88
385,55	1249,26
385,76	1265,64
385,97	1212,40
386,18	1277,93
386,39	1271,79
386,60	1282,03
386,81	1214,45
387,02	1259,50
387,22	1234,93
387,43	1331,18
387,64	1304,56
387,85	1298,41
388,06	1271,79
388,27	1259,50
388,48	1286,12
388,68	1230,83
388,89	1292,27
389,10	1284,08
389,31	1255,40
389,52	1277,93
389,73	1277,93
389,93	1310,70
390,14	1282,03
390,35	1249,26
390,56	1206,25
390,77	1181,68
390,98	1187,82
391,18	1366,00
391,39	1251,31
391,60	1300,46
391,81	1275,88
392,02	1249,26
392,23	1286,12
392,43	1320,94
392,64	1282,03
392,85	1191,92
393,06	1294,32
393,27	1296,36
393,47	1181,68
393,68	1232,88
393,89	1300,46
394,10	1257,45
394,31	1265,64
394,52	1228,78
394,72	1300,46
394,93	1357,80
395,14	1234,93
395,35	1308,65
395,56	1322,99
395,76	1255,40
395,97	1187,82
396,18	1312,75
396,39	1269,74
396,60	1306,60
396,80	1257,45
397,01	1251,31
397,22	1282,03
397,43	1269,74
397,64	1261,55
397,84	1275,88
398,05	1269,74
398,26	1304,56
398,47	1314,80
398,67	1298,41
398,88	1243,12
399,09	1325,04
399,30	1267,69
399,51	1249,26
399,71	1239,02
399,92	1245,16
400,13	1290,22
400,34	1335,28
400,54	1249,26
400,75	1241,07
400,96	1230,83
401,17	1263,60
401,37	1300,46
401,58	1255,40
401,79	1341,42
402,00	1255,40
402,21	1343,47
402,41	1183,73
402,62	1222,64
402,83	1230,83
403,04	1196,01
403,24	1320,94
403,45	1292,27
403,66	1282,03
403,87	1339,37
404,07	1282,03
404,28	1245,16
404,49	1345,52
404,70	1298,41
404,90	1247,21
405,11	1253,36
405,32	1282,03
405,52	1161,20
405,73	1300,46
405,94	1306,60
406,15	1220,59
406,35	1257,45
406,56	1224,69
406,77	1335,28
406,98	1247,21
407,18	1230,83
407,39	1284,08
407,60	1253,36
407,80	1359,85
408,01	1234,93
408,22	1271,79
408,43	1241,07
408,63	1335,28
408,84	1239,02
409,05	1228,78
409,25	1310,70
409,46	1306,60
409,67	1296,36
409,88	1320,94
410,08	1298,41
410,29	1228,78
410,50	1265,64
410,70	1263,60
410,91	1269,74
411,12	1271,79
411,32	1196,01
411,53	1249,26
411,74	1187,82
411,95	1310,70
412,15	1222,64
412,36	1304,56
412,57	1267,69
412,77	1286,12
412,98	1271,79
413,19	1187,82
413,39	1290,22
413,60	1216,49
413,81	1271,79
414,01	1302,51
414,22	1228,78
414,43	1282,03
414,63	1175,53
414,84	1284,08
415,05	1208,30
415,25	1234,93
415,46	1263,60
415,67	1200,11
415,87	1241,07
416,08	1267,69
416,29	1322,99
416,49	1249,26
416,70	1241,07
416,91	1277,93
417,11	1210,35
417,32	1335,28
417,53	1290,22
417,73	1243,12
417,94	1218,54
418,15	1282,03
418,35	1304,56
418,56	1224,69
418,77	1234,93
418,97	1271,79
419,18	1228,78
419,38	1333,23
419,59	1275,88
419,80	1275,88
420,00	1329,13
420,21	1269,74
420,42	1271,79
420,62	1267,69
420,83	1322,99
421,04	1306,60
421,24	1171,44
421,45	1226,73
421,65	1251,31
421,86	1312,75
422,07	1241,07
422,27	1296,36
422,48	1296,36
422,69	1312,75
422,89	1298,41
423,10	1259,50
423,30	1282,03
423,51	1218,54
423,72	1275,88
423,92	1247,21
424,13	1251,31
424,33	1228,78
424,54	1279,98
424,75	1292,27
424,95	1286,12
425,16	1290,22
425,36	1277,93
425,57	1232,88
425,78	1304,56
425,98	1241,07
426,19	1265,64
426,39	1263,60
426,60	1251,31
426,81	1269,74
427,01	1284,08
427,22	1234,93
427,42	1241,07
427,63	1234,93
427,83	1226,73
428,04	1259,50
428,25	1257,45
428,45	1249,26
428,66	1279,98
428,86	1294,32
429,07	1232,88
429,28	1353,71
429,48	1249,26
429,69	1282,03
429,89	1243,12
430,10	1204,21
430,30	1271,79
430,51	1273,84
430,71	1241,07
430,92	1286,12
431,13	1306,60
431,33	1290,22
431,54	1288,17
431,74	1265,64
431,95	1286,12
432,15	1230,83
432,36	1243,12
432,56	1263,60
432,77	1245,16
432,98	1282,03
433,18	1243,12
433,39	1271,79
433,59	1267,69
433,80	1341,42
434,00	1257,45
434,21	1251,31
434,41	1247,21
434,62	1290,22
434,82	1259,50
435,03	1265,64
435,23	1232,88
435,44	1345,52
435,64	1257,45
435,85	1230,83
436,06	1271,79
436,26	1241,07
436,47	1288,17
436,67	1269,74
436,88	1277,93
437,08	1322,99
437,29	1277,93
437,49	1327,08
437,70	1206,25
437,90	1259,50
438,11	1150,96
438,31	1210,35
438,52	1300,46
438,72	1251,31
438,93	1282,03
439,13	1245,16
439,34	1259,50
439,54	1306,60
439,75	1318,89
439,95	1302,51
440,16	1212,40
440,36	1271,79
440,57	1298,41
440,77	1247,21
440,98	1320,94
441,18	1259,50
441,39	1239,02
441,59	1306,60
441,80	1218,54
442,00	1277,93
442,21	1337,32
442,41	1273,84
442,62	1286,12
442,82	1263,60
443,02	1298,41
443,23	1269,74
443,43	1228,78
443,64	1282,03
443,84	1241,07
444,05	1267,69
444,25	1277,93
444,46	1187,82
444,66	1198,06
444,87	1298,41
445,07	1298,41
445,28	1308,65
445,48	1298,41
445,69	1216,49
445,89	1251,31
446,09	1245,16
446,30	1302,51
446,50	1245,16
446,71	1204,21
446,91	1261,55
447,12	1259,50
447,32	1279,98
447,53	1294,32
447,73	1363,95
447,93	1310,70
448,14	1349,61
448,34	1216,49
448,55	1300,46
448,75	1345,52
448,96	1286,12
449,16	1267,69
449,36	1259,50
449,57	1249,26
449,77	1298,41
449,98	1286,12
450,18	1251,31
450,39	1257,45
450,59	1255,40
450,79	1263,60
451,00	1202,16
451,20	1267,69
451,41	1286,12
451,61	1243,12
451,81	1304,56
452,02	1331,18
452,22	1263,60
452,43	1275,88
452,63	1316,84
452,84	1310,70
453,04	1241,07
453,24	1247,21
453,45	1333,23
453,65	1273,84
453,86	1249,26
454,06	1183,73
454,26	1257,45
454,47	1286,12
454,67	1251,31
454,87	1271,79
455,08	1259,50
455,28	1259,50
455,49	1263,60
455,69	1245,16
455,89	1255,40
456,10	1216,49
456,30	1222,64
456,51	1226,73
456,71	1279,98
456,91	1265,64
457,12	1232,88
457,32	1288,17
457,52	1370,09
457,73	1236,97
457,93	1302,51
458,14	1310,70
458,34	1239,02
458,54	1267,69
458,75	1263,60
458,95	1253,36
459,15	1271,79
459,36	1247,21
459,56	1329,13
459,76	1308,65
459,97	1232,88
460,17	1275,88
460,37	1310,70
460,58	1263,60
460,78	1232,88
460,99	1294,32
461,19	1288,17
461,39	1247,21
461,60	1312,75
461,80	1306,60
462,00	1269,74
462,21	1181,68
462,41	1341,42
462,61	1271,79
462,82	1366,00
463,02	1232,88
463,22	1306,60
463,43	1226,73
463,63	1257,45
463,83	1282,03
464,04	1302,51
464,24	1265,64
464,44	1288,17
464,64	1308,65
464,85	1306,60
465,05	1288,17
465,25	1236,97
465,46	1327,08
465,66	1230,83
465,86	1298,41
466,07	1327,08
466,27	1247,21
466,47	1337,32
466,68	1230,83
466,88	1294,32
467,08	1277,93
467,29	1279,98
467,49	1230,83
467,69	1357,80
467,89	1212,40
468,10	1230,83
468,30	1308,65
468,50	1298,41
468,71	1304,56
468,91	1259,50
469,11	1251,31
469,31	1277,93
469,52	1247,21
469,72	1214,45
469,92	1247,21
470,13	1261,55
470,33	1302,51
470,53	1224,69
470,73	1245,16
470,94	1312,75
471,14	1167,34
471,34	1241,07
471,54	1257,45
471,75	1204,21
471,95	1249,26
472,15	1255,40
472,36	1318,89
472,56	1247,21
472,76	1271,79
472,96	1306,60
473,17	1320,94
473,37	1282,03
473,57	1206,25
473,77	1306,60
473,98	1245,16
474,18	1300,46
474,38	1300,46
474,58	1308,65
474,79	1253,36
474,99	1337,32
475,19	1232,88
475,39	1267,69
475,60	1267,69
475,80	1282,03
476,00	1241,07
476,20	1198,06
476,41	1282,03
476,61	1277,93
476,81	1306,60
477,01	1331,18
477,21	1251,31
477,42	1253,36
477,62	1279,98
477,82	1236,97
478,02	1265,64
478,23	1279,98
478,43	1234,93
478,63	1366,00
478,83	1273,84
479,03	1263,60
479,24	1286,12
479,44	1300,46
479,64	1308,65
479,84	1253,36
480,04	1249,26
480,25	1265,64
480,45	1228,78
480,65	1222,64
480,85	1206,25
481,06	1282,03
481,26	1273,84
481,46	1208,30
481,66	1314,80
481,86	1251,31
482,06	1228,78
482,27	1265,64
482,47	1234,93
482,67	1286,12
482,87	1312,75
483,07	1298,41
483,28	1220,59
483,48	1288,17
483,68	1189,87
483,88	1239,02
484,08	1144,81
484,29	1208,30
484,49	1345,52
484,69	1300,46
484,89	1255,40
485,09	1279,98
485,29	1286,12
485,50	1230,83
485,70	1232,88
485,90	1251,31
486,10	1253,36
486,30	1282,03
486,50	1179,63
486,71	1339,37
486,91	1277,93
487,11	1271,79
487,31	1245,16
487,51	1275,88
487,71	1259,50
487,91	1300,46
488,12	1259,50
488,32	1271,79
488,52	1236,97
488,72	1257,45
488,92	1265,64
489,12	1322,99
489,32	1275,88
489,53	1335,28
489,73	1249,26
489,93	1294,32
490,13	1275,88
490,33	1239,02
490,53	1226,73
490,73	1236,97
490,94	1359,85
491,14	1292,27
491,34	1259,50
491,54	1251,31
491,74	1196,01
491,94	1255,40
492,14	1298,41
492,34	1277,93
492,54	1300,46
492,75	1239,02
492,95	1247,21
493,15	1249,26
493,35	1265,64
493,55	1290,22
493,75	1279,98
493,95	1273,84
494,15	1296,36
494,35	1220,59
494,56	1183,73
494,76	1271,79
494,96	1300,46
495,16	1239,02
495,36	1306,60
495,56	1296,36
495,76	1271,79
495,96	1263,60
496,16	1232,88
496,36	1277,93
496,56	1236,97
496,77	1204,21
496,97	1304,56
497,17	1269,74
497,37	1224,69
497,57	1228,78
497,77	1329,13
497,97	1290,22
498,17	1316,84
498,37	1187,82
498,57	1265,64
498,77	1271,79
498,97	1329,13
499,17	1269,74
499,38	1253,36
499,58	1282,03
499,78	1259,50
499,98	1269,74
500,18	1253,36
500,38	1331,18
500,58	1277,93
500,78	1279,98
500,98	1279,98
501,18	1236,97
501,38	1273,84
501,58	1259,50
501,78	1198,06
501,98	1298,41
502,18	1247,21
502,38	1277,93
502,58	1363,95
502,78	1355,76
502,98	1236,97
503,18	1275,88
503,38	1241,07
503,59	1212,40
503,79	1282,03
503,99	1261,55
504,19	1300,46
504,39	1257,45
504,59	1206,25
504,79	1183,73
504,99	1232,88
505,19	1290,22
505,39	1306,60
505,59	1261,55
505,79	1265,64
505,99	1212,40
506,19	1257,45
506,39	1204,21
506,59	1245,16
506,79	1279,98
506,99	1263,60
507,19	1239,02
507,39	1279,98
507,59	1241,07
507,79	1165,29
507,99	1318,89
508,19	1226,73
508,39	1296,36
508,59	1269,74
508,79	1331,18
508,99	1339,37
509,19	1257,45
509,39	1261,55
509,59	1294,32
509,79	1236,97
509,99	1271,79
510,19	1318,89
510,39	1163,25
510,59	1288,17
510,79	1320,94
510,99	1230,83
511,19	1265,64
511,39	1298,41
511,59	1247,21
511,79	1247,21
511,99	1267,69
512,19	1247,21
512,38	1271,79
512,58	1243,12
512,78	1290,22
512,98	1193,97
513,18	1212,40
513,38	1234,93
513,58	1208,30
513,78	1204,21
513,98	1263,60
514,18	1239,02
514,38	1327,08
514,58	1277,93
514,78	1255,40
514,98	1261,55
515,18	1286,12
515,38	1202,16
515,58	1232,88
515,78	1251,31
515,98	1255,40
516,18	1263,60
516,38	1339,37
516,57	1241,07
516,77	1279,98
516,97	1261,55
517,17	1263,60
517,37	1247,21
517,57	1236,97
517,77	1265,64
517,97	1296,36
518,17	1259,50
518,37	1241,07
518,57	1314,80
518,77	1277,93
518,97	1236,97
519,16	1255,40
519,36	1259,50
519,56	1288,17
519,76	1220,59
519,96	1261,55
520,16	1314,80
520,36	1302,51
520,56	1251,31
520,76	1216,49
520,96	1257,45
521,16	1316,84
521,35	1245,16
521,55	1269,74
521,75	1255,40
521,95	1259,50
522,15	1298,41
522,35	1259,50
522,55	1200,11
522,75	1279,98
522,95	1230,83
523,14	1259,50
523,34	1253,36
523,54	1267,69
523,74	1296,36
523,94	1267,69
524,14	1239,02
524,34	1333,23
524,54	1261,55
524,73	1245,16
524,93	1234,93
525,13	1284,08
525,33	1300,46
525,53	1226,73
525,73	1236,97
525,93	1236,97
526,13	1228,78
526,32	1243,12
526,52	1290,22
526,72	1288,17
526,92	1247,21
527,12	1220,59
527,32	1220,59
527,52	1257,45
527,71	1343,47
527,91	1298,41
528,11	1265,64
528,31	1298,41
528,51	1232,88
528,71	1294,32
528,90	1271,79
529,10	1292,27
529,30	1292,27
529,50	1210,35
529,70	1331,18
529,90	1312,75
530,09	1265,64
530,29	1288,17
530,49	1222,64
530,69	1277,93
530,89	1243,12
531,09	1239,02
531,28	1210,35
531,48	1261,55
531,68	1361,90
531,88	1226,73
532,08	1257,45
532,28	1329,13
532,47	1273,84
532,67	1282,03
532,87	1314,80
533,07	1265,64
533,27	1308,65
533,46	1245,16
533,66	1245,16
533,86	1271,79
534,06	1230,83
534,26	1183,73
534,45	1232,88
534,65	1243,12
534,85	1337,32
535,05	1267,69
535,25	1247,21
535,44	1185,77
535,64	1294,32
535,84	1228,78
536,04	1218,54
536,24	1316,84
536,43	1277,93
536,63	1306,60
536,83	1228,78
537,03	1273,84
537,22	1224,69
537,42	1189,87
537,62	1249,26
537,82	1288,17
538,02	1320,94
538,21	1261,55
538,41	1294,32
538,61	1253,36
538,81	1234,93
539,00	1228,78
539,20	1292,27
539,40	1275,88
539,60	1253,36
539,79	1273,84
539,99	1273,84
540,19	1232,88
540,39	1282,03
540,58	1245,16
540,78	1257,45
540,98	1316,84
541,18	1275,88
541,37	1372,14
541,57	1241,07
541,77	1320,94
541,97	1241,07
542,16	1200,11
542,36	1322,99
542,56	1208,30
542,76	1288,17
542,95	1292,27
543,15	1247,21
543,35	1271,79
543,54	1316,84
543,74	1290,22
543,94	1257,45
544,14	1220,59
544,33	1282,03
544,53	1310,70
544,73	1267,69
544,93	1212,40
545,12	1329,13
545,32	1277,93
545,52	1273,84
545,71	1253,36
545,91	1273,84
546,11	1253,36
546,30	1216,49
546,50	1314,80
546,70	1300,46
546,90	1222,64
547,09	1298,41
547,29	1265,64
547,49	1298,41
547,68	1279,98
547,88	1239,02
548,08	1263,60
548,27	1306,60
548,47	1241,07
548,67	1286,12
548,87	1275,88
549,06	1263,60
549,26	1288,17
549,46	1259,50
549,65	1271,79
549,85	1222,64
550,05	1265,64
550,24	1255,40
550,44	1279,98
550,64	1271,79
550,83	1333,23
551,03	1251,31
551,23	1236,97
551,42	1296,36
551,62	1269,74
551,82	1257,45
552,01	1269,74
552,21	1198,06
552,41	1232,88
552,60	1275,88
552,80	1228,78
553,00	1236,97
553,19	1310,70
553,39	1189,87
553,59	1255,40
553,78	1249,26
553,98	1273,84
554,17	1318,89
554,37	1247,21
554,57	1224,69
554,76	1159,15
554,96	1216,49
555,16	1269,74
555,35	1185,77
555,55	1306,60
555,75	1255,40
555,94	1232,88
556,14	1265,64
556,33	1277,93
556,53	1343,47
556,73	1331,18
556,92	1228,78
557,12	1288,17
557,32	1271,79
557,51	1232,88
557,71	1267,69
557,90	1353,71
558,10	1275,88
558,30	1269,74
558,49	1306,60
558,69	1288,17
558,88	1241,07
559,08	1189,87
559,28	1210,35
559,47	1165,29
559,67	1298,41
559,86	1198,06
560,06	1241,07
560,26	1296,36
560,45	1224,69
560,65	1196,01
560,84	1279,98
561,04	1212,40
561,24	1253,36
561,43	1245,16
561,63	1329,13
561,82	1292,27
562,02	1343,47
562,22	1331,18
562,41	1226,73
562,61	1249,26
562,80	1333,23
563,00	1339,37
563,19	1296,36
563,39	1251,31
563,59	1220,59
563,78	1261,55
563,98	1228,78
564,17	1337,32
564,37	1222,64
564,56	1247,21
564,76	1296,36
564,96	1193,97
565,15	1279,98
565,35	1294,32
565,54	1298,41
565,74	1282,03
565,93	1173,49
566,13	1269,74
566,32	1273,84
566,52	1193,97
566,71	1282,03
566,91	1259,50
567,11	1331,18
567,30	1255,40
567,50	1226,73
567,69	1222,64
567,89	1253,36
568,08	1339,37
568,28	1241,07
568,47	1236,97
568,67	1265,64
568,86	1249,26
569,06	1200,11
569,25	1322,99
569,45	1296,36
569,64	1310,70
569,84	1243,12
570,04	1312,75
570,23	1265,64
570,43	1273,84
570,62	1300,46
570,82	1259,50
571,01	1243,12
571,21	1292,27
571,40	1300,46
571,60	1269,74
571,79	1224,69
571,99	1300,46
572,18	1193,97
572,38	1216,49
572,57	1171,44
572,77	1279,98
572,96	1198,06
573,16	1236,97
573,35	1318,89
573,55	1273,84
573,74	1294,32
573,94	1208,30
574,13	1247,21
574,33	1294,32
574,52	1298,41
574,71	1206,25
574,91	1277,93
575,10	1286,12
575,30	1261,55
575,49	1214,45
575,69	1282,03
575,88	1255,40
576,08	1249,26
576,27	1273,84
576,47	1257,45
576,66	1292,27
576,86	1273,84
577,05	1312,75
577,25	1222,64
577,44	1286,12
577,64	1232,88
577,83	1247,21
578,02	1286,12
578,22	1257,45
578,41	1251,31
578,61	1232,88
578,80	1279,98
579,00	1220,59
579,19	1202,16
579,39	1306,60
579,58	1290,22
579,77	1226,73
579,97	1322,99
580,16	1216,49
580,36	1241,07
580,55	1261,55
580,75	1265,64
580,94	1322,99
581,13	1325,04
581,33	1273,84
581,52	1298,41
581,72	1273,84
581,91	1271,79
582,11	1220,59
582,30	1271,79
582,49	1282,03
582,69	1279,98
582,88	1322,99
583,08	1236,97
583,27	1353,71
583,47	1292,27
583,66	1239,02
583,85	1236,97
584,05	1232,88
584,24	1314,80
584,44	1247,21
584,63	1265,64
584,82	1277,93
585,02	1253,36
585,21	1236,97
585,41	1318,89
585,60	1259,50
585,79	1239,02
585,99	1232,88
586,18	1286,12
586,37	1277,93
586,57	1232,88
586,76	1329,13
586,96	1226,73
587,15	1273,84
587,34	1269,74
587,54	1290,22
587,73	1273,84
587,93	1218,54
588,12	1245,16
588,31	1325,04
588,51	1236,97
588,70	1298,41
588,89	1222,64
589,09	1302,51
589,28	1269,74
589,47	1228,78
589,67	1198,06
589,86	1322,99
590,06	1239,02
590,25	1325,04
590,44	1265,64
590,64	1288,17
590,83	1294,32
591,02	1290,22
591,22	1228,78
591,41	1271,79
591,60	1294,32
591,80	1314,80
591,99	1236,97
592,18	1286,12
592,38	1314,80
592,57	1257,45
592,76	1220,59
592,96	1257,45
593,15	1236,97
593,34	1290,22
593,54	1263,60
593,73	1216,49
593,92	1294,32
594,12	1234,93
594,31	1234,93
594,50	1243,12
594,70	1279,98
594,89	1304,56
595,08	1214,45
595,28	1265,64
595,47	1275,88
595,66	1271,79
595,86	1279,98
596,05	1310,70
596,24	1343,47
596,43	1263,60
596,63	1316,84
596,82	1267,69
597,01	1261,55
597,21	1337,32
597,40	1230,83
597,59	1292,27
597,79	1290,22
597,98	1214,45
598,17	1302,51
598,36	1261,55
598,56	1298,41
598,75	1263,60
598,94	1269,74
599,14	1261,55
599,33	1226,73
599,52	1222,64
599,71	1218,54
599,91	1335,28
600,10	1253,36
600,29	1286,12
600,48	1349,61
600,68	1325,04
600,87	1257,45
601,06	1224,69
601,26	1329,13
601,45	1312,75
601,64	1239,02
601,83	1300,46
602,03	1146,86
602,22	1286,12
602,41	1288,17
602,60	1304,56
602,80	1224,69
602,99	1310,70
603,18	1277,93
603,37	1286,12
603,57	1228,78
603,76	1298,41
603,95	1304,56
604,14	1279,98
604,34	1226,73
604,53	1193,97
604,72	1263,60
604,91	1288,17
605,10	1277,93
605,30	1257,45
605,49	1269,74
605,68	1335,28
605,87	1277,93
606,07	1298,41
606,26	1251,31
606,45	1282,03
606,64	1269,74
606,84	1284,08
607,03	1177,58
607,22	1241,07
607,41	1177,58
607,60	1247,21
607,80	1275,88
607,99	1247,21
608,18	1265,64
608,37	1241,07
608,56	1271,79
608,76	1214,45
608,95	1314,80
609,14	1232,88
609,33	1279,98
609,52	1277,93
609,72	1257,45
609,91	1189,87
610,10	1269,74
610,29	1273,84
610,48	1196,01
610,68	1312,75
610,87	1277,93
611,06	1253,36
611,25	1220,59
611,44	1271,79
611,63	1300,46
611,83	1261,55
612,02	1228,78
612,21	1333,23
612,40	1296,36
612,59	1286,12
612,79	1261,55
612,98	1210,35
613,17	1261,55
613,36	1187,82
613,55	1333,23
613,74	1318,89
613,93	1146,86
614,13	1251,31
614,32	1267,69
614,51	1275,88
614,70	1226,73
614,89	1290,22
615,08	1185,77
615,28	1277,93
615,47	1236,97
615,66	1273,84
615,85	1300,46
616,04	1292,27
616,23	1308,65
616,42	1216,49
616,62	1249,26
616,81	1284,08
617,00	1286,12
617,19	1224,69
617,38	1251,31
617,57	1241,07
617,76	1241,07
617,95	1279,98
618,15	1284,08
618,34	1279,98
618,53	1228,78
618,72	1302,51
618,91	1279,98
619,10	1234,93
619,29	1286,12
619,48	1267,69
619,68	1314,80
619,87	1292,27
620,06	1222,64
620,25	1273,84
620,44	1245,16
620,63	1320,94
620,82	1300,46
621,01	1214,45
621,20	1259,50
621,39	1263,60
621,59	1239,02
621,78	1296,36
621,97	1232,88
622,16	1335,28
622,35	1290,22
622,54	1210,35
622,73	1269,74
622,92	1292,27
623,11	1296,36
623,30	1277,93
623,49	1322,99
623,68	1279,98
623,88	1290,22
624,07	1263,60
624,26	1232,88
624,45	1251,31
624,64	1204,21
624,83	1316,84
625,02	1239,02
625,21	1267,69
625,40	1312,75
625,59	1333,23
625,78	1263,60
625,97	1226,73
626,16	1284,08
626,35	1265,64
626,54	1318,89
626,74	1300,46
626,93	1251,31
627,12	1298,41
627,31	1261,55
627,50	1310,70
627,69	1253,36
627,88	1253,36
628,07	1290,22
628,26	1310,70
628,45	1251,31
628,64	1316,84
628,83	1386,47
629,02	1310,70
629,21	1286,12
629,40	1189,87
629,59	1282,03
629,78	1341,42
629,97	1257,45
630,16	1339,37
630,35	1241,07
630,54	1318,89
630,73	1325,04
630,92	1292,27
631,11	1286,12
631,30	1335,28
631,49	1241,07
631,68	1443,82
631,87	1499,11
632,06	1673,19
632,25	1632,23
632,44	1681,38
632,63	1624,04
632,82	1689,57
633,01	1710,05
633,20	1658,85
633,39	1626,09
633,58	1720,29
633,77	1650,66
633,96	1757,16
634,15	1808,36
634,34	1923,04
634,53	1804,26
634,72	1851,36
634,91	1804,26
635,10	1841,12
635,29	1859,56
635,48	1916,90
635,67	1837,03
635,86	1910,75
636,05	1812,45
636,24	1794,02
636,43	1787,88
636,62	1673,19
636,81	1624,04
637,00	1468,39
637,19	1484,78
637,38	1413,10
637,57	1499,11
637,76	1343,47
637,95	1302,51
638,14	1349,61
638,33	1296,36
638,52	1368,04
638,71	1284,08
638,89	1245,16
639,08	1380,33
639,27	1253,36
639,46	1241,07
639,65	1226,73
639,84	1255,40
640,03	1339,37
640,22	1308,65
640,41	1273,84
640,60	1251,31
640,79	1232,88
640,98	1265,64
641,17	1222,64
641,36	1253,36
641,55	1247,21
641,74	1290,22
641,92	1245,16
642,11	1210,35
642,30	1316,84
642,49	1220,59
642,68	1314,80
642,87	1275,88
643,06	1296,36
643,25	1261,55
643,44	1277,93
643,63	1284,08
643,82	1312,75
644,00	1267,69
644,19	1212,40
644,38	1247,21
644,57	1259,50
644,76	1257,45
644,95	1245,16
645,14	1259,50
645,33	1243,12
645,52	1298,41
645,71	1247,21
645,89	1304,56
646,08	1273,84
646,27	1310,70
646,46	1279,98
646,65	1302,51
646,84	1265,64
647,03	1255,40
647,22	1271,79
647,40	1234,93
647,59	1282,03
647,78	1257,45
647,97	1275,88
648,16	1230,83
648,35	1259,50
648,54	1290,22
648,73	1288,17
648,91	1214,45
649,10	1239,02
649,29	1224,69
649,48	1320,94
649,67	1257,45
649,86	1282,03
650,05	1275,88
650,23	1232,88
650,42	1288,17
650,61	1335,28
650,80	1286,12
650,99	1214,45
651,18	1277,93
651,36	1208,30
651,55	1271,79
651,74	1202,16
651,93	1273,84
652,12	1288,17
652,31	1320,94
652,49	1286,12
652,68	1333,23
652,87	1243,12
653,06	1230,83
653,25	1216,49
653,44	1296,36
653,62	1224,69
653,81	1261,55
654,00	1234,93
654,19	1320,94
654,38	1290,22
654,56	1257,45
654,75	1286,12
654,94	1255,40
655,13	1257,45
655,32	1273,84
655,51	1249,26
655,69	1196,01
655,88	1290,22
656,07	1325,04
656,26	1265,64
656,45	1308,65
656,63	1279,98
656,82	1277,93
657,01	1271,79
657,20	1224,69
657,38	1267,69
657,57	1191,92
657,76	1335,28
657,95	1314,80
658,14	1257,45
658,32	1361,90
658,51	1263,60
658,70	1345,52
658,89	1359,85
659,08	1282,03
659,26	1300,46
659,45	1249,26
659,64	1241,07
659,83	1320,94
660,01	1259,50
660,20	1255,40
660,39	1200,11
660,58	1228,78
660,76	1224,69
660,95	1208,30
661,14	1259,50
661,33	1247,21
661,51	1251,31
661,70	1296,36
661,89	1273,84
662,08	1275,88
662,26	1296,36
662,45	1304,56
662,64	1261,55
662,83	1251,31
663,01	1163,25
663,20	1333,23
663,39	1300,46
663,58	1243,12
663,76	1253,36
663,95	1304,56
664,14	1224,69
664,32	1241,07
664,51	1193,97
664,70	1335,28
664,89	1273,84
665,07	1277,93
665,26	1222,64
665,45	1214,45
665,64	1253,36
665,82	1308,65
666,01	1288,17
666,20	1245,16
666,38	1284,08
666,57	1226,73
666,76	1273,84
666,95	1288,17
667,13	1267,69
667,32	1253,36
667,51	1232,88
667,69	1335,28
667,88	1249,26
668,07	1273,84
668,25	1277,93
668,44	1279,98
668,63	1247,21
668,81	1300,46
669,00	1265,64
669,19	1290,22
669,38	1288,17
669,56	1286,12
669,75	1322,99
669,94	1314,80
670,12	1247,21
670,31	1212,40
670,50	1263,60
670,68	1247,21
670,87	1220,59
671,06	1241,07
671,24	1239,02
671,43	1298,41
671,62	1273,84
671,80	1282,03
671,99	1198,06
672,18	1298,41
672,36	1316,84
672,55	1224,69
672,74	1312,75
672,92	1232,88
673,11	1316,84
673,29	1327,08
673,48	1216,49
673,67	1290,22
673,85	1292,27
674,04	1302,51
674,23	1275,88
674,41	1300,46
674,60	1282,03
674,79	1157,10
674,97	1202,16
675,16	1331,18
675,34	1273,84
675,53	1273,84
675,72	1284,08
675,90	1271,79
676,09	1171,44
676,28	1265,64
676,46	1239,02
676,65	1277,93
676,83	1234,93
677,02	1275,88
677,21	1224,69
677,39	1196,01
677,58	1263,60
677,77	1224,69
677,95	1284,08
678,14	1239,02
678,32	1329,13
678,51	1214,45
678,70	1294,32
678,88	1239,02
679,07	1265,64
679,25	1265,64
679,44	1286,12
679,63	1247,21
679,81	1171,44
680,00	1245,16
680,18	1322,99
680,37	1282,03
680,55	1222,64
680,74	1333,23
680,93	1279,98
681,11	1290,22
681,30	1247,21
681,48	1236,97
681,67	1247,21
681,85	1265,64
682,04	1239,02
682,23	1228,78
682,41	1296,36
682,60	1302,51
682,78	1216,49
682,97	1304,56
683,15	1327,08
683,34	1316,84
683,53	1300,46
683,71	1167,34
683,90	1325,04
684,08	1247,21
684,27	1288,17
684,45	1263,60
684,64	1286,12
684,82	1269,74
685,01	1282,03
685,19	1275,88
685,38	1288,17
685,57	1267,69
685,75	1310,70
685,94	1265,64
686,12	1327,08
686,31	1314,80
686,49	1269,74
686,68	1273,84
686,86	1282,03
687,05	1304,56
687,23	1210,35
687,42	1318,89
687,60	1316,84
687,79	1220,59
687,97	1257,45
688,16	1300,46
688,34	1308,65
688,53	1210,35
688,71	1259,50
688,90	1294,32
689,08	1243,12
689,27	1277,93
689,45	1271,79
689,64	1357,80
689,82	1273,84
690,01	1288,17
690,19	1230,83
690,38	1296,36
690,56	1259,50
690,75	1277,93
690,93	1202,16
691,12	1275,88
691,30	1357,80
691,49	1282,03
691,67	1271,79
691,86	1292,27
692,04	1349,61
692,23	1251,31
692,41	1218,54
692,60	1239,02
692,78	1187,82
692,97	1275,88
693,15	1265,64
693,34	1277,93
693,52	1290,22
693,71	1224,69
693,89	1261,55
694,08	1300,46
694,26	1236,97
694,44	1183,73
694,63	1247,21
694,81	1308,65
695,00	1267,69
695,18	1298,41
695,37	1265,64
695,55	1265,64
695,74	1298,41
695,92	1261,55
696,10	1251,31
696,29	1255,40
696,47	1216,49
696,66	1212,40
696,84	1286,12
697,03	1312,75
697,21	1251,31
697,40	1329,13
697,58	1234,93
697,76	1243,12
697,95	1257,45
698,13	1251,31
698,32	1273,84
698,50	1265,64
698,68	1284,08
698,87	1234,93
699,05	1222,64
699,24	1208,30
699,42	1245,16
699,61	1294,32
699,79	1298,41
699,97	1273,84
700,16	1259,50
700,34	1236,97
700,53	1210,35
700,71	1275,88
700,89	1206,25
701,08	1204,21
701,26	1314,80
701,45	1357,80
701,63	1298,41
701,81	1228,78
702,00	1224,69
702,18	1234,93
702,37	1263,60
702,55	1265,64
702,73	1249,26
702,92	1239,02
703,10	1286,12
703,28	1249,26
703,47	1239,02
703,65	1239,02
703,84	1286,12
704,02	1329,13
704,20	1245,16
704,39	1239,02
704,57	1275,88
704,75	1241,07
704,94	1271,79
705,12	1282,03
705,30	1216,49
705,49	1189,87
705,67	1261,55
705,86	1296,36
706,04	1347,56
706,22	1302,51
706,41	1206,25
706,59	1273,84
706,77	1275,88
706,96	1257,45
707,14	1271,79
707,32	1302,51
707,51	1241,07
707,69	1249,26
707,87	1253,36
708,06	1269,74
708,24	1239,02
708,42	1277,93
708,61	1312,75
708,79	1234,93
708,97	1210,35
709,16	1263,60
709,34	1265,64
709,52	1247,21
709,71	1294,32
709,89	1290,22
710,07	1169,39
710,26	1212,40
710,44	1337,32
710,62	1282,03
710,80	1214,45
710,99	1265,64
711,17	1286,12
711,35	1284,08
711,54	1259,50
711,72	1263,60
711,90	1286,12
712,09	1232,88
712,27	1253,36
712,45	1308,65
712,63	1320,94
712,82	1277,93
713,00	1247,21
713,18	1239,02
713,37	1257,45
713,55	1247,21
713,73	1191,92
713,91	1261,55
714,10	1286,12
714,28	1241,07
714,46	1347,56
714,65	1245,16
714,83	1267,69
715,01	1257,45
715,19	1249,26
715,38	1202,16
715,56	1200,11
715,74	1175,53
715,92	1275,88
716,11	1271,79
716,29	1243,12
716,47	1251,31
716,65	1275,88
716,84	1265,64
717,02	1312,75
717,20	1249,26
717,38	1230,83
717,57	1224,69
717,75	1298,41
717,93	1355,76
718,11	1251,31
718,30	1224,69
718,48	1279,98
718,66	1279,98
718,84	1341,42
719,03	1312,75
719,21	1316,84
719,39	1271,79
719,57	1200,11
719,75	1224,69
719,94	1255,40
720,12	1239,02
720,30	1282,03
720,48	1316,84
720,67	1306,60
720,85	1228,78
721,03	1247,21
721,21	1216,49
721,39	1304,56
721,58	1302,51
721,76	1241,07
721,94	1208,30
722,12	1298,41
722,30	1267,69
722,49	1193,97
722,67	1279,98
722,85	1273,84
723,03	1327,08
723,21	1247,21
723,40	1275,88
723,58	1255,40
723,76	1316,84
723,94	1302,51
724,12	1200,11
724,30	1267,69
724,49	1255,40
724,67	1290,22
724,85	1265,64
725,03	1236,97
725,21	1318,89
725,40	1232,88
725,58	1228,78
725,76	1298,41
725,94	1316,84
726,12	1312,75
726,30	1318,89
726,49	1212,40
726,67	1218,54
726,85	1236,97
727,03	1261,55
727,21	1218,54
727,39	1290,22
727,57	1314,80
727,76	1347,56
727,94	1255,40
728,12	1284,08
728,30	1263,60
728,48	1228,78
728,66	1261,55
728,84	1267,69
729,03	1275,88
729,21	1269,74
729,39	1241,07
729,57	1175,53
729,75	1316,84
729,93	1304,56
730,11	1247,21
730,30	1275,88
730,48	1193,97
730,66	1290,22
730,84	1310,70
731,02	1251,31
731,20	1320,94
731,38	1177,58
731,56	1255,40
731,74	1196,01
731,93	1251,31
732,11	1257,45
732,29	1296,36
732,47	1239,02
732,65	1232,88
732,83	1265,64
733,01	1263,60
733,19	1325,04
733,37	1306,60
733,56	1255,40
733,74	1232,88
733,92	1228,78
734,10	1269,74
734,28	1290,22
734,46	1298,41
734,64	1312,75
734,82	1224,69
735,00	1273,84
735,18	1277,93
735,36	1265,64
735,54	1327,08
735,73	1232,88
735,91	1337,32
736,09	1245,16
736,27	1212,40
736,45	1273,84
736,63	1259,50
736,81	1271,79
736,99	1204,21
737,17	1259,50
737,35	1290,22
737,53	1302,51
737,71	1243,12
737,89	1191,92
738,07	1263,60
738,25	1234,93
738,43	1263,60
738,61	1232,88
738,80	1267,69
738,98	1341,42
739,16	1318,89
739,34	1322,99
739,52	1304,56
739,70	1257,45
739,88	1206,25
740,06	1257,45
740,24	1245,16
740,42	1300,46
740,60	1249,26
740,78	1241,07
740,96	1218,54
741,14	1335,28
741,32	1222,64
741,50	1198,06
741,68	1282,03
741,86	1310,70
742,04	1284,08
742,22	1271,79
742,40	1241,07
742,58	1275,88
742,76	1263,60
742,94	1196,01
743,12	1232,88
743,30	1234,93
743,48	1288,17
743,66	1261,55
743,84	1302,51
744,02	1316,84
744,20	1232,88
744,38	1273,84
744,56	1193,97
744,74	1290,22
744,92	1296,36
745,10	1259,50
745,28	1206,25
745,46	1255,40
745,64	1271,79
745,82	1218,54
746,00	1179,63
746,18	1198,06
746,36	1247,21
746,54	1296,36
746,72	1290,22
746,90	1243,12
747,08	1335,28
747,26	1239,02
747,44	1275,88
747,62	1257,45
747,80	1290,22
747,98	1236,97
748,15	1337,32
748,33	1196,01
748,51	1249,26
748,69	1210,35
748,87	1181,68
749,05	1310,70
749,23	1150,96
749,41	1167,34
749,59	1292,27
749,77	1267,69
749,95	1265,64
750,13	1212,40
750,31	1277,93
750,49	1261,55
750,67	1239,02
750,85	1220,59
751,03	1298,41
751,20	1308,65
751,38	1232,88
751,56	1290,22
751,74	1282,03
751,92	1318,89
752,10	1261,55
752,28	1351,66
752,46	1249,26
752,64	1214,45
752,82	1259,50
753,00	1267,69
753,18	1292,27
753,35	1265,64
753,53	1277,93
753,71	1232,88
753,89	1253,36
754,07	1302,51
754,25	1277,93
754,43	1277,93
754,61	1204,21
754,79	1216,49
754,97	1255,40
755,14	1261,55
755,32	1265,64
755,50	1259,50
755,68	1275,88
755,86	1232,88
756,04	1255,40
756,22	1216,49
756,40	1230,83
756,57	1259,50
756,75	1236,97
756,93	1300,46
757,11	1232,88
757,29	1243,12
757,47	1269,74
757,65	1271,79
757,82	1339,37
758,00	1241,07
758,18	1282,03
758,36	1222,64
758,54	1269,74
758,72	1286,12
758,90	1232,88
759,07	1312,75
759,25	1279,98
759,43	1314,80
759,61	1234,93
759,79	1302,51
759,97	1341,42
760,15	1224,69
760,32	1298,41
760,50	1255,40
760,68	1343,47
760,86	1284,08
761,04	1234,93
761,22	1325,04
761,39	1251,31
761,57	1239,02
761,75	1257,45
761,93	1298,41
762,11	1265,64
762,28	1257,45
762,46	1243,12
762,64	1251,31
762,82	1267,69
763,00	1181,68
763,18	1290,22
763,35	1349,61
763,53	1310,70
763,71	1269,74
763,89	1277,93
764,07	1222,64
764,24	1228,78
764,42	1261,55
764,60	1234,93
764,78	1333,23
764,96	1269,74
765,13	1290,22
765,31	1226,73
765,49	1251,31
765,67	1310,70
765,84	1331,18
766,02	1314,80
766,20	1286,12
766,38	1304,56
766,56	1363,95
766,73	1257,45
766,91	1243,12
767,09	1191,92
767,27	1257,45
767,44	1239,02
767,62	1267,69
767,80	1243,12
767,98	1294,32
768,15	1253,36
768,33	1335,28
768,51	1273,84
768,69	1279,98
768,87	1312,75
769,04	1273,84
769,22	1298,41
769,40	1261,55
769,58	1294,32
769,75	1236,97
769,93	1210,35
770,11	1320,94
770,28	1300,46
770,46	1247,21
770,64	1198,06
770,82	1253,36
770,99	1257,45
771,17	1255,40
771,35	1277,93
771,53	1243,12
771,70	1230,83
771,88	1279,98
772,06	1249,26
772,23	1284,08
772,41	1259,50
772,59	1331,18
772,77	1341,42
772,94	1245,16
773,12	1273,84
773,30	1308,65
773,47	1273,84
773,65	1232,88
773,83	1273,84
774,01	1263,60
774,18	1308,65
774,36	1236,97
774,54	1263,60
774,71	1322,99
774,89	1251,31
775,07	1239,02
775,24	1292,27
775,42	1265,64
775,60	1243,12
775,78	1273,84
775,95	1333,23
776,13	1245,16
776,31	1232,88
776,48	1259,50
776,66	1282,03
776,84	1284,08
777,01	1202,16
777,19	1228,78
777,37	1282,03
777,54	1300,46
777,72	1253,36
777,90	1257,45
778,07	1263,60
778,25	1247,21
778,43	1282,03
778,60	1308,65
778,78	1320,94
778,96	1253,36
779,13	1251,31
779,31	1200,11
779,49	1251,31
779,66	1243,12
779,84	1251,31
780,01	1245,16
780,19	1214,45
780,37	1286,12
780,54	1300,46
780,72	1267,69
780,90	1247,21
781,07	1247,21
781,25	1193,97
781,43	1294,32
781,60	1282,03
781,78	1226,73
781,95	1306,60
782,13	1292,27
782,31	1290,22
782,48	1247,21
782,66	1271,79
782,83	1279,98
783,01	1193,97
783,19	1245,16
783,36	1245,16
783,54	1294,32
783,72	1228,78
783,89	1222,64
784,07	1206,25
784,24	1288,17
784,42	1290,22
784,60	1294,32
784,77	1316,84
784,95	1214,45
785,12	1257,45
785,30	1288,17
785,47	1288,17
785,65	1271,79
785,83	1290,22
786,00	1249,26
786,18	1282,03
786,35	1282,03
786,53	1251,31
786,71	1304,56
786,88	1249,26
787,06	1261,55
787,23	1261,55
787,41	1314,80
787,58	1296,36
787,76	1220,59
787,94	1279,98
788,11	1247,21
788,29	1265,64
788,46	1187,82
788,64	1226,73
788,81	1298,41
788,99	1298,41
789,16	1236,97
789,34	1288,17
789,52	1257,45
789,69	1208,30
789,87	1288,17
790,04	1306,60
790,22	1243,12
790,39	1196,01
790,57	1212,40
790,74	1230,83
790,92	1282,03
791,09	1290,22
791,27	1224,69
791,44	1345,52
791,62	1316,84
791,79	1255,40
791,97	1228,78
792,15	1355,76
792,32	1228,78
792,50	1181,68
792,67	1171,44
792,85	1290,22
793,02	1273,84
793,20	1255,40
793,37	1279,98
793,55	1210,35
793,72	1265,64
793,90	1255,40
794,07	1241,07
794,25	1273,84
794,42	1300,46
794,60	1282,03
794,77	1253,36
794,95	1249,26
795,12	1183,73
795,30	1290,22
795,47	1196,01
795,65	1327,08
795,82	1271,79
796,00	1255,40
796,17	1304,56
796,34	1302,51
796,52	1249,26
796,69	1245,16
796,87	1226,73
797,04	1247,21
797,22	1216,49
797,39	1239,02
797,57	1308,65
797,74	1277,93
797,92	1224,69
798,09	1292,27
798,27	1261,55
798,44	1257,45
798,62	1351,66
798,79	1282,03
798,96	1355,76
799,14	1318,89
799,31	1257,45
799,49	1236,97
799,66	1232,88
799,84	1298,41
800,01	1224,69
800,19	1271,79
800,36	1234,93
800,53	1261,55
800,71	1257,45
800,88	1286,12
801,06	1241,07
801,23	1277,93
801,41	1265,64
801,58	1247,21
801,75	1296,36
801,93	1255,40
802,10	1198,06
802,28	1359,85
802,45	1325,04
802,63	1279,98
802,80	1249,26
802,97	1239,02
803,15	1228,78
803,32	1306,60
803,50	1288,17
803,67	1247,21
803,84	1279,98
804,02	1277,93
804,19	1273,84
804,37	1304,56
804,54	1296,36
804,71	1253,36
804,89	1239,02
805,06	1249,26
805,24	1273,84
805,41	1265,64
805,58	1206,25
805,76	1275,88
805,93	1216,49
806,10	1265,64
806,28	1271,79
806,45	1263,60
806,63	1331,18
806,80	1277,93
806,97	1257,45
807,15	1288,17
807,32	1277,93
807,49	1210,35
807,67	1245,16
807,84	1249,26
808,01	1208,30
808,19	1284,08
808,36	1318,89
808,54	1279,98
808,71	1236,97
808,88	1191,92
809,06	1288,17
809,23	1206,25
809,40	1290,22
809,58	1261,55
809,75	1284,08
809,92	1241,07
810,10	1275,88
810,27	1247,21
810,44	1218,54
810,62	1312,75
810,79	1302,51
810,96	1247,21
811,14	1292,27
811,31	1253,36
811,48	1245,16
811,66	1247,21
811,83	1261,55
812,00	1263,60
812,18	1204,21
812,35	1298,41
812,52	1236,97
812,69	1353,71
812,87	1261,55
813,04	1271,79
813,21	1288,17
813,39	1269,74
813,56	1259,50
813,73	1310,70
813,91	1298,41
814,08	1241,07
814,25	1286,12
814,42	1243,12
814,60	1265,64
814,77	1234,93
814,94	1284,08
815,12	1257,45
815,29	1224,69
815,46	1245,16
815,63	1284,08
815,81	1263,60
815,98	1292,27
816,15	1247,21
816,33	1275,88
816,50	1236,97
816,67	1245,16
816,84	1263,60
817,02	1230,83
817,19	1312,75
817,36	1214,45
817,53	1228,78
817,71	1253,36
817,88	1298,41
818,05	1308,65
818,22	1277,93
818,40	1271,79
818,57	1298,41
818,74	1279,98
818,91	1249,26
819,09	1269,74
819,26	1251,31
819,43	1214,45
819,60	1216,49
819,78	1329,13
819,95	1329,13
820,12	1325,04
820,29	1298,41
820,47	1284,08
820,64	1241,07
820,81	1204,21
820,98	1251,31
821,15	1320,94
821,33	1269,74
821,50	1310,70
821,67	1292,27
821,84	1267,69
822,02	1249,26
822,19	1257,45
822,36	1247,21
822,53	1318,89
822,70	1284,08
822,88	1269,74
823,05	1239,02
823,22	1241,07
823,39	1277,93
823,56	1259,50
823,74	1292,27
823,91	1259,50
824,08	1300,46
824,25	1314,80
824,42	1220,59
824,60	1208,30
824,77	1351,66
824,94	1267,69
825,11	1298,41
825,28	1314,80
825,45	1284,08
825,63	1277,93
825,80	1193,97
825,97	1259,50
826,14	1314,80
826,31	1245,16
826,48	1234,93
826,66	1277,93
826,83	1265,64
827,00	1251,31
827,17	1273,84
827,34	1243,12
827,51	1372,14
827,69	1265,64
827,86	1263,60
828,03	1269,74
828,20	1236,97
828,37	1241,07
828,54	1239,02
828,71	1318,89
828,89	1312,75
829,06	1257,45
829,23	1249,26
829,40	1318,89
829,57	1314,80
829,74	1298,41
829,91	1224,69
830,09	1279,98
830,26	1306,60
830,43	1288,17
830,60	1331,18
830,77	1298,41
830,94	1259,50
831,11	1261,55
831,28	1216,49
831,46	1265,64
831,63	1302,51
831,80	1302,51
831,97	1239,02
832,14	1259,50
832,31	1290,22
832,48	1257,45
832,65	1210,35
832,82	1296,36
832,99	1325,04
833,17	1210,35
833,34	1259,50
833,51	1257,45
833,68	1269,74
833,85	1318,89
834,02	1282,03
834,19	1241,07
834,36	1279,98
834,53	1261,55
834,70	1269,74
834,87	1261,55
835,04	1263,60
835,22	1210,35
835,39	1294,32
835,56	1267,69
835,73	1257,45
835,90	1290,22
836,07	1320,94
836,24	1214,45
836,41	1298,41
836,58	1267,69
836,75	1298,41
836,92	1288,17
837,09	1267,69
837,26	1261,55
837,43	1196,01
837,60	1241,07
837,77	1269,74
837,94	1273,84
838,12	1222,64
838,29	1243,12
838,46	1273,84
838,63	1232,88
838,80	1294,32
838,97	1239,02
839,14	1284,08
839,31	1304,56
839,48	1220,59
839,65	1273,84
839,82	1249,26
839,99	1245,16
840,16	1247,21
840,33	1322,99
840,50	1243,12
840,67	1253,36
840,84	1249,26
841,01	1234,93
841,18	1232,88
841,35	1224,69
841,52	1310,70
841,69	1239,02
841,86	1279,98
842,03	1292,27
842,20	1251,31
842,37	1222,64
842,54	1273,84
842,71	1316,84
842,88	1255,40
843,05	1245,16
843,22	1343,47
843,39	1284,08
843,56	1286,12
843,73	1296,36
843,90	1263,60
844,07	1273,84
844,24	1243,12
844,41	1300,46
844,58	1335,28
844,75	1275,88
844,92	1271,79
845,09	1245,16
845,26	1222,64
845,43	1265,64
845,60	1265,64
845,77	1234,93
845,94	1243,12
846,10	1241,07
846,27	1241,07
846,44	1296,36
846,61	1359,85
846,78	1253,36
846,95	1318,89
847,12	1269,74
847,29	1196,01
847,46	1265,64
847,63	1288,17
847,80	1220,59
847,97	1306,60
848,14	1259,50
848,31	1294,32
848,48	1325,04
848,65	1247,21
848,82	1267,69
848,98	1322,99
849,15	1265,64
849,32	1359,85
849,49	1212,40
849,66	1263,60
849,83	1298,41
850,00	1271,79
850,17	1282,03
850,34	1271,79
850,51	1322,99
850,68	1337,32
850,85	1304,56
851,01	1279,98
851,18	1253,36
851,35	1204,21
851,52	1279,98
851,69	1310,70
851,86	1306,60
852,03	1259,50
852,20	1208,30
852,37	1257,45
852,53	1234,93
852,70	1282,03
852,87	1290,22
853,04	1296,36
853,21	1265,64
853,38	1339,37
853,55	1331,18
853,72	1255,40
853,89	1220,59
854,05	1263,60
854,22	1257,45
854,39	1306,60
854,56	1282,03
854,73	1251,31
854,90	1255,40
855,07	1259,50
855,23	1263,60
855,40	1300,46
855,57	1155,05
855,74	1380,33
855,91	1306,60
856,08	1255,40
856,25	1245,16
856,41	1249,26
856,58	1245,16
856,75	1228,78
856,92	1257,45
857,09	1329,13
857,26	1218,54
857,42	1302,51
857,59	1214,45
857,76	1214,45
857,93	1343,47
858,10	1263,60
858,27	1208,30
858,43	1286,12
858,60	1298,41
858,77	1322,99
858,94	1236,97
859,11	1320,94
859,27	1320,94
859,44	1273,84
859,61	1296,36
859,78	1331,18
859,95	1265,64
860,12	1351,66
860,28	1241,07
860,45	1314,80
860,62	1302,51
860,79	1259,50
860,95	1304,56
861,12	1312,75
861,29	1249,26
861,46	1320,94
861,63	1279,98
861,79	1263,60
861,96	1257,45
862,13	1282,03
862,30	1298,41
862,47	1257,45
862,63	1263,60
862,80	1265,64
862,97	1175,53
863,14	1271,79
863,30	1245,16
863,47	1302,51
863,64	1214,45
863,81	1241,07
863,97	1243,12
864,14	1282,03
864,31	1261,55
864,48	1267,69
864,65	1273,84
864,81	1277,93
864,98	1198,06
865,15	1304,56
865,32	1271,79
865,48	1277,93
865,65	1294,32
865,82	1273,84
865,98	1288,17
866,15	1286,12
866,32	1236,97
866,49	1292,27
866,65	1294,32
866,82	1320,94
866,99	1306,60
867,16	1271,79
867,32	1206,25
867,49	1265,64
867,66	1245,16
867,83	1282,03
867,99	1279,98
868,16	1241,07
868,33	1325,04
868,49	1236,97
868,66	1214,45
868,83	1236,97
868,99	1331,18
869,16	1292,27
869,33	1249,26
869,50	1257,45
869,66	1290,22
869,83	1271,79
870,00	1314,80
870,16	1230,83
870,33	1320,94
870,50	1247,21
870,66	1306,60
870,83	1261,55
871,00	1271,79
871,17	1257,45
871,33	1234,93
871,50	1302,51
871,67	1247,21
871,83	1294,32
872,00	1290,22
872,17	1249,26
872,33	1241,07
872,50	1224,69
872,67	1314,80
872,83	1286,12
873,00	1277,93
873,17	1318,89
873,33	1275,88
873,50	1269,74
873,67	1296,36
873,83	1294,32
874,00	1245,16
874,16	1308,65
874,33	1306,60
874,50	1306,60
874,66	1271,79
874,83	1208,30
875,00	1212,40
875,16	1288,17
875,33	1210,35
875,50	1312,75
875,66	1345,52
875,83	1257,45
875,99	1247,21
876,16	1277,93
876,33	1306,60
876,49	1298,41
876,66	1191,92
876,83	1320,94
876,99	1302,51
877,16	1265,64
877,32	1230,83
877,49	1286,12
877,66	1228,78
877,82	1257,45
877,99	1288,17
878,15	1347,56
878,32	1312,75
878,49	1239,02
878,65	1228,78
878,82	1290,22
878,98	1249,26
879,15	1214,45
879,32	1224,69
879,48	1304,56
879,65	1196,01
879,81	1230,83
879,98	1273,84
880,15	1273,84
880,31	1267,69
880,48	1241,07
880,64	1257,45
880,81	1245,16
880,97	1257,45
881,14	1322,99
881,31	1271,79
881,47	1267,69
881,64	1267,69
881,80	1316,84
881,97	1255,40
882,13	1286,12
882,30	1257,45
882,47	1300,46
882,63	1259,50
882,80	1269,74
882,96	1300,46
883,13	1314,80
883,29	1222,64
883,46	1288,17
883,62	1234,93
883,79	1296,36
883,95	1218,54
884,12	1331,18
884,29	1253,36
884,45	1296,36
884,62	1269,74
884,78	1167,34
884,95	1306,60
885,11	1300,46
885,28	1234,93
885,44	1187,82
885,61	1275,88
885,77	1325,04
885,94	1224,69
886,10	1282,03
886,27	1243,12
886,43	1251,31
886,60	1232,88
886,76	1271,79
886,93	1304,56
887,09	1193,97
887,26	1245,16
887,42	1198,06
887,59	1329,13
887,75	1212,40
887,92	1286,12
888,08	1329,13
888,25	1208,30
888,41	1175,53
888,58	1322,99
888,74	1265,64
888,91	1253,36
>>>>>End Processed Spectral Data<<<<<
