SpectraSuite Data File
++++++++++++++++++++++++++++++++++++
Date: Sun Apr 03 19:23:04 CEST 2016
User: root
Dark Spectrum Present: No
Reference Spectrum Present: No
Number of Sampled Component Spectra: 1
Spectrometers: USB4C02835
Integration Time (usec): 10000 (USB4C02835)
Spectra Averaged: 1 (USB4C02835)
Boxcar Smoothing: 0 (USB4C02835)
Correct for Electrical Dark: No (USB4C02835)
Strobe/Lamp Enabled: No (USB4C02835)
Correct for Detector Non-linearity: No (USB4C02835)
Correct for Stray Light: No (USB4C02835)
Number of Pixels in Processed Spectrum: 3648
>>>>>Begin Processed Spectral Data<<<<<
177,47	1210,35
177,69	1210,35
177,91	1210,35
178,13	1267,69
178,36	1265,64
178,58	1267,69
178,80	1228,78
179,02	1173,49
179,24	1284,08
179,46	1253,36
179,68	1241,07
179,90	1204,21
180,13	1271,79
180,35	1220,59
180,57	1247,21
180,79	1310,70
181,01	1198,06
181,23	1316,84
181,45	1275,88
181,67	1282,03
181,90	1255,40
182,12	1212,40
182,34	1292,27
182,56	1251,31
182,78	1181,68
183,00	1249,26
183,22	1329,13
183,44	1228,78
183,66	1288,17
183,89	1259,50
184,11	1290,22
184,33	1277,93
184,55	1198,06
184,77	1349,61
184,99	1263,60
185,21	1339,37
185,43	1230,83
185,65	1208,30
185,87	1259,50
186,10	1218,54
186,32	1218,54
186,54	1286,12
186,76	1259,50
186,98	1206,25
187,20	1288,17
187,42	1230,83
187,64	1257,45
187,86	1212,40
188,08	1312,75
188,30	1275,88
188,52	1300,46
188,75	1271,79
188,97	1322,99
189,19	1353,71
189,41	1259,50
189,63	1310,70
189,85	1357,80
190,07	1210,35
190,29	1302,51
190,51	1294,32
190,73	1257,45
190,95	1263,60
191,17	1230,83
191,39	1259,50
191,61	1241,07
191,84	1296,36
192,06	1253,36
192,28	1267,69
192,50	1259,50
192,72	1222,64
192,94	1304,56
193,16	1239,02
193,38	1277,93
193,60	1273,84
193,82	1279,98
194,04	1292,27
194,26	1204,21
194,48	1206,25
194,70	1306,60
194,92	1308,65
195,14	1224,69
195,36	1263,60
195,58	1267,69
195,80	1275,88
196,02	1308,65
196,24	1228,78
196,46	1271,79
196,69	1320,94
196,91	1228,78
197,13	1196,01
197,35	1263,60
197,57	1284,08
197,79	1259,50
198,01	1191,92
198,23	1312,75
198,45	1261,55
198,67	1247,21
198,89	1216,49
199,11	1271,79
199,33	1187,82
199,55	1191,92
199,77	1243,12
199,99	1224,69
200,21	1251,31
200,43	1241,07
200,65	1273,84
200,87	1263,60
201,09	1234,93
201,31	1251,31
201,53	1253,36
201,75	1218,54
201,97	1218,54
202,19	1267,69
202,41	1253,36
202,63	1189,87
202,85	1263,60
203,07	1265,64
203,29	1241,07
203,51	1273,84
203,73	1265,64
203,95	1292,27
204,17	1239,02
204,39	1155,05
204,61	1261,55
204,83	1329,13
205,05	1298,41
205,27	1304,56
205,49	1245,16
205,71	1232,88
205,93	1241,07
206,15	1247,21
206,37	1257,45
206,59	1267,69
206,81	1302,51
207,03	1325,04
207,25	1273,84
207,47	1255,40
207,69	1265,64
207,91	1212,40
208,13	1222,64
208,34	1232,88
208,56	1290,22
208,78	1273,84
209,00	1241,07
209,22	1263,60
209,44	1275,88
209,66	1271,79
209,88	1298,41
210,10	1282,03
210,32	1286,12
210,54	1277,93
210,76	1294,32
210,98	1265,64
211,20	1212,40
211,42	1208,30
211,64	1247,21
211,86	1286,12
212,08	1259,50
212,30	1228,78
212,52	1300,46
212,74	1228,78
212,96	1232,88
213,17	1298,41
213,39	1255,40
213,61	1232,88
213,83	1286,12
214,05	1288,17
214,27	1286,12
214,49	1206,25
214,71	1286,12
214,93	1304,56
215,15	1226,73
215,37	1320,94
215,59	1314,80
215,81	1247,21
216,03	1310,70
216,24	1298,41
216,46	1247,21
216,68	1230,83
216,90	1288,17
217,12	1288,17
217,34	1232,88
217,56	1247,21
217,78	1298,41
218,00	1337,32
218,22	1357,80
218,44	1171,44
218,66	1247,21
218,87	1265,64
219,09	1236,97
219,31	1269,74
219,53	1279,98
219,75	1261,55
219,97	1253,36
220,19	1263,60
220,41	1189,87
220,63	1271,79
220,85	1247,21
221,06	1216,49
221,28	1322,99
221,50	1271,79
221,72	1220,59
221,94	1267,69
222,16	1290,22
222,38	1282,03
222,60	1290,22
222,82	1224,69
223,03	1263,60
223,25	1263,60
223,47	1259,50
223,69	1282,03
223,91	1286,12
224,13	1226,73
224,35	1183,73
224,57	1288,17
224,78	1224,69
225,00	1208,30
225,22	1234,93
225,44	1165,29
225,66	1279,98
225,88	1267,69
226,10	1263,60
226,32	1181,68
226,53	1239,02
226,75	1251,31
226,97	1263,60
227,19	1224,69
227,41	1263,60
227,63	1312,75
227,85	1239,02
228,06	1357,80
228,28	1343,47
228,50	1325,04
228,72	1320,94
228,94	1331,18
229,16	1327,08
229,37	1245,16
229,59	1265,64
229,81	1261,55
230,03	1206,25
230,25	1269,74
230,47	1273,84
230,69	1218,54
230,90	1306,60
231,12	1234,93
231,34	1279,98
231,56	1230,83
231,78	1175,53
232,00	1216,49
232,21	1249,26
232,43	1249,26
232,65	1302,51
232,87	1259,50
233,09	1239,02
233,30	1279,98
233,52	1228,78
233,74	1284,08
233,96	1245,16
234,18	1302,51
234,40	1263,60
234,61	1253,36
234,83	1177,58
235,05	1269,74
235,27	1249,26
235,49	1261,55
235,70	1251,31
235,92	1277,93
236,14	1236,97
236,36	1275,88
236,58	1212,40
236,79	1253,36
237,01	1243,12
237,23	1294,32
237,45	1226,73
237,67	1255,40
237,88	1249,26
238,10	1290,22
238,32	1304,56
238,54	1251,31
238,76	1267,69
238,97	1282,03
239,19	1292,27
239,41	1271,79
239,63	1232,88
239,85	1290,22
240,06	1298,41
240,28	1294,32
240,50	1284,08
240,72	1345,52
240,93	1177,58
241,15	1314,80
241,37	1251,31
241,59	1243,12
241,81	1286,12
242,02	1290,22
242,24	1269,74
242,46	1255,40
242,68	1308,65
242,89	1353,71
243,11	1282,03
243,33	1261,55
243,55	1253,36
243,76	1214,45
243,98	1265,64
244,20	1296,36
244,42	1302,51
244,64	1284,08
244,85	1185,77
245,07	1273,84
245,29	1290,22
245,51	1290,22
245,72	1265,64
245,94	1341,42
246,16	1234,93
246,38	1333,23
246,59	1339,37
246,81	1279,98
247,03	1234,93
247,24	1267,69
247,46	1261,55
247,68	1269,74
247,90	1247,21
248,11	1257,45
248,33	1306,60
248,55	1308,65
248,77	1232,88
248,98	1265,64
249,20	1257,45
249,42	1322,99
249,64	1273,84
249,85	1245,16
250,07	1273,84
250,29	1249,26
250,50	1224,69
250,72	1214,45
250,94	1294,32
251,16	1271,79
251,37	1288,17
251,59	1282,03
251,81	1296,36
252,02	1314,80
252,24	1230,83
252,46	1271,79
252,68	1200,11
252,89	1216,49
253,11	1361,90
253,33	1337,32
253,54	1208,30
253,76	1228,78
253,98	1204,21
254,20	1236,97
254,41	1228,78
254,63	1337,32
254,85	1290,22
255,06	1198,06
255,28	1255,40
255,50	1216,49
255,71	1306,60
255,93	1277,93
256,15	1253,36
256,36	1349,61
256,58	1279,98
256,80	1228,78
257,02	1279,98
257,23	1275,88
257,45	1318,89
257,67	1224,69
257,88	1269,74
258,10	1282,03
258,32	1243,12
258,53	1302,51
258,75	1267,69
258,97	1265,64
259,18	1269,74
259,40	1216,49
259,62	1314,80
259,83	1249,26
260,05	1208,30
260,27	1325,04
260,48	1204,21
260,70	1210,35
260,92	1300,46
261,13	1279,98
261,35	1263,60
261,57	1214,45
261,78	1216,49
262,00	1275,88
262,22	1304,56
262,43	1298,41
262,65	1232,88
262,86	1249,26
263,08	1241,07
263,30	1320,94
263,51	1304,56
263,73	1241,07
263,95	1261,55
264,16	1300,46
264,38	1261,55
264,60	1228,78
264,81	1308,65
265,03	1259,50
265,25	1341,42
265,46	1187,82
265,68	1292,27
265,89	1288,17
266,11	1339,37
266,33	1241,07
266,54	1312,75
266,76	1179,63
266,98	1245,16
267,19	1322,99
267,41	1357,80
267,62	1288,17
267,84	1273,84
268,06	1243,12
268,27	1347,56
268,49	1320,94
268,70	1279,98
268,92	1261,55
269,14	1273,84
269,35	1306,60
269,57	1339,37
269,79	1255,40
270,00	1312,75
270,22	1226,73
270,43	1222,64
270,65	1202,16
270,87	1275,88
271,08	1325,04
271,30	1288,17
271,51	1294,32
271,73	1275,88
271,95	1302,51
272,16	1259,50
272,38	1286,12
272,59	1376,24
272,81	1310,70
273,02	1292,27
273,24	1320,94
273,46	1306,60
273,67	1181,68
273,89	1224,69
274,10	1329,13
274,32	1290,22
274,54	1239,02
274,75	1314,80
274,97	1212,40
275,18	1257,45
275,40	1249,26
275,61	1267,69
275,83	1222,64
276,05	1284,08
276,26	1327,08
276,48	1284,08
276,69	1247,21
276,91	1267,69
277,12	1269,74
277,34	1290,22
277,55	1267,69
277,77	1261,55
277,99	1282,03
278,20	1298,41
278,42	1292,27
278,63	1167,34
278,85	1208,30
279,06	1245,16
279,28	1277,93
279,49	1329,13
279,71	1273,84
279,93	1339,37
280,14	1296,36
280,36	1296,36
280,57	1273,84
280,79	1273,84
281,00	1337,32
281,22	1261,55
281,43	1298,41
281,65	1265,64
281,86	1306,60
282,08	1216,49
282,29	1275,88
282,51	1263,60
282,73	1314,80
282,94	1263,60
283,16	1236,97
283,37	1198,06
283,59	1230,83
283,80	1218,54
284,02	1277,93
284,23	1267,69
284,45	1222,64
284,66	1265,64
284,88	1300,46
285,09	1239,02
285,31	1288,17
285,52	1234,93
285,74	1300,46
285,95	1175,53
286,17	1345,52
286,38	1282,03
286,60	1261,55
286,81	1263,60
287,03	1245,16
287,24	1218,54
287,46	1228,78
287,67	1314,80
287,89	1284,08
288,10	1284,08
288,32	1273,84
288,53	1175,53
288,75	1288,17
288,96	1282,03
289,18	1226,73
289,39	1232,88
289,61	1245,16
289,82	1294,32
290,04	1282,03
290,25	1187,82
290,47	1282,03
290,68	1312,75
290,90	1310,70
291,11	1271,79
291,33	1304,56
291,54	1204,21
291,76	1218,54
291,97	1255,40
292,18	1310,70
292,40	1341,42
292,61	1275,88
292,83	1282,03
293,04	1286,12
293,26	1300,46
293,47	1325,04
293,69	1316,84
293,90	1282,03
294,12	1279,98
294,33	1257,45
294,55	1296,36
294,76	1306,60
294,97	1271,79
295,19	1312,75
295,40	1322,99
295,62	1234,93
295,83	1294,32
296,05	1216,49
296,26	1269,74
296,48	1226,73
296,69	1327,08
296,90	1339,37
297,12	1279,98
297,33	1263,60
297,55	1239,02
297,76	1269,74
297,98	1263,60
298,19	1298,41
298,41	1306,60
298,62	1261,55
298,83	1310,70
299,05	1232,88
299,26	1214,45
299,48	1304,56
299,69	1247,21
299,90	1271,79
300,12	1261,55
300,33	1249,26
300,55	1318,89
300,76	1288,17
300,98	1232,88
301,19	1349,61
301,40	1239,02
301,62	1296,36
301,83	1249,26
302,05	1302,51
302,26	1214,45
302,47	1222,64
302,69	1177,58
302,90	1337,32
303,12	1265,64
303,33	1239,02
303,54	1292,27
303,76	1267,69
303,97	1320,94
304,19	1228,78
304,40	1296,36
304,61	1269,74
304,83	1335,28
305,04	1263,60
305,26	1282,03
305,47	1189,87
305,68	1288,17
305,90	1277,93
306,11	1300,46
306,33	1302,51
306,54	1220,59
306,75	1191,92
306,97	1263,60
307,18	1257,45
307,39	1275,88
307,61	1284,08
307,82	1267,69
308,04	1196,01
308,25	1232,88
308,46	1232,88
308,68	1296,36
308,89	1232,88
309,10	1271,79
309,32	1232,88
309,53	1322,99
309,74	1284,08
309,96	1296,36
310,17	1329,13
310,39	1286,12
310,60	1290,22
310,81	1314,80
311,03	1236,97
311,24	1214,45
311,45	1296,36
311,67	1232,88
311,88	1294,32
312,09	1251,31
312,31	1204,21
312,52	1282,03
312,73	1239,02
312,95	1296,36
313,16	1224,69
313,37	1249,26
313,59	1263,60
313,80	1224,69
314,01	1279,98
314,23	1236,97
314,44	1290,22
314,65	1296,36
314,87	1241,07
315,08	1249,26
315,29	1298,41
315,51	1236,97
315,72	1259,50
315,93	1232,88
316,15	1241,07
316,36	1290,22
316,57	1247,21
316,79	1271,79
317,00	1257,45
317,21	1308,65
317,43	1322,99
317,64	1296,36
317,85	1255,40
318,07	1251,31
318,28	1312,75
318,49	1208,30
318,70	1253,36
318,92	1245,16
319,13	1269,74
319,34	1224,69
319,56	1273,84
319,77	1296,36
319,98	1286,12
320,20	1204,21
320,41	1298,41
320,62	1261,55
320,83	1267,69
321,05	1310,70
321,26	1241,07
321,47	1204,21
321,69	1198,06
321,90	1255,40
322,11	1335,28
322,32	1320,94
322,54	1290,22
322,75	1310,70
322,96	1335,28
323,18	1255,40
323,39	1212,40
323,60	1265,64
323,81	1210,35
324,03	1314,80
324,24	1198,06
324,45	1241,07
324,66	1239,02
324,88	1345,52
325,09	1251,31
325,30	1294,32
325,52	1275,88
325,73	1329,13
325,94	1218,54
326,15	1204,21
326,37	1247,21
326,58	1228,78
326,79	1310,70
327,00	1290,22
327,22	1196,01
327,43	1251,31
327,64	1312,75
327,85	1249,26
328,07	1271,79
328,28	1286,12
328,49	1249,26
328,70	1222,64
328,92	1179,63
329,13	1150,96
329,34	1214,45
329,55	1265,64
329,76	1255,40
329,98	1251,31
330,19	1253,36
330,40	1288,17
330,61	1275,88
330,83	1259,50
331,04	1292,27
331,25	1294,32
331,46	1261,55
331,68	1253,36
331,89	1314,80
332,10	1181,68
332,31	1277,93
332,52	1247,21
332,74	1298,41
332,95	1265,64
333,16	1261,55
333,37	1243,12
333,58	1282,03
333,80	1259,50
334,01	1202,16
334,22	1236,97
334,43	1198,06
334,64	1253,36
334,86	1214,45
335,07	1255,40
335,28	1216,49
335,49	1339,37
335,70	1335,28
335,92	1290,22
336,13	1288,17
336,34	1318,89
336,55	1216,49
336,76	1265,64
336,98	1263,60
337,19	1277,93
337,40	1306,60
337,61	1232,88
337,82	1255,40
338,04	1284,08
338,25	1212,40
338,46	1290,22
338,67	1286,12
338,88	1302,51
339,09	1269,74
339,31	1273,84
339,52	1183,73
339,73	1210,35
339,94	1261,55
340,15	1226,73
340,36	1277,93
340,58	1253,36
340,79	1245,16
341,00	1310,70
341,21	1267,69
341,42	1259,50
341,63	1279,98
341,85	1312,75
342,06	1239,02
342,27	1296,36
342,48	1259,50
342,69	1378,28
342,90	1298,41
343,12	1263,60
343,33	1351,66
343,54	1279,98
343,75	1341,42
343,96	1284,08
344,17	1325,04
344,38	1304,56
344,60	1275,88
344,81	1322,99
345,02	1214,45
345,23	1286,12
345,44	1271,79
345,65	1257,45
345,86	1300,46
346,07	1288,17
346,29	1277,93
346,50	1232,88
346,71	1265,64
346,92	1259,50
347,13	1363,95
347,34	1228,78
347,55	1202,16
347,76	1308,65
347,98	1314,80
348,19	1277,93
348,40	1306,60
348,61	1318,89
348,82	1378,28
349,03	1216,49
349,24	1230,83
349,45	1259,50
349,66	1228,78
349,88	1306,60
350,09	1253,36
350,30	1312,75
350,51	1265,64
350,72	1298,41
350,93	1286,12
351,14	1228,78
351,35	1279,98
351,56	1259,50
351,77	1347,56
351,99	1243,12
352,20	1306,60
352,41	1294,32
352,62	1249,26
352,83	1314,80
353,04	1263,60
353,25	1224,69
353,46	1261,55
353,67	1253,36
353,88	1255,40
354,09	1329,13
354,30	1298,41
354,52	1298,41
354,73	1294,32
354,94	1265,64
355,15	1257,45
355,36	1275,88
355,57	1286,12
355,78	1286,12
355,99	1255,40
356,20	1222,64
356,41	1263,60
356,62	1335,28
356,83	1290,22
357,04	1261,55
357,25	1204,21
357,46	1269,74
357,68	1318,89
357,89	1290,22
358,10	1253,36
358,31	1296,36
358,52	1167,34
358,73	1267,69
358,94	1306,60
359,15	1277,93
359,36	1273,84
359,57	1236,97
359,78	1351,66
359,99	1300,46
360,20	1253,36
360,41	1253,36
360,62	1286,12
360,83	1318,89
361,04	1306,60
361,25	1249,26
361,46	1251,31
361,67	1282,03
361,88	1257,45
362,09	1290,22
362,30	1279,98
362,51	1236,97
362,72	1249,26
362,93	1310,70
363,14	1298,41
363,35	1191,92
363,56	1290,22
363,78	1296,36
363,99	1236,97
364,20	1267,69
364,41	1290,22
364,62	1314,80
364,83	1267,69
365,04	1245,16
365,25	1261,55
365,46	1284,08
365,67	1245,16
365,88	1263,60
366,09	1298,41
366,30	1245,16
366,51	1234,93
366,72	1288,17
366,93	1267,69
367,14	1249,26
367,35	1302,51
367,56	1193,97
367,77	1279,98
367,98	1245,16
368,18	1253,36
368,39	1286,12
368,60	1286,12
368,81	1308,65
369,02	1243,12
369,23	1275,88
369,44	1300,46
369,65	1286,12
369,86	1261,55
370,07	1245,16
370,28	1234,93
370,49	1310,70
370,70	1255,40
370,91	1308,65
371,12	1257,45
371,33	1202,16
371,54	1331,18
371,75	1271,79
371,96	1271,79
372,17	1292,27
372,38	1263,60
372,59	1304,56
372,80	1220,59
373,01	1183,73
373,22	1288,17
373,43	1234,93
373,64	1310,70
373,85	1191,92
374,06	1290,22
374,26	1206,25
374,47	1230,83
374,68	1241,07
374,89	1337,32
375,10	1189,87
375,31	1308,65
375,52	1290,22
375,73	1257,45
375,94	1214,45
376,15	1236,97
376,36	1261,55
376,57	1265,64
376,78	1255,40
376,99	1202,16
377,20	1314,80
377,40	1249,26
377,61	1269,74
377,82	1245,16
378,03	1212,40
378,24	1368,04
378,45	1232,88
378,66	1253,36
378,87	1249,26
379,08	1351,66
379,29	1282,03
379,50	1253,36
379,71	1245,16
379,91	1300,46
380,12	1236,97
380,33	1239,02
380,54	1286,12
380,75	1271,79
380,96	1200,11
381,17	1224,69
381,38	1271,79
381,59	1298,41
381,80	1198,06
382,00	1224,69
382,21	1300,46
382,42	1290,22
382,63	1198,06
382,84	1320,94
383,05	1251,31
383,26	1257,45
383,47	1249,26
383,68	1282,03
383,88	1265,64
384,09	1236,97
384,30	1294,32
384,51	1308,65
384,72	1277,93
384,93	1286,12
385,14	1304,56
385,35	1259,50
385,55	1333,23
385,76	1286,12
385,97	1273,84
386,18	1230,83
386,39	1214,45
386,60	1282,03
386,81	1269,74
387,02	1269,74
387,22	1292,27
387,43	1329,13
387,64	1226,73
387,85	1263,60
388,06	1259,50
388,27	1224,69
388,48	1218,54
388,68	1228,78
388,89	1269,74
389,10	1263,60
389,31	1294,32
389,52	1279,98
389,73	1216,49
389,93	1339,37
390,14	1212,40
390,35	1206,25
390,56	1296,36
390,77	1230,83
390,98	1249,26
391,18	1236,97
391,39	1259,50
391,60	1224,69
391,81	1300,46
392,02	1325,04
392,23	1310,70
392,43	1232,88
392,64	1275,88
392,85	1277,93
393,06	1257,45
393,27	1253,36
393,47	1290,22
393,68	1224,69
393,89	1304,56
394,10	1263,60
394,31	1214,45
394,52	1325,04
394,72	1249,26
394,93	1255,40
395,14	1249,26
395,35	1263,60
395,56	1275,88
395,76	1255,40
395,97	1208,30
396,18	1312,75
396,39	1288,17
396,60	1370,09
396,80	1282,03
397,01	1241,07
397,22	1236,97
397,43	1294,32
397,64	1241,07
397,84	1220,59
398,05	1279,98
398,26	1275,88
398,47	1343,47
398,67	1320,94
398,88	1286,12
399,09	1306,60
399,30	1333,23
399,51	1241,07
399,71	1257,45
399,92	1273,84
400,13	1228,78
400,34	1267,69
400,54	1279,98
400,75	1196,01
400,96	1269,74
401,17	1304,56
401,37	1257,45
401,58	1288,17
401,79	1277,93
402,00	1257,45
402,21	1269,74
402,41	1251,31
402,62	1224,69
402,83	1288,17
403,04	1275,88
403,24	1273,84
403,45	1255,40
403,66	1183,73
403,87	1208,30
404,07	1294,32
404,28	1294,32
404,49	1331,18
404,70	1279,98
404,90	1273,84
405,11	1251,31
405,32	1288,17
405,52	1255,40
405,73	1226,73
405,94	1187,82
406,15	1271,79
406,35	1181,68
406,56	1249,26
406,77	1265,64
406,98	1310,70
407,18	1284,08
407,39	1298,41
407,60	1288,17
407,80	1294,32
408,01	1212,40
408,22	1282,03
408,43	1306,60
408,63	1300,46
408,84	1300,46
409,05	1286,12
409,25	1247,21
409,46	1263,60
409,67	1181,68
409,88	1236,97
410,08	1198,06
410,29	1247,21
410,50	1300,46
410,70	1232,88
410,91	1245,16
411,12	1314,80
411,32	1271,79
411,53	1290,22
411,74	1239,02
411,95	1241,07
412,15	1222,64
412,36	1320,94
412,57	1355,76
412,77	1312,75
412,98	1279,98
413,19	1298,41
413,39	1376,24
413,60	1282,03
413,81	1200,11
414,01	1263,60
414,22	1236,97
414,43	1200,11
414,63	1314,80
414,84	1196,01
415,05	1359,85
415,25	1247,21
415,46	1304,56
415,67	1163,25
415,87	1257,45
416,08	1224,69
416,29	1351,66
416,49	1155,05
416,70	1251,31
416,91	1292,27
417,11	1298,41
417,32	1216,49
417,53	1294,32
417,73	1343,47
417,94	1261,55
418,15	1234,93
418,35	1253,36
418,56	1265,64
418,77	1251,31
418,97	1245,16
419,18	1208,30
419,38	1153,01
419,59	1253,36
419,80	1294,32
420,00	1265,64
420,21	1234,93
420,42	1277,93
420,62	1273,84
420,83	1296,36
421,04	1325,04
421,24	1335,28
421,45	1232,88
421,65	1325,04
421,86	1325,04
422,07	1327,08
422,27	1282,03
422,48	1267,69
422,69	1236,97
422,89	1267,69
423,10	1335,28
423,30	1261,55
423,51	1247,21
423,72	1316,84
423,92	1284,08
424,13	1279,98
424,33	1247,21
424,54	1279,98
424,75	1290,22
424,95	1288,17
425,16	1212,40
425,36	1271,79
425,57	1214,45
425,78	1206,25
425,98	1314,80
426,19	1308,65
426,39	1273,84
426,60	1253,36
426,81	1279,98
427,01	1259,50
427,22	1255,40
427,42	1269,74
427,63	1193,97
427,83	1282,03
428,04	1234,93
428,25	1282,03
428,45	1331,18
428,66	1279,98
428,86	1302,51
429,07	1279,98
429,28	1265,64
429,48	1273,84
429,69	1341,42
429,89	1226,73
430,10	1249,26
430,30	1275,88
430,51	1284,08
430,71	1286,12
430,92	1261,55
431,13	1282,03
431,33	1214,45
431,54	1282,03
431,74	1261,55
431,95	1204,21
432,15	1234,93
432,36	1263,60
432,56	1265,64
432,77	1249,26
432,98	1294,32
433,18	1224,69
433,39	1337,32
433,59	1255,40
433,80	1294,32
434,00	1261,55
434,21	1306,60
434,41	1312,75
434,62	1300,46
434,82	1277,93
435,03	1239,02
435,23	1255,40
435,44	1236,97
435,64	1224,69
435,85	1273,84
436,06	1210,35
436,26	1196,01
436,47	1333,23
436,67	1308,65
436,88	1214,45
437,08	1312,75
437,29	1234,93
437,49	1255,40
437,70	1214,45
437,90	1191,92
438,11	1228,78
438,31	1286,12
438,52	1273,84
438,72	1349,61
438,93	1228,78
439,13	1298,41
439,34	1212,40
439,54	1214,45
439,75	1216,49
439,95	1175,53
440,16	1241,07
440,36	1210,35
440,57	1300,46
440,77	1284,08
440,98	1257,45
441,18	1271,79
441,39	1282,03
441,59	1226,73
441,80	1263,60
442,00	1234,93
442,21	1279,98
442,41	1331,18
442,62	1263,60
442,82	1259,50
443,02	1232,88
443,23	1339,37
443,43	1249,26
443,64	1282,03
443,84	1275,88
444,05	1279,98
444,25	1273,84
444,46	1222,64
444,66	1314,80
444,87	1247,21
445,07	1216,49
445,28	1230,83
445,48	1345,52
445,69	1265,64
445,89	1294,32
446,09	1253,36
446,30	1202,16
446,50	1206,25
446,71	1218,54
446,91	1226,73
447,12	1284,08
447,32	1224,69
447,53	1290,22
447,73	1251,31
447,93	1288,17
448,14	1349,61
448,34	1245,16
448,55	1222,64
448,75	1247,21
448,96	1239,02
449,16	1265,64
449,36	1210,35
449,57	1255,40
449,77	1286,12
449,98	1234,93
450,18	1214,45
450,39	1224,69
450,59	1349,61
450,79	1216,49
451,00	1265,64
451,20	1228,78
451,41	1230,83
451,61	1279,98
451,81	1261,55
452,02	1361,90
452,22	1263,60
452,43	1261,55
452,63	1247,21
452,84	1163,25
453,04	1247,21
453,24	1251,31
453,45	1259,50
453,65	1247,21
453,86	1273,84
454,06	1255,40
454,26	1259,50
454,47	1279,98
454,67	1257,45
454,87	1228,78
455,08	1251,31
455,28	1284,08
455,49	1265,64
455,69	1243,12
455,89	1273,84
456,10	1193,97
456,30	1277,93
456,51	1271,79
456,71	1288,17
456,91	1304,56
457,12	1206,25
457,32	1234,93
457,52	1249,26
457,73	1226,73
457,93	1292,27
458,14	1277,93
458,34	1259,50
458,54	1236,97
458,75	1196,01
458,95	1288,17
459,15	1316,84
459,36	1327,08
459,56	1249,26
459,76	1255,40
459,97	1298,41
460,17	1241,07
460,37	1286,12
460,58	1257,45
460,78	1273,84
460,99	1247,21
461,19	1312,75
461,39	1208,30
461,60	1345,52
461,80	1245,16
462,00	1265,64
462,21	1267,69
462,41	1249,26
462,61	1232,88
462,82	1300,46
463,02	1183,73
463,22	1232,88
463,43	1273,84
463,63	1269,74
463,83	1329,13
464,04	1232,88
464,24	1226,73
464,44	1300,46
464,64	1241,07
464,85	1173,49
465,05	1269,74
465,25	1269,74
465,46	1247,21
465,66	1247,21
465,86	1251,31
466,07	1257,45
466,27	1241,07
466,47	1263,60
466,68	1234,93
466,88	1300,46
467,08	1318,89
467,29	1259,50
467,49	1218,54
467,69	1290,22
467,89	1251,31
468,10	1155,05
468,30	1310,70
468,50	1265,64
468,71	1269,74
468,91	1273,84
469,11	1290,22
469,31	1327,08
469,52	1224,69
469,72	1306,60
469,92	1220,59
470,13	1249,26
470,33	1333,23
470,53	1245,16
470,73	1310,70
470,94	1224,69
471,14	1259,50
471,34	1245,16
471,54	1251,31
471,75	1302,51
471,95	1200,11
472,15	1312,75
472,36	1267,69
472,56	1316,84
472,76	1286,12
472,96	1296,36
473,17	1206,25
473,37	1322,99
473,57	1282,03
473,77	1185,77
473,98	1193,97
474,18	1226,73
474,38	1271,79
474,58	1236,97
474,79	1208,30
474,99	1333,23
475,19	1228,78
475,39	1212,40
475,60	1218,54
475,80	1298,41
476,00	1259,50
476,20	1294,32
476,41	1261,55
476,61	1255,40
476,81	1329,13
477,01	1257,45
477,21	1292,27
477,42	1245,16
477,62	1314,80
477,82	1267,69
478,02	1294,32
478,23	1241,07
478,43	1267,69
478,63	1236,97
478,83	1249,26
479,03	1206,25
479,24	1282,03
479,44	1226,73
479,64	1212,40
479,84	1257,45
480,04	1269,74
480,25	1296,36
480,45	1247,21
480,65	1253,36
480,85	1234,93
481,06	1294,32
481,26	1204,21
481,46	1320,94
481,66	1302,51
481,86	1290,22
482,06	1306,60
482,27	1253,36
482,47	1253,36
482,67	1224,69
482,87	1296,36
483,07	1314,80
483,28	1273,84
483,48	1282,03
483,68	1355,76
483,88	1314,80
484,08	1290,22
484,29	1245,16
484,49	1341,42
484,69	1253,36
484,89	1253,36
485,09	1310,70
485,29	1279,98
485,50	1208,30
485,70	1298,41
485,90	1243,12
486,10	1273,84
486,30	1259,50
486,50	1249,26
486,71	1282,03
486,91	1247,21
487,11	1284,08
487,31	1204,21
487,51	1263,60
487,71	1247,21
487,91	1239,02
488,12	1216,49
488,32	1232,88
488,52	1331,18
488,72	1282,03
488,92	1249,26
489,12	1279,98
489,32	1267,69
489,53	1288,17
489,73	1253,36
489,93	1345,52
490,13	1273,84
490,33	1296,36
490,53	1306,60
490,73	1259,50
490,94	1255,40
491,14	1191,92
491,34	1306,60
491,54	1300,46
491,74	1196,01
491,94	1206,25
492,14	1239,02
492,34	1212,40
492,54	1228,78
492,75	1224,69
492,95	1249,26
493,15	1296,36
493,35	1265,64
493,55	1257,45
493,75	1286,12
493,95	1298,41
494,15	1294,32
494,35	1189,87
494,56	1279,98
494,76	1327,08
494,96	1253,36
495,16	1218,54
495,36	1265,64
495,56	1247,21
495,76	1290,22
495,96	1218,54
496,16	1232,88
496,36	1220,59
496,56	1288,17
496,77	1253,36
496,97	1282,03
497,17	1275,88
497,37	1304,56
497,57	1277,93
497,77	1187,82
497,97	1290,22
498,17	1271,79
498,37	1236,97
498,57	1239,02
498,77	1290,22
498,97	1300,46
499,17	1228,78
499,38	1251,31
499,58	1275,88
499,78	1220,59
499,98	1306,60
500,18	1275,88
500,38	1251,31
500,58	1290,22
500,78	1271,79
500,98	1185,77
501,18	1277,93
501,38	1271,79
501,58	1304,56
501,78	1210,35
501,98	1263,60
502,18	1284,08
502,38	1308,65
502,58	1189,87
502,78	1239,02
502,98	1269,74
503,18	1294,32
503,38	1187,82
503,59	1249,26
503,79	1265,64
503,99	1247,21
504,19	1222,64
504,39	1224,69
504,59	1288,17
504,79	1245,16
504,99	1218,54
505,19	1253,36
505,39	1302,51
505,59	1290,22
505,79	1234,93
505,99	1294,32
506,19	1277,93
506,39	1243,12
506,59	1265,64
506,79	1273,84
506,99	1257,45
507,19	1269,74
507,39	1314,80
507,59	1265,64
507,79	1263,60
507,99	1261,55
508,19	1327,08
508,39	1241,07
508,59	1259,50
508,79	1273,84
508,99	1275,88
509,19	1290,22
509,39	1236,97
509,59	1294,32
509,79	1210,35
509,99	1257,45
510,19	1259,50
510,39	1257,45
510,59	1220,59
510,79	1185,77
510,99	1300,46
511,19	1314,80
511,39	1300,46
511,59	1267,69
511,79	1267,69
511,99	1286,12
512,19	1271,79
512,38	1292,27
512,58	1245,16
512,78	1292,27
512,98	1216,49
513,18	1304,56
513,38	1198,06
513,58	1265,64
513,78	1253,36
513,98	1249,26
514,18	1282,03
514,38	1257,45
514,58	1279,98
514,78	1304,56
514,98	1206,25
515,18	1200,11
515,38	1243,12
515,58	1347,56
515,78	1169,39
515,98	1318,89
516,18	1259,50
516,38	1255,40
516,57	1200,11
516,77	1279,98
516,97	1271,79
517,17	1306,60
517,37	1263,60
517,57	1253,36
517,77	1187,82
517,97	1277,93
518,17	1251,31
518,37	1290,22
518,57	1279,98
518,77	1308,65
518,97	1359,85
519,16	1226,73
519,36	1255,40
519,56	1243,12
519,76	1286,12
519,96	1292,27
520,16	1302,51
520,36	1198,06
520,56	1265,64
520,76	1224,69
520,96	1269,74
521,16	1279,98
521,35	1269,74
521,55	1239,02
521,75	1228,78
521,95	1294,32
522,15	1302,51
522,35	1302,51
522,55	1261,55
522,75	1265,64
522,95	1220,59
523,14	1253,36
523,34	1363,95
523,54	1261,55
523,74	1263,60
523,94	1322,99
524,14	1228,78
524,34	1339,37
524,54	1282,03
524,73	1308,65
524,93	1236,97
525,13	1286,12
525,33	1296,36
525,53	1255,40
525,73	1243,12
525,93	1306,60
526,13	1335,28
526,32	1308,65
526,52	1245,16
526,72	1275,88
526,92	1312,75
527,12	1243,12
527,32	1236,97
527,52	1286,12
527,71	1271,79
527,91	1249,26
528,11	1277,93
528,31	1220,59
528,51	1255,40
528,71	1271,79
528,90	1284,08
529,10	1320,94
529,30	1224,69
529,50	1282,03
529,70	1265,64
529,90	1308,65
530,09	1234,93
530,29	1282,03
530,49	1294,32
530,69	1277,93
530,89	1279,98
531,09	1286,12
531,28	1216,49
531,48	1193,97
531,68	1277,93
531,88	1255,40
532,08	1230,83
532,28	1265,64
532,47	1329,13
532,67	1279,98
532,87	1259,50
533,07	1282,03
533,27	1210,35
533,46	1267,69
533,66	1300,46
533,86	1318,89
534,06	1269,74
534,26	1200,11
534,45	1271,79
534,65	1304,56
534,85	1247,21
535,05	1298,41
535,25	1275,88
535,44	1234,93
535,64	1251,31
535,84	1249,26
536,04	1189,87
536,24	1226,73
536,43	1239,02
536,63	1284,08
536,83	1327,08
537,03	1292,27
537,22	1218,54
537,42	1263,60
537,62	1243,12
537,82	1224,69
538,02	1318,89
538,21	1257,45
538,41	1269,74
538,61	1318,89
538,81	1302,51
539,00	1247,21
539,20	1255,40
539,40	1331,18
539,60	1167,34
539,79	1320,94
539,99	1253,36
540,19	1288,17
540,39	1304,56
540,58	1230,83
540,78	1234,93
540,98	1312,75
541,18	1279,98
541,37	1294,32
541,57	1306,60
541,77	1361,90
541,97	1261,55
542,16	1302,51
542,36	1308,65
542,56	1273,84
542,76	1251,31
542,95	1214,45
543,15	1275,88
543,35	1249,26
543,54	1224,69
543,74	1253,36
543,94	1290,22
544,14	1257,45
544,33	1251,31
544,53	1308,65
544,73	1257,45
544,93	1273,84
545,12	1271,79
545,32	1282,03
545,52	1282,03
545,71	1310,70
545,91	1267,69
546,11	1275,88
546,30	1265,64
546,50	1261,55
546,70	1245,16
546,90	1243,12
547,09	1257,45
547,29	1288,17
547,49	1247,21
547,68	1288,17
547,88	1267,69
548,08	1265,64
548,27	1267,69
548,47	1271,79
548,67	1243,12
548,87	1196,01
549,06	1259,50
549,26	1255,40
549,46	1247,21
549,65	1290,22
549,85	1308,65
550,05	1255,40
550,24	1261,55
550,44	1325,04
550,64	1243,12
550,83	1259,50
551,03	1239,02
551,23	1230,83
551,42	1212,40
551,62	1214,45
551,82	1310,70
552,01	1257,45
552,21	1269,74
552,41	1306,60
552,60	1257,45
552,80	1245,16
553,00	1236,97
553,19	1267,69
553,39	1236,97
553,59	1265,64
553,78	1243,12
553,98	1312,75
554,17	1255,40
554,37	1236,97
554,57	1175,53
554,76	1279,98
554,96	1296,36
555,16	1245,16
555,35	1261,55
555,55	1337,32
555,75	1277,93
555,94	1255,40
556,14	1150,96
556,33	1245,16
556,53	1234,93
556,73	1241,07
556,92	1265,64
557,12	1308,65
557,32	1271,79
557,51	1322,99
557,71	1230,83
557,90	1263,60
558,10	1277,93
558,30	1261,55
558,49	1253,36
558,69	1261,55
558,88	1302,51
559,08	1187,82
559,28	1292,27
559,47	1206,25
559,67	1277,93
559,86	1290,22
560,06	1253,36
560,26	1232,88
560,45	1243,12
560,65	1216,49
560,84	1204,21
561,04	1193,97
561,24	1224,69
561,43	1275,88
561,63	1284,08
561,82	1257,45
562,02	1335,28
562,22	1249,26
562,41	1216,49
562,61	1228,78
562,80	1284,08
563,00	1290,22
563,19	1310,70
563,39	1318,89
563,59	1247,21
563,78	1196,01
563,98	1298,41
564,17	1259,50
564,37	1284,08
564,56	1228,78
564,76	1234,93
564,96	1279,98
565,15	1208,30
565,35	1245,16
565,54	1216,49
565,74	1222,64
565,93	1279,98
566,13	1300,46
566,32	1191,92
566,52	1218,54
566,71	1284,08
566,91	1257,45
567,11	1288,17
567,30	1267,69
567,50	1298,41
567,69	1286,12
567,89	1314,80
568,08	1251,31
568,28	1230,83
568,47	1300,46
568,67	1298,41
568,86	1296,36
569,06	1288,17
569,25	1236,97
569,45	1255,40
569,64	1257,45
569,84	1288,17
570,04	1353,71
570,23	1279,98
570,43	1241,07
570,62	1224,69
570,82	1265,64
571,01	1236,97
571,21	1329,13
571,40	1245,16
571,60	1259,50
571,79	1282,03
571,99	1265,64
572,18	1241,07
572,38	1296,36
572,57	1208,30
572,77	1263,60
572,96	1329,13
573,16	1241,07
573,35	1263,60
573,55	1251,31
573,74	1310,70
573,94	1273,84
574,13	1312,75
574,33	1316,84
574,52	1218,54
574,71	1316,84
574,91	1216,49
575,10	1243,12
575,30	1220,59
575,49	1220,59
575,69	1236,97
575,88	1265,64
576,08	1290,22
576,27	1265,64
576,47	1292,27
576,66	1316,84
576,86	1286,12
577,05	1228,78
577,25	1302,51
577,44	1304,56
577,64	1325,04
577,83	1263,60
578,02	1267,69
578,22	1259,50
578,41	1302,51
578,61	1251,31
578,80	1355,76
579,00	1241,07
579,19	1314,80
579,39	1247,21
579,58	1290,22
579,77	1212,40
579,97	1228,78
580,16	1183,73
580,36	1251,31
580,55	1206,25
580,75	1302,51
580,94	1273,84
581,13	1269,74
581,33	1279,98
581,52	1198,06
581,72	1298,41
581,91	1304,56
582,11	1265,64
582,30	1275,88
582,49	1316,84
582,69	1312,75
582,88	1230,83
583,08	1261,55
583,27	1282,03
583,47	1322,99
583,66	1230,83
583,85	1282,03
584,05	1230,83
584,24	1308,65
584,44	1257,45
584,63	1308,65
584,82	1294,32
585,02	1273,84
585,21	1261,55
585,41	1271,79
585,60	1288,17
585,79	1177,58
585,99	1267,69
586,18	1224,69
586,37	1271,79
586,57	1290,22
586,76	1263,60
586,96	1284,08
587,15	1277,93
587,34	1259,50
587,54	1255,40
587,73	1292,27
587,93	1269,74
588,12	1232,88
588,31	1249,26
588,51	1298,41
588,70	1218,54
588,89	1224,69
589,09	1279,98
589,28	1277,93
589,47	1306,60
589,67	1210,35
589,86	1253,36
590,06	1153,01
590,25	1282,03
590,44	1273,84
590,64	1259,50
590,83	1245,16
591,02	1189,87
591,22	1349,61
591,41	1314,80
591,60	1271,79
591,80	1243,12
591,99	1277,93
592,18	1275,88
592,38	1218,54
592,57	1306,60
592,76	1312,75
592,96	1288,17
593,15	1298,41
593,34	1294,32
593,54	1279,98
593,73	1251,31
593,92	1259,50
594,12	1255,40
594,31	1288,17
594,50	1355,76
594,70	1249,26
594,89	1218,54
595,08	1210,35
595,28	1245,16
595,47	1296,36
595,66	1265,64
595,86	1200,11
596,05	1267,69
596,24	1257,45
596,43	1361,90
596,63	1275,88
596,82	1269,74
597,01	1173,49
597,21	1255,40
597,40	1310,70
597,59	1263,60
597,79	1261,55
597,98	1271,79
598,17	1216,49
598,36	1322,99
598,56	1232,88
598,75	1200,11
598,94	1208,30
599,14	1302,51
599,33	1222,64
599,52	1255,40
599,71	1245,16
599,91	1255,40
600,10	1247,21
600,29	1245,16
600,48	1236,97
600,68	1294,32
600,87	1263,60
601,06	1251,31
601,26	1261,55
601,45	1273,84
601,64	1259,50
601,83	1243,12
602,03	1198,06
602,22	1322,99
602,41	1298,41
602,60	1273,84
602,80	1333,23
602,99	1300,46
603,18	1277,93
603,37	1273,84
603,57	1273,84
603,76	1279,98
603,95	1234,93
604,14	1304,56
604,34	1212,40
604,53	1300,46
604,72	1218,54
604,91	1230,83
605,10	1241,07
605,30	1251,31
605,49	1263,60
605,68	1226,73
605,87	1273,84
606,07	1286,12
606,26	1337,32
606,45	1279,98
606,64	1232,88
606,84	1265,64
607,03	1230,83
607,22	1275,88
607,41	1265,64
607,60	1251,31
607,80	1263,60
607,99	1273,84
608,18	1312,75
608,37	1288,17
608,56	1183,73
608,76	1318,89
608,95	1253,36
609,14	1310,70
609,33	1271,79
609,52	1282,03
609,72	1271,79
609,91	1253,36
610,10	1265,64
610,29	1204,21
610,48	1296,36
610,68	1251,31
610,87	1292,27
611,06	1347,56
611,25	1257,45
611,44	1230,83
611,63	1200,11
611,83	1253,36
612,02	1316,84
612,21	1279,98
612,40	1284,08
612,59	1226,73
612,79	1275,88
612,98	1263,60
613,17	1288,17
613,36	1331,18
613,55	1255,40
613,74	1216,49
613,93	1308,65
614,13	1304,56
614,32	1234,93
614,51	1212,40
614,70	1265,64
614,89	1300,46
615,08	1302,51
615,28	1257,45
615,47	1302,51
615,66	1241,07
615,85	1257,45
616,04	1304,56
616,23	1249,26
616,42	1200,11
616,62	1312,75
616,81	1288,17
617,00	1243,12
617,19	1355,76
617,38	1273,84
617,57	1322,99
617,76	1241,07
617,95	1253,36
618,15	1245,16
618,34	1245,16
618,53	1310,70
618,72	1232,88
618,91	1210,35
619,10	1263,60
619,29	1290,22
619,48	1284,08
619,68	1277,93
619,87	1302,51
620,06	1232,88
620,25	1257,45
620,44	1314,80
620,63	1312,75
620,82	1241,07
621,01	1271,79
621,20	1284,08
621,39	1314,80
621,59	1198,06
621,78	1239,02
621,97	1271,79
622,16	1222,64
622,35	1325,04
622,54	1269,74
622,73	1279,98
622,92	1249,26
623,11	1263,60
623,30	1253,36
623,49	1277,93
623,68	1288,17
623,88	1290,22
624,07	1337,32
624,26	1300,46
624,45	1288,17
624,64	1304,56
624,83	1253,36
625,02	1210,35
625,21	1257,45
625,40	1200,11
625,59	1230,83
625,78	1290,22
625,97	1316,84
626,16	1292,27
626,35	1269,74
626,54	1271,79
626,74	1249,26
626,93	1339,37
627,12	1245,16
627,31	1245,16
627,50	1249,26
627,69	1306,60
627,88	1294,32
628,07	1353,71
628,26	1302,51
628,45	1243,12
628,64	1302,51
628,83	1204,21
629,02	1273,84
629,21	1271,79
629,40	1269,74
629,59	1318,89
629,78	1253,36
629,97	1216,49
630,16	1361,90
630,35	1257,45
630,54	1312,75
630,73	1304,56
630,92	1316,84
631,11	1302,51
631,30	1343,47
631,49	1366,00
631,68	1277,93
631,87	1687,53
632,06	2516,95
632,25	1841,12
632,44	2097,12
632,63	2797,53
632,82	5042,10
633,01	7219,09
633,20	9289,59
633,39	8456,06
633,58	9734,00
633,77	11698,00
633,96	19214,04
634,15	35401,19
634,34	42407,29
634,53	36193,75
634,72	25802,36
634,91	17616,63
635,10	11890,51
635,29	7397,26
635,48	4984,76
635,67	3493,83
635,86	2572,25
636,05	1959,91
636,24	1615,85
636,43	1443,82
636,62	1370,09
636,81	1345,52
637,00	1351,66
637,19	1355,76
637,38	1368,04
637,57	1345,52
637,76	1329,13
637,95	1345,52
638,14	1331,18
638,33	1298,41
638,52	1316,84
638,71	1325,04
638,89	1298,41
639,08	1306,60
639,27	1294,32
639,46	1257,45
639,65	1296,36
639,84	1208,30
640,03	1290,22
640,22	1271,79
640,41	1294,32
640,60	1241,07
640,79	1298,41
640,98	1236,97
641,17	1255,40
641,36	1286,12
641,55	1318,89
641,74	1220,59
641,92	1290,22
642,11	1241,07
642,30	1292,27
642,49	1308,65
642,68	1251,31
642,87	1261,55
643,06	1282,03
643,25	1318,89
643,44	1273,84
643,63	1290,22
643,82	1265,64
644,00	1275,88
644,19	1216,49
644,38	1282,03
644,57	1282,03
644,76	1325,04
644,95	1241,07
645,14	1349,61
645,33	1224,69
645,52	1247,21
645,71	1288,17
645,89	1279,98
646,08	1361,90
646,27	1302,51
646,46	1220,59
646,65	1261,55
646,84	1263,60
647,03	1271,79
647,22	1296,36
647,40	1310,70
647,59	1269,74
647,78	1277,93
647,97	1216,49
648,16	1241,07
648,35	1232,88
648,54	1234,93
648,73	1255,40
648,91	1259,50
649,10	1271,79
649,29	1282,03
649,48	1208,30
649,67	1282,03
649,86	1216,49
650,05	1271,79
650,23	1220,59
650,42	1234,93
650,61	1329,13
650,80	1202,16
650,99	1329,13
651,18	1247,21
651,36	1224,69
651,55	1312,75
651,74	1269,74
651,93	1304,56
652,12	1288,17
652,31	1232,88
652,49	1245,16
652,68	1335,28
652,87	1232,88
653,06	1267,69
653,25	1288,17
653,44	1267,69
653,62	1249,26
653,81	1265,64
654,00	1267,69
654,19	1292,27
654,38	1263,60
654,56	1320,94
654,75	1251,31
654,94	1204,21
655,13	1273,84
655,32	1253,36
655,51	1304,56
655,69	1337,32
655,88	1224,69
656,07	1241,07
656,26	1253,36
656,45	1247,21
656,63	1196,01
656,82	1275,88
657,01	1167,34
657,20	1236,97
657,38	1343,47
657,57	1282,03
657,76	1243,12
657,95	1257,45
658,14	1249,26
658,32	1214,45
658,51	1255,40
658,70	1228,78
658,89	1249,26
659,08	1212,40
659,26	1288,17
659,45	1333,23
659,64	1259,50
659,83	1253,36
660,01	1302,51
660,20	1269,74
660,39	1255,40
660,58	1298,41
660,76	1255,40
660,95	1263,60
661,14	1232,88
661,33	1218,54
661,51	1239,02
661,70	1183,73
661,89	1347,56
662,08	1318,89
662,26	1279,98
662,45	1359,85
662,64	1290,22
662,83	1255,40
663,01	1263,60
663,20	1210,35
663,39	1232,88
663,58	1255,40
663,76	1271,79
663,95	1284,08
664,14	1298,41
664,32	1226,73
664,51	1288,17
664,70	1239,02
664,89	1320,94
665,07	1171,44
665,26	1322,99
665,45	1310,70
665,64	1259,50
665,82	1257,45
666,01	1277,93
666,20	1228,78
666,38	1292,27
666,57	1282,03
666,76	1232,88
666,95	1345,52
667,13	1273,84
667,32	1269,74
667,51	1269,74
667,69	1312,75
667,88	1286,12
668,07	1320,94
668,25	1245,16
668,44	1241,07
668,63	1290,22
668,81	1261,55
669,00	1306,60
669,19	1284,08
669,38	1247,21
669,56	1196,01
669,75	1275,88
669,94	1327,08
670,12	1284,08
670,31	1269,74
670,50	1279,98
670,68	1171,44
670,87	1267,69
671,06	1347,56
671,24	1259,50
671,43	1298,41
671,62	1275,88
671,80	1222,64
671,99	1271,79
672,18	1310,70
672,36	1191,92
672,55	1261,55
672,74	1322,99
672,92	1257,45
673,11	1275,88
673,29	1298,41
673,48	1284,08
673,67	1267,69
673,85	1273,84
674,04	1228,78
674,23	1208,30
674,41	1304,56
674,60	1277,93
674,79	1247,21
674,97	1269,74
675,16	1257,45
675,34	1294,32
675,53	1196,01
675,72	1300,46
675,90	1253,36
676,09	1249,26
676,28	1236,97
676,46	1271,79
676,65	1247,21
676,83	1300,46
677,02	1255,40
677,21	1302,51
677,39	1339,37
677,58	1329,13
677,77	1359,85
677,95	1263,60
678,14	1230,83
678,32	1273,84
678,51	1265,64
678,70	1275,88
678,88	1228,78
679,07	1255,40
679,25	1306,60
679,44	1263,60
679,63	1206,25
679,81	1257,45
680,00	1220,59
680,18	1304,56
680,37	1220,59
680,55	1241,07
680,74	1279,98
680,93	1269,74
681,11	1284,08
681,30	1245,16
681,48	1320,94
681,67	1263,60
681,85	1239,02
682,04	1279,98
682,23	1232,88
682,41	1277,93
682,60	1196,01
682,78	1290,22
682,97	1222,64
683,15	1288,17
683,34	1275,88
683,53	1241,07
683,71	1208,30
683,90	1292,27
684,08	1251,31
684,27	1347,56
684,45	1222,64
684,64	1282,03
684,82	1265,64
685,01	1271,79
685,19	1284,08
685,38	1290,22
685,57	1300,46
685,75	1257,45
685,94	1267,69
686,12	1259,50
686,31	1294,32
686,49	1288,17
686,68	1224,69
686,86	1308,65
687,05	1232,88
687,23	1271,79
687,42	1271,79
687,60	1271,79
687,79	1249,26
687,97	1261,55
688,16	1277,93
688,34	1247,21
688,53	1236,97
688,71	1267,69
688,90	1249,26
689,08	1249,26
689,27	1271,79
689,45	1257,45
689,64	1271,79
689,82	1273,84
690,01	1265,64
690,19	1310,70
690,38	1259,50
690,56	1288,17
690,75	1222,64
690,93	1220,59
691,12	1224,69
691,30	1298,41
691,49	1241,07
691,67	1218,54
691,86	1255,40
692,04	1253,36
692,23	1234,93
692,41	1241,07
692,60	1261,55
692,78	1294,32
692,97	1216,49
693,15	1175,53
693,34	1251,31
693,52	1329,13
693,71	1224,69
693,89	1288,17
694,08	1234,93
694,26	1306,60
694,44	1245,16
694,63	1263,60
694,81	1273,84
695,00	1300,46
695,18	1290,22
695,37	1325,04
695,55	1292,27
695,74	1275,88
695,92	1279,98
696,10	1273,84
696,29	1271,79
696,47	1320,94
696,66	1224,69
696,84	1230,83
697,03	1234,93
697,21	1294,32
697,40	1341,42
697,58	1337,32
697,76	1204,21
697,95	1218,54
698,13	1251,31
698,32	1312,75
698,50	1236,97
698,68	1273,84
698,87	1224,69
699,05	1288,17
699,24	1304,56
699,42	1216,49
699,61	1232,88
699,79	1247,21
699,97	1288,17
700,16	1294,32
700,34	1259,50
700,53	1314,80
700,71	1257,45
700,89	1282,03
701,08	1200,11
701,26	1298,41
701,45	1257,45
701,63	1234,93
701,81	1226,73
702,00	1294,32
702,18	1345,52
702,37	1228,78
702,55	1236,97
702,73	1216,49
702,92	1212,40
703,10	1265,64
703,28	1255,40
703,47	1273,84
703,65	1243,12
703,84	1241,07
704,02	1294,32
704,20	1220,59
704,39	1333,23
704,57	1253,36
704,75	1308,65
704,94	1208,30
705,12	1312,75
705,30	1241,07
705,49	1228,78
705,67	1226,73
705,86	1341,42
706,04	1284,08
706,22	1193,97
706,41	1265,64
706,59	1310,70
706,77	1277,93
706,96	1214,45
707,14	1267,69
707,32	1288,17
707,51	1275,88
707,69	1216,49
707,87	1339,37
708,06	1263,60
708,24	1208,30
708,42	1214,45
708,61	1261,55
708,79	1314,80
708,97	1312,75
709,16	1290,22
709,34	1296,36
709,52	1312,75
709,71	1294,32
709,89	1304,56
710,07	1232,88
710,26	1216,49
710,44	1267,69
710,62	1269,74
710,80	1232,88
710,99	1222,64
711,17	1335,28
711,35	1200,11
711,54	1193,97
711,72	1320,94
711,90	1181,68
712,09	1241,07
712,27	1290,22
712,45	1275,88
712,63	1251,31
712,82	1267,69
713,00	1253,36
713,18	1210,35
713,37	1251,31
713,55	1222,64
713,73	1308,65
713,91	1282,03
714,10	1284,08
714,28	1239,02
714,46	1294,32
714,65	1306,60
714,83	1193,97
715,01	1341,42
715,19	1230,83
715,38	1273,84
715,56	1255,40
715,74	1339,37
715,92	1335,28
716,11	1261,55
716,29	1273,84
716,47	1273,84
716,65	1335,28
716,84	1216,49
717,02	1273,84
717,20	1243,12
717,38	1261,55
717,57	1232,88
717,75	1251,31
717,93	1259,50
718,11	1220,59
718,30	1269,74
718,48	1189,87
718,66	1228,78
718,84	1224,69
719,03	1261,55
719,21	1333,23
719,39	1232,88
719,57	1239,02
719,75	1275,88
719,94	1277,93
720,12	1306,60
720,30	1359,85
720,48	1263,60
720,67	1241,07
720,85	1316,84
721,03	1265,64
721,21	1255,40
721,39	1306,60
721,58	1228,78
721,76	1214,45
721,94	1320,94
722,12	1263,60
722,30	1298,41
722,49	1259,50
722,67	1265,64
722,85	1263,60
723,03	1232,88
723,21	1232,88
723,40	1234,93
723,58	1251,31
723,76	1284,08
723,94	1236,97
724,12	1322,99
724,30	1247,21
724,49	1337,32
724,67	1173,49
724,85	1202,16
725,03	1273,84
725,21	1206,25
725,40	1271,79
725,58	1327,08
725,76	1277,93
725,94	1284,08
726,12	1210,35
726,30	1200,11
726,49	1296,36
726,67	1202,16
726,85	1241,07
727,03	1251,31
727,21	1300,46
727,39	1277,93
727,57	1314,80
727,76	1204,21
727,94	1284,08
728,12	1279,98
728,30	1249,26
728,48	1239,02
728,66	1245,16
728,84	1335,28
729,03	1228,78
729,21	1357,80
729,39	1277,93
729,57	1279,98
729,75	1251,31
729,93	1294,32
730,11	1263,60
730,30	1269,74
730,48	1263,60
730,66	1308,65
730,84	1218,54
731,02	1269,74
731,20	1306,60
731,38	1243,12
731,56	1273,84
731,74	1320,94
731,93	1290,22
732,11	1267,69
732,29	1228,78
732,47	1286,12
732,65	1302,51
732,83	1220,59
733,01	1271,79
733,19	1239,02
733,37	1290,22
733,56	1230,83
733,74	1269,74
733,92	1241,07
734,10	1220,59
734,28	1247,21
734,46	1181,68
734,64	1243,12
734,82	1261,55
735,00	1253,36
735,18	1306,60
735,36	1212,40
735,54	1261,55
735,73	1292,27
735,91	1282,03
736,09	1267,69
736,27	1302,51
736,45	1269,74
736,63	1298,41
736,81	1239,02
736,99	1222,64
737,17	1204,21
737,35	1247,21
737,53	1249,26
737,71	1249,26
737,89	1249,26
738,07	1232,88
738,25	1318,89
738,43	1247,21
738,61	1249,26
738,80	1269,74
738,98	1320,94
739,16	1337,32
739,34	1267,69
739,52	1308,65
739,70	1196,01
739,88	1263,60
740,06	1273,84
740,24	1220,59
740,42	1255,40
740,60	1277,93
740,78	1224,69
740,96	1183,73
741,14	1241,07
741,32	1259,50
741,50	1339,37
741,68	1236,97
741,86	1251,31
742,04	1300,46
742,22	1259,50
742,40	1216,49
742,58	1191,92
742,76	1267,69
742,94	1292,27
743,12	1312,75
743,30	1314,80
743,48	1214,45
743,66	1220,59
743,84	1306,60
744,02	1271,79
744,20	1249,26
744,38	1316,84
744,56	1265,64
744,74	1282,03
744,92	1208,30
745,10	1275,88
745,28	1198,06
745,46	1146,86
745,64	1318,89
745,82	1279,98
746,00	1236,97
746,18	1257,45
746,36	1241,07
746,54	1228,78
746,72	1275,88
746,90	1337,32
747,08	1329,13
747,26	1310,70
747,44	1245,16
747,62	1298,41
747,80	1265,64
747,98	1230,83
748,15	1288,17
748,33	1241,07
748,51	1318,89
748,69	1236,97
748,87	1253,36
749,05	1228,78
749,23	1349,61
749,41	1273,84
749,59	1232,88
749,77	1273,84
749,95	1210,35
750,13	1296,36
750,31	1277,93
750,49	1220,59
750,67	1292,27
750,85	1247,21
751,03	1290,22
751,20	1249,26
751,38	1269,74
751,56	1183,73
751,74	1271,79
751,92	1236,97
752,10	1306,60
752,28	1247,21
752,46	1337,32
752,64	1236,97
752,82	1226,73
753,00	1292,27
753,18	1339,37
753,35	1222,64
753,53	1245,16
753,71	1257,45
753,89	1288,17
754,07	1239,02
754,25	1337,32
754,43	1222,64
754,61	1241,07
754,79	1300,46
754,97	1378,28
755,14	1210,35
755,32	1243,12
755,50	1198,06
755,68	1249,26
755,86	1241,07
756,04	1271,79
756,22	1239,02
756,40	1241,07
756,57	1241,07
756,75	1255,40
756,93	1228,78
757,11	1366,00
757,29	1236,97
757,47	1320,94
757,65	1228,78
757,82	1292,27
758,00	1224,69
758,18	1273,84
758,36	1245,16
758,54	1275,88
758,72	1284,08
758,90	1259,50
759,07	1277,93
759,25	1290,22
759,43	1310,70
759,61	1222,64
759,79	1284,08
759,97	1290,22
760,15	1198,06
760,32	1224,69
760,50	1191,92
760,68	1222,64
760,86	1261,55
761,04	1318,89
761,22	1236,97
761,39	1304,56
761,57	1359,85
761,75	1200,11
761,93	1257,45
762,11	1251,31
762,28	1273,84
762,46	1216,49
762,64	1312,75
762,82	1306,60
763,00	1296,36
763,18	1331,18
763,35	1288,17
763,53	1298,41
763,71	1290,22
763,89	1304,56
764,07	1290,22
764,24	1247,21
764,42	1222,64
764,60	1263,60
764,78	1255,40
764,96	1216,49
765,13	1325,04
765,31	1259,50
765,49	1273,84
765,67	1279,98
765,84	1257,45
766,02	1257,45
766,20	1300,46
766,38	1228,78
766,56	1224,69
766,73	1296,36
766,91	1290,22
767,09	1265,64
767,27	1257,45
767,44	1355,76
767,62	1183,73
767,80	1265,64
767,98	1204,21
768,15	1322,99
768,33	1257,45
768,51	1316,84
768,69	1261,55
768,87	1187,82
769,04	1290,22
769,22	1271,79
769,40	1263,60
769,58	1290,22
769,75	1236,97
769,93	1298,41
770,11	1214,45
770,28	1288,17
770,46	1245,16
770,64	1327,08
770,82	1320,94
770,99	1251,31
771,17	1249,26
771,35	1288,17
771,53	1253,36
771,70	1212,40
771,88	1271,79
772,06	1312,75
772,23	1322,99
772,41	1316,84
772,59	1222,64
772,77	1230,83
772,94	1294,32
773,12	1306,60
773,30	1279,98
773,47	1247,21
773,65	1208,30
773,83	1251,31
774,01	1239,02
774,18	1269,74
774,36	1259,50
774,54	1273,84
774,71	1212,40
774,89	1302,51
775,07	1236,97
775,24	1224,69
775,42	1286,12
775,60	1286,12
775,78	1298,41
775,95	1257,45
776,13	1376,24
776,31	1296,36
776,48	1191,92
776,66	1290,22
776,84	1224,69
777,01	1298,41
777,19	1236,97
777,37	1191,92
777,54	1259,50
777,72	1288,17
777,90	1300,46
778,07	1200,11
778,25	1294,32
778,43	1351,66
778,60	1286,12
778,78	1310,70
778,96	1257,45
779,13	1292,27
779,31	1279,98
779,49	1259,50
779,66	1253,36
779,84	1161,20
780,01	1306,60
780,19	1253,36
780,37	1226,73
780,54	1239,02
780,72	1275,88
780,90	1253,36
781,07	1275,88
781,25	1273,84
781,43	1314,80
781,60	1257,45
781,78	1224,69
781,95	1257,45
782,13	1302,51
782,31	1243,12
782,48	1290,22
782,66	1210,35
782,83	1255,40
783,01	1310,70
783,19	1206,25
783,36	1304,56
783,54	1286,12
783,72	1290,22
783,89	1249,26
784,07	1298,41
784,24	1261,55
784,42	1263,60
784,60	1292,27
784,77	1265,64
784,95	1286,12
785,12	1171,44
785,30	1218,54
785,47	1224,69
785,65	1196,01
785,83	1339,37
786,00	1273,84
786,18	1298,41
786,35	1269,74
786,53	1310,70
786,71	1300,46
786,88	1232,88
787,06	1294,32
787,23	1126,38
787,41	1271,79
787,58	1216,49
787,76	1249,26
787,94	1261,55
788,11	1236,97
788,29	1277,93
788,46	1257,45
788,64	1282,03
788,81	1279,98
788,99	1277,93
789,16	1181,68
789,34	1300,46
789,52	1296,36
789,69	1269,74
789,87	1257,45
790,04	1273,84
790,22	1300,46
790,39	1286,12
790,57	1282,03
790,74	1273,84
790,92	1253,36
791,09	1232,88
791,27	1302,51
791,44	1200,11
791,62	1271,79
791,79	1253,36
791,97	1249,26
792,15	1226,73
792,32	1300,46
792,50	1343,47
792,67	1286,12
792,85	1382,38
793,02	1247,21
793,20	1366,00
793,37	1318,89
793,55	1282,03
793,72	1245,16
793,90	1257,45
794,07	1196,01
794,25	1292,27
794,42	1255,40
794,60	1239,02
794,77	1241,07
794,95	1292,27
795,12	1292,27
795,30	1243,12
795,47	1183,73
795,65	1267,69
795,82	1189,87
796,00	1288,17
796,17	1261,55
796,34	1249,26
796,52	1239,02
796,69	1218,54
796,87	1265,64
797,04	1263,60
797,22	1310,70
797,39	1214,45
797,57	1290,22
797,74	1263,60
797,92	1263,60
798,09	1275,88
798,27	1204,21
798,44	1261,55
798,62	1228,78
798,79	1232,88
798,96	1232,88
799,14	1261,55
799,31	1339,37
799,49	1263,60
799,66	1294,32
799,84	1277,93
800,01	1292,27
800,19	1282,03
800,36	1265,64
800,53	1243,12
800,71	1325,04
800,88	1175,53
801,06	1236,97
801,23	1329,13
801,41	1220,59
801,58	1255,40
801,75	1288,17
801,93	1288,17
802,10	1204,21
802,28	1234,93
802,45	1245,16
802,63	1339,37
802,80	1282,03
802,97	1216,49
803,15	1310,70
803,32	1249,26
803,50	1290,22
803,67	1247,21
803,84	1261,55
804,02	1253,36
804,19	1253,36
804,37	1243,12
804,54	1255,40
804,71	1292,27
804,89	1232,88
805,06	1206,25
805,24	1269,74
805,41	1208,30
805,58	1257,45
805,76	1265,64
805,93	1271,79
806,10	1255,40
806,28	1249,26
806,45	1312,75
806,63	1255,40
806,80	1247,21
806,97	1253,36
807,15	1277,93
807,32	1290,22
807,49	1271,79
807,67	1247,21
807,84	1253,36
808,01	1224,69
808,19	1236,97
808,36	1345,52
808,54	1288,17
808,71	1320,94
808,88	1247,21
809,06	1226,73
809,23	1241,07
809,40	1196,01
809,58	1265,64
809,75	1214,45
809,92	1239,02
810,10	1288,17
810,27	1239,02
810,44	1284,08
810,62	1290,22
810,79	1282,03
810,96	1300,46
811,14	1267,69
811,31	1269,74
811,48	1236,97
811,66	1269,74
811,83	1259,50
812,00	1216,49
812,18	1269,74
812,35	1263,60
812,52	1279,98
812,69	1279,98
812,87	1282,03
813,04	1236,97
813,21	1288,17
813,39	1226,73
813,56	1292,27
813,73	1279,98
813,91	1241,07
814,08	1214,45
814,25	1196,01
814,42	1261,55
814,60	1230,83
814,77	1294,32
814,94	1294,32
815,12	1261,55
815,29	1191,92
815,46	1243,12
815,63	1277,93
815,81	1333,23
815,98	1183,73
816,15	1286,12
816,33	1247,21
816,50	1335,28
816,67	1282,03
816,84	1230,83
817,02	1282,03
817,19	1318,89
817,36	1263,60
817,53	1245,16
817,71	1269,74
817,88	1245,16
818,05	1253,36
818,22	1236,97
818,40	1261,55
818,57	1222,64
818,74	1273,84
818,91	1236,97
819,09	1282,03
819,26	1216,49
819,43	1241,07
819,60	1288,17
819,78	1259,50
819,95	1275,88
820,12	1259,50
820,29	1359,85
820,47	1263,60
820,64	1214,45
820,81	1251,31
820,98	1347,56
821,15	1263,60
821,33	1191,92
821,50	1284,08
821,67	1255,40
821,84	1206,25
822,02	1333,23
822,19	1196,01
822,36	1300,46
822,53	1306,60
822,70	1259,50
822,88	1308,65
823,05	1325,04
823,22	1292,27
823,39	1265,64
823,56	1310,70
823,74	1312,75
823,91	1230,83
824,08	1263,60
824,25	1269,74
824,42	1282,03
824,60	1306,60
824,77	1210,35
824,94	1286,12
825,11	1259,50
825,28	1185,77
825,45	1308,65
825,63	1216,49
825,80	1249,26
825,97	1284,08
826,14	1239,02
826,31	1222,64
826,48	1312,75
826,66	1308,65
826,83	1288,17
827,00	1271,79
827,17	1320,94
827,34	1290,22
827,51	1255,40
827,69	1302,51
827,86	1200,11
828,03	1243,12
828,20	1245,16
828,37	1239,02
828,54	1277,93
828,71	1255,40
828,89	1247,21
829,06	1204,21
829,23	1316,84
829,40	1275,88
829,57	1290,22
829,74	1253,36
829,91	1296,36
830,09	1351,66
830,26	1296,36
830,43	1259,50
830,60	1234,93
830,77	1302,51
830,94	1247,21
831,11	1277,93
831,28	1245,16
831,46	1310,70
831,63	1273,84
831,80	1318,89
831,97	1298,41
832,14	1232,88
832,31	1259,50
832,48	1286,12
832,65	1253,36
832,82	1277,93
832,99	1271,79
833,17	1239,02
833,34	1224,69
833,51	1314,80
833,68	1253,36
833,85	1286,12
834,02	1290,22
834,19	1269,74
834,36	1230,83
834,53	1257,45
834,70	1249,26
834,87	1173,49
835,04	1271,79
835,22	1163,25
835,39	1216,49
835,56	1325,04
835,73	1185,77
835,90	1298,41
836,07	1267,69
836,24	1187,82
836,41	1286,12
836,58	1200,11
836,75	1322,99
836,92	1277,93
837,09	1257,45
837,26	1290,22
837,43	1345,52
837,60	1261,55
837,77	1310,70
837,94	1193,97
838,12	1259,50
838,29	1239,02
838,46	1247,21
838,63	1202,16
838,80	1273,84
838,97	1282,03
839,14	1310,70
839,31	1236,97
839,48	1257,45
839,65	1333,23
839,82	1249,26
839,99	1288,17
840,16	1255,40
840,33	1277,93
840,50	1288,17
840,67	1277,93
840,84	1218,54
841,01	1226,73
841,18	1226,73
841,35	1300,46
841,52	1263,60
841,69	1269,74
841,86	1234,93
842,03	1257,45
842,20	1255,40
842,37	1325,04
842,54	1277,93
842,71	1273,84
842,88	1292,27
843,05	1290,22
843,22	1312,75
843,39	1304,56
843,56	1228,78
843,73	1255,40
843,90	1259,50
844,07	1296,36
844,24	1253,36
844,41	1247,21
844,58	1259,50
844,75	1251,31
844,92	1234,93
845,09	1175,53
845,26	1202,16
845,43	1288,17
845,60	1290,22
845,77	1257,45
845,94	1226,73
846,10	1247,21
846,27	1282,03
846,44	1230,83
846,61	1253,36
846,78	1277,93
846,95	1181,68
847,12	1292,27
847,29	1243,12
847,46	1228,78
847,63	1261,55
847,80	1300,46
847,97	1345,52
848,14	1183,73
848,31	1234,93
848,48	1335,28
848,65	1179,63
848,82	1243,12
848,98	1333,23
849,15	1275,88
849,32	1261,55
849,49	1226,73
849,66	1300,46
849,83	1296,36
850,00	1249,26
850,17	1241,07
850,34	1249,26
850,51	1296,36
850,68	1277,93
850,85	1253,36
851,01	1234,93
851,18	1308,65
851,35	1249,26
851,52	1169,39
851,69	1249,26
851,86	1300,46
852,03	1292,27
852,20	1275,88
852,37	1337,32
852,53	1253,36
852,70	1314,80
852,87	1302,51
853,04	1212,40
853,21	1269,74
853,38	1304,56
853,55	1257,45
853,72	1279,98
853,89	1310,70
854,05	1249,26
854,22	1212,40
854,39	1277,93
854,56	1257,45
854,73	1212,40
854,90	1296,36
855,07	1251,31
855,23	1345,52
855,40	1290,22
855,57	1290,22
855,74	1310,70
855,91	1329,13
856,08	1222,64
856,25	1257,45
856,41	1255,40
856,58	1308,65
856,75	1273,84
856,92	1265,64
857,09	1247,21
857,26	1327,08
857,42	1267,69
857,59	1279,98
857,76	1228,78
857,93	1255,40
858,10	1333,23
858,27	1249,26
858,43	1204,21
858,60	1333,23
858,77	1275,88
858,94	1257,45
859,11	1232,88
859,27	1218,54
859,44	1257,45
859,61	1304,56
859,78	1277,93
859,95	1269,74
860,12	1251,31
860,28	1298,41
860,45	1236,97
860,62	1284,08
860,79	1241,07
860,95	1279,98
861,12	1175,53
861,29	1347,56
861,46	1265,64
861,63	1304,56
861,79	1282,03
861,96	1245,16
862,13	1343,47
862,30	1279,98
862,47	1204,21
862,63	1273,84
862,80	1284,08
862,97	1255,40
863,14	1320,94
863,30	1255,40
863,47	1294,32
863,64	1253,36
863,81	1327,08
863,97	1282,03
864,14	1150,96
864,31	1288,17
864,48	1271,79
864,65	1245,16
864,81	1249,26
864,98	1200,11
865,15	1290,22
865,32	1247,21
865,48	1273,84
865,65	1361,90
865,82	1269,74
865,98	1265,64
866,15	1277,93
866,32	1351,66
866,49	1312,75
866,65	1247,21
866,82	1290,22
866,99	1275,88
867,16	1263,60
867,32	1259,50
867,49	1183,73
867,66	1312,75
867,83	1255,40
867,99	1282,03
868,16	1255,40
868,33	1236,97
868,49	1312,75
868,66	1292,27
868,83	1249,26
868,99	1310,70
869,16	1269,74
869,33	1228,78
869,50	1279,98
869,66	1331,18
869,83	1353,71
870,00	1255,40
870,16	1308,65
870,33	1214,45
870,50	1290,22
870,66	1361,90
870,83	1312,75
871,00	1331,18
871,17	1306,60
871,33	1318,89
871,50	1265,64
871,67	1167,34
871,83	1331,18
872,00	1284,08
872,17	1335,28
872,33	1284,08
872,50	1335,28
872,67	1257,45
872,83	1298,41
873,00	1333,23
873,17	1325,04
873,33	1312,75
873,50	1275,88
873,67	1275,88
873,83	1241,07
874,00	1241,07
874,16	1284,08
874,33	1271,79
874,50	1273,84
874,66	1288,17
874,83	1267,69
875,00	1216,49
875,16	1261,55
875,33	1316,84
875,50	1212,40
875,66	1228,78
875,83	1257,45
875,99	1269,74
876,16	1253,36
876,33	1257,45
876,49	1243,12
876,66	1236,97
876,83	1249,26
876,99	1226,73
877,16	1308,65
877,32	1253,36
877,49	1218,54
877,66	1290,22
877,82	1259,50
877,99	1306,60
878,15	1265,64
878,32	1298,41
878,49	1290,22
878,65	1275,88
878,82	1284,08
878,98	1298,41
879,15	1325,04
879,32	1239,02
879,48	1222,64
879,65	1341,42
879,81	1263,60
879,98	1277,93
880,15	1275,88
880,31	1296,36
880,48	1273,84
880,64	1267,69
880,81	1269,74
880,97	1282,03
881,14	1241,07
881,31	1239,02
881,47	1228,78
881,64	1259,50
881,80	1277,93
881,97	1232,88
882,13	1191,92
882,30	1267,69
882,47	1216,49
882,63	1210,35
882,80	1177,58
882,96	1296,36
883,13	1343,47
883,29	1261,55
883,46	1300,46
883,62	1286,12
883,79	1271,79
883,95	1312,75
884,12	1355,76
884,29	1263,60
884,45	1288,17
884,62	1210,35
884,78	1284,08
884,95	1325,04
885,11	1261,55
885,28	1300,46
885,44	1261,55
885,61	1245,16
885,77	1224,69
885,94	1216,49
886,10	1210,35
886,27	1259,50
886,43	1253,36
886,60	1220,59
886,76	1230,83
886,93	1269,74
887,09	1245,16
887,26	1288,17
887,42	1232,88
887,59	1249,26
887,75	1218,54
887,92	1214,45
888,08	1255,40
888,25	1335,28
888,41	1148,91
888,58	1202,16
888,74	1241,07
888,91	1267,69
>>>>>End Processed Spectral Data<<<<<
