SpectraSuite Data File
++++++++++++++++++++++++++++++++++++
Date: Sun Apr 03 16:18:34 CEST 2016
User: root
Dark Spectrum Present: No
Reference Spectrum Present: No
Number of Sampled Component Spectra: 1
Spectrometers: USB4C02835
Integration Time (usec): 10000 (USB4C02835)
Spectra Averaged: 1 (USB4C02835)
Boxcar Smoothing: 0 (USB4C02835)
Correct for Electrical Dark: No (USB4C02835)
Strobe/Lamp Enabled: No (USB4C02835)
Correct for Detector Non-linearity: No (USB4C02835)
Correct for Stray Light: No (USB4C02835)
Number of Pixels in Processed Spectrum: 3648
>>>>>Begin Processed Spectral Data<<<<<
177,47	1236,97
177,69	1236,97
177,91	1236,97
178,13	1206,25
178,36	1273,84
178,58	1294,32
178,80	1331,18
179,02	1322,99
179,24	1232,88
179,46	1286,12
179,68	1255,40
179,90	1310,70
180,13	1286,12
180,35	1245,16
180,57	1273,84
180,79	1247,21
181,01	1251,31
181,23	1251,31
181,45	1236,97
181,67	1341,42
181,90	1196,01
182,12	1142,77
182,34	1271,79
182,56	1325,04
182,78	1255,40
183,00	1234,93
183,22	1253,36
183,44	1243,12
183,66	1282,03
183,89	1290,22
184,11	1286,12
184,33	1210,35
184,55	1306,60
184,77	1257,45
184,99	1271,79
185,21	1279,98
185,43	1267,69
185,65	1292,27
185,87	1236,97
186,10	1343,47
186,32	1251,31
186,54	1300,46
186,76	1286,12
186,98	1259,50
187,20	1273,84
187,42	1241,07
187,64	1327,08
187,86	1236,97
188,08	1294,32
188,30	1222,64
188,52	1222,64
188,75	1310,70
188,97	1279,98
189,19	1275,88
189,41	1200,11
189,63	1257,45
189,85	1296,36
190,07	1210,35
190,29	1288,17
190,51	1298,41
190,73	1236,97
190,95	1255,40
191,17	1267,69
191,39	1243,12
191,61	1320,94
191,84	1234,93
192,06	1261,55
192,28	1261,55
192,50	1273,84
192,72	1372,14
192,94	1298,41
193,16	1234,93
193,38	1282,03
193,60	1251,31
193,82	1245,16
194,04	1292,27
194,26	1273,84
194,48	1263,60
194,70	1298,41
194,92	1302,51
195,14	1290,22
195,36	1261,55
195,58	1267,69
195,80	1277,93
196,02	1267,69
196,24	1261,55
196,46	1288,17
196,69	1202,16
196,91	1284,08
197,13	1259,50
197,35	1243,12
197,57	1271,79
197,79	1206,25
198,01	1337,32
198,23	1245,16
198,45	1308,65
198,67	1261,55
198,89	1245,16
199,11	1290,22
199,33	1292,27
199,55	1347,56
199,77	1271,79
199,99	1269,74
200,21	1292,27
200,43	1228,78
200,65	1277,93
200,87	1288,17
201,09	1269,74
201,31	1265,64
201,53	1298,41
201,75	1234,93
201,97	1298,41
202,19	1265,64
202,41	1236,97
202,63	1325,04
202,85	1298,41
203,07	1200,11
203,29	1228,78
203,51	1312,75
203,73	1239,02
203,95	1236,97
204,17	1290,22
204,39	1335,28
204,61	1212,40
204,83	1214,45
205,05	1279,98
205,27	1275,88
205,49	1265,64
205,71	1208,30
205,93	1210,35
206,15	1189,87
206,37	1320,94
206,59	1255,40
206,81	1224,69
207,03	1216,49
207,25	1294,32
207,47	1296,36
207,69	1296,36
207,91	1302,51
208,13	1214,45
208,34	1181,68
208,56	1267,69
208,78	1214,45
209,00	1359,85
209,22	1312,75
209,44	1263,60
209,66	1230,83
209,88	1314,80
210,10	1271,79
210,32	1271,79
210,54	1263,60
210,76	1275,88
210,98	1247,21
211,20	1284,08
211,42	1200,11
211,64	1288,17
211,86	1282,03
212,08	1277,93
212,30	1232,88
212,52	1241,07
212,74	1275,88
212,96	1218,54
213,17	1230,83
213,39	1247,21
213,61	1239,02
213,83	1253,36
214,05	1228,78
214,27	1284,08
214,49	1181,68
214,71	1267,69
214,93	1318,89
215,15	1226,73
215,37	1239,02
215,59	1300,46
215,81	1247,21
216,03	1353,71
216,24	1273,84
216,46	1349,61
216,68	1261,55
216,90	1320,94
217,12	1245,16
217,34	1331,18
217,56	1239,02
217,78	1255,40
218,00	1331,18
218,22	1302,51
218,44	1277,93
218,66	1345,52
218,87	1302,51
219,09	1224,69
219,31	1304,56
219,53	1222,64
219,75	1230,83
219,97	1331,18
220,19	1277,93
220,41	1286,12
220,63	1239,02
220,85	1269,74
221,06	1277,93
221,28	1232,88
221,50	1243,12
221,72	1251,31
221,94	1273,84
222,16	1290,22
222,38	1239,02
222,60	1271,79
222,82	1273,84
223,03	1302,51
223,25	1331,18
223,47	1298,41
223,69	1312,75
223,91	1290,22
224,13	1329,13
224,35	1247,21
224,57	1275,88
224,78	1302,51
225,00	1284,08
225,22	1247,21
225,44	1214,45
225,66	1249,26
225,88	1249,26
226,10	1306,60
226,32	1236,97
226,53	1243,12
226,75	1314,80
226,97	1286,12
227,19	1253,36
227,41	1251,31
227,63	1366,00
227,85	1193,97
228,06	1329,13
228,28	1320,94
228,50	1226,73
228,72	1239,02
228,94	1257,45
229,16	1232,88
229,37	1292,27
229,59	1308,65
229,81	1214,45
230,03	1294,32
230,25	1214,45
230,47	1275,88
230,69	1271,79
230,90	1257,45
231,12	1253,36
231,34	1253,36
231,56	1325,04
231,78	1259,50
232,00	1306,60
232,21	1318,89
232,43	1239,02
232,65	1251,31
232,87	1265,64
233,09	1249,26
233,30	1257,45
233,52	1302,51
233,74	1286,12
233,96	1243,12
234,18	1343,47
234,40	1325,04
234,61	1247,21
234,83	1196,01
235,05	1259,50
235,27	1232,88
235,49	1296,36
235,70	1275,88
235,92	1282,03
236,14	1165,29
236,36	1277,93
236,58	1255,40
236,79	1357,80
237,01	1214,45
237,23	1314,80
237,45	1306,60
237,67	1245,16
237,88	1296,36
238,10	1290,22
238,32	1241,07
238,54	1234,93
238,76	1353,71
238,97	1273,84
239,19	1288,17
239,41	1296,36
239,63	1320,94
239,85	1255,40
240,06	1208,30
240,28	1275,88
240,50	1261,55
240,72	1279,98
240,93	1269,74
241,15	1314,80
241,37	1308,65
241,59	1257,45
241,81	1308,65
242,02	1259,50
242,24	1200,11
242,46	1282,03
242,68	1284,08
242,89	1259,50
243,11	1218,54
243,33	1292,27
243,55	1298,41
243,76	1265,64
243,98	1232,88
244,20	1366,00
244,42	1271,79
244,64	1239,02
244,85	1271,79
245,07	1327,08
245,29	1331,18
245,51	1314,80
245,72	1284,08
245,94	1322,99
246,16	1288,17
246,38	1296,36
246,59	1292,27
246,81	1306,60
247,03	1292,27
247,24	1302,51
247,46	1224,69
247,68	1257,45
247,90	1286,12
248,11	1236,97
248,33	1243,12
248,55	1298,41
248,77	1318,89
248,98	1275,88
249,20	1298,41
249,42	1273,84
249,64	1241,07
249,85	1286,12
250,07	1206,25
250,29	1302,51
250,50	1265,64
250,72	1247,21
250,94	1273,84
251,16	1265,64
251,37	1279,98
251,59	1288,17
251,81	1263,60
252,02	1249,26
252,24	1310,70
252,46	1339,37
252,68	1210,35
252,89	1234,93
253,11	1298,41
253,33	1329,13
253,54	1236,97
253,76	1318,89
253,98	1290,22
254,20	1277,93
254,41	1282,03
254,63	1236,97
254,85	1181,68
255,06	1316,84
255,28	1298,41
255,50	1220,59
255,71	1322,99
255,93	1269,74
256,15	1292,27
256,36	1282,03
256,58	1282,03
256,80	1314,80
257,02	1216,49
257,23	1218,54
257,45	1271,79
257,67	1247,21
257,88	1257,45
258,10	1267,69
258,32	1284,08
258,53	1296,36
258,75	1241,07
258,97	1359,85
259,18	1247,21
259,40	1347,56
259,62	1286,12
259,83	1271,79
260,05	1251,31
260,27	1294,32
260,48	1267,69
260,70	1241,07
260,92	1249,26
261,13	1251,31
261,35	1261,55
261,57	1290,22
261,78	1249,26
262,00	1259,50
262,22	1271,79
262,43	1304,56
262,65	1277,93
262,86	1261,55
263,08	1320,94
263,30	1234,93
263,51	1230,83
263,73	1284,08
263,95	1220,59
264,16	1304,56
264,38	1200,11
264,60	1314,80
264,81	1288,17
265,03	1290,22
265,25	1282,03
265,46	1267,69
265,68	1306,60
265,89	1296,36
266,11	1294,32
266,33	1222,64
266,54	1312,75
266,76	1298,41
266,98	1318,89
267,19	1279,98
267,41	1310,70
267,62	1296,36
267,84	1257,45
268,06	1257,45
268,27	1279,98
268,49	1263,60
268,70	1218,54
268,92	1284,08
269,14	1261,55
269,35	1314,80
269,57	1302,51
269,79	1325,04
270,00	1232,88
270,22	1234,93
270,43	1271,79
270,65	1296,36
270,87	1263,60
271,08	1259,50
271,30	1277,93
271,51	1239,02
271,73	1306,60
271,95	1288,17
272,16	1251,31
272,38	1292,27
272,59	1214,45
272,81	1253,36
273,02	1312,75
273,24	1322,99
273,46	1345,52
273,67	1206,25
273,89	1298,41
274,10	1349,61
274,32	1327,08
274,54	1261,55
274,75	1269,74
274,97	1312,75
275,18	1322,99
275,40	1232,88
275,61	1331,18
275,83	1265,64
276,05	1234,93
276,26	1288,17
276,48	1282,03
276,69	1267,69
276,91	1185,77
277,12	1263,60
277,34	1257,45
277,55	1163,25
277,77	1245,16
277,99	1249,26
278,20	1257,45
278,42	1290,22
278,63	1265,64
278,85	1386,47
279,06	1224,69
279,28	1218,54
279,49	1304,56
279,71	1302,51
279,93	1288,17
280,14	1269,74
280,36	1239,02
280,57	1335,28
280,79	1288,17
281,00	1318,89
281,22	1288,17
281,43	1267,69
281,65	1265,64
281,86	1279,98
282,08	1290,22
282,29	1253,36
282,51	1335,28
282,73	1308,65
282,94	1263,60
283,16	1212,40
283,37	1234,93
283,59	1357,80
283,80	1191,92
284,02	1206,25
284,23	1214,45
284,45	1187,82
284,66	1243,12
284,88	1279,98
285,09	1265,64
285,31	1339,37
285,52	1245,16
285,74	1232,88
285,95	1259,50
286,17	1286,12
286,38	1257,45
286,60	1255,40
286,81	1208,30
287,03	1302,51
287,24	1368,04
287,46	1322,99
287,67	1257,45
287,89	1241,07
288,10	1318,89
288,32	1290,22
288,53	1271,79
288,75	1292,27
288,96	1271,79
289,18	1232,88
289,39	1247,21
289,61	1333,23
289,82	1245,16
290,04	1257,45
290,25	1345,52
290,47	1269,74
290,68	1267,69
290,90	1282,03
291,11	1247,21
291,33	1241,07
291,54	1232,88
291,76	1290,22
291,97	1267,69
292,18	1290,22
292,40	1261,55
292,61	1298,41
292,83	1292,27
293,04	1224,69
293,26	1259,50
293,47	1249,26
293,69	1249,26
293,90	1279,98
294,12	1245,16
294,33	1271,79
294,55	1255,40
294,76	1245,16
294,97	1294,32
295,19	1228,78
295,40	1298,41
295,62	1306,60
295,83	1269,74
296,05	1279,98
296,26	1253,36
296,48	1259,50
296,69	1273,84
296,90	1273,84
297,12	1279,98
297,33	1329,13
297,55	1298,41
297,76	1298,41
297,98	1288,17
298,19	1320,94
298,41	1208,30
298,62	1261,55
298,83	1290,22
299,05	1265,64
299,26	1247,21
299,48	1267,69
299,69	1261,55
299,90	1294,32
300,12	1236,97
300,33	1263,60
300,55	1308,65
300,76	1314,80
300,98	1243,12
301,19	1277,93
301,40	1347,56
301,62	1218,54
301,83	1318,89
302,05	1279,98
302,26	1239,02
302,47	1271,79
302,69	1343,47
302,90	1320,94
303,12	1341,42
303,33	1275,88
303,54	1234,93
303,76	1275,88
303,97	1310,70
304,19	1304,56
304,40	1277,93
304,61	1320,94
304,83	1236,97
305,04	1294,32
305,26	1245,16
305,47	1234,93
305,68	1327,08
305,90	1347,56
306,11	1335,28
306,33	1314,80
306,54	1296,36
306,75	1273,84
306,97	1290,22
307,18	1314,80
307,39	1304,56
307,61	1269,74
307,82	1265,64
308,04	1284,08
308,25	1355,76
308,46	1331,18
308,68	1310,70
308,89	1228,78
309,10	1290,22
309,32	1290,22
309,53	1351,66
309,74	1243,12
309,96	1200,11
310,17	1312,75
310,39	1226,73
310,60	1290,22
310,81	1224,69
311,03	1263,60
311,24	1337,32
311,45	1347,56
311,67	1234,93
311,88	1234,93
312,09	1261,55
312,31	1263,60
312,52	1214,45
312,73	1236,97
312,95	1222,64
313,16	1327,08
313,37	1241,07
313,59	1232,88
313,80	1261,55
314,01	1312,75
314,23	1314,80
314,44	1257,45
314,65	1251,31
314,87	1191,92
315,08	1245,16
315,29	1351,66
315,51	1304,56
315,72	1273,84
315,93	1288,17
316,15	1236,97
316,36	1300,46
316,57	1261,55
316,79	1200,11
317,00	1282,03
317,21	1249,26
317,43	1255,40
317,64	1220,59
317,85	1290,22
318,07	1318,89
318,28	1277,93
318,49	1310,70
318,70	1243,12
318,92	1243,12
319,13	1232,88
319,34	1282,03
319,56	1222,64
319,77	1306,60
319,98	1288,17
320,20	1300,46
320,41	1261,55
320,62	1290,22
320,83	1257,45
321,05	1232,88
321,26	1320,94
321,47	1300,46
321,69	1255,40
321,90	1200,11
322,11	1310,70
322,32	1310,70
322,54	1267,69
322,75	1294,32
322,96	1255,40
323,18	1249,26
323,39	1314,80
323,60	1282,03
323,81	1265,64
324,03	1245,16
324,24	1302,51
324,45	1282,03
324,66	1337,32
324,88	1353,71
325,09	1232,88
325,30	1255,40
325,52	1220,59
325,73	1226,73
325,94	1271,79
326,15	1247,21
326,37	1255,40
326,58	1288,17
326,79	1241,07
327,00	1247,21
327,22	1269,74
327,43	1247,21
327,64	1269,74
327,85	1292,27
328,07	1290,22
328,28	1263,60
328,49	1230,83
328,70	1210,35
328,92	1282,03
329,13	1296,36
329,34	1208,30
329,55	1327,08
329,76	1279,98
329,98	1300,46
330,19	1294,32
330,40	1224,69
330,61	1282,03
330,83	1220,59
331,04	1314,80
331,25	1212,40
331,46	1400,81
331,68	1298,41
331,89	1193,97
332,10	1273,84
332,31	1261,55
332,52	1288,17
332,74	1243,12
332,95	1228,78
333,16	1208,30
333,37	1300,46
333,58	1306,60
333,80	1366,00
334,01	1243,12
334,22	1220,59
334,43	1208,30
334,64	1279,98
334,86	1253,36
335,07	1286,12
335,28	1292,27
335,49	1259,50
335,70	1263,60
335,92	1255,40
336,13	1265,64
336,34	1222,64
336,55	1239,02
336,76	1257,45
336,98	1267,69
337,19	1265,64
337,40	1204,21
337,61	1300,46
337,82	1279,98
338,04	1212,40
338,25	1273,84
338,46	1279,98
338,67	1243,12
338,88	1275,88
339,09	1314,80
339,31	1282,03
339,52	1290,22
339,73	1267,69
339,94	1363,95
340,15	1300,46
340,36	1249,26
340,58	1310,70
340,79	1290,22
341,00	1247,21
341,21	1296,36
341,42	1282,03
341,63	1277,93
341,85	1282,03
342,06	1255,40
342,27	1286,12
342,48	1193,97
342,69	1290,22
342,90	1261,55
343,12	1269,74
343,33	1247,21
343,54	1198,06
343,75	1228,78
343,96	1284,08
344,17	1245,16
344,38	1294,32
344,60	1298,41
344,81	1255,40
345,02	1271,79
345,23	1241,07
345,44	1288,17
345,65	1322,99
345,86	1259,50
346,07	1290,22
346,29	1300,46
346,50	1255,40
346,71	1294,32
346,92	1284,08
347,13	1322,99
347,34	1273,84
347,55	1255,40
347,76	1265,64
347,98	1239,02
348,19	1277,93
348,40	1331,18
348,61	1298,41
348,82	1259,50
349,03	1220,59
349,24	1279,98
349,45	1210,35
349,66	1308,65
349,88	1296,36
350,09	1216,49
350,30	1251,31
350,51	1314,80
350,72	1236,97
350,93	1261,55
351,14	1253,36
351,35	1275,88
351,56	1322,99
351,77	1298,41
351,99	1179,63
352,20	1257,45
352,41	1208,30
352,62	1290,22
352,83	1286,12
353,04	1214,45
353,25	1271,79
353,46	1171,44
353,67	1216,49
353,88	1304,56
354,09	1198,06
354,30	1310,70
354,52	1275,88
354,73	1263,60
354,94	1232,88
355,15	1288,17
355,36	1271,79
355,57	1191,92
355,78	1314,80
355,99	1259,50
356,20	1273,84
356,41	1277,93
356,62	1294,32
356,83	1230,83
357,04	1253,36
357,25	1286,12
357,46	1286,12
357,68	1302,51
357,89	1208,30
358,10	1288,17
358,31	1269,74
358,52	1304,56
358,73	1253,36
358,94	1255,40
359,15	1267,69
359,36	1355,76
359,57	1224,69
359,78	1271,79
359,99	1261,55
360,20	1277,93
360,41	1302,51
360,62	1255,40
360,83	1275,88
361,04	1316,84
361,25	1282,03
361,46	1304,56
361,67	1308,65
361,88	1312,75
362,09	1279,98
362,30	1308,65
362,51	1286,12
362,72	1314,80
362,93	1263,60
363,14	1261,55
363,35	1279,98
363,56	1253,36
363,78	1257,45
363,99	1282,03
364,20	1286,12
364,41	1298,41
364,62	1304,56
364,83	1282,03
365,04	1265,64
365,25	1273,84
365,46	1300,46
365,67	1243,12
365,88	1269,74
366,09	1322,99
366,30	1257,45
366,51	1296,36
366,72	1290,22
366,93	1304,56
367,14	1255,40
367,35	1290,22
367,56	1306,60
367,77	1304,56
367,98	1292,27
368,18	1331,18
368,39	1314,80
368,60	1349,61
368,81	1222,64
369,02	1245,16
369,23	1247,21
369,44	1298,41
369,65	1294,32
369,86	1314,80
370,07	1249,26
370,28	1224,69
370,49	1214,45
370,70	1310,70
370,91	1243,12
371,12	1292,27
371,33	1214,45
371,54	1253,36
371,75	1282,03
371,96	1273,84
372,17	1306,60
372,38	1241,07
372,59	1302,51
372,80	1294,32
373,01	1269,74
373,22	1288,17
373,43	1310,70
373,64	1255,40
373,85	1290,22
374,06	1277,93
374,26	1273,84
374,47	1292,27
374,68	1282,03
374,89	1208,30
375,10	1222,64
375,31	1279,98
375,52	1261,55
375,73	1245,16
375,94	1257,45
376,15	1261,55
376,36	1247,21
376,57	1232,88
376,78	1232,88
376,99	1236,97
377,20	1314,80
377,40	1232,88
377,61	1286,12
377,82	1230,83
378,03	1245,16
378,24	1331,18
378,45	1241,07
378,66	1214,45
378,87	1175,53
379,08	1204,21
379,29	1304,56
379,50	1202,16
379,71	1249,26
379,91	1286,12
380,12	1265,64
380,33	1243,12
380,54	1279,98
380,75	1247,21
380,96	1302,51
381,17	1279,98
381,38	1255,40
381,59	1253,36
381,80	1327,08
382,00	1298,41
382,21	1282,03
382,42	1318,89
382,63	1259,50
382,84	1226,73
383,05	1298,41
383,26	1265,64
383,47	1251,31
383,68	1331,18
383,88	1284,08
384,09	1341,42
384,30	1277,93
384,51	1296,36
384,72	1220,59
384,93	1292,27
385,14	1245,16
385,35	1294,32
385,55	1331,18
385,76	1220,59
385,97	1214,45
386,18	1304,56
386,39	1224,69
386,60	1347,56
386,81	1325,04
387,02	1306,60
387,22	1245,16
387,43	1239,02
387,64	1255,40
387,85	1249,26
388,06	1265,64
388,27	1234,93
388,48	1241,07
388,68	1275,88
388,89	1212,40
389,10	1187,82
389,31	1271,79
389,52	1253,36
389,73	1249,26
389,93	1267,69
390,14	1273,84
390,35	1304,56
390,56	1239,02
390,77	1218,54
390,98	1282,03
391,18	1167,34
391,39	1302,51
391,60	1284,08
391,81	1251,31
392,02	1279,98
392,23	1271,79
392,43	1277,93
392,64	1335,28
392,85	1277,93
393,06	1263,60
393,27	1298,41
393,47	1286,12
393,68	1294,32
393,89	1286,12
394,10	1345,52
394,31	1245,16
394,52	1306,60
394,72	1273,84
394,93	1228,78
395,14	1294,32
395,35	1286,12
395,56	1234,93
395,76	1308,65
395,97	1202,16
396,18	1247,21
396,39	1271,79
396,60	1372,14
396,80	1224,69
397,01	1247,21
397,22	1284,08
397,43	1363,95
397,64	1353,71
397,84	1263,60
398,05	1208,30
398,26	1257,45
398,47	1275,88
398,67	1314,80
398,88	1327,08
399,09	1243,12
399,30	1290,22
399,51	1241,07
399,71	1269,74
399,92	1261,55
400,13	1241,07
400,34	1261,55
400,54	1196,01
400,75	1306,60
400,96	1241,07
401,17	1249,26
401,37	1198,06
401,58	1259,50
401,79	1316,84
402,00	1265,64
402,21	1286,12
402,41	1292,27
402,62	1282,03
402,83	1234,93
403,04	1271,79
403,24	1290,22
403,45	1325,04
403,66	1253,36
403,87	1284,08
404,07	1310,70
404,28	1261,55
404,49	1341,42
404,70	1265,64
404,90	1286,12
405,11	1232,88
405,32	1253,36
405,52	1226,73
405,73	1298,41
405,94	1271,79
406,15	1314,80
406,35	1245,16
406,56	1290,22
406,77	1239,02
406,98	1294,32
407,18	1245,16
407,39	1316,84
407,60	1267,69
407,80	1202,16
408,01	1312,75
408,22	1193,97
408,43	1239,02
408,63	1191,92
408,84	1335,28
409,05	1322,99
409,25	1279,98
409,46	1296,36
409,67	1282,03
409,88	1314,80
410,08	1185,77
410,29	1316,84
410,50	1224,69
410,70	1288,17
410,91	1282,03
411,12	1241,07
411,32	1308,65
411,53	1302,51
411,74	1259,50
411,95	1279,98
412,15	1327,08
412,36	1224,69
412,57	1243,12
412,77	1286,12
412,98	1312,75
413,19	1310,70
413,39	1253,36
413,60	1298,41
413,81	1177,58
414,01	1345,52
414,22	1220,59
414,43	1355,76
414,63	1294,32
414,84	1222,64
415,05	1247,21
415,25	1200,11
415,46	1267,69
415,67	1306,60
415,87	1329,13
416,08	1277,93
416,29	1316,84
416,49	1277,93
416,70	1273,84
416,91	1259,50
417,11	1271,79
417,32	1255,40
417,53	1241,07
417,73	1318,89
417,94	1273,84
418,15	1212,40
418,35	1245,16
418,56	1304,56
418,77	1290,22
418,97	1329,13
419,18	1298,41
419,38	1306,60
419,59	1275,88
419,80	1290,22
420,00	1210,35
420,21	1300,46
420,42	1327,08
420,62	1257,45
420,83	1302,51
421,04	1372,14
421,24	1220,59
421,45	1335,28
421,65	1277,93
421,86	1261,55
422,07	1357,80
422,27	1306,60
422,48	1234,93
422,69	1312,75
422,89	1296,36
423,10	1257,45
423,30	1200,11
423,51	1310,70
423,72	1224,69
423,92	1290,22
424,13	1282,03
424,33	1312,75
424,54	1265,64
424,75	1282,03
424,95	1275,88
425,16	1224,69
425,36	1271,79
425,57	1245,16
425,78	1314,80
425,98	1279,98
426,19	1222,64
426,39	1279,98
426,60	1216,49
426,81	1206,25
427,01	1241,07
427,22	1302,51
427,42	1300,46
427,63	1296,36
427,83	1294,32
428,04	1239,02
428,25	1294,32
428,45	1251,31
428,66	1333,23
428,86	1282,03
429,07	1341,42
429,28	1249,26
429,48	1286,12
429,69	1331,18
429,89	1175,53
430,10	1345,52
430,30	1230,83
430,51	1226,73
430,71	1310,70
430,92	1279,98
431,13	1288,17
431,33	1300,46
431,54	1273,84
431,74	1212,40
431,95	1284,08
432,15	1228,78
432,36	1308,65
432,56	1288,17
432,77	1265,64
432,98	1275,88
433,18	1271,79
433,39	1261,55
433,59	1261,55
433,80	1378,28
434,00	1230,83
434,21	1224,69
434,41	1241,07
434,62	1267,69
434,82	1286,12
435,03	1286,12
435,23	1257,45
435,44	1249,26
435,64	1222,64
435,85	1308,65
436,06	1200,11
436,26	1265,64
436,47	1294,32
436,67	1261,55
436,88	1304,56
437,08	1308,65
437,29	1261,55
437,49	1265,64
437,70	1247,21
437,90	1230,83
438,11	1359,85
438,31	1304,56
438,52	1282,03
438,72	1212,40
438,93	1261,55
439,13	1247,21
439,34	1228,78
439,54	1339,37
439,75	1380,33
439,95	1312,75
440,16	1282,03
440,36	1292,27
440,57	1239,02
440,77	1304,56
440,98	1247,21
441,18	1394,67
441,39	1320,94
441,59	1275,88
441,80	1284,08
442,00	1273,84
442,21	1302,51
442,41	1232,88
442,62	1196,01
442,82	1267,69
443,02	1292,27
443,23	1232,88
443,43	1314,80
443,64	1228,78
443,84	1241,07
444,05	1351,66
444,25	1251,31
444,46	1275,88
444,66	1230,83
444,87	1255,40
445,07	1273,84
445,28	1279,98
445,48	1304,56
445,69	1294,32
445,89	1249,26
446,09	1292,27
446,30	1265,64
446,50	1279,98
446,71	1279,98
446,91	1263,60
447,12	1275,88
447,32	1312,75
447,53	1224,69
447,73	1277,93
447,93	1204,21
448,14	1241,07
448,34	1294,32
448,55	1228,78
448,75	1273,84
448,96	1284,08
449,16	1257,45
449,36	1269,74
449,57	1296,36
449,77	1261,55
449,98	1269,74
450,18	1228,78
450,39	1269,74
450,59	1241,07
450,79	1275,88
451,00	1261,55
451,20	1284,08
451,41	1312,75
451,61	1224,69
451,81	1345,52
452,02	1294,32
452,22	1304,56
452,43	1253,36
452,63	1249,26
452,84	1271,79
453,04	1228,78
453,24	1333,23
453,45	1271,79
453,65	1286,12
453,86	1355,76
454,06	1259,50
454,26	1302,51
454,47	1318,89
454,67	1306,60
454,87	1232,88
455,08	1294,32
455,28	1243,12
455,49	1335,28
455,69	1288,17
455,89	1275,88
456,10	1345,52
456,30	1279,98
456,51	1243,12
456,71	1279,98
456,91	1298,41
457,12	1267,69
457,32	1366,00
457,52	1249,26
457,73	1259,50
457,93	1333,23
458,14	1241,07
458,34	1279,98
458,54	1298,41
458,75	1279,98
458,95	1255,40
459,15	1247,21
459,36	1288,17
459,56	1279,98
459,76	1273,84
459,97	1236,97
460,17	1243,12
460,37	1279,98
460,58	1239,02
460,78	1273,84
460,99	1284,08
461,19	1263,60
461,39	1327,08
461,60	1251,31
461,80	1331,18
462,00	1343,47
462,21	1302,51
462,41	1251,31
462,61	1282,03
462,82	1253,36
463,02	1284,08
463,22	1232,88
463,43	1202,16
463,63	1255,40
463,83	1273,84
464,04	1232,88
464,24	1298,41
464,44	1220,59
464,64	1204,21
464,85	1306,60
465,05	1308,65
465,25	1226,73
465,46	1228,78
465,66	1212,40
465,86	1228,78
466,07	1271,79
466,27	1261,55
466,47	1243,12
466,68	1232,88
466,88	1284,08
467,08	1206,25
467,29	1339,37
467,49	1275,88
467,69	1294,32
467,89	1243,12
468,10	1228,78
468,30	1275,88
468,50	1230,83
468,71	1267,69
468,91	1304,56
469,11	1312,75
469,31	1288,17
469,52	1300,46
469,72	1257,45
469,92	1294,32
470,13	1316,84
470,33	1181,68
470,53	1279,98
470,73	1226,73
470,94	1253,36
471,14	1261,55
471,34	1279,98
471,54	1265,64
471,75	1269,74
471,95	1322,99
472,15	1273,84
472,36	1300,46
472,56	1265,64
472,76	1312,75
472,96	1263,60
473,17	1255,40
473,37	1331,18
473,57	1306,60
473,77	1234,93
473,98	1169,39
474,18	1183,73
474,38	1232,88
474,58	1228,78
474,79	1273,84
474,99	1259,50
475,19	1294,32
475,39	1292,27
475,60	1245,16
475,80	1296,36
476,00	1247,21
476,20	1341,42
476,41	1284,08
476,61	1259,50
476,81	1290,22
477,01	1245,16
477,21	1279,98
477,42	1380,33
477,62	1183,73
477,82	1331,18
478,02	1239,02
478,23	1400,81
478,43	1353,71
478,63	1241,07
478,83	1304,56
479,03	1251,31
479,24	1286,12
479,44	1306,60
479,64	1216,49
479,84	1230,83
480,04	1236,97
480,25	1198,06
480,45	1222,64
480,65	1322,99
480,85	1329,13
481,06	1294,32
481,26	1351,66
481,46	1314,80
481,66	1275,88
481,86	1329,13
482,06	1218,54
482,27	1261,55
482,47	1271,79
482,67	1304,56
482,87	1327,08
483,07	1320,94
483,28	1279,98
483,48	1284,08
483,68	1214,45
483,88	1296,36
484,08	1306,60
484,29	1298,41
484,49	1265,64
484,69	1308,65
484,89	1269,74
485,09	1302,51
485,29	1230,83
485,50	1288,17
485,70	1265,64
485,90	1249,26
486,10	1259,50
486,30	1312,75
486,50	1249,26
486,71	1263,60
486,91	1294,32
487,11	1265,64
487,31	1263,60
487,51	1292,27
487,71	1257,45
487,91	1341,42
488,12	1271,79
488,32	1183,73
488,52	1239,02
488,72	1339,37
488,92	1236,97
489,12	1325,04
489,32	1286,12
489,53	1261,55
489,73	1271,79
489,93	1292,27
490,13	1224,69
490,33	1400,81
490,53	1275,88
490,73	1322,99
490,94	1241,07
491,14	1282,03
491,34	1288,17
491,54	1239,02
491,74	1214,45
491,94	1265,64
492,14	1228,78
492,34	1284,08
492,54	1253,36
492,75	1314,80
492,95	1232,88
493,15	1277,93
493,35	1218,54
493,55	1318,89
493,75	1253,36
493,95	1273,84
494,15	1261,55
494,35	1275,88
494,56	1284,08
494,76	1302,51
494,96	1228,78
495,16	1247,21
495,36	1271,79
495,56	1214,45
495,76	1224,69
495,96	1304,56
496,16	1282,03
496,36	1402,86
496,56	1286,12
496,77	1261,55
496,97	1288,17
497,17	1331,18
497,37	1263,60
497,57	1277,93
497,77	1320,94
497,97	1273,84
498,17	1247,21
498,37	1212,40
498,57	1220,59
498,77	1296,36
498,97	1284,08
499,17	1361,90
499,38	1279,98
499,58	1206,25
499,78	1265,64
499,98	1236,97
500,18	1263,60
500,38	1241,07
500,58	1243,12
500,78	1271,79
500,98	1286,12
501,18	1259,50
501,38	1216,49
501,58	1282,03
501,78	1241,07
501,98	1290,22
502,18	1288,17
502,38	1306,60
502,58	1290,22
502,78	1286,12
502,98	1249,26
503,18	1275,88
503,38	1241,07
503,59	1275,88
503,79	1290,22
503,99	1267,69
504,19	1296,36
504,39	1292,27
504,59	1294,32
504,79	1277,93
504,99	1298,41
505,19	1298,41
505,39	1224,69
505,59	1292,27
505,79	1198,06
505,99	1308,65
506,19	1298,41
506,39	1218,54
506,59	1251,31
506,79	1275,88
506,99	1202,16
507,19	1269,74
507,39	1306,60
507,59	1210,35
507,79	1241,07
507,99	1249,26
508,19	1314,80
508,39	1286,12
508,59	1253,36
508,79	1351,66
508,99	1298,41
509,19	1265,64
509,39	1298,41
509,59	1296,36
509,79	1200,11
509,99	1277,93
510,19	1245,16
510,39	1269,74
510,59	1193,97
510,79	1257,45
510,99	1204,21
511,19	1212,40
511,39	1331,18
511,59	1320,94
511,79	1226,73
511,99	1228,78
512,19	1226,73
512,38	1261,55
512,58	1236,97
512,78	1220,59
512,98	1198,06
513,18	1288,17
513,38	1259,50
513,58	1277,93
513,78	1300,46
513,98	1243,12
514,18	1224,69
514,38	1349,61
514,58	1255,40
514,78	1277,93
514,98	1196,01
515,18	1327,08
515,38	1316,84
515,58	1245,16
515,78	1251,31
515,98	1263,60
516,18	1349,61
516,38	1329,13
516,57	1257,45
516,77	1228,78
516,97	1298,41
517,17	1263,60
517,37	1282,03
517,57	1279,98
517,77	1189,87
517,97	1239,02
518,17	1269,74
518,37	1204,21
518,57	1333,23
518,77	1265,64
518,97	1247,21
519,16	1304,56
519,36	1341,42
519,56	1247,21
519,76	1343,47
519,96	1304,56
520,16	1322,99
520,36	1243,12
520,56	1187,82
520,76	1257,45
520,96	1277,93
521,16	1279,98
521,35	1277,93
521,55	1282,03
521,75	1253,36
521,95	1249,26
522,15	1267,69
522,35	1241,07
522,55	1265,64
522,75	1224,69
522,95	1273,84
523,14	1282,03
523,34	1296,36
523,54	1230,83
523,74	1286,12
523,94	1230,83
524,14	1271,79
524,34	1314,80
524,54	1259,50
524,73	1271,79
524,93	1247,21
525,13	1302,51
525,33	1310,70
525,53	1331,18
525,73	1257,45
525,93	1265,64
526,13	1236,97
526,32	1263,60
526,52	1284,08
526,72	1224,69
526,92	1327,08
527,12	1263,60
527,32	1310,70
527,52	1241,07
527,71	1261,55
527,91	1312,75
528,11	1296,36
528,31	1234,93
528,51	1224,69
528,71	1255,40
528,90	1300,46
529,10	1236,97
529,30	1224,69
529,50	1236,97
529,70	1312,75
529,90	1300,46
530,09	1306,60
530,29	1241,07
530,49	1257,45
530,69	1273,84
530,89	1294,32
531,09	1241,07
531,28	1290,22
531,48	1269,74
531,68	1343,47
531,88	1294,32
532,08	1212,40
532,28	1257,45
532,47	1249,26
532,67	1210,35
532,87	1273,84
533,07	1241,07
533,27	1222,64
533,46	1294,32
533,66	1177,58
533,86	1286,12
534,06	1277,93
534,26	1249,26
534,45	1284,08
534,65	1292,27
534,85	1282,03
535,05	1148,91
535,25	1259,50
535,44	1257,45
535,64	1296,36
535,84	1320,94
536,04	1259,50
536,24	1265,64
536,43	1208,30
536,63	1359,85
536,83	1279,98
537,03	1216,49
537,22	1277,93
537,42	1241,07
537,62	1312,75
537,82	1249,26
538,02	1290,22
538,21	1241,07
538,41	1331,18
538,61	1292,27
538,81	1312,75
539,00	1259,50
539,20	1282,03
539,40	1294,32
539,60	1249,26
539,79	1255,40
539,99	1277,93
540,19	1263,60
540,39	1247,21
540,58	1265,64
540,78	1343,47
540,98	1284,08
541,18	1269,74
541,37	1302,51
541,57	1216,49
541,77	1320,94
541,97	1253,36
542,16	1292,27
542,36	1255,40
542,56	1286,12
542,76	1249,26
542,95	1247,21
543,15	1282,03
543,35	1208,30
543,54	1236,97
543,74	1282,03
543,94	1284,08
544,14	1259,50
544,33	1265,64
544,53	1273,84
544,73	1247,21
544,93	1232,88
545,12	1304,56
545,32	1198,06
545,52	1255,40
545,71	1335,28
545,91	1253,36
546,11	1282,03
546,30	1263,60
546,50	1218,54
546,70	1265,64
546,90	1279,98
547,09	1208,30
547,29	1249,26
547,49	1273,84
547,68	1232,88
547,88	1277,93
548,08	1337,32
548,27	1255,40
548,47	1271,79
548,67	1304,56
548,87	1249,26
549,06	1243,12
549,26	1339,37
549,46	1279,98
549,65	1241,07
549,85	1241,07
550,05	1298,41
550,24	1222,64
550,44	1216,49
550,64	1267,69
550,83	1241,07
551,03	1245,16
551,23	1337,32
551,42	1196,01
551,62	1255,40
551,82	1200,11
552,01	1259,50
552,21	1302,51
552,41	1298,41
552,60	1267,69
552,80	1271,79
553,00	1273,84
553,19	1232,88
553,39	1271,79
553,59	1253,36
553,78	1243,12
553,98	1241,07
554,17	1204,21
554,37	1273,84
554,57	1267,69
554,76	1253,36
554,96	1253,36
555,16	1259,50
555,35	1306,60
555,55	1279,98
555,75	1189,87
555,94	1251,31
556,14	1292,27
556,33	1288,17
556,53	1290,22
556,73	1284,08
556,92	1284,08
557,12	1308,65
557,32	1214,45
557,51	1273,84
557,71	1255,40
557,90	1263,60
558,10	1288,17
558,30	1241,07
558,49	1279,98
558,69	1325,04
558,88	1298,41
559,08	1234,93
559,28	1243,12
559,47	1239,02
559,67	1267,69
559,86	1292,27
560,06	1224,69
560,26	1271,79
560,45	1282,03
560,65	1292,27
560,84	1308,65
561,04	1288,17
561,24	1234,93
561,43	1241,07
561,63	1214,45
561,82	1304,56
562,02	1222,64
562,22	1255,40
562,41	1296,36
562,61	1302,51
562,80	1290,22
563,00	1288,17
563,19	1216,49
563,39	1322,99
563,59	1277,93
563,78	1284,08
563,98	1261,55
564,17	1202,16
564,37	1241,07
564,56	1196,01
564,76	1292,27
564,96	1302,51
565,15	1310,70
565,35	1290,22
565,54	1288,17
565,74	1312,75
565,93	1230,83
566,13	1241,07
566,32	1249,26
566,52	1282,03
566,71	1191,92
566,91	1314,80
567,11	1236,97
567,30	1234,93
567,50	1243,12
567,69	1236,97
567,89	1226,73
568,08	1187,82
568,28	1241,07
568,47	1204,21
568,67	1224,69
568,86	1206,25
569,06	1273,84
569,25	1296,36
569,45	1243,12
569,64	1263,60
569,84	1290,22
570,04	1271,79
570,23	1226,73
570,43	1241,07
570,62	1232,88
570,82	1279,98
571,01	1337,32
571,21	1261,55
571,40	1259,50
571,60	1288,17
571,79	1290,22
571,99	1263,60
572,18	1200,11
572,38	1257,45
572,57	1253,36
572,77	1253,36
572,96	1204,21
573,16	1230,83
573,35	1310,70
573,55	1322,99
573,74	1165,29
573,94	1302,51
574,13	1218,54
574,33	1273,84
574,52	1245,16
574,71	1347,56
574,91	1269,74
575,10	1249,26
575,30	1269,74
575,49	1263,60
575,69	1279,98
575,88	1298,41
576,08	1243,12
576,27	1251,31
576,47	1279,98
576,66	1275,88
576,86	1239,02
577,05	1273,84
577,25	1282,03
577,44	1320,94
577,64	1296,36
577,83	1261,55
578,02	1218,54
578,22	1347,56
578,41	1269,74
578,61	1232,88
578,80	1357,80
579,00	1275,88
579,19	1253,36
579,39	1300,46
579,58	1193,97
579,77	1243,12
579,97	1322,99
580,16	1230,83
580,36	1331,18
580,55	1306,60
580,75	1261,55
580,94	1275,88
581,13	1279,98
581,33	1259,50
581,52	1253,36
581,72	1265,64
581,91	1257,45
582,11	1282,03
582,30	1222,64
582,49	1331,18
582,69	1255,40
582,88	1306,60
583,08	1236,97
583,27	1249,26
583,47	1196,01
583,66	1329,13
583,85	1312,75
584,05	1239,02
584,24	1310,70
584,44	1366,00
584,63	1290,22
584,82	1288,17
585,02	1263,60
585,21	1253,36
585,41	1300,46
585,60	1245,16
585,79	1243,12
585,99	1294,32
586,18	1286,12
586,37	1255,40
586,57	1251,31
586,76	1206,25
586,96	1226,73
587,15	1333,23
587,34	1259,50
587,54	1279,98
587,73	1265,64
587,93	1302,51
588,12	1255,40
588,31	1314,80
588,51	1302,51
588,70	1349,61
588,89	1308,65
589,09	1286,12
589,28	1322,99
589,47	1294,32
589,67	1261,55
589,86	1370,09
590,06	1220,59
590,25	1253,36
590,44	1298,41
590,64	1322,99
590,83	1247,21
591,02	1214,45
591,22	1290,22
591,41	1339,37
591,60	1245,16
591,80	1310,70
591,99	1224,69
592,18	1239,02
592,38	1208,30
592,57	1259,50
592,76	1282,03
592,96	1312,75
593,15	1251,31
593,34	1296,36
593,54	1339,37
593,73	1322,99
593,92	1320,94
594,12	1363,95
594,31	1232,88
594,50	1265,64
594,70	1312,75
594,89	1239,02
595,08	1259,50
595,28	1380,33
595,47	1277,93
595,66	1249,26
595,86	1236,97
596,05	1257,45
596,24	1300,46
596,43	1282,03
596,63	1265,64
596,82	1306,60
597,01	1216,49
597,21	1173,49
597,40	1261,55
597,59	1269,74
597,79	1228,78
597,98	1320,94
598,17	1382,38
598,36	1261,55
598,56	1239,02
598,75	1267,69
598,94	1241,07
599,14	1239,02
599,33	1279,98
599,52	1216,49
599,71	1302,51
599,91	1318,89
600,10	1296,36
600,29	1288,17
600,48	1257,45
600,68	1249,26
600,87	1306,60
601,06	1265,64
601,26	1247,21
601,45	1314,80
601,64	1282,03
601,83	1275,88
602,03	1275,88
602,22	1243,12
602,41	1269,74
602,60	1296,36
602,80	1253,36
602,99	1216,49
603,18	1306,60
603,37	1275,88
603,57	1320,94
603,76	1259,50
603,95	1298,41
604,14	1220,59
604,34	1310,70
604,53	1255,40
604,72	1312,75
604,91	1298,41
605,10	1261,55
605,30	1282,03
605,49	1361,90
605,68	1318,89
605,87	1259,50
606,07	1267,69
606,26	1275,88
606,45	1279,98
606,64	1259,50
606,84	1345,52
607,03	1144,81
607,22	1226,73
607,41	1288,17
607,60	1200,11
607,80	1259,50
607,99	1282,03
608,18	1239,02
608,37	1290,22
608,56	1261,55
608,76	1316,84
608,95	1286,12
609,14	1298,41
609,33	1259,50
609,52	1251,31
609,72	1239,02
609,91	1337,32
610,10	1202,16
610,29	1228,78
610,48	1239,02
610,68	1288,17
610,87	1263,60
611,06	1265,64
611,25	1314,80
611,44	1204,21
611,63	1208,30
611,83	1247,21
612,02	1226,73
612,21	1292,27
612,40	1273,84
612,59	1255,40
612,79	1308,65
612,98	1327,08
613,17	1320,94
613,36	1239,02
613,55	1290,22
613,74	1222,64
613,93	1249,26
614,13	1306,60
614,32	1226,73
614,51	1298,41
614,70	1263,60
614,89	1259,50
615,08	1220,59
615,28	1325,04
615,47	1230,83
615,66	1228,78
615,85	1290,22
616,04	1308,65
616,23	1288,17
616,42	1329,13
616,62	1210,35
616,81	1255,40
617,00	1345,52
617,19	1290,22
617,38	1198,06
617,57	1267,69
617,76	1296,36
617,95	1214,45
618,15	1290,22
618,34	1327,08
618,53	1271,79
618,72	1314,80
618,91	1320,94
619,10	1247,21
619,29	1294,32
619,48	1200,11
619,68	1292,27
619,87	1368,04
620,06	1269,74
620,25	1298,41
620,44	1349,61
620,63	1300,46
620,82	1310,70
621,01	1273,84
621,20	1290,22
621,39	1282,03
621,59	1263,60
621,78	1294,32
621,97	1312,75
622,16	1249,26
622,35	1310,70
622,54	1298,41
622,73	1239,02
622,92	1304,56
623,11	1216,49
623,30	1275,88
623,49	1273,84
623,68	1269,74
623,88	1210,35
624,07	1271,79
624,26	1306,60
624,45	1265,64
624,64	1245,16
624,83	1257,45
625,02	1335,28
625,21	1275,88
625,40	1290,22
625,59	1288,17
625,78	1279,98
625,97	1404,91
626,16	1308,65
626,35	1273,84
626,54	1277,93
626,74	1325,04
626,93	1318,89
627,12	1275,88
627,31	1290,22
627,50	1343,47
627,69	1273,84
627,88	1288,17
628,07	1290,22
628,26	1298,41
628,45	1325,04
628,64	1282,03
628,83	1275,88
629,02	1290,22
629,21	1265,64
629,40	1253,36
629,59	1271,79
629,78	1247,21
629,97	1298,41
630,16	1269,74
630,35	1290,22
630,54	1322,99
630,73	1302,51
630,92	1347,56
631,11	1257,45
631,30	1327,08
631,49	1292,27
631,68	1382,38
631,87	1449,96
632,06	1439,72
632,25	1406,95
632,44	1333,23
632,63	1398,76
632,82	1386,47
633,01	1456,11
633,20	1402,86
633,39	1437,67
633,58	1421,29
633,77	1445,87
633,96	1437,67
634,15	1511,40
634,34	1425,39
634,53	1478,63
634,72	1503,21
634,91	1476,59
635,10	1406,95
635,29	1423,34
635,48	1368,04
635,67	1394,67
635,86	1402,86
636,05	1392,62
636,24	1384,43
636,43	1384,43
636,62	1452,01
636,81	1359,85
637,00	1351,66
637,19	1374,19
637,38	1284,08
637,57	1331,18
637,76	1269,74
637,95	1363,95
638,14	1372,14
638,33	1279,98
638,52	1351,66
638,71	1259,50
638,89	1269,74
639,08	1277,93
639,27	1279,98
639,46	1257,45
639,65	1277,93
639,84	1261,55
640,03	1224,69
640,22	1265,64
640,41	1353,71
640,60	1308,65
640,79	1298,41
640,98	1329,13
641,17	1279,98
641,36	1351,66
641,55	1216,49
641,74	1210,35
641,92	1282,03
642,11	1359,85
642,30	1304,56
642,49	1290,22
642,68	1273,84
642,87	1359,85
643,06	1241,07
643,25	1234,93
643,44	1259,50
643,63	1331,18
643,82	1275,88
644,00	1230,83
644,19	1279,98
644,38	1277,93
644,57	1261,55
644,76	1329,13
644,95	1298,41
645,14	1302,51
645,33	1345,52
645,52	1234,93
645,71	1320,94
645,89	1273,84
646,08	1210,35
646,27	1239,02
646,46	1218,54
646,65	1310,70
646,84	1273,84
647,03	1208,30
647,22	1306,60
647,40	1368,04
647,59	1282,03
647,78	1200,11
647,97	1265,64
648,16	1222,64
648,35	1261,55
648,54	1302,51
648,73	1343,47
648,91	1298,41
649,10	1357,80
649,29	1218,54
649,48	1265,64
649,67	1273,84
649,86	1347,56
650,05	1239,02
650,23	1279,98
650,42	1298,41
650,61	1363,95
650,80	1247,21
650,99	1306,60
651,18	1236,97
651,36	1263,60
651,55	1286,12
651,74	1208,30
651,93	1253,36
652,12	1341,42
652,31	1349,61
652,49	1298,41
652,68	1261,55
652,87	1349,61
653,06	1220,59
653,25	1249,26
653,44	1277,93
653,62	1263,60
653,81	1273,84
654,00	1306,60
654,19	1263,60
654,38	1271,79
654,56	1302,51
654,75	1257,45
654,94	1327,08
655,13	1275,88
655,32	1298,41
655,51	1279,98
655,69	1249,26
655,88	1243,12
656,07	1261,55
656,26	1202,16
656,45	1263,60
656,63	1288,17
656,82	1257,45
657,01	1294,32
657,20	1249,26
657,38	1345,52
657,57	1314,80
657,76	1230,83
657,95	1208,30
658,14	1236,97
658,32	1284,08
658,51	1265,64
658,70	1273,84
658,89	1255,40
659,08	1275,88
659,26	1312,75
659,45	1310,70
659,64	1267,69
659,83	1253,36
660,01	1234,93
660,20	1279,98
660,39	1296,36
660,58	1206,25
660,76	1267,69
660,95	1290,22
661,14	1228,78
661,33	1245,16
661,51	1304,56
661,70	1249,26
661,89	1269,74
662,08	1300,46
662,26	1372,14
662,45	1282,03
662,64	1214,45
662,83	1228,78
663,01	1193,97
663,20	1304,56
663,39	1181,68
663,58	1290,22
663,76	1202,16
663,95	1304,56
664,14	1314,80
664,32	1236,97
664,51	1247,21
664,70	1271,79
664,89	1208,30
665,07	1247,21
665,26	1239,02
665,45	1228,78
665,64	1273,84
665,82	1222,64
666,01	1292,27
666,20	1316,84
666,38	1277,93
666,57	1216,49
666,76	1230,83
666,95	1245,16
667,13	1261,55
667,32	1345,52
667,51	1304,56
667,69	1226,73
667,88	1239,02
668,07	1306,60
668,25	1300,46
668,44	1249,26
668,63	1263,60
668,81	1226,73
669,00	1224,69
669,19	1296,36
669,38	1257,45
669,56	1263,60
669,75	1243,12
669,94	1296,36
670,12	1216,49
670,31	1300,46
670,50	1288,17
670,68	1247,21
670,87	1222,64
671,06	1292,27
671,24	1277,93
671,43	1253,36
671,62	1251,31
671,80	1255,40
671,99	1257,45
672,18	1257,45
672,36	1189,87
672,55	1310,70
672,74	1269,74
672,92	1318,89
673,11	1273,84
673,29	1239,02
673,48	1251,31
673,67	1267,69
673,85	1265,64
674,04	1284,08
674,23	1296,36
674,41	1247,21
674,60	1320,94
674,79	1269,74
674,97	1294,32
675,16	1255,40
675,34	1286,12
675,53	1290,22
675,72	1316,84
675,90	1261,55
676,09	1279,98
676,28	1224,69
676,46	1271,79
676,65	1253,36
676,83	1257,45
677,02	1253,36
677,21	1253,36
677,39	1187,82
677,58	1232,88
677,77	1271,79
677,95	1267,69
678,14	1263,60
678,32	1318,89
678,51	1243,12
678,70	1314,80
678,88	1224,69
679,07	1232,88
679,25	1275,88
679,44	1310,70
679,63	1206,25
679,81	1226,73
680,00	1275,88
680,18	1275,88
680,37	1241,07
680,55	1284,08
680,74	1267,69
680,93	1363,95
681,11	1318,89
681,30	1253,36
681,48	1261,55
681,67	1327,08
681,85	1275,88
682,04	1181,68
682,23	1261,55
682,41	1282,03
682,60	1294,32
682,78	1148,91
682,97	1265,64
683,15	1241,07
683,34	1206,25
683,53	1351,66
683,71	1255,40
683,90	1290,22
684,08	1249,26
684,27	1286,12
684,45	1339,37
684,64	1277,93
684,82	1222,64
685,01	1255,40
685,19	1243,12
685,38	1269,74
685,57	1306,60
685,75	1337,32
685,94	1232,88
686,12	1251,31
686,31	1198,06
686,49	1263,60
686,68	1198,06
686,86	1290,22
687,05	1253,36
687,23	1331,18
687,42	1253,36
687,60	1282,03
687,79	1290,22
687,97	1218,54
688,16	1271,79
688,34	1312,75
688,53	1249,26
688,71	1273,84
688,90	1329,13
689,08	1251,31
689,27	1241,07
689,45	1232,88
689,64	1294,32
689,82	1261,55
690,01	1257,45
690,19	1298,41
690,38	1247,21
690,56	1226,73
690,75	1204,21
690,93	1363,95
691,12	1271,79
691,30	1335,28
691,49	1267,69
691,67	1208,30
691,86	1230,83
692,04	1298,41
692,23	1253,36
692,41	1243,12
692,60	1187,82
692,78	1249,26
692,97	1222,64
693,15	1251,31
693,34	1247,21
693,52	1214,45
693,71	1232,88
693,89	1298,41
694,08	1265,64
694,26	1239,02
694,44	1302,51
694,63	1277,93
694,81	1245,16
695,00	1294,32
695,18	1308,65
695,37	1224,69
695,55	1257,45
695,74	1314,80
695,92	1245,16
696,10	1241,07
696,29	1222,64
696,47	1226,73
696,66	1241,07
696,84	1292,27
697,03	1267,69
697,21	1216,49
697,40	1347,56
697,58	1345,52
697,76	1232,88
697,95	1226,73
698,13	1253,36
698,32	1218,54
698,50	1349,61
698,68	1257,45
698,87	1314,80
699,05	1363,95
699,24	1345,52
699,42	1239,02
699,61	1329,13
699,79	1234,93
699,97	1257,45
700,16	1361,90
700,34	1218,54
700,53	1267,69
700,71	1224,69
700,89	1347,56
701,08	1251,31
701,26	1327,08
701,45	1327,08
701,63	1312,75
701,81	1282,03
702,00	1363,95
702,18	1210,35
702,37	1296,36
702,55	1214,45
702,73	1222,64
702,92	1316,84
703,10	1243,12
703,28	1304,56
703,47	1320,94
703,65	1302,51
703,84	1333,23
704,02	1267,69
704,20	1265,64
704,39	1228,78
704,57	1216,49
704,75	1222,64
704,94	1273,84
705,12	1245,16
705,30	1265,64
705,49	1239,02
705,67	1337,32
705,86	1224,69
706,04	1218,54
706,22	1284,08
706,41	1247,21
706,59	1306,60
706,77	1382,38
706,96	1222,64
707,14	1308,65
707,32	1329,13
707,51	1249,26
707,69	1300,46
707,87	1236,97
708,06	1298,41
708,24	1374,19
708,42	1271,79
708,61	1271,79
708,79	1249,26
708,97	1312,75
709,16	1255,40
709,34	1306,60
709,52	1310,70
709,71	1232,88
709,89	1236,97
710,07	1249,26
710,26	1308,65
710,44	1320,94
710,62	1243,12
710,80	1329,13
710,99	1253,36
711,17	1224,69
711,35	1265,64
711,54	1239,02
711,72	1261,55
711,90	1296,36
712,09	1296,36
712,27	1265,64
712,45	1259,50
712,63	1220,59
712,82	1259,50
713,00	1247,21
713,18	1226,73
713,37	1316,84
713,55	1322,99
713,73	1251,31
713,91	1243,12
714,10	1230,83
714,28	1329,13
714,46	1318,89
714,65	1298,41
714,83	1230,83
715,01	1271,79
715,19	1239,02
715,38	1288,17
715,56	1337,32
715,74	1263,60
715,92	1191,92
716,11	1308,65
716,29	1230,83
716,47	1257,45
716,65	1294,32
716,84	1271,79
717,02	1226,73
717,20	1275,88
717,38	1245,16
717,57	1351,66
717,75	1224,69
717,93	1310,70
718,11	1329,13
718,30	1245,16
718,48	1294,32
718,66	1333,23
718,84	1255,40
719,03	1239,02
719,21	1200,11
719,39	1273,84
719,57	1304,56
719,75	1251,31
719,94	1290,22
720,12	1286,12
720,30	1224,69
720,48	1224,69
720,67	1277,93
720,85	1300,46
721,03	1241,07
721,21	1284,08
721,39	1302,51
721,58	1255,40
721,76	1204,21
721,94	1222,64
722,12	1300,46
722,30	1318,89
722,49	1259,50
722,67	1241,07
722,85	1236,97
723,03	1239,02
723,21	1290,22
723,40	1322,99
723,58	1261,55
723,76	1290,22
723,94	1318,89
724,12	1279,98
724,30	1234,93
724,49	1191,92
724,67	1257,45
724,85	1243,12
725,03	1304,56
725,21	1294,32
725,40	1261,55
725,58	1265,64
725,76	1273,84
725,94	1298,41
726,12	1271,79
726,30	1343,47
726,49	1241,07
726,67	1247,21
726,85	1253,36
727,03	1347,56
727,21	1224,69
727,39	1269,74
727,57	1251,31
727,76	1232,88
727,94	1247,21
728,12	1230,83
728,30	1241,07
728,48	1218,54
728,66	1255,40
728,84	1245,16
729,03	1175,53
729,21	1259,50
729,39	1302,51
729,57	1243,12
729,75	1271,79
729,93	1290,22
730,11	1226,73
730,30	1265,64
730,48	1279,98
730,66	1282,03
730,84	1286,12
731,02	1265,64
731,20	1306,60
731,38	1298,41
731,56	1247,21
731,74	1286,12
731,93	1249,26
732,11	1282,03
732,29	1259,50
732,47	1271,79
732,65	1267,69
732,83	1249,26
733,01	1247,21
733,19	1304,56
733,37	1265,64
733,56	1329,13
733,74	1269,74
733,92	1306,60
734,10	1337,32
734,28	1286,12
734,46	1304,56
734,64	1253,36
734,82	1310,70
735,00	1232,88
735,18	1279,98
735,36	1267,69
735,54	1255,40
735,73	1290,22
735,91	1288,17
736,09	1269,74
736,27	1318,89
736,45	1232,88
736,63	1241,07
736,81	1249,26
736,99	1263,60
737,17	1234,93
737,35	1249,26
737,53	1298,41
737,71	1239,02
737,89	1298,41
738,07	1314,80
738,25	1259,50
738,43	1269,74
738,61	1300,46
738,80	1331,18
738,98	1277,93
739,16	1251,31
739,34	1259,50
739,52	1210,35
739,70	1271,79
739,88	1363,95
740,06	1271,79
740,24	1234,93
740,42	1273,84
740,60	1247,21
740,78	1322,99
740,96	1249,26
741,14	1286,12
741,32	1251,31
741,50	1277,93
741,68	1345,52
741,86	1282,03
742,04	1243,12
742,22	1247,21
742,40	1210,35
742,58	1249,26
742,76	1279,98
742,94	1216,49
743,12	1245,16
743,30	1212,40
743,48	1234,93
743,66	1173,49
743,84	1243,12
744,02	1241,07
744,20	1298,41
744,38	1286,12
744,56	1335,28
744,74	1255,40
744,92	1218,54
745,10	1335,28
745,28	1314,80
745,46	1241,07
745,64	1304,56
745,82	1277,93
746,00	1212,40
746,18	1257,45
746,36	1224,69
746,54	1306,60
746,72	1325,04
746,90	1228,78
747,08	1269,74
747,26	1320,94
747,44	1253,36
747,62	1312,75
747,80	1263,60
747,98	1304,56
748,15	1273,84
748,33	1241,07
748,51	1290,22
748,69	1284,08
748,87	1249,26
749,05	1228,78
749,23	1259,50
749,41	1300,46
749,59	1277,93
749,77	1318,89
749,95	1298,41
750,13	1261,55
750,31	1312,75
750,49	1208,30
750,67	1216,49
750,85	1224,69
751,03	1273,84
751,20	1255,40
751,38	1255,40
751,56	1216,49
751,74	1251,31
751,92	1306,60
752,10	1267,69
752,28	1279,98
752,46	1331,18
752,64	1257,45
752,82	1316,84
753,00	1277,93
753,18	1241,07
753,35	1269,74
753,53	1216,49
753,71	1282,03
753,89	1279,98
754,07	1290,22
754,25	1333,23
754,43	1306,60
754,61	1294,32
754,79	1228,78
754,97	1251,31
755,14	1257,45
755,32	1230,83
755,50	1263,60
755,68	1239,02
755,86	1314,80
756,04	1298,41
756,22	1286,12
756,40	1273,84
756,57	1214,45
756,75	1234,93
756,93	1269,74
757,11	1150,96
757,29	1296,36
757,47	1239,02
757,65	1222,64
757,82	1314,80
758,00	1220,59
758,18	1232,88
758,36	1308,65
758,54	1316,84
758,72	1306,60
758,90	1275,88
759,07	1220,59
759,25	1310,70
759,43	1247,21
759,61	1292,27
759,79	1312,75
759,97	1263,60
760,15	1234,93
760,32	1228,78
760,50	1292,27
760,68	1316,84
760,86	1234,93
761,04	1271,79
761,22	1239,02
761,39	1255,40
761,57	1245,16
761,75	1318,89
761,93	1243,12
762,11	1241,07
762,28	1257,45
762,46	1263,60
762,64	1232,88
762,82	1298,41
763,00	1296,36
763,18	1273,84
763,35	1226,73
763,53	1308,65
763,71	1234,93
763,89	1279,98
764,07	1234,93
764,24	1251,31
764,42	1257,45
764,60	1224,69
764,78	1290,22
764,96	1300,46
765,13	1189,87
765,31	1263,60
765,49	1255,40
765,67	1273,84
765,84	1247,21
766,02	1243,12
766,20	1185,77
766,38	1222,64
766,56	1257,45
766,73	1249,26
766,91	1218,54
767,09	1265,64
767,27	1253,36
767,44	1302,51
767,62	1269,74
767,80	1310,70
767,98	1267,69
768,15	1335,28
768,33	1273,84
768,51	1298,41
768,69	1202,16
768,87	1253,36
769,04	1249,26
769,22	1306,60
769,40	1284,08
769,58	1267,69
769,75	1308,65
769,93	1261,55
770,11	1208,30
770,28	1271,79
770,46	1282,03
770,64	1335,28
770,82	1243,12
770,99	1249,26
771,17	1243,12
771,35	1212,40
771,53	1224,69
771,70	1286,12
771,88	1263,60
772,06	1245,16
772,23	1234,93
772,41	1241,07
772,59	1214,45
772,77	1265,64
772,94	1286,12
773,12	1247,21
773,30	1279,98
773,47	1249,26
773,65	1251,31
773,83	1265,64
774,01	1275,88
774,18	1322,99
774,36	1257,45
774,54	1263,60
774,71	1277,93
774,89	1345,52
775,07	1200,11
775,24	1273,84
775,42	1243,12
775,60	1249,26
775,78	1302,51
775,95	1273,84
776,13	1218,54
776,31	1267,69
776,48	1224,69
776,66	1339,37
776,84	1296,36
777,01	1277,93
777,19	1277,93
777,37	1247,21
777,54	1275,88
777,72	1351,66
777,90	1198,06
778,07	1222,64
778,25	1169,39
778,43	1298,41
778,60	1271,79
778,78	1271,79
778,96	1333,23
779,13	1210,35
779,31	1423,34
779,49	1292,27
779,66	1247,21
779,84	1279,98
780,01	1314,80
780,19	1310,70
780,37	1236,97
780,54	1273,84
780,72	1251,31
780,90	1292,27
781,07	1241,07
781,25	1339,37
781,43	1232,88
781,60	1290,22
781,78	1288,17
781,95	1247,21
782,13	1300,46
782,31	1259,50
782,48	1220,59
782,66	1216,49
782,83	1329,13
783,01	1335,28
783,19	1245,16
783,36	1302,51
783,54	1241,07
783,72	1267,69
783,89	1216,49
784,07	1261,55
784,24	1255,40
784,42	1239,02
784,60	1259,50
784,77	1206,25
784,95	1236,97
785,12	1306,60
785,30	1191,92
785,47	1318,89
785,65	1275,88
785,83	1234,93
786,00	1304,56
786,18	1265,64
786,35	1226,73
786,53	1243,12
786,71	1294,32
786,88	1277,93
787,06	1230,83
787,23	1275,88
787,41	1226,73
787,58	1265,64
787,76	1306,60
787,94	1333,23
788,11	1257,45
788,29	1331,18
788,46	1251,31
788,64	1282,03
788,81	1243,12
788,99	1271,79
789,16	1257,45
789,34	1275,88
789,52	1304,56
789,69	1228,78
789,87	1257,45
790,04	1232,88
790,22	1234,93
790,39	1292,27
790,57	1239,02
790,74	1357,80
790,92	1261,55
791,09	1253,36
791,27	1327,08
791,44	1230,83
791,62	1298,41
791,79	1212,40
791,97	1279,98
792,15	1290,22
792,32	1228,78
792,50	1335,28
792,67	1206,25
792,85	1282,03
793,02	1277,93
793,20	1263,60
793,37	1265,64
793,55	1228,78
793,72	1259,50
793,90	1271,79
794,07	1277,93
794,25	1298,41
794,42	1267,69
794,60	1290,22
794,77	1263,60
794,95	1329,13
795,12	1273,84
795,30	1312,75
795,47	1263,60
795,65	1255,40
795,82	1271,79
796,00	1265,64
796,17	1271,79
796,34	1220,59
796,52	1273,84
796,69	1300,46
796,87	1157,10
797,04	1267,69
797,22	1232,88
797,39	1220,59
797,57	1230,83
797,74	1257,45
797,92	1204,21
798,09	1267,69
798,27	1339,37
798,44	1314,80
798,62	1294,32
798,79	1306,60
798,96	1279,98
799,14	1245,16
799,31	1296,36
799,49	1273,84
799,66	1257,45
799,84	1275,88
800,01	1241,07
800,19	1247,21
800,36	1277,93
800,53	1241,07
800,71	1263,60
800,88	1239,02
801,06	1290,22
801,23	1331,18
801,41	1341,42
801,58	1275,88
801,75	1335,28
801,93	1339,37
802,10	1253,36
802,28	1249,26
802,45	1202,16
802,63	1148,91
802,80	1279,98
802,97	1249,26
803,15	1314,80
803,32	1241,07
803,50	1247,21
803,67	1277,93
803,84	1236,97
804,02	1269,74
804,19	1267,69
804,37	1286,12
804,54	1355,76
804,71	1249,26
804,89	1327,08
805,06	1325,04
805,24	1241,07
805,41	1253,36
805,58	1343,47
805,76	1306,60
805,93	1226,73
806,10	1296,36
806,28	1273,84
806,45	1263,60
806,63	1263,60
806,80	1314,80
806,97	1249,26
807,15	1239,02
807,32	1228,78
807,49	1267,69
807,67	1218,54
807,84	1257,45
808,01	1279,98
808,19	1261,55
808,36	1284,08
808,54	1263,60
808,71	1202,16
808,88	1333,23
809,06	1290,22
809,23	1200,11
809,40	1243,12
809,58	1314,80
809,75	1261,55
809,92	1277,93
810,10	1183,73
810,27	1300,46
810,44	1243,12
810,62	1257,45
810,79	1265,64
810,96	1239,02
811,14	1214,45
811,31	1249,26
811,48	1306,60
811,66	1239,02
811,83	1300,46
812,00	1251,31
812,18	1304,56
812,35	1329,13
812,52	1245,16
812,69	1230,83
812,87	1251,31
813,04	1271,79
813,21	1271,79
813,39	1212,40
813,56	1322,99
813,73	1402,86
813,91	1257,45
814,08	1261,55
814,25	1366,00
814,42	1302,51
814,60	1343,47
814,77	1279,98
814,94	1255,40
815,12	1277,93
815,29	1269,74
815,46	1318,89
815,63	1265,64
815,81	1300,46
815,98	1290,22
816,15	1206,25
816,33	1298,41
816,50	1325,04
816,67	1292,27
816,84	1322,99
817,02	1277,93
817,19	1251,31
817,36	1222,64
817,53	1294,32
817,71	1312,75
817,88	1292,27
818,05	1347,56
818,22	1277,93
818,40	1267,69
818,57	1169,39
818,74	1284,08
818,91	1230,83
819,09	1304,56
819,26	1273,84
819,43	1257,45
819,60	1290,22
819,78	1271,79
819,95	1222,64
820,12	1239,02
820,29	1284,08
820,47	1279,98
820,64	1261,55
820,81	1308,65
820,98	1257,45
821,15	1200,11
821,33	1236,97
821,50	1228,78
821,67	1261,55
821,84	1196,01
822,02	1239,02
822,19	1232,88
822,36	1304,56
822,53	1267,69
822,70	1372,14
822,88	1282,03
823,05	1267,69
823,22	1298,41
823,39	1275,88
823,56	1210,35
823,74	1255,40
823,91	1263,60
824,08	1296,36
824,25	1234,93
824,42	1265,64
824,60	1275,88
824,77	1198,06
824,94	1261,55
825,11	1349,61
825,28	1290,22
825,45	1261,55
825,63	1259,50
825,80	1279,98
825,97	1316,84
826,14	1290,22
826,31	1263,60
826,48	1282,03
826,66	1214,45
826,83	1316,84
827,00	1271,79
827,17	1218,54
827,34	1204,21
827,51	1343,47
827,69	1290,22
827,86	1247,21
828,03	1312,75
828,20	1241,07
828,37	1234,93
828,54	1333,23
828,71	1306,60
828,89	1279,98
829,06	1263,60
829,23	1255,40
829,40	1249,26
829,57	1208,30
829,74	1263,60
829,91	1306,60
830,09	1302,51
830,26	1271,79
830,43	1210,35
830,60	1304,56
830,77	1167,34
830,94	1269,74
831,11	1218,54
831,28	1271,79
831,46	1302,51
831,63	1284,08
831,80	1277,93
831,97	1327,08
832,14	1257,45
832,31	1251,31
832,48	1234,93
832,65	1253,36
832,82	1232,88
832,99	1320,94
833,17	1302,51
833,34	1320,94
833,51	1191,92
833,68	1273,84
833,85	1320,94
834,02	1359,85
834,19	1218,54
834,36	1269,74
834,53	1275,88
834,70	1339,37
834,87	1263,60
835,04	1198,06
835,22	1271,79
835,39	1314,80
835,56	1275,88
835,73	1208,30
835,90	1267,69
836,07	1314,80
836,24	1282,03
836,41	1282,03
836,58	1218,54
836,75	1261,55
836,92	1271,79
837,09	1208,30
837,26	1265,64
837,43	1243,12
837,60	1259,50
837,77	1337,32
837,94	1224,69
838,12	1290,22
838,29	1320,94
838,46	1214,45
838,63	1220,59
838,80	1296,36
838,97	1169,39
839,14	1191,92
839,31	1230,83
839,48	1341,42
839,65	1353,71
839,82	1265,64
839,99	1261,55
840,16	1259,50
840,33	1294,32
840,50	1234,93
840,67	1232,88
840,84	1298,41
841,01	1243,12
841,18	1232,88
841,35	1329,13
841,52	1183,73
841,69	1251,31
841,86	1302,51
842,03	1304,56
842,20	1265,64
842,37	1296,36
842,54	1322,99
842,71	1333,23
842,88	1218,54
843,05	1320,94
843,22	1230,83
843,39	1275,88
843,56	1282,03
843,73	1232,88
843,90	1320,94
844,07	1333,23
844,24	1255,40
844,41	1249,26
844,58	1314,80
844,75	1335,28
844,92	1226,73
845,09	1187,82
845,26	1279,98
845,43	1267,69
845,60	1341,42
845,77	1265,64
845,94	1304,56
846,10	1253,36
846,27	1220,59
846,44	1261,55
846,61	1347,56
846,78	1312,75
846,95	1273,84
847,12	1304,56
847,29	1232,88
847,46	1239,02
847,63	1255,40
847,80	1200,11
847,97	1232,88
848,14	1306,60
848,31	1306,60
848,48	1232,88
848,65	1279,98
848,82	1282,03
848,98	1329,13
849,15	1279,98
849,32	1282,03
849,49	1267,69
849,66	1279,98
849,83	1243,12
850,00	1302,51
850,17	1239,02
850,34	1216,49
850,51	1284,08
850,68	1245,16
850,85	1236,97
851,01	1290,22
851,18	1290,22
851,35	1318,89
851,52	1183,73
851,69	1298,41
851,86	1290,22
852,03	1300,46
852,20	1247,21
852,37	1249,26
852,53	1196,01
852,70	1261,55
852,87	1269,74
853,04	1298,41
853,21	1255,40
853,38	1249,26
853,55	1226,73
853,72	1271,79
853,89	1347,56
854,05	1173,49
854,22	1269,74
854,39	1279,98
854,56	1230,83
854,73	1214,45
854,90	1355,76
855,07	1255,40
855,23	1243,12
855,40	1222,64
855,57	1245,16
855,74	1243,12
855,91	1286,12
856,08	1308,65
856,25	1257,45
856,41	1290,22
856,58	1206,25
856,75	1312,75
856,92	1341,42
857,09	1273,84
857,26	1316,84
857,42	1296,36
857,59	1257,45
857,76	1265,64
857,93	1216,49
858,10	1263,60
858,27	1288,17
858,43	1294,32
858,60	1271,79
858,77	1327,08
858,94	1273,84
859,11	1263,60
859,27	1253,36
859,44	1269,74
859,61	1253,36
859,78	1239,02
859,95	1288,17
860,12	1282,03
860,28	1202,16
860,45	1255,40
860,62	1255,40
860,79	1288,17
860,95	1191,92
861,12	1318,89
861,29	1253,36
861,46	1239,02
861,63	1224,69
861,79	1273,84
861,96	1286,12
862,13	1343,47
862,30	1355,76
862,47	1345,52
862,63	1247,21
862,80	1249,26
862,97	1224,69
863,14	1210,35
863,30	1286,12
863,47	1214,45
863,64	1239,02
863,81	1257,45
863,97	1243,12
864,14	1286,12
864,31	1269,74
864,48	1275,88
864,65	1284,08
864,81	1345,52
864,98	1218,54
865,15	1308,65
865,32	1247,21
865,48	1200,11
865,65	1288,17
865,82	1224,69
865,98	1220,59
866,15	1294,32
866,32	1304,56
866,49	1249,26
866,65	1275,88
866,82	1263,60
866,99	1275,88
867,16	1277,93
867,32	1294,32
867,49	1241,07
867,66	1243,12
867,83	1302,51
867,99	1243,12
868,16	1273,84
868,33	1239,02
868,49	1218,54
868,66	1304,56
868,83	1241,07
868,99	1230,83
869,16	1273,84
869,33	1247,21
869,50	1320,94
869,66	1361,90
869,83	1288,17
870,00	1243,12
870,16	1257,45
870,33	1314,80
870,50	1275,88
870,66	1335,28
870,83	1282,03
871,00	1271,79
871,17	1284,08
871,33	1253,36
871,50	1298,41
871,67	1261,55
871,83	1325,04
872,00	1245,16
872,17	1263,60
872,33	1204,21
872,50	1318,89
872,67	1277,93
872,83	1222,64
873,00	1294,32
873,17	1292,27
873,33	1224,69
873,50	1261,55
873,67	1255,40
873,83	1288,17
874,00	1325,04
874,16	1208,30
874,33	1241,07
874,50	1294,32
874,66	1249,26
874,83	1243,12
875,00	1302,51
875,16	1284,08
875,33	1296,36
875,50	1314,80
875,66	1224,69
875,83	1253,36
875,99	1263,60
876,16	1296,36
876,33	1251,31
876,49	1294,32
876,66	1269,74
876,83	1282,03
876,99	1261,55
877,16	1282,03
877,32	1286,12
877,49	1210,35
877,66	1257,45
877,82	1271,79
877,99	1251,31
878,15	1282,03
878,32	1333,23
878,49	1271,79
878,65	1245,16
878,82	1306,60
878,98	1261,55
879,15	1343,47
879,32	1185,77
879,48	1304,56
879,65	1261,55
879,81	1183,73
879,98	1275,88
880,15	1318,89
880,31	1253,36
880,48	1214,45
880,64	1331,18
880,81	1306,60
880,97	1304,56
881,14	1243,12
881,31	1216,49
881,47	1265,64
881,64	1277,93
881,80	1253,36
881,97	1210,35
882,13	1230,83
882,30	1310,70
882,47	1259,50
882,63	1214,45
882,80	1296,36
882,96	1290,22
883,13	1298,41
883,29	1206,25
883,46	1251,31
883,62	1296,36
883,79	1279,98
883,95	1267,69
884,12	1320,94
884,29	1251,31
884,45	1294,32
884,62	1298,41
884,78	1157,10
884,95	1302,51
885,11	1267,69
885,28	1310,70
885,44	1288,17
885,61	1304,56
885,77	1282,03
885,94	1261,55
886,10	1273,84
886,27	1253,36
886,43	1302,51
886,60	1267,69
886,76	1298,41
886,93	1284,08
887,09	1228,78
887,26	1306,60
887,42	1257,45
887,59	1304,56
887,75	1261,55
887,92	1253,36
888,08	1265,64
888,25	1218,54
888,41	1259,50
888,58	1251,31
888,74	1267,69
888,91	1271,79
>>>>>End Processed Spectral Data<<<<<
