SpectraSuite Data File
++++++++++++++++++++++++++++++++++++
Date: Sun Apr 03 18:36:04 CEST 2016
User: root
Dark Spectrum Present: No
Reference Spectrum Present: No
Number of Sampled Component Spectra: 1
Spectrometers: USB4C02835
Integration Time (usec): 10000 (USB4C02835)
Spectra Averaged: 1 (USB4C02835)
Boxcar Smoothing: 0 (USB4C02835)
Correct for Electrical Dark: No (USB4C02835)
Strobe/Lamp Enabled: No (USB4C02835)
Correct for Detector Non-linearity: No (USB4C02835)
Correct for Stray Light: No (USB4C02835)
Number of Pixels in Processed Spectrum: 3648
>>>>>Begin Processed Spectral Data<<<<<
177,47	1226,73
177,69	1226,73
177,91	1226,73
178,13	1318,89
178,36	1228,78
178,58	1282,03
178,80	1322,99
179,02	1245,16
179,24	1259,50
179,46	1322,99
179,68	1269,74
179,90	1263,60
180,13	1275,88
180,35	1294,32
180,57	1241,07
180,79	1263,60
181,01	1179,63
181,23	1236,97
181,45	1263,60
181,67	1298,41
181,90	1337,32
182,12	1290,22
182,34	1277,93
182,56	1253,36
182,78	1298,41
183,00	1296,36
183,22	1271,79
183,44	1263,60
183,66	1271,79
183,89	1273,84
184,11	1247,21
184,33	1265,64
184,55	1247,21
184,77	1277,93
184,99	1241,07
185,21	1282,03
185,43	1310,70
185,65	1259,50
185,87	1318,89
186,10	1310,70
186,32	1216,49
186,54	1282,03
186,76	1318,89
186,98	1243,12
187,20	1308,65
187,42	1232,88
187,64	1320,94
187,86	1327,08
188,08	1282,03
188,30	1320,94
188,52	1236,97
188,75	1251,31
188,97	1183,73
189,19	1253,36
189,41	1263,60
189,63	1243,12
189,85	1279,98
190,07	1304,56
190,29	1273,84
190,51	1294,32
190,73	1239,02
190,95	1253,36
191,17	1249,26
191,39	1236,97
191,61	1177,58
191,84	1277,93
192,06	1261,55
192,28	1216,49
192,50	1212,40
192,72	1185,77
192,94	1329,13
193,16	1327,08
193,38	1300,46
193,60	1265,64
193,82	1312,75
194,04	1267,69
194,26	1322,99
194,48	1271,79
194,70	1310,70
194,92	1290,22
195,14	1179,63
195,36	1312,75
195,58	1239,02
195,80	1277,93
196,02	1288,17
196,24	1263,60
196,46	1325,04
196,69	1232,88
196,91	1300,46
197,13	1277,93
197,35	1325,04
197,57	1325,04
197,79	1370,09
198,01	1212,40
198,23	1249,26
198,45	1263,60
198,67	1292,27
198,89	1271,79
199,11	1286,12
199,33	1277,93
199,55	1304,56
199,77	1331,18
199,99	1263,60
200,21	1314,80
200,43	1181,68
200,65	1222,64
200,87	1267,69
201,09	1320,94
201,31	1273,84
201,53	1263,60
201,75	1226,73
201,97	1253,36
202,19	1239,02
202,41	1322,99
202,63	1284,08
202,85	1224,69
203,07	1282,03
203,29	1314,80
203,51	1277,93
203,73	1304,56
203,95	1257,45
204,17	1265,64
204,39	1275,88
204,61	1232,88
204,83	1247,21
205,05	1234,93
205,27	1296,36
205,49	1267,69
205,71	1267,69
205,93	1218,54
206,15	1290,22
206,37	1230,83
206,59	1247,21
206,81	1320,94
207,03	1243,12
207,25	1259,50
207,47	1298,41
207,69	1279,98
207,91	1245,16
208,13	1277,93
208,34	1271,79
208,56	1212,40
208,78	1296,36
209,00	1212,40
209,22	1273,84
209,44	1316,84
209,66	1292,27
209,88	1241,07
210,10	1325,04
210,32	1247,21
210,54	1300,46
210,76	1171,44
210,98	1175,53
211,20	1267,69
211,42	1294,32
211,64	1253,36
211,86	1329,13
212,08	1269,74
212,30	1191,92
212,52	1251,31
212,74	1232,88
212,96	1200,11
213,17	1269,74
213,39	1239,02
213,61	1294,32
213,83	1220,59
214,05	1310,70
214,27	1265,64
214,49	1304,56
214,71	1232,88
214,93	1245,16
215,15	1271,79
215,37	1282,03
215,59	1214,45
215,81	1290,22
216,03	1302,51
216,24	1212,40
216,46	1273,84
216,68	1243,12
216,90	1230,83
217,12	1208,30
217,34	1265,64
217,56	1306,60
217,78	1277,93
218,00	1232,88
218,22	1277,93
218,44	1187,82
218,66	1261,55
218,87	1239,02
219,09	1310,70
219,31	1230,83
219,53	1243,12
219,75	1220,59
219,97	1243,12
220,19	1279,98
220,41	1296,36
220,63	1277,93
220,85	1236,97
221,06	1294,32
221,28	1286,12
221,50	1288,17
221,72	1275,88
221,94	1302,51
222,16	1261,55
222,38	1255,40
222,60	1304,56
222,82	1200,11
223,03	1331,18
223,25	1179,63
223,47	1300,46
223,69	1357,80
223,91	1312,75
224,13	1265,64
224,35	1255,40
224,57	1294,32
224,78	1284,08
225,00	1249,26
225,22	1277,93
225,44	1300,46
225,66	1257,45
225,88	1236,97
226,10	1218,54
226,32	1308,65
226,53	1245,16
226,75	1234,93
226,97	1304,56
227,19	1298,41
227,41	1216,49
227,63	1286,12
227,85	1282,03
228,06	1226,73
228,28	1259,50
228,50	1265,64
228,72	1218,54
228,94	1265,64
229,16	1253,36
229,37	1314,80
229,59	1224,69
229,81	1329,13
230,03	1282,03
230,25	1259,50
230,47	1306,60
230,69	1239,02
230,90	1198,06
231,12	1273,84
231,34	1288,17
231,56	1279,98
231,78	1265,64
232,00	1249,26
232,21	1288,17
232,43	1265,64
232,65	1282,03
232,87	1273,84
233,09	1329,13
233,30	1304,56
233,52	1224,69
233,74	1277,93
233,96	1312,75
234,18	1351,66
234,40	1257,45
234,61	1345,52
234,83	1257,45
235,05	1282,03
235,27	1294,32
235,49	1316,84
235,70	1269,74
235,92	1325,04
236,14	1286,12
236,36	1312,75
236,58	1273,84
236,79	1222,64
237,01	1333,23
237,23	1320,94
237,45	1277,93
237,67	1282,03
237,88	1253,36
238,10	1279,98
238,32	1214,45
238,54	1257,45
238,76	1255,40
238,97	1273,84
239,19	1226,73
239,41	1329,13
239,63	1257,45
239,85	1251,31
240,06	1257,45
240,28	1298,41
240,50	1333,23
240,72	1347,56
240,93	1339,37
241,15	1339,37
241,37	1239,02
241,59	1290,22
241,81	1275,88
242,02	1247,21
242,24	1267,69
242,46	1314,80
242,68	1259,50
242,89	1226,73
243,11	1288,17
243,33	1318,89
243,55	1265,64
243,76	1357,80
243,98	1269,74
244,20	1239,02
244,42	1204,21
244,64	1304,56
244,85	1253,36
245,07	1286,12
245,29	1206,25
245,51	1220,59
245,72	1251,31
245,94	1296,36
246,16	1302,51
246,38	1206,25
246,59	1302,51
246,81	1302,51
247,03	1370,09
247,24	1204,21
247,46	1191,92
247,68	1257,45
247,90	1286,12
248,11	1279,98
248,33	1261,55
248,55	1294,32
248,77	1239,02
248,98	1312,75
249,20	1243,12
249,42	1193,97
249,64	1230,83
249,85	1189,87
250,07	1263,60
250,29	1249,26
250,50	1286,12
250,72	1259,50
250,94	1308,65
251,16	1298,41
251,37	1247,21
251,59	1277,93
251,81	1241,07
252,02	1245,16
252,24	1282,03
252,46	1286,12
252,68	1286,12
252,89	1279,98
253,11	1241,07
253,33	1257,45
253,54	1282,03
253,76	1271,79
253,98	1310,70
254,20	1310,70
254,41	1277,93
254,63	1216,49
254,85	1282,03
255,06	1187,82
255,28	1275,88
255,50	1351,66
255,71	1318,89
255,93	1261,55
256,15	1282,03
256,36	1261,55
256,58	1292,27
256,80	1322,99
257,02	1277,93
257,23	1304,56
257,45	1214,45
257,67	1316,84
257,88	1286,12
258,10	1286,12
258,32	1247,21
258,53	1126,38
258,75	1253,36
258,97	1257,45
259,18	1271,79
259,40	1296,36
259,62	1255,40
259,83	1318,89
260,05	1191,92
260,27	1302,51
260,48	1230,83
260,70	1275,88
260,92	1253,36
261,13	1298,41
261,35	1251,31
261,57	1239,02
261,78	1167,34
262,00	1226,73
262,22	1265,64
262,43	1251,31
262,65	1290,22
262,86	1312,75
263,08	1271,79
263,30	1234,93
263,51	1222,64
263,73	1241,07
263,95	1282,03
264,16	1261,55
264,38	1243,12
264,60	1282,03
264,81	1275,88
265,03	1265,64
265,25	1267,69
265,46	1259,50
265,68	1279,98
265,89	1320,94
266,11	1263,60
266,33	1322,99
266,54	1243,12
266,76	1241,07
266,98	1196,01
267,19	1249,26
267,41	1286,12
267,62	1241,07
267,84	1236,97
268,06	1234,93
268,27	1273,84
268,49	1318,89
268,70	1232,88
268,92	1222,64
269,14	1267,69
269,35	1290,22
269,57	1140,72
269,79	1296,36
270,00	1294,32
270,22	1298,41
270,43	1318,89
270,65	1302,51
270,87	1234,93
271,08	1257,45
271,30	1220,59
271,51	1249,26
271,73	1279,98
271,95	1247,21
272,16	1271,79
272,38	1249,26
272,59	1284,08
272,81	1298,41
273,02	1220,59
273,24	1327,08
273,46	1236,97
273,67	1296,36
273,89	1247,21
274,10	1314,80
274,32	1310,70
274,54	1353,71
274,75	1275,88
274,97	1267,69
275,18	1308,65
275,40	1255,40
275,61	1257,45
275,83	1226,73
276,05	1286,12
276,26	1263,60
276,48	1296,36
276,69	1198,06
276,91	1265,64
277,12	1204,21
277,34	1187,82
277,55	1290,22
277,77	1202,16
277,99	1314,80
278,20	1314,80
278,42	1206,25
278,63	1208,30
278,85	1310,70
279,06	1249,26
279,28	1325,04
279,49	1247,21
279,71	1331,18
279,93	1228,78
280,14	1236,97
280,36	1212,40
280,57	1286,12
280,79	1253,36
281,00	1329,13
281,22	1241,07
281,43	1263,60
281,65	1327,08
281,86	1269,74
282,08	1279,98
282,29	1251,31
282,51	1251,31
282,73	1261,55
282,94	1259,50
283,16	1304,56
283,37	1318,89
283,59	1232,88
283,80	1259,50
284,02	1273,84
284,23	1214,45
284,45	1216,49
284,66	1325,04
284,88	1288,17
285,09	1271,79
285,31	1253,36
285,52	1259,50
285,74	1290,22
285,95	1245,16
286,17	1353,71
286,38	1279,98
286,60	1325,04
286,81	1259,50
287,03	1255,40
287,24	1175,53
287,46	1288,17
287,67	1296,36
287,89	1239,02
288,10	1243,12
288,32	1329,13
288,53	1271,79
288,75	1230,83
288,96	1269,74
289,18	1222,64
289,39	1273,84
289,61	1290,22
289,82	1284,08
290,04	1282,03
290,25	1279,98
290,47	1253,36
290,68	1261,55
290,90	1257,45
291,11	1269,74
291,33	1263,60
291,54	1277,93
291,76	1273,84
291,97	1333,23
292,18	1243,12
292,40	1339,37
292,61	1257,45
292,83	1247,21
293,04	1306,60
293,26	1304,56
293,47	1241,07
293,69	1335,28
293,90	1226,73
294,12	1292,27
294,33	1265,64
294,55	1298,41
294,76	1300,46
294,97	1247,21
295,19	1302,51
295,40	1253,36
295,62	1310,70
295,83	1232,88
296,05	1308,65
296,26	1243,12
296,48	1257,45
296,69	1306,60
296,90	1236,97
297,12	1335,28
297,33	1232,88
297,55	1271,79
297,76	1322,99
297,98	1265,64
298,19	1327,08
298,41	1261,55
298,62	1275,88
298,83	1267,69
299,05	1200,11
299,26	1286,12
299,48	1312,75
299,69	1206,25
299,90	1253,36
300,12	1284,08
300,33	1271,79
300,55	1343,47
300,76	1300,46
300,98	1218,54
301,19	1255,40
301,40	1230,83
301,62	1177,58
301,83	1279,98
302,05	1339,37
302,26	1222,64
302,47	1300,46
302,69	1236,97
302,90	1193,97
303,12	1286,12
303,33	1200,11
303,54	1279,98
303,76	1239,02
303,97	1200,11
304,19	1273,84
304,40	1312,75
304,61	1277,93
304,83	1212,40
305,04	1306,60
305,26	1273,84
305,47	1296,36
305,68	1218,54
305,90	1310,70
306,11	1339,37
306,33	1271,79
306,54	1249,26
306,75	1290,22
306,97	1265,64
307,18	1277,93
307,39	1267,69
307,61	1247,21
307,82	1257,45
308,04	1292,27
308,25	1318,89
308,46	1312,75
308,68	1234,93
308,89	1218,54
309,10	1271,79
309,32	1187,82
309,53	1232,88
309,74	1304,56
309,96	1232,88
310,17	1343,47
310,39	1226,73
310,60	1167,34
310,81	1318,89
311,03	1216,49
311,24	1263,60
311,45	1255,40
311,67	1253,36
311,88	1341,42
312,09	1269,74
312,31	1263,60
312,52	1306,60
312,73	1200,11
312,95	1290,22
313,16	1247,21
313,37	1296,36
313,59	1241,07
313,80	1267,69
314,01	1263,60
314,23	1279,98
314,44	1222,64
314,65	1329,13
314,87	1271,79
315,08	1269,74
315,29	1255,40
315,51	1261,55
315,72	1234,93
315,93	1282,03
316,15	1228,78
316,36	1247,21
316,57	1216,49
316,79	1290,22
317,00	1259,50
317,21	1257,45
317,43	1304,56
317,64	1241,07
317,85	1275,88
318,07	1208,30
318,28	1322,99
318,49	1236,97
318,70	1284,08
318,92	1298,41
319,13	1230,83
319,34	1320,94
319,56	1257,45
319,77	1247,21
319,98	1191,92
320,20	1314,80
320,41	1282,03
320,62	1329,13
320,83	1222,64
321,05	1273,84
321,26	1286,12
321,47	1257,45
321,69	1288,17
321,90	1261,55
322,11	1193,97
322,32	1243,12
322,54	1263,60
322,75	1316,84
322,96	1353,71
323,18	1271,79
323,39	1245,16
323,60	1273,84
323,81	1304,56
324,03	1277,93
324,24	1253,36
324,45	1206,25
324,66	1312,75
324,88	1234,93
325,09	1290,22
325,30	1249,26
325,52	1183,73
325,73	1241,07
325,94	1304,56
326,15	1257,45
326,37	1279,98
326,58	1224,69
326,79	1257,45
327,00	1286,12
327,22	1243,12
327,43	1220,59
327,64	1257,45
327,85	1273,84
328,07	1273,84
328,28	1296,36
328,49	1286,12
328,70	1255,40
328,92	1290,22
329,13	1277,93
329,34	1335,28
329,55	1222,64
329,76	1284,08
329,98	1228,78
330,19	1279,98
330,40	1232,88
330,61	1245,16
330,83	1310,70
331,04	1208,30
331,25	1329,13
331,46	1230,83
331,68	1261,55
331,89	1288,17
332,10	1341,42
332,31	1191,92
332,52	1249,26
332,74	1232,88
332,95	1286,12
333,16	1212,40
333,37	1257,45
333,58	1196,01
333,80	1228,78
334,01	1284,08
334,22	1208,30
334,43	1279,98
334,64	1234,93
334,86	1277,93
335,07	1249,26
335,28	1341,42
335,49	1308,65
335,70	1308,65
335,92	1292,27
336,13	1275,88
336,34	1206,25
336,55	1212,40
336,76	1236,97
336,98	1306,60
337,19	1259,50
337,40	1310,70
337,61	1308,65
337,82	1265,64
338,04	1239,02
338,25	1273,84
338,46	1230,83
338,67	1273,84
338,88	1228,78
339,09	1255,40
339,31	1267,69
339,52	1232,88
339,73	1239,02
339,94	1148,91
340,15	1232,88
340,36	1261,55
340,58	1282,03
340,79	1345,52
341,00	1292,27
341,21	1269,74
341,42	1253,36
341,63	1296,36
341,85	1275,88
342,06	1296,36
342,27	1187,82
342,48	1290,22
342,69	1187,82
342,90	1275,88
343,12	1257,45
343,33	1267,69
343,54	1343,47
343,75	1247,21
343,96	1304,56
344,17	1249,26
344,38	1331,18
344,60	1298,41
344,81	1226,73
345,02	1292,27
345,23	1261,55
345,44	1210,35
345,65	1296,36
345,86	1210,35
346,07	1275,88
346,29	1288,17
346,50	1284,08
346,71	1288,17
346,92	1216,49
347,13	1288,17
347,34	1269,74
347,55	1298,41
347,76	1257,45
347,98	1292,27
348,19	1288,17
348,40	1222,64
348,61	1212,40
348,82	1310,70
349,03	1245,16
349,24	1239,02
349,45	1277,93
349,66	1296,36
349,88	1255,40
350,09	1253,36
350,30	1257,45
350,51	1253,36
350,72	1292,27
350,93	1261,55
351,14	1198,06
351,35	1298,41
351,56	1335,28
351,77	1228,78
351,99	1310,70
352,20	1355,76
352,41	1249,26
352,62	1232,88
352,83	1222,64
353,04	1273,84
353,25	1208,30
353,46	1339,37
353,67	1269,74
353,88	1234,93
354,09	1187,82
354,30	1273,84
354,52	1224,69
354,73	1261,55
354,94	1251,31
355,15	1271,79
355,36	1263,60
355,57	1267,69
355,78	1302,51
355,99	1253,36
356,20	1247,21
356,41	1263,60
356,62	1245,16
356,83	1296,36
357,04	1220,59
357,25	1279,98
357,46	1265,64
357,68	1269,74
357,89	1269,74
358,10	1279,98
358,31	1232,88
358,52	1224,69
358,73	1286,12
358,94	1243,12
359,15	1259,50
359,36	1259,50
359,57	1202,16
359,78	1239,02
359,99	1189,87
360,20	1257,45
360,41	1239,02
360,62	1339,37
360,83	1349,61
361,04	1249,26
361,25	1212,40
361,46	1216,49
361,67	1245,16
361,88	1279,98
362,09	1271,79
362,30	1218,54
362,51	1245,16
362,72	1230,83
362,93	1216,49
363,14	1306,60
363,35	1277,93
363,56	1277,93
363,78	1214,45
363,99	1204,21
364,20	1286,12
364,41	1329,13
364,62	1294,32
364,83	1191,92
365,04	1269,74
365,25	1247,21
365,46	1275,88
365,67	1306,60
365,88	1269,74
366,09	1241,07
366,30	1275,88
366,51	1232,88
366,72	1249,26
366,93	1259,50
367,14	1279,98
367,35	1196,01
367,56	1294,32
367,77	1314,80
367,98	1241,07
368,18	1239,02
368,39	1341,42
368,60	1310,70
368,81	1230,83
369,02	1312,75
369,23	1277,93
369,44	1222,64
369,65	1181,68
369,86	1265,64
370,07	1249,26
370,28	1239,02
370,49	1296,36
370,70	1271,79
370,91	1263,60
371,12	1234,93
371,33	1304,56
371,54	1232,88
371,75	1290,22
371,96	1224,69
372,17	1255,40
372,38	1341,42
372,59	1292,27
372,80	1261,55
373,01	1208,30
373,22	1275,88
373,43	1277,93
373,64	1218,54
373,85	1230,83
374,06	1251,31
374,26	1263,60
374,47	1251,31
374,68	1253,36
374,89	1329,13
375,10	1245,16
375,31	1327,08
375,52	1282,03
375,73	1316,84
375,94	1296,36
376,15	1271,79
376,36	1314,80
376,57	1181,68
376,78	1304,56
376,99	1286,12
377,20	1185,77
377,40	1249,26
377,61	1265,64
377,82	1290,22
378,03	1228,78
378,24	1306,60
378,45	1206,25
378,66	1267,69
378,87	1273,84
379,08	1189,87
379,29	1255,40
379,50	1259,50
379,71	1296,36
379,91	1183,73
380,12	1298,41
380,33	1298,41
380,54	1298,41
380,75	1341,42
380,96	1290,22
381,17	1300,46
381,38	1265,64
381,59	1253,36
381,80	1290,22
382,00	1234,93
382,21	1220,59
382,42	1187,82
382,63	1341,42
382,84	1284,08
383,05	1228,78
383,26	1337,32
383,47	1302,51
383,68	1363,95
383,88	1241,07
384,09	1204,21
384,30	1320,94
384,51	1290,22
384,72	1230,83
384,93	1222,64
385,14	1308,65
385,35	1333,23
385,55	1282,03
385,76	1282,03
385,97	1255,40
386,18	1294,32
386,39	1277,93
386,60	1234,93
386,81	1263,60
387,02	1257,45
387,22	1208,30
387,43	1271,79
387,64	1230,83
387,85	1232,88
388,06	1255,40
388,27	1226,73
388,48	1269,74
388,68	1292,27
388,89	1320,94
389,10	1286,12
389,31	1327,08
389,52	1314,80
389,73	1265,64
389,93	1265,64
390,14	1290,22
390,35	1243,12
390,56	1372,14
390,77	1290,22
390,98	1241,07
391,18	1292,27
391,39	1273,84
391,60	1331,18
391,81	1290,22
392,02	1255,40
392,23	1224,69
392,43	1222,64
392,64	1253,36
392,85	1243,12
393,06	1189,87
393,27	1271,79
393,47	1251,31
393,68	1220,59
393,89	1267,69
394,10	1267,69
394,31	1308,65
394,52	1263,60
394,72	1210,35
394,93	1277,93
395,14	1249,26
395,35	1249,26
395,56	1226,73
395,76	1271,79
395,97	1294,32
396,18	1257,45
396,39	1316,84
396,60	1275,88
396,80	1296,36
397,01	1314,80
397,22	1257,45
397,43	1267,69
397,64	1253,36
397,84	1284,08
398,05	1310,70
398,26	1181,68
398,47	1257,45
398,67	1228,78
398,88	1329,13
399,09	1296,36
399,30	1249,26
399,51	1226,73
399,71	1212,40
399,92	1275,88
400,13	1247,21
400,34	1265,64
400,54	1296,36
400,75	1320,94
400,96	1298,41
401,17	1304,56
401,37	1335,28
401,58	1138,67
401,79	1245,16
402,00	1290,22
402,21	1318,89
402,41	1220,59
402,62	1294,32
402,83	1243,12
403,04	1239,02
403,24	1253,36
403,45	1196,01
403,66	1335,28
403,87	1208,30
404,07	1249,26
404,28	1284,08
404,49	1353,71
404,70	1304,56
404,90	1216,49
405,11	1286,12
405,32	1239,02
405,52	1279,98
405,73	1277,93
405,94	1232,88
406,15	1214,45
406,35	1239,02
406,56	1294,32
406,77	1234,93
406,98	1296,36
407,18	1173,49
407,39	1261,55
407,60	1220,59
407,80	1243,12
408,01	1306,60
408,22	1294,32
408,43	1245,16
408,63	1253,36
408,84	1257,45
409,05	1288,17
409,25	1306,60
409,46	1181,68
409,67	1302,51
409,88	1222,64
410,08	1251,31
410,29	1331,18
410,50	1341,42
410,70	1288,17
410,91	1273,84
411,12	1214,45
411,32	1263,60
411,53	1290,22
411,74	1306,60
411,95	1290,22
412,15	1296,36
412,36	1267,69
412,57	1329,13
412,77	1341,42
412,98	1302,51
413,19	1253,36
413,39	1275,88
413,60	1253,36
413,81	1216,49
414,01	1263,60
414,22	1228,78
414,43	1249,26
414,63	1273,84
414,84	1265,64
415,05	1247,21
415,25	1304,56
415,46	1263,60
415,67	1273,84
415,87	1341,42
416,08	1271,79
416,29	1263,60
416,49	1230,83
416,70	1288,17
416,91	1241,07
417,11	1222,64
417,32	1269,74
417,53	1253,36
417,73	1273,84
417,94	1241,07
418,15	1282,03
418,35	1253,36
418,56	1318,89
418,77	1355,76
418,97	1269,74
419,18	1302,51
419,38	1337,32
419,59	1232,88
419,80	1234,93
420,00	1239,02
420,21	1239,02
420,42	1271,79
420,62	1226,73
420,83	1232,88
421,04	1230,83
421,24	1239,02
421,45	1284,08
421,65	1230,83
421,86	1288,17
422,07	1279,98
422,27	1288,17
422,48	1202,16
422,69	1257,45
422,89	1329,13
423,10	1316,84
423,30	1255,40
423,51	1241,07
423,72	1292,27
423,92	1353,71
424,13	1339,37
424,33	1245,16
424,54	1234,93
424,75	1273,84
424,95	1292,27
425,16	1306,60
425,36	1243,12
425,57	1284,08
425,78	1183,73
425,98	1263,60
426,19	1247,21
426,39	1241,07
426,60	1265,64
426,81	1298,41
427,01	1261,55
427,22	1292,27
427,42	1236,97
427,63	1241,07
427,83	1249,26
428,04	1234,93
428,25	1349,61
428,45	1226,73
428,66	1241,07
428,86	1163,25
429,07	1277,93
429,28	1265,64
429,48	1255,40
429,69	1329,13
429,89	1282,03
430,10	1308,65
430,30	1236,97
430,51	1269,74
430,71	1245,16
430,92	1306,60
431,13	1314,80
431,33	1284,08
431,54	1251,31
431,74	1290,22
431,95	1249,26
432,15	1282,03
432,36	1279,98
432,56	1228,78
432,77	1267,69
432,98	1310,70
433,18	1257,45
433,39	1257,45
433,59	1292,27
433,80	1273,84
434,00	1288,17
434,21	1263,60
434,41	1322,99
434,62	1220,59
434,82	1208,30
435,03	1249,26
435,23	1259,50
435,44	1296,36
435,64	1265,64
435,85	1296,36
436,06	1304,56
436,26	1392,62
436,47	1300,46
436,67	1290,22
436,88	1282,03
437,08	1259,50
437,29	1290,22
437,49	1290,22
437,70	1273,84
437,90	1290,22
438,11	1241,07
438,31	1234,93
438,52	1304,56
438,72	1259,50
438,93	1226,73
439,13	1243,12
439,34	1296,36
439,54	1318,89
439,75	1296,36
439,95	1273,84
440,16	1251,31
440,36	1327,08
440,57	1288,17
440,77	1269,74
440,98	1261,55
441,18	1267,69
441,39	1269,74
441,59	1222,64
441,80	1257,45
442,00	1247,21
442,21	1245,16
442,41	1269,74
442,62	1236,97
442,82	1220,59
443,02	1331,18
443,23	1257,45
443,43	1275,88
443,64	1331,18
443,84	1200,11
444,05	1210,35
444,25	1234,93
444,46	1265,64
444,66	1220,59
444,87	1265,64
445,07	1247,21
445,28	1331,18
445,48	1263,60
445,69	1322,99
445,89	1251,31
446,09	1308,65
446,30	1249,26
446,50	1267,69
446,71	1304,56
446,91	1310,70
447,12	1239,02
447,32	1275,88
447,53	1325,04
447,73	1222,64
447,93	1269,74
448,14	1279,98
448,34	1318,89
448,55	1275,88
448,75	1304,56
448,96	1263,60
449,16	1249,26
449,36	1290,22
449,57	1351,66
449,77	1216,49
449,98	1261,55
450,18	1189,87
450,39	1261,55
450,59	1294,32
450,79	1318,89
451,00	1243,12
451,20	1261,55
451,41	1230,83
451,61	1273,84
451,81	1322,99
452,02	1306,60
452,22	1294,32
452,43	1239,02
452,63	1310,70
452,84	1236,97
453,04	1304,56
453,24	1267,69
453,45	1314,80
453,65	1263,60
453,86	1224,69
454,06	1212,40
454,26	1265,64
454,47	1337,32
454,67	1204,21
454,87	1269,74
455,08	1269,74
455,28	1312,75
455,49	1159,15
455,69	1232,88
455,89	1304,56
456,10	1255,40
456,30	1273,84
456,51	1273,84
456,71	1222,64
456,91	1247,21
457,12	1255,40
457,32	1243,12
457,52	1214,45
457,73	1271,79
457,93	1181,68
458,14	1204,21
458,34	1335,28
458,54	1255,40
458,75	1290,22
458,95	1224,69
459,15	1249,26
459,36	1300,46
459,56	1200,11
459,76	1214,45
459,97	1339,37
460,17	1191,92
460,37	1288,17
460,58	1282,03
460,78	1267,69
460,99	1206,25
461,19	1277,93
461,39	1232,88
461,60	1269,74
461,80	1290,22
462,00	1239,02
462,21	1290,22
462,41	1269,74
462,61	1243,12
462,82	1200,11
463,02	1234,93
463,22	1296,36
463,43	1286,12
463,63	1224,69
463,83	1368,04
464,04	1300,46
464,24	1216,49
464,44	1298,41
464,64	1286,12
464,85	1236,97
465,05	1185,77
465,25	1306,60
465,46	1279,98
465,66	1261,55
465,86	1257,45
466,07	1290,22
466,27	1263,60
466,47	1271,79
466,68	1249,26
466,88	1253,36
467,08	1290,22
467,29	1271,79
467,49	1302,51
467,69	1257,45
467,89	1298,41
468,10	1271,79
468,30	1304,56
468,50	1181,68
468,71	1329,13
468,91	1251,31
469,11	1191,92
469,31	1282,03
469,52	1273,84
469,72	1288,17
469,92	1294,32
470,13	1206,25
470,33	1208,30
470,53	1257,45
470,73	1277,93
470,94	1288,17
471,14	1314,80
471,34	1351,66
471,54	1243,12
471,75	1271,79
471,95	1320,94
472,15	1302,51
472,36	1296,36
472,56	1249,26
472,76	1236,97
472,96	1226,73
473,17	1261,55
473,37	1304,56
473,57	1273,84
473,77	1222,64
473,98	1314,80
474,18	1265,64
474,38	1271,79
474,58	1220,59
474,79	1198,06
474,99	1251,31
475,19	1249,26
475,39	1234,93
475,60	1288,17
475,80	1245,16
476,00	1380,33
476,20	1339,37
476,41	1351,66
476,61	1267,69
476,81	1310,70
477,01	1208,30
477,21	1212,40
477,42	1298,41
477,62	1208,30
477,82	1331,18
478,02	1236,97
478,23	1273,84
478,43	1255,40
478,63	1224,69
478,83	1253,36
479,03	1279,98
479,24	1236,97
479,44	1292,27
479,64	1253,36
479,84	1236,97
480,04	1269,74
480,25	1298,41
480,45	1222,64
480,65	1255,40
480,85	1306,60
481,06	1210,35
481,26	1290,22
481,46	1265,64
481,66	1273,84
481,86	1273,84
482,06	1259,50
482,27	1286,12
482,47	1247,21
482,67	1294,32
482,87	1253,36
483,07	1259,50
483,28	1245,16
483,48	1308,65
483,68	1177,58
483,88	1290,22
484,08	1292,27
484,29	1247,21
484,49	1343,47
484,69	1294,32
484,89	1204,21
485,09	1257,45
485,29	1286,12
485,50	1249,26
485,70	1269,74
485,90	1320,94
486,10	1222,64
486,30	1241,07
486,50	1286,12
486,71	1286,12
486,91	1247,21
487,11	1247,21
487,31	1187,82
487,51	1312,75
487,71	1322,99
487,91	1273,84
488,12	1257,45
488,32	1304,56
488,52	1271,79
488,72	1255,40
488,92	1204,21
489,12	1343,47
489,32	1298,41
489,53	1249,26
489,73	1267,69
489,93	1230,83
490,13	1222,64
490,33	1296,36
490,53	1210,35
490,73	1230,83
490,94	1265,64
491,14	1314,80
491,34	1245,16
491,54	1239,02
491,74	1222,64
491,94	1216,49
492,14	1288,17
492,34	1239,02
492,54	1308,65
492,75	1261,55
492,95	1277,93
493,15	1273,84
493,35	1216,49
493,55	1216,49
493,75	1273,84
493,95	1275,88
494,15	1286,12
494,35	1267,69
494,56	1277,93
494,76	1249,26
494,96	1255,40
495,16	1202,16
495,36	1255,40
495,56	1282,03
495,76	1314,80
495,96	1206,25
496,16	1312,75
496,36	1271,79
496,56	1247,21
496,77	1150,96
496,97	1382,38
497,17	1329,13
497,37	1226,73
497,57	1294,32
497,77	1251,31
497,97	1284,08
498,17	1253,36
498,37	1325,04
498,57	1257,45
498,77	1288,17
498,97	1265,64
499,17	1269,74
499,38	1271,79
499,58	1239,02
499,78	1249,26
499,98	1267,69
500,18	1239,02
500,38	1288,17
500,58	1320,94
500,78	1296,36
500,98	1230,83
501,18	1300,46
501,38	1261,55
501,58	1228,78
501,78	1339,37
501,98	1245,16
502,18	1253,36
502,38	1204,21
502,58	1181,68
502,78	1275,88
502,98	1273,84
503,18	1216,49
503,38	1226,73
503,59	1214,45
503,79	1361,90
503,99	1267,69
504,19	1341,42
504,39	1306,60
504,59	1255,40
504,79	1273,84
504,99	1226,73
505,19	1271,79
505,39	1232,88
505,59	1282,03
505,79	1228,78
505,99	1257,45
506,19	1349,61
506,39	1234,93
506,59	1296,36
506,79	1318,89
506,99	1304,56
507,19	1210,35
507,39	1284,08
507,59	1392,62
507,79	1275,88
507,99	1253,36
508,19	1228,78
508,39	1271,79
508,59	1277,93
508,79	1290,22
508,99	1257,45
509,19	1294,32
509,39	1277,93
509,59	1273,84
509,79	1253,36
509,99	1234,93
510,19	1304,56
510,39	1366,00
510,59	1228,78
510,79	1251,31
510,99	1294,32
511,19	1267,69
511,39	1353,71
511,59	1265,64
511,79	1269,74
511,99	1263,60
512,19	1320,94
512,38	1314,80
512,58	1282,03
512,78	1320,94
512,98	1316,84
513,18	1269,74
513,38	1228,78
513,58	1277,93
513,78	1236,97
513,98	1265,64
514,18	1282,03
514,38	1259,50
514,58	1275,88
514,78	1251,31
514,98	1253,36
515,18	1298,41
515,38	1282,03
515,58	1232,88
515,78	1275,88
515,98	1257,45
516,18	1327,08
516,38	1198,06
516,57	1310,70
516,77	1320,94
516,97	1239,02
517,17	1327,08
517,37	1259,50
517,57	1236,97
517,77	1271,79
517,97	1232,88
518,17	1290,22
518,37	1282,03
518,57	1265,64
518,77	1241,07
518,97	1230,83
519,16	1306,60
519,36	1261,55
519,56	1343,47
519,76	1243,12
519,96	1282,03
520,16	1239,02
520,36	1290,22
520,56	1322,99
520,76	1279,98
520,96	1308,65
521,16	1220,59
521,35	1234,93
521,55	1239,02
521,75	1187,82
521,95	1302,51
522,15	1245,16
522,35	1286,12
522,55	1286,12
522,75	1273,84
522,95	1222,64
523,14	1232,88
523,34	1288,17
523,54	1259,50
523,74	1257,45
523,94	1310,70
524,14	1212,40
524,34	1273,84
524,54	1255,40
524,73	1314,80
524,93	1253,36
525,13	1288,17
525,33	1230,83
525,53	1277,93
525,73	1296,36
525,93	1292,27
526,13	1286,12
526,32	1273,84
526,52	1243,12
526,72	1239,02
526,92	1304,56
527,12	1269,74
527,32	1255,40
527,52	1241,07
527,71	1257,45
527,91	1232,88
528,11	1257,45
528,31	1329,13
528,51	1239,02
528,71	1226,73
528,90	1226,73
529,10	1320,94
529,30	1232,88
529,50	1234,93
529,70	1265,64
529,90	1214,45
530,09	1255,40
530,29	1284,08
530,49	1212,40
530,69	1296,36
530,89	1214,45
531,09	1292,27
531,28	1284,08
531,48	1226,73
531,68	1296,36
531,88	1228,78
532,08	1292,27
532,28	1212,40
532,47	1265,64
532,67	1261,55
532,87	1228,78
533,07	1259,50
533,27	1267,69
533,46	1236,97
533,66	1216,49
533,86	1314,80
534,06	1239,02
534,26	1222,64
534,45	1257,45
534,65	1255,40
534,85	1314,80
535,05	1302,51
535,25	1304,56
535,44	1267,69
535,64	1234,93
535,84	1296,36
536,04	1271,79
536,24	1363,95
536,43	1218,54
536,63	1284,08
536,83	1173,49
537,03	1243,12
537,22	1257,45
537,42	1247,21
537,62	1286,12
537,82	1275,88
538,02	1290,22
538,21	1273,84
538,41	1314,80
538,61	1279,98
538,81	1263,60
539,00	1271,79
539,20	1222,64
539,40	1273,84
539,60	1255,40
539,79	1249,26
539,99	1232,88
540,19	1251,31
540,39	1218,54
540,58	1245,16
540,78	1255,40
540,98	1255,40
541,18	1228,78
541,37	1288,17
541,57	1300,46
541,77	1314,80
541,97	1230,83
542,16	1368,04
542,36	1232,88
542,56	1245,16
542,76	1222,64
542,95	1314,80
543,15	1230,83
543,35	1286,12
543,54	1300,46
543,74	1284,08
543,94	1222,64
544,14	1263,60
544,33	1339,37
544,53	1296,36
544,73	1212,40
544,93	1277,93
545,12	1247,21
545,32	1292,27
545,52	1296,36
545,71	1253,36
545,91	1261,55
546,11	1253,36
546,30	1230,83
546,50	1275,88
546,70	1249,26
546,90	1306,60
547,09	1300,46
547,29	1261,55
547,49	1302,51
547,68	1300,46
547,88	1189,87
548,08	1284,08
548,27	1300,46
548,47	1271,79
548,67	1357,80
548,87	1224,69
549,06	1243,12
549,26	1220,59
549,46	1337,32
549,65	1267,69
549,85	1236,97
550,05	1322,99
550,24	1267,69
550,44	1226,73
550,64	1189,87
550,83	1286,12
551,03	1253,36
551,23	1347,56
551,42	1257,45
551,62	1284,08
551,82	1261,55
552,01	1218,54
552,21	1257,45
552,41	1308,65
552,60	1228,78
552,80	1265,64
553,00	1284,08
553,19	1261,55
553,39	1300,46
553,59	1292,27
553,78	1288,17
553,98	1210,35
554,17	1198,06
554,37	1279,98
554,57	1226,73
554,76	1277,93
554,96	1310,70
555,16	1304,56
555,35	1314,80
555,55	1292,27
555,75	1294,32
555,94	1255,40
556,14	1236,97
556,33	1241,07
556,53	1306,60
556,73	1239,02
556,92	1310,70
557,12	1191,92
557,32	1243,12
557,51	1277,93
557,71	1212,40
557,90	1312,75
558,10	1253,36
558,30	1247,21
558,49	1271,79
558,69	1208,30
558,88	1284,08
559,08	1279,98
559,28	1218,54
559,47	1202,16
559,67	1320,94
559,86	1327,08
560,06	1320,94
560,26	1241,07
560,45	1300,46
560,65	1271,79
560,84	1189,87
561,04	1239,02
561,24	1277,93
561,43	1247,21
561,63	1277,93
561,82	1224,69
562,02	1300,46
562,22	1304,56
562,41	1275,88
562,61	1265,64
562,80	1236,97
563,00	1296,36
563,19	1275,88
563,39	1271,79
563,59	1196,01
563,78	1249,26
563,98	1261,55
564,17	1249,26
564,37	1202,16
564,56	1273,84
564,76	1214,45
564,96	1279,98
565,15	1265,64
565,35	1259,50
565,54	1253,36
565,74	1157,10
565,93	1306,60
566,13	1257,45
566,32	1322,99
566,52	1271,79
566,71	1304,56
566,91	1339,37
567,11	1257,45
567,30	1189,87
567,50	1300,46
567,69	1257,45
567,89	1257,45
568,08	1298,41
568,28	1253,36
568,47	1320,94
568,67	1282,03
568,86	1222,64
569,06	1261,55
569,25	1222,64
569,45	1226,73
569,64	1273,84
569,84	1257,45
570,04	1255,40
570,23	1312,75
570,43	1263,60
570,62	1294,32
570,82	1179,63
571,01	1275,88
571,21	1286,12
571,40	1308,65
571,60	1271,79
571,79	1314,80
571,99	1302,51
572,18	1306,60
572,38	1267,69
572,57	1247,21
572,77	1228,78
572,96	1271,79
573,16	1243,12
573,35	1290,22
573,55	1224,69
573,74	1263,60
573,94	1257,45
574,13	1302,51
574,33	1282,03
574,52	1265,64
574,71	1245,16
574,91	1241,07
575,10	1255,40
575,30	1144,81
575,49	1148,91
575,69	1277,93
575,88	1329,13
576,08	1200,11
576,27	1232,88
576,47	1310,70
576,66	1298,41
576,86	1228,78
577,05	1265,64
577,25	1232,88
577,44	1226,73
577,64	1284,08
577,83	1226,73
578,02	1261,55
578,22	1316,84
578,41	1269,74
578,61	1265,64
578,80	1273,84
579,00	1251,31
579,19	1382,38
579,39	1275,88
579,58	1290,22
579,77	1296,36
579,97	1232,88
580,16	1263,60
580,36	1253,36
580,55	1310,70
580,75	1269,74
580,94	1245,16
581,13	1277,93
581,33	1255,40
581,52	1290,22
581,72	1259,50
581,91	1288,17
582,11	1277,93
582,30	1255,40
582,49	1196,01
582,69	1230,83
582,88	1320,94
583,08	1325,04
583,27	1259,50
583,47	1210,35
583,66	1245,16
583,85	1284,08
584,05	1372,14
584,24	1222,64
584,44	1263,60
584,63	1255,40
584,82	1277,93
585,02	1279,98
585,21	1245,16
585,41	1224,69
585,60	1257,45
585,79	1279,98
585,99	1208,30
586,18	1294,32
586,37	1226,73
586,57	1318,89
586,76	1265,64
586,96	1243,12
587,15	1236,97
587,34	1224,69
587,54	1226,73
587,73	1234,93
587,93	1310,70
588,12	1249,26
588,31	1269,74
588,51	1300,46
588,70	1265,64
588,89	1224,69
589,09	1298,41
589,28	1253,36
589,47	1312,75
589,67	1284,08
589,86	1302,51
590,06	1212,40
590,25	1247,21
590,44	1257,45
590,64	1175,53
590,83	1249,26
591,02	1263,60
591,22	1269,74
591,41	1277,93
591,60	1271,79
591,80	1157,10
591,99	1245,16
592,18	1288,17
592,38	1218,54
592,57	1308,65
592,76	1257,45
592,96	1298,41
593,15	1241,07
593,34	1236,97
593,54	1226,73
593,73	1224,69
593,92	1314,80
594,12	1290,22
594,31	1282,03
594,50	1331,18
594,70	1220,59
594,89	1220,59
595,08	1214,45
595,28	1265,64
595,47	1282,03
595,66	1284,08
595,86	1314,80
596,05	1282,03
596,24	1228,78
596,43	1249,26
596,63	1314,80
596,82	1261,55
597,01	1200,11
597,21	1241,07
597,40	1202,16
597,59	1335,28
597,79	1286,12
597,98	1220,59
598,17	1271,79
598,36	1335,28
598,56	1273,84
598,75	1271,79
598,94	1253,36
599,14	1294,32
599,33	1314,80
599,52	1239,02
599,71	1298,41
599,91	1257,45
600,10	1277,93
600,29	1325,04
600,48	1239,02
600,68	1265,64
600,87	1261,55
601,06	1294,32
601,26	1177,58
601,45	1277,93
601,64	1279,98
601,83	1320,94
602,03	1333,23
602,22	1261,55
602,41	1249,26
602,60	1329,13
602,80	1345,52
602,99	1314,80
603,18	1239,02
603,37	1284,08
603,57	1339,37
603,76	1343,47
603,95	1269,74
604,14	1241,07
604,34	1282,03
604,53	1304,56
604,72	1241,07
604,91	1288,17
605,10	1224,69
605,30	1282,03
605,49	1296,36
605,68	1277,93
605,87	1322,99
606,07	1329,13
606,26	1249,26
606,45	1277,93
606,64	1277,93
606,84	1241,07
607,03	1230,83
607,22	1300,46
607,41	1220,59
607,60	1298,41
607,80	1282,03
607,99	1302,51
608,18	1204,21
608,37	1318,89
608,56	1261,55
608,76	1255,40
608,95	1300,46
609,14	1286,12
609,33	1325,04
609,52	1304,56
609,72	1294,32
609,91	1247,21
610,10	1220,59
610,29	1277,93
610,48	1290,22
610,68	1232,88
610,87	1191,92
611,06	1310,70
611,25	1331,18
611,44	1271,79
611,63	1298,41
611,83	1296,36
612,02	1271,79
612,21	1228,78
612,40	1220,59
612,59	1257,45
612,79	1286,12
612,98	1318,89
613,17	1306,60
613,36	1288,17
613,55	1335,28
613,74	1239,02
613,93	1239,02
614,13	1269,74
614,32	1218,54
614,51	1273,84
614,70	1261,55
614,89	1271,79
615,08	1314,80
615,28	1312,75
615,47	1286,12
615,66	1384,43
615,85	1290,22
616,04	1269,74
616,23	1261,55
616,42	1191,92
616,62	1290,22
616,81	1279,98
617,00	1230,83
617,19	1265,64
617,38	1239,02
617,57	1261,55
617,76	1265,64
617,95	1249,26
618,15	1189,87
618,34	1218,54
618,53	1275,88
618,72	1290,22
618,91	1277,93
619,10	1257,45
619,29	1290,22
619,48	1175,53
619,68	1232,88
619,87	1263,60
620,06	1261,55
620,25	1255,40
620,44	1284,08
620,63	1228,78
620,82	1247,21
621,01	1286,12
621,20	1232,88
621,39	1239,02
621,59	1273,84
621,78	1277,93
621,97	1292,27
622,16	1247,21
622,35	1228,78
622,54	1288,17
622,73	1269,74
622,92	1265,64
623,11	1220,59
623,30	1353,71
623,49	1249,26
623,68	1241,07
623,88	1249,26
624,07	1306,60
624,26	1230,83
624,45	1269,74
624,64	1277,93
624,83	1279,98
625,02	1261,55
625,21	1204,21
625,40	1249,26
625,59	1310,70
625,78	1271,79
625,97	1331,18
626,16	1312,75
626,35	1316,84
626,54	1247,21
626,74	1253,36
626,93	1249,26
627,12	1282,03
627,31	1273,84
627,50	1263,60
627,69	1279,98
627,88	1298,41
628,07	1327,08
628,26	1273,84
628,45	1232,88
628,64	1279,98
628,83	1259,50
629,02	1273,84
629,21	1298,41
629,40	1320,94
629,59	1341,42
629,78	1236,97
629,97	1335,28
630,16	1253,36
630,35	1310,70
630,54	1310,70
630,73	1376,24
630,92	1273,84
631,11	1355,76
631,30	1363,95
631,49	1413,10
631,68	2172,89
631,87	7464,85
632,06	27799,13
632,25	52944,09
632,44	65535,00
632,63	65535,00
632,82	65535,00
633,01	65074,21
633,20	19916,50
633,39	7350,16
633,58	3758,02
633,77	3557,32
633,96	3223,50
634,15	2729,94
634,34	2031,58
634,53	1875,94
634,72	1904,61
634,91	1632,23
635,10	1615,85
635,29	1581,03
635,48	1511,40
635,67	1492,97
635,86	1394,67
636,05	1433,58
636,24	1478,63
636,43	1304,56
636,62	1347,56
636,81	1284,08
637,00	1402,86
637,19	1316,84
637,38	1304,56
637,57	1263,60
637,76	1331,18
637,95	1294,32
638,14	1282,03
638,33	1343,47
638,52	1290,22
638,71	1318,89
638,89	1279,98
639,08	1339,37
639,27	1277,93
639,46	1275,88
639,65	1320,94
639,84	1247,21
640,03	1273,84
640,22	1279,98
640,41	1247,21
640,60	1271,79
640,79	1312,75
640,98	1300,46
641,17	1269,74
641,36	1269,74
641,55	1292,27
641,74	1306,60
641,92	1273,84
642,11	1320,94
642,30	1277,93
642,49	1302,51
642,68	1269,74
642,87	1232,88
643,06	1279,98
643,25	1339,37
643,44	1263,60
643,63	1306,60
643,82	1310,70
644,00	1257,45
644,19	1243,12
644,38	1322,99
644,57	1376,24
644,76	1282,03
644,95	1335,28
645,14	1294,32
645,33	1265,64
645,52	1236,97
645,71	1259,50
645,89	1318,89
646,08	1267,69
646,27	1161,20
646,46	1341,42
646,65	1224,69
646,84	1284,08
647,03	1406,95
647,22	1243,12
647,40	1327,08
647,59	1226,73
647,78	1261,55
647,97	1292,27
648,16	1300,46
648,35	1316,84
648,54	1277,93
648,73	1245,16
648,91	1341,42
649,10	1163,25
649,29	1329,13
649,48	1380,33
649,67	1277,93
649,86	1331,18
650,05	1282,03
650,23	1239,02
650,42	1259,50
650,61	1241,07
650,80	1273,84
650,99	1290,22
651,18	1230,83
651,36	1333,23
651,55	1255,40
651,74	1269,74
651,93	1296,36
652,12	1239,02
652,31	1202,16
652,49	1204,21
652,68	1232,88
652,87	1253,36
653,06	1263,60
653,25	1273,84
653,44	1259,50
653,62	1318,89
653,81	1296,36
654,00	1200,11
654,19	1241,07
654,38	1308,65
654,56	1286,12
654,75	1228,78
654,94	1325,04
655,13	1273,84
655,32	1234,93
655,51	1236,97
655,69	1310,70
655,88	1308,65
656,07	1177,58
656,26	1298,41
656,45	1271,79
656,63	1247,21
656,82	1347,56
657,01	1224,69
657,20	1271,79
657,38	1220,59
657,57	1269,74
657,76	1325,04
657,95	1204,21
658,14	1306,60
658,32	1259,50
658,51	1198,06
658,70	1261,55
658,89	1193,97
659,08	1243,12
659,26	1322,99
659,45	1253,36
659,64	1200,11
659,83	1259,50
660,01	1294,32
660,20	1284,08
660,39	1363,95
660,58	1257,45
660,76	1130,48
660,95	1282,03
661,14	1333,23
661,33	1216,49
661,51	1329,13
661,70	1275,88
661,89	1296,36
662,08	1288,17
662,26	1257,45
662,45	1304,56
662,64	1265,64
662,83	1292,27
663,01	1269,74
663,20	1339,37
663,39	1341,42
663,58	1284,08
663,76	1312,75
663,95	1277,93
664,14	1286,12
664,32	1298,41
664,51	1314,80
664,70	1269,74
664,89	1304,56
665,07	1263,60
665,26	1279,98
665,45	1208,30
665,64	1273,84
665,82	1308,65
666,01	1372,14
666,20	1257,45
666,38	1245,16
666,57	1308,65
666,76	1259,50
666,95	1222,64
667,13	1251,31
667,32	1275,88
667,51	1263,60
667,69	1249,26
667,88	1220,59
668,07	1191,92
668,25	1249,26
668,44	1251,31
668,63	1273,84
668,81	1296,36
669,00	1294,32
669,19	1308,65
669,38	1273,84
669,56	1286,12
669,75	1271,79
669,94	1310,70
670,12	1294,32
670,31	1263,60
670,50	1265,64
670,68	1312,75
670,87	1275,88
671,06	1279,98
671,24	1277,93
671,43	1204,21
671,62	1230,83
671,80	1232,88
671,99	1273,84
672,18	1357,80
672,36	1286,12
672,55	1368,04
672,74	1247,21
672,92	1314,80
673,11	1279,98
673,29	1282,03
673,48	1253,36
673,67	1241,07
673,85	1275,88
674,04	1245,16
674,23	1275,88
674,41	1306,60
674,60	1224,69
674,79	1245,16
674,97	1298,41
675,16	1353,71
675,34	1271,79
675,53	1294,32
675,72	1288,17
675,90	1261,55
676,09	1286,12
676,28	1304,56
676,46	1261,55
676,65	1241,07
676,83	1202,16
677,02	1253,36
677,21	1239,02
677,39	1302,51
677,58	1296,36
677,77	1255,40
677,95	1273,84
678,14	1298,41
678,32	1236,97
678,51	1228,78
678,70	1249,26
678,88	1214,45
679,07	1335,28
679,25	1277,93
679,44	1265,64
679,63	1204,21
679,81	1198,06
680,00	1275,88
680,18	1210,35
680,37	1331,18
680,55	1234,93
680,74	1239,02
680,93	1216,49
681,11	1284,08
681,30	1325,04
681,48	1327,08
681,67	1198,06
681,85	1294,32
682,04	1316,84
682,23	1218,54
682,41	1320,94
682,60	1267,69
682,78	1325,04
682,97	1269,74
683,15	1341,42
683,34	1241,07
683,53	1263,60
683,71	1234,93
683,90	1292,27
684,08	1292,27
684,27	1292,27
684,45	1267,69
684,64	1290,22
684,82	1306,60
685,01	1247,21
685,19	1216,49
685,38	1335,28
685,57	1251,31
685,75	1279,98
685,94	1232,88
686,12	1284,08
686,31	1257,45
686,49	1253,36
686,68	1279,98
686,86	1273,84
687,05	1251,31
687,23	1308,65
687,42	1318,89
687,60	1265,64
687,79	1322,99
687,97	1255,40
688,16	1298,41
688,34	1302,51
688,53	1220,59
688,71	1363,95
688,90	1271,79
689,08	1239,02
689,27	1273,84
689,45	1271,79
689,64	1314,80
689,82	1214,45
690,01	1236,97
690,19	1269,74
690,38	1251,31
690,56	1253,36
690,75	1236,97
690,93	1298,41
691,12	1200,11
691,30	1177,58
691,49	1271,79
691,67	1288,17
691,86	1273,84
692,04	1230,83
692,23	1275,88
692,41	1230,83
692,60	1318,89
692,78	1275,88
692,97	1236,97
693,15	1273,84
693,34	1255,40
693,52	1279,98
693,71	1275,88
693,89	1335,28
694,08	1279,98
694,26	1286,12
694,44	1290,22
694,63	1239,02
694,81	1245,16
695,00	1204,21
695,18	1232,88
695,37	1314,80
695,55	1265,64
695,74	1245,16
695,92	1300,46
696,10	1288,17
696,29	1333,23
696,47	1255,40
696,66	1312,75
696,84	1284,08
697,03	1316,84
697,21	1273,84
697,40	1263,60
697,58	1204,21
697,76	1255,40
697,95	1310,70
698,13	1310,70
698,32	1300,46
698,50	1345,52
698,68	1286,12
698,87	1333,23
699,05	1224,69
699,24	1259,50
699,42	1181,68
699,61	1257,45
699,79	1294,32
699,97	1312,75
700,16	1247,21
700,34	1253,36
700,53	1290,22
700,71	1282,03
700,89	1298,41
701,08	1288,17
701,26	1314,80
701,45	1263,60
701,63	1304,56
701,81	1175,53
702,00	1249,26
702,18	1370,09
702,37	1296,36
702,55	1210,35
702,73	1261,55
702,92	1282,03
703,10	1257,45
703,28	1361,90
703,47	1257,45
703,65	1210,35
703,84	1255,40
704,02	1253,36
704,20	1247,21
704,39	1298,41
704,57	1218,54
704,75	1288,17
704,94	1298,41
705,12	1263,60
705,30	1220,59
705,49	1304,56
705,67	1263,60
705,86	1318,89
706,04	1333,23
706,22	1329,13
706,41	1265,64
706,59	1243,12
706,77	1279,98
706,96	1310,70
707,14	1300,46
707,32	1331,18
707,51	1292,27
707,69	1255,40
707,87	1308,65
708,06	1226,73
708,24	1302,51
708,42	1263,60
708,61	1275,88
708,79	1253,36
708,97	1316,84
709,16	1316,84
709,34	1232,88
709,52	1228,78
709,71	1339,37
709,89	1234,93
710,07	1243,12
710,26	1279,98
710,44	1228,78
710,62	1193,97
710,80	1275,88
710,99	1253,36
711,17	1247,21
711,35	1298,41
711,54	1286,12
711,72	1333,23
711,90	1288,17
712,09	1255,40
712,27	1255,40
712,45	1355,76
712,63	1312,75
712,82	1277,93
713,00	1220,59
713,18	1275,88
713,37	1296,36
713,55	1263,60
713,73	1263,60
713,91	1241,07
714,10	1300,46
714,28	1306,60
714,46	1304,56
714,65	1335,28
714,83	1224,69
715,01	1232,88
715,19	1320,94
715,38	1210,35
715,56	1249,26
715,74	1196,01
715,92	1310,70
716,11	1241,07
716,29	1279,98
716,47	1304,56
716,65	1224,69
716,84	1382,38
717,02	1206,25
717,20	1239,02
717,38	1232,88
717,57	1263,60
717,75	1196,01
717,93	1284,08
718,11	1318,89
718,30	1286,12
718,48	1191,92
718,66	1255,40
718,84	1306,60
719,03	1261,55
719,21	1314,80
719,39	1257,45
719,57	1279,98
719,75	1261,55
719,94	1306,60
720,12	1232,88
720,30	1269,74
720,48	1204,21
720,67	1282,03
720,85	1216,49
721,03	1277,93
721,21	1189,87
721,39	1196,01
721,58	1318,89
721,76	1216,49
721,94	1320,94
722,12	1292,27
722,30	1239,02
722,49	1271,79
722,67	1284,08
722,85	1249,26
723,03	1210,35
723,21	1269,74
723,40	1335,28
723,58	1249,26
723,76	1292,27
723,94	1288,17
724,12	1263,60
724,30	1304,56
724,49	1271,79
724,67	1286,12
724,85	1273,84
725,03	1304,56
725,21	1284,08
725,40	1206,25
725,58	1243,12
725,76	1279,98
725,94	1337,32
726,12	1347,56
726,30	1273,84
726,49	1282,03
726,67	1267,69
726,85	1275,88
727,03	1241,07
727,21	1279,98
727,39	1298,41
727,57	1261,55
727,76	1247,21
727,94	1263,60
728,12	1251,31
728,30	1236,97
728,48	1239,02
728,66	1296,36
728,84	1288,17
729,03	1288,17
729,21	1241,07
729,39	1259,50
729,57	1228,78
729,75	1261,55
729,93	1245,16
730,11	1239,02
730,30	1296,36
730,48	1271,79
730,66	1220,59
730,84	1320,94
731,02	1300,46
731,20	1241,07
731,38	1196,01
731,56	1275,88
731,74	1277,93
731,93	1247,21
732,11	1253,36
732,29	1257,45
732,47	1327,08
732,65	1290,22
732,83	1263,60
733,01	1263,60
733,19	1265,64
733,37	1198,06
733,56	1265,64
733,74	1241,07
733,92	1279,98
734,10	1218,54
734,28	1220,59
734,46	1249,26
734,64	1212,40
734,82	1279,98
735,00	1212,40
735,18	1267,69
735,36	1249,26
735,54	1210,35
735,73	1200,11
735,91	1273,84
736,09	1304,56
736,27	1249,26
736,45	1290,22
736,63	1292,27
736,81	1193,97
736,99	1241,07
737,17	1249,26
737,35	1253,36
737,53	1308,65
737,71	1239,02
737,89	1257,45
738,07	1288,17
738,25	1304,56
738,43	1296,36
738,61	1279,98
738,80	1247,21
738,98	1314,80
739,16	1320,94
739,34	1298,41
739,52	1284,08
739,70	1288,17
739,88	1253,36
740,06	1226,73
740,24	1218,54
740,42	1239,02
740,60	1249,26
740,78	1308,65
740,96	1259,50
741,14	1241,07
741,32	1234,93
741,50	1198,06
741,68	1179,63
741,86	1253,36
742,04	1290,22
742,22	1300,46
742,40	1265,64
742,58	1226,73
742,76	1185,77
742,94	1224,69
743,12	1265,64
743,30	1292,27
743,48	1294,32
743,66	1257,45
743,84	1279,98
744,02	1318,89
744,20	1255,40
744,38	1282,03
744,56	1263,60
744,74	1300,46
744,92	1322,99
745,10	1308,65
745,28	1247,21
745,46	1322,99
745,64	1273,84
745,82	1298,41
746,00	1255,40
746,18	1261,55
746,36	1173,49
746,54	1243,12
746,72	1265,64
746,90	1216,49
747,08	1259,50
747,26	1218,54
747,44	1206,25
747,62	1236,97
747,80	1343,47
747,98	1253,36
748,15	1206,25
748,33	1325,04
748,51	1282,03
748,69	1339,37
748,87	1247,21
749,05	1212,40
749,23	1230,83
749,41	1335,28
749,59	1245,16
749,77	1185,77
749,95	1308,65
750,13	1222,64
750,31	1239,02
750,49	1259,50
750,67	1286,12
750,85	1257,45
751,03	1267,69
751,20	1314,80
751,38	1257,45
751,56	1259,50
751,74	1279,98
751,92	1206,25
752,10	1312,75
752,28	1286,12
752,46	1239,02
752,64	1214,45
752,82	1263,60
753,00	1316,84
753,18	1312,75
753,35	1277,93
753,53	1290,22
753,71	1204,21
753,89	1290,22
754,07	1208,30
754,25	1259,50
754,43	1273,84
754,61	1271,79
754,79	1267,69
754,97	1255,40
755,14	1339,37
755,32	1294,32
755,50	1277,93
755,68	1251,31
755,86	1261,55
756,04	1298,41
756,22	1345,52
756,40	1351,66
756,57	1353,71
756,75	1261,55
756,93	1337,32
757,11	1304,56
757,29	1331,18
757,47	1329,13
757,65	1277,93
757,82	1277,93
758,00	1312,75
758,18	1296,36
758,36	1208,30
758,54	1320,94
758,72	1269,74
758,90	1255,40
759,07	1316,84
759,25	1275,88
759,43	1292,27
759,61	1204,21
759,79	1259,50
759,97	1265,64
760,15	1196,01
760,32	1210,35
760,50	1249,26
760,68	1198,06
760,86	1308,65
761,04	1308,65
761,22	1277,93
761,39	1255,40
761,57	1269,74
761,75	1226,73
761,93	1245,16
762,11	1265,64
762,28	1277,93
762,46	1206,25
762,64	1255,40
762,82	1239,02
763,00	1288,17
763,18	1314,80
763,35	1249,26
763,53	1224,69
763,71	1329,13
763,89	1296,36
764,07	1232,88
764,24	1232,88
764,42	1236,97
764,60	1228,78
764,78	1292,27
764,96	1314,80
765,13	1304,56
765,31	1251,31
765,49	1230,83
765,67	1271,79
765,84	1275,88
766,02	1273,84
766,20	1206,25
766,38	1306,60
766,56	1269,74
766,73	1247,21
766,91	1255,40
767,09	1327,08
767,27	1271,79
767,44	1296,36
767,62	1228,78
767,80	1226,73
767,98	1216,49
768,15	1294,32
768,33	1222,64
768,51	1257,45
768,69	1185,77
768,87	1241,07
769,04	1255,40
769,22	1273,84
769,40	1298,41
769,58	1304,56
769,75	1277,93
769,93	1327,08
770,11	1220,59
770,28	1284,08
770,46	1200,11
770,64	1370,09
770,82	1351,66
770,99	1230,83
771,17	1312,75
771,35	1259,50
771,53	1304,56
771,70	1265,64
771,88	1232,88
772,06	1265,64
772,23	1228,78
772,41	1273,84
772,59	1261,55
772,77	1228,78
772,94	1210,35
773,12	1298,41
773,30	1200,11
773,47	1241,07
773,65	1191,92
773,83	1312,75
774,01	1314,80
774,18	1282,03
774,36	1232,88
774,54	1218,54
774,71	1216,49
774,89	1263,60
775,07	1277,93
775,24	1265,64
775,42	1230,83
775,60	1304,56
775,78	1263,60
775,95	1175,53
776,13	1259,50
776,31	1277,93
776,48	1306,60
776,66	1292,27
776,84	1239,02
777,01	1296,36
777,19	1247,21
777,37	1314,80
777,54	1265,64
777,72	1318,89
777,90	1284,08
778,07	1255,40
778,25	1259,50
778,43	1249,26
778,60	1241,07
778,78	1277,93
778,96	1175,53
779,13	1343,47
779,31	1257,45
779,49	1275,88
779,66	1290,22
779,84	1216,49
780,01	1263,60
780,19	1230,83
780,37	1304,56
780,54	1304,56
780,72	1218,54
780,90	1331,18
781,07	1288,17
781,25	1290,22
781,43	1273,84
781,60	1282,03
781,78	1220,59
781,95	1214,45
782,13	1243,12
782,31	1347,56
782,48	1273,84
782,66	1232,88
782,83	1239,02
783,01	1269,74
783,19	1300,46
783,36	1226,73
783,54	1286,12
783,72	1320,94
783,89	1206,25
784,07	1247,21
784,24	1282,03
784,42	1265,64
784,60	1273,84
784,77	1236,97
784,95	1220,59
785,12	1204,21
785,30	1261,55
785,47	1343,47
785,65	1236,97
785,83	1273,84
786,00	1239,02
786,18	1290,22
786,35	1290,22
786,53	1232,88
786,71	1310,70
786,88	1304,56
787,06	1325,04
787,23	1288,17
787,41	1251,31
787,58	1257,45
787,76	1269,74
787,94	1249,26
788,11	1232,88
788,29	1306,60
788,46	1318,89
788,64	1175,53
788,81	1257,45
788,99	1249,26
789,16	1230,83
789,34	1308,65
789,52	1288,17
789,69	1228,78
789,87	1318,89
790,04	1300,46
790,22	1249,26
790,39	1277,93
790,57	1255,40
790,74	1351,66
790,92	1269,74
791,09	1294,32
791,27	1286,12
791,44	1282,03
791,62	1298,41
791,79	1351,66
791,97	1257,45
792,15	1226,73
792,32	1277,93
792,50	1277,93
792,67	1298,41
792,85	1271,79
793,02	1249,26
793,20	1212,40
793,37	1310,70
793,55	1310,70
793,72	1267,69
793,90	1241,07
794,07	1306,60
794,25	1249,26
794,42	1234,93
794,60	1298,41
794,77	1232,88
794,95	1290,22
795,12	1261,55
795,30	1247,21
795,47	1241,07
795,65	1273,84
795,82	1251,31
796,00	1251,31
796,17	1253,36
796,34	1273,84
796,52	1259,50
796,69	1304,56
796,87	1290,22
797,04	1218,54
797,22	1292,27
797,39	1249,26
797,57	1277,93
797,74	1304,56
797,92	1249,26
798,09	1261,55
798,27	1304,56
798,44	1204,21
798,62	1302,51
798,79	1304,56
798,96	1290,22
799,14	1255,40
799,31	1345,52
799,49	1265,64
799,66	1271,79
799,84	1298,41
800,01	1296,36
800,19	1263,60
800,36	1331,18
800,53	1267,69
800,71	1273,84
800,88	1239,02
801,06	1279,98
801,23	1253,36
801,41	1236,97
801,58	1251,31
801,75	1204,21
801,93	1241,07
802,10	1253,36
802,28	1251,31
802,45	1275,88
802,63	1222,64
802,80	1222,64
802,97	1269,74
803,15	1286,12
803,32	1202,16
803,50	1318,89
803,67	1245,16
803,84	1267,69
804,02	1318,89
804,19	1298,41
804,37	1273,84
804,54	1263,60
804,71	1247,21
804,89	1302,51
805,06	1294,32
805,24	1202,16
805,41	1257,45
805,58	1204,21
805,76	1318,89
805,93	1290,22
806,10	1296,36
806,28	1271,79
806,45	1232,88
806,63	1275,88
806,80	1351,66
806,97	1232,88
807,15	1261,55
807,32	1232,88
807,49	1263,60
807,67	1230,83
807,84	1294,32
808,01	1296,36
808,19	1271,79
808,36	1212,40
808,54	1282,03
808,71	1189,87
808,88	1306,60
809,06	1198,06
809,23	1247,21
809,40	1259,50
809,58	1286,12
809,75	1263,60
809,92	1265,64
810,10	1267,69
810,27	1288,17
810,44	1267,69
810,62	1228,78
810,79	1310,70
810,96	1241,07
811,14	1200,11
811,31	1265,64
811,48	1187,82
811,66	1298,41
811,83	1322,99
812,00	1279,98
812,18	1322,99
812,35	1222,64
812,52	1253,36
812,69	1257,45
812,87	1222,64
813,04	1173,49
813,21	1325,04
813,39	1318,89
813,56	1230,83
813,73	1314,80
813,91	1273,84
814,08	1228,78
814,25	1286,12
814,42	1298,41
814,60	1234,93
814,77	1277,93
814,94	1298,41
815,12	1210,35
815,29	1271,79
815,46	1284,08
815,63	1247,21
815,81	1277,93
815,98	1263,60
816,15	1263,60
816,33	1263,60
816,50	1241,07
816,67	1294,32
816,84	1263,60
817,02	1226,73
817,19	1224,69
817,36	1245,16
817,53	1275,88
817,71	1216,49
817,88	1273,84
818,05	1230,83
818,22	1296,36
818,40	1294,32
818,57	1247,21
818,74	1236,97
818,91	1282,03
819,09	1310,70
819,26	1216,49
819,43	1214,45
819,60	1261,55
819,78	1286,12
819,95	1269,74
820,12	1239,02
820,29	1239,02
820,47	1249,26
820,64	1306,60
820,81	1273,84
820,98	1204,21
821,15	1249,26
821,33	1275,88
821,50	1286,12
821,67	1277,93
821,84	1267,69
822,02	1249,26
822,19	1243,12
822,36	1257,45
822,53	1275,88
822,70	1232,88
822,88	1265,64
823,05	1193,97
823,22	1212,40
823,39	1269,74
823,56	1232,88
823,74	1284,08
823,91	1200,11
824,08	1306,60
824,25	1224,69
824,42	1261,55
824,60	1277,93
824,77	1345,52
824,94	1236,97
825,11	1292,27
825,28	1220,59
825,45	1277,93
825,63	1277,93
825,80	1251,31
825,97	1257,45
826,14	1230,83
826,31	1263,60
826,48	1296,36
826,66	1294,32
826,83	1312,75
827,00	1255,40
827,17	1220,59
827,34	1363,95
827,51	1273,84
827,69	1239,02
827,86	1253,36
828,03	1308,65
828,20	1294,32
828,37	1275,88
828,54	1298,41
828,71	1241,07
828,89	1288,17
829,06	1189,87
829,23	1263,60
829,40	1290,22
829,57	1314,80
829,74	1247,21
829,91	1249,26
830,09	1273,84
830,26	1265,64
830,43	1226,73
830,60	1306,60
830,77	1310,70
830,94	1259,50
831,11	1263,60
831,28	1349,61
831,46	1267,69
831,63	1306,60
831,80	1320,94
831,97	1310,70
832,14	1296,36
832,31	1300,46
832,48	1206,25
832,65	1232,88
832,82	1271,79
832,99	1325,04
833,17	1292,27
833,34	1243,12
833,51	1257,45
833,68	1279,98
833,85	1290,22
834,02	1284,08
834,19	1277,93
834,36	1277,93
834,53	1259,50
834,70	1236,97
834,87	1214,45
835,04	1347,56
835,22	1290,22
835,39	1279,98
835,56	1282,03
835,73	1302,51
835,90	1273,84
836,07	1286,12
836,24	1298,41
836,41	1304,56
836,58	1224,69
836,75	1347,56
836,92	1269,74
837,09	1327,08
837,26	1269,74
837,43	1243,12
837,60	1251,31
837,77	1269,74
837,94	1306,60
838,12	1257,45
838,29	1255,40
838,46	1222,64
838,63	1218,54
838,80	1318,89
838,97	1302,51
839,14	1288,17
839,31	1257,45
839,48	1325,04
839,65	1257,45
839,82	1286,12
839,99	1333,23
840,16	1271,79
840,33	1251,31
840,50	1232,88
840,67	1241,07
840,84	1290,22
841,01	1171,44
841,18	1310,70
841,35	1286,12
841,52	1214,45
841,69	1214,45
841,86	1386,47
842,03	1279,98
842,20	1288,17
842,37	1271,79
842,54	1288,17
842,71	1224,69
842,88	1327,08
843,05	1312,75
843,22	1265,64
843,39	1290,22
843,56	1294,32
843,73	1275,88
843,90	1284,08
844,07	1292,27
844,24	1218,54
844,41	1284,08
844,58	1294,32
844,75	1294,32
844,92	1273,84
845,09	1292,27
845,26	1265,64
845,43	1288,17
845,60	1228,78
845,77	1212,40
845,94	1275,88
846,10	1239,02
846,27	1318,89
846,44	1261,55
846,61	1363,95
846,78	1243,12
846,95	1304,56
847,12	1212,40
847,29	1230,83
847,46	1222,64
847,63	1200,11
847,80	1286,12
847,97	1269,74
848,14	1290,22
848,31	1239,02
848,48	1331,18
848,65	1292,27
848,82	1277,93
848,98	1333,23
849,15	1271,79
849,32	1234,93
849,49	1269,74
849,66	1318,89
849,83	1357,80
850,00	1187,82
850,17	1296,36
850,34	1265,64
850,51	1269,74
850,68	1312,75
850,85	1175,53
851,01	1224,69
851,18	1298,41
851,35	1191,92
851,52	1273,84
851,69	1314,80
851,86	1288,17
852,03	1241,07
852,20	1269,74
852,37	1345,52
852,53	1210,35
852,70	1263,60
852,87	1251,31
853,04	1298,41
853,21	1322,99
853,38	1185,77
853,55	1241,07
853,72	1273,84
853,89	1241,07
854,05	1239,02
854,22	1288,17
854,39	1298,41
854,56	1318,89
854,73	1296,36
854,90	1204,21
855,07	1214,45
855,23	1282,03
855,40	1216,49
855,57	1255,40
855,74	1318,89
855,91	1259,50
856,08	1288,17
856,25	1255,40
856,41	1271,79
856,58	1232,88
856,75	1177,58
856,92	1300,46
857,09	1273,84
857,26	1216,49
857,42	1273,84
857,59	1306,60
857,76	1222,64
857,93	1148,91
858,10	1191,92
858,27	1273,84
858,43	1306,60
858,60	1216,49
858,77	1185,77
858,94	1228,78
859,11	1322,99
859,27	1292,27
859,44	1308,65
859,61	1183,73
859,78	1277,93
859,95	1220,59
860,12	1300,46
860,28	1253,36
860,45	1249,26
860,62	1316,84
860,79	1261,55
860,95	1275,88
861,12	1284,08
861,29	1212,40
861,46	1255,40
861,63	1226,73
861,79	1290,22
861,96	1269,74
862,13	1249,26
862,30	1265,64
862,47	1271,79
862,63	1255,40
862,80	1279,98
862,97	1288,17
863,14	1269,74
863,30	1296,36
863,47	1294,32
863,64	1290,22
863,81	1247,21
863,97	1218,54
864,14	1255,40
864,31	1327,08
864,48	1296,36
864,65	1327,08
864,81	1265,64
864,98	1253,36
865,15	1325,04
865,32	1273,84
865,48	1290,22
865,65	1302,51
865,82	1267,69
865,98	1282,03
866,15	1275,88
866,32	1382,38
866,49	1292,27
866,65	1259,50
866,82	1224,69
866,99	1234,93
867,16	1236,97
867,32	1251,31
867,49	1267,69
867,66	1271,79
867,83	1335,28
867,99	1318,89
868,16	1267,69
868,33	1310,70
868,49	1327,08
868,66	1218,54
868,83	1236,97
868,99	1277,93
869,16	1306,60
869,33	1239,02
869,50	1349,61
869,66	1212,40
869,83	1273,84
870,00	1224,69
870,16	1355,76
870,33	1249,26
870,50	1255,40
870,66	1284,08
870,83	1310,70
871,00	1263,60
871,17	1306,60
871,33	1267,69
871,50	1253,36
871,67	1251,31
871,83	1298,41
872,00	1296,36
872,17	1167,34
872,33	1294,32
872,50	1333,23
872,67	1261,55
872,83	1306,60
873,00	1271,79
873,17	1269,74
873,33	1277,93
873,50	1275,88
873,67	1345,52
873,83	1294,32
874,00	1335,28
874,16	1308,65
874,33	1304,56
874,50	1308,65
874,66	1292,27
874,83	1263,60
875,00	1259,50
875,16	1284,08
875,33	1255,40
875,50	1255,40
875,66	1273,84
875,83	1327,08
875,99	1302,51
876,16	1306,60
876,33	1210,35
876,49	1349,61
876,66	1271,79
876,83	1318,89
876,99	1243,12
877,16	1265,64
877,32	1286,12
877,49	1239,02
877,66	1212,40
877,82	1282,03
877,99	1239,02
878,15	1341,42
878,32	1286,12
878,49	1277,93
878,65	1187,82
878,82	1314,80
878,98	1208,30
879,15	1298,41
879,32	1228,78
879,48	1253,36
879,65	1308,65
879,81	1216,49
879,98	1253,36
880,15	1245,16
880,31	1261,55
880,48	1189,87
880,64	1253,36
880,81	1257,45
880,97	1265,64
881,14	1241,07
881,31	1232,88
881,47	1284,08
881,64	1300,46
881,80	1247,21
881,97	1294,32
882,13	1189,87
882,30	1341,42
882,47	1228,78
882,63	1224,69
882,80	1279,98
882,96	1187,82
883,13	1337,32
883,29	1277,93
883,46	1275,88
883,62	1312,75
883,79	1298,41
883,95	1308,65
884,12	1220,59
884,29	1275,88
884,45	1232,88
884,62	1296,36
884,78	1341,42
884,95	1251,31
885,11	1239,02
885,28	1228,78
885,44	1320,94
885,61	1253,36
885,77	1253,36
885,94	1318,89
886,10	1222,64
886,27	1341,42
886,43	1202,16
886,60	1292,27
886,76	1247,21
886,93	1230,83
887,09	1263,60
887,26	1331,18
887,42	1263,60
887,59	1282,03
887,75	1310,70
887,92	1275,88
888,08	1286,12
888,25	1251,31
888,41	1230,83
888,58	1298,41
888,74	1294,32
888,91	1226,73
>>>>>End Processed Spectral Data<<<<<
