SpectraSuite Data File
++++++++++++++++++++++++++++++++++++
Date: Sun Apr 03 18:26:04 CEST 2016
User: root
Dark Spectrum Present: No
Reference Spectrum Present: No
Number of Sampled Component Spectra: 1
Spectrometers: USB4C02835
Integration Time (usec): 10000 (USB4C02835)
Spectra Averaged: 1 (USB4C02835)
Boxcar Smoothing: 0 (USB4C02835)
Correct for Electrical Dark: No (USB4C02835)
Strobe/Lamp Enabled: No (USB4C02835)
Correct for Detector Non-linearity: No (USB4C02835)
Correct for Stray Light: No (USB4C02835)
Number of Pixels in Processed Spectrum: 3648
>>>>>Begin Processed Spectral Data<<<<<
177,47	1241,07
177,69	1241,07
177,91	1241,07
178,13	1185,77
178,36	1232,88
178,58	1359,85
178,80	1314,80
179,02	1275,88
179,24	1208,30
179,46	1298,41
179,68	1239,02
179,90	1212,40
180,13	1277,93
180,35	1261,55
180,57	1312,75
180,79	1273,84
181,01	1216,49
181,23	1253,36
181,45	1288,17
181,67	1232,88
181,90	1314,80
182,12	1253,36
182,34	1222,64
182,56	1247,21
182,78	1298,41
183,00	1300,46
183,22	1329,13
183,44	1232,88
183,66	1275,88
183,89	1228,78
184,11	1370,09
184,33	1251,31
184,55	1261,55
184,77	1253,36
184,99	1247,21
185,21	1263,60
185,43	1175,53
185,65	1282,03
185,87	1263,60
186,10	1220,59
186,32	1208,30
186,54	1318,89
186,76	1263,60
186,98	1296,36
187,20	1251,31
187,42	1255,40
187,64	1292,27
187,86	1243,12
188,08	1255,40
188,30	1243,12
188,52	1306,60
188,75	1279,98
188,97	1284,08
189,19	1259,50
189,41	1273,84
189,63	1210,35
189,85	1243,12
190,07	1191,92
190,29	1239,02
190,51	1193,97
190,73	1314,80
190,95	1288,17
191,17	1284,08
191,39	1275,88
191,61	1263,60
191,84	1322,99
192,06	1273,84
192,28	1271,79
192,50	1282,03
192,72	1185,77
192,94	1230,83
193,16	1255,40
193,38	1335,28
193,60	1349,61
193,82	1234,93
194,04	1241,07
194,26	1224,69
194,48	1214,45
194,70	1302,51
194,92	1339,37
195,14	1312,75
195,36	1275,88
195,58	1277,93
195,80	1261,55
196,02	1224,69
196,24	1282,03
196,46	1269,74
196,69	1224,69
196,91	1318,89
197,13	1183,73
197,35	1327,08
197,57	1222,64
197,79	1279,98
198,01	1198,06
198,23	1198,06
198,45	1271,79
198,67	1312,75
198,89	1284,08
199,11	1341,42
199,33	1257,45
199,55	1208,30
199,77	1322,99
199,99	1359,85
200,21	1286,12
200,43	1261,55
200,65	1239,02
200,87	1200,11
201,09	1218,54
201,31	1245,16
201,53	1257,45
201,75	1253,36
201,97	1275,88
202,19	1191,92
202,41	1200,11
202,63	1216,49
202,85	1349,61
203,07	1275,88
203,29	1230,83
203,51	1210,35
203,73	1245,16
203,95	1249,26
204,17	1245,16
204,39	1273,84
204,61	1279,98
204,83	1322,99
205,05	1234,93
205,27	1312,75
205,49	1271,79
205,71	1298,41
205,93	1261,55
206,15	1318,89
206,37	1331,18
206,59	1255,40
206,81	1230,83
207,03	1216,49
207,25	1259,50
207,47	1218,54
207,69	1284,08
207,91	1271,79
208,13	1316,84
208,34	1212,40
208,56	1218,54
208,78	1267,69
209,00	1232,88
209,22	1216,49
209,44	1175,53
209,66	1290,22
209,88	1277,93
210,10	1316,84
210,32	1247,21
210,54	1241,07
210,76	1249,26
210,98	1284,08
211,20	1161,20
211,42	1265,64
211,64	1277,93
211,86	1294,32
212,08	1269,74
212,30	1253,36
212,52	1288,17
212,74	1236,97
212,96	1253,36
213,17	1261,55
213,39	1251,31
213,61	1247,21
213,83	1359,85
214,05	1306,60
214,27	1290,22
214,49	1224,69
214,71	1300,46
214,93	1189,87
215,15	1261,55
215,37	1327,08
215,59	1261,55
215,81	1296,36
216,03	1370,09
216,24	1300,46
216,46	1273,84
216,68	1224,69
216,90	1253,36
217,12	1284,08
217,34	1316,84
217,56	1288,17
217,78	1234,93
218,00	1269,74
218,22	1257,45
218,44	1228,78
218,66	1257,45
218,87	1247,21
219,09	1290,22
219,31	1218,54
219,53	1304,56
219,75	1298,41
219,97	1257,45
220,19	1370,09
220,41	1361,90
220,63	1329,13
220,85	1198,06
221,06	1284,08
221,28	1308,65
221,50	1239,02
221,72	1236,97
221,94	1232,88
222,16	1275,88
222,38	1263,60
222,60	1343,47
222,82	1249,26
223,03	1312,75
223,25	1275,88
223,47	1232,88
223,69	1220,59
223,91	1241,07
224,13	1300,46
224,35	1191,92
224,57	1241,07
224,78	1261,55
225,00	1304,56
225,22	1230,83
225,44	1298,41
225,66	1230,83
225,88	1224,69
226,10	1368,04
226,32	1320,94
226,53	1296,36
226,75	1206,25
226,97	1257,45
227,19	1294,32
227,41	1236,97
227,63	1310,70
227,85	1249,26
228,06	1292,27
228,28	1261,55
228,50	1269,74
228,72	1290,22
228,94	1269,74
229,16	1236,97
229,37	1269,74
229,59	1239,02
229,81	1273,84
230,03	1267,69
230,25	1282,03
230,47	1265,64
230,69	1282,03
230,90	1200,11
231,12	1245,16
231,34	1269,74
231,56	1198,06
231,78	1300,46
232,00	1249,26
232,21	1269,74
232,43	1224,69
232,65	1277,93
232,87	1312,75
233,09	1224,69
233,30	1239,02
233,52	1314,80
233,74	1253,36
233,96	1269,74
234,18	1241,07
234,40	1347,56
234,61	1288,17
234,83	1277,93
235,05	1269,74
235,27	1271,79
235,49	1351,66
235,70	1230,83
235,92	1306,60
236,14	1241,07
236,36	1298,41
236,58	1279,98
236,79	1300,46
237,01	1296,36
237,23	1331,18
237,45	1261,55
237,67	1255,40
237,88	1245,16
238,10	1239,02
238,32	1210,35
238,54	1294,32
238,76	1214,45
238,97	1251,31
239,19	1236,97
239,41	1327,08
239,63	1245,16
239,85	1261,55
240,06	1298,41
240,28	1208,30
240,50	1222,64
240,72	1243,12
240,93	1224,69
241,15	1314,80
241,37	1306,60
241,59	1273,84
241,81	1224,69
242,02	1296,36
242,24	1247,21
242,46	1286,12
242,68	1286,12
242,89	1243,12
243,11	1269,74
243,33	1230,83
243,55	1259,50
243,76	1345,52
243,98	1290,22
244,20	1236,97
244,42	1208,30
244,64	1302,51
244,85	1300,46
245,07	1337,32
245,29	1339,37
245,51	1257,45
245,72	1273,84
245,94	1290,22
246,16	1216,49
246,38	1355,76
246,59	1310,70
246,81	1245,16
247,03	1316,84
247,24	1259,50
247,46	1273,84
247,68	1261,55
247,90	1302,51
248,11	1259,50
248,33	1243,12
248,55	1243,12
248,77	1241,07
248,98	1288,17
249,20	1239,02
249,42	1263,60
249,64	1224,69
249,85	1304,56
250,07	1335,28
250,29	1241,07
250,50	1236,97
250,72	1320,94
250,94	1275,88
251,16	1337,32
251,37	1265,64
251,59	1247,21
251,81	1345,52
252,02	1302,51
252,24	1249,26
252,46	1230,83
252,68	1288,17
252,89	1263,60
253,11	1302,51
253,33	1302,51
253,54	1265,64
253,76	1239,02
253,98	1288,17
254,20	1239,02
254,41	1286,12
254,63	1226,73
254,85	1288,17
255,06	1187,82
255,28	1286,12
255,50	1257,45
255,71	1267,69
255,93	1282,03
256,15	1259,50
256,36	1275,88
256,58	1269,74
256,80	1318,89
257,02	1308,65
257,23	1251,31
257,45	1241,07
257,67	1257,45
257,88	1265,64
258,10	1310,70
258,32	1183,73
258,53	1161,20
258,75	1290,22
258,97	1265,64
259,18	1261,55
259,40	1312,75
259,62	1249,26
259,83	1251,31
260,05	1279,98
260,27	1232,88
260,48	1259,50
260,70	1290,22
260,92	1218,54
261,13	1290,22
261,35	1226,73
261,57	1277,93
261,78	1316,84
262,00	1286,12
262,22	1241,07
262,43	1279,98
262,65	1304,56
262,86	1286,12
263,08	1343,47
263,30	1296,36
263,51	1298,41
263,73	1214,45
263,95	1318,89
264,16	1245,16
264,38	1255,40
264,60	1263,60
264,81	1302,51
265,03	1239,02
265,25	1277,93
265,46	1222,64
265,68	1279,98
265,89	1286,12
266,11	1267,69
266,33	1206,25
266,54	1251,31
266,76	1263,60
266,98	1265,64
267,19	1265,64
267,41	1290,22
267,62	1259,50
267,84	1275,88
268,06	1249,26
268,27	1236,97
268,49	1200,11
268,70	1306,60
268,92	1271,79
269,14	1212,40
269,35	1288,17
269,57	1253,36
269,79	1294,32
270,00	1204,21
270,22	1298,41
270,43	1224,69
270,65	1320,94
270,87	1300,46
271,08	1206,25
271,30	1322,99
271,51	1218,54
271,73	1265,64
271,95	1167,34
272,16	1261,55
272,38	1306,60
272,59	1224,69
272,81	1286,12
273,02	1228,78
273,24	1265,64
273,46	1339,37
273,67	1306,60
273,89	1290,22
274,10	1290,22
274,32	1171,44
274,54	1261,55
274,75	1259,50
274,97	1363,95
275,18	1216,49
275,40	1226,73
275,61	1353,71
275,83	1239,02
276,05	1249,26
276,26	1259,50
276,48	1189,87
276,69	1210,35
276,91	1273,84
277,12	1300,46
277,34	1298,41
277,55	1286,12
277,77	1304,56
277,99	1269,74
278,20	1216,49
278,42	1282,03
278,63	1232,88
278,85	1265,64
279,06	1247,21
279,28	1296,36
279,49	1265,64
279,71	1249,26
279,93	1226,73
280,14	1245,16
280,36	1263,60
280,57	1265,64
280,79	1230,83
281,00	1196,01
281,22	1273,84
281,43	1263,60
281,65	1226,73
281,86	1300,46
282,08	1249,26
282,29	1261,55
282,51	1275,88
282,73	1239,02
282,94	1224,69
283,16	1273,84
283,37	1232,88
283,59	1279,98
283,80	1249,26
284,02	1165,29
284,23	1277,93
284,45	1255,40
284,66	1257,45
284,88	1243,12
285,09	1230,83
285,31	1210,35
285,52	1259,50
285,74	1255,40
285,95	1322,99
286,17	1347,56
286,38	1257,45
286,60	1265,64
286,81	1265,64
287,03	1200,11
287,24	1292,27
287,46	1271,79
287,67	1277,93
287,89	1314,80
288,10	1316,84
288,32	1296,36
288,53	1300,46
288,75	1202,16
288,96	1224,69
289,18	1325,04
289,39	1267,69
289,61	1253,36
289,82	1312,75
290,04	1212,40
290,25	1247,21
290,47	1183,73
290,68	1232,88
290,90	1226,73
291,11	1269,74
291,33	1284,08
291,54	1277,93
291,76	1288,17
291,97	1298,41
292,18	1286,12
292,40	1224,69
292,61	1290,22
292,83	1286,12
293,04	1220,59
293,26	1265,64
293,47	1271,79
293,69	1210,35
293,90	1247,21
294,12	1208,30
294,33	1298,41
294,55	1230,83
294,76	1267,69
294,97	1273,84
295,19	1290,22
295,40	1236,97
295,62	1273,84
295,83	1327,08
296,05	1265,64
296,26	1212,40
296,48	1239,02
296,69	1179,63
296,90	1251,31
297,12	1308,65
297,33	1286,12
297,55	1245,16
297,76	1308,65
297,98	1282,03
298,19	1261,55
298,41	1185,77
298,62	1255,40
298,83	1288,17
299,05	1257,45
299,26	1232,88
299,48	1294,32
299,69	1269,74
299,90	1271,79
300,12	1234,93
300,33	1214,45
300,55	1318,89
300,76	1263,60
300,98	1179,63
301,19	1302,51
301,40	1245,16
301,62	1247,21
301,83	1222,64
302,05	1247,21
302,26	1275,88
302,47	1241,07
302,69	1251,31
302,90	1247,21
303,12	1261,55
303,33	1298,41
303,54	1234,93
303,76	1253,36
303,97	1251,31
304,19	1296,36
304,40	1277,93
304,61	1255,40
304,83	1269,74
305,04	1279,98
305,26	1284,08
305,47	1304,56
305,68	1216,49
305,90	1292,27
306,11	1218,54
306,33	1218,54
306,54	1300,46
306,75	1265,64
306,97	1277,93
307,18	1296,36
307,39	1220,59
307,61	1193,97
307,82	1277,93
308,04	1263,60
308,25	1333,23
308,46	1163,25
308,68	1228,78
308,89	1273,84
309,10	1259,50
309,32	1251,31
309,53	1282,03
309,74	1292,27
309,96	1269,74
310,17	1261,55
310,39	1271,79
310,60	1257,45
310,81	1257,45
311,03	1304,56
311,24	1271,79
311,45	1218,54
311,67	1314,80
311,88	1206,25
312,09	1316,84
312,31	1212,40
312,52	1279,98
312,73	1275,88
312,95	1269,74
313,16	1349,61
313,37	1277,93
313,59	1279,98
313,80	1251,31
314,01	1253,36
314,23	1316,84
314,44	1253,36
314,65	1261,55
314,87	1286,12
315,08	1241,07
315,29	1320,94
315,51	1298,41
315,72	1265,64
315,93	1275,88
316,15	1267,69
316,36	1241,07
316,57	1273,84
316,79	1189,87
317,00	1327,08
317,21	1294,32
317,43	1302,51
317,64	1273,84
317,85	1273,84
318,07	1265,64
318,28	1265,64
318,49	1304,56
318,70	1245,16
318,92	1277,93
319,13	1322,99
319,34	1269,74
319,56	1247,21
319,77	1263,60
319,98	1247,21
320,20	1247,21
320,41	1296,36
320,62	1290,22
320,83	1351,66
321,05	1271,79
321,26	1232,88
321,47	1288,17
321,69	1253,36
321,90	1216,49
322,11	1279,98
322,32	1220,59
322,54	1337,32
322,75	1263,60
322,96	1267,69
323,18	1286,12
323,39	1282,03
323,60	1230,83
323,81	1245,16
324,03	1251,31
324,24	1284,08
324,45	1271,79
324,66	1245,16
324,88	1292,27
325,09	1275,88
325,30	1271,79
325,52	1214,45
325,73	1275,88
325,94	1271,79
326,15	1243,12
326,37	1200,11
326,58	1239,02
326,79	1312,75
327,00	1171,44
327,22	1292,27
327,43	1261,55
327,64	1300,46
327,85	1286,12
328,07	1261,55
328,28	1300,46
328,49	1269,74
328,70	1247,21
328,92	1208,30
329,13	1292,27
329,34	1296,36
329,55	1275,88
329,76	1273,84
329,98	1193,97
330,19	1314,80
330,40	1310,70
330,61	1282,03
330,83	1224,69
331,04	1320,94
331,25	1200,11
331,46	1320,94
331,68	1261,55
331,89	1292,27
332,10	1263,60
332,31	1290,22
332,52	1239,02
332,74	1234,93
332,95	1288,17
333,16	1282,03
333,37	1314,80
333,58	1273,84
333,80	1273,84
334,01	1226,73
334,22	1320,94
334,43	1249,26
334,64	1196,01
334,86	1253,36
335,07	1298,41
335,28	1224,69
335,49	1245,16
335,70	1316,84
335,92	1232,88
336,13	1325,04
336,34	1245,16
336,55	1263,60
336,76	1269,74
336,98	1279,98
337,19	1314,80
337,40	1294,32
337,61	1263,60
337,82	1298,41
338,04	1320,94
338,25	1245,16
338,46	1310,70
338,67	1218,54
338,88	1294,32
339,09	1263,60
339,31	1269,74
339,52	1255,40
339,73	1263,60
339,94	1298,41
340,15	1261,55
340,36	1273,84
340,58	1234,93
340,79	1234,93
341,00	1239,02
341,21	1245,16
341,42	1308,65
341,63	1263,60
341,85	1275,88
342,06	1243,12
342,27	1224,69
342,48	1298,41
342,69	1216,49
342,90	1206,25
343,12	1310,70
343,33	1265,64
343,54	1314,80
343,75	1269,74
343,96	1257,45
344,17	1241,07
344,38	1263,60
344,60	1292,27
344,81	1210,35
345,02	1292,27
345,23	1245,16
345,44	1255,40
345,65	1290,22
345,86	1263,60
346,07	1239,02
346,29	1247,21
346,50	1269,74
346,71	1279,98
346,92	1271,79
347,13	1288,17
347,34	1193,97
347,55	1310,70
347,76	1302,51
347,98	1298,41
348,19	1185,77
348,40	1271,79
348,61	1269,74
348,82	1212,40
349,03	1304,56
349,24	1247,21
349,45	1282,03
349,66	1279,98
349,88	1245,16
350,09	1214,45
350,30	1284,08
350,51	1253,36
350,72	1279,98
350,93	1333,23
351,14	1249,26
351,35	1273,84
351,56	1302,51
351,77	1255,40
351,99	1322,99
352,20	1226,73
352,41	1294,32
352,62	1230,83
352,83	1255,40
353,04	1279,98
353,25	1243,12
353,46	1200,11
353,67	1218,54
353,88	1259,50
354,09	1298,41
354,30	1337,32
354,52	1234,93
354,73	1284,08
354,94	1279,98
355,15	1210,35
355,36	1363,95
355,57	1312,75
355,78	1322,99
355,99	1290,22
356,20	1310,70
356,41	1222,64
356,62	1257,45
356,83	1363,95
357,04	1292,27
357,25	1214,45
357,46	1236,97
357,68	1314,80
357,89	1230,83
358,10	1318,89
358,31	1253,36
358,52	1261,55
358,73	1290,22
358,94	1232,88
359,15	1243,12
359,36	1206,25
359,57	1304,56
359,78	1257,45
359,99	1294,32
360,20	1239,02
360,41	1263,60
360,62	1251,31
360,83	1198,06
361,04	1271,79
361,25	1329,13
361,46	1253,36
361,67	1325,04
361,88	1224,69
362,09	1327,08
362,30	1361,90
362,51	1294,32
362,72	1296,36
362,93	1187,82
363,14	1226,73
363,35	1247,21
363,56	1290,22
363,78	1314,80
363,99	1253,36
364,20	1249,26
364,41	1320,94
364,62	1265,64
364,83	1306,60
365,04	1316,84
365,25	1261,55
365,46	1290,22
365,67	1312,75
365,88	1189,87
366,09	1247,21
366,30	1243,12
366,51	1206,25
366,72	1247,21
366,93	1239,02
367,14	1241,07
367,35	1257,45
367,56	1269,74
367,77	1355,76
367,98	1236,97
368,18	1294,32
368,39	1241,07
368,60	1320,94
368,81	1263,60
369,02	1263,60
369,23	1228,78
369,44	1265,64
369,65	1216,49
369,86	1191,92
370,07	1288,17
370,28	1304,56
370,49	1232,88
370,70	1320,94
370,91	1243,12
371,12	1228,78
371,33	1198,06
371,54	1290,22
371,75	1259,50
371,96	1261,55
372,17	1236,97
372,38	1314,80
372,59	1322,99
372,80	1294,32
373,01	1234,93
373,22	1292,27
373,43	1294,32
373,64	1228,78
373,85	1212,40
374,06	1257,45
374,26	1327,08
374,47	1279,98
374,68	1224,69
374,89	1249,26
375,10	1296,36
375,31	1306,60
375,52	1294,32
375,73	1271,79
375,94	1214,45
376,15	1185,77
376,36	1226,73
376,57	1282,03
376,78	1259,50
376,99	1318,89
377,20	1259,50
377,40	1298,41
377,61	1187,82
377,82	1251,31
378,03	1300,46
378,24	1314,80
378,45	1277,93
378,66	1316,84
378,87	1384,43
379,08	1265,64
379,29	1282,03
379,50	1329,13
379,71	1249,26
379,91	1218,54
380,12	1265,64
380,33	1294,32
380,54	1271,79
380,75	1241,07
380,96	1261,55
381,17	1271,79
381,38	1265,64
381,59	1333,23
381,80	1310,70
382,00	1322,99
382,21	1202,16
382,42	1243,12
382,63	1288,17
382,84	1271,79
383,05	1253,36
383,26	1239,02
383,47	1255,40
383,68	1249,26
383,88	1193,97
384,09	1257,45
384,30	1296,36
384,51	1292,27
384,72	1214,45
384,93	1236,97
385,14	1214,45
385,35	1247,21
385,55	1206,25
385,76	1245,16
385,97	1286,12
386,18	1259,50
386,39	1347,56
386,60	1218,54
386,81	1226,73
387,02	1257,45
387,22	1345,52
387,43	1220,59
387,64	1312,75
387,85	1273,84
388,06	1279,98
388,27	1282,03
388,48	1353,71
388,68	1239,02
388,89	1300,46
389,10	1239,02
389,31	1165,29
389,52	1257,45
389,73	1251,31
389,93	1306,60
390,14	1292,27
390,35	1263,60
390,56	1247,21
390,77	1232,88
390,98	1255,40
391,18	1212,40
391,39	1275,88
391,60	1273,84
391,81	1255,40
392,02	1269,74
392,23	1218,54
392,43	1255,40
392,64	1279,98
392,85	1300,46
393,06	1220,59
393,27	1296,36
393,47	1277,93
393,68	1314,80
393,89	1253,36
394,10	1265,64
394,31	1269,74
394,52	1335,28
394,72	1251,31
394,93	1265,64
395,14	1224,69
395,35	1222,64
395,56	1277,93
395,76	1337,32
395,97	1279,98
396,18	1230,83
396,39	1294,32
396,60	1269,74
396,80	1265,64
397,01	1236,97
397,22	1191,92
397,43	1265,64
397,64	1302,51
397,84	1234,93
398,05	1263,60
398,26	1308,65
398,47	1234,93
398,67	1353,71
398,88	1253,36
399,09	1284,08
399,30	1269,74
399,51	1292,27
399,71	1298,41
399,92	1314,80
400,13	1284,08
400,34	1202,16
400,54	1165,29
400,75	1257,45
400,96	1196,01
401,17	1304,56
401,37	1290,22
401,58	1275,88
401,79	1263,60
402,00	1308,65
402,21	1216,49
402,41	1253,36
402,62	1245,16
402,83	1337,32
403,04	1259,50
403,24	1257,45
403,45	1292,27
403,66	1232,88
403,87	1306,60
404,07	1273,84
404,28	1294,32
404,49	1236,97
404,70	1277,93
404,90	1265,64
405,11	1257,45
405,32	1241,07
405,52	1273,84
405,73	1284,08
405,94	1284,08
406,15	1320,94
406,35	1218,54
406,56	1249,26
406,77	1261,55
406,98	1269,74
407,18	1224,69
407,39	1234,93
407,60	1255,40
407,80	1277,93
408,01	1304,56
408,22	1241,07
408,43	1288,17
408,63	1218,54
408,84	1243,12
409,05	1261,55
409,25	1329,13
409,46	1263,60
409,67	1286,12
409,88	1329,13
410,08	1298,41
410,29	1189,87
410,50	1234,93
410,70	1279,98
410,91	1212,40
411,12	1335,28
411,32	1214,45
411,53	1236,97
411,74	1251,31
411,95	1273,84
412,15	1232,88
412,36	1267,69
412,57	1187,82
412,77	1243,12
412,98	1325,04
413,19	1335,28
413,39	1181,68
413,60	1257,45
413,81	1267,69
414,01	1245,16
414,22	1234,93
414,43	1298,41
414,63	1302,51
414,84	1282,03
415,05	1247,21
415,25	1290,22
415,46	1241,07
415,67	1333,23
415,87	1331,18
416,08	1269,74
416,29	1216,49
416,49	1257,45
416,70	1271,79
416,91	1241,07
417,11	1296,36
417,32	1294,32
417,53	1269,74
417,73	1353,71
417,94	1255,40
418,15	1241,07
418,35	1269,74
418,56	1255,40
418,77	1308,65
418,97	1200,11
419,18	1138,67
419,38	1232,88
419,59	1271,79
419,80	1279,98
420,00	1294,32
420,21	1273,84
420,42	1257,45
420,62	1204,21
420,83	1292,27
421,04	1230,83
421,24	1292,27
421,45	1249,26
421,65	1288,17
421,86	1206,25
422,07	1234,93
422,27	1282,03
422,48	1247,21
422,69	1267,69
422,89	1171,44
423,10	1241,07
423,30	1245,16
423,51	1232,88
423,72	1257,45
423,92	1263,60
424,13	1218,54
424,33	1234,93
424,54	1220,59
424,75	1292,27
424,95	1273,84
425,16	1279,98
425,36	1216,49
425,57	1290,22
425,78	1269,74
425,98	1257,45
426,19	1298,41
426,39	1329,13
426,60	1308,65
426,81	1265,64
427,01	1308,65
427,22	1255,40
427,42	1320,94
427,63	1241,07
427,83	1253,36
428,04	1284,08
428,25	1294,32
428,45	1230,83
428,66	1259,50
428,86	1263,60
429,07	1284,08
429,28	1241,07
429,48	1196,01
429,69	1236,97
429,89	1318,89
430,10	1300,46
430,30	1243,12
430,51	1214,45
430,71	1218,54
430,92	1232,88
431,13	1249,26
431,33	1222,64
431,54	1306,60
431,74	1273,84
431,95	1251,31
432,15	1277,93
432,36	1239,02
432,56	1241,07
432,77	1236,97
432,98	1257,45
433,18	1353,71
433,39	1234,93
433,59	1284,08
433,80	1230,83
434,00	1275,88
434,21	1331,18
434,41	1234,93
434,62	1298,41
434,82	1322,99
435,03	1370,09
435,23	1171,44
435,44	1228,78
435,64	1302,51
435,85	1241,07
436,06	1245,16
436,26	1230,83
436,47	1251,31
436,67	1300,46
436,88	1241,07
437,08	1286,12
437,29	1275,88
437,49	1183,73
437,70	1249,26
437,90	1308,65
438,11	1306,60
438,31	1239,02
438,52	1286,12
438,72	1316,84
438,93	1290,22
439,13	1228,78
439,34	1308,65
439,54	1273,84
439,75	1249,26
439,95	1279,98
440,16	1273,84
440,36	1267,69
440,57	1239,02
440,77	1325,04
440,98	1191,92
441,18	1249,26
441,39	1249,26
441,59	1245,16
441,80	1277,93
442,00	1290,22
442,21	1216,49
442,41	1224,69
442,62	1302,51
442,82	1265,64
443,02	1165,29
443,23	1310,70
443,43	1263,60
443,64	1239,02
443,84	1241,07
444,05	1312,75
444,25	1255,40
444,46	1204,21
444,66	1232,88
444,87	1228,78
445,07	1273,84
445,28	1216,49
445,48	1273,84
445,69	1265,64
445,89	1245,16
446,09	1173,49
446,30	1302,51
446,50	1279,98
446,71	1239,02
446,91	1234,93
447,12	1255,40
447,32	1302,51
447,53	1277,93
447,73	1208,30
447,93	1198,06
448,14	1265,64
448,34	1232,88
448,55	1230,83
448,75	1224,69
448,96	1333,23
449,16	1271,79
449,36	1329,13
449,57	1282,03
449,77	1243,12
449,98	1314,80
450,18	1322,99
450,39	1337,32
450,59	1300,46
450,79	1329,13
451,00	1294,32
451,20	1361,90
451,41	1257,45
451,61	1232,88
451,81	1253,36
452,02	1206,25
452,22	1243,12
452,43	1234,93
452,63	1212,40
452,84	1214,45
453,04	1220,59
453,24	1241,07
453,45	1239,02
453,65	1271,79
453,86	1302,51
454,06	1269,74
454,26	1273,84
454,47	1263,60
454,67	1267,69
454,87	1208,30
455,08	1294,32
455,28	1224,69
455,49	1230,83
455,69	1202,16
455,89	1292,27
456,10	1181,68
456,30	1288,17
456,51	1273,84
456,71	1243,12
456,91	1214,45
457,12	1290,22
457,32	1277,93
457,52	1320,94
457,73	1202,16
457,93	1267,69
458,14	1318,89
458,34	1214,45
458,54	1255,40
458,75	1226,73
458,95	1302,51
459,15	1187,82
459,36	1228,78
459,56	1316,84
459,76	1257,45
459,97	1267,69
460,17	1345,52
460,37	1302,51
460,58	1224,69
460,78	1255,40
460,99	1249,26
461,19	1241,07
461,39	1226,73
461,60	1269,74
461,80	1214,45
462,00	1253,36
462,21	1333,23
462,41	1212,40
462,61	1187,82
462,82	1175,53
463,02	1273,84
463,22	1241,07
463,43	1251,31
463,63	1218,54
463,83	1259,50
464,04	1204,21
464,24	1308,65
464,44	1322,99
464,64	1337,32
464,85	1286,12
465,05	1318,89
465,25	1294,32
465,46	1277,93
465,66	1312,75
465,86	1243,12
466,07	1275,88
466,27	1216,49
466,47	1275,88
466,68	1263,60
466,88	1222,64
467,08	1210,35
467,29	1245,16
467,49	1300,46
467,69	1310,70
467,89	1220,59
468,10	1236,97
468,30	1335,28
468,50	1249,26
468,71	1273,84
468,91	1292,27
469,11	1286,12
469,31	1314,80
469,52	1273,84
469,72	1284,08
469,92	1275,88
470,13	1241,07
470,33	1288,17
470,53	1304,56
470,73	1261,55
470,94	1232,88
471,14	1271,79
471,34	1222,64
471,54	1224,69
471,75	1245,16
471,95	1265,64
472,15	1243,12
472,36	1286,12
472,56	1290,22
472,76	1200,11
472,96	1374,19
473,17	1282,03
473,37	1349,61
473,57	1230,83
473,77	1273,84
473,98	1267,69
474,18	1279,98
474,38	1279,98
474,58	1298,41
474,79	1232,88
474,99	1179,63
475,19	1277,93
475,39	1277,93
475,60	1234,93
475,80	1230,83
476,00	1167,34
476,20	1310,70
476,41	1306,60
476,61	1279,98
476,81	1282,03
477,01	1273,84
477,21	1239,02
477,42	1341,42
477,62	1322,99
477,82	1271,79
478,02	1269,74
478,23	1228,78
478,43	1353,71
478,63	1335,28
478,83	1294,32
479,03	1282,03
479,24	1288,17
479,44	1279,98
479,64	1232,88
479,84	1214,45
480,04	1292,27
480,25	1259,50
480,45	1193,97
480,65	1251,31
480,85	1310,70
481,06	1292,27
481,26	1222,64
481,46	1243,12
481,66	1220,59
481,86	1230,83
482,06	1226,73
482,27	1267,69
482,47	1310,70
482,67	1232,88
482,87	1269,74
483,07	1263,60
483,28	1251,31
483,48	1273,84
483,68	1310,70
483,88	1339,37
484,08	1288,17
484,29	1261,55
484,49	1277,93
484,69	1210,35
484,89	1282,03
485,09	1245,16
485,29	1251,31
485,50	1263,60
485,70	1245,16
485,90	1282,03
486,10	1290,22
486,30	1325,04
486,50	1206,25
486,71	1249,26
486,91	1236,97
487,11	1249,26
487,31	1179,63
487,51	1241,07
487,71	1212,40
487,91	1327,08
488,12	1275,88
488,32	1298,41
488,52	1234,93
488,72	1239,02
488,92	1316,84
489,12	1314,80
489,32	1292,27
489,53	1224,69
489,73	1288,17
489,93	1259,50
490,13	1241,07
490,33	1306,60
490,53	1232,88
490,73	1302,51
490,94	1308,65
491,14	1216,49
491,34	1232,88
491,54	1247,21
491,74	1189,87
491,94	1261,55
492,14	1245,16
492,34	1290,22
492,54	1284,08
492,75	1273,84
492,95	1269,74
493,15	1290,22
493,35	1232,88
493,55	1263,60
493,75	1279,98
493,95	1306,60
494,15	1279,98
494,35	1271,79
494,56	1300,46
494,76	1232,88
494,96	1255,40
495,16	1212,40
495,36	1265,64
495,56	1325,04
495,76	1179,63
495,96	1200,11
496,16	1267,69
496,36	1224,69
496,56	1286,12
496,77	1277,93
496,97	1267,69
497,17	1228,78
497,37	1247,21
497,57	1275,88
497,77	1269,74
497,97	1255,40
498,17	1277,93
498,37	1298,41
498,57	1208,30
498,77	1208,30
498,97	1222,64
499,17	1236,97
499,38	1224,69
499,58	1343,47
499,78	1320,94
499,98	1320,94
500,18	1273,84
500,38	1263,60
500,58	1263,60
500,78	1239,02
500,98	1282,03
501,18	1273,84
501,38	1243,12
501,58	1230,83
501,78	1286,12
501,98	1259,50
502,18	1257,45
502,38	1249,26
502,58	1247,21
502,78	1304,56
502,98	1320,94
503,18	1271,79
503,38	1263,60
503,59	1183,73
503,79	1310,70
503,99	1230,83
504,19	1216,49
504,39	1245,16
504,59	1269,74
504,79	1239,02
504,99	1320,94
505,19	1314,80
505,39	1341,42
505,59	1349,61
505,79	1179,63
505,99	1345,52
506,19	1279,98
506,39	1351,66
506,59	1284,08
506,79	1243,12
506,99	1286,12
507,19	1304,56
507,39	1204,21
507,59	1304,56
507,79	1245,16
507,99	1232,88
508,19	1259,50
508,39	1232,88
508,59	1288,17
508,79	1255,40
508,99	1247,21
509,19	1243,12
509,39	1286,12
509,59	1249,26
509,79	1259,50
509,99	1318,89
510,19	1181,68
510,39	1241,07
510,59	1249,26
510,79	1273,84
510,99	1198,06
511,19	1230,83
511,39	1288,17
511,59	1339,37
511,79	1206,25
511,99	1288,17
512,19	1236,97
512,38	1222,64
512,58	1222,64
512,78	1241,07
512,98	1234,93
513,18	1198,06
513,38	1257,45
513,58	1239,02
513,78	1241,07
513,98	1296,36
514,18	1304,56
514,38	1325,04
514,58	1210,35
514,78	1312,75
514,98	1296,36
515,18	1249,26
515,38	1302,51
515,58	1239,02
515,78	1294,32
515,98	1210,35
516,18	1257,45
516,38	1273,84
516,57	1277,93
516,77	1198,06
516,97	1261,55
517,17	1269,74
517,37	1277,93
517,57	1232,88
517,77	1179,63
517,97	1267,69
518,17	1257,45
518,37	1306,60
518,57	1253,36
518,77	1228,78
518,97	1298,41
519,16	1249,26
519,36	1230,83
519,56	1298,41
519,76	1218,54
519,96	1257,45
520,16	1288,17
520,36	1292,27
520,56	1243,12
520,76	1296,36
520,96	1329,13
521,16	1265,64
521,35	1282,03
521,55	1282,03
521,75	1290,22
521,95	1220,59
522,15	1261,55
522,35	1273,84
522,55	1316,84
522,75	1208,30
522,95	1249,26
523,14	1339,37
523,34	1271,79
523,54	1333,23
523,74	1269,74
523,94	1267,69
524,14	1249,26
524,34	1206,25
524,54	1286,12
524,73	1290,22
524,93	1273,84
525,13	1263,60
525,33	1265,64
525,53	1245,16
525,73	1314,80
525,93	1292,27
526,13	1228,78
526,32	1333,23
526,52	1290,22
526,72	1277,93
526,92	1357,80
527,12	1265,64
527,32	1251,31
527,52	1322,99
527,71	1239,02
527,91	1245,16
528,11	1282,03
528,31	1230,83
528,51	1220,59
528,71	1290,22
528,90	1230,83
529,10	1255,40
529,30	1218,54
529,50	1226,73
529,70	1273,84
529,90	1302,51
530,09	1220,59
530,29	1306,60
530,49	1333,23
530,69	1304,56
530,89	1282,03
531,09	1253,36
531,28	1193,97
531,48	1236,97
531,68	1298,41
531,88	1339,37
532,08	1392,62
532,28	1224,69
532,47	1234,93
532,67	1282,03
532,87	1247,21
533,07	1298,41
533,27	1329,13
533,46	1310,70
533,66	1286,12
533,86	1288,17
534,06	1331,18
534,26	1312,75
534,45	1247,21
534,65	1249,26
534,85	1298,41
535,05	1320,94
535,25	1322,99
535,44	1294,32
535,64	1298,41
535,84	1200,11
536,04	1261,55
536,24	1226,73
536,43	1269,74
536,63	1290,22
536,83	1298,41
537,03	1239,02
537,22	1316,84
537,42	1234,93
537,62	1232,88
537,82	1279,98
538,02	1277,93
538,21	1275,88
538,41	1243,12
538,61	1284,08
538,81	1230,83
539,00	1134,57
539,20	1265,64
539,40	1187,82
539,60	1206,25
539,79	1261,55
539,99	1282,03
540,19	1286,12
540,39	1282,03
540,58	1230,83
540,78	1234,93
540,98	1298,41
541,18	1310,70
541,37	1228,78
541,57	1275,88
541,77	1241,07
541,97	1247,21
542,16	1337,32
542,36	1230,83
542,56	1298,41
542,76	1329,13
542,95	1296,36
543,15	1245,16
543,35	1296,36
543,54	1255,40
543,74	1286,12
543,94	1239,02
544,14	1335,28
544,33	1226,73
544,53	1236,97
544,73	1290,22
544,93	1394,67
545,12	1267,69
545,32	1279,98
545,52	1257,45
545,71	1343,47
545,91	1286,12
546,11	1196,01
546,30	1245,16
546,50	1257,45
546,70	1275,88
546,90	1304,56
547,09	1175,53
547,29	1322,99
547,49	1279,98
547,68	1282,03
547,88	1335,28
548,08	1259,50
548,27	1304,56
548,47	1273,84
548,67	1204,21
548,87	1300,46
549,06	1169,39
549,26	1224,69
549,46	1241,07
549,65	1216,49
549,85	1273,84
550,05	1298,41
550,24	1247,21
550,44	1224,69
550,64	1292,27
550,83	1216,49
551,03	1232,88
551,23	1230,83
551,42	1210,35
551,62	1310,70
551,82	1271,79
552,01	1355,76
552,21	1243,12
552,41	1216,49
552,60	1304,56
552,80	1267,69
553,00	1236,97
553,19	1257,45
553,39	1320,94
553,59	1251,31
553,78	1234,93
553,98	1232,88
554,17	1175,53
554,37	1290,22
554,57	1177,58
554,76	1206,25
554,96	1198,06
555,16	1212,40
555,35	1198,06
555,55	1325,04
555,75	1255,40
555,94	1232,88
556,14	1294,32
556,33	1329,13
556,53	1343,47
556,73	1230,83
556,92	1249,26
557,12	1236,97
557,32	1234,93
557,51	1257,45
557,71	1269,74
557,90	1300,46
558,10	1255,40
558,30	1263,60
558,49	1234,93
558,69	1247,21
558,88	1290,22
559,08	1257,45
559,28	1232,88
559,47	1296,36
559,67	1339,37
559,86	1290,22
560,06	1222,64
560,26	1290,22
560,45	1230,83
560,65	1251,31
560,84	1314,80
561,04	1279,98
561,24	1329,13
561,43	1196,01
561,63	1239,02
561,82	1241,07
562,02	1273,84
562,22	1167,34
562,41	1228,78
562,61	1327,08
562,80	1302,51
563,00	1241,07
563,19	1253,36
563,39	1265,64
563,59	1271,79
563,78	1298,41
563,98	1253,36
564,17	1284,08
564,37	1222,64
564,56	1243,12
564,76	1279,98
564,96	1255,40
565,15	1259,50
565,35	1292,27
565,54	1234,93
565,74	1286,12
565,93	1253,36
566,13	1284,08
566,32	1232,88
566,52	1290,22
566,71	1226,73
566,91	1216,49
567,11	1241,07
567,30	1269,74
567,50	1271,79
567,69	1318,89
567,89	1267,69
568,08	1263,60
568,28	1286,12
568,47	1214,45
568,67	1243,12
568,86	1236,97
569,06	1212,40
569,25	1269,74
569,45	1337,32
569,64	1341,42
569,84	1243,12
570,04	1269,74
570,23	1275,88
570,43	1263,60
570,62	1214,45
570,82	1232,88
571,01	1216,49
571,21	1267,69
571,40	1292,27
571,60	1216,49
571,79	1292,27
571,99	1279,98
572,18	1263,60
572,38	1327,08
572,57	1290,22
572,77	1177,58
572,96	1322,99
573,16	1249,26
573,35	1245,16
573,55	1204,21
573,74	1320,94
573,94	1312,75
574,13	1249,26
574,33	1286,12
574,52	1359,85
574,71	1275,88
574,91	1279,98
575,10	1279,98
575,30	1271,79
575,49	1269,74
575,69	1271,79
575,88	1318,89
576,08	1249,26
576,27	1245,16
576,47	1253,36
576,66	1224,69
576,86	1265,64
577,05	1290,22
577,25	1271,79
577,44	1366,00
577,64	1247,21
577,83	1224,69
578,02	1314,80
578,22	1282,03
578,41	1249,26
578,61	1230,83
578,80	1253,36
579,00	1249,26
579,19	1288,17
579,39	1304,56
579,58	1208,30
579,77	1234,93
579,97	1230,83
580,16	1269,74
580,36	1284,08
580,55	1236,97
580,75	1261,55
580,94	1290,22
581,13	1284,08
581,33	1282,03
581,52	1267,69
581,72	1226,73
581,91	1236,97
582,11	1249,26
582,30	1273,84
582,49	1292,27
582,69	1306,60
582,88	1292,27
583,08	1249,26
583,27	1304,56
583,47	1263,60
583,66	1300,46
583,85	1236,97
584,05	1308,65
584,24	1261,55
584,44	1259,50
584,63	1232,88
584,82	1271,79
585,02	1247,21
585,21	1298,41
585,41	1247,21
585,60	1257,45
585,79	1247,21
585,99	1241,07
586,18	1220,59
586,37	1273,84
586,57	1224,69
586,76	1345,52
586,96	1273,84
587,15	1308,65
587,34	1302,51
587,54	1284,08
587,73	1247,21
587,93	1327,08
588,12	1259,50
588,31	1257,45
588,51	1228,78
588,70	1241,07
588,89	1298,41
589,09	1292,27
589,28	1335,28
589,47	1230,83
589,67	1339,37
589,86	1269,74
590,06	1288,17
590,25	1290,22
590,44	1279,98
590,64	1279,98
590,83	1196,01
591,02	1249,26
591,22	1308,65
591,41	1261,55
591,60	1261,55
591,80	1249,26
591,99	1271,79
592,18	1251,31
592,38	1259,50
592,57	1286,12
592,76	1208,30
592,96	1263,60
593,15	1269,74
593,34	1265,64
593,54	1216,49
593,73	1318,89
593,92	1241,07
594,12	1308,65
594,31	1277,93
594,50	1253,36
594,70	1243,12
594,89	1249,26
595,08	1277,93
595,28	1337,32
595,47	1288,17
595,66	1357,80
595,86	1273,84
596,05	1253,36
596,24	1259,50
596,43	1300,46
596,63	1322,99
596,82	1279,98
597,01	1267,69
597,21	1253,36
597,40	1304,56
597,59	1288,17
597,79	1212,40
597,98	1259,50
598,17	1267,69
598,36	1181,68
598,56	1290,22
598,75	1249,26
598,94	1253,36
599,14	1294,32
599,33	1226,73
599,52	1191,92
599,71	1245,16
599,91	1261,55
600,10	1253,36
600,29	1290,22
600,48	1263,60
600,68	1302,51
600,87	1282,03
601,06	1226,73
601,26	1261,55
601,45	1253,36
601,64	1275,88
601,83	1271,79
602,03	1249,26
602,22	1261,55
602,41	1236,97
602,60	1261,55
602,80	1263,60
602,99	1236,97
603,18	1263,60
603,37	1292,27
603,57	1253,36
603,76	1218,54
603,95	1271,79
604,14	1345,52
604,34	1247,21
604,53	1320,94
604,72	1331,18
604,91	1230,83
605,10	1206,25
605,30	1265,64
605,49	1288,17
605,68	1312,75
605,87	1302,51
606,07	1216,49
606,26	1228,78
606,45	1228,78
606,64	1277,93
606,84	1255,40
607,03	1222,64
607,22	1206,25
607,41	1296,36
607,60	1335,28
607,80	1290,22
607,99	1316,84
608,18	1253,36
608,37	1200,11
608,56	1265,64
608,76	1271,79
608,95	1302,51
609,14	1271,79
609,33	1273,84
609,52	1300,46
609,72	1257,45
609,91	1316,84
610,10	1314,80
610,29	1236,97
610,48	1284,08
610,68	1327,08
610,87	1212,40
611,06	1247,21
611,25	1298,41
611,44	1279,98
611,63	1249,26
611,83	1296,36
612,02	1275,88
612,21	1308,65
612,40	1232,88
612,59	1255,40
612,79	1245,16
612,98	1245,16
613,17	1265,64
613,36	1288,17
613,55	1234,93
613,74	1251,31
613,93	1263,60
614,13	1212,40
614,32	1294,32
614,51	1247,21
614,70	1292,27
614,89	1368,04
615,08	1198,06
615,28	1296,36
615,47	1296,36
615,66	1304,56
615,85	1249,26
616,04	1294,32
616,23	1312,75
616,42	1224,69
616,62	1267,69
616,81	1222,64
617,00	1230,83
617,19	1189,87
617,38	1218,54
617,57	1230,83
617,76	1316,84
617,95	1216,49
618,15	1275,88
618,34	1298,41
618,53	1239,02
618,72	1277,93
618,91	1263,60
619,10	1320,94
619,29	1261,55
619,48	1267,69
619,68	1263,60
619,87	1300,46
620,06	1263,60
620,25	1318,89
620,44	1206,25
620,63	1304,56
620,82	1294,32
621,01	1247,21
621,20	1290,22
621,39	1306,60
621,59	1239,02
621,78	1259,50
621,97	1314,80
622,16	1304,56
622,35	1331,18
622,54	1265,64
622,73	1273,84
622,92	1339,37
623,11	1183,73
623,30	1290,22
623,49	1359,85
623,68	1339,37
623,88	1236,97
624,07	1308,65
624,26	1265,64
624,45	1273,84
624,64	1288,17
624,83	1370,09
625,02	1271,79
625,21	1257,45
625,40	1265,64
625,59	1232,88
625,78	1269,74
625,97	1343,47
626,16	1325,04
626,35	1253,36
626,54	1290,22
626,74	1322,99
626,93	1216,49
627,12	1310,70
627,31	1273,84
627,50	1329,13
627,69	1331,18
627,88	1269,74
628,07	1294,32
628,26	1273,84
628,45	1220,59
628,64	1247,21
628,83	1200,11
629,02	1292,27
629,21	1329,13
629,40	1296,36
629,59	1279,98
629,78	1304,56
629,97	1294,32
630,16	1261,55
630,35	1232,88
630,54	1312,75
630,73	1306,60
630,92	1320,94
631,11	1269,74
631,30	1335,28
631,49	1314,80
631,68	1329,13
631,87	1378,28
632,06	1527,78
632,25	1531,88
632,44	1511,40
632,63	1441,77
632,82	1660,90
633,01	1892,32
633,20	1535,98
633,39	1597,42
633,58	1634,28
633,77	1716,20
633,96	1675,24
634,15	1581,03
634,34	1617,90
634,53	1669,09
634,72	1652,71
634,91	1581,03
635,10	1538,02
635,29	1476,59
635,48	1474,54
635,67	1435,63
635,86	1449,96
636,05	1445,87
636,24	1384,43
636,43	1409,00
636,62	1357,80
636,81	1333,23
637,00	1345,52
637,19	1310,70
637,38	1349,61
637,57	1351,66
637,76	1294,32
637,95	1277,93
638,14	1316,84
638,33	1290,22
638,52	1288,17
638,71	1255,40
638,89	1239,02
639,08	1282,03
639,27	1325,04
639,46	1292,27
639,65	1322,99
639,84	1355,76
640,03	1222,64
640,22	1290,22
640,41	1327,08
640,60	1269,74
640,79	1259,50
640,98	1255,40
641,17	1239,02
641,36	1251,31
641,55	1183,73
641,74	1322,99
641,92	1304,56
642,11	1284,08
642,30	1243,12
642,49	1308,65
642,68	1277,93
642,87	1241,07
643,06	1204,21
643,25	1275,88
643,44	1259,50
643,63	1298,41
643,82	1290,22
644,00	1230,83
644,19	1320,94
644,38	1255,40
644,57	1288,17
644,76	1265,64
644,95	1300,46
645,14	1314,80
645,33	1191,92
645,52	1267,69
645,71	1271,79
645,89	1312,75
646,08	1292,27
646,27	1253,36
646,46	1316,84
646,65	1308,65
646,84	1259,50
647,03	1273,84
647,22	1245,16
647,40	1228,78
647,59	1255,40
647,78	1200,11
647,97	1216,49
648,16	1247,21
648,35	1261,55
648,54	1210,35
648,73	1236,97
648,91	1249,26
649,10	1300,46
649,29	1312,75
649,48	1282,03
649,67	1300,46
649,86	1275,88
650,05	1251,31
650,23	1251,31
650,42	1320,94
650,61	1224,69
650,80	1282,03
650,99	1292,27
651,18	1288,17
651,36	1294,32
651,55	1288,17
651,74	1134,57
651,93	1302,51
652,12	1255,40
652,31	1271,79
652,49	1247,21
652,68	1267,69
652,87	1300,46
653,06	1310,70
653,25	1265,64
653,44	1290,22
653,62	1265,64
653,81	1239,02
654,00	1282,03
654,19	1322,99
654,38	1245,16
654,56	1271,79
654,75	1296,36
654,94	1196,01
655,13	1165,29
655,32	1208,30
655,51	1292,27
655,69	1245,16
655,88	1300,46
656,07	1331,18
656,26	1322,99
656,45	1265,64
656,63	1279,98
656,82	1339,37
657,01	1243,12
657,20	1306,60
657,38	1261,55
657,57	1210,35
657,76	1226,73
657,95	1228,78
658,14	1259,50
658,32	1193,97
658,51	1208,30
658,70	1175,53
658,89	1273,84
659,08	1236,97
659,26	1306,60
659,45	1316,84
659,64	1277,93
659,83	1243,12
660,01	1261,55
660,20	1312,75
660,39	1216,49
660,58	1232,88
660,76	1269,74
660,95	1191,92
661,14	1320,94
661,33	1265,64
661,51	1249,26
661,70	1187,82
661,89	1263,60
662,08	1294,32
662,26	1249,26
662,45	1351,66
662,64	1243,12
662,83	1304,56
663,01	1251,31
663,20	1255,40
663,39	1267,69
663,58	1275,88
663,76	1191,92
663,95	1249,26
664,14	1294,32
664,32	1255,40
664,51	1161,20
664,70	1247,21
664,89	1257,45
665,07	1243,12
665,26	1298,41
665,45	1257,45
665,64	1208,30
665,82	1257,45
666,01	1202,16
666,20	1265,64
666,38	1267,69
666,57	1239,02
666,76	1243,12
666,95	1292,27
667,13	1290,22
667,32	1329,13
667,51	1216,49
667,69	1218,54
667,88	1202,16
668,07	1269,74
668,25	1288,17
668,44	1179,63
668,63	1232,88
668,81	1341,42
669,00	1318,89
669,19	1277,93
669,38	1269,74
669,56	1251,31
669,75	1216,49
669,94	1292,27
670,12	1224,69
670,31	1306,60
670,50	1302,51
670,68	1212,40
670,87	1259,50
671,06	1271,79
671,24	1314,80
671,43	1259,50
671,62	1351,66
671,80	1224,69
671,99	1320,94
672,18	1259,50
672,36	1257,45
672,55	1208,30
672,74	1220,59
672,92	1224,69
673,11	1329,13
673,29	1243,12
673,48	1282,03
673,67	1263,60
673,85	1343,47
674,04	1322,99
674,23	1253,36
674,41	1306,60
674,60	1279,98
674,79	1196,01
674,97	1284,08
675,16	1226,73
675,34	1357,80
675,53	1253,36
675,72	1300,46
675,90	1220,59
676,09	1296,36
676,28	1275,88
676,46	1322,99
676,65	1306,60
676,83	1261,55
677,02	1259,50
677,21	1308,65
677,39	1245,16
677,58	1279,98
677,77	1294,32
677,95	1296,36
678,14	1275,88
678,32	1273,84
678,51	1378,28
678,70	1296,36
678,88	1267,69
679,07	1249,26
679,25	1265,64
679,44	1318,89
679,63	1267,69
679,81	1189,87
680,00	1353,71
680,18	1228,78
680,37	1292,27
680,55	1204,21
680,74	1257,45
680,93	1286,12
681,11	1271,79
681,30	1249,26
681,48	1282,03
681,67	1210,35
681,85	1353,71
682,04	1275,88
682,23	1253,36
682,41	1265,64
682,60	1290,22
682,78	1298,41
682,97	1261,55
683,15	1177,58
683,34	1249,26
683,53	1294,32
683,71	1265,64
683,90	1306,60
684,08	1241,07
684,27	1251,31
684,45	1292,27
684,64	1214,45
684,82	1322,99
685,01	1282,03
685,19	1316,84
685,38	1249,26
685,57	1230,83
685,75	1255,40
685,94	1325,04
686,12	1361,90
686,31	1271,79
686,49	1259,50
686,68	1257,45
686,86	1279,98
687,05	1241,07
687,23	1228,78
687,42	1353,71
687,60	1273,84
687,79	1249,26
687,97	1271,79
688,16	1322,99
688,34	1329,13
688,53	1243,12
688,71	1329,13
688,90	1267,69
689,08	1282,03
689,27	1273,84
689,45	1304,56
689,64	1277,93
689,82	1331,18
690,01	1239,02
690,19	1249,26
690,38	1243,12
690,56	1300,46
690,75	1265,64
690,93	1288,17
691,12	1247,21
691,30	1243,12
691,49	1261,55
691,67	1241,07
691,86	1290,22
692,04	1275,88
692,23	1261,55
692,41	1314,80
692,60	1247,21
692,78	1316,84
692,97	1247,21
693,15	1230,83
693,34	1300,46
693,52	1288,17
693,71	1298,41
693,89	1271,79
694,08	1224,69
694,26	1249,26
694,44	1234,93
694,63	1263,60
694,81	1292,27
695,00	1241,07
695,18	1236,97
695,37	1216,49
695,55	1273,84
695,74	1179,63
695,92	1267,69
696,10	1265,64
696,29	1284,08
696,47	1253,36
696,66	1294,32
696,84	1191,92
697,03	1230,83
697,21	1263,60
697,40	1290,22
697,58	1282,03
697,76	1275,88
697,95	1222,64
698,13	1191,92
698,32	1318,89
698,50	1267,69
698,68	1261,55
698,87	1318,89
699,05	1245,16
699,24	1322,99
699,42	1335,28
699,61	1212,40
699,79	1296,36
699,97	1306,60
700,16	1320,94
700,34	1257,45
700,53	1261,55
700,71	1177,58
700,89	1243,12
701,08	1271,79
701,26	1329,13
701,45	1263,60
701,63	1310,70
701,81	1220,59
702,00	1273,84
702,18	1265,64
702,37	1304,56
702,55	1279,98
702,73	1292,27
702,92	1259,50
703,10	1257,45
703,28	1284,08
703,47	1306,60
703,65	1210,35
703,84	1314,80
704,02	1257,45
704,20	1294,32
704,39	1251,31
704,57	1304,56
704,75	1224,69
704,94	1277,93
705,12	1253,36
705,30	1286,12
705,49	1284,08
705,67	1212,40
705,86	1202,16
706,04	1343,47
706,22	1220,59
706,41	1253,36
706,59	1259,50
706,77	1312,75
706,96	1316,84
707,14	1247,21
707,32	1243,12
707,51	1318,89
707,69	1245,16
707,87	1286,12
708,06	1220,59
708,24	1261,55
708,42	1273,84
708,61	1279,98
708,79	1271,79
708,97	1312,75
709,16	1312,75
709,34	1251,31
709,52	1218,54
709,71	1249,26
709,89	1243,12
710,07	1241,07
710,26	1325,04
710,44	1298,41
710,62	1245,16
710,80	1257,45
710,99	1292,27
711,17	1261,55
711,35	1304,56
711,54	1236,97
711,72	1286,12
711,90	1232,88
712,09	1230,83
712,27	1271,79
712,45	1290,22
712,63	1312,75
712,82	1247,21
713,00	1286,12
713,18	1333,23
713,37	1226,73
713,55	1265,64
713,73	1290,22
713,91	1267,69
714,10	1259,50
714,28	1257,45
714,46	1243,12
714,65	1331,18
714,83	1273,84
715,01	1230,83
715,19	1331,18
715,38	1277,93
715,56	1277,93
715,74	1284,08
715,92	1271,79
716,11	1275,88
716,29	1314,80
716,47	1224,69
716,65	1269,74
716,84	1292,27
717,02	1327,08
717,20	1316,84
717,38	1290,22
717,57	1228,78
717,75	1269,74
717,93	1216,49
718,11	1265,64
718,30	1286,12
718,48	1277,93
718,66	1347,56
718,84	1298,41
719,03	1304,56
719,21	1265,64
719,39	1245,16
719,57	1249,26
719,75	1269,74
719,94	1239,02
720,12	1308,65
720,30	1345,52
720,48	1269,74
720,67	1241,07
720,85	1222,64
721,03	1312,75
721,21	1269,74
721,39	1277,93
721,58	1261,55
721,76	1327,08
721,94	1243,12
722,12	1236,97
722,30	1159,15
722,49	1282,03
722,67	1279,98
722,85	1275,88
723,03	1304,56
723,21	1269,74
723,40	1310,70
723,58	1255,40
723,76	1243,12
723,94	1273,84
724,12	1228,78
724,30	1265,64
724,49	1200,11
724,67	1247,21
724,85	1284,08
725,03	1275,88
725,21	1222,64
725,40	1206,25
725,58	1257,45
725,76	1216,49
725,94	1261,55
726,12	1271,79
726,30	1257,45
726,49	1273,84
726,67	1245,16
726,85	1325,04
727,03	1335,28
727,21	1275,88
727,39	1228,78
727,57	1349,61
727,76	1208,30
727,94	1267,69
728,12	1288,17
728,30	1261,55
728,48	1226,73
728,66	1351,66
728,84	1269,74
729,03	1247,21
729,21	1243,12
729,39	1294,32
729,57	1304,56
729,75	1257,45
729,93	1263,60
730,11	1241,07
730,30	1290,22
730,48	1183,73
730,66	1267,69
730,84	1325,04
731,02	1210,35
731,20	1216,49
731,38	1286,12
731,56	1249,26
731,74	1255,40
731,93	1271,79
732,11	1277,93
732,29	1241,07
732,47	1251,31
732,65	1300,46
732,83	1263,60
733,01	1355,76
733,19	1200,11
733,37	1374,19
733,56	1220,59
733,74	1259,50
733,92	1222,64
734,10	1243,12
734,28	1275,88
734,46	1257,45
734,64	1232,88
734,82	1312,75
735,00	1228,78
735,18	1333,23
735,36	1279,98
735,54	1253,36
735,73	1284,08
735,91	1269,74
736,09	1208,30
736,27	1269,74
736,45	1239,02
736,63	1216,49
736,81	1318,89
736,99	1198,06
737,17	1316,84
737,35	1292,27
737,53	1298,41
737,71	1292,27
737,89	1234,93
738,07	1255,40
738,25	1196,01
738,43	1224,69
738,61	1239,02
738,80	1257,45
738,98	1273,84
739,16	1325,04
739,34	1243,12
739,52	1347,56
739,70	1167,34
739,88	1320,94
740,06	1253,36
740,24	1302,51
740,42	1327,08
740,60	1302,51
740,78	1239,02
740,96	1245,16
741,14	1236,97
741,32	1220,59
741,50	1249,26
741,68	1279,98
741,86	1333,23
742,04	1327,08
742,22	1212,40
742,40	1249,26
742,58	1224,69
742,76	1253,36
742,94	1357,80
743,12	1230,83
743,30	1314,80
743,48	1245,16
743,66	1239,02
743,84	1269,74
744,02	1259,50
744,20	1189,87
744,38	1259,50
744,56	1236,97
744,74	1239,02
744,92	1288,17
745,10	1216,49
745,28	1236,97
745,46	1300,46
745,64	1279,98
745,82	1239,02
746,00	1282,03
746,18	1198,06
746,36	1265,64
746,54	1243,12
746,72	1263,60
746,90	1275,88
747,08	1245,16
747,26	1228,78
747,44	1228,78
747,62	1216,49
747,80	1253,36
747,98	1294,32
748,15	1239,02
748,33	1226,73
748,51	1290,22
748,69	1331,18
748,87	1300,46
749,05	1220,59
749,23	1214,45
749,41	1343,47
749,59	1216,49
749,77	1292,27
749,95	1214,45
750,13	1255,40
750,31	1263,60
750,49	1234,93
750,67	1243,12
750,85	1341,42
751,03	1273,84
751,20	1222,64
751,38	1261,55
751,56	1265,64
751,74	1259,50
751,92	1279,98
752,10	1271,79
752,28	1279,98
752,46	1257,45
752,64	1232,88
752,82	1222,64
753,00	1232,88
753,18	1263,60
753,35	1302,51
753,53	1239,02
753,71	1312,75
753,89	1298,41
754,07	1200,11
754,25	1292,27
754,43	1267,69
754,61	1282,03
754,79	1318,89
754,97	1257,45
755,14	1304,56
755,32	1302,51
755,50	1261,55
755,68	1312,75
755,86	1228,78
756,04	1253,36
756,22	1263,60
756,40	1255,40
756,57	1236,97
756,75	1218,54
756,93	1288,17
757,11	1245,16
757,29	1230,83
757,47	1263,60
757,65	1171,44
757,82	1267,69
758,00	1269,74
758,18	1271,79
758,36	1196,01
758,54	1236,97
758,72	1279,98
758,90	1275,88
759,07	1279,98
759,25	1255,40
759,43	1288,17
759,61	1263,60
759,79	1298,41
759,97	1312,75
760,15	1251,31
760,32	1245,16
760,50	1214,45
760,68	1322,99
760,86	1265,64
761,04	1202,16
761,22	1234,93
761,39	1282,03
761,57	1277,93
761,75	1306,60
761,93	1234,93
762,11	1292,27
762,28	1306,60
762,46	1222,64
762,64	1249,26
762,82	1312,75
763,00	1279,98
763,18	1241,07
763,35	1316,84
763,53	1335,28
763,71	1327,08
763,89	1273,84
764,07	1343,47
764,24	1234,93
764,42	1247,21
764,60	1239,02
764,78	1277,93
764,96	1230,83
765,13	1236,97
765,31	1253,36
765,49	1296,36
765,67	1294,32
765,84	1196,01
766,02	1302,51
766,20	1259,50
766,38	1361,90
766,56	1247,21
766,73	1296,36
766,91	1239,02
767,09	1220,59
767,27	1269,74
767,44	1253,36
767,62	1308,65
767,80	1286,12
767,98	1298,41
768,15	1310,70
768,33	1253,36
768,51	1230,83
768,69	1263,60
768,87	1253,36
769,04	1249,26
769,22	1210,35
769,40	1298,41
769,58	1249,26
769,75	1349,61
769,93	1251,31
770,11	1239,02
770,28	1236,97
770,46	1236,97
770,64	1306,60
770,82	1241,07
770,99	1216,49
771,17	1228,78
771,35	1322,99
771,53	1265,64
771,70	1273,84
771,88	1331,18
772,06	1239,02
772,23	1267,69
772,41	1200,11
772,59	1210,35
772,77	1325,04
772,94	1322,99
773,12	1267,69
773,30	1257,45
773,47	1245,16
773,65	1255,40
773,83	1241,07
774,01	1255,40
774,18	1306,60
774,36	1234,93
774,54	1226,73
774,71	1259,50
774,89	1265,64
775,07	1220,59
775,24	1310,70
775,42	1249,26
775,60	1292,27
775,78	1288,17
775,95	1243,12
776,13	1304,56
776,31	1187,82
776,48	1282,03
776,66	1282,03
776,84	1322,99
777,01	1236,97
777,19	1181,68
777,37	1228,78
777,54	1322,99
777,72	1286,12
777,90	1198,06
778,07	1312,75
778,25	1263,60
778,43	1249,26
778,60	1271,79
778,78	1236,97
778,96	1247,21
779,13	1374,19
779,31	1275,88
779,49	1247,21
779,66	1310,70
779,84	1322,99
780,01	1255,40
780,19	1304,56
780,37	1349,61
780,54	1255,40
780,72	1310,70
780,90	1308,65
781,07	1245,16
781,25	1241,07
781,43	1245,16
781,60	1302,51
781,78	1239,02
781,95	1163,25
782,13	1284,08
782,31	1290,22
782,48	1296,36
782,66	1253,36
782,83	1249,26
783,01	1196,01
783,19	1216,49
783,36	1257,45
783,54	1245,16
783,72	1263,60
783,89	1255,40
784,07	1255,40
784,24	1339,37
784,42	1251,31
784,60	1314,80
784,77	1318,89
784,95	1273,84
785,12	1191,92
785,30	1234,93
785,47	1239,02
785,65	1241,07
785,83	1247,21
786,00	1302,51
786,18	1300,46
786,35	1253,36
786,53	1226,73
786,71	1204,21
786,88	1263,60
787,06	1255,40
787,23	1222,64
787,41	1269,74
787,58	1277,93
787,76	1261,55
787,94	1331,18
788,11	1239,02
788,29	1282,03
788,46	1269,74
788,64	1265,64
788,81	1236,97
788,99	1333,23
789,16	1282,03
789,34	1327,08
789,52	1290,22
789,69	1216,49
789,87	1269,74
790,04	1271,79
790,22	1275,88
790,39	1298,41
790,57	1249,26
790,74	1304,56
790,92	1261,55
791,09	1288,17
791,27	1222,64
791,44	1314,80
791,62	1284,08
791,79	1216,49
791,97	1314,80
792,15	1341,42
792,32	1265,64
792,50	1255,40
792,67	1261,55
792,85	1230,83
793,02	1353,71
793,20	1322,99
793,37	1271,79
793,55	1292,27
793,72	1187,82
793,90	1257,45
794,07	1322,99
794,25	1333,23
794,42	1253,36
794,60	1212,40
794,77	1224,69
794,95	1279,98
795,12	1331,18
795,30	1210,35
795,47	1314,80
795,65	1241,07
795,82	1243,12
796,00	1275,88
796,17	1286,12
796,34	1277,93
796,52	1247,21
796,69	1357,80
796,87	1355,76
797,04	1288,17
797,22	1286,12
797,39	1243,12
797,57	1310,70
797,74	1277,93
797,92	1191,92
798,09	1251,31
798,27	1232,88
798,44	1255,40
798,62	1243,12
798,79	1310,70
798,96	1257,45
799,14	1220,59
799,31	1210,35
799,49	1318,89
799,66	1259,50
799,84	1302,51
800,01	1218,54
800,19	1255,40
800,36	1218,54
800,53	1230,83
800,71	1226,73
800,88	1191,92
801,06	1261,55
801,23	1339,37
801,41	1273,84
801,58	1265,64
801,75	1277,93
801,93	1282,03
802,10	1296,36
802,28	1239,02
802,45	1308,65
802,63	1267,69
802,80	1322,99
802,97	1282,03
803,15	1298,41
803,32	1163,25
803,50	1228,78
803,67	1290,22
803,84	1228,78
804,02	1349,61
804,19	1277,93
804,37	1255,40
804,54	1255,40
804,71	1337,32
804,89	1296,36
805,06	1271,79
805,24	1259,50
805,41	1327,08
805,58	1224,69
805,76	1279,98
805,93	1228,78
806,10	1220,59
806,28	1269,74
806,45	1265,64
806,63	1228,78
806,80	1247,21
806,97	1265,64
807,15	1243,12
807,32	1296,36
807,49	1236,97
807,67	1216,49
807,84	1206,25
808,01	1292,27
808,19	1275,88
808,36	1277,93
808,54	1277,93
808,71	1193,97
808,88	1226,73
809,06	1210,35
809,23	1265,64
809,40	1286,12
809,58	1290,22
809,75	1314,80
809,92	1249,26
810,10	1347,56
810,27	1292,27
810,44	1212,40
810,62	1327,08
810,79	1251,31
810,96	1275,88
811,14	1236,97
811,31	1257,45
811,48	1372,14
811,66	1304,56
811,83	1239,02
812,00	1302,51
812,18	1286,12
812,35	1275,88
812,52	1185,77
812,69	1296,36
812,87	1284,08
813,04	1249,26
813,21	1241,07
813,39	1269,74
813,56	1232,88
813,73	1265,64
813,91	1222,64
814,08	1247,21
814,25	1298,41
814,42	1294,32
814,60	1251,31
814,77	1236,97
814,94	1286,12
815,12	1210,35
815,29	1308,65
815,46	1304,56
815,63	1279,98
815,81	1249,26
815,98	1259,50
816,15	1335,28
816,33	1294,32
816,50	1224,69
816,67	1265,64
816,84	1263,60
817,02	1290,22
817,19	1259,50
817,36	1292,27
817,53	1216,49
817,71	1224,69
817,88	1210,35
818,05	1185,77
818,22	1216,49
818,40	1294,32
818,57	1339,37
818,74	1210,35
818,91	1284,08
819,09	1273,84
819,26	1298,41
819,43	1296,36
819,60	1251,31
819,78	1275,88
819,95	1320,94
820,12	1271,79
820,29	1279,98
820,47	1255,40
820,64	1234,93
820,81	1198,06
820,98	1263,60
821,15	1251,31
821,33	1253,36
821,50	1290,22
821,67	1304,56
821,84	1306,60
822,02	1279,98
822,19	1290,22
822,36	1298,41
822,53	1282,03
822,70	1222,64
822,88	1226,73
823,05	1247,21
823,22	1193,97
823,39	1232,88
823,56	1249,26
823,74	1298,41
823,91	1298,41
824,08	1308,65
824,25	1275,88
824,42	1226,73
824,60	1226,73
824,77	1265,64
824,94	1222,64
825,11	1286,12
825,28	1249,26
825,45	1269,74
825,63	1288,17
825,80	1347,56
825,97	1171,44
826,14	1243,12
826,31	1292,27
826,48	1355,76
826,66	1236,97
826,83	1263,60
827,00	1288,17
827,17	1325,04
827,34	1327,08
827,51	1265,64
827,69	1284,08
827,86	1189,87
828,03	1269,74
828,20	1265,64
828,37	1282,03
828,54	1167,34
828,71	1288,17
828,89	1261,55
829,06	1249,26
829,23	1239,02
829,40	1239,02
829,57	1288,17
829,74	1202,16
829,91	1257,45
830,09	1249,26
830,26	1228,78
830,43	1251,31
830,60	1259,50
830,77	1284,08
830,94	1245,16
831,11	1314,80
831,28	1247,21
831,46	1247,21
831,63	1239,02
831,80	1292,27
831,97	1284,08
832,14	1214,45
832,31	1251,31
832,48	1275,88
832,65	1322,99
832,82	1214,45
832,99	1218,54
833,17	1310,70
833,34	1302,51
833,51	1333,23
833,68	1243,12
833,85	1232,88
834,02	1257,45
834,19	1224,69
834,36	1275,88
834,53	1261,55
834,70	1275,88
834,87	1271,79
835,04	1247,21
835,22	1224,69
835,39	1222,64
835,56	1179,63
835,73	1288,17
835,90	1230,83
836,07	1265,64
836,24	1247,21
836,41	1282,03
836,58	1302,51
836,75	1228,78
836,92	1325,04
837,09	1273,84
837,26	1286,12
837,43	1200,11
837,60	1277,93
837,77	1279,98
837,94	1257,45
838,12	1290,22
838,29	1212,40
838,46	1261,55
838,63	1206,25
838,80	1290,22
838,97	1222,64
839,14	1245,16
839,31	1216,49
839,48	1206,25
839,65	1277,93
839,82	1300,46
839,99	1257,45
840,16	1204,21
840,33	1243,12
840,50	1269,74
840,67	1275,88
840,84	1208,30
841,01	1312,75
841,18	1253,36
841,35	1279,98
841,52	1292,27
841,69	1249,26
841,86	1259,50
842,03	1216,49
842,20	1249,26
842,37	1269,74
842,54	1306,60
842,71	1277,93
842,88	1259,50
843,05	1282,03
843,22	1239,02
843,39	1286,12
843,56	1327,08
843,73	1310,70
843,90	1320,94
844,07	1253,36
844,24	1314,80
844,41	1267,69
844,58	1265,64
844,75	1277,93
844,92	1302,51
845,09	1273,84
845,26	1255,40
845,43	1284,08
845,60	1288,17
845,77	1304,56
845,94	1337,32
846,10	1271,79
846,27	1232,88
846,44	1304,56
846,61	1239,02
846,78	1304,56
846,95	1232,88
847,12	1228,78
847,29	1339,37
847,46	1286,12
847,63	1279,98
847,80	1255,40
847,97	1228,78
848,14	1232,88
848,31	1239,02
848,48	1216,49
848,65	1273,84
848,82	1263,60
848,98	1327,08
849,15	1220,59
849,32	1230,83
849,49	1183,73
849,66	1296,36
849,83	1253,36
850,00	1249,26
850,17	1230,83
850,34	1279,98
850,51	1196,01
850,68	1253,36
850,85	1265,64
851,01	1337,32
851,18	1265,64
851,35	1308,65
851,52	1249,26
851,69	1282,03
851,86	1335,28
852,03	1292,27
852,20	1269,74
852,37	1306,60
852,53	1218,54
852,70	1230,83
852,87	1267,69
853,04	1249,26
853,21	1247,21
853,38	1183,73
853,55	1312,75
853,72	1234,93
853,89	1247,21
854,05	1255,40
854,22	1282,03
854,39	1249,26
854,56	1245,16
854,73	1290,22
854,90	1257,45
855,07	1282,03
855,23	1279,98
855,40	1333,23
855,57	1249,26
855,74	1222,64
855,91	1304,56
856,08	1216,49
856,25	1290,22
856,41	1198,06
856,58	1304,56
856,75	1142,77
856,92	1228,78
857,09	1290,22
857,26	1171,44
857,42	1282,03
857,59	1243,12
857,76	1288,17
857,93	1288,17
858,10	1259,50
858,27	1241,07
858,43	1275,88
858,60	1284,08
858,77	1347,56
858,94	1175,53
859,11	1249,26
859,27	1310,70
859,44	1282,03
859,61	1273,84
859,78	1216,49
859,95	1288,17
860,12	1214,45
860,28	1243,12
860,45	1255,40
860,62	1230,83
860,79	1222,64
860,95	1273,84
861,12	1251,31
861,29	1247,21
861,46	1249,26
861,63	1216,49
861,79	1261,55
861,96	1185,77
862,13	1228,78
862,30	1314,80
862,47	1273,84
862,63	1316,84
862,80	1245,16
862,97	1273,84
863,14	1218,54
863,30	1257,45
863,47	1275,88
863,64	1263,60
863,81	1216,49
863,97	1327,08
864,14	1265,64
864,31	1255,40
864,48	1218,54
864,65	1269,74
864,81	1290,22
864,98	1263,60
865,15	1351,66
865,32	1269,74
865,48	1206,25
865,65	1177,58
865,82	1253,36
865,98	1329,13
866,15	1341,42
866,32	1279,98
866,49	1275,88
866,65	1245,16
866,82	1380,33
866,99	1249,26
867,16	1298,41
867,32	1222,64
867,49	1296,36
867,66	1275,88
867,83	1200,11
867,99	1308,65
868,16	1212,40
868,33	1255,40
868,49	1290,22
868,66	1239,02
868,83	1191,92
868,99	1343,47
869,16	1327,08
869,33	1294,32
869,50	1282,03
869,66	1234,93
869,83	1261,55
870,00	1259,50
870,16	1257,45
870,33	1146,86
870,50	1173,49
870,66	1269,74
870,83	1271,79
871,00	1210,35
871,17	1331,18
871,33	1202,16
871,50	1267,69
871,67	1198,06
871,83	1239,02
872,00	1282,03
872,17	1282,03
872,33	1273,84
872,50	1239,02
872,67	1269,74
872,83	1251,31
873,00	1259,50
873,17	1308,65
873,33	1267,69
873,50	1257,45
873,67	1279,98
873,83	1259,50
874,00	1245,16
874,16	1206,25
874,33	1251,31
874,50	1267,69
874,66	1279,98
874,83	1277,93
875,00	1245,16
875,16	1349,61
875,33	1310,70
875,50	1200,11
875,66	1218,54
875,83	1302,51
875,99	1271,79
876,16	1304,56
876,33	1327,08
876,49	1265,64
876,66	1255,40
876,83	1267,69
876,99	1271,79
877,16	1294,32
877,32	1241,07
877,49	1359,85
877,66	1236,97
877,82	1339,37
877,99	1275,88
878,15	1259,50
878,32	1224,69
878,49	1298,41
878,65	1216,49
878,82	1331,18
878,98	1296,36
879,15	1333,23
879,32	1232,88
879,48	1312,75
879,65	1288,17
879,81	1265,64
879,98	1292,27
880,15	1279,98
880,31	1224,69
880,48	1316,84
880,64	1220,59
880,81	1300,46
880,97	1320,94
881,14	1198,06
881,31	1292,27
881,47	1347,56
881,64	1224,69
881,80	1265,64
881,97	1277,93
882,13	1302,51
882,30	1286,12
882,47	1216,49
882,63	1216,49
882,80	1351,66
882,96	1222,64
883,13	1226,73
883,29	1261,55
883,46	1288,17
883,62	1267,69
883,79	1310,70
883,95	1296,36
884,12	1259,50
884,29	1204,21
884,45	1234,93
884,62	1335,28
884,78	1333,23
884,95	1236,97
885,11	1222,64
885,28	1255,40
885,44	1314,80
885,61	1224,69
885,77	1290,22
885,94	1279,98
886,10	1257,45
886,27	1271,79
886,43	1253,36
886,60	1304,56
886,76	1312,75
886,93	1269,74
887,09	1312,75
887,26	1206,25
887,42	1286,12
887,59	1228,78
887,75	1234,93
887,92	1251,31
888,08	1212,40
888,25	1302,51
888,41	1239,02
888,58	1279,98
888,74	1277,93
888,91	1353,71
>>>>>End Processed Spectral Data<<<<<
