SpectraSuite Data File
++++++++++++++++++++++++++++++++++++
Date: Sun Apr 03 14:55:04 CEST 2016
User: root
Dark Spectrum Present: No
Reference Spectrum Present: No
Number of Sampled Component Spectra: 1
Spectrometers: USB4C02835
Integration Time (usec): 10000 (USB4C02835)
Spectra Averaged: 1 (USB4C02835)
Boxcar Smoothing: 0 (USB4C02835)
Correct for Electrical Dark: No (USB4C02835)
Strobe/Lamp Enabled: No (USB4C02835)
Correct for Detector Non-linearity: No (USB4C02835)
Correct for Stray Light: No (USB4C02835)
Number of Pixels in Processed Spectrum: 3648
>>>>>Begin Processed Spectral Data<<<<<
177,47	1271,79
177,69	1271,79
177,91	1271,79
178,13	1214,45
178,36	1286,12
178,58	1222,64
178,80	1275,88
179,02	1253,36
179,24	1265,64
179,46	1212,40
179,68	1337,32
179,90	1294,32
180,13	1308,65
180,35	1327,08
180,57	1265,64
180,79	1298,41
181,01	1218,54
181,23	1290,22
181,45	1310,70
181,67	1243,12
181,90	1282,03
182,12	1228,78
182,34	1241,07
182,56	1353,71
182,78	1239,02
183,00	1265,64
183,22	1206,25
183,44	1232,88
183,66	1226,73
183,89	1222,64
184,11	1214,45
184,33	1249,26
184,55	1322,99
184,77	1257,45
184,99	1320,94
185,21	1292,27
185,43	1327,08
185,65	1318,89
185,87	1298,41
186,10	1208,30
186,32	1288,17
186,54	1222,64
186,76	1306,60
186,98	1257,45
187,20	1220,59
187,42	1329,13
187,64	1263,60
187,86	1282,03
188,08	1290,22
188,30	1265,64
188,52	1304,56
188,75	1277,93
188,97	1294,32
189,19	1251,31
189,41	1310,70
189,63	1202,16
189,85	1212,40
190,07	1271,79
190,29	1241,07
190,51	1294,32
190,73	1312,75
190,95	1304,56
191,17	1282,03
191,39	1245,16
191,61	1273,84
191,84	1282,03
192,06	1314,80
192,28	1263,60
192,50	1273,84
192,72	1288,17
192,94	1257,45
193,16	1220,59
193,38	1247,21
193,60	1255,40
193,82	1224,69
194,04	1253,36
194,26	1337,32
194,48	1310,70
194,70	1239,02
194,92	1277,93
195,14	1271,79
195,36	1224,69
195,58	1249,26
195,80	1361,90
196,02	1288,17
196,24	1267,69
196,46	1267,69
196,69	1255,40
196,91	1316,84
197,13	1316,84
197,35	1279,98
197,57	1249,26
197,79	1275,88
198,01	1239,02
198,23	1251,31
198,45	1208,30
198,67	1286,12
198,89	1333,23
199,11	1271,79
199,33	1339,37
199,55	1265,64
199,77	1282,03
199,99	1247,21
200,21	1347,56
200,43	1249,26
200,65	1200,11
200,87	1294,32
201,09	1247,21
201,31	1271,79
201,53	1279,98
201,75	1296,36
201,97	1249,26
202,19	1222,64
202,41	1290,22
202,63	1261,55
202,85	1286,12
203,07	1251,31
203,29	1339,37
203,51	1333,23
203,73	1265,64
203,95	1296,36
204,17	1241,07
204,39	1253,36
204,61	1234,93
204,83	1232,88
205,05	1277,93
205,27	1232,88
205,49	1343,47
205,71	1286,12
205,93	1241,07
206,15	1357,80
206,37	1200,11
206,59	1345,52
206,81	1259,50
207,03	1267,69
207,25	1331,18
207,47	1271,79
207,69	1236,97
207,91	1290,22
208,13	1267,69
208,34	1275,88
208,56	1314,80
208,78	1284,08
209,00	1220,59
209,22	1247,21
209,44	1241,07
209,66	1255,40
209,88	1239,02
210,10	1271,79
210,32	1302,51
210,54	1316,84
210,76	1273,84
210,98	1232,88
211,20	1228,78
211,42	1224,69
211,64	1220,59
211,86	1226,73
212,08	1312,75
212,30	1273,84
212,52	1239,02
212,74	1236,97
212,96	1251,31
213,17	1282,03
213,39	1304,56
213,61	1372,14
213,83	1263,60
214,05	1271,79
214,27	1259,50
214,49	1269,74
214,71	1265,64
214,93	1265,64
215,15	1298,41
215,37	1292,27
215,59	1292,27
215,81	1279,98
216,03	1339,37
216,24	1249,26
216,46	1179,63
216,68	1265,64
216,90	1271,79
217,12	1275,88
217,34	1318,89
217,56	1269,74
217,78	1253,36
218,00	1349,61
218,22	1306,60
218,44	1228,78
218,66	1286,12
218,87	1265,64
219,09	1282,03
219,31	1271,79
219,53	1249,26
219,75	1294,32
219,97	1298,41
220,19	1325,04
220,41	1277,93
220,63	1279,98
220,85	1273,84
221,06	1284,08
221,28	1236,97
221,50	1226,73
221,72	1290,22
221,94	1308,65
222,16	1255,40
222,38	1290,22
222,60	1279,98
222,82	1302,51
223,03	1290,22
223,25	1204,21
223,47	1263,60
223,69	1359,85
223,91	1302,51
224,13	1284,08
224,35	1267,69
224,57	1222,64
224,78	1320,94
225,00	1214,45
225,22	1284,08
225,44	1290,22
225,66	1335,28
225,88	1220,59
226,10	1265,64
226,32	1259,50
226,53	1318,89
226,75	1290,22
226,97	1189,87
227,19	1306,60
227,41	1261,55
227,63	1277,93
227,85	1230,83
228,06	1251,31
228,28	1263,60
228,50	1273,84
228,72	1312,75
228,94	1228,78
229,16	1296,36
229,37	1329,13
229,59	1316,84
229,81	1277,93
230,03	1226,73
230,25	1271,79
230,47	1267,69
230,69	1228,78
230,90	1243,12
231,12	1251,31
231,34	1271,79
231,56	1312,75
231,78	1243,12
232,00	1251,31
232,21	1310,70
232,43	1296,36
232,65	1300,46
232,87	1230,83
233,09	1261,55
233,30	1239,02
233,52	1298,41
233,74	1273,84
233,96	1284,08
234,18	1269,74
234,40	1226,73
234,61	1277,93
234,83	1275,88
235,05	1275,88
235,27	1273,84
235,49	1322,99
235,70	1314,80
235,92	1378,28
236,14	1214,45
236,36	1277,93
236,58	1273,84
236,79	1187,82
237,01	1275,88
237,23	1271,79
237,45	1296,36
237,67	1200,11
237,88	1417,19
238,10	1257,45
238,32	1206,25
238,54	1241,07
238,76	1216,49
238,97	1341,42
239,19	1263,60
239,41	1208,30
239,63	1318,89
239,85	1255,40
240,06	1325,04
240,28	1306,60
240,50	1302,51
240,72	1230,83
240,93	1290,22
241,15	1284,08
241,37	1292,27
241,59	1298,41
241,81	1171,44
242,02	1298,41
242,24	1247,21
242,46	1296,36
242,68	1284,08
242,89	1300,46
243,11	1316,84
243,33	1322,99
243,55	1271,79
243,76	1255,40
243,98	1257,45
244,20	1259,50
244,42	1314,80
244,64	1271,79
244,85	1314,80
245,07	1302,51
245,29	1290,22
245,51	1320,94
245,72	1234,93
245,94	1345,52
246,16	1306,60
246,38	1339,37
246,59	1290,22
246,81	1226,73
247,03	1290,22
247,24	1232,88
247,46	1269,74
247,68	1302,51
247,90	1247,21
248,11	1282,03
248,33	1236,97
248,55	1224,69
248,77	1249,26
248,98	1271,79
249,20	1279,98
249,42	1310,70
249,64	1308,65
249,85	1226,73
250,07	1263,60
250,29	1249,26
250,50	1296,36
250,72	1300,46
250,94	1306,60
251,16	1290,22
251,37	1320,94
251,59	1255,40
251,81	1232,88
252,02	1263,60
252,24	1210,35
252,46	1288,17
252,68	1241,07
252,89	1308,65
253,11	1208,30
253,33	1298,41
253,54	1310,70
253,76	1286,12
253,98	1302,51
254,20	1165,29
254,41	1249,26
254,63	1212,40
254,85	1261,55
255,06	1294,32
255,28	1208,30
255,50	1271,79
255,71	1222,64
255,93	1329,13
256,15	1359,85
256,36	1288,17
256,58	1343,47
256,80	1355,76
257,02	1179,63
257,23	1202,16
257,45	1249,26
257,67	1263,60
257,88	1245,16
258,10	1273,84
258,32	1302,51
258,53	1261,55
258,75	1232,88
258,97	1214,45
259,18	1298,41
259,40	1316,84
259,62	1284,08
259,83	1271,79
260,05	1275,88
260,27	1216,49
260,48	1279,98
260,70	1241,07
260,92	1204,21
261,13	1284,08
261,35	1239,02
261,57	1236,97
261,78	1345,52
262,00	1200,11
262,22	1277,93
262,43	1189,87
262,65	1302,51
262,86	1310,70
263,08	1318,89
263,30	1277,93
263,51	1325,04
263,73	1312,75
263,95	1284,08
264,16	1271,79
264,38	1316,84
264,60	1273,84
264,81	1288,17
265,03	1228,78
265,25	1277,93
265,46	1189,87
265,68	1277,93
265,89	1290,22
266,11	1312,75
266,33	1241,07
266,54	1273,84
266,76	1263,60
266,98	1228,78
267,19	1314,80
267,41	1310,70
267,62	1255,40
267,84	1288,17
268,06	1290,22
268,27	1314,80
268,49	1257,45
268,70	1277,93
268,92	1263,60
269,14	1284,08
269,35	1335,28
269,57	1361,90
269,79	1193,97
270,00	1206,25
270,22	1261,55
270,43	1290,22
270,65	1269,74
270,87	1320,94
271,08	1265,64
271,30	1271,79
271,51	1279,98
271,73	1208,30
271,95	1331,18
272,16	1302,51
272,38	1263,60
272,59	1290,22
272,81	1284,08
273,02	1228,78
273,24	1312,75
273,46	1222,64
273,67	1271,79
273,89	1247,21
274,10	1306,60
274,32	1255,40
274,54	1320,94
274,75	1263,60
274,97	1220,59
275,18	1261,55
275,40	1308,65
275,61	1302,51
275,83	1269,74
276,05	1310,70
276,26	1298,41
276,48	1263,60
276,69	1335,28
276,91	1292,27
277,12	1325,04
277,34	1347,56
277,55	1277,93
277,77	1208,30
277,99	1284,08
278,20	1267,69
278,42	1257,45
278,63	1269,74
278,85	1230,83
279,06	1230,83
279,28	1339,37
279,49	1216,49
279,71	1345,52
279,93	1296,36
280,14	1259,50
280,36	1273,84
280,57	1230,83
280,79	1232,88
281,00	1277,93
281,22	1294,32
281,43	1249,26
281,65	1230,83
281,86	1177,58
282,08	1300,46
282,29	1308,65
282,51	1310,70
282,73	1279,98
282,94	1282,03
283,16	1273,84
283,37	1261,55
283,59	1239,02
283,80	1222,64
284,02	1259,50
284,23	1288,17
284,45	1310,70
284,66	1279,98
284,88	1265,64
285,09	1343,47
285,31	1312,75
285,52	1247,21
285,74	1210,35
285,95	1255,40
286,17	1312,75
286,38	1251,31
286,60	1298,41
286,81	1255,40
287,03	1249,26
287,24	1298,41
287,46	1337,32
287,67	1275,88
287,89	1198,06
288,10	1265,64
288,32	1216,49
288,53	1239,02
288,75	1273,84
288,96	1279,98
289,18	1271,79
289,39	1230,83
289,61	1277,93
289,82	1269,74
290,04	1320,94
290,25	1269,74
290,47	1267,69
290,68	1249,26
290,90	1314,80
291,11	1282,03
291,33	1318,89
291,54	1269,74
291,76	1265,64
291,97	1304,56
292,18	1292,27
292,40	1232,88
292,61	1271,79
292,83	1220,59
293,04	1275,88
293,26	1226,73
293,47	1251,31
293,69	1216,49
293,90	1224,69
294,12	1300,46
294,33	1288,17
294,55	1345,52
294,76	1224,69
294,97	1296,36
295,19	1265,64
295,40	1251,31
295,62	1243,12
295,83	1279,98
296,05	1341,42
296,26	1273,84
296,48	1255,40
296,69	1349,61
296,90	1265,64
297,12	1292,27
297,33	1271,79
297,55	1300,46
297,76	1249,26
297,98	1271,79
298,19	1290,22
298,41	1325,04
298,62	1245,16
298,83	1261,55
299,05	1273,84
299,26	1232,88
299,48	1261,55
299,69	1212,40
299,90	1245,16
300,12	1247,21
300,33	1335,28
300,55	1275,88
300,76	1288,17
300,98	1259,50
301,19	1343,47
301,40	1232,88
301,62	1372,14
301,83	1306,60
302,05	1329,13
302,26	1163,25
302,47	1228,78
302,69	1273,84
302,90	1179,63
303,12	1288,17
303,33	1343,47
303,54	1359,85
303,76	1267,69
303,97	1298,41
304,19	1300,46
304,40	1255,40
304,61	1263,60
304,83	1245,16
305,04	1230,83
305,26	1267,69
305,47	1282,03
305,68	1214,45
305,90	1288,17
306,11	1277,93
306,33	1230,83
306,54	1210,35
306,75	1329,13
306,97	1306,60
307,18	1214,45
307,39	1380,33
307,61	1286,12
307,82	1316,84
308,04	1286,12
308,25	1284,08
308,46	1265,64
308,68	1325,04
308,89	1318,89
309,10	1271,79
309,32	1314,80
309,53	1206,25
309,74	1239,02
309,96	1249,26
310,17	1292,27
310,39	1202,16
310,60	1267,69
310,81	1271,79
311,03	1230,83
311,24	1253,36
311,45	1259,50
311,67	1247,21
311,88	1279,98
312,09	1267,69
312,31	1263,60
312,52	1222,64
312,73	1257,45
312,95	1314,80
313,16	1288,17
313,37	1230,83
313,59	1265,64
313,80	1222,64
314,01	1331,18
314,23	1302,51
314,44	1359,85
314,65	1253,36
314,87	1239,02
315,08	1241,07
315,29	1302,51
315,51	1290,22
315,72	1286,12
315,93	1288,17
316,15	1277,93
316,36	1269,74
316,57	1204,21
316,79	1249,26
317,00	1249,26
317,21	1232,88
317,43	1224,69
317,64	1304,56
317,85	1353,71
318,07	1277,93
318,28	1226,73
318,49	1249,26
318,70	1224,69
318,92	1327,08
319,13	1296,36
319,34	1265,64
319,56	1318,89
319,77	1269,74
319,98	1320,94
320,20	1284,08
320,41	1234,93
320,62	1284,08
320,83	1220,59
321,05	1218,54
321,26	1261,55
321,47	1247,21
321,69	1288,17
321,90	1212,40
322,11	1335,28
322,32	1251,31
322,54	1263,60
322,75	1243,12
322,96	1318,89
323,18	1351,66
323,39	1173,49
323,60	1282,03
323,81	1347,56
324,03	1255,40
324,24	1282,03
324,45	1249,26
324,66	1243,12
324,88	1290,22
325,09	1251,31
325,30	1275,88
325,52	1218,54
325,73	1277,93
325,94	1284,08
326,15	1220,59
326,37	1236,97
326,58	1243,12
326,79	1255,40
327,00	1249,26
327,22	1304,56
327,43	1282,03
327,64	1249,26
327,85	1359,85
328,07	1267,69
328,28	1234,93
328,49	1306,60
328,70	1288,17
328,92	1228,78
329,13	1261,55
329,34	1275,88
329,55	1310,70
329,76	1341,42
329,98	1331,18
330,19	1220,59
330,40	1251,31
330,61	1263,60
330,83	1294,32
331,04	1220,59
331,25	1259,50
331,46	1304,56
331,68	1306,60
331,89	1273,84
332,10	1214,45
332,31	1257,45
332,52	1251,31
332,74	1245,16
332,95	1353,71
333,16	1234,93
333,37	1296,36
333,58	1206,25
333,80	1288,17
334,01	1333,23
334,22	1304,56
334,43	1271,79
334,64	1159,15
334,86	1261,55
335,07	1216,49
335,28	1259,50
335,49	1275,88
335,70	1212,40
335,92	1331,18
336,13	1339,37
336,34	1275,88
336,55	1304,56
336,76	1251,31
336,98	1279,98
337,19	1257,45
337,40	1302,51
337,61	1347,56
337,82	1288,17
338,04	1218,54
338,25	1284,08
338,46	1216,49
338,67	1302,51
338,88	1279,98
339,09	1236,97
339,31	1222,64
339,52	1251,31
339,73	1236,97
339,94	1239,02
340,15	1282,03
340,36	1251,31
340,58	1261,55
340,79	1185,77
341,00	1304,56
341,21	1265,64
341,42	1288,17
341,63	1236,97
341,85	1286,12
342,06	1282,03
342,27	1267,69
342,48	1255,40
342,69	1253,36
342,90	1282,03
343,12	1277,93
343,33	1302,51
343,54	1177,58
343,75	1261,55
343,96	1241,07
344,17	1263,60
344,38	1294,32
344,60	1296,36
344,81	1310,70
345,02	1236,97
345,23	1253,36
345,44	1290,22
345,65	1263,60
345,86	1249,26
346,07	1181,68
346,29	1236,97
346,50	1267,69
346,71	1222,64
346,92	1239,02
347,13	1310,70
347,34	1251,31
347,55	1214,45
347,76	1275,88
347,98	1329,13
348,19	1316,84
348,40	1337,32
348,61	1269,74
348,82	1263,60
349,03	1191,92
349,24	1304,56
349,45	1282,03
349,66	1208,30
349,88	1284,08
350,09	1320,94
350,30	1265,64
350,51	1337,32
350,72	1322,99
350,93	1341,42
351,14	1247,21
351,35	1210,35
351,56	1329,13
351,77	1308,65
351,99	1333,23
352,20	1316,84
352,41	1349,61
352,62	1300,46
352,83	1325,04
353,04	1310,70
353,25	1298,41
353,46	1253,36
353,67	1241,07
353,88	1245,16
354,09	1296,36
354,30	1292,27
354,52	1271,79
354,73	1236,97
354,94	1249,26
355,15	1345,52
355,36	1273,84
355,57	1253,36
355,78	1269,74
355,99	1277,93
356,20	1325,04
356,41	1273,84
356,62	1292,27
356,83	1267,69
357,04	1279,98
357,25	1277,93
357,46	1243,12
357,68	1282,03
357,89	1267,69
358,10	1320,94
358,31	1253,36
358,52	1327,08
358,73	1271,79
358,94	1271,79
359,15	1247,21
359,36	1282,03
359,57	1265,64
359,78	1204,21
359,99	1271,79
360,20	1255,40
360,41	1239,02
360,62	1345,52
360,83	1310,70
361,04	1294,32
361,25	1298,41
361,46	1230,83
361,67	1216,49
361,88	1310,70
362,09	1275,88
362,30	1314,80
362,51	1279,98
362,72	1282,03
362,93	1204,21
363,14	1277,93
363,35	1191,92
363,56	1204,21
363,78	1249,26
363,99	1222,64
364,20	1267,69
364,41	1288,17
364,62	1269,74
364,83	1304,56
365,04	1275,88
365,25	1224,69
365,46	1251,31
365,67	1196,01
365,88	1263,60
366,09	1253,36
366,30	1343,47
366,51	1300,46
366,72	1251,31
366,93	1265,64
367,14	1333,23
367,35	1308,65
367,56	1282,03
367,77	1263,60
367,98	1286,12
368,18	1304,56
368,39	1251,31
368,60	1255,40
368,81	1189,87
369,02	1271,79
369,23	1288,17
369,44	1300,46
369,65	1282,03
369,86	1286,12
370,07	1312,75
370,28	1245,16
370,49	1267,69
370,70	1253,36
370,91	1275,88
371,12	1265,64
371,33	1302,51
371,54	1296,36
371,75	1267,69
371,96	1218,54
372,17	1214,45
372,38	1275,88
372,59	1214,45
372,80	1239,02
373,01	1290,22
373,22	1267,69
373,43	1271,79
373,64	1271,79
373,85	1300,46
374,06	1257,45
374,26	1302,51
374,47	1347,56
374,68	1327,08
374,89	1298,41
375,10	1279,98
375,31	1314,80
375,52	1286,12
375,73	1353,71
375,94	1298,41
376,15	1179,63
376,36	1304,56
376,57	1296,36
376,78	1239,02
376,99	1261,55
377,20	1273,84
377,40	1263,60
377,61	1271,79
377,82	1247,21
378,03	1320,94
378,24	1275,88
378,45	1277,93
378,66	1171,44
378,87	1296,36
379,08	1306,60
379,29	1279,98
379,50	1271,79
379,71	1206,25
379,91	1257,45
380,12	1277,93
380,33	1322,99
380,54	1298,41
380,75	1218,54
380,96	1257,45
381,17	1265,64
381,38	1275,88
381,59	1261,55
381,80	1257,45
382,00	1306,60
382,21	1310,70
382,42	1282,03
382,63	1249,26
382,84	1271,79
383,05	1359,85
383,26	1279,98
383,47	1298,41
383,68	1265,64
383,88	1300,46
384,09	1341,42
384,30	1253,36
384,51	1322,99
384,72	1271,79
384,93	1312,75
385,14	1273,84
385,35	1279,98
385,55	1239,02
385,76	1216,49
385,97	1286,12
386,18	1259,50
386,39	1279,98
386,60	1288,17
386,81	1306,60
387,02	1226,73
387,22	1214,45
387,43	1269,74
387,64	1249,26
387,85	1308,65
388,06	1271,79
388,27	1288,17
388,48	1282,03
388,68	1239,02
388,89	1325,04
389,10	1247,21
389,31	1230,83
389,52	1277,93
389,73	1273,84
389,93	1275,88
390,14	1308,65
390,35	1267,69
390,56	1314,80
390,77	1296,36
390,98	1284,08
391,18	1302,51
391,39	1286,12
391,60	1275,88
391,81	1314,80
392,02	1236,97
392,23	1220,59
392,43	1243,12
392,64	1263,60
392,85	1247,21
393,06	1290,22
393,27	1208,30
393,47	1288,17
393,68	1353,71
393,89	1304,56
394,10	1265,64
394,31	1208,30
394,52	1294,32
394,72	1212,40
394,93	1343,47
395,14	1216,49
395,35	1249,26
395,56	1335,28
395,76	1290,22
395,97	1218,54
396,18	1247,21
396,39	1314,80
396,60	1259,50
396,80	1230,83
397,01	1263,60
397,22	1204,21
397,43	1304,56
397,64	1224,69
397,84	1282,03
398,05	1214,45
398,26	1253,36
398,47	1275,88
398,67	1298,41
398,88	1296,36
399,09	1294,32
399,30	1300,46
399,51	1230,83
399,71	1296,36
399,92	1261,55
400,13	1263,60
400,34	1169,39
400,54	1261,55
400,75	1314,80
400,96	1239,02
401,17	1292,27
401,37	1228,78
401,58	1296,36
401,79	1261,55
402,00	1245,16
402,21	1198,06
402,41	1214,45
402,62	1349,61
402,83	1243,12
403,04	1275,88
403,24	1298,41
403,45	1249,26
403,66	1282,03
403,87	1167,34
404,07	1241,07
404,28	1265,64
404,49	1335,28
404,70	1269,74
404,90	1218,54
405,11	1236,97
405,32	1292,27
405,52	1241,07
405,73	1271,79
405,94	1230,83
406,15	1318,89
406,35	1271,79
406,56	1273,84
406,77	1308,65
406,98	1302,51
407,18	1335,28
407,39	1263,60
407,60	1216,49
407,80	1322,99
408,01	1255,40
408,22	1249,26
408,43	1312,75
408,63	1257,45
408,84	1269,74
409,05	1269,74
409,25	1212,40
409,46	1273,84
409,67	1288,17
409,88	1318,89
410,08	1261,55
410,29	1243,12
410,50	1271,79
410,70	1216,49
410,91	1277,93
411,12	1318,89
411,32	1273,84
411,53	1339,37
411,74	1327,08
411,95	1259,50
412,15	1286,12
412,36	1279,98
412,57	1257,45
412,77	1261,55
412,98	1298,41
413,19	1253,36
413,39	1275,88
413,60	1189,87
413,81	1269,74
414,01	1241,07
414,22	1300,46
414,43	1200,11
414,63	1249,26
414,84	1241,07
415,05	1327,08
415,25	1292,27
415,46	1320,94
415,67	1193,97
415,87	1284,08
416,08	1341,42
416,29	1290,22
416,49	1335,28
416,70	1247,21
416,91	1327,08
417,11	1234,93
417,32	1236,97
417,53	1239,02
417,73	1306,60
417,94	1273,84
418,15	1284,08
418,35	1253,36
418,56	1327,08
418,77	1269,74
418,97	1251,31
419,18	1318,89
419,38	1236,97
419,59	1298,41
419,80	1265,64
420,00	1271,79
420,21	1247,21
420,42	1302,51
420,62	1261,55
420,83	1388,52
421,04	1298,41
421,24	1261,55
421,45	1251,31
421,65	1259,50
421,86	1263,60
422,07	1251,31
422,27	1273,84
422,48	1236,97
422,69	1269,74
422,89	1241,07
423,10	1179,63
423,30	1269,74
423,51	1286,12
423,72	1263,60
423,92	1353,71
424,13	1341,42
424,33	1214,45
424,54	1300,46
424,75	1306,60
424,95	1241,07
425,16	1267,69
425,36	1279,98
425,57	1308,65
425,78	1277,93
425,98	1269,74
426,19	1257,45
426,39	1284,08
426,60	1216,49
426,81	1318,89
427,01	1284,08
427,22	1239,02
427,42	1255,40
427,63	1314,80
427,83	1241,07
428,04	1275,88
428,25	1247,21
428,45	1210,35
428,66	1277,93
428,86	1288,17
429,07	1269,74
429,28	1206,25
429,48	1290,22
429,69	1349,61
429,89	1296,36
430,10	1249,26
430,30	1239,02
430,51	1261,55
430,71	1292,27
430,92	1259,50
431,13	1241,07
431,33	1245,16
431,54	1275,88
431,74	1282,03
431,95	1306,60
432,15	1275,88
432,36	1212,40
432,56	1345,52
432,77	1271,79
432,98	1304,56
433,18	1267,69
433,39	1296,36
433,59	1261,55
433,80	1239,02
434,00	1304,56
434,21	1316,84
434,41	1249,26
434,62	1337,32
434,82	1282,03
435,03	1302,51
435,23	1253,36
435,44	1204,21
435,64	1273,84
435,85	1257,45
436,06	1286,12
436,26	1265,64
436,47	1216,49
436,67	1288,17
436,88	1222,64
437,08	1243,12
437,29	1271,79
437,49	1275,88
437,70	1230,83
437,90	1247,21
438,11	1318,89
438,31	1279,98
438,52	1232,88
438,72	1288,17
438,93	1245,16
439,13	1214,45
439,34	1273,84
439,54	1292,27
439,75	1271,79
439,95	1275,88
440,16	1314,80
440,36	1306,60
440,57	1312,75
440,77	1275,88
440,98	1257,45
441,18	1259,50
441,39	1255,40
441,59	1325,04
441,80	1366,00
442,00	1271,79
442,21	1245,16
442,41	1257,45
442,62	1310,70
442,82	1331,18
443,02	1257,45
443,23	1259,50
443,43	1296,36
443,64	1339,37
443,84	1318,89
444,05	1265,64
444,25	1226,73
444,46	1249,26
444,66	1261,55
444,87	1288,17
445,07	1345,52
445,28	1288,17
445,48	1284,08
445,69	1273,84
445,89	1312,75
446,09	1249,26
446,30	1282,03
446,50	1265,64
446,71	1261,55
446,91	1304,56
447,12	1218,54
447,32	1327,08
447,53	1249,26
447,73	1314,80
447,93	1257,45
448,14	1325,04
448,34	1310,70
448,55	1251,31
448,75	1243,12
448,96	1269,74
449,16	1153,01
449,36	1282,03
449,57	1251,31
449,77	1228,78
449,98	1312,75
450,18	1257,45
450,39	1347,56
450,59	1239,02
450,79	1232,88
451,00	1288,17
451,20	1249,26
451,41	1259,50
451,61	1220,59
451,81	1314,80
452,02	1296,36
452,22	1290,22
452,43	1331,18
452,63	1298,41
452,84	1239,02
453,04	1302,51
453,24	1333,23
453,45	1308,65
453,65	1243,12
453,86	1257,45
454,06	1265,64
454,26	1271,79
454,47	1284,08
454,67	1302,51
454,87	1327,08
455,08	1306,60
455,28	1279,98
455,49	1189,87
455,69	1302,51
455,89	1325,04
456,10	1296,36
456,30	1290,22
456,51	1239,02
456,71	1271,79
456,91	1232,88
457,12	1320,94
457,32	1296,36
457,52	1239,02
457,73	1298,41
457,93	1298,41
458,14	1241,07
458,34	1290,22
458,54	1312,75
458,75	1282,03
458,95	1290,22
459,15	1290,22
459,36	1304,56
459,56	1269,74
459,76	1232,88
459,97	1245,16
460,17	1253,36
460,37	1304,56
460,58	1255,40
460,78	1218,54
460,99	1314,80
461,19	1269,74
461,39	1245,16
461,60	1265,64
461,80	1308,65
462,00	1290,22
462,21	1322,99
462,41	1296,36
462,61	1243,12
462,82	1294,32
463,02	1286,12
463,22	1286,12
463,43	1288,17
463,63	1271,79
463,83	1273,84
464,04	1286,12
464,24	1200,11
464,44	1220,59
464,64	1312,75
464,85	1292,27
465,05	1275,88
465,25	1312,75
465,46	1331,18
465,66	1271,79
465,86	1290,22
466,07	1288,17
466,27	1308,65
466,47	1370,09
466,68	1269,74
466,88	1216,49
467,08	1325,04
467,29	1275,88
467,49	1290,22
467,69	1351,66
467,89	1220,59
468,10	1316,84
468,30	1204,21
468,50	1331,18
468,71	1259,50
468,91	1216,49
469,11	1236,97
469,31	1257,45
469,52	1253,36
469,72	1226,73
469,92	1265,64
470,13	1271,79
470,33	1261,55
470,53	1300,46
470,73	1249,26
470,94	1277,93
471,14	1310,70
471,34	1263,60
471,54	1329,13
471,75	1249,26
471,95	1304,56
472,15	1279,98
472,36	1286,12
472,56	1306,60
472,76	1247,21
472,96	1284,08
473,17	1265,64
473,37	1241,07
473,57	1279,98
473,77	1306,60
473,98	1257,45
474,18	1193,97
474,38	1320,94
474,58	1286,12
474,79	1300,46
474,99	1259,50
475,19	1232,88
475,39	1245,16
475,60	1247,21
475,80	1241,07
476,00	1222,64
476,20	1267,69
476,41	1218,54
476,61	1316,84
476,81	1214,45
477,01	1269,74
477,21	1286,12
477,42	1357,80
477,62	1279,98
477,82	1306,60
478,02	1275,88
478,23	1212,40
478,43	1220,59
478,63	1327,08
478,83	1286,12
479,03	1269,74
479,24	1230,83
479,44	1288,17
479,64	1314,80
479,84	1306,60
480,04	1296,36
480,25	1253,36
480,45	1267,69
480,65	1224,69
480,85	1212,40
481,06	1189,87
481,26	1257,45
481,46	1275,88
481,66	1265,64
481,86	1269,74
482,06	1259,50
482,27	1294,32
482,47	1259,50
482,67	1335,28
482,87	1216,49
483,07	1273,84
483,28	1230,83
483,48	1271,79
483,68	1298,41
483,88	1271,79
484,08	1251,31
484,29	1255,40
484,49	1279,98
484,69	1282,03
484,89	1327,08
485,09	1347,56
485,29	1193,97
485,50	1241,07
485,70	1234,93
485,90	1282,03
486,10	1327,08
486,30	1312,75
486,50	1296,36
486,71	1275,88
486,91	1265,64
487,11	1273,84
487,31	1263,60
487,51	1294,32
487,71	1298,41
487,91	1322,99
488,12	1310,70
488,32	1259,50
488,52	1343,47
488,72	1200,11
488,92	1306,60
489,12	1298,41
489,32	1288,17
489,53	1232,88
489,73	1339,37
489,93	1304,56
490,13	1284,08
490,33	1298,41
490,53	1343,47
490,73	1304,56
490,94	1277,93
491,14	1282,03
491,34	1245,16
491,54	1286,12
491,74	1261,55
491,94	1241,07
492,14	1220,59
492,34	1296,36
492,54	1370,09
492,75	1222,64
492,95	1222,64
493,15	1325,04
493,35	1224,69
493,55	1224,69
493,75	1232,88
493,95	1290,22
494,15	1327,08
494,35	1290,22
494,56	1245,16
494,76	1282,03
494,96	1245,16
495,16	1316,84
495,36	1265,64
495,56	1294,32
495,76	1294,32
495,96	1226,73
496,16	1239,02
496,36	1275,88
496,56	1277,93
496,77	1322,99
496,97	1296,36
497,17	1282,03
497,37	1279,98
497,57	1292,27
497,77	1284,08
497,97	1255,40
498,17	1337,32
498,37	1298,41
498,57	1259,50
498,77	1292,27
498,97	1241,07
499,17	1298,41
499,38	1273,84
499,58	1284,08
499,78	1241,07
499,98	1298,41
500,18	1265,64
500,38	1279,98
500,58	1275,88
500,78	1286,12
500,98	1255,40
501,18	1263,60
501,38	1253,36
501,58	1247,21
501,78	1271,79
501,98	1261,55
502,18	1224,69
502,38	1296,36
502,58	1269,74
502,78	1327,08
502,98	1333,23
503,18	1206,25
503,38	1255,40
503,59	1275,88
503,79	1318,89
503,99	1255,40
504,19	1261,55
504,39	1271,79
504,59	1214,45
504,79	1271,79
504,99	1273,84
505,19	1306,60
505,39	1261,55
505,59	1255,40
505,79	1224,69
505,99	1269,74
506,19	1267,69
506,39	1243,12
506,59	1224,69
506,79	1318,89
506,99	1249,26
507,19	1279,98
507,39	1312,75
507,59	1286,12
507,79	1265,64
507,99	1212,40
508,19	1253,36
508,39	1290,22
508,59	1298,41
508,79	1259,50
508,99	1322,99
509,19	1310,70
509,39	1269,74
509,59	1214,45
509,79	1210,35
509,99	1243,12
510,19	1279,98
510,39	1243,12
510,59	1243,12
510,79	1351,66
510,99	1279,98
511,19	1271,79
511,39	1241,07
511,59	1247,21
511,79	1259,50
511,99	1193,97
512,19	1212,40
512,38	1282,03
512,58	1251,31
512,78	1284,08
512,98	1292,27
513,18	1236,97
513,38	1202,16
513,58	1282,03
513,78	1292,27
513,98	1224,69
514,18	1243,12
514,38	1288,17
514,58	1259,50
514,78	1232,88
514,98	1259,50
515,18	1294,32
515,38	1320,94
515,58	1257,45
515,78	1247,21
515,98	1308,65
516,18	1306,60
516,38	1236,97
516,57	1279,98
516,77	1232,88
516,97	1183,73
517,17	1341,42
517,37	1263,60
517,57	1320,94
517,77	1288,17
517,97	1279,98
518,17	1267,69
518,37	1253,36
518,57	1245,16
518,77	1302,51
518,97	1263,60
519,16	1300,46
519,36	1306,60
519,56	1282,03
519,76	1261,55
519,96	1216,49
520,16	1204,21
520,36	1247,21
520,56	1316,84
520,76	1257,45
520,96	1275,88
521,16	1241,07
521,35	1335,28
521,55	1251,31
521,75	1241,07
521,95	1257,45
522,15	1269,74
522,35	1267,69
522,55	1259,50
522,75	1282,03
522,95	1245,16
523,14	1251,31
523,34	1288,17
523,54	1282,03
523,74	1298,41
523,94	1273,84
524,14	1228,78
524,34	1263,60
524,54	1292,27
524,73	1265,64
524,93	1273,84
525,13	1363,95
525,33	1224,69
525,53	1226,73
525,73	1284,08
525,93	1247,21
526,13	1322,99
526,32	1355,76
526,52	1277,93
526,72	1308,65
526,92	1257,45
527,12	1257,45
527,32	1239,02
527,52	1300,46
527,71	1282,03
527,91	1343,47
528,11	1300,46
528,31	1298,41
528,51	1271,79
528,71	1228,78
528,90	1290,22
529,10	1193,97
529,30	1341,42
529,50	1251,31
529,70	1261,55
529,90	1212,40
530,09	1292,27
530,29	1296,36
530,49	1298,41
530,69	1214,45
530,89	1222,64
531,09	1327,08
531,28	1263,60
531,48	1306,60
531,68	1179,63
531,88	1249,26
532,08	1282,03
532,28	1263,60
532,47	1267,69
532,67	1208,30
532,87	1234,93
533,07	1271,79
533,27	1239,02
533,46	1275,88
533,66	1286,12
533,86	1255,40
534,06	1263,60
534,26	1212,40
534,45	1282,03
534,65	1345,52
534,85	1265,64
535,05	1257,45
535,25	1284,08
535,44	1228,78
535,64	1316,84
535,84	1241,07
536,04	1249,26
536,24	1243,12
536,43	1273,84
536,63	1239,02
536,83	1339,37
537,03	1255,40
537,22	1282,03
537,42	1220,59
537,62	1284,08
537,82	1267,69
538,02	1296,36
538,21	1193,97
538,41	1210,35
538,61	1370,09
538,81	1261,55
539,00	1312,75
539,20	1206,25
539,40	1277,93
539,60	1331,18
539,79	1306,60
539,99	1232,88
540,19	1259,50
540,39	1196,01
540,58	1327,08
540,78	1277,93
540,98	1320,94
541,18	1265,64
541,37	1304,56
541,57	1218,54
541,77	1265,64
541,97	1300,46
542,16	1302,51
542,36	1255,40
542,56	1282,03
542,76	1232,88
542,95	1273,84
543,15	1224,69
543,35	1292,27
543,54	1294,32
543,74	1318,89
543,94	1243,12
544,14	1236,97
544,33	1306,60
544,53	1257,45
544,73	1320,94
544,93	1226,73
545,12	1296,36
545,32	1288,17
545,52	1294,32
545,71	1267,69
545,91	1263,60
546,11	1296,36
546,30	1249,26
546,50	1308,65
546,70	1271,79
546,90	1296,36
547,09	1253,36
547,29	1259,50
547,49	1259,50
547,68	1302,51
547,88	1302,51
548,08	1279,98
548,27	1292,27
548,47	1269,74
548,67	1279,98
548,87	1241,07
549,06	1269,74
549,26	1314,80
549,46	1265,64
549,65	1271,79
549,85	1290,22
550,05	1253,36
550,24	1253,36
550,44	1288,17
550,64	1206,25
550,83	1286,12
551,03	1257,45
551,23	1247,21
551,42	1234,93
551,62	1234,93
551,82	1267,69
552,01	1206,25
552,21	1347,56
552,41	1241,07
552,60	1329,13
552,80	1230,83
553,00	1329,13
553,19	1284,08
553,39	1251,31
553,59	1310,70
553,78	1294,32
553,98	1335,28
554,17	1220,59
554,37	1208,30
554,57	1275,88
554,76	1306,60
554,96	1290,22
555,16	1349,61
555,35	1290,22
555,55	1263,60
555,75	1251,31
555,94	1296,36
556,14	1267,69
556,33	1249,26
556,53	1228,78
556,73	1253,36
556,92	1302,51
557,12	1255,40
557,32	1282,03
557,51	1263,60
557,71	1290,22
557,90	1290,22
558,10	1230,83
558,30	1269,74
558,49	1257,45
558,69	1267,69
558,88	1218,54
559,08	1282,03
559,28	1253,36
559,47	1275,88
559,67	1300,46
559,86	1220,59
560,06	1265,64
560,26	1249,26
560,45	1269,74
560,65	1255,40
560,84	1183,73
561,04	1214,45
561,24	1325,04
561,43	1298,41
561,63	1181,68
561,82	1232,88
562,02	1251,31
562,22	1310,70
562,41	1331,18
562,61	1239,02
562,80	1279,98
563,00	1263,60
563,19	1218,54
563,39	1325,04
563,59	1208,30
563,78	1263,60
563,98	1257,45
564,17	1296,36
564,37	1318,89
564,56	1226,73
564,76	1179,63
564,96	1255,40
565,15	1322,99
565,35	1277,93
565,54	1255,40
565,74	1226,73
565,93	1200,11
566,13	1275,88
566,32	1290,22
566,52	1239,02
566,71	1253,36
566,91	1216,49
567,11	1288,17
567,30	1273,84
567,50	1245,16
567,69	1216,49
567,89	1312,75
568,08	1241,07
568,28	1271,79
568,47	1224,69
568,67	1249,26
568,86	1239,02
569,06	1232,88
569,25	1202,16
569,45	1224,69
569,64	1218,54
569,84	1286,12
570,04	1245,16
570,23	1224,69
570,43	1245,16
570,62	1320,94
570,82	1306,60
571,01	1230,83
571,21	1140,72
571,40	1189,87
571,60	1298,41
571,79	1267,69
571,99	1284,08
572,18	1277,93
572,38	1277,93
572,57	1255,40
572,77	1279,98
572,96	1302,51
573,16	1206,25
573,35	1288,17
573,55	1216,49
573,74	1191,92
573,94	1265,64
574,13	1269,74
574,33	1320,94
574,52	1259,50
574,71	1284,08
574,91	1308,65
575,10	1271,79
575,30	1230,83
575,49	1257,45
575,69	1282,03
575,88	1232,88
576,08	1212,40
576,27	1259,50
576,47	1294,32
576,66	1284,08
576,86	1255,40
577,05	1265,64
577,25	1247,21
577,44	1236,97
577,64	1300,46
577,83	1318,89
578,02	1294,32
578,22	1378,28
578,41	1196,01
578,61	1220,59
578,80	1255,40
579,00	1249,26
579,19	1282,03
579,39	1304,56
579,58	1232,88
579,77	1314,80
579,97	1290,22
580,16	1363,95
580,36	1284,08
580,55	1288,17
580,75	1310,70
580,94	1329,13
581,13	1249,26
581,33	1232,88
581,52	1234,93
581,72	1333,23
581,91	1298,41
582,11	1249,26
582,30	1261,55
582,49	1196,01
582,69	1241,07
582,88	1277,93
583,08	1257,45
583,27	1245,16
583,47	1267,69
583,66	1247,21
583,85	1214,45
584,05	1226,73
584,24	1290,22
584,44	1288,17
584,63	1263,60
584,82	1341,42
585,02	1286,12
585,21	1296,36
585,41	1216,49
585,60	1269,74
585,79	1296,36
585,99	1306,60
586,18	1212,40
586,37	1234,93
586,57	1261,55
586,76	1236,97
586,96	1247,21
587,15	1306,60
587,34	1273,84
587,54	1337,32
587,73	1325,04
587,93	1277,93
588,12	1269,74
588,31	1243,12
588,51	1261,55
588,70	1257,45
588,89	1296,36
589,09	1200,11
589,28	1259,50
589,47	1277,93
589,67	1286,12
589,86	1279,98
590,06	1308,65
590,25	1361,90
590,44	1292,27
590,64	1290,22
590,83	1253,36
591,02	1273,84
591,22	1241,07
591,41	1208,30
591,60	1333,23
591,80	1292,27
591,99	1279,98
592,18	1288,17
592,38	1253,36
592,57	1339,37
592,76	1239,02
592,96	1298,41
593,15	1290,22
593,34	1298,41
593,54	1202,16
593,73	1294,32
593,92	1261,55
594,12	1241,07
594,31	1304,56
594,50	1286,12
594,70	1277,93
594,89	1296,36
595,08	1226,73
595,28	1322,99
595,47	1257,45
595,66	1279,98
595,86	1243,12
596,05	1251,31
596,24	1304,56
596,43	1316,84
596,63	1243,12
596,82	1224,69
597,01	1259,50
597,21	1269,74
597,40	1368,04
597,59	1343,47
597,79	1302,51
597,98	1306,60
598,17	1325,04
598,36	1249,26
598,56	1259,50
598,75	1222,64
598,94	1261,55
599,14	1294,32
599,33	1263,60
599,52	1331,18
599,71	1290,22
599,91	1296,36
600,10	1251,31
600,29	1267,69
600,48	1175,53
600,68	1275,88
600,87	1265,64
601,06	1247,21
601,26	1288,17
601,45	1271,79
601,64	1241,07
601,83	1331,18
602,03	1284,08
602,22	1298,41
602,41	1269,74
602,60	1224,69
602,80	1277,93
602,99	1286,12
603,18	1279,98
603,37	1245,16
603,57	1294,32
603,76	1236,97
603,95	1251,31
604,14	1267,69
604,34	1308,65
604,53	1298,41
604,72	1314,80
604,91	1269,74
605,10	1263,60
605,30	1245,16
605,49	1185,77
605,68	1304,56
605,87	1257,45
606,07	1212,40
606,26	1265,64
606,45	1263,60
606,64	1279,98
606,84	1249,26
607,03	1216,49
607,22	1320,94
607,41	1234,93
607,60	1241,07
607,80	1263,60
607,99	1212,40
608,18	1349,61
608,37	1351,66
608,56	1277,93
608,76	1249,26
608,95	1236,97
609,14	1294,32
609,33	1245,16
609,52	1247,21
609,72	1345,52
609,91	1269,74
610,10	1230,83
610,29	1279,98
610,48	1255,40
610,68	1282,03
610,87	1241,07
611,06	1218,54
611,25	1267,69
611,44	1236,97
611,63	1288,17
611,83	1300,46
612,02	1253,36
612,21	1296,36
612,40	1232,88
612,59	1245,16
612,79	1265,64
612,98	1249,26
613,17	1239,02
613,36	1249,26
613,55	1196,01
613,74	1273,84
613,93	1224,69
614,13	1236,97
614,32	1306,60
614,51	1296,36
614,70	1314,80
614,89	1343,47
615,08	1335,28
615,28	1241,07
615,47	1284,08
615,66	1236,97
615,85	1284,08
616,04	1279,98
616,23	1234,93
616,42	1310,70
616,62	1269,74
616,81	1306,60
617,00	1335,28
617,19	1349,61
617,38	1230,83
617,57	1288,17
617,76	1253,36
617,95	1261,55
618,15	1325,04
618,34	1345,52
618,53	1193,97
618,72	1308,65
618,91	1269,74
619,10	1212,40
619,29	1290,22
619,48	1296,36
619,68	1343,47
619,87	1243,12
620,06	1310,70
620,25	1345,52
620,44	1230,83
620,63	1339,37
620,82	1310,70
621,01	1322,99
621,20	1304,56
621,39	1249,26
621,59	1296,36
621,78	1290,22
621,97	1239,02
622,16	1335,28
622,35	1298,41
622,54	1292,27
622,73	1284,08
622,92	1247,21
623,11	1265,64
623,30	1179,63
623,49	1304,56
623,68	1247,21
623,88	1335,28
624,07	1282,03
624,26	1290,22
624,45	1286,12
624,64	1282,03
624,83	1318,89
625,02	1310,70
625,21	1234,93
625,40	1355,76
625,59	1267,69
625,78	1349,61
625,97	1284,08
626,16	1232,88
626,35	1320,94
626,54	1257,45
626,74	1306,60
626,93	1302,51
627,12	1312,75
627,31	1261,55
627,50	1247,21
627,69	1187,82
627,88	1290,22
628,07	1308,65
628,26	1271,79
628,45	1271,79
628,64	1359,85
628,83	1333,23
629,02	1304,56
629,21	1320,94
629,40	1302,51
629,59	1310,70
629,78	1277,93
629,97	1296,36
630,16	1390,57
630,35	1202,16
630,54	1288,17
630,73	1355,76
630,92	1273,84
631,11	1325,04
631,30	1286,12
631,49	1341,42
631,68	1787,88
631,87	2965,46
632,06	7583,63
632,25	9420,66
632,44	17252,09
632,63	24835,72
632,82	41674,12
633,01	65535,00
633,20	65535,00
633,39	64996,38
633,58	39845,28
633,77	13193,01
633,96	7907,21
634,15	6694,81
634,34	4573,11
634,53	2965,46
634,72	2074,59
634,91	1818,60
635,10	1761,25
635,29	1665,00
635,48	1636,33
635,67	1527,78
635,86	1492,97
636,05	1468,39
636,24	1300,46
636,43	1404,91
636,62	1318,89
636,81	1363,95
637,00	1386,47
637,19	1337,32
637,38	1273,84
637,57	1273,84
637,76	1351,66
637,95	1275,88
638,14	1259,50
638,33	1318,89
638,52	1277,93
638,71	1333,23
638,89	1282,03
639,08	1302,51
639,27	1290,22
639,46	1306,60
639,65	1312,75
639,84	1298,41
640,03	1292,27
640,22	1308,65
640,41	1345,52
640,60	1294,32
640,79	1243,12
640,98	1357,80
641,17	1325,04
641,36	1294,32
641,55	1308,65
641,74	1333,23
641,92	1341,42
642,11	1304,56
642,30	1263,60
642,49	1279,98
642,68	1208,30
642,87	1245,16
643,06	1210,35
643,25	1378,28
643,44	1298,41
643,63	1320,94
643,82	1279,98
644,00	1279,98
644,19	1282,03
644,38	1226,73
644,57	1300,46
644,76	1220,59
644,95	1273,84
645,14	1239,02
645,33	1277,93
645,52	1353,71
645,71	1386,47
645,89	1165,29
646,08	1273,84
646,27	1273,84
646,46	1204,21
646,65	1245,16
646,84	1290,22
647,03	1265,64
647,22	1282,03
647,40	1292,27
647,59	1263,60
647,78	1263,60
647,97	1279,98
648,16	1226,73
648,35	1329,13
648,54	1351,66
648,73	1267,69
648,91	1306,60
649,10	1331,18
649,29	1271,79
649,48	1228,78
649,67	1308,65
649,86	1372,14
650,05	1269,74
650,23	1259,50
650,42	1282,03
650,61	1282,03
650,80	1294,32
650,99	1284,08
651,18	1277,93
651,36	1318,89
651,55	1243,12
651,74	1310,70
651,93	1200,11
652,12	1243,12
652,31	1294,32
652,49	1251,31
652,68	1261,55
652,87	1269,74
653,06	1298,41
653,25	1273,84
653,44	1265,64
653,62	1275,88
653,81	1351,66
654,00	1290,22
654,19	1191,92
654,38	1292,27
654,56	1275,88
654,75	1279,98
654,94	1308,65
655,13	1302,51
655,32	1267,69
655,51	1273,84
655,69	1314,80
655,88	1236,97
656,07	1255,40
656,26	1271,79
656,45	1257,45
656,63	1206,25
656,82	1232,88
657,01	1255,40
657,20	1228,78
657,38	1204,21
657,57	1345,52
657,76	1232,88
657,95	1257,45
658,14	1290,22
658,32	1247,21
658,51	1267,69
658,70	1226,73
658,89	1224,69
659,08	1279,98
659,26	1271,79
659,45	1277,93
659,64	1312,75
659,83	1329,13
660,01	1253,36
660,20	1236,97
660,39	1296,36
660,58	1241,07
660,76	1261,55
660,95	1318,89
661,14	1277,93
661,33	1251,31
661,51	1351,66
661,70	1263,60
661,89	1255,40
662,08	1290,22
662,26	1322,99
662,45	1228,78
662,64	1288,17
662,83	1290,22
663,01	1325,04
663,20	1247,21
663,39	1302,51
663,58	1245,16
663,76	1304,56
663,95	1277,93
664,14	1343,47
664,32	1273,84
664,51	1255,40
664,70	1265,64
664,89	1290,22
665,07	1290,22
665,26	1265,64
665,45	1202,16
665,64	1343,47
665,82	1249,26
666,01	1302,51
666,20	1249,26
666,38	1310,70
666,57	1267,69
666,76	1312,75
666,95	1298,41
667,13	1265,64
667,32	1263,60
667,51	1220,59
667,69	1296,36
667,88	1269,74
668,07	1257,45
668,25	1304,56
668,44	1222,64
668,63	1273,84
668,81	1310,70
669,00	1282,03
669,19	1241,07
669,38	1298,41
669,56	1247,21
669,75	1255,40
669,94	1314,80
670,12	1269,74
670,31	1196,01
670,50	1232,88
670,68	1193,97
670,87	1279,98
671,06	1296,36
671,24	1279,98
671,43	1277,93
671,62	1232,88
671,80	1273,84
671,99	1216,49
672,18	1302,51
672,36	1292,27
672,55	1282,03
672,74	1355,76
672,92	1282,03
673,11	1312,75
673,29	1275,88
673,48	1267,69
673,67	1341,42
673,85	1239,02
674,04	1267,69
674,23	1259,50
674,41	1322,99
674,60	1263,60
674,79	1208,30
674,97	1230,83
675,16	1245,16
675,34	1298,41
675,53	1306,60
675,72	1275,88
675,90	1251,31
676,09	1257,45
676,28	1193,97
676,46	1273,84
676,65	1183,73
676,83	1290,22
677,02	1243,12
677,21	1277,93
677,39	1316,84
677,58	1310,70
677,77	1255,40
677,95	1257,45
678,14	1218,54
678,32	1257,45
678,51	1273,84
678,70	1279,98
678,88	1277,93
679,07	1273,84
679,25	1312,75
679,44	1320,94
679,63	1273,84
679,81	1306,60
680,00	1253,36
680,18	1277,93
680,37	1304,56
680,55	1298,41
680,74	1224,69
680,93	1263,60
681,11	1267,69
681,30	1290,22
681,48	1257,45
681,67	1198,06
681,85	1216,49
682,04	1292,27
682,23	1259,50
682,41	1284,08
682,60	1279,98
682,78	1241,07
682,97	1271,79
683,15	1263,60
683,34	1216,49
683,53	1265,64
683,71	1327,08
683,90	1261,55
684,08	1304,56
684,27	1308,65
684,45	1277,93
684,64	1290,22
684,82	1275,88
685,01	1294,32
685,19	1241,07
685,38	1257,45
685,57	1239,02
685,75	1325,04
685,94	1265,64
686,12	1284,08
686,31	1292,27
686,49	1318,89
686,68	1232,88
686,86	1239,02
687,05	1312,75
687,23	1277,93
687,42	1269,74
687,60	1302,51
687,79	1216,49
687,97	1218,54
688,16	1282,03
688,34	1263,60
688,53	1271,79
688,71	1257,45
688,90	1298,41
689,08	1292,27
689,27	1257,45
689,45	1322,99
689,64	1259,50
689,82	1206,25
690,01	1318,89
690,19	1277,93
690,38	1349,61
690,56	1306,60
690,75	1286,12
690,93	1333,23
691,12	1259,50
691,30	1269,74
691,49	1226,73
691,67	1290,22
691,86	1236,97
692,04	1292,27
692,23	1245,16
692,41	1298,41
692,60	1261,55
692,78	1267,69
692,97	1239,02
693,15	1275,88
693,34	1269,74
693,52	1286,12
693,71	1222,64
693,89	1261,55
694,08	1296,36
694,26	1314,80
694,44	1230,83
694,63	1288,17
694,81	1304,56
695,00	1273,84
695,18	1245,16
695,37	1302,51
695,55	1253,36
695,74	1304,56
695,92	1296,36
696,10	1245,16
696,29	1271,79
696,47	1372,14
696,66	1253,36
696,84	1210,35
697,03	1269,74
697,21	1236,97
697,40	1363,95
697,58	1273,84
697,76	1267,69
697,95	1277,93
698,13	1220,59
698,32	1273,84
698,50	1290,22
698,68	1277,93
698,87	1189,87
699,05	1230,83
699,24	1243,12
699,42	1265,64
699,61	1273,84
699,79	1261,55
699,97	1241,07
700,16	1273,84
700,34	1245,16
700,53	1214,45
700,71	1296,36
700,89	1286,12
701,08	1277,93
701,26	1257,45
701,45	1304,56
701,63	1355,76
701,81	1290,22
702,00	1275,88
702,18	1269,74
702,37	1226,73
702,55	1271,79
702,73	1357,80
702,92	1273,84
703,10	1222,64
703,28	1216,49
703,47	1292,27
703,65	1363,95
703,84	1316,84
704,02	1298,41
704,20	1335,28
704,39	1263,60
704,57	1255,40
704,75	1288,17
704,94	1275,88
705,12	1320,94
705,30	1318,89
705,49	1296,36
705,67	1341,42
705,86	1271,79
706,04	1275,88
706,22	1243,12
706,41	1282,03
706,59	1294,32
706,77	1306,60
706,96	1243,12
707,14	1277,93
707,32	1322,99
707,51	1341,42
707,69	1251,31
707,87	1232,88
708,06	1243,12
708,24	1329,13
708,42	1325,04
708,61	1318,89
708,79	1249,26
708,97	1261,55
709,16	1286,12
709,34	1265,64
709,52	1284,08
709,71	1263,60
709,89	1269,74
710,07	1296,36
710,26	1261,55
710,44	1318,89
710,62	1234,93
710,80	1251,31
710,99	1273,84
711,17	1255,40
711,35	1261,55
711,54	1243,12
711,72	1259,50
711,90	1269,74
712,09	1286,12
712,27	1239,02
712,45	1316,84
712,63	1290,22
712,82	1284,08
713,00	1306,60
713,18	1318,89
713,37	1290,22
713,55	1191,92
713,73	1232,88
713,91	1296,36
714,10	1331,18
714,28	1298,41
714,46	1286,12
714,65	1243,12
714,83	1282,03
715,01	1230,83
715,19	1292,27
715,38	1312,75
715,56	1243,12
715,74	1236,97
715,92	1306,60
716,11	1263,60
716,29	1236,97
716,47	1341,42
716,65	1230,83
716,84	1234,93
717,02	1304,56
717,20	1279,98
717,38	1302,51
717,57	1200,11
717,75	1363,95
717,93	1267,69
718,11	1279,98
718,30	1243,12
718,48	1310,70
718,66	1265,64
718,84	1296,36
719,03	1267,69
719,21	1269,74
719,39	1279,98
719,57	1269,74
719,75	1263,60
719,94	1232,88
720,12	1286,12
720,30	1288,17
720,48	1331,18
720,67	1329,13
720,85	1290,22
721,03	1316,84
721,21	1308,65
721,39	1314,80
721,58	1257,45
721,76	1302,51
721,94	1273,84
722,12	1335,28
722,30	1228,78
722,49	1304,56
722,67	1286,12
722,85	1290,22
723,03	1255,40
723,21	1314,80
723,40	1218,54
723,58	1300,46
723,76	1349,61
723,94	1314,80
724,12	1294,32
724,30	1331,18
724,49	1316,84
724,67	1275,88
724,85	1286,12
725,03	1228,78
725,21	1275,88
725,40	1279,98
725,58	1284,08
725,76	1273,84
725,94	1337,32
726,12	1273,84
726,30	1288,17
726,49	1204,21
726,67	1257,45
726,85	1277,93
727,03	1234,93
727,21	1275,88
727,39	1337,32
727,57	1282,03
727,76	1304,56
727,94	1345,52
728,12	1216,49
728,30	1284,08
728,48	1353,71
728,66	1308,65
728,84	1288,17
729,03	1290,22
729,21	1277,93
729,39	1308,65
729,57	1335,28
729,75	1208,30
729,93	1306,60
730,11	1191,92
730,30	1312,75
730,48	1261,55
730,66	1286,12
730,84	1245,16
731,02	1165,29
731,20	1275,88
731,38	1218,54
731,56	1236,97
731,74	1218,54
731,93	1279,98
732,11	1265,64
732,29	1320,94
732,47	1208,30
732,65	1222,64
732,83	1294,32
733,01	1298,41
733,19	1265,64
733,37	1277,93
733,56	1322,99
733,74	1298,41
733,92	1230,83
734,10	1290,22
734,28	1341,42
734,46	1269,74
734,64	1249,26
734,82	1271,79
735,00	1196,01
735,18	1306,60
735,36	1263,60
735,54	1249,26
735,73	1282,03
735,91	1312,75
736,09	1232,88
736,27	1271,79
736,45	1341,42
736,63	1277,93
736,81	1325,04
736,99	1304,56
737,17	1261,55
737,35	1247,21
737,53	1251,31
737,71	1257,45
737,89	1273,84
738,07	1302,51
738,25	1245,16
738,43	1271,79
738,61	1236,97
738,80	1339,37
738,98	1255,40
739,16	1249,26
739,34	1222,64
739,52	1230,83
739,70	1239,02
739,88	1296,36
740,06	1296,36
740,24	1306,60
740,42	1173,49
740,60	1247,21
740,78	1320,94
740,96	1249,26
741,14	1257,45
741,32	1253,36
741,50	1232,88
741,68	1259,50
741,86	1261,55
742,04	1271,79
742,22	1222,64
742,40	1239,02
742,58	1245,16
742,76	1243,12
742,94	1198,06
743,12	1325,04
743,30	1239,02
743,48	1251,31
743,66	1310,70
743,84	1296,36
744,02	1261,55
744,20	1343,47
744,38	1261,55
744,56	1245,16
744,74	1345,52
744,92	1347,56
745,10	1322,99
745,28	1279,98
745,46	1222,64
745,64	1230,83
745,82	1302,51
746,00	1249,26
746,18	1245,16
746,36	1320,94
746,54	1212,40
746,72	1241,07
746,90	1288,17
747,08	1241,07
747,26	1308,65
747,44	1277,93
747,62	1290,22
747,80	1290,22
747,98	1267,69
748,15	1312,75
748,33	1239,02
748,51	1255,40
748,69	1253,36
748,87	1220,59
749,05	1357,80
749,23	1226,73
749,41	1204,21
749,59	1198,06
749,77	1298,41
749,95	1224,69
750,13	1249,26
750,31	1294,32
750,49	1255,40
750,67	1222,64
750,85	1320,94
751,03	1263,60
751,20	1322,99
751,38	1269,74
751,56	1306,60
751,74	1269,74
751,92	1271,79
752,10	1292,27
752,28	1271,79
752,46	1249,26
752,64	1284,08
752,82	1310,70
753,00	1216,49
753,18	1279,98
753,35	1216,49
753,53	1253,36
753,71	1265,64
753,89	1292,27
754,07	1259,50
754,25	1306,60
754,43	1249,26
754,61	1261,55
754,79	1271,79
754,97	1265,64
755,14	1306,60
755,32	1339,37
755,50	1355,76
755,68	1255,40
755,86	1220,59
756,04	1349,61
756,22	1245,16
756,40	1286,12
756,57	1310,70
756,75	1292,27
756,93	1251,31
757,11	1222,64
757,29	1263,60
757,47	1243,12
757,65	1228,78
757,82	1296,36
758,00	1288,17
758,18	1243,12
758,36	1230,83
758,54	1306,60
758,72	1279,98
758,90	1267,69
759,07	1255,40
759,25	1279,98
759,43	1239,02
759,61	1320,94
759,79	1302,51
759,97	1355,76
760,15	1363,95
760,32	1241,07
760,50	1275,88
760,68	1306,60
760,86	1249,26
761,04	1282,03
761,22	1284,08
761,39	1247,21
761,57	1290,22
761,75	1265,64
761,93	1245,16
762,11	1265,64
762,28	1300,46
762,46	1206,25
762,64	1402,86
762,82	1267,69
763,00	1249,26
763,18	1337,32
763,35	1320,94
763,53	1384,43
763,71	1249,26
763,89	1320,94
764,07	1284,08
764,24	1241,07
764,42	1355,76
764,60	1251,31
764,78	1249,26
764,96	1331,18
765,13	1228,78
765,31	1337,32
765,49	1179,63
765,67	1279,98
765,84	1255,40
766,02	1202,16
766,20	1224,69
766,38	1271,79
766,56	1226,73
766,73	1267,69
766,91	1271,79
767,09	1341,42
767,27	1212,40
767,44	1245,16
767,62	1253,36
767,80	1300,46
767,98	1255,40
768,15	1200,11
768,33	1306,60
768,51	1282,03
768,69	1214,45
768,87	1300,46
769,04	1325,04
769,22	1232,88
769,40	1261,55
769,58	1286,12
769,75	1277,93
769,93	1284,08
770,11	1263,60
770,28	1214,45
770,46	1366,00
770,64	1288,17
770,82	1245,16
770,99	1277,93
771,17	1290,22
771,35	1273,84
771,53	1228,78
771,70	1212,40
771,88	1298,41
772,06	1288,17
772,23	1290,22
772,41	1265,64
772,59	1226,73
772,77	1298,41
772,94	1275,88
773,12	1267,69
773,30	1255,40
773,47	1261,55
773,65	1288,17
773,83	1288,17
774,01	1325,04
774,18	1218,54
774,36	1255,40
774,54	1304,56
774,71	1267,69
774,89	1310,70
775,07	1249,26
775,24	1271,79
775,42	1275,88
775,60	1282,03
775,78	1368,04
775,95	1249,26
776,13	1265,64
776,31	1255,40
776,48	1271,79
776,66	1277,93
776,84	1286,12
777,01	1249,26
777,19	1212,40
777,37	1249,26
777,54	1228,78
777,72	1284,08
777,90	1339,37
778,07	1310,70
778,25	1282,03
778,43	1288,17
778,60	1316,84
778,78	1228,78
778,96	1298,41
779,13	1220,59
779,31	1282,03
779,49	1212,40
779,66	1292,27
779,84	1245,16
780,01	1302,51
780,19	1212,40
780,37	1214,45
780,54	1308,65
780,72	1269,74
780,90	1271,79
781,07	1312,75
781,25	1286,12
781,43	1261,55
781,60	1296,36
781,78	1245,16
781,95	1261,55
782,13	1243,12
782,31	1288,17
782,48	1263,60
782,66	1249,26
782,83	1302,51
783,01	1265,64
783,19	1200,11
783,36	1222,64
783,54	1282,03
783,72	1290,22
783,89	1196,01
784,07	1286,12
784,24	1247,21
784,42	1179,63
784,60	1265,64
784,77	1288,17
784,95	1288,17
785,12	1255,40
785,30	1271,79
785,47	1298,41
785,65	1288,17
785,83	1322,99
786,00	1249,26
786,18	1322,99
786,35	1259,50
786,53	1218,54
786,71	1257,45
786,88	1257,45
787,06	1298,41
787,23	1279,98
787,41	1290,22
787,58	1271,79
787,76	1273,84
787,94	1204,21
788,11	1177,58
788,29	1267,69
788,46	1306,60
788,64	1265,64
788,81	1175,53
788,99	1259,50
789,16	1206,25
789,34	1220,59
789,52	1253,36
789,69	1368,04
789,87	1282,03
790,04	1277,93
790,22	1292,27
790,39	1298,41
790,57	1218,54
790,74	1241,07
790,92	1218,54
791,09	1302,51
791,27	1320,94
791,44	1271,79
791,62	1241,07
791,79	1271,79
791,97	1279,98
792,15	1263,60
792,32	1269,74
792,50	1234,93
792,67	1284,08
792,85	1331,18
793,02	1247,21
793,20	1284,08
793,37	1196,01
793,55	1271,79
793,72	1255,40
793,90	1261,55
794,07	1245,16
794,25	1306,60
794,42	1239,02
794,60	1361,90
794,77	1263,60
794,95	1251,31
795,12	1302,51
795,30	1282,03
795,47	1290,22
795,65	1265,64
795,82	1304,56
796,00	1247,21
796,17	1245,16
796,34	1239,02
796,52	1331,18
796,69	1288,17
796,87	1304,56
797,04	1253,36
797,22	1265,64
797,39	1222,64
797,57	1263,60
797,74	1241,07
797,92	1202,16
798,09	1269,74
798,27	1253,36
798,44	1243,12
798,62	1271,79
798,79	1249,26
798,96	1261,55
799,14	1236,97
799,31	1320,94
799,49	1271,79
799,66	1333,23
799,84	1286,12
800,01	1189,87
800,19	1259,50
800,36	1245,16
800,53	1241,07
800,71	1353,71
800,88	1253,36
801,06	1226,73
801,23	1259,50
801,41	1318,89
801,58	1241,07
801,75	1288,17
801,93	1253,36
802,10	1333,23
802,28	1251,31
802,45	1310,70
802,63	1265,64
802,80	1282,03
802,97	1275,88
803,15	1292,27
803,32	1277,93
803,50	1232,88
803,67	1251,31
803,84	1273,84
804,02	1226,73
804,19	1279,98
804,37	1263,60
804,54	1243,12
804,71	1269,74
804,89	1249,26
805,06	1314,80
805,24	1314,80
805,41	1282,03
805,58	1263,60
805,76	1275,88
805,93	1249,26
806,10	1290,22
806,28	1296,36
806,45	1261,55
806,63	1257,45
806,80	1228,78
806,97	1284,08
807,15	1322,99
807,32	1269,74
807,49	1187,82
807,67	1239,02
807,84	1355,76
808,01	1314,80
808,19	1189,87
808,36	1306,60
808,54	1314,80
808,71	1282,03
808,88	1198,06
809,06	1318,89
809,23	1263,60
809,40	1284,08
809,58	1339,37
809,75	1275,88
809,92	1261,55
810,10	1273,84
810,27	1249,26
810,44	1251,31
810,62	1271,79
810,79	1265,64
810,96	1218,54
811,14	1255,40
811,31	1265,64
811,48	1226,73
811,66	1228,78
811,83	1349,61
812,00	1284,08
812,18	1247,21
812,35	1232,88
812,52	1243,12
812,69	1273,84
812,87	1282,03
813,04	1273,84
813,21	1245,16
813,39	1261,55
813,56	1318,89
813,73	1310,70
813,91	1290,22
814,08	1198,06
814,25	1312,75
814,42	1290,22
814,60	1212,40
814,77	1226,73
814,94	1275,88
815,12	1269,74
815,29	1318,89
815,46	1265,64
815,63	1232,88
815,81	1290,22
815,98	1282,03
816,15	1282,03
816,33	1275,88
816,50	1322,99
816,67	1196,01
816,84	1314,80
817,02	1255,40
817,19	1249,26
817,36	1312,75
817,53	1284,08
817,71	1210,35
817,88	1302,51
818,05	1214,45
818,22	1329,13
818,40	1286,12
818,57	1247,21
818,74	1271,79
818,91	1277,93
819,09	1316,84
819,26	1251,31
819,43	1224,69
819,60	1343,47
819,78	1320,94
819,95	1312,75
820,12	1255,40
820,29	1294,32
820,47	1204,21
820,64	1312,75
820,81	1261,55
820,98	1277,93
821,15	1314,80
821,33	1286,12
821,50	1216,49
821,67	1239,02
821,84	1253,36
822,02	1312,75
822,19	1236,97
822,36	1261,55
822,53	1316,84
822,70	1296,36
822,88	1236,97
823,05	1216,49
823,22	1243,12
823,39	1345,52
823,56	1247,21
823,74	1298,41
823,91	1245,16
824,08	1216,49
824,25	1314,80
824,42	1306,60
824,60	1300,46
824,77	1255,40
824,94	1304,56
825,11	1333,23
825,28	1292,27
825,45	1275,88
825,63	1290,22
825,80	1310,70
825,97	1253,36
826,14	1257,45
826,31	1181,68
826,48	1282,03
826,66	1312,75
826,83	1314,80
827,00	1261,55
827,17	1304,56
827,34	1249,26
827,51	1265,64
827,69	1277,93
827,86	1173,49
828,03	1329,13
828,20	1236,97
828,37	1247,21
828,54	1222,64
828,71	1247,21
828,89	1247,21
829,06	1234,93
829,23	1269,74
829,40	1228,78
829,57	1265,64
829,74	1251,31
829,91	1230,83
830,09	1314,80
830,26	1304,56
830,43	1277,93
830,60	1200,11
830,77	1236,97
830,94	1320,94
831,11	1224,69
831,28	1267,69
831,46	1269,74
831,63	1286,12
831,80	1249,26
831,97	1296,36
832,14	1206,25
832,31	1259,50
832,48	1222,64
832,65	1189,87
832,82	1245,16
832,99	1208,30
833,17	1271,79
833,34	1325,04
833,51	1279,98
833,68	1204,21
833,85	1322,99
834,02	1210,35
834,19	1177,58
834,36	1312,75
834,53	1257,45
834,70	1216,49
834,87	1288,17
835,04	1261,55
835,22	1310,70
835,39	1322,99
835,56	1322,99
835,73	1249,26
835,90	1302,51
836,07	1198,06
836,24	1271,79
836,41	1263,60
836,58	1232,88
836,75	1304,56
836,92	1243,12
837,09	1255,40
837,26	1241,07
837,43	1249,26
837,60	1273,84
837,77	1193,97
837,94	1290,22
838,12	1214,45
838,29	1279,98
838,46	1253,36
838,63	1263,60
838,80	1298,41
838,97	1253,36
839,14	1216,49
839,31	1249,26
839,48	1273,84
839,65	1214,45
839,82	1322,99
839,99	1296,36
840,16	1298,41
840,33	1282,03
840,50	1269,74
840,67	1275,88
840,84	1329,13
841,01	1298,41
841,18	1304,56
841,35	1286,12
841,52	1261,55
841,69	1333,23
841,86	1243,12
842,03	1261,55
842,20	1304,56
842,37	1286,12
842,54	1290,22
842,71	1271,79
842,88	1284,08
843,05	1279,98
843,22	1263,60
843,39	1228,78
843,56	1288,17
843,73	1292,27
843,90	1257,45
844,07	1259,50
844,24	1294,32
844,41	1263,60
844,58	1337,32
844,75	1226,73
844,92	1208,30
845,09	1273,84
845,26	1292,27
845,43	1271,79
845,60	1253,36
845,77	1312,75
845,94	1273,84
846,10	1318,89
846,27	1208,30
846,44	1257,45
846,61	1277,93
846,78	1312,75
846,95	1265,64
847,12	1300,46
847,29	1269,74
847,46	1296,36
847,63	1257,45
847,80	1288,17
847,97	1304,56
848,14	1253,36
848,31	1183,73
848,48	1273,84
848,65	1290,22
848,82	1286,12
848,98	1337,32
849,15	1327,08
849,32	1343,47
849,49	1226,73
849,66	1181,68
849,83	1286,12
850,00	1236,97
850,17	1239,02
850,34	1224,69
850,51	1249,26
850,68	1230,83
850,85	1249,26
851,01	1241,07
851,18	1329,13
851,35	1224,69
851,52	1251,31
851,69	1302,51
851,86	1271,79
852,03	1214,45
852,20	1329,13
852,37	1320,94
852,53	1284,08
852,70	1273,84
852,87	1228,78
853,04	1284,08
853,21	1263,60
853,38	1300,46
853,55	1224,69
853,72	1253,36
853,89	1216,49
854,05	1329,13
854,22	1279,98
854,39	1255,40
854,56	1318,89
854,73	1288,17
854,90	1206,25
855,07	1216,49
855,23	1226,73
855,40	1282,03
855,57	1308,65
855,74	1304,56
855,91	1298,41
856,08	1263,60
856,25	1335,28
856,41	1239,02
856,58	1286,12
856,75	1249,26
856,92	1220,59
857,09	1216,49
857,26	1236,97
857,42	1247,21
857,59	1247,21
857,76	1279,98
857,93	1243,12
858,10	1265,64
858,27	1253,36
858,43	1277,93
858,60	1196,01
858,77	1288,17
858,94	1310,70
859,11	1259,50
859,27	1220,59
859,44	1234,93
859,61	1288,17
859,78	1241,07
859,95	1253,36
860,12	1206,25
860,28	1294,32
860,45	1335,28
860,62	1277,93
860,79	1269,74
860,95	1257,45
861,12	1300,46
861,29	1236,97
861,46	1265,64
861,63	1269,74
861,79	1308,65
861,96	1349,61
862,13	1247,21
862,30	1249,26
862,47	1255,40
862,63	1196,01
862,80	1327,08
862,97	1284,08
863,14	1230,83
863,30	1183,73
863,47	1335,28
863,64	1279,98
863,81	1265,64
863,97	1239,02
864,14	1259,50
864,31	1265,64
864,48	1218,54
864,65	1263,60
864,81	1255,40
864,98	1222,64
865,15	1202,16
865,32	1290,22
865,48	1263,60
865,65	1267,69
865,82	1200,11
865,98	1394,67
866,15	1255,40
866,32	1327,08
866,49	1218,54
866,65	1308,65
866,82	1353,71
866,99	1325,04
867,16	1368,04
867,32	1306,60
867,49	1279,98
867,66	1296,36
867,83	1277,93
867,99	1279,98
868,16	1255,40
868,33	1220,59
868,49	1259,50
868,66	1298,41
868,83	1294,32
868,99	1230,83
869,16	1300,46
869,33	1343,47
869,50	1308,65
869,66	1255,40
869,83	1300,46
870,00	1273,84
870,16	1306,60
870,33	1312,75
870,50	1300,46
870,66	1277,93
870,83	1263,60
871,00	1277,93
871,17	1228,78
871,33	1273,84
871,50	1247,21
871,67	1312,75
871,83	1263,60
872,00	1277,93
872,17	1269,74
872,33	1284,08
872,50	1282,03
872,67	1277,93
872,83	1247,21
873,00	1239,02
873,17	1224,69
873,33	1271,79
873,50	1257,45
873,67	1206,25
873,83	1257,45
874,00	1243,12
874,16	1255,40
874,33	1257,45
874,50	1288,17
874,66	1339,37
874,83	1282,03
875,00	1290,22
875,16	1267,69
875,33	1265,64
875,50	1308,65
875,66	1206,25
875,83	1277,93
875,99	1263,60
876,16	1216,49
876,33	1288,17
876,49	1277,93
876,66	1304,56
876,83	1277,93
876,99	1335,28
877,16	1341,42
877,32	1273,84
877,49	1314,80
877,66	1345,52
877,82	1263,60
877,99	1259,50
878,15	1259,50
878,32	1361,90
878,49	1202,16
878,65	1228,78
878,82	1271,79
878,98	1320,94
879,15	1255,40
879,32	1241,07
879,48	1234,93
879,65	1277,93
879,81	1306,60
879,98	1275,88
880,15	1265,64
880,31	1279,98
880,48	1267,69
880,64	1310,70
880,81	1243,12
880,97	1257,45
881,14	1249,26
881,31	1304,56
881,47	1214,45
881,64	1290,22
881,80	1216,49
881,97	1241,07
882,13	1200,11
882,30	1236,97
882,47	1271,79
882,63	1296,36
882,80	1277,93
882,96	1255,40
883,13	1251,31
883,29	1296,36
883,46	1265,64
883,62	1277,93
883,79	1320,94
883,95	1257,45
884,12	1312,75
884,29	1298,41
884,45	1253,36
884,62	1288,17
884,78	1245,16
884,95	1259,50
885,11	1257,45
885,28	1333,23
885,44	1189,87
885,61	1267,69
885,77	1255,40
885,94	1218,54
886,10	1265,64
886,27	1269,74
886,43	1312,75
886,60	1273,84
886,76	1294,32
886,93	1212,40
887,09	1222,64
887,26	1234,93
887,42	1253,36
887,59	1296,36
887,75	1269,74
887,92	1253,36
888,08	1292,27
888,25	1318,89
888,41	1284,08
888,58	1339,37
888,74	1284,08
888,91	1267,69
>>>>>End Processed Spectral Data<<<<<
