SpectraSuite Data File
++++++++++++++++++++++++++++++++++++
Date: Sun Apr 03 14:11:04 CEST 2016
User: root
Dark Spectrum Present: No
Reference Spectrum Present: No
Number of Sampled Component Spectra: 1
Spectrometers: USB4C02835
Integration Time (usec): 10000 (USB4C02835)
Spectra Averaged: 1 (USB4C02835)
Boxcar Smoothing: 0 (USB4C02835)
Correct for Electrical Dark: No (USB4C02835)
Strobe/Lamp Enabled: No (USB4C02835)
Correct for Detector Non-linearity: No (USB4C02835)
Correct for Stray Light: No (USB4C02835)
Number of Pixels in Processed Spectrum: 3648
>>>>>Begin Processed Spectral Data<<<<<
177,47	1253,36
177,69	1253,36
177,91	1253,36
178,13	1257,45
178,36	1247,21
178,58	1210,35
178,80	1277,93
179,02	1290,22
179,24	1241,07
179,46	1247,21
179,68	1232,88
179,90	1298,41
180,13	1298,41
180,35	1208,30
180,57	1247,21
180,79	1265,64
181,01	1310,70
181,23	1243,12
181,45	1263,60
181,67	1222,64
181,90	1331,18
182,12	1277,93
182,34	1284,08
182,56	1320,94
182,78	1296,36
183,00	1253,36
183,22	1232,88
183,44	1333,23
183,66	1271,79
183,89	1265,64
184,11	1224,69
184,33	1253,36
184,55	1320,94
184,77	1282,03
184,99	1331,18
185,21	1347,56
185,43	1245,16
185,65	1257,45
185,87	1279,98
186,10	1290,22
186,32	1249,26
186,54	1275,88
186,76	1261,55
186,98	1232,88
187,20	1300,46
187,42	1228,78
187,64	1265,64
187,86	1163,25
188,08	1232,88
188,30	1204,21
188,52	1290,22
188,75	1327,08
188,97	1318,89
189,19	1253,36
189,41	1247,21
189,63	1261,55
189,85	1275,88
190,07	1226,73
190,29	1306,60
190,51	1232,88
190,73	1247,21
190,95	1249,26
191,17	1245,16
191,39	1210,35
191,61	1318,89
191,84	1310,70
192,06	1212,40
192,28	1257,45
192,50	1239,02
192,72	1308,65
192,94	1259,50
193,16	1312,75
193,38	1232,88
193,60	1253,36
193,82	1236,97
194,04	1269,74
194,26	1251,31
194,48	1247,21
194,70	1312,75
194,92	1275,88
195,14	1247,21
195,36	1243,12
195,58	1271,79
195,80	1302,51
196,02	1273,84
196,24	1296,36
196,46	1286,12
196,69	1259,50
196,91	1355,76
197,13	1212,40
197,35	1259,50
197,57	1304,56
197,79	1347,56
198,01	1247,21
198,23	1331,18
198,45	1251,31
198,67	1284,08
198,89	1329,13
199,11	1243,12
199,33	1243,12
199,55	1239,02
199,77	1318,89
199,99	1327,08
200,21	1257,45
200,43	1331,18
200,65	1247,21
200,87	1177,58
201,09	1331,18
201,31	1259,50
201,53	1316,84
201,75	1298,41
201,97	1253,36
202,19	1302,51
202,41	1249,26
202,63	1247,21
202,85	1335,28
203,07	1239,02
203,29	1253,36
203,51	1329,13
203,73	1241,07
203,95	1304,56
204,17	1273,84
204,39	1337,32
204,61	1253,36
204,83	1228,78
205,05	1218,54
205,27	1308,65
205,49	1292,27
205,71	1263,60
205,93	1198,06
206,15	1279,98
206,37	1228,78
206,59	1320,94
206,81	1271,79
207,03	1214,45
207,25	1347,56
207,47	1322,99
207,69	1241,07
207,91	1214,45
208,13	1251,31
208,34	1228,78
208,56	1224,69
208,78	1277,93
209,00	1275,88
209,22	1257,45
209,44	1296,36
209,66	1228,78
209,88	1259,50
210,10	1347,56
210,32	1255,40
210,54	1351,66
210,76	1275,88
210,98	1263,60
211,20	1247,21
211,42	1296,36
211,64	1259,50
211,86	1263,60
212,08	1314,80
212,30	1253,36
212,52	1259,50
212,74	1267,69
212,96	1298,41
213,17	1273,84
213,39	1347,56
213,61	1234,93
213,83	1296,36
214,05	1275,88
214,27	1222,64
214,49	1275,88
214,71	1267,69
214,93	1292,27
215,15	1261,55
215,37	1265,64
215,59	1275,88
215,81	1222,64
216,03	1337,32
216,24	1329,13
216,46	1245,16
216,68	1232,88
216,90	1339,37
217,12	1230,83
217,34	1294,32
217,56	1312,75
217,78	1327,08
218,00	1282,03
218,22	1296,36
218,44	1298,41
218,66	1265,64
218,87	1318,89
219,09	1224,69
219,31	1263,60
219,53	1255,40
219,75	1245,16
219,97	1275,88
220,19	1294,32
220,41	1306,60
220,63	1376,24
220,85	1251,31
221,06	1304,56
221,28	1308,65
221,50	1241,07
221,72	1234,93
221,94	1288,17
222,16	1294,32
222,38	1337,32
222,60	1247,21
222,82	1208,30
223,03	1224,69
223,25	1290,22
223,47	1288,17
223,69	1269,74
223,91	1208,30
224,13	1279,98
224,35	1298,41
224,57	1253,36
224,78	1298,41
225,00	1224,69
225,22	1208,30
225,44	1277,93
225,66	1288,17
225,88	1273,84
226,10	1253,36
226,32	1327,08
226,53	1304,56
226,75	1322,99
226,97	1271,79
227,19	1366,00
227,41	1273,84
227,63	1308,65
227,85	1251,31
228,06	1302,51
228,28	1343,47
228,50	1286,12
228,72	1286,12
228,94	1204,21
229,16	1275,88
229,37	1255,40
229,59	1265,64
229,81	1232,88
230,03	1255,40
230,25	1363,95
230,47	1273,84
230,69	1279,98
230,90	1286,12
231,12	1247,21
231,34	1306,60
231,56	1302,51
231,78	1243,12
232,00	1249,26
232,21	1232,88
232,43	1294,32
232,65	1284,08
232,87	1251,31
233,09	1294,32
233,30	1337,32
233,52	1296,36
233,74	1284,08
233,96	1241,07
234,18	1310,70
234,40	1288,17
234,61	1306,60
234,83	1196,01
235,05	1212,40
235,27	1308,65
235,49	1257,45
235,70	1243,12
235,92	1298,41
236,14	1298,41
236,36	1310,70
236,58	1341,42
236,79	1279,98
237,01	1204,21
237,23	1314,80
237,45	1322,99
237,67	1271,79
237,88	1259,50
238,10	1257,45
238,32	1267,69
238,54	1304,56
238,76	1339,37
238,97	1243,12
239,19	1222,64
239,41	1251,31
239,63	1286,12
239,85	1253,36
240,06	1269,74
240,28	1267,69
240,50	1224,69
240,72	1259,50
240,93	1245,16
241,15	1335,28
241,37	1296,36
241,59	1255,40
241,81	1308,65
242,02	1204,21
242,24	1218,54
242,46	1236,97
242,68	1187,82
242,89	1275,88
243,11	1310,70
243,33	1310,70
243,55	1275,88
243,76	1232,88
243,98	1224,69
244,20	1222,64
244,42	1271,79
244,64	1284,08
244,85	1273,84
245,07	1290,22
245,29	1265,64
245,51	1282,03
245,72	1331,18
245,94	1271,79
246,16	1275,88
246,38	1312,75
246,59	1253,36
246,81	1312,75
247,03	1263,60
247,24	1241,07
247,46	1216,49
247,68	1261,55
247,90	1261,55
248,11	1286,12
248,33	1341,42
248,55	1308,65
248,77	1273,84
248,98	1273,84
249,20	1269,74
249,42	1230,83
249,64	1261,55
249,85	1331,18
250,07	1261,55
250,29	1249,26
250,50	1257,45
250,72	1290,22
250,94	1265,64
251,16	1251,31
251,37	1304,56
251,59	1247,21
251,81	1329,13
252,02	1269,74
252,24	1230,83
252,46	1312,75
252,68	1210,35
252,89	1382,38
253,11	1247,21
253,33	1206,25
253,54	1298,41
253,76	1339,37
253,98	1271,79
254,20	1200,11
254,41	1216,49
254,63	1298,41
254,85	1232,88
255,06	1249,26
255,28	1353,71
255,50	1222,64
255,71	1202,16
255,93	1230,83
256,15	1257,45
256,36	1232,88
256,58	1345,52
256,80	1290,22
257,02	1222,64
257,23	1296,36
257,45	1191,92
257,67	1261,55
257,88	1345,52
258,10	1308,65
258,32	1261,55
258,53	1200,11
258,75	1288,17
258,97	1259,50
259,18	1286,12
259,40	1193,97
259,62	1263,60
259,83	1247,21
260,05	1251,31
260,27	1290,22
260,48	1267,69
260,70	1296,36
260,92	1193,97
261,13	1275,88
261,35	1228,78
261,57	1261,55
261,78	1259,50
262,00	1284,08
262,22	1282,03
262,43	1363,95
262,65	1290,22
262,86	1282,03
263,08	1337,32
263,30	1331,18
263,51	1204,21
263,73	1320,94
263,95	1273,84
264,16	1312,75
264,38	1251,31
264,60	1193,97
264,81	1298,41
265,03	1361,90
265,25	1271,79
265,46	1286,12
265,68	1279,98
265,89	1263,60
266,11	1300,46
266,33	1255,40
266,54	1308,65
266,76	1279,98
266,98	1294,32
267,19	1302,51
267,41	1333,23
267,62	1247,21
267,84	1243,12
268,06	1249,26
268,27	1228,78
268,49	1368,04
268,70	1306,60
268,92	1316,84
269,14	1212,40
269,35	1271,79
269,57	1275,88
269,79	1243,12
270,00	1269,74
270,22	1265,64
270,43	1296,36
270,65	1206,25
270,87	1333,23
271,08	1271,79
271,30	1228,78
271,51	1191,92
271,73	1300,46
271,95	1349,61
272,16	1294,32
272,38	1331,18
272,59	1316,84
272,81	1292,27
273,02	1277,93
273,24	1243,12
273,46	1261,55
273,67	1273,84
273,89	1322,99
274,10	1363,95
274,32	1353,71
274,54	1267,69
274,75	1228,78
274,97	1302,51
275,18	1277,93
275,40	1253,36
275,61	1265,64
275,83	1249,26
276,05	1335,28
276,26	1337,32
276,48	1269,74
276,69	1236,97
276,91	1236,97
277,12	1314,80
277,34	1275,88
277,55	1230,83
277,77	1222,64
277,99	1236,97
278,20	1222,64
278,42	1247,21
278,63	1236,97
278,85	1257,45
279,06	1230,83
279,28	1265,64
279,49	1286,12
279,71	1341,42
279,93	1282,03
280,14	1269,74
280,36	1271,79
280,57	1316,84
280,79	1294,32
281,00	1245,16
281,22	1271,79
281,43	1302,51
281,65	1253,36
281,86	1282,03
282,08	1329,13
282,29	1265,64
282,51	1355,76
282,73	1200,11
282,94	1255,40
283,16	1269,74
283,37	1212,40
283,59	1306,60
283,80	1198,06
284,02	1245,16
284,23	1284,08
284,45	1322,99
284,66	1302,51
284,88	1269,74
285,09	1312,75
285,31	1263,60
285,52	1218,54
285,74	1335,28
285,95	1296,36
286,17	1335,28
286,38	1290,22
286,60	1286,12
286,81	1302,51
287,03	1261,55
287,24	1224,69
287,46	1292,27
287,67	1210,35
287,89	1347,56
288,10	1249,26
288,32	1341,42
288,53	1286,12
288,75	1261,55
288,96	1292,27
289,18	1406,95
289,39	1208,30
289,61	1191,92
289,82	1292,27
290,04	1263,60
290,25	1318,89
290,47	1247,21
290,68	1325,04
290,90	1232,88
291,11	1241,07
291,33	1277,93
291,54	1306,60
291,76	1210,35
291,97	1261,55
292,18	1179,63
292,40	1239,02
292,61	1273,84
292,83	1259,50
293,04	1308,65
293,26	1236,97
293,47	1232,88
293,69	1279,98
293,90	1294,32
294,12	1290,22
294,33	1259,50
294,55	1282,03
294,76	1279,98
294,97	1218,54
295,19	1216,49
295,40	1306,60
295,62	1271,79
295,83	1290,22
296,05	1279,98
296,26	1316,84
296,48	1157,10
296,69	1279,98
296,90	1355,76
297,12	1265,64
297,33	1263,60
297,55	1329,13
297,76	1290,22
297,98	1245,16
298,19	1271,79
298,41	1224,69
298,62	1298,41
298,83	1271,79
299,05	1222,64
299,26	1230,83
299,48	1296,36
299,69	1269,74
299,90	1304,56
300,12	1304,56
300,33	1222,64
300,55	1208,30
300,76	1337,32
300,98	1275,88
301,19	1263,60
301,40	1245,16
301,62	1208,30
301,83	1257,45
302,05	1290,22
302,26	1308,65
302,47	1245,16
302,69	1318,89
302,90	1271,79
303,12	1239,02
303,33	1322,99
303,54	1198,06
303,76	1325,04
303,97	1263,60
304,19	1228,78
304,40	1300,46
304,61	1314,80
304,83	1298,41
305,04	1279,98
305,26	1327,08
305,47	1263,60
305,68	1312,75
305,90	1259,50
306,11	1196,01
306,33	1251,31
306,54	1302,51
306,75	1275,88
306,97	1232,88
307,18	1241,07
307,39	1320,94
307,61	1210,35
307,82	1212,40
308,04	1279,98
308,25	1241,07
308,46	1284,08
308,68	1282,03
308,89	1296,36
309,10	1325,04
309,32	1300,46
309,53	1277,93
309,74	1253,36
309,96	1322,99
310,17	1236,97
310,39	1308,65
310,60	1226,73
310,81	1312,75
311,03	1341,42
311,24	1236,97
311,45	1224,69
311,67	1259,50
311,88	1314,80
312,09	1251,31
312,31	1273,84
312,52	1286,12
312,73	1314,80
312,95	1243,12
313,16	1273,84
313,37	1355,76
313,59	1259,50
313,80	1277,93
314,01	1288,17
314,23	1306,60
314,44	1257,45
314,65	1249,26
314,87	1286,12
315,08	1294,32
315,29	1282,03
315,51	1267,69
315,72	1236,97
315,93	1277,93
316,15	1277,93
316,36	1232,88
316,57	1312,75
316,79	1255,40
317,00	1341,42
317,21	1284,08
317,43	1236,97
317,64	1251,31
317,85	1255,40
318,07	1232,88
318,28	1335,28
318,49	1292,27
318,70	1322,99
318,92	1210,35
319,13	1261,55
319,34	1269,74
319,56	1279,98
319,77	1304,56
319,98	1314,80
320,20	1310,70
320,41	1257,45
320,62	1245,16
320,83	1216,49
321,05	1279,98
321,26	1277,93
321,47	1300,46
321,69	1208,30
321,90	1279,98
322,11	1277,93
322,32	1212,40
322,54	1308,65
322,75	1308,65
322,96	1204,21
323,18	1245,16
323,39	1210,35
323,60	1245,16
323,81	1226,73
324,03	1234,93
324,24	1292,27
324,45	1296,36
324,66	1288,17
324,88	1292,27
325,09	1206,25
325,30	1265,64
325,52	1331,18
325,73	1261,55
325,94	1312,75
326,15	1265,64
326,37	1253,36
326,58	1253,36
326,79	1296,36
327,00	1333,23
327,22	1257,45
327,43	1312,75
327,64	1273,84
327,85	1316,84
328,07	1327,08
328,28	1312,75
328,49	1269,74
328,70	1277,93
328,92	1370,09
329,13	1257,45
329,34	1286,12
329,55	1322,99
329,76	1218,54
329,98	1226,73
330,19	1286,12
330,40	1243,12
330,61	1296,36
330,83	1290,22
331,04	1251,31
331,25	1273,84
331,46	1249,26
331,68	1179,63
331,89	1316,84
332,10	1282,03
332,31	1216,49
332,52	1325,04
332,74	1314,80
332,95	1275,88
333,16	1228,78
333,37	1327,08
333,58	1290,22
333,80	1185,77
334,01	1282,03
334,22	1230,83
334,43	1267,69
334,64	1220,59
334,86	1189,87
335,07	1275,88
335,28	1249,26
335,49	1302,51
335,70	1339,37
335,92	1286,12
336,13	1241,07
336,34	1312,75
336,55	1300,46
336,76	1302,51
336,98	1288,17
337,19	1343,47
337,40	1308,65
337,61	1298,41
337,82	1273,84
338,04	1273,84
338,25	1282,03
338,46	1351,66
338,67	1263,60
338,88	1322,99
339,09	1239,02
339,31	1286,12
339,52	1279,98
339,73	1189,87
339,94	1318,89
340,15	1253,36
340,36	1241,07
340,58	1232,88
340,79	1243,12
341,00	1275,88
341,21	1335,28
341,42	1273,84
341,63	1232,88
341,85	1306,60
342,06	1286,12
342,27	1212,40
342,48	1255,40
342,69	1267,69
342,90	1282,03
343,12	1290,22
343,33	1269,74
343,54	1261,55
343,75	1261,55
343,96	1308,65
344,17	1318,89
344,38	1245,16
344,60	1320,94
344,81	1204,21
345,02	1302,51
345,23	1304,56
345,44	1271,79
345,65	1292,27
345,86	1257,45
346,07	1257,45
346,29	1329,13
346,50	1249,26
346,71	1353,71
346,92	1245,16
347,13	1230,83
347,34	1300,46
347,55	1226,73
347,76	1265,64
347,98	1232,88
348,19	1249,26
348,40	1284,08
348,61	1239,02
348,82	1331,18
349,03	1214,45
349,24	1220,59
349,45	1243,12
349,66	1214,45
349,88	1234,93
350,09	1271,79
350,30	1239,02
350,51	1271,79
350,72	1314,80
350,93	1288,17
351,14	1265,64
351,35	1275,88
351,56	1249,26
351,77	1247,21
351,99	1290,22
352,20	1296,36
352,41	1322,99
352,62	1243,12
352,83	1298,41
353,04	1292,27
353,25	1232,88
353,46	1259,50
353,67	1380,33
353,88	1308,65
354,09	1294,32
354,30	1314,80
354,52	1290,22
354,73	1335,28
354,94	1316,84
355,15	1345,52
355,36	1300,46
355,57	1267,69
355,78	1253,36
355,99	1202,16
356,20	1329,13
356,41	1308,65
356,62	1253,36
356,83	1273,84
357,04	1241,07
357,25	1320,94
357,46	1269,74
357,68	1271,79
357,89	1212,40
358,10	1292,27
358,31	1245,16
358,52	1304,56
358,73	1261,55
358,94	1320,94
359,15	1296,36
359,36	1183,73
359,57	1288,17
359,78	1228,78
359,99	1230,83
360,20	1286,12
360,41	1269,74
360,62	1249,26
360,83	1257,45
361,04	1279,98
361,25	1253,36
361,46	1296,36
361,67	1275,88
361,88	1255,40
362,09	1300,46
362,30	1339,37
362,51	1308,65
362,72	1269,74
362,93	1218,54
363,14	1228,78
363,35	1236,97
363,56	1208,30
363,78	1288,17
363,99	1191,92
364,20	1239,02
364,41	1255,40
364,62	1234,93
364,83	1320,94
365,04	1241,07
365,25	1292,27
365,46	1279,98
365,67	1265,64
365,88	1298,41
366,09	1351,66
366,30	1245,16
366,51	1269,74
366,72	1243,12
366,93	1316,84
367,14	1253,36
367,35	1343,47
367,56	1226,73
367,77	1232,88
367,98	1275,88
368,18	1320,94
368,39	1236,97
368,60	1329,13
368,81	1294,32
369,02	1247,21
369,23	1279,98
369,44	1257,45
369,65	1273,84
369,86	1337,32
370,07	1263,60
370,28	1167,34
370,49	1251,31
370,70	1249,26
370,91	1247,21
371,12	1275,88
371,33	1273,84
371,54	1300,46
371,75	1347,56
371,96	1214,45
372,17	1271,79
372,38	1249,26
372,59	1306,60
372,80	1271,79
373,01	1327,08
373,22	1269,74
373,43	1302,51
373,64	1282,03
373,85	1191,92
374,06	1275,88
374,26	1206,25
374,47	1222,64
374,68	1279,98
374,89	1316,84
375,10	1218,54
375,31	1337,32
375,52	1294,32
375,73	1294,32
375,94	1263,60
376,15	1265,64
376,36	1249,26
376,57	1198,06
376,78	1277,93
376,99	1212,40
377,20	1273,84
377,40	1353,71
377,61	1253,36
377,82	1269,74
378,03	1284,08
378,24	1275,88
378,45	1290,22
378,66	1226,73
378,87	1320,94
379,08	1228,78
379,29	1284,08
379,50	1247,21
379,71	1284,08
379,91	1282,03
380,12	1255,40
380,33	1339,37
380,54	1255,40
380,75	1206,25
380,96	1306,60
381,17	1279,98
381,38	1273,84
381,59	1269,74
381,80	1226,73
382,00	1304,56
382,21	1279,98
382,42	1351,66
382,63	1261,55
382,84	1282,03
383,05	1230,83
383,26	1308,65
383,47	1218,54
383,68	1298,41
383,88	1157,10
384,09	1284,08
384,30	1271,79
384,51	1316,84
384,72	1249,26
384,93	1275,88
385,14	1273,84
385,35	1269,74
385,55	1255,40
385,76	1202,16
385,97	1304,56
386,18	1216,49
386,39	1359,85
386,60	1329,13
386,81	1333,23
387,02	1228,78
387,22	1277,93
387,43	1282,03
387,64	1271,79
387,85	1292,27
388,06	1253,36
388,27	1241,07
388,48	1288,17
388,68	1290,22
388,89	1279,98
389,10	1284,08
389,31	1312,75
389,52	1306,60
389,73	1212,40
389,93	1279,98
390,14	1310,70
390,35	1288,17
390,56	1241,07
390,77	1255,40
390,98	1298,41
391,18	1241,07
391,39	1286,12
391,60	1255,40
391,81	1253,36
392,02	1265,64
392,23	1228,78
392,43	1275,88
392,64	1302,51
392,85	1239,02
393,06	1239,02
393,27	1290,22
393,47	1245,16
393,68	1196,01
393,89	1239,02
394,10	1239,02
394,31	1294,32
394,52	1259,50
394,72	1257,45
394,93	1273,84
395,14	1230,83
395,35	1277,93
395,56	1288,17
395,76	1206,25
395,97	1271,79
396,18	1304,56
396,39	1253,36
396,60	1292,27
396,80	1228,78
397,01	1243,12
397,22	1372,14
397,43	1267,69
397,64	1318,89
397,84	1282,03
398,05	1265,64
398,26	1263,60
398,47	1241,07
398,67	1308,65
398,88	1279,98
399,09	1239,02
399,30	1251,31
399,51	1265,64
399,71	1208,30
399,92	1253,36
400,13	1251,31
400,34	1306,60
400,54	1265,64
400,75	1286,12
400,96	1302,51
401,17	1351,66
401,37	1251,31
401,58	1200,11
401,79	1329,13
402,00	1185,77
402,21	1320,94
402,41	1234,93
402,62	1288,17
402,83	1275,88
403,04	1212,40
403,24	1226,73
403,45	1249,26
403,66	1302,51
403,87	1273,84
404,07	1257,45
404,28	1267,69
404,49	1279,98
404,70	1279,98
404,90	1230,83
405,11	1230,83
405,32	1204,21
405,52	1267,69
405,73	1193,97
405,94	1279,98
406,15	1239,02
406,35	1292,27
406,56	1310,70
406,77	1337,32
406,98	1349,61
407,18	1335,28
407,39	1228,78
407,60	1306,60
407,80	1239,02
408,01	1265,64
408,22	1239,02
408,43	1273,84
408,63	1204,21
408,84	1251,31
409,05	1247,21
409,25	1212,40
409,46	1267,69
409,67	1288,17
409,88	1271,79
410,08	1257,45
410,29	1290,22
410,50	1325,04
410,70	1273,84
410,91	1277,93
411,12	1304,56
411,32	1343,47
411,53	1273,84
411,74	1322,99
411,95	1282,03
412,15	1230,83
412,36	1216,49
412,57	1335,28
412,77	1243,12
412,98	1273,84
413,19	1275,88
413,39	1273,84
413,60	1286,12
413,81	1267,69
414,01	1282,03
414,22	1249,26
414,43	1243,12
414,63	1267,69
414,84	1282,03
415,05	1374,19
415,25	1282,03
415,46	1279,98
415,67	1247,21
415,87	1302,51
416,08	1277,93
416,29	1331,18
416,49	1234,93
416,70	1265,64
416,91	1214,45
417,11	1265,64
417,32	1329,13
417,53	1312,75
417,73	1263,60
417,94	1259,50
418,15	1284,08
418,35	1314,80
418,56	1284,08
418,77	1177,58
418,97	1296,36
419,18	1335,28
419,38	1261,55
419,59	1290,22
419,80	1306,60
420,00	1267,69
420,21	1271,79
420,42	1236,97
420,62	1271,79
420,83	1220,59
421,04	1337,32
421,24	1232,88
421,45	1253,36
421,65	1257,45
421,86	1177,58
422,07	1322,99
422,27	1316,84
422,48	1187,82
422,69	1298,41
422,89	1230,83
423,10	1198,06
423,30	1220,59
423,51	1286,12
423,72	1282,03
423,92	1292,27
424,13	1294,32
424,33	1269,74
424,54	1304,56
424,75	1234,93
424,95	1290,22
425,16	1243,12
425,36	1218,54
425,57	1265,64
425,78	1259,50
425,98	1271,79
426,19	1308,65
426,39	1314,80
426,60	1241,07
426,81	1204,21
427,01	1277,93
427,22	1284,08
427,42	1296,36
427,63	1292,27
427,83	1271,79
428,04	1314,80
428,25	1206,25
428,45	1273,84
428,66	1292,27
428,86	1249,26
429,07	1286,12
429,28	1347,56
429,48	1302,51
429,69	1277,93
429,89	1298,41
430,10	1208,30
430,30	1275,88
430,51	1222,64
430,71	1249,26
430,92	1214,45
431,13	1271,79
431,33	1282,03
431,54	1279,98
431,74	1282,03
431,95	1345,52
432,15	1239,02
432,36	1271,79
432,56	1273,84
432,77	1253,36
432,98	1304,56
433,18	1298,41
433,39	1232,88
433,59	1277,93
433,80	1273,84
434,00	1245,16
434,21	1271,79
434,41	1255,40
434,62	1253,36
434,82	1228,78
435,03	1265,64
435,23	1255,40
435,44	1265,64
435,64	1234,93
435,85	1261,55
436,06	1218,54
436,26	1320,94
436,47	1251,31
436,67	1234,93
436,88	1302,51
437,08	1249,26
437,29	1337,32
437,49	1286,12
437,70	1353,71
437,90	1236,97
438,11	1275,88
438,31	1327,08
438,52	1253,36
438,72	1335,28
438,93	1234,93
439,13	1282,03
439,34	1265,64
439,54	1286,12
439,75	1261,55
439,95	1208,30
440,16	1279,98
440,36	1265,64
440,57	1200,11
440,77	1228,78
440,98	1236,97
441,18	1210,35
441,39	1249,26
441,59	1302,51
441,80	1269,74
442,00	1294,32
442,21	1259,50
442,41	1282,03
442,62	1249,26
442,82	1282,03
443,02	1284,08
443,23	1171,44
443,43	1263,60
443,64	1304,56
443,84	1288,17
444,05	1292,27
444,25	1298,41
444,46	1232,88
444,66	1200,11
444,87	1310,70
445,07	1220,59
445,28	1259,50
445,48	1253,36
445,69	1263,60
445,89	1327,08
446,09	1220,59
446,30	1277,93
446,50	1279,98
446,71	1169,39
446,91	1273,84
447,12	1212,40
447,32	1230,83
447,53	1288,17
447,73	1255,40
447,93	1261,55
448,14	1271,79
448,34	1273,84
448,55	1232,88
448,75	1269,74
448,96	1312,75
449,16	1249,26
449,36	1265,64
449,57	1275,88
449,77	1306,60
449,98	1245,16
450,18	1193,97
450,39	1261,55
450,59	1269,74
450,79	1314,80
451,00	1206,25
451,20	1210,35
451,41	1247,21
451,61	1269,74
451,81	1216,49
452,02	1312,75
452,22	1318,89
452,43	1189,87
452,63	1290,22
452,84	1226,73
453,04	1282,03
453,24	1224,69
453,45	1298,41
453,65	1277,93
453,86	1290,22
454,06	1206,25
454,26	1275,88
454,47	1288,17
454,67	1284,08
454,87	1366,00
455,08	1302,51
455,28	1243,12
455,49	1284,08
455,69	1271,79
455,89	1245,16
456,10	1253,36
456,30	1265,64
456,51	1296,36
456,71	1249,26
456,91	1304,56
457,12	1247,21
457,32	1255,40
457,52	1290,22
457,73	1298,41
457,93	1277,93
458,14	1243,12
458,34	1294,32
458,54	1239,02
458,75	1302,51
458,95	1277,93
459,15	1241,07
459,36	1322,99
459,56	1265,64
459,76	1239,02
459,97	1325,04
460,17	1222,64
460,37	1259,50
460,58	1249,26
460,78	1243,12
460,99	1257,45
461,19	1257,45
461,39	1245,16
461,60	1286,12
461,80	1271,79
462,00	1189,87
462,21	1234,93
462,41	1259,50
462,61	1245,16
462,82	1288,17
463,02	1288,17
463,22	1269,74
463,43	1318,89
463,63	1239,02
463,83	1232,88
464,04	1304,56
464,24	1284,08
464,44	1286,12
464,64	1284,08
464,85	1284,08
465,05	1263,60
465,25	1243,12
465,46	1294,32
465,66	1187,82
465,86	1290,22
466,07	1257,45
466,27	1234,93
466,47	1236,97
466,68	1325,04
466,88	1273,84
467,08	1320,94
467,29	1341,42
467,49	1236,97
467,69	1267,69
467,89	1196,01
468,10	1279,98
468,30	1255,40
468,50	1267,69
468,71	1200,11
468,91	1331,18
469,11	1298,41
469,31	1306,60
469,52	1300,46
469,72	1273,84
469,92	1261,55
470,13	1279,98
470,33	1234,93
470,53	1329,13
470,73	1337,32
470,94	1286,12
471,14	1265,64
471,34	1265,64
471,54	1269,74
471,75	1271,79
471,95	1271,79
472,15	1267,69
472,36	1210,35
472,56	1282,03
472,76	1282,03
472,96	1261,55
473,17	1200,11
473,37	1271,79
473,57	1200,11
473,77	1191,92
473,98	1269,74
474,18	1257,45
474,38	1296,36
474,58	1290,22
474,79	1200,11
474,99	1282,03
475,19	1234,93
475,39	1314,80
475,60	1212,40
475,80	1224,69
476,00	1222,64
476,20	1366,00
476,41	1304,56
476,61	1304,56
476,81	1304,56
477,01	1312,75
477,21	1181,68
477,42	1333,23
477,62	1249,26
477,82	1304,56
478,02	1322,99
478,23	1249,26
478,43	1234,93
478,63	1249,26
478,83	1279,98
479,03	1288,17
479,24	1263,60
479,44	1347,56
479,64	1226,73
479,84	1200,11
480,04	1312,75
480,25	1277,93
480,45	1261,55
480,65	1306,60
480,85	1249,26
481,06	1290,22
481,26	1327,08
481,46	1296,36
481,66	1251,31
481,86	1296,36
482,06	1337,32
482,27	1347,56
482,47	1345,52
482,67	1241,07
482,87	1277,93
483,07	1329,13
483,28	1318,89
483,48	1265,64
483,68	1271,79
483,88	1273,84
484,08	1243,12
484,29	1251,31
484,49	1273,84
484,69	1200,11
484,89	1282,03
485,09	1259,50
485,29	1310,70
485,50	1177,58
485,70	1294,32
485,90	1308,65
486,10	1312,75
486,30	1290,22
486,50	1183,73
486,71	1327,08
486,91	1247,21
487,11	1300,46
487,31	1261,55
487,51	1296,36
487,71	1273,84
487,91	1312,75
488,12	1232,88
488,32	1279,98
488,52	1228,78
488,72	1261,55
488,92	1304,56
489,12	1249,26
489,32	1214,45
489,53	1253,36
489,73	1171,44
489,93	1314,80
490,13	1259,50
490,33	1239,02
490,53	1271,79
490,73	1290,22
490,94	1271,79
491,14	1222,64
491,34	1290,22
491,54	1204,21
491,74	1290,22
491,94	1232,88
492,14	1257,45
492,34	1220,59
492,54	1255,40
492,75	1263,60
492,95	1286,12
493,15	1253,36
493,35	1269,74
493,55	1247,21
493,75	1282,03
493,95	1322,99
494,15	1277,93
494,35	1261,55
494,56	1232,88
494,76	1292,27
494,96	1359,85
495,16	1304,56
495,36	1306,60
495,56	1402,86
495,76	1269,74
495,96	1210,35
496,16	1224,69
496,36	1288,17
496,56	1366,00
496,77	1284,08
496,97	1277,93
497,17	1329,13
497,37	1208,30
497,57	1304,56
497,77	1236,97
497,97	1175,53
498,17	1232,88
498,37	1294,32
498,57	1255,40
498,77	1273,84
498,97	1277,93
499,17	1277,93
499,38	1341,42
499,58	1359,85
499,78	1286,12
499,98	1306,60
500,18	1251,31
500,38	1304,56
500,58	1269,74
500,78	1345,52
500,98	1312,75
501,18	1259,50
501,38	1196,01
501,58	1216,49
501,78	1253,36
501,98	1249,26
502,18	1286,12
502,38	1288,17
502,58	1245,16
502,78	1249,26
502,98	1269,74
503,18	1224,69
503,38	1234,93
503,59	1234,93
503,79	1224,69
503,99	1288,17
504,19	1267,69
504,39	1271,79
504,59	1220,59
504,79	1263,60
504,99	1282,03
505,19	1318,89
505,39	1314,80
505,59	1251,31
505,79	1351,66
505,99	1255,40
506,19	1239,02
506,39	1353,71
506,59	1249,26
506,79	1241,07
506,99	1300,46
507,19	1216,49
507,39	1329,13
507,59	1243,12
507,79	1261,55
507,99	1312,75
508,19	1245,16
508,39	1318,89
508,59	1222,64
508,79	1236,97
508,99	1204,21
509,19	1265,64
509,39	1273,84
509,59	1210,35
509,79	1322,99
509,99	1245,16
510,19	1277,93
510,39	1349,61
510,59	1282,03
510,79	1294,32
510,99	1302,51
511,19	1183,73
511,39	1261,55
511,59	1224,69
511,79	1279,98
511,99	1257,45
512,19	1271,79
512,38	1288,17
512,58	1331,18
512,78	1341,42
512,98	1234,93
513,18	1234,93
513,38	1271,79
513,58	1298,41
513,78	1279,98
513,98	1273,84
514,18	1269,74
514,38	1124,33
514,58	1261,55
514,78	1355,76
514,98	1239,02
515,18	1185,77
515,38	1212,40
515,58	1292,27
515,78	1320,94
515,98	1267,69
516,18	1232,88
516,38	1271,79
516,57	1234,93
516,77	1292,27
516,97	1273,84
517,17	1296,36
517,37	1273,84
517,57	1275,88
517,77	1322,99
517,97	1265,64
518,17	1275,88
518,37	1263,60
518,57	1318,89
518,77	1314,80
518,97	1253,36
519,16	1288,17
519,36	1255,40
519,56	1318,89
519,76	1247,21
519,96	1298,41
520,16	1294,32
520,36	1232,88
520,56	1325,04
520,76	1325,04
520,96	1279,98
521,16	1257,45
521,35	1310,70
521,55	1294,32
521,75	1263,60
521,95	1312,75
522,15	1275,88
522,35	1226,73
522,55	1277,93
522,75	1331,18
522,95	1302,51
523,14	1255,40
523,34	1353,71
523,54	1286,12
523,74	1282,03
523,94	1232,88
524,14	1302,51
524,34	1193,97
524,54	1349,61
524,73	1300,46
524,93	1290,22
525,13	1284,08
525,33	1251,31
525,53	1314,80
525,73	1337,32
525,93	1259,50
526,13	1288,17
526,32	1318,89
526,52	1327,08
526,72	1296,36
526,92	1261,55
527,12	1277,93
527,32	1273,84
527,52	1275,88
527,71	1257,45
527,91	1255,40
528,11	1241,07
528,31	1241,07
528,51	1236,97
528,71	1220,59
528,90	1163,25
529,10	1333,23
529,30	1228,78
529,50	1208,30
529,70	1251,31
529,90	1363,95
530,09	1273,84
530,29	1275,88
530,49	1222,64
530,69	1320,94
530,89	1292,27
531,09	1284,08
531,28	1282,03
531,48	1290,22
531,68	1222,64
531,88	1282,03
532,08	1284,08
532,28	1302,51
532,47	1261,55
532,67	1243,12
532,87	1239,02
533,07	1298,41
533,27	1296,36
533,46	1277,93
533,66	1312,75
533,86	1241,07
534,06	1286,12
534,26	1269,74
534,45	1222,64
534,65	1265,64
534,85	1359,85
535,05	1306,60
535,25	1304,56
535,44	1282,03
535,64	1216,49
535,84	1269,74
536,04	1298,41
536,24	1271,79
536,43	1267,69
536,63	1241,07
536,83	1249,26
537,03	1232,88
537,22	1249,26
537,42	1259,50
537,62	1214,45
537,82	1212,40
538,02	1261,55
538,21	1312,75
538,41	1304,56
538,61	1327,08
538,81	1366,00
539,00	1249,26
539,20	1316,84
539,40	1257,45
539,60	1187,82
539,79	1247,21
539,99	1302,51
540,19	1288,17
540,39	1263,60
540,58	1249,26
540,78	1302,51
540,98	1269,74
541,18	1247,21
541,37	1241,07
541,57	1224,69
541,77	1357,80
541,97	1267,69
542,16	1257,45
542,36	1273,84
542,56	1208,30
542,76	1277,93
542,95	1247,21
543,15	1290,22
543,35	1247,21
543,54	1284,08
543,74	1200,11
543,94	1343,47
544,14	1251,31
544,33	1296,36
544,53	1251,31
544,73	1265,64
544,93	1236,97
545,12	1208,30
545,32	1267,69
545,52	1257,45
545,71	1304,56
545,91	1255,40
546,11	1294,32
546,30	1261,55
546,50	1257,45
546,70	1261,55
546,90	1251,31
547,09	1265,64
547,29	1294,32
547,49	1331,18
547,68	1271,79
547,88	1273,84
548,08	1263,60
548,27	1277,93
548,47	1226,73
548,67	1212,40
548,87	1234,93
549,06	1206,25
549,26	1202,16
549,46	1294,32
549,65	1241,07
549,85	1261,55
550,05	1259,50
550,24	1210,35
550,44	1228,78
550,64	1224,69
550,83	1259,50
551,03	1257,45
551,23	1312,75
551,42	1234,93
551,62	1306,60
551,82	1273,84
552,01	1247,21
552,21	1298,41
552,41	1267,69
552,60	1234,93
552,80	1306,60
553,00	1249,26
553,19	1216,49
553,39	1263,60
553,59	1284,08
553,78	1251,31
553,98	1277,93
554,17	1265,64
554,37	1271,79
554,57	1255,40
554,76	1245,16
554,96	1204,21
555,16	1359,85
555,35	1245,16
555,55	1312,75
555,75	1282,03
555,94	1208,30
556,14	1251,31
556,33	1294,32
556,53	1318,89
556,73	1257,45
556,92	1331,18
557,12	1279,98
557,32	1273,84
557,51	1359,85
557,71	1255,40
557,90	1304,56
558,10	1310,70
558,30	1253,36
558,49	1318,89
558,69	1239,02
558,88	1304,56
559,08	1351,66
559,28	1230,83
559,47	1247,21
559,67	1269,74
559,86	1296,36
560,06	1288,17
560,26	1312,75
560,45	1245,16
560,65	1210,35
560,84	1302,51
561,04	1312,75
561,24	1267,69
561,43	1341,42
561,63	1226,73
561,82	1222,64
562,02	1261,55
562,22	1232,88
562,41	1247,21
562,61	1269,74
562,80	1216,49
563,00	1339,37
563,19	1253,36
563,39	1312,75
563,59	1257,45
563,78	1265,64
563,98	1249,26
564,17	1314,80
564,37	1277,93
564,56	1251,31
564,76	1282,03
564,96	1230,83
565,15	1310,70
565,35	1253,36
565,54	1220,59
565,74	1345,52
565,93	1247,21
566,13	1257,45
566,32	1220,59
566,52	1269,74
566,71	1220,59
566,91	1316,84
567,11	1230,83
567,30	1273,84
567,50	1335,28
567,69	1230,83
567,89	1318,89
568,08	1261,55
568,28	1251,31
568,47	1259,50
568,67	1175,53
568,86	1234,93
569,06	1318,89
569,25	1271,79
569,45	1366,00
569,64	1277,93
569,84	1273,84
570,04	1292,27
570,23	1271,79
570,43	1204,21
570,62	1277,93
570,82	1314,80
571,01	1271,79
571,21	1282,03
571,40	1239,02
571,60	1286,12
571,79	1304,56
571,99	1329,13
572,18	1329,13
572,38	1314,80
572,57	1230,83
572,77	1189,87
572,96	1318,89
573,16	1275,88
573,35	1206,25
573,55	1312,75
573,74	1304,56
573,94	1241,07
574,13	1220,59
574,33	1286,12
574,52	1310,70
574,71	1265,64
574,91	1300,46
575,10	1259,50
575,30	1212,40
575,49	1200,11
575,69	1288,17
575,88	1241,07
576,08	1247,21
576,27	1333,23
576,47	1185,77
576,66	1247,21
576,86	1247,21
577,05	1269,74
577,25	1284,08
577,44	1322,99
577,64	1304,56
577,83	1296,36
578,02	1310,70
578,22	1253,36
578,41	1275,88
578,61	1236,97
578,80	1267,69
579,00	1325,04
579,19	1361,90
579,39	1314,80
579,58	1351,66
579,77	1314,80
579,97	1265,64
580,16	1286,12
580,36	1292,27
580,55	1331,18
580,75	1308,65
580,94	1230,83
581,13	1275,88
581,33	1245,16
581,52	1322,99
581,72	1361,90
581,91	1234,93
582,11	1271,79
582,30	1247,21
582,49	1296,36
582,69	1189,87
582,88	1269,74
583,08	1271,79
583,27	1245,16
583,47	1300,46
583,66	1296,36
583,85	1234,93
584,05	1294,32
584,24	1271,79
584,44	1222,64
584,63	1271,79
584,82	1157,10
585,02	1359,85
585,21	1322,99
585,41	1241,07
585,60	1314,80
585,79	1294,32
585,99	1347,56
586,18	1292,27
586,37	1255,40
586,57	1353,71
586,76	1359,85
586,96	1224,69
587,15	1181,68
587,34	1314,80
587,54	1232,88
587,73	1294,32
587,93	1265,64
588,12	1320,94
588,31	1298,41
588,51	1288,17
588,70	1230,83
588,89	1224,69
589,09	1339,37
589,28	1279,98
589,47	1255,40
589,67	1263,60
589,86	1257,45
590,06	1298,41
590,25	1236,97
590,44	1279,98
590,64	1282,03
590,83	1327,08
591,02	1259,50
591,22	1290,22
591,41	1253,36
591,60	1236,97
591,80	1253,36
591,99	1292,27
592,18	1239,02
592,38	1302,51
592,57	1292,27
592,76	1210,35
592,96	1294,32
593,15	1335,28
593,34	1286,12
593,54	1275,88
593,73	1292,27
593,92	1251,31
594,12	1331,18
594,31	1300,46
594,50	1292,27
594,70	1257,45
594,89	1292,27
595,08	1286,12
595,28	1349,61
595,47	1265,64
595,66	1185,77
595,86	1218,54
596,05	1177,58
596,24	1261,55
596,43	1234,93
596,63	1292,27
596,82	1222,64
597,01	1286,12
597,21	1306,60
597,40	1284,08
597,59	1226,73
597,79	1208,30
597,98	1292,27
598,17	1273,84
598,36	1247,21
598,56	1251,31
598,75	1306,60
598,94	1251,31
599,14	1310,70
599,33	1296,36
599,52	1359,85
599,71	1277,93
599,91	1370,09
600,10	1226,73
600,29	1277,93
600,48	1282,03
600,68	1275,88
600,87	1322,99
601,06	1271,79
601,26	1206,25
601,45	1269,74
601,64	1318,89
601,83	1279,98
602,03	1265,64
602,22	1322,99
602,41	1253,36
602,60	1292,27
602,80	1294,32
602,99	1294,32
603,18	1269,74
603,37	1298,41
603,57	1234,93
603,76	1228,78
603,95	1239,02
604,14	1275,88
604,34	1245,16
604,53	1320,94
604,72	1265,64
604,91	1243,12
605,10	1277,93
605,30	1218,54
605,49	1308,65
605,68	1183,73
605,87	1234,93
606,07	1312,75
606,26	1277,93
606,45	1247,21
606,64	1347,56
606,84	1273,84
607,03	1296,36
607,22	1290,22
607,41	1249,26
607,60	1267,69
607,80	1234,93
607,99	1271,79
608,18	1286,12
608,37	1294,32
608,56	1224,69
608,76	1224,69
608,95	1296,36
609,14	1296,36
609,33	1243,12
609,52	1304,56
609,72	1255,40
609,91	1286,12
610,10	1284,08
610,29	1255,40
610,48	1259,50
610,68	1239,02
610,87	1273,84
611,06	1241,07
611,25	1224,69
611,44	1290,22
611,63	1253,36
611,83	1220,59
612,02	1243,12
612,21	1269,74
612,40	1249,26
612,59	1249,26
612,79	1247,21
612,98	1245,16
613,17	1257,45
613,36	1279,98
613,55	1249,26
613,74	1279,98
613,93	1245,16
614,13	1279,98
614,32	1228,78
614,51	1273,84
614,70	1265,64
614,89	1200,11
615,08	1306,60
615,28	1320,94
615,47	1327,08
615,66	1290,22
615,85	1296,36
616,04	1236,97
616,23	1263,60
616,42	1271,79
616,62	1298,41
616,81	1234,93
617,00	1220,59
617,19	1302,51
617,38	1245,16
617,57	1277,93
617,76	1206,25
617,95	1255,40
618,15	1306,60
618,34	1204,21
618,53	1290,22
618,72	1331,18
618,91	1341,42
619,10	1277,93
619,29	1292,27
619,48	1273,84
619,68	1253,36
619,87	1372,14
620,06	1298,41
620,25	1312,75
620,44	1279,98
620,63	1284,08
620,82	1247,21
621,01	1300,46
621,20	1279,98
621,39	1241,07
621,59	1257,45
621,78	1331,18
621,97	1300,46
622,16	1282,03
622,35	1228,78
622,54	1292,27
622,73	1286,12
622,92	1314,80
623,11	1271,79
623,30	1257,45
623,49	1308,65
623,68	1310,70
623,88	1304,56
624,07	1337,32
624,26	1308,65
624,45	1290,22
624,64	1251,31
624,83	1296,36
625,02	1386,47
625,21	1290,22
625,40	1349,61
625,59	1316,84
625,78	1257,45
625,97	1302,51
626,16	1263,60
626,35	1216,49
626,54	1314,80
626,74	1327,08
626,93	1329,13
627,12	1239,02
627,31	1298,41
627,50	1349,61
627,69	1273,84
627,88	1290,22
628,07	1271,79
628,26	1277,93
628,45	1292,27
628,64	1279,98
628,83	1298,41
629,02	1273,84
629,21	1312,75
629,40	1306,60
629,59	1327,08
629,78	1355,76
629,97	1222,64
630,16	1273,84
630,35	1349,61
630,54	1265,64
630,73	1294,32
630,92	1294,32
631,11	1357,80
631,30	1345,52
631,49	1329,13
631,68	1368,04
631,87	1480,68
632,06	1849,32
632,25	1572,84
632,44	1601,51
632,63	1976,29
632,82	2467,80
633,01	5494,70
633,20	5130,16
633,39	4257,73
633,58	2234,33
633,77	2736,09
633,96	5457,84
634,15	6735,77
634,34	5785,51
634,53	4247,49
634,72	2795,48
634,91	2160,61
635,10	1834,98
635,29	1665,00
635,48	1693,67
635,67	1587,18
635,86	1490,92
636,05	1396,71
636,24	1454,06
636,43	1353,71
636,62	1232,88
636,81	1329,13
637,00	1310,70
637,19	1320,94
637,38	1353,71
637,57	1376,24
637,76	1335,28
637,95	1257,45
638,14	1304,56
638,33	1271,79
638,52	1261,55
638,71	1322,99
638,89	1337,32
639,08	1306,60
639,27	1333,23
639,46	1304,56
639,65	1290,22
639,84	1288,17
640,03	1359,85
640,22	1183,73
640,41	1312,75
640,60	1327,08
640,79	1265,64
640,98	1292,27
641,17	1304,56
641,36	1282,03
641,55	1353,71
641,74	1279,98
641,92	1224,69
642,11	1196,01
642,30	1257,45
642,49	1259,50
642,68	1277,93
642,87	1218,54
643,06	1275,88
643,25	1298,41
643,44	1273,84
643,63	1232,88
643,82	1322,99
644,00	1308,65
644,19	1282,03
644,38	1298,41
644,57	1284,08
644,76	1259,50
644,95	1320,94
645,14	1239,02
645,33	1261,55
645,52	1243,12
645,71	1306,60
645,89	1277,93
646,08	1312,75
646,27	1210,35
646,46	1310,70
646,65	1277,93
646,84	1265,64
647,03	1236,97
647,22	1279,98
647,40	1259,50
647,59	1241,07
647,78	1243,12
647,97	1284,08
648,16	1236,97
648,35	1245,16
648,54	1339,37
648,73	1284,08
648,91	1298,41
649,10	1241,07
649,29	1273,84
649,48	1253,36
649,67	1259,50
649,86	1357,80
650,05	1325,04
650,23	1224,69
650,42	1222,64
650,61	1312,75
650,80	1245,16
650,99	1298,41
651,18	1193,97
651,36	1335,28
651,55	1269,74
651,74	1275,88
651,93	1290,22
652,12	1290,22
652,31	1261,55
652,49	1314,80
652,68	1320,94
652,87	1263,60
653,06	1218,54
653,25	1259,50
653,44	1253,36
653,62	1261,55
653,81	1314,80
654,00	1294,32
654,19	1273,84
654,38	1298,41
654,56	1308,65
654,75	1200,11
654,94	1234,93
655,13	1279,98
655,32	1292,27
655,51	1275,88
655,69	1302,51
655,88	1277,93
656,07	1322,99
656,26	1286,12
656,45	1290,22
656,63	1351,66
656,82	1169,39
657,01	1253,36
657,20	1273,84
657,38	1298,41
657,57	1288,17
657,76	1232,88
657,95	1277,93
658,14	1306,60
658,32	1277,93
658,51	1284,08
658,70	1243,12
658,89	1239,02
659,08	1275,88
659,26	1296,36
659,45	1306,60
659,64	1249,26
659,83	1251,31
660,01	1245,16
660,20	1212,40
660,39	1347,56
660,58	1277,93
660,76	1279,98
660,95	1318,89
661,14	1275,88
661,33	1267,69
661,51	1296,36
661,70	1255,40
661,89	1333,23
662,08	1282,03
662,26	1345,52
662,45	1247,21
662,64	1263,60
662,83	1282,03
663,01	1267,69
663,20	1247,21
663,39	1249,26
663,58	1275,88
663,76	1273,84
663,95	1273,84
664,14	1251,31
664,32	1282,03
664,51	1210,35
664,70	1277,93
664,89	1245,16
665,07	1310,70
665,26	1273,84
665,45	1247,21
665,64	1308,65
665,82	1253,36
666,01	1286,12
666,20	1253,36
666,38	1214,45
666,57	1273,84
666,76	1286,12
666,95	1298,41
667,13	1284,08
667,32	1290,22
667,51	1267,69
667,69	1267,69
667,88	1257,45
668,07	1245,16
668,25	1316,84
668,44	1355,76
668,63	1261,55
668,81	1251,31
669,00	1257,45
669,19	1222,64
669,38	1232,88
669,56	1265,64
669,75	1282,03
669,94	1279,98
670,12	1241,07
670,31	1239,02
670,50	1263,60
670,68	1300,46
670,87	1304,56
671,06	1265,64
671,24	1298,41
671,43	1298,41
671,62	1245,16
671,80	1312,75
671,99	1265,64
672,18	1232,88
672,36	1257,45
672,55	1245,16
672,74	1341,42
672,92	1337,32
673,11	1273,84
673,29	1263,60
673,48	1304,56
673,67	1302,51
673,85	1214,45
674,04	1251,31
674,23	1265,64
674,41	1306,60
674,60	1286,12
674,79	1312,75
674,97	1251,31
675,16	1290,22
675,34	1275,88
675,53	1146,86
675,72	1275,88
675,90	1257,45
676,09	1236,97
676,28	1273,84
676,46	1241,07
676,65	1249,26
676,83	1279,98
677,02	1222,64
677,21	1306,60
677,39	1290,22
677,58	1257,45
677,77	1304,56
677,95	1230,83
678,14	1288,17
678,32	1286,12
678,51	1245,16
678,70	1308,65
678,88	1245,16
679,07	1212,40
679,25	1300,46
679,44	1316,84
679,63	1345,52
679,81	1288,17
680,00	1232,88
680,18	1253,36
680,37	1273,84
680,55	1257,45
680,74	1286,12
680,93	1294,32
681,11	1226,73
681,30	1253,36
681,48	1294,32
681,67	1249,26
681,85	1243,12
682,04	1232,88
682,23	1292,27
682,41	1322,99
682,60	1325,04
682,78	1308,65
682,97	1255,40
683,15	1331,18
683,34	1257,45
683,53	1241,07
683,71	1298,41
683,90	1279,98
684,08	1177,58
684,27	1310,70
684,45	1271,79
684,64	1312,75
684,82	1318,89
685,01	1259,50
685,19	1257,45
685,38	1343,47
685,57	1296,36
685,75	1259,50
685,94	1269,74
686,12	1251,31
686,31	1208,30
686,49	1288,17
686,68	1245,16
686,86	1251,31
687,05	1290,22
687,23	1312,75
687,42	1226,73
687,60	1294,32
687,79	1259,50
687,97	1263,60
688,16	1300,46
688,34	1245,16
688,53	1263,60
688,71	1261,55
688,90	1304,56
689,08	1267,69
689,27	1210,35
689,45	1263,60
689,64	1296,36
689,82	1228,78
690,01	1288,17
690,19	1308,65
690,38	1241,07
690,56	1341,42
690,75	1243,12
690,93	1253,36
691,12	1275,88
691,30	1165,29
691,49	1366,00
691,67	1249,26
691,86	1261,55
692,04	1253,36
692,23	1284,08
692,41	1316,84
692,60	1216,49
692,78	1290,22
692,97	1241,07
693,15	1288,17
693,34	1212,40
693,52	1273,84
693,71	1292,27
693,89	1196,01
694,08	1267,69
694,26	1298,41
694,44	1273,84
694,63	1298,41
694,81	1175,53
695,00	1251,31
695,18	1243,12
695,37	1282,03
695,55	1300,46
695,74	1261,55
695,92	1241,07
696,10	1193,97
696,29	1312,75
696,47	1265,64
696,66	1273,84
696,84	1265,64
697,03	1200,11
697,21	1288,17
697,40	1378,28
697,58	1269,74
697,76	1200,11
697,95	1226,73
698,13	1284,08
698,32	1271,79
698,50	1320,94
698,68	1236,97
698,87	1279,98
699,05	1314,80
699,24	1329,13
699,42	1257,45
699,61	1279,98
699,79	1316,84
699,97	1253,36
700,16	1247,21
700,34	1290,22
700,53	1236,97
700,71	1232,88
700,89	1314,80
701,08	1290,22
701,26	1261,55
701,45	1273,84
701,63	1327,08
701,81	1245,16
702,00	1275,88
702,18	1302,51
702,37	1341,42
702,55	1200,11
702,73	1257,45
702,92	1236,97
703,10	1226,73
703,28	1294,32
703,47	1318,89
703,65	1275,88
703,84	1251,31
704,02	1279,98
704,20	1267,69
704,39	1290,22
704,57	1284,08
704,75	1288,17
704,94	1245,16
705,12	1339,37
705,30	1312,75
705,49	1241,07
705,67	1304,56
705,86	1275,88
706,04	1224,69
706,22	1216,49
706,41	1259,50
706,59	1271,79
706,77	1187,82
706,96	1355,76
707,14	1228,78
707,32	1329,13
707,51	1279,98
707,69	1304,56
707,87	1286,12
708,06	1257,45
708,24	1189,87
708,42	1284,08
708,61	1251,31
708,79	1216,49
708,97	1259,50
709,16	1245,16
709,34	1304,56
709,52	1245,16
709,71	1228,78
709,89	1251,31
710,07	1224,69
710,26	1247,21
710,44	1306,60
710,62	1251,31
710,80	1300,46
710,99	1208,30
711,17	1368,04
711,35	1267,69
711,54	1232,88
711,72	1294,32
711,90	1306,60
712,09	1253,36
712,27	1288,17
712,45	1298,41
712,63	1286,12
712,82	1226,73
713,00	1286,12
713,18	1232,88
713,37	1284,08
713,55	1189,87
713,73	1230,83
713,91	1193,97
714,10	1271,79
714,28	1247,21
714,46	1257,45
714,65	1286,12
714,83	1245,16
715,01	1259,50
715,19	1206,25
715,38	1277,93
715,56	1294,32
715,74	1259,50
715,92	1320,94
716,11	1318,89
716,29	1310,70
716,47	1257,45
716,65	1273,84
716,84	1335,28
717,02	1333,23
717,20	1277,93
717,38	1298,41
717,57	1292,27
717,75	1337,32
717,93	1300,46
718,11	1198,06
718,30	1322,99
718,48	1308,65
718,66	1261,55
718,84	1241,07
719,03	1310,70
719,21	1353,71
719,39	1261,55
719,57	1226,73
719,75	1298,41
719,94	1222,64
720,12	1284,08
720,30	1298,41
720,48	1259,50
720,67	1263,60
720,85	1251,31
721,03	1308,65
721,21	1273,84
721,39	1302,51
721,58	1196,01
721,76	1226,73
721,94	1271,79
722,12	1341,42
722,30	1265,64
722,49	1251,31
722,67	1208,30
722,85	1277,93
723,03	1169,39
723,21	1284,08
723,40	1279,98
723,58	1232,88
723,76	1298,41
723,94	1282,03
724,12	1234,93
724,30	1284,08
724,49	1267,69
724,67	1234,93
724,85	1275,88
725,03	1292,27
725,21	1239,02
725,40	1286,12
725,58	1251,31
725,76	1234,93
725,94	1286,12
726,12	1277,93
726,30	1294,32
726,49	1275,88
726,67	1226,73
726,85	1322,99
727,03	1196,01
727,21	1335,28
727,39	1298,41
727,57	1234,93
727,76	1298,41
727,94	1296,36
728,12	1337,32
728,30	1173,49
728,48	1243,12
728,66	1306,60
728,84	1226,73
729,03	1249,26
729,21	1294,32
729,39	1286,12
729,57	1261,55
729,75	1333,23
729,93	1265,64
730,11	1288,17
730,30	1269,74
730,48	1271,79
730,66	1239,02
730,84	1255,40
731,02	1189,87
731,20	1251,31
731,38	1208,30
731,56	1298,41
731,74	1343,47
731,93	1337,32
732,11	1228,78
732,29	1296,36
732,47	1204,21
732,65	1247,21
732,83	1333,23
733,01	1329,13
733,19	1275,88
733,37	1253,36
733,56	1269,74
733,74	1222,64
733,92	1253,36
734,10	1232,88
734,28	1216,49
734,46	1302,51
734,64	1306,60
734,82	1249,26
735,00	1243,12
735,18	1302,51
735,36	1243,12
735,54	1245,16
735,73	1277,93
735,91	1265,64
736,09	1282,03
736,27	1265,64
736,45	1220,59
736,63	1247,21
736,81	1218,54
736,99	1257,45
737,17	1247,21
737,35	1312,75
737,53	1259,50
737,71	1325,04
737,89	1337,32
738,07	1306,60
738,25	1294,32
738,43	1263,60
738,61	1269,74
738,80	1316,84
738,98	1282,03
739,16	1316,84
739,34	1259,50
739,52	1302,51
739,70	1263,60
739,88	1310,70
740,06	1304,56
740,24	1232,88
740,42	1294,32
740,60	1312,75
740,78	1322,99
740,96	1230,83
741,14	1294,32
741,32	1239,02
741,50	1253,36
741,68	1312,75
741,86	1316,84
742,04	1372,14
742,22	1296,36
742,40	1245,16
742,58	1279,98
742,76	1310,70
742,94	1255,40
743,12	1236,97
743,30	1279,98
743,48	1388,52
743,66	1300,46
743,84	1308,65
744,02	1261,55
744,20	1245,16
744,38	1273,84
744,56	1329,13
744,74	1228,78
744,92	1282,03
745,10	1322,99
745,28	1300,46
745,46	1296,36
745,64	1339,37
745,82	1292,27
746,00	1302,51
746,18	1279,98
746,36	1247,21
746,54	1279,98
746,72	1361,90
746,90	1232,88
747,08	1269,74
747,26	1273,84
747,44	1314,80
747,62	1261,55
747,80	1273,84
747,98	1261,55
748,15	1230,83
748,33	1267,69
748,51	1210,35
748,69	1187,82
748,87	1222,64
749,05	1306,60
749,23	1210,35
749,41	1236,97
749,59	1290,22
749,77	1243,12
749,95	1191,92
750,13	1327,08
750,31	1296,36
750,49	1275,88
750,67	1300,46
750,85	1282,03
751,03	1273,84
751,20	1327,08
751,38	1228,78
751,56	1337,32
751,74	1228,78
751,92	1275,88
752,10	1312,75
752,28	1284,08
752,46	1308,65
752,64	1296,36
752,82	1275,88
753,00	1282,03
753,18	1316,84
753,35	1261,55
753,53	1288,17
753,71	1290,22
753,89	1296,36
754,07	1249,26
754,25	1300,46
754,43	1232,88
754,61	1257,45
754,79	1232,88
754,97	1290,22
755,14	1290,22
755,32	1290,22
755,50	1294,32
755,68	1327,08
755,86	1388,52
756,04	1275,88
756,22	1288,17
756,40	1271,79
756,57	1279,98
756,75	1290,22
756,93	1267,69
757,11	1232,88
757,29	1294,32
757,47	1325,04
757,65	1196,01
757,82	1345,52
758,00	1347,56
758,18	1314,80
758,36	1265,64
758,54	1282,03
758,72	1277,93
758,90	1224,69
759,07	1259,50
759,25	1257,45
759,43	1292,27
759,61	1310,70
759,79	1220,59
759,97	1241,07
760,15	1279,98
760,32	1298,41
760,50	1306,60
760,68	1353,71
760,86	1253,36
761,04	1253,36
761,22	1271,79
761,39	1247,21
761,57	1316,84
761,75	1275,88
761,93	1316,84
762,11	1337,32
762,28	1218,54
762,46	1312,75
762,64	1296,36
762,82	1306,60
763,00	1279,98
763,18	1253,36
763,35	1269,74
763,53	1320,94
763,71	1296,36
763,89	1232,88
764,07	1314,80
764,24	1277,93
764,42	1249,26
764,60	1288,17
764,78	1320,94
764,96	1282,03
765,13	1198,06
765,31	1269,74
765,49	1265,64
765,67	1284,08
765,84	1277,93
766,02	1304,56
766,20	1228,78
766,38	1263,60
766,56	1218,54
766,73	1316,84
766,91	1284,08
767,09	1226,73
767,27	1257,45
767,44	1282,03
767,62	1327,08
767,80	1251,31
767,98	1279,98
768,15	1267,69
768,33	1247,21
768,51	1290,22
768,69	1312,75
768,87	1179,63
769,04	1265,64
769,22	1265,64
769,40	1335,28
769,58	1359,85
769,75	1290,22
769,93	1296,36
770,11	1251,31
770,28	1331,18
770,46	1284,08
770,64	1228,78
770,82	1282,03
770,99	1269,74
771,17	1261,55
771,35	1296,36
771,53	1236,97
771,70	1347,56
771,88	1212,40
772,06	1298,41
772,23	1259,50
772,41	1255,40
772,59	1251,31
772,77	1312,75
772,94	1236,97
773,12	1294,32
773,30	1306,60
773,47	1241,07
773,65	1267,69
773,83	1288,17
774,01	1304,56
774,18	1339,37
774,36	1216,49
774,54	1271,79
774,71	1277,93
774,89	1302,51
775,07	1222,64
775,24	1275,88
775,42	1282,03
775,60	1230,83
775,78	1234,93
775,95	1265,64
776,13	1282,03
776,31	1296,36
776,48	1236,97
776,66	1292,27
776,84	1298,41
777,01	1284,08
777,19	1245,16
777,37	1255,40
777,54	1222,64
777,72	1275,88
777,90	1402,86
778,07	1296,36
778,25	1261,55
778,43	1265,64
778,60	1255,40
778,78	1230,83
778,96	1261,55
779,13	1255,40
779,31	1243,12
779,49	1292,27
779,66	1210,35
779,84	1232,88
780,01	1355,76
780,19	1333,23
780,37	1228,78
780,54	1290,22
780,72	1277,93
780,90	1337,32
781,07	1232,88
781,25	1306,60
781,43	1279,98
781,60	1249,26
781,78	1232,88
781,95	1302,51
782,13	1243,12
782,31	1261,55
782,48	1259,50
782,66	1255,40
782,83	1255,40
783,01	1255,40
783,19	1218,54
783,36	1316,84
783,54	1292,27
783,72	1220,59
783,89	1193,97
784,07	1243,12
784,24	1249,26
784,42	1243,12
784,60	1298,41
784,77	1296,36
784,95	1251,31
785,12	1193,97
785,30	1300,46
785,47	1261,55
785,65	1277,93
785,83	1239,02
786,00	1243,12
786,18	1376,24
786,35	1236,97
786,53	1265,64
786,71	1275,88
786,88	1304,56
787,06	1284,08
787,23	1314,80
787,41	1284,08
787,58	1282,03
787,76	1322,99
787,94	1232,88
788,11	1290,22
788,29	1335,28
788,46	1292,27
788,64	1214,45
788,81	1294,32
788,99	1263,60
789,16	1243,12
789,34	1269,74
789,52	1290,22
789,69	1202,16
789,87	1239,02
790,04	1325,04
790,22	1257,45
790,39	1253,36
790,57	1294,32
790,74	1228,78
790,92	1259,50
791,09	1259,50
791,27	1310,70
791,44	1259,50
791,62	1257,45
791,79	1259,50
791,97	1224,69
792,15	1257,45
792,32	1282,03
792,50	1316,84
792,67	1290,22
792,85	1284,08
793,02	1222,64
793,20	1249,26
793,37	1218,54
793,55	1206,25
793,72	1228,78
793,90	1241,07
794,07	1200,11
794,25	1273,84
794,42	1294,32
794,60	1298,41
794,77	1286,12
794,95	1298,41
795,12	1241,07
795,30	1243,12
795,47	1222,64
795,65	1331,18
795,82	1368,04
796,00	1259,50
796,17	1308,65
796,34	1296,36
796,52	1249,26
796,69	1271,79
796,87	1247,21
797,04	1257,45
797,22	1216,49
797,39	1279,98
797,57	1325,04
797,74	1292,27
797,92	1312,75
798,09	1222,64
798,27	1271,79
798,44	1320,94
798,62	1322,99
798,79	1294,32
798,96	1310,70
799,14	1282,03
799,31	1220,59
799,49	1263,60
799,66	1253,36
799,84	1298,41
800,01	1302,51
800,19	1279,98
800,36	1210,35
800,53	1265,64
800,71	1279,98
800,88	1292,27
801,06	1224,69
801,23	1267,69
801,41	1279,98
801,58	1296,36
801,75	1179,63
801,93	1271,79
802,10	1292,27
802,28	1271,79
802,45	1284,08
802,63	1298,41
802,80	1269,74
802,97	1255,40
803,15	1271,79
803,32	1275,88
803,50	1308,65
803,67	1249,26
803,84	1247,21
804,02	1318,89
804,19	1187,82
804,37	1275,88
804,54	1335,28
804,71	1226,73
804,89	1277,93
805,06	1226,73
805,24	1200,11
805,41	1286,12
805,58	1292,27
805,76	1294,32
805,93	1263,60
806,10	1304,56
806,28	1265,64
806,45	1279,98
806,63	1322,99
806,80	1368,04
806,97	1269,74
807,15	1277,93
807,32	1308,65
807,49	1290,22
807,67	1300,46
807,84	1316,84
808,01	1286,12
808,19	1282,03
808,36	1304,56
808,54	1236,97
808,71	1306,60
808,88	1286,12
809,06	1361,90
809,23	1273,84
809,40	1216,49
809,58	1241,07
809,75	1247,21
809,92	1214,45
810,10	1284,08
810,27	1298,41
810,44	1282,03
810,62	1255,40
810,79	1331,18
810,96	1239,02
811,14	1337,32
811,31	1292,27
811,48	1322,99
811,66	1173,49
811,83	1177,58
812,00	1241,07
812,18	1204,21
812,35	1304,56
812,52	1267,69
812,69	1232,88
812,87	1341,42
813,04	1265,64
813,21	1257,45
813,39	1284,08
813,56	1331,18
813,73	1331,18
813,91	1277,93
814,08	1304,56
814,25	1163,25
814,42	1224,69
814,60	1310,70
814,77	1279,98
814,94	1296,36
815,12	1249,26
815,29	1286,12
815,46	1255,40
815,63	1370,09
815,81	1249,26
815,98	1331,18
816,15	1322,99
816,33	1284,08
816,50	1304,56
816,67	1335,28
816,84	1251,31
817,02	1279,98
817,19	1222,64
817,36	1275,88
817,53	1273,84
817,71	1247,21
817,88	1245,16
818,05	1255,40
818,22	1263,60
818,40	1265,64
818,57	1284,08
818,74	1202,16
818,91	1226,73
819,09	1241,07
819,26	1245,16
819,43	1284,08
819,60	1320,94
819,78	1282,03
819,95	1259,50
820,12	1322,99
820,29	1218,54
820,47	1282,03
820,64	1220,59
820,81	1269,74
820,98	1255,40
821,15	1282,03
821,33	1298,41
821,50	1294,32
821,67	1288,17
821,84	1224,69
822,02	1300,46
822,19	1261,55
822,36	1202,16
822,53	1298,41
822,70	1277,93
822,88	1247,21
823,05	1300,46
823,22	1267,69
823,39	1214,45
823,56	1331,18
823,74	1257,45
823,91	1198,06
824,08	1251,31
824,25	1234,93
824,42	1259,50
824,60	1318,89
824,77	1271,79
824,94	1243,12
825,11	1191,92
825,28	1220,59
825,45	1279,98
825,63	1204,21
825,80	1255,40
825,97	1241,07
826,14	1292,27
826,31	1290,22
826,48	1232,88
826,66	1282,03
826,83	1255,40
827,00	1236,97
827,17	1290,22
827,34	1259,50
827,51	1271,79
827,69	1222,64
827,86	1218,54
828,03	1335,28
828,20	1241,07
828,37	1261,55
828,54	1271,79
828,71	1255,40
828,89	1267,69
829,06	1279,98
829,23	1234,93
829,40	1241,07
829,57	1304,56
829,74	1269,74
829,91	1290,22
830,09	1265,64
830,26	1241,07
830,43	1212,40
830,60	1277,93
830,77	1239,02
830,94	1273,84
831,11	1341,42
831,28	1325,04
831,46	1279,98
831,63	1273,84
831,80	1169,39
831,97	1279,98
832,14	1220,59
832,31	1282,03
832,48	1292,27
832,65	1226,73
832,82	1179,63
832,99	1316,84
833,17	1208,30
833,34	1298,41
833,51	1183,73
833,68	1308,65
833,85	1236,97
834,02	1261,55
834,19	1251,31
834,36	1275,88
834,53	1208,30
834,70	1245,16
834,87	1296,36
835,04	1173,49
835,22	1265,64
835,39	1234,93
835,56	1239,02
835,73	1241,07
835,90	1259,50
836,07	1298,41
836,24	1302,51
836,41	1255,40
836,58	1232,88
836,75	1253,36
836,92	1273,84
837,09	1261,55
837,26	1294,32
837,43	1263,60
837,60	1247,21
837,77	1255,40
837,94	1271,79
838,12	1212,40
838,29	1226,73
838,46	1239,02
838,63	1310,70
838,80	1279,98
838,97	1288,17
839,14	1265,64
839,31	1273,84
839,48	1216,49
839,65	1277,93
839,82	1263,60
839,99	1247,21
840,16	1263,60
840,33	1267,69
840,50	1349,61
840,67	1335,28
840,84	1265,64
841,01	1279,98
841,18	1263,60
841,35	1247,21
841,52	1259,50
841,69	1314,80
841,86	1286,12
842,03	1359,85
842,20	1286,12
842,37	1318,89
842,54	1318,89
842,71	1337,32
842,88	1243,12
843,05	1275,88
843,22	1267,69
843,39	1292,27
843,56	1286,12
843,73	1304,56
843,90	1302,51
844,07	1239,02
844,24	1388,52
844,41	1314,80
844,58	1284,08
844,75	1271,79
844,92	1261,55
845,09	1251,31
845,26	1282,03
845,43	1298,41
845,60	1306,60
845,77	1253,36
845,94	1347,56
846,10	1226,73
846,27	1226,73
846,44	1253,36
846,61	1279,98
846,78	1243,12
846,95	1294,32
847,12	1249,26
847,29	1312,75
847,46	1206,25
847,63	1198,06
847,80	1228,78
847,97	1269,74
848,14	1318,89
848,31	1267,69
848,48	1288,17
848,65	1234,93
848,82	1236,97
848,98	1288,17
849,15	1308,65
849,32	1228,78
849,49	1249,26
849,66	1296,36
849,83	1236,97
850,00	1253,36
850,17	1255,40
850,34	1234,93
850,51	1226,73
850,68	1273,84
850,85	1255,40
851,01	1208,30
851,18	1261,55
851,35	1265,64
851,52	1273,84
851,69	1236,97
851,86	1314,80
852,03	1189,87
852,20	1228,78
852,37	1232,88
852,53	1236,97
852,70	1271,79
852,87	1251,31
853,04	1296,36
853,21	1296,36
853,38	1296,36
853,55	1232,88
853,72	1239,02
853,89	1265,64
854,05	1249,26
854,22	1288,17
854,39	1279,98
854,56	1261,55
854,73	1292,27
854,90	1247,21
855,07	1298,41
855,23	1234,93
855,40	1267,69
855,57	1341,42
855,74	1261,55
855,91	1263,60
856,08	1279,98
856,25	1189,87
856,41	1269,74
856,58	1257,45
856,75	1251,31
856,92	1247,21
857,09	1232,88
857,26	1300,46
857,42	1355,76
857,59	1245,16
857,76	1257,45
857,93	1310,70
858,10	1269,74
858,27	1294,32
858,43	1273,84
858,60	1228,78
858,77	1267,69
858,94	1279,98
859,11	1292,27
859,27	1312,75
859,44	1314,80
859,61	1288,17
859,78	1261,55
859,95	1282,03
860,12	1239,02
860,28	1239,02
860,45	1239,02
860,62	1269,74
860,79	1251,31
860,95	1327,08
861,12	1263,60
861,29	1292,27
861,46	1234,93
861,63	1230,83
861,79	1255,40
861,96	1255,40
862,13	1239,02
862,30	1243,12
862,47	1314,80
862,63	1279,98
862,80	1263,60
862,97	1251,31
863,14	1216,49
863,30	1329,13
863,47	1269,74
863,64	1282,03
863,81	1267,69
863,97	1310,70
864,14	1273,84
864,31	1236,97
864,48	1417,19
864,65	1257,45
864,81	1185,77
864,98	1304,56
865,15	1200,11
865,32	1298,41
865,48	1191,92
865,65	1271,79
865,82	1284,08
865,98	1331,18
866,15	1325,04
866,32	1271,79
866,49	1245,16
866,65	1306,60
866,82	1288,17
866,99	1245,16
867,16	1282,03
867,32	1286,12
867,49	1310,70
867,66	1314,80
867,83	1308,65
867,99	1249,26
868,16	1302,51
868,33	1218,54
868,49	1234,93
868,66	1292,27
868,83	1316,84
868,99	1294,32
869,16	1263,60
869,33	1267,69
869,50	1261,55
869,66	1249,26
869,83	1222,64
870,00	1308,65
870,16	1284,08
870,33	1263,60
870,50	1253,36
870,66	1214,45
870,83	1200,11
871,00	1269,74
871,17	1261,55
871,33	1193,97
871,50	1279,98
871,67	1257,45
871,83	1216,49
872,00	1277,93
872,17	1273,84
872,33	1245,16
872,50	1243,12
872,67	1222,64
872,83	1306,60
873,00	1265,64
873,17	1282,03
873,33	1267,69
873,50	1306,60
873,67	1265,64
873,83	1290,22
874,00	1247,21
874,16	1269,74
874,33	1234,93
874,50	1243,12
874,66	1214,45
874,83	1247,21
875,00	1216,49
875,16	1239,02
875,33	1259,50
875,50	1282,03
875,66	1316,84
875,83	1329,13
875,99	1294,32
876,16	1294,32
876,33	1265,64
876,49	1282,03
876,66	1191,92
876,83	1308,65
876,99	1310,70
877,16	1230,83
877,32	1224,69
877,49	1310,70
877,66	1253,36
877,82	1306,60
877,99	1253,36
878,15	1288,17
878,32	1296,36
878,49	1241,07
878,65	1269,74
878,82	1331,18
878,98	1259,50
879,15	1279,98
879,32	1310,70
879,48	1234,93
879,65	1216,49
879,81	1267,69
879,98	1232,88
880,15	1329,13
880,31	1277,93
880,48	1255,40
880,64	1226,73
880,81	1251,31
880,97	1279,98
881,14	1232,88
881,31	1261,55
881,47	1304,56
881,64	1196,01
881,80	1247,21
881,97	1296,36
882,13	1279,98
882,30	1265,64
882,47	1308,65
882,63	1257,45
882,80	1322,99
882,96	1265,64
883,13	1191,92
883,29	1239,02
883,46	1255,40
883,62	1282,03
883,79	1241,07
883,95	1269,74
884,12	1202,16
884,29	1327,08
884,45	1325,04
884,62	1271,79
884,78	1255,40
884,95	1239,02
885,11	1253,36
885,28	1318,89
885,44	1224,69
885,61	1267,69
885,77	1288,17
885,94	1284,08
886,10	1222,64
886,27	1296,36
886,43	1269,74
886,60	1247,21
886,76	1193,97
886,93	1284,08
887,09	1236,97
887,26	1232,88
887,42	1241,07
887,59	1271,79
887,75	1351,66
887,92	1300,46
888,08	1196,01
888,25	1255,40
888,41	1255,40
888,58	1259,50
888,74	1290,22
888,91	1308,65
>>>>>End Processed Spectral Data<<<<<
