SpectraSuite Data File
++++++++++++++++++++++++++++++++++++
Date: Sun Apr 03 18:07:04 CEST 2016
User: root
Dark Spectrum Present: No
Reference Spectrum Present: No
Number of Sampled Component Spectra: 1
Spectrometers: USB4C02835
Integration Time (usec): 10000 (USB4C02835)
Spectra Averaged: 1 (USB4C02835)
Boxcar Smoothing: 0 (USB4C02835)
Correct for Electrical Dark: No (USB4C02835)
Strobe/Lamp Enabled: No (USB4C02835)
Correct for Detector Non-linearity: No (USB4C02835)
Correct for Stray Light: No (USB4C02835)
Number of Pixels in Processed Spectrum: 3648
>>>>>Begin Processed Spectral Data<<<<<
177,47	1277,93
177,69	1277,93
177,91	1277,93
178,13	1306,60
178,36	1177,58
178,58	1234,93
178,80	1331,18
179,02	1312,75
179,24	1269,74
179,46	1310,70
179,68	1261,55
179,90	1247,21
180,13	1288,17
180,35	1269,74
180,57	1198,06
180,79	1261,55
181,01	1216,49
181,23	1269,74
181,45	1251,31
181,67	1196,01
181,90	1288,17
182,12	1294,32
182,34	1298,41
182,56	1255,40
182,78	1265,64
183,00	1218,54
183,22	1245,16
183,44	1277,93
183,66	1343,47
183,89	1249,26
184,11	1255,40
184,33	1294,32
184,55	1343,47
184,77	1329,13
184,99	1296,36
185,21	1277,93
185,43	1243,12
185,65	1206,25
185,87	1282,03
186,10	1224,69
186,32	1286,12
186,54	1269,74
186,76	1359,85
186,98	1249,26
187,20	1232,88
187,42	1273,84
187,64	1247,21
187,86	1269,74
188,08	1273,84
188,30	1245,16
188,52	1247,21
188,75	1253,36
188,97	1208,30
189,19	1253,36
189,41	1261,55
189,63	1261,55
189,85	1279,98
190,07	1239,02
190,29	1222,64
190,51	1208,30
190,73	1304,56
190,95	1277,93
191,17	1206,25
191,39	1279,98
191,61	1304,56
191,84	1275,88
192,06	1247,21
192,28	1243,12
192,50	1302,51
192,72	1204,21
192,94	1288,17
193,16	1222,64
193,38	1316,84
193,60	1206,25
193,82	1273,84
194,04	1290,22
194,26	1239,02
194,48	1263,60
194,70	1241,07
194,92	1208,30
195,14	1335,28
195,36	1290,22
195,58	1257,45
195,80	1271,79
196,02	1343,47
196,24	1341,42
196,46	1322,99
196,69	1247,21
196,91	1204,21
197,13	1271,79
197,35	1257,45
197,57	1282,03
197,79	1249,26
198,01	1292,27
198,23	1247,21
198,45	1247,21
198,67	1263,60
198,89	1314,80
199,11	1210,35
199,33	1228,78
199,55	1167,34
199,77	1290,22
199,99	1255,40
200,21	1288,17
200,43	1271,79
200,65	1275,88
200,87	1247,21
201,09	1271,79
201,31	1345,52
201,53	1271,79
201,75	1259,50
201,97	1327,08
202,19	1310,70
202,41	1187,82
202,63	1304,56
202,85	1312,75
203,07	1284,08
203,29	1230,83
203,51	1284,08
203,73	1253,36
203,95	1325,04
204,17	1232,88
204,39	1247,21
204,61	1294,32
204,83	1234,93
205,05	1302,51
205,27	1269,74
205,49	1306,60
205,71	1269,74
205,93	1234,93
206,15	1255,40
206,37	1259,50
206,59	1206,25
206,81	1249,26
207,03	1198,06
207,25	1183,73
207,47	1259,50
207,69	1273,84
207,91	1306,60
208,13	1279,98
208,34	1286,12
208,56	1279,98
208,78	1277,93
209,00	1294,32
209,22	1247,21
209,44	1271,79
209,66	1296,36
209,88	1241,07
210,10	1253,36
210,32	1314,80
210,54	1294,32
210,76	1187,82
210,98	1275,88
211,20	1275,88
211,42	1361,90
211,64	1306,60
211,86	1275,88
212,08	1265,64
212,30	1363,95
212,52	1296,36
212,74	1247,21
212,96	1304,56
213,17	1224,69
213,39	1284,08
213,61	1286,12
213,83	1269,74
214,05	1277,93
214,27	1290,22
214,49	1267,69
214,71	1230,83
214,93	1286,12
215,15	1271,79
215,37	1310,70
215,59	1300,46
215,81	1230,83
216,03	1292,27
216,24	1204,21
216,46	1241,07
216,68	1222,64
216,90	1239,02
217,12	1220,59
217,34	1337,32
217,56	1314,80
217,78	1327,08
218,00	1224,69
218,22	1208,30
218,44	1286,12
218,66	1284,08
218,87	1388,52
219,09	1265,64
219,31	1222,64
219,53	1286,12
219,75	1265,64
219,97	1226,73
220,19	1232,88
220,41	1275,88
220,63	1239,02
220,85	1212,40
221,06	1245,16
221,28	1282,03
221,50	1226,73
221,72	1220,59
221,94	1230,83
222,16	1269,74
222,38	1257,45
222,60	1267,69
222,82	1282,03
223,03	1286,12
223,25	1298,41
223,47	1179,63
223,69	1298,41
223,91	1359,85
224,13	1255,40
224,35	1294,32
224,57	1288,17
224,78	1253,36
225,00	1320,94
225,22	1267,69
225,44	1294,32
225,66	1310,70
225,88	1292,27
226,10	1251,31
226,32	1212,40
226,53	1279,98
226,75	1290,22
226,97	1265,64
227,19	1304,56
227,41	1327,08
227,63	1261,55
227,85	1259,50
228,06	1265,64
228,28	1226,73
228,50	1236,97
228,72	1224,69
228,94	1249,26
229,16	1208,30
229,37	1288,17
229,59	1234,93
229,81	1296,36
230,03	1325,04
230,25	1267,69
230,47	1257,45
230,69	1204,21
230,90	1236,97
231,12	1269,74
231,34	1333,23
231,56	1257,45
231,78	1249,26
232,00	1222,64
232,21	1370,09
232,43	1198,06
232,65	1239,02
232,87	1322,99
233,09	1251,31
233,30	1273,84
233,52	1343,47
233,74	1198,06
233,96	1245,16
234,18	1363,95
234,40	1265,64
234,61	1228,78
234,83	1198,06
235,05	1245,16
235,27	1265,64
235,49	1257,45
235,70	1257,45
235,92	1267,69
236,14	1333,23
236,36	1286,12
236,58	1314,80
236,79	1253,36
237,01	1310,70
237,23	1273,84
237,45	1267,69
237,67	1228,78
237,88	1230,83
238,10	1277,93
238,32	1267,69
238,54	1269,74
238,76	1277,93
238,97	1247,21
239,19	1284,08
239,41	1273,84
239,63	1251,31
239,85	1277,93
240,06	1261,55
240,28	1198,06
240,50	1290,22
240,72	1216,49
240,93	1253,36
241,15	1294,32
241,37	1284,08
241,59	1288,17
241,81	1241,07
242,02	1271,79
242,24	1236,97
242,46	1224,69
242,68	1243,12
242,89	1306,60
243,11	1243,12
243,33	1267,69
243,55	1259,50
243,76	1253,36
243,98	1288,17
244,20	1302,51
244,42	1204,21
244,64	1282,03
244,85	1273,84
245,07	1304,56
245,29	1214,45
245,51	1294,32
245,72	1179,63
245,94	1292,27
246,16	1322,99
246,38	1220,59
246,59	1308,65
246,81	1214,45
247,03	1245,16
247,24	1292,27
247,46	1255,40
247,68	1294,32
247,90	1253,36
248,11	1216,49
248,33	1236,97
248,55	1265,64
248,77	1226,73
248,98	1259,50
249,20	1284,08
249,42	1247,21
249,64	1292,27
249,85	1253,36
250,07	1308,65
250,29	1345,52
250,50	1306,60
250,72	1282,03
250,94	1327,08
251,16	1259,50
251,37	1355,76
251,59	1304,56
251,81	1230,83
252,02	1282,03
252,24	1255,40
252,46	1312,75
252,68	1304,56
252,89	1294,32
253,11	1230,83
253,33	1298,41
253,54	1304,56
253,76	1181,68
253,98	1277,93
254,20	1249,26
254,41	1253,36
254,63	1243,12
254,85	1222,64
255,06	1236,97
255,28	1329,13
255,50	1257,45
255,71	1286,12
255,93	1216,49
256,15	1230,83
256,36	1214,45
256,58	1249,26
256,80	1335,28
257,02	1277,93
257,23	1288,17
257,45	1222,64
257,67	1271,79
257,88	1230,83
258,10	1263,60
258,32	1327,08
258,53	1273,84
258,75	1318,89
258,97	1245,16
259,18	1218,54
259,40	1286,12
259,62	1232,88
259,83	1243,12
260,05	1335,28
260,27	1331,18
260,48	1234,93
260,70	1243,12
260,92	1312,75
261,13	1277,93
261,35	1290,22
261,57	1245,16
261,78	1204,21
262,00	1239,02
262,22	1224,69
262,43	1277,93
262,65	1259,50
262,86	1322,99
263,08	1216,49
263,30	1232,88
263,51	1230,83
263,73	1335,28
263,95	1290,22
264,16	1269,74
264,38	1210,35
264,60	1232,88
264,81	1210,35
265,03	1284,08
265,25	1288,17
265,46	1288,17
265,68	1265,64
265,89	1320,94
266,11	1220,59
266,33	1275,88
266,54	1247,21
266,76	1306,60
266,98	1265,64
267,19	1288,17
267,41	1257,45
267,62	1255,40
267,84	1234,93
268,06	1353,71
268,27	1263,60
268,49	1263,60
268,70	1243,12
268,92	1265,64
269,14	1271,79
269,35	1273,84
269,57	1255,40
269,79	1261,55
270,00	1288,17
270,22	1257,45
270,43	1259,50
270,65	1253,36
270,87	1214,45
271,08	1304,56
271,30	1220,59
271,51	1216,49
271,73	1294,32
271,95	1232,88
272,16	1247,21
272,38	1193,97
272,59	1359,85
272,81	1232,88
273,02	1230,83
273,24	1275,88
273,46	1304,56
273,67	1282,03
273,89	1318,89
274,10	1302,51
274,32	1243,12
274,54	1284,08
274,75	1234,93
274,97	1257,45
275,18	1259,50
275,40	1290,22
275,61	1257,45
275,83	1265,64
276,05	1279,98
276,26	1204,21
276,48	1224,69
276,69	1314,80
276,91	1259,50
277,12	1282,03
277,34	1247,21
277,55	1277,93
277,77	1259,50
277,99	1253,36
278,20	1228,78
278,42	1239,02
278,63	1273,84
278,85	1273,84
279,06	1290,22
279,28	1267,69
279,49	1277,93
279,71	1265,64
279,93	1247,21
280,14	1282,03
280,36	1290,22
280,57	1208,30
280,79	1261,55
281,00	1230,83
281,22	1222,64
281,43	1255,40
281,65	1253,36
281,86	1304,56
282,08	1298,41
282,29	1236,97
282,51	1337,32
282,73	1327,08
282,94	1236,97
283,16	1294,32
283,37	1343,47
283,59	1257,45
283,80	1232,88
284,02	1241,07
284,23	1318,89
284,45	1241,07
284,66	1279,98
284,88	1273,84
285,09	1249,26
285,31	1204,21
285,52	1310,70
285,74	1208,30
285,95	1286,12
286,17	1206,25
286,38	1288,17
286,60	1249,26
286,81	1230,83
287,03	1314,80
287,24	1257,45
287,46	1298,41
287,67	1249,26
287,89	1331,18
288,10	1279,98
288,32	1245,16
288,53	1236,97
288,75	1290,22
288,96	1241,07
289,18	1247,21
289,39	1241,07
289,61	1282,03
289,82	1239,02
290,04	1284,08
290,25	1241,07
290,47	1241,07
290,68	1228,78
290,90	1306,60
291,11	1216,49
291,33	1312,75
291,54	1224,69
291,76	1316,84
291,97	1239,02
292,18	1255,40
292,40	1298,41
292,61	1275,88
292,83	1298,41
293,04	1263,60
293,26	1327,08
293,47	1257,45
293,69	1210,35
293,90	1312,75
294,12	1279,98
294,33	1216,49
294,55	1277,93
294,76	1259,50
294,97	1212,40
295,19	1259,50
295,40	1286,12
295,62	1282,03
295,83	1243,12
296,05	1327,08
296,26	1314,80
296,48	1214,45
296,69	1249,26
296,90	1290,22
297,12	1312,75
297,33	1298,41
297,55	1290,22
297,76	1253,36
297,98	1247,21
298,19	1251,31
298,41	1232,88
298,62	1298,41
298,83	1275,88
299,05	1282,03
299,26	1261,55
299,48	1273,84
299,69	1243,12
299,90	1236,97
300,12	1200,11
300,33	1341,42
300,55	1300,46
300,76	1255,40
300,98	1263,60
301,19	1267,69
301,40	1226,73
301,62	1325,04
301,83	1193,97
302,05	1218,54
302,26	1251,31
302,47	1261,55
302,69	1253,36
302,90	1320,94
303,12	1314,80
303,33	1294,32
303,54	1257,45
303,76	1189,87
303,97	1234,93
304,19	1290,22
304,40	1308,65
304,61	1271,79
304,83	1294,32
305,04	1263,60
305,26	1300,46
305,47	1265,64
305,68	1267,69
305,90	1263,60
306,11	1265,64
306,33	1306,60
306,54	1230,83
306,75	1228,78
306,97	1196,01
307,18	1202,16
307,39	1335,28
307,61	1286,12
307,82	1335,28
308,04	1308,65
308,25	1347,56
308,46	1312,75
308,68	1296,36
308,89	1247,21
309,10	1286,12
309,32	1243,12
309,53	1259,50
309,74	1257,45
309,96	1224,69
310,17	1269,74
310,39	1212,40
310,60	1292,27
310,81	1196,01
311,03	1306,60
311,24	1288,17
311,45	1302,51
311,67	1236,97
311,88	1191,92
312,09	1251,31
312,31	1298,41
312,52	1284,08
312,73	1269,74
312,95	1273,84
313,16	1247,21
313,37	1253,36
313,59	1316,84
313,80	1302,51
314,01	1282,03
314,23	1322,99
314,44	1275,88
314,65	1191,92
314,87	1247,21
315,08	1212,40
315,29	1261,55
315,51	1249,26
315,72	1273,84
315,93	1296,36
316,15	1368,04
316,36	1302,51
316,57	1247,21
316,79	1275,88
317,00	1181,68
317,21	1312,75
317,43	1329,13
317,64	1255,40
317,85	1322,99
318,07	1245,16
318,28	1353,71
318,49	1263,60
318,70	1308,65
318,92	1294,32
319,13	1353,71
319,34	1306,60
319,56	1265,64
319,77	1329,13
319,98	1249,26
320,20	1275,88
320,41	1290,22
320,62	1257,45
320,83	1335,28
321,05	1200,11
321,26	1228,78
321,47	1222,64
321,69	1277,93
321,90	1290,22
322,11	1345,52
322,32	1302,51
322,54	1251,31
322,75	1296,36
322,96	1273,84
323,18	1226,73
323,39	1294,32
323,60	1312,75
323,81	1236,97
324,03	1273,84
324,24	1273,84
324,45	1263,60
324,66	1202,16
324,88	1218,54
325,09	1271,79
325,30	1290,22
325,52	1247,21
325,73	1322,99
325,94	1290,22
326,15	1277,93
326,37	1275,88
326,58	1304,56
326,79	1290,22
327,00	1224,69
327,22	1202,16
327,43	1288,17
327,64	1298,41
327,85	1245,16
328,07	1300,46
328,28	1273,84
328,49	1271,79
328,70	1247,21
328,92	1241,07
329,13	1220,59
329,34	1290,22
329,55	1300,46
329,76	1286,12
329,98	1298,41
330,19	1265,64
330,40	1318,89
330,61	1298,41
330,83	1245,16
331,04	1343,47
331,25	1249,26
331,46	1255,40
331,68	1267,69
331,89	1343,47
332,10	1363,95
332,31	1196,01
332,52	1265,64
332,74	1208,30
332,95	1335,28
333,16	1292,27
333,37	1292,27
333,58	1265,64
333,80	1249,26
334,01	1222,64
334,22	1232,88
334,43	1290,22
334,64	1214,45
334,86	1269,74
335,07	1273,84
335,28	1183,73
335,49	1255,40
335,70	1267,69
335,92	1304,56
336,13	1333,23
336,34	1216,49
336,55	1228,78
336,76	1304,56
336,98	1366,00
337,19	1247,21
337,40	1318,89
337,61	1273,84
337,82	1376,24
338,04	1271,79
338,25	1259,50
338,46	1277,93
338,67	1216,49
338,88	1224,69
339,09	1273,84
339,31	1191,92
339,52	1232,88
339,73	1249,26
339,94	1212,40
340,15	1216,49
340,36	1245,16
340,58	1228,78
340,79	1239,02
341,00	1265,64
341,21	1230,83
341,42	1224,69
341,63	1216,49
341,85	1241,07
342,06	1306,60
342,27	1282,03
342,48	1298,41
342,69	1275,88
342,90	1347,56
343,12	1216,49
343,33	1247,21
343,54	1236,97
343,75	1273,84
343,96	1314,80
344,17	1236,97
344,38	1271,79
344,60	1294,32
344,81	1243,12
345,02	1327,08
345,23	1228,78
345,44	1232,88
345,65	1286,12
345,86	1239,02
346,07	1193,97
346,29	1259,50
346,50	1220,59
346,71	1257,45
346,92	1226,73
347,13	1306,60
347,34	1257,45
347,55	1230,83
347,76	1292,27
347,98	1251,31
348,19	1306,60
348,40	1298,41
348,61	1179,63
348,82	1284,08
349,03	1226,73
349,24	1347,56
349,45	1241,07
349,66	1257,45
349,88	1204,21
350,09	1232,88
350,30	1298,41
350,51	1300,46
350,72	1220,59
350,93	1294,32
351,14	1388,52
351,35	1243,12
351,56	1290,22
351,77	1337,32
351,99	1239,02
352,20	1312,75
352,41	1306,60
352,62	1226,73
352,83	1167,34
353,04	1206,25
353,25	1239,02
353,46	1259,50
353,67	1251,31
353,88	1220,59
354,09	1318,89
354,30	1249,26
354,52	1327,08
354,73	1220,59
354,94	1228,78
355,15	1236,97
355,36	1245,16
355,57	1273,84
355,78	1306,60
355,99	1253,36
356,20	1267,69
356,41	1185,77
356,62	1310,70
356,83	1239,02
357,04	1296,36
357,25	1320,94
357,46	1241,07
357,68	1253,36
357,89	1331,18
358,10	1198,06
358,31	1261,55
358,52	1304,56
358,73	1232,88
358,94	1320,94
359,15	1286,12
359,36	1236,97
359,57	1308,65
359,78	1314,80
359,99	1228,78
360,20	1251,31
360,41	1349,61
360,62	1290,22
360,83	1378,28
361,04	1226,73
361,25	1349,61
361,46	1261,55
361,67	1234,93
361,88	1300,46
362,09	1222,64
362,30	1316,84
362,51	1292,27
362,72	1255,40
362,93	1277,93
363,14	1296,36
363,35	1202,16
363,56	1255,40
363,78	1193,97
363,99	1257,45
364,20	1263,60
364,41	1288,17
364,62	1269,74
364,83	1220,59
365,04	1290,22
365,25	1318,89
365,46	1273,84
365,67	1206,25
365,88	1251,31
366,09	1304,56
366,30	1273,84
366,51	1267,69
366,72	1304,56
366,93	1298,41
367,14	1163,25
367,35	1247,21
367,56	1173,49
367,77	1282,03
367,98	1253,36
368,18	1255,40
368,39	1241,07
368,60	1273,84
368,81	1253,36
369,02	1318,89
369,23	1247,21
369,44	1247,21
369,65	1288,17
369,86	1257,45
370,07	1308,65
370,28	1273,84
370,49	1214,45
370,70	1239,02
370,91	1222,64
371,12	1273,84
371,33	1208,30
371,54	1331,18
371,75	1232,88
371,96	1243,12
372,17	1249,26
372,38	1261,55
372,59	1259,50
372,80	1275,88
373,01	1282,03
373,22	1263,60
373,43	1314,80
373,64	1196,01
373,85	1202,16
374,06	1259,50
374,26	1282,03
374,47	1300,46
374,68	1310,70
374,89	1337,32
375,10	1294,32
375,31	1263,60
375,52	1241,07
375,73	1298,41
375,94	1249,26
376,15	1357,80
376,36	1277,93
376,57	1320,94
376,78	1265,64
376,99	1304,56
377,20	1204,21
377,40	1286,12
377,61	1273,84
377,82	1228,78
378,03	1257,45
378,24	1249,26
378,45	1247,21
378,66	1273,84
378,87	1179,63
379,08	1275,88
379,29	1320,94
379,50	1292,27
379,71	1304,56
379,91	1284,08
380,12	1273,84
380,33	1269,74
380,54	1263,60
380,75	1224,69
380,96	1253,36
381,17	1298,41
381,38	1279,98
381,59	1236,97
381,80	1296,36
382,00	1273,84
382,21	1212,40
382,42	1314,80
382,63	1294,32
382,84	1290,22
383,05	1261,55
383,26	1331,18
383,47	1279,98
383,68	1298,41
383,88	1204,21
384,09	1327,08
384,30	1261,55
384,51	1236,97
384,72	1187,82
384,93	1228,78
385,14	1224,69
385,35	1292,27
385,55	1249,26
385,76	1288,17
385,97	1300,46
386,18	1253,36
386,39	1292,27
386,60	1294,32
386,81	1261,55
387,02	1251,31
387,22	1249,26
387,43	1310,70
387,64	1271,79
387,85	1277,93
388,06	1255,40
388,27	1327,08
388,48	1257,45
388,68	1304,56
388,89	1269,74
389,10	1314,80
389,31	1234,93
389,52	1279,98
389,73	1318,89
389,93	1322,99
390,14	1236,97
390,35	1257,45
390,56	1286,12
390,77	1302,51
390,98	1251,31
391,18	1226,73
391,39	1216,49
391,60	1282,03
391,81	1327,08
392,02	1247,21
392,23	1251,31
392,43	1204,21
392,64	1341,42
392,85	1271,79
393,06	1310,70
393,27	1269,74
393,47	1304,56
393,68	1204,21
393,89	1239,02
394,10	1277,93
394,31	1224,69
394,52	1218,54
394,72	1314,80
394,93	1224,69
395,14	1243,12
395,35	1273,84
395,56	1228,78
395,76	1263,60
395,97	1308,65
396,18	1325,04
396,39	1269,74
396,60	1286,12
396,80	1290,22
397,01	1300,46
397,22	1310,70
397,43	1232,88
397,64	1261,55
397,84	1275,88
398,05	1316,84
398,26	1253,36
398,47	1239,02
398,67	1198,06
398,88	1253,36
399,09	1208,30
399,30	1261,55
399,51	1232,88
399,71	1300,46
399,92	1232,88
400,13	1232,88
400,34	1374,19
400,54	1316,84
400,75	1331,18
400,96	1239,02
401,17	1271,79
401,37	1234,93
401,58	1212,40
401,79	1239,02
402,00	1239,02
402,21	1269,74
402,41	1271,79
402,62	1265,64
402,83	1304,56
403,04	1298,41
403,24	1208,30
403,45	1212,40
403,66	1265,64
403,87	1220,59
404,07	1271,79
404,28	1343,47
404,49	1206,25
404,70	1296,36
404,90	1234,93
405,11	1277,93
405,32	1337,32
405,52	1193,97
405,73	1353,71
405,94	1325,04
406,15	1232,88
406,35	1294,32
406,56	1204,21
406,77	1216,49
406,98	1267,69
407,18	1261,55
407,39	1306,60
407,60	1275,88
407,80	1325,04
408,01	1320,94
408,22	1261,55
408,43	1245,16
408,63	1255,40
408,84	1234,93
409,05	1257,45
409,25	1333,23
409,46	1236,97
409,67	1198,06
409,88	1218,54
410,08	1183,73
410,29	1314,80
410,50	1181,68
410,70	1331,18
410,91	1343,47
411,12	1255,40
411,32	1282,03
411,53	1226,73
411,74	1226,73
411,95	1220,59
412,15	1263,60
412,36	1165,29
412,57	1322,99
412,77	1325,04
412,98	1257,45
413,19	1265,64
413,39	1239,02
413,60	1298,41
413,81	1269,74
414,01	1257,45
414,22	1247,21
414,43	1345,52
414,63	1163,25
414,84	1163,25
415,05	1308,65
415,25	1267,69
415,46	1269,74
415,67	1214,45
415,87	1232,88
416,08	1282,03
416,29	1236,97
416,49	1267,69
416,70	1277,93
416,91	1257,45
417,11	1286,12
417,32	1306,60
417,53	1269,74
417,73	1290,22
417,94	1218,54
418,15	1273,84
418,35	1263,60
418,56	1304,56
418,77	1259,50
418,97	1271,79
419,18	1230,83
419,38	1316,84
419,59	1234,93
419,80	1318,89
420,00	1304,56
420,21	1259,50
420,42	1189,87
420,62	1232,88
420,83	1294,32
421,04	1261,55
421,24	1230,83
421,45	1286,12
421,65	1234,93
421,86	1263,60
422,07	1261,55
422,27	1222,64
422,48	1218,54
422,69	1279,98
422,89	1196,01
423,10	1241,07
423,30	1241,07
423,51	1236,97
423,72	1259,50
423,92	1308,65
424,13	1202,16
424,33	1312,75
424,54	1232,88
424,75	1282,03
424,95	1308,65
425,16	1298,41
425,36	1263,60
425,57	1232,88
425,78	1288,17
425,98	1269,74
426,19	1226,73
426,39	1275,88
426,60	1257,45
426,81	1292,27
427,01	1247,21
427,22	1251,31
427,42	1228,78
427,63	1343,47
427,83	1247,21
428,04	1144,81
428,25	1329,13
428,45	1296,36
428,66	1239,02
428,86	1306,60
429,07	1255,40
429,28	1191,92
429,48	1263,60
429,69	1251,31
429,89	1288,17
430,10	1271,79
430,30	1308,65
430,51	1249,26
430,71	1269,74
430,92	1269,74
431,13	1245,16
431,33	1241,07
431,54	1224,69
431,74	1257,45
431,95	1234,93
432,15	1288,17
432,36	1253,36
432,56	1310,70
432,77	1257,45
432,98	1357,80
433,18	1345,52
433,39	1253,36
433,59	1261,55
433,80	1191,92
434,00	1284,08
434,21	1208,30
434,41	1269,74
434,62	1187,82
434,82	1331,18
435,03	1277,93
435,23	1234,93
435,44	1212,40
435,64	1200,11
435,85	1251,31
436,06	1277,93
436,26	1263,60
436,47	1247,21
436,67	1259,50
436,88	1241,07
437,08	1310,70
437,29	1261,55
437,49	1247,21
437,70	1271,79
437,90	1314,80
438,11	1318,89
438,31	1288,17
438,52	1234,93
438,72	1269,74
438,93	1288,17
439,13	1269,74
439,34	1298,41
439,54	1271,79
439,75	1247,21
439,95	1265,64
440,16	1251,31
440,36	1269,74
440,57	1286,12
440,77	1259,50
440,98	1181,68
441,18	1239,02
441,39	1220,59
441,59	1259,50
441,80	1273,84
442,00	1286,12
442,21	1306,60
442,41	1220,59
442,62	1200,11
442,82	1290,22
443,02	1265,64
443,23	1271,79
443,43	1306,60
443,64	1294,32
443,84	1269,74
444,05	1232,88
444,25	1296,36
444,46	1245,16
444,66	1277,93
444,87	1308,65
445,07	1325,04
445,28	1335,28
445,48	1236,97
445,69	1255,40
445,89	1279,98
446,09	1279,98
446,30	1198,06
446,50	1286,12
446,71	1273,84
446,91	1226,73
447,12	1208,30
447,32	1269,74
447,53	1243,12
447,73	1220,59
447,93	1214,45
448,14	1247,21
448,34	1345,52
448,55	1245,16
448,75	1253,36
448,96	1292,27
449,16	1294,32
449,36	1253,36
449,57	1269,74
449,77	1267,69
449,98	1310,70
450,18	1300,46
450,39	1284,08
450,59	1273,84
450,79	1159,15
451,00	1269,74
451,20	1232,88
451,41	1273,84
451,61	1339,37
451,81	1265,64
452,02	1196,01
452,22	1306,60
452,43	1243,12
452,63	1413,10
452,84	1265,64
453,04	1265,64
453,24	1325,04
453,45	1322,99
453,65	1251,31
453,86	1284,08
454,06	1343,47
454,26	1286,12
454,47	1275,88
454,67	1185,77
454,87	1290,22
455,08	1261,55
455,28	1222,64
455,49	1189,87
455,69	1214,45
455,89	1193,97
456,10	1269,74
456,30	1255,40
456,51	1241,07
456,71	1306,60
456,91	1249,26
457,12	1318,89
457,32	1222,64
457,52	1366,00
457,73	1282,03
457,93	1292,27
458,14	1261,55
458,34	1267,69
458,54	1267,69
458,75	1284,08
458,95	1245,16
459,15	1273,84
459,36	1277,93
459,56	1265,64
459,76	1314,80
459,97	1279,98
460,17	1222,64
460,37	1335,28
460,58	1329,13
460,78	1304,56
460,99	1224,69
461,19	1267,69
461,39	1282,03
461,60	1239,02
461,80	1216,49
462,00	1263,60
462,21	1255,40
462,41	1265,64
462,61	1304,56
462,82	1286,12
463,02	1263,60
463,22	1284,08
463,43	1314,80
463,63	1271,79
463,83	1234,93
464,04	1255,40
464,24	1253,36
464,44	1282,03
464,64	1308,65
464,85	1204,21
465,05	1234,93
465,25	1310,70
465,46	1251,31
465,66	1286,12
465,86	1245,16
466,07	1261,55
466,27	1273,84
466,47	1204,21
466,68	1298,41
466,88	1218,54
467,08	1210,35
467,29	1331,18
467,49	1286,12
467,69	1255,40
467,89	1251,31
468,10	1345,52
468,30	1296,36
468,50	1279,98
468,71	1234,93
468,91	1282,03
469,11	1234,93
469,31	1249,26
469,52	1279,98
469,72	1271,79
469,92	1279,98
470,13	1224,69
470,33	1232,88
470,53	1243,12
470,73	1251,31
470,94	1294,32
471,14	1189,87
471,34	1304,56
471,54	1261,55
471,75	1239,02
471,95	1239,02
472,15	1212,40
472,36	1257,45
472,56	1144,81
472,76	1275,88
472,96	1347,56
473,17	1290,22
473,37	1310,70
473,57	1241,07
473,77	1376,24
473,98	1218,54
474,18	1263,60
474,38	1316,84
474,58	1210,35
474,79	1314,80
474,99	1370,09
475,19	1318,89
475,39	1345,52
475,60	1228,78
475,80	1261,55
476,00	1292,27
476,20	1279,98
476,41	1292,27
476,61	1288,17
476,81	1208,30
477,01	1193,97
477,21	1282,03
477,42	1255,40
477,62	1265,64
477,82	1392,62
478,02	1241,07
478,23	1265,64
478,43	1384,43
478,63	1288,17
478,83	1298,41
479,03	1257,45
479,24	1263,60
479,44	1265,64
479,64	1279,98
479,84	1279,98
480,04	1230,83
480,25	1292,27
480,45	1288,17
480,65	1249,26
480,85	1239,02
481,06	1284,08
481,26	1263,60
481,46	1361,90
481,66	1296,36
481,86	1277,93
482,06	1208,30
482,27	1314,80
482,47	1312,75
482,67	1282,03
482,87	1241,07
483,07	1361,90
483,28	1300,46
483,48	1218,54
483,68	1239,02
483,88	1259,50
484,08	1255,40
484,29	1251,31
484,49	1269,74
484,69	1279,98
484,89	1228,78
485,09	1275,88
485,29	1275,88
485,50	1193,97
485,70	1202,16
485,90	1255,40
486,10	1292,27
486,30	1333,23
486,50	1282,03
486,71	1220,59
486,91	1292,27
487,11	1255,40
487,31	1243,12
487,51	1247,21
487,71	1196,01
487,91	1288,17
488,12	1261,55
488,32	1263,60
488,52	1314,80
488,72	1255,40
488,92	1279,98
489,12	1279,98
489,32	1245,16
489,53	1306,60
489,73	1271,79
489,93	1279,98
490,13	1279,98
490,33	1316,84
490,53	1282,03
490,73	1251,31
490,94	1257,45
491,14	1220,59
491,34	1251,31
491,54	1273,84
491,74	1273,84
491,94	1298,41
492,14	1329,13
492,34	1372,14
492,54	1234,93
492,75	1279,98
492,95	1277,93
493,15	1296,36
493,35	1247,21
493,55	1232,88
493,75	1267,69
493,95	1359,85
494,15	1275,88
494,35	1243,12
494,56	1216,49
494,76	1271,79
494,96	1279,98
495,16	1234,93
495,36	1273,84
495,56	1284,08
495,76	1191,92
495,96	1265,64
496,16	1241,07
496,36	1298,41
496,56	1196,01
496,77	1236,97
496,97	1292,27
497,17	1300,46
497,37	1273,84
497,57	1331,18
497,77	1265,64
497,97	1298,41
498,17	1290,22
498,37	1226,73
498,57	1257,45
498,77	1259,50
498,97	1304,56
499,17	1357,80
499,38	1222,64
499,58	1294,32
499,78	1310,70
499,98	1302,51
500,18	1245,16
500,38	1308,65
500,58	1290,22
500,78	1349,61
500,98	1253,36
501,18	1191,92
501,38	1243,12
501,58	1253,36
501,78	1288,17
501,98	1224,69
502,18	1322,99
502,38	1255,40
502,58	1220,59
502,78	1220,59
502,98	1302,51
503,18	1306,60
503,38	1261,55
503,59	1263,60
503,79	1263,60
503,99	1261,55
504,19	1259,50
504,39	1204,21
504,59	1261,55
504,79	1236,97
504,99	1247,21
505,19	1318,89
505,39	1269,74
505,59	1271,79
505,79	1314,80
505,99	1234,93
506,19	1269,74
506,39	1296,36
506,59	1314,80
506,79	1267,69
506,99	1298,41
507,19	1298,41
507,39	1298,41
507,59	1314,80
507,79	1294,32
507,99	1282,03
508,19	1290,22
508,39	1243,12
508,59	1302,51
508,79	1273,84
508,99	1290,22
509,19	1263,60
509,39	1232,88
509,59	1247,21
509,79	1304,56
509,99	1296,36
510,19	1288,17
510,39	1288,17
510,59	1265,64
510,79	1216,49
510,99	1204,21
511,19	1232,88
511,39	1255,40
511,59	1300,46
511,79	1267,69
511,99	1284,08
512,19	1193,97
512,38	1279,98
512,58	1273,84
512,78	1247,21
512,98	1251,31
513,18	1286,12
513,38	1288,17
513,58	1343,47
513,78	1263,60
513,98	1249,26
514,18	1267,69
514,38	1216,49
514,58	1261,55
514,78	1228,78
514,98	1179,63
515,18	1230,83
515,38	1294,32
515,58	1298,41
515,78	1327,08
515,98	1222,64
516,18	1288,17
516,38	1239,02
516,57	1265,64
516,77	1218,54
516,97	1288,17
517,17	1245,16
517,37	1255,40
517,57	1282,03
517,77	1298,41
517,97	1322,99
518,17	1273,84
518,37	1265,64
518,57	1218,54
518,77	1300,46
518,97	1253,36
519,16	1300,46
519,36	1249,26
519,56	1261,55
519,76	1300,46
519,96	1206,25
520,16	1335,28
520,36	1294,32
520,56	1230,83
520,76	1224,69
520,96	1333,23
521,16	1241,07
521,35	1302,51
521,55	1261,55
521,75	1255,40
521,95	1189,87
522,15	1257,45
522,35	1273,84
522,55	1249,26
522,75	1247,21
522,95	1292,27
523,14	1294,32
523,34	1218,54
523,54	1218,54
523,74	1288,17
523,94	1366,00
524,14	1236,97
524,34	1255,40
524,54	1261,55
524,73	1243,12
524,93	1302,51
525,13	1279,98
525,33	1294,32
525,53	1282,03
525,73	1255,40
525,93	1230,83
526,13	1230,83
526,32	1269,74
526,52	1273,84
526,72	1376,24
526,92	1210,35
527,12	1286,12
527,32	1228,78
527,52	1265,64
527,71	1298,41
527,91	1232,88
528,11	1269,74
528,31	1222,64
528,51	1202,16
528,71	1263,60
528,90	1300,46
529,10	1261,55
529,30	1226,73
529,50	1273,84
529,70	1292,27
529,90	1275,88
530,09	1228,78
530,29	1296,36
530,49	1198,06
530,69	1308,65
530,89	1247,21
531,09	1263,60
531,28	1308,65
531,48	1267,69
531,68	1271,79
531,88	1228,78
532,08	1304,56
532,28	1243,12
532,47	1261,55
532,67	1337,32
532,87	1216,49
533,07	1257,45
533,27	1230,83
533,46	1329,13
533,66	1279,98
533,86	1220,59
534,06	1216,49
534,26	1249,26
534,45	1312,75
534,65	1290,22
534,85	1271,79
535,05	1292,27
535,25	1255,40
535,44	1263,60
535,64	1304,56
535,84	1245,16
536,04	1245,16
536,24	1255,40
536,43	1300,46
536,63	1206,25
536,83	1292,27
537,03	1290,22
537,22	1327,08
537,42	1226,73
537,62	1288,17
537,82	1257,45
538,02	1308,65
538,21	1214,45
538,41	1251,31
538,61	1261,55
538,81	1236,97
539,00	1312,75
539,20	1316,84
539,40	1298,41
539,60	1273,84
539,79	1253,36
539,99	1253,36
540,19	1234,93
540,39	1277,93
540,58	1206,25
540,78	1232,88
540,98	1230,83
541,18	1343,47
541,37	1306,60
541,57	1245,16
541,77	1267,69
541,97	1249,26
542,16	1247,21
542,36	1257,45
542,56	1273,84
542,76	1288,17
542,95	1322,99
543,15	1251,31
543,35	1277,93
543,54	1261,55
543,74	1243,12
543,94	1292,27
544,14	1257,45
544,33	1312,75
544,53	1196,01
544,73	1300,46
544,93	1249,26
545,12	1200,11
545,32	1265,64
545,52	1361,90
545,71	1296,36
545,91	1218,54
546,11	1251,31
546,30	1259,50
546,50	1234,93
546,70	1339,37
546,90	1275,88
547,09	1325,04
547,29	1265,64
547,49	1261,55
547,68	1267,69
547,88	1247,21
548,08	1275,88
548,27	1359,85
548,47	1239,02
548,67	1241,07
548,87	1259,50
549,06	1253,36
549,26	1304,56
549,46	1361,90
549,65	1245,16
549,85	1304,56
550,05	1269,74
550,24	1253,36
550,44	1208,30
550,64	1222,64
550,83	1247,21
551,03	1322,99
551,23	1206,25
551,42	1236,97
551,62	1329,13
551,82	1282,03
552,01	1275,88
552,21	1337,32
552,41	1296,36
552,60	1232,88
552,80	1273,84
553,00	1245,16
553,19	1269,74
553,39	1202,16
553,59	1253,36
553,78	1269,74
553,98	1298,41
554,17	1290,22
554,37	1261,55
554,57	1253,36
554,76	1308,65
554,96	1263,60
555,16	1230,83
555,35	1277,93
555,55	1351,66
555,75	1306,60
555,94	1277,93
556,14	1224,69
556,33	1259,50
556,53	1245,16
556,73	1273,84
556,92	1241,07
557,12	1261,55
557,32	1290,22
557,51	1353,71
557,71	1249,26
557,90	1298,41
558,10	1259,50
558,30	1267,69
558,49	1175,53
558,69	1212,40
558,88	1226,73
559,08	1236,97
559,28	1279,98
559,47	1296,36
559,67	1322,99
559,86	1257,45
560,06	1257,45
560,26	1257,45
560,45	1193,97
560,65	1269,74
560,84	1255,40
561,04	1257,45
561,24	1185,77
561,43	1261,55
561,63	1265,64
561,82	1271,79
562,02	1271,79
562,22	1282,03
562,41	1288,17
562,61	1273,84
562,80	1191,92
563,00	1286,12
563,19	1265,64
563,39	1292,27
563,59	1255,40
563,78	1290,22
563,98	1327,08
564,17	1249,26
564,37	1230,83
564,56	1255,40
564,76	1228,78
564,96	1224,69
565,15	1265,64
565,35	1288,17
565,54	1228,78
565,74	1255,40
565,93	1314,80
566,13	1226,73
566,32	1212,40
566,52	1241,07
566,71	1290,22
566,91	1329,13
567,11	1257,45
567,30	1261,55
567,50	1253,36
567,69	1255,40
567,89	1226,73
568,08	1191,92
568,28	1329,13
568,47	1292,27
568,67	1288,17
568,86	1212,40
569,06	1271,79
569,25	1232,88
569,45	1241,07
569,64	1210,35
569,84	1241,07
570,04	1288,17
570,23	1279,98
570,43	1331,18
570,62	1269,74
570,82	1284,08
571,01	1249,26
571,21	1226,73
571,40	1253,36
571,60	1241,07
571,79	1239,02
571,99	1282,03
572,18	1269,74
572,38	1316,84
572,57	1245,16
572,77	1288,17
572,96	1222,64
573,16	1253,36
573,35	1304,56
573,55	1363,95
573,74	1234,93
573,94	1292,27
574,13	1273,84
574,33	1214,45
574,52	1271,79
574,71	1273,84
574,91	1224,69
575,10	1183,73
575,30	1245,16
575,49	1284,08
575,69	1273,84
575,88	1279,98
576,08	1247,21
576,27	1333,23
576,47	1275,88
576,66	1282,03
576,86	1257,45
577,05	1275,88
577,25	1259,50
577,44	1265,64
577,64	1265,64
577,83	1193,97
578,02	1255,40
578,22	1294,32
578,41	1298,41
578,61	1306,60
578,80	1261,55
579,00	1263,60
579,19	1251,31
579,39	1257,45
579,58	1306,60
579,77	1249,26
579,97	1234,93
580,16	1318,89
580,36	1277,93
580,55	1322,99
580,75	1302,51
580,94	1275,88
581,13	1325,04
581,33	1265,64
581,52	1232,88
581,72	1288,17
581,91	1304,56
582,11	1300,46
582,30	1325,04
582,49	1224,69
582,69	1306,60
582,88	1265,64
583,08	1271,79
583,27	1282,03
583,47	1355,76
583,66	1234,93
583,85	1329,13
584,05	1271,79
584,24	1204,21
584,44	1206,25
584,63	1255,40
584,82	1247,21
585,02	1275,88
585,21	1320,94
585,41	1318,89
585,60	1265,64
585,79	1265,64
585,99	1255,40
586,18	1224,69
586,37	1239,02
586,57	1288,17
586,76	1314,80
586,96	1243,12
587,15	1253,36
587,34	1306,60
587,54	1218,54
587,73	1263,60
587,93	1257,45
588,12	1241,07
588,31	1259,50
588,51	1234,93
588,70	1292,27
588,89	1236,97
589,09	1263,60
589,28	1304,56
589,47	1282,03
589,67	1284,08
589,86	1265,64
590,06	1271,79
590,25	1245,16
590,44	1279,98
590,64	1378,28
590,83	1288,17
591,02	1308,65
591,22	1220,59
591,41	1247,21
591,60	1245,16
591,80	1253,36
591,99	1271,79
592,18	1282,03
592,38	1355,76
592,57	1259,50
592,76	1257,45
592,96	1241,07
593,15	1212,40
593,34	1267,69
593,54	1267,69
593,73	1255,40
593,92	1261,55
594,12	1230,83
594,31	1327,08
594,50	1302,51
594,70	1193,97
594,89	1224,69
595,08	1265,64
595,28	1286,12
595,47	1239,02
595,66	1236,97
595,86	1216,49
596,05	1298,41
596,24	1239,02
596,43	1220,59
596,63	1261,55
596,82	1290,22
597,01	1290,22
597,21	1273,84
597,40	1322,99
597,59	1294,32
597,79	1271,79
597,98	1298,41
598,17	1290,22
598,36	1279,98
598,56	1234,93
598,75	1255,40
598,94	1241,07
599,14	1290,22
599,33	1314,80
599,52	1282,03
599,71	1253,36
599,91	1273,84
600,10	1271,79
600,29	1249,26
600,48	1273,84
600,68	1228,78
600,87	1224,69
601,06	1286,12
601,26	1257,45
601,45	1265,64
601,64	1325,04
601,83	1230,83
602,03	1241,07
602,22	1302,51
602,41	1304,56
602,60	1269,74
602,80	1243,12
602,99	1363,95
603,18	1263,60
603,37	1288,17
603,57	1234,93
603,76	1296,36
603,95	1210,35
604,14	1282,03
604,34	1210,35
604,53	1320,94
604,72	1253,36
604,91	1265,64
605,10	1261,55
605,30	1282,03
605,49	1259,50
605,68	1142,77
605,87	1288,17
606,07	1349,61
606,26	1314,80
606,45	1269,74
606,64	1292,27
606,84	1255,40
607,03	1310,70
607,22	1253,36
607,41	1277,93
607,60	1339,37
607,80	1206,25
607,99	1392,62
608,18	1314,80
608,37	1263,60
608,56	1247,21
608,76	1333,23
608,95	1263,60
609,14	1286,12
609,33	1302,51
609,52	1329,13
609,72	1241,07
609,91	1253,36
610,10	1312,75
610,29	1245,16
610,48	1296,36
610,68	1206,25
610,87	1159,15
611,06	1308,65
611,25	1218,54
611,44	1316,84
611,63	1226,73
611,83	1222,64
612,02	1259,50
612,21	1292,27
612,40	1241,07
612,59	1239,02
612,79	1255,40
612,98	1277,93
613,17	1296,36
613,36	1234,93
613,55	1265,64
613,74	1339,37
613,93	1284,08
614,13	1355,76
614,32	1232,88
614,51	1294,32
614,70	1216,49
614,89	1288,17
615,08	1290,22
615,28	1314,80
615,47	1296,36
615,66	1292,27
615,85	1210,35
616,04	1296,36
616,23	1259,50
616,42	1269,74
616,62	1249,26
616,81	1316,84
617,00	1267,69
617,19	1282,03
617,38	1273,84
617,57	1253,36
617,76	1290,22
617,95	1275,88
618,15	1255,40
618,34	1325,04
618,53	1302,51
618,72	1198,06
618,91	1241,07
619,10	1255,40
619,29	1284,08
619,48	1271,79
619,68	1261,55
619,87	1257,45
620,06	1288,17
620,25	1239,02
620,44	1226,73
620,63	1273,84
620,82	1294,32
621,01	1265,64
621,20	1277,93
621,39	1288,17
621,59	1261,55
621,78	1380,33
621,97	1222,64
622,16	1247,21
622,35	1255,40
622,54	1275,88
622,73	1351,66
622,92	1304,56
623,11	1296,36
623,30	1310,70
623,49	1232,88
623,68	1277,93
623,88	1259,50
624,07	1222,64
624,26	1290,22
624,45	1290,22
624,64	1210,35
624,83	1320,94
625,02	1208,30
625,21	1339,37
625,40	1318,89
625,59	1343,47
625,78	1265,64
625,97	1320,94
626,16	1290,22
626,35	1290,22
626,54	1327,08
626,74	1275,88
626,93	1232,88
627,12	1277,93
627,31	1337,32
627,50	1232,88
627,69	1306,60
627,88	1265,64
628,07	1224,69
628,26	1271,79
628,45	1251,31
628,64	1320,94
628,83	1275,88
629,02	1298,41
629,21	1236,97
629,40	1259,50
629,59	1286,12
629,78	1327,08
629,97	1325,04
630,16	1292,27
630,35	1312,75
630,54	1290,22
630,73	1282,03
630,92	1351,66
631,11	1355,76
631,30	1316,84
631,49	1359,85
631,68	1439,72
631,87	1746,92
632,06	2226,14
632,25	1920,99
632,44	1953,76
632,63	2269,15
632,82	2506,71
633,01	4773,82
633,20	3841,99
633,39	3239,89
633,58	2566,10
633,77	3641,29
633,96	4878,26
634,15	4802,49
634,34	3930,05
634,53	3157,97
634,72	2641,88
634,91	2340,83
635,10	2131,94
635,29	2035,68
635,48	2129,89
635,67	1957,86
635,86	1994,72
636,05	1759,21
636,24	1574,89
636,43	1517,54
636,62	1400,81
636,81	1306,60
637,00	1394,67
637,19	1351,66
637,38	1331,18
637,57	1275,88
637,76	1425,39
637,95	1331,18
638,14	1298,41
638,33	1296,36
638,52	1327,08
638,71	1257,45
638,89	1339,37
639,08	1314,80
639,27	1316,84
639,46	1224,69
639,65	1282,03
639,84	1284,08
640,03	1329,13
640,22	1239,02
640,41	1335,28
640,60	1331,18
640,79	1259,50
640,98	1243,12
641,17	1271,79
641,36	1296,36
641,55	1288,17
641,74	1419,24
641,92	1335,28
642,11	1175,53
642,30	1267,69
642,49	1263,60
642,68	1288,17
642,87	1253,36
643,06	1263,60
643,25	1255,40
643,44	1243,12
643,63	1191,92
643,82	1347,56
644,00	1232,88
644,19	1294,32
644,38	1187,82
644,57	1230,83
644,76	1308,65
644,95	1251,31
645,14	1306,60
645,33	1251,31
645,52	1249,26
645,71	1318,89
645,89	1325,04
646,08	1257,45
646,27	1232,88
646,46	1322,99
646,65	1265,64
646,84	1251,31
647,03	1275,88
647,22	1271,79
647,40	1312,75
647,59	1300,46
647,78	1282,03
647,97	1306,60
648,16	1304,56
648,35	1261,55
648,54	1249,26
648,73	1288,17
648,91	1263,60
649,10	1232,88
649,29	1214,45
649,48	1241,07
649,67	1259,50
649,86	1279,98
650,05	1267,69
650,23	1292,27
650,42	1314,80
650,61	1329,13
650,80	1243,12
650,99	1226,73
651,18	1206,25
651,36	1255,40
651,55	1294,32
651,74	1265,64
651,93	1347,56
652,12	1251,31
652,31	1249,26
652,49	1202,16
652,68	1249,26
652,87	1243,12
653,06	1265,64
653,25	1292,27
653,44	1292,27
653,62	1241,07
653,81	1226,73
654,00	1261,55
654,19	1300,46
654,38	1255,40
654,56	1296,36
654,75	1318,89
654,94	1298,41
655,13	1204,21
655,32	1241,07
655,51	1288,17
655,69	1257,45
655,88	1269,74
656,07	1267,69
656,26	1263,60
656,45	1263,60
656,63	1218,54
656,82	1241,07
657,01	1312,75
657,20	1216,49
657,38	1335,28
657,57	1263,60
657,76	1290,22
657,95	1271,79
658,14	1232,88
658,32	1312,75
658,51	1249,26
658,70	1265,64
658,89	1214,45
659,08	1294,32
659,26	1275,88
659,45	1239,02
659,64	1187,82
659,83	1222,64
660,01	1249,26
660,20	1277,93
660,39	1257,45
660,58	1243,12
660,76	1271,79
660,95	1292,27
661,14	1273,84
661,33	1286,12
661,51	1290,22
661,70	1257,45
661,89	1232,88
662,08	1279,98
662,26	1230,83
662,45	1292,27
662,64	1345,52
662,83	1261,55
663,01	1263,60
663,20	1331,18
663,39	1302,51
663,58	1249,26
663,76	1275,88
663,95	1314,80
664,14	1236,97
664,32	1353,71
664,51	1247,21
664,70	1253,36
664,89	1294,32
665,07	1216,49
665,26	1253,36
665,45	1239,02
665,64	1267,69
665,82	1368,04
666,01	1210,35
666,20	1267,69
666,38	1271,79
666,57	1366,00
666,76	1275,88
666,95	1269,74
667,13	1265,64
667,32	1255,40
667,51	1261,55
667,69	1230,83
667,88	1257,45
668,07	1292,27
668,25	1220,59
668,44	1257,45
668,63	1273,84
668,81	1265,64
669,00	1241,07
669,19	1247,21
669,38	1257,45
669,56	1296,36
669,75	1255,40
669,94	1339,37
670,12	1261,55
670,31	1310,70
670,50	1241,07
670,68	1206,25
670,87	1277,93
671,06	1222,64
671,24	1259,50
671,43	1267,69
671,62	1253,36
671,80	1265,64
671,99	1300,46
672,18	1304,56
672,36	1290,22
672,55	1284,08
672,74	1325,04
672,92	1273,84
673,11	1275,88
673,29	1284,08
673,48	1304,56
673,67	1214,45
673,85	1241,07
674,04	1232,88
674,23	1271,79
674,41	1253,36
674,60	1279,98
674,79	1312,75
674,97	1279,98
675,16	1185,77
675,34	1300,46
675,53	1222,64
675,72	1279,98
675,90	1253,36
676,09	1187,82
676,28	1179,63
676,46	1300,46
676,65	1257,45
676,83	1259,50
677,02	1167,34
677,21	1320,94
677,39	1187,82
677,58	1273,84
677,77	1259,50
677,95	1265,64
678,14	1185,77
678,32	1255,40
678,51	1216,49
678,70	1277,93
678,88	1261,55
679,07	1306,60
679,25	1261,55
679,44	1322,99
679,63	1304,56
679,81	1320,94
680,00	1245,16
680,18	1273,84
680,37	1279,98
680,55	1310,70
680,74	1243,12
680,93	1251,31
681,11	1193,97
681,30	1239,02
681,48	1273,84
681,67	1288,17
681,85	1249,26
682,04	1308,65
682,23	1279,98
682,41	1294,32
682,60	1253,36
682,78	1271,79
682,97	1292,27
683,15	1286,12
683,34	1298,41
683,53	1263,60
683,71	1267,69
683,90	1251,31
684,08	1282,03
684,27	1239,02
684,45	1204,21
684,64	1290,22
684,82	1329,13
685,01	1310,70
685,19	1308,65
685,38	1290,22
685,57	1261,55
685,75	1212,40
685,94	1239,02
686,12	1253,36
686,31	1327,08
686,49	1327,08
686,68	1247,21
686,86	1351,66
687,05	1202,16
687,23	1351,66
687,42	1210,35
687,60	1331,18
687,79	1245,16
687,97	1269,74
688,16	1302,51
688,34	1245,16
688,53	1224,69
688,71	1193,97
688,90	1259,50
689,08	1259,50
689,27	1230,83
689,45	1210,35
689,64	1247,21
689,82	1306,60
690,01	1245,16
690,19	1241,07
690,38	1290,22
690,56	1337,32
690,75	1265,64
690,93	1312,75
691,12	1232,88
691,30	1302,51
691,49	1214,45
691,67	1265,64
691,86	1322,99
692,04	1224,69
692,23	1249,26
692,41	1277,93
692,60	1300,46
692,78	1269,74
692,97	1312,75
693,15	1265,64
693,34	1234,93
693,52	1224,69
693,71	1337,32
693,89	1296,36
694,08	1308,65
694,26	1261,55
694,44	1206,25
694,63	1251,31
694,81	1314,80
695,00	1292,27
695,18	1380,33
695,37	1318,89
695,55	1220,59
695,74	1243,12
695,92	1290,22
696,10	1329,13
696,29	1249,26
696,47	1296,36
696,66	1284,08
696,84	1312,75
697,03	1292,27
697,21	1234,93
697,40	1298,41
697,58	1257,45
697,76	1275,88
697,95	1232,88
698,13	1306,60
698,32	1249,26
698,50	1277,93
698,68	1284,08
698,87	1282,03
699,05	1316,84
699,24	1191,92
699,42	1216,49
699,61	1249,26
699,79	1304,56
699,97	1249,26
700,16	1206,25
700,34	1261,55
700,53	1265,64
700,71	1243,12
700,89	1183,73
701,08	1290,22
701,26	1306,60
701,45	1234,93
701,63	1216,49
701,81	1257,45
702,00	1273,84
702,18	1282,03
702,37	1353,71
702,55	1327,08
702,73	1284,08
702,92	1216,49
703,10	1216,49
703,28	1329,13
703,47	1259,50
703,65	1232,88
703,84	1234,93
704,02	1204,21
704,20	1239,02
704,39	1314,80
704,57	1300,46
704,75	1236,97
704,94	1298,41
705,12	1243,12
705,30	1191,92
705,49	1226,73
705,67	1216,49
705,86	1329,13
706,04	1286,12
706,22	1239,02
706,41	1271,79
706,59	1296,36
706,77	1286,12
706,96	1277,93
707,14	1251,31
707,32	1230,83
707,51	1286,12
707,69	1316,84
707,87	1337,32
708,06	1314,80
708,24	1212,40
708,42	1239,02
708,61	1275,88
708,79	1279,98
708,97	1263,60
709,16	1304,56
709,34	1355,76
709,52	1273,84
709,71	1290,22
709,89	1343,47
710,07	1337,32
710,26	1316,84
710,44	1265,64
710,62	1236,97
710,80	1255,40
710,99	1265,64
711,17	1255,40
711,35	1286,12
711,54	1331,18
711,72	1265,64
711,90	1294,32
712,09	1282,03
712,27	1273,84
712,45	1306,60
712,63	1247,21
712,82	1187,82
713,00	1253,36
713,18	1206,25
713,37	1325,04
713,55	1202,16
713,73	1228,78
713,91	1277,93
714,10	1282,03
714,28	1239,02
714,46	1183,73
714,65	1212,40
714,83	1286,12
715,01	1177,58
715,19	1300,46
715,38	1302,51
715,56	1179,63
715,74	1298,41
715,92	1181,68
716,11	1331,18
716,29	1331,18
716,47	1277,93
716,65	1208,30
716,84	1222,64
717,02	1308,65
717,20	1269,74
717,38	1273,84
717,57	1316,84
717,75	1286,12
717,93	1234,93
718,11	1306,60
718,30	1322,99
718,48	1269,74
718,66	1327,08
718,84	1265,64
719,03	1222,64
719,21	1249,26
719,39	1316,84
719,57	1265,64
719,75	1302,51
719,94	1298,41
720,12	1255,40
720,30	1255,40
720,48	1224,69
720,67	1306,60
720,85	1271,79
721,03	1273,84
721,21	1191,92
721,39	1314,80
721,58	1263,60
721,76	1300,46
721,94	1300,46
722,12	1300,46
722,30	1282,03
722,49	1286,12
722,67	1316,84
722,85	1300,46
723,03	1273,84
723,21	1306,60
723,40	1300,46
723,58	1312,75
723,76	1232,88
723,94	1331,18
724,12	1226,73
724,30	1339,37
724,49	1247,21
724,67	1216,49
724,85	1286,12
725,03	1257,45
725,21	1261,55
725,40	1310,70
725,58	1277,93
725,76	1239,02
725,94	1257,45
726,12	1255,40
726,30	1163,25
726,49	1279,98
726,67	1298,41
726,85	1241,07
727,03	1245,16
727,21	1288,17
727,39	1310,70
727,57	1318,89
727,76	1204,21
727,94	1294,32
728,12	1255,40
728,30	1279,98
728,48	1273,84
728,66	1304,56
728,84	1275,88
729,03	1263,60
729,21	1294,32
729,39	1216,49
729,57	1298,41
729,75	1374,19
729,93	1296,36
730,11	1249,26
730,30	1331,18
730,48	1241,07
730,66	1304,56
730,84	1347,56
731,02	1343,47
731,20	1232,88
731,38	1253,36
731,56	1253,36
731,74	1187,82
731,93	1181,68
732,11	1257,45
732,29	1288,17
732,47	1185,77
732,65	1251,31
732,83	1263,60
733,01	1308,65
733,19	1241,07
733,37	1222,64
733,56	1368,04
733,74	1302,51
733,92	1322,99
734,10	1308,65
734,28	1269,74
734,46	1282,03
734,64	1216,49
734,82	1294,32
735,00	1267,69
735,18	1273,84
735,36	1247,21
735,54	1296,36
735,73	1296,36
735,91	1320,94
736,09	1236,97
736,27	1214,45
736,45	1255,40
736,63	1282,03
736,81	1228,78
736,99	1304,56
737,17	1314,80
737,35	1279,98
737,53	1236,97
737,71	1239,02
737,89	1282,03
738,07	1220,59
738,25	1308,65
738,43	1196,01
738,61	1282,03
738,80	1226,73
738,98	1290,22
739,16	1279,98
739,34	1257,45
739,52	1265,64
739,70	1204,21
739,88	1243,12
740,06	1153,01
740,24	1243,12
740,42	1243,12
740,60	1261,55
740,78	1277,93
740,96	1271,79
741,14	1267,69
741,32	1255,40
741,50	1144,81
741,68	1331,18
741,86	1296,36
742,04	1286,12
742,22	1224,69
742,40	1261,55
742,58	1269,74
742,76	1196,01
742,94	1290,22
743,12	1142,77
743,30	1273,84
743,48	1286,12
743,66	1218,54
743,84	1368,04
744,02	1267,69
744,20	1249,26
744,38	1255,40
744,56	1296,36
744,74	1226,73
744,92	1255,40
745,10	1275,88
745,28	1286,12
745,46	1269,74
745,64	1251,31
745,82	1228,78
746,00	1290,22
746,18	1214,45
746,36	1286,12
746,54	1310,70
746,72	1234,93
746,90	1292,27
747,08	1329,13
747,26	1308,65
747,44	1341,42
747,62	1322,99
747,80	1214,45
747,98	1245,16
748,15	1212,40
748,33	1259,50
748,51	1277,93
748,69	1306,60
748,87	1228,78
749,05	1284,08
749,23	1310,70
749,41	1267,69
749,59	1341,42
749,77	1294,32
749,95	1312,75
750,13	1316,84
750,31	1294,32
750,49	1247,21
750,67	1306,60
750,85	1286,12
751,03	1282,03
751,20	1302,51
751,38	1253,36
751,56	1247,21
751,74	1265,64
751,92	1277,93
752,10	1247,21
752,28	1200,11
752,46	1290,22
752,64	1181,68
752,82	1253,36
753,00	1230,83
753,18	1232,88
753,35	1232,88
753,53	1239,02
753,71	1245,16
753,89	1357,80
754,07	1234,93
754,25	1292,27
754,43	1267,69
754,61	1261,55
754,79	1249,26
754,97	1249,26
755,14	1222,64
755,32	1245,16
755,50	1167,34
755,68	1279,98
755,86	1230,83
756,04	1239,02
756,22	1316,84
756,40	1337,32
756,57	1271,79
756,75	1279,98
756,93	1234,93
757,11	1175,53
757,29	1288,17
757,47	1263,60
757,65	1218,54
757,82	1302,51
758,00	1273,84
758,18	1269,74
758,36	1267,69
758,54	1245,16
758,72	1253,36
758,90	1210,35
759,07	1257,45
759,25	1212,40
759,43	1316,84
759,61	1247,21
759,79	1306,60
759,97	1292,27
760,15	1224,69
760,32	1210,35
760,50	1300,46
760,68	1284,08
760,86	1273,84
761,04	1253,36
761,22	1251,31
761,39	1247,21
761,57	1273,84
761,75	1325,04
761,93	1306,60
762,11	1257,45
762,28	1204,21
762,46	1241,07
762,64	1236,97
762,82	1337,32
763,00	1259,50
763,18	1277,93
763,35	1310,70
763,53	1251,31
763,71	1296,36
763,89	1255,40
764,07	1253,36
764,24	1296,36
764,42	1271,79
764,60	1249,26
764,78	1204,21
764,96	1333,23
765,13	1269,74
765,31	1241,07
765,49	1239,02
765,67	1388,52
765,84	1271,79
766,02	1267,69
766,20	1261,55
766,38	1343,47
766,56	1257,45
766,73	1292,27
766,91	1249,26
767,09	1294,32
767,27	1228,78
767,44	1236,97
767,62	1259,50
767,80	1198,06
767,98	1249,26
768,15	1239,02
768,33	1218,54
768,51	1306,60
768,69	1267,69
768,87	1253,36
769,04	1318,89
769,22	1290,22
769,40	1204,21
769,58	1282,03
769,75	1269,74
769,93	1241,07
770,11	1218,54
770,28	1267,69
770,46	1298,41
770,64	1265,64
770,82	1304,56
770,99	1220,59
771,17	1267,69
771,35	1286,12
771,53	1253,36
771,70	1265,64
771,88	1208,30
772,06	1247,21
772,23	1257,45
772,41	1255,40
772,59	1218,54
772,77	1214,45
772,94	1163,25
773,12	1189,87
773,30	1337,32
773,47	1216,49
773,65	1271,79
773,83	1216,49
774,01	1198,06
774,18	1277,93
774,36	1298,41
774,54	1214,45
774,71	1316,84
774,89	1318,89
775,07	1296,36
775,24	1320,94
775,42	1210,35
775,60	1345,52
775,78	1296,36
775,95	1282,03
776,13	1243,12
776,31	1339,37
776,48	1286,12
776,66	1279,98
776,84	1183,73
777,01	1275,88
777,19	1349,61
777,37	1286,12
777,54	1298,41
777,72	1245,16
777,90	1230,83
778,07	1296,36
778,25	1228,78
778,43	1292,27
778,60	1236,97
778,78	1234,93
778,96	1265,64
779,13	1325,04
779,31	1218,54
779,49	1288,17
779,66	1282,03
779,84	1290,22
780,01	1247,21
780,19	1259,50
780,37	1251,31
780,54	1306,60
780,72	1247,21
780,90	1253,36
781,07	1222,64
781,25	1249,26
781,43	1198,06
781,60	1267,69
781,78	1222,64
781,95	1353,71
782,13	1298,41
782,31	1269,74
782,48	1257,45
782,66	1288,17
782,83	1329,13
783,01	1232,88
783,19	1218,54
783,36	1275,88
783,54	1269,74
783,72	1232,88
783,89	1267,69
784,07	1271,79
784,24	1273,84
784,42	1267,69
784,60	1257,45
784,77	1228,78
784,95	1243,12
785,12	1341,42
785,30	1245,16
785,47	1255,40
785,65	1249,26
785,83	1236,97
786,00	1236,97
786,18	1251,31
786,35	1241,07
786,53	1316,84
786,71	1251,31
786,88	1288,17
787,06	1294,32
787,23	1222,64
787,41	1339,37
787,58	1271,79
787,76	1232,88
787,94	1306,60
788,11	1196,01
788,29	1249,26
788,46	1245,16
788,64	1249,26
788,81	1226,73
788,99	1269,74
789,16	1245,16
789,34	1245,16
789,52	1249,26
789,69	1286,12
789,87	1220,59
790,04	1288,17
790,22	1282,03
790,39	1216,49
790,57	1239,02
790,74	1251,31
790,92	1222,64
791,09	1304,56
791,27	1239,02
791,44	1226,73
791,62	1316,84
791,79	1282,03
791,97	1357,80
792,15	1228,78
792,32	1208,30
792,50	1243,12
792,67	1306,60
792,85	1355,76
793,02	1284,08
793,20	1318,89
793,37	1243,12
793,55	1282,03
793,72	1222,64
793,90	1298,41
794,07	1255,40
794,25	1312,75
794,42	1282,03
794,60	1286,12
794,77	1269,74
794,95	1277,93
795,12	1204,21
795,30	1316,84
795,47	1339,37
795,65	1296,36
795,82	1255,40
796,00	1226,73
796,17	1296,36
796,34	1230,83
796,52	1335,28
796,69	1218,54
796,87	1191,92
797,04	1236,97
797,22	1322,99
797,39	1312,75
797,57	1224,69
797,74	1255,40
797,92	1200,11
798,09	1267,69
798,27	1269,74
798,44	1320,94
798,62	1288,17
798,79	1243,12
798,96	1282,03
799,14	1322,99
799,31	1241,07
799,49	1277,93
799,66	1322,99
799,84	1320,94
800,01	1251,31
800,19	1298,41
800,36	1302,51
800,53	1226,73
800,71	1341,42
800,88	1263,60
801,06	1196,01
801,23	1290,22
801,41	1273,84
801,58	1325,04
801,75	1239,02
801,93	1284,08
802,10	1271,79
802,28	1292,27
802,45	1247,21
802,63	1282,03
802,80	1269,74
802,97	1273,84
803,15	1245,16
803,32	1257,45
803,50	1251,31
803,67	1308,65
803,84	1261,55
804,02	1269,74
804,19	1271,79
804,37	1265,64
804,54	1222,64
804,71	1243,12
804,89	1275,88
805,06	1273,84
805,24	1273,84
805,41	1286,12
805,58	1259,50
805,76	1232,88
805,93	1325,04
806,10	1327,08
806,28	1333,23
806,45	1275,88
806,63	1316,84
806,80	1286,12
806,97	1296,36
807,15	1224,69
807,32	1277,93
807,49	1261,55
807,67	1306,60
807,84	1249,26
808,01	1267,69
808,19	1304,56
808,36	1247,21
808,54	1241,07
808,71	1284,08
808,88	1290,22
809,06	1296,36
809,23	1224,69
809,40	1236,97
809,58	1286,12
809,75	1249,26
809,92	1245,16
810,10	1275,88
810,27	1312,75
810,44	1232,88
810,62	1302,51
810,79	1310,70
810,96	1232,88
811,14	1257,45
811,31	1263,60
811,48	1314,80
811,66	1339,37
811,83	1257,45
812,00	1265,64
812,18	1234,93
812,35	1294,32
812,52	1206,25
812,69	1249,26
812,87	1308,65
813,04	1228,78
813,21	1302,51
813,39	1216,49
813,56	1261,55
813,73	1261,55
813,91	1230,83
814,08	1253,36
814,25	1267,69
814,42	1265,64
814,60	1339,37
814,77	1243,12
814,94	1271,79
815,12	1253,36
815,29	1273,84
815,46	1239,02
815,63	1234,93
815,81	1243,12
815,98	1232,88
816,15	1337,32
816,33	1277,93
816,50	1255,40
816,67	1269,74
816,84	1224,69
817,02	1302,51
817,19	1255,40
817,36	1277,93
817,53	1257,45
817,71	1288,17
817,88	1249,26
818,05	1191,92
818,22	1230,83
818,40	1304,56
818,57	1247,21
818,74	1234,93
818,91	1228,78
819,09	1236,97
819,26	1286,12
819,43	1226,73
819,60	1329,13
819,78	1306,60
819,95	1263,60
820,12	1261,55
820,29	1302,51
820,47	1212,40
820,64	1267,69
820,81	1232,88
820,98	1189,87
821,15	1243,12
821,33	1347,56
821,50	1273,84
821,67	1259,50
821,84	1282,03
822,02	1208,30
822,19	1204,21
822,36	1257,45
822,53	1269,74
822,70	1277,93
822,88	1236,97
823,05	1286,12
823,22	1224,69
823,39	1310,70
823,56	1230,83
823,74	1230,83
823,91	1247,21
824,08	1251,31
824,25	1298,41
824,42	1275,88
824,60	1273,84
824,77	1284,08
824,94	1302,51
825,11	1286,12
825,28	1277,93
825,45	1325,04
825,63	1226,73
825,80	1206,25
825,97	1257,45
826,14	1320,94
826,31	1198,06
826,48	1257,45
826,66	1253,36
826,83	1255,40
827,00	1261,55
827,17	1251,31
827,34	1282,03
827,51	1232,88
827,69	1279,98
827,86	1232,88
828,03	1257,45
828,20	1282,03
828,37	1327,08
828,54	1257,45
828,71	1343,47
828,89	1253,36
829,06	1290,22
829,23	1259,50
829,40	1273,84
829,57	1275,88
829,74	1372,14
829,91	1314,80
830,09	1269,74
830,26	1288,17
830,43	1282,03
830,60	1318,89
830,77	1224,69
830,94	1286,12
831,11	1282,03
831,28	1294,32
831,46	1251,31
831,63	1239,02
831,80	1284,08
831,97	1236,97
832,14	1277,93
832,31	1296,36
832,48	1257,45
832,65	1224,69
832,82	1214,45
832,99	1255,40
833,17	1284,08
833,34	1273,84
833,51	1296,36
833,68	1241,07
833,85	1318,89
834,02	1173,49
834,19	1224,69
834,36	1269,74
834,53	1245,16
834,70	1282,03
834,87	1304,56
835,04	1265,64
835,22	1224,69
835,39	1265,64
835,56	1243,12
835,73	1200,11
835,90	1261,55
836,07	1261,55
836,24	1222,64
836,41	1306,60
836,58	1236,97
836,75	1245,16
836,92	1196,01
837,09	1224,69
837,26	1347,56
837,43	1316,84
837,60	1296,36
837,77	1261,55
837,94	1249,26
838,12	1263,60
838,29	1222,64
838,46	1288,17
838,63	1294,32
838,80	1288,17
838,97	1300,46
839,14	1322,99
839,31	1308,65
839,48	1294,32
839,65	1253,36
839,82	1265,64
839,99	1202,16
840,16	1259,50
840,33	1255,40
840,50	1212,40
840,67	1284,08
840,84	1253,36
841,01	1304,56
841,18	1267,69
841,35	1269,74
841,52	1306,60
841,69	1263,60
841,86	1308,65
842,03	1298,41
842,20	1277,93
842,37	1290,22
842,54	1191,92
842,71	1198,06
842,88	1259,50
843,05	1298,41
843,22	1304,56
843,39	1234,93
843,56	1318,89
843,73	1298,41
843,90	1290,22
844,07	1312,75
844,24	1325,04
844,41	1257,45
844,58	1208,30
844,75	1300,46
844,92	1251,31
845,09	1292,27
845,26	1271,79
845,43	1306,60
845,60	1263,60
845,77	1228,78
845,94	1249,26
846,10	1331,18
846,27	1300,46
846,44	1189,87
846,61	1200,11
846,78	1253,36
846,95	1290,22
847,12	1185,77
847,29	1216,49
847,46	1253,36
847,63	1306,60
847,80	1253,36
847,97	1210,35
848,14	1245,16
848,31	1243,12
848,48	1308,65
848,65	1273,84
848,82	1284,08
848,98	1279,98
849,15	1218,54
849,32	1282,03
849,49	1306,60
849,66	1304,56
849,83	1193,97
850,00	1282,03
850,17	1167,34
850,34	1298,41
850,51	1198,06
850,68	1302,51
850,85	1265,64
851,01	1284,08
851,18	1265,64
851,35	1222,64
851,52	1306,60
851,69	1302,51
851,86	1333,23
852,03	1208,30
852,20	1273,84
852,37	1298,41
852,53	1368,04
852,70	1247,21
852,87	1296,36
853,04	1232,88
853,21	1306,60
853,38	1288,17
853,55	1253,36
853,72	1265,64
853,89	1181,68
854,05	1267,69
854,22	1251,31
854,39	1261,55
854,56	1277,93
854,73	1271,79
854,90	1255,40
855,07	1247,21
855,23	1284,08
855,40	1286,12
855,57	1234,93
855,74	1261,55
855,91	1380,33
856,08	1290,22
856,25	1216,49
856,41	1255,40
856,58	1216,49
856,75	1239,02
856,92	1228,78
857,09	1247,21
857,26	1255,40
857,42	1267,69
857,59	1249,26
857,76	1298,41
857,93	1320,94
858,10	1269,74
858,27	1263,60
858,43	1261,55
858,60	1316,84
858,77	1247,21
858,94	1290,22
859,11	1179,63
859,27	1226,73
859,44	1282,03
859,61	1196,01
859,78	1234,93
859,95	1265,64
860,12	1335,28
860,28	1261,55
860,45	1314,80
860,62	1253,36
860,79	1245,16
860,95	1241,07
861,12	1269,74
861,29	1306,60
861,46	1216,49
861,63	1308,65
861,79	1232,88
861,96	1243,12
862,13	1251,31
862,30	1234,93
862,47	1247,21
862,63	1263,60
862,80	1273,84
862,97	1327,08
863,14	1247,21
863,30	1277,93
863,47	1271,79
863,64	1249,26
863,81	1253,36
863,97	1257,45
864,14	1279,98
864,31	1222,64
864,48	1314,80
864,65	1255,40
864,81	1253,36
864,98	1304,56
865,15	1245,16
865,32	1230,83
865,48	1265,64
865,65	1214,45
865,82	1314,80
865,98	1316,84
866,15	1273,84
866,32	1189,87
866,49	1292,27
866,65	1275,88
866,82	1263,60
866,99	1298,41
867,16	1275,88
867,32	1292,27
867,49	1224,69
867,66	1306,60
867,83	1316,84
867,99	1249,26
868,16	1275,88
868,33	1265,64
868,49	1284,08
868,66	1232,88
868,83	1232,88
868,99	1304,56
869,16	1314,80
869,33	1247,21
869,50	1239,02
869,66	1216,49
869,83	1314,80
870,00	1261,55
870,16	1212,40
870,33	1300,46
870,50	1282,03
870,66	1261,55
870,83	1261,55
871,00	1239,02
871,17	1345,52
871,33	1275,88
871,50	1286,12
871,67	1224,69
871,83	1292,27
872,00	1247,21
872,17	1302,51
872,33	1239,02
872,50	1296,36
872,67	1251,31
872,83	1187,82
873,00	1298,41
873,17	1257,45
873,33	1249,26
873,50	1265,64
873,67	1304,56
873,83	1288,17
874,00	1284,08
874,16	1316,84
874,33	1302,51
874,50	1228,78
874,66	1259,50
874,83	1286,12
875,00	1290,22
875,16	1214,45
875,33	1318,89
875,50	1255,40
875,66	1310,70
875,83	1275,88
875,99	1183,73
876,16	1241,07
876,33	1243,12
876,49	1214,45
876,66	1259,50
876,83	1214,45
876,99	1241,07
877,16	1249,26
877,32	1206,25
877,49	1251,31
877,66	1236,97
877,82	1259,50
877,99	1216,49
878,15	1282,03
878,32	1232,88
878,49	1308,65
878,65	1298,41
878,82	1220,59
878,98	1236,97
879,15	1286,12
879,32	1273,84
879,48	1261,55
879,65	1212,40
879,81	1216,49
879,98	1261,55
880,15	1261,55
880,31	1239,02
880,48	1257,45
880,64	1243,12
880,81	1267,69
880,97	1245,16
881,14	1273,84
881,31	1302,51
881,47	1255,40
881,64	1267,69
881,80	1304,56
881,97	1304,56
882,13	1284,08
882,30	1327,08
882,47	1343,47
882,63	1359,85
882,80	1284,08
882,96	1236,97
883,13	1302,51
883,29	1275,88
883,46	1302,51
883,62	1253,36
883,79	1302,51
883,95	1216,49
884,12	1304,56
884,29	1255,40
884,45	1267,69
884,62	1259,50
884,78	1216,49
884,95	1374,19
885,11	1257,45
885,28	1255,40
885,44	1236,97
885,61	1232,88
885,77	1318,89
885,94	1288,17
886,10	1220,59
886,27	1265,64
886,43	1335,28
886,60	1232,88
886,76	1216,49
886,93	1208,30
887,09	1306,60
887,26	1216,49
887,42	1288,17
887,59	1325,04
887,75	1173,49
887,92	1220,59
888,08	1271,79
888,25	1183,73
888,41	1261,55
888,58	1288,17
888,74	1239,02
888,91	1236,97
>>>>>End Processed Spectral Data<<<<<
