SpectraSuite Data File
++++++++++++++++++++++++++++++++++++
Date: Sun Apr 03 14:21:04 CEST 2016
User: root
Dark Spectrum Present: No
Reference Spectrum Present: No
Number of Sampled Component Spectra: 1
Spectrometers: USB4C02835
Integration Time (usec): 10000 (USB4C02835)
Spectra Averaged: 1 (USB4C02835)
Boxcar Smoothing: 0 (USB4C02835)
Correct for Electrical Dark: No (USB4C02835)
Strobe/Lamp Enabled: No (USB4C02835)
Correct for Detector Non-linearity: No (USB4C02835)
Correct for Stray Light: No (USB4C02835)
Number of Pixels in Processed Spectrum: 3648
>>>>>Begin Processed Spectral Data<<<<<
177,47	1224,69
177,69	1224,69
177,91	1224,69
178,13	1255,40
178,36	1255,40
178,58	1273,84
178,80	1288,17
179,02	1214,45
179,24	1312,75
179,46	1267,69
179,68	1353,71
179,90	1282,03
180,13	1236,97
180,35	1349,61
180,57	1265,64
180,79	1349,61
181,01	1292,27
181,23	1304,56
181,45	1226,73
181,67	1277,93
181,90	1290,22
182,12	1249,26
182,34	1257,45
182,56	1302,51
182,78	1206,25
183,00	1202,16
183,22	1288,17
183,44	1241,07
183,66	1290,22
183,89	1298,41
184,11	1277,93
184,33	1306,60
184,55	1251,31
184,77	1322,99
184,99	1304,56
185,21	1310,70
185,43	1239,02
185,65	1290,22
185,87	1279,98
186,10	1277,93
186,32	1353,71
186,54	1212,40
186,76	1279,98
186,98	1228,78
187,20	1259,50
187,42	1251,31
187,64	1263,60
187,86	1214,45
188,08	1320,94
188,30	1277,93
188,52	1275,88
188,75	1253,36
188,97	1249,26
189,19	1218,54
189,41	1304,56
189,63	1255,40
189,85	1292,27
190,07	1208,30
190,29	1273,84
190,51	1259,50
190,73	1269,74
190,95	1306,60
191,17	1261,55
191,39	1284,08
191,61	1267,69
191,84	1269,74
192,06	1325,04
192,28	1273,84
192,50	1275,88
192,72	1288,17
192,94	1202,16
193,16	1259,50
193,38	1337,32
193,60	1216,49
193,82	1204,21
194,04	1327,08
194,26	1202,16
194,48	1275,88
194,70	1292,27
194,92	1236,97
195,14	1259,50
195,36	1298,41
195,58	1269,74
195,80	1294,32
196,02	1206,25
196,24	1218,54
196,46	1292,27
196,69	1204,21
196,91	1304,56
197,13	1200,11
197,35	1353,71
197,57	1314,80
197,79	1290,22
198,01	1292,27
198,23	1306,60
198,45	1249,26
198,67	1296,36
198,89	1333,23
199,11	1345,52
199,33	1312,75
199,55	1290,22
199,77	1306,60
199,99	1339,37
200,21	1224,69
200,43	1331,18
200,65	1261,55
200,87	1277,93
201,09	1259,50
201,31	1273,84
201,53	1263,60
201,75	1261,55
201,97	1259,50
202,19	1247,21
202,41	1294,32
202,63	1290,22
202,85	1261,55
203,07	1347,56
203,29	1222,64
203,51	1232,88
203,73	1261,55
203,95	1298,41
204,17	1193,97
204,39	1337,32
204,61	1345,52
204,83	1275,88
205,05	1271,79
205,27	1292,27
205,49	1282,03
205,71	1331,18
205,93	1290,22
206,15	1290,22
206,37	1253,36
206,59	1263,60
206,81	1282,03
207,03	1222,64
207,25	1316,84
207,47	1230,83
207,69	1236,97
207,91	1306,60
208,13	1236,97
208,34	1322,99
208,56	1267,69
208,78	1277,93
209,00	1241,07
209,22	1232,88
209,44	1310,70
209,66	1294,32
209,88	1329,13
210,10	1314,80
210,32	1181,68
210,54	1288,17
210,76	1230,83
210,98	1325,04
211,20	1290,22
211,42	1220,59
211,64	1226,73
211,86	1269,74
212,08	1228,78
212,30	1263,60
212,52	1294,32
212,74	1316,84
212,96	1286,12
213,17	1302,51
213,39	1212,40
213,61	1241,07
213,83	1255,40
214,05	1296,36
214,27	1275,88
214,49	1279,98
214,71	1228,78
214,93	1265,64
215,15	1277,93
215,37	1331,18
215,59	1318,89
215,81	1249,26
216,03	1232,88
216,24	1261,55
216,46	1267,69
216,68	1318,89
216,90	1306,60
217,12	1304,56
217,34	1310,70
217,56	1255,40
217,78	1284,08
218,00	1325,04
218,22	1253,36
218,44	1247,21
218,66	1249,26
218,87	1286,12
219,09	1318,89
219,31	1277,93
219,53	1273,84
219,75	1331,18
219,97	1279,98
220,19	1282,03
220,41	1259,50
220,63	1224,69
220,85	1202,16
221,06	1316,84
221,28	1234,93
221,50	1267,69
221,72	1234,93
221,94	1214,45
222,16	1251,31
222,38	1290,22
222,60	1329,13
222,82	1204,21
223,03	1279,98
223,25	1214,45
223,47	1273,84
223,69	1290,22
223,91	1314,80
224,13	1263,60
224,35	1263,60
224,57	1310,70
224,78	1263,60
225,00	1292,27
225,22	1265,64
225,44	1322,99
225,66	1243,12
225,88	1253,36
226,10	1259,50
226,32	1290,22
226,53	1275,88
226,75	1261,55
226,97	1284,08
227,19	1273,84
227,41	1220,59
227,63	1310,70
227,85	1232,88
228,06	1234,93
228,28	1220,59
228,50	1284,08
228,72	1257,45
228,94	1249,26
229,16	1288,17
229,37	1232,88
229,59	1302,51
229,81	1255,40
230,03	1267,69
230,25	1312,75
230,47	1282,03
230,69	1251,31
230,90	1345,52
231,12	1329,13
231,34	1243,12
231,56	1222,64
231,78	1275,88
232,00	1288,17
232,21	1263,60
232,43	1261,55
232,65	1236,97
232,87	1259,50
233,09	1325,04
233,30	1298,41
233,52	1271,79
233,74	1290,22
233,96	1275,88
234,18	1329,13
234,40	1275,88
234,61	1300,46
234,83	1298,41
235,05	1279,98
235,27	1290,22
235,49	1277,93
235,70	1249,26
235,92	1327,08
236,14	1232,88
236,36	1306,60
236,58	1302,51
236,79	1329,13
237,01	1277,93
237,23	1370,09
237,45	1288,17
237,67	1259,50
237,88	1263,60
238,10	1349,61
238,32	1312,75
238,54	1298,41
238,76	1247,21
238,97	1273,84
239,19	1282,03
239,41	1245,16
239,63	1308,65
239,85	1261,55
240,06	1310,70
240,28	1296,36
240,50	1263,60
240,72	1312,75
240,93	1269,74
241,15	1296,36
241,37	1290,22
241,59	1230,83
241,81	1282,03
242,02	1271,79
242,24	1245,16
242,46	1234,93
242,68	1275,88
242,89	1269,74
243,11	1310,70
243,33	1273,84
243,55	1271,79
243,76	1249,26
243,98	1310,70
244,20	1247,21
244,42	1193,97
244,64	1314,80
244,85	1263,60
245,07	1232,88
245,29	1247,21
245,51	1314,80
245,72	1277,93
245,94	1261,55
246,16	1261,55
246,38	1282,03
246,59	1312,75
246,81	1259,50
247,03	1259,50
247,24	1263,60
247,46	1253,36
247,68	1222,64
247,90	1302,51
248,11	1300,46
248,33	1310,70
248,55	1247,21
248,77	1267,69
248,98	1239,02
249,20	1335,28
249,42	1304,56
249,64	1255,40
249,85	1282,03
250,07	1275,88
250,29	1230,83
250,50	1241,07
250,72	1296,36
250,94	1247,21
251,16	1249,26
251,37	1232,88
251,59	1279,98
251,81	1183,73
252,02	1314,80
252,24	1306,60
252,46	1245,16
252,68	1230,83
252,89	1290,22
253,11	1257,45
253,33	1245,16
253,54	1279,98
253,76	1261,55
253,98	1251,31
254,20	1245,16
254,41	1310,70
254,63	1300,46
254,85	1175,53
255,06	1218,54
255,28	1294,32
255,50	1261,55
255,71	1298,41
255,93	1314,80
256,15	1267,69
256,36	1228,78
256,58	1288,17
256,80	1312,75
257,02	1294,32
257,23	1230,83
257,45	1296,36
257,67	1282,03
257,88	1228,78
258,10	1312,75
258,32	1306,60
258,53	1292,27
258,75	1308,65
258,97	1306,60
259,18	1271,79
259,40	1261,55
259,62	1302,51
259,83	1214,45
260,05	1286,12
260,27	1271,79
260,48	1273,84
260,70	1277,93
260,92	1343,47
261,13	1312,75
261,35	1290,22
261,57	1294,32
261,78	1277,93
262,00	1273,84
262,22	1290,22
262,43	1263,60
262,65	1234,93
262,86	1277,93
263,08	1304,56
263,30	1327,08
263,51	1253,36
263,73	1277,93
263,95	1253,36
264,16	1271,79
264,38	1271,79
264,60	1247,21
264,81	1202,16
265,03	1322,99
265,25	1298,41
265,46	1257,45
265,68	1241,07
265,89	1255,40
266,11	1306,60
266,33	1271,79
266,54	1265,64
266,76	1251,31
266,98	1277,93
267,19	1263,60
267,41	1279,98
267,62	1294,32
267,84	1290,22
268,06	1191,92
268,27	1206,25
268,49	1279,98
268,70	1255,40
268,92	1216,49
269,14	1261,55
269,35	1236,97
269,57	1236,97
269,79	1322,99
270,00	1288,17
270,22	1306,60
270,43	1224,69
270,65	1232,88
270,87	1298,41
271,08	1282,03
271,30	1261,55
271,51	1247,21
271,73	1302,51
271,95	1308,65
272,16	1263,60
272,38	1257,45
272,59	1314,80
272,81	1378,28
273,02	1226,73
273,24	1298,41
273,46	1306,60
273,67	1322,99
273,89	1243,12
274,10	1318,89
274,32	1185,77
274,54	1259,50
274,75	1279,98
274,97	1259,50
275,18	1286,12
275,40	1265,64
275,61	1294,32
275,83	1310,70
276,05	1267,69
276,26	1241,07
276,48	1216,49
276,69	1312,75
276,91	1284,08
277,12	1249,26
277,34	1267,69
277,55	1345,52
277,77	1284,08
277,99	1261,55
278,20	1304,56
278,42	1265,64
278,63	1230,83
278,85	1339,37
279,06	1277,93
279,28	1251,31
279,49	1298,41
279,71	1335,28
279,93	1218,54
280,14	1300,46
280,36	1298,41
280,57	1232,88
280,79	1232,88
281,00	1261,55
281,22	1320,94
281,43	1220,59
281,65	1251,31
281,86	1259,50
282,08	1322,99
282,29	1230,83
282,51	1253,36
282,73	1294,32
282,94	1216,49
283,16	1210,35
283,37	1236,97
283,59	1261,55
283,80	1308,65
284,02	1247,21
284,23	1292,27
284,45	1222,64
284,66	1198,06
284,88	1232,88
285,09	1255,40
285,31	1318,89
285,52	1290,22
285,74	1325,04
285,95	1210,35
286,17	1222,64
286,38	1265,64
286,60	1284,08
286,81	1255,40
287,03	1273,84
287,24	1212,40
287,46	1353,71
287,67	1288,17
287,89	1339,37
288,10	1222,64
288,32	1333,23
288,53	1282,03
288,75	1277,93
288,96	1288,17
289,18	1191,92
289,39	1288,17
289,61	1318,89
289,82	1251,31
290,04	1202,16
290,25	1277,93
290,47	1316,84
290,68	1314,80
290,90	1351,66
291,11	1282,03
291,33	1261,55
291,54	1376,24
291,76	1265,64
291,97	1267,69
292,18	1183,73
292,40	1269,74
292,61	1298,41
292,83	1277,93
293,04	1265,64
293,26	1286,12
293,47	1249,26
293,69	1310,70
293,90	1230,83
294,12	1220,59
294,33	1320,94
294,55	1267,69
294,76	1298,41
294,97	1267,69
295,19	1298,41
295,40	1277,93
295,62	1347,56
295,83	1202,16
296,05	1318,89
296,26	1228,78
296,48	1277,93
296,69	1279,98
296,90	1236,97
297,12	1245,16
297,33	1196,01
297,55	1308,65
297,76	1241,07
297,98	1204,21
298,19	1347,56
298,41	1284,08
298,62	1282,03
298,83	1271,79
299,05	1275,88
299,26	1353,71
299,48	1257,45
299,69	1191,92
299,90	1282,03
300,12	1269,74
300,33	1140,72
300,55	1236,97
300,76	1259,50
300,98	1343,47
301,19	1341,42
301,40	1347,56
301,62	1310,70
301,83	1361,90
302,05	1226,73
302,26	1325,04
302,47	1257,45
302,69	1314,80
302,90	1335,28
303,12	1269,74
303,33	1322,99
303,54	1310,70
303,76	1349,61
303,97	1302,51
304,19	1273,84
304,40	1306,60
304,61	1236,97
304,83	1296,36
305,04	1347,56
305,26	1284,08
305,47	1279,98
305,68	1314,80
305,90	1236,97
306,11	1359,85
306,33	1230,83
306,54	1296,36
306,75	1273,84
306,97	1314,80
307,18	1273,84
307,39	1288,17
307,61	1263,60
307,82	1269,74
308,04	1322,99
308,25	1279,98
308,46	1279,98
308,68	1204,21
308,89	1284,08
309,10	1214,45
309,32	1331,18
309,53	1261,55
309,74	1253,36
309,96	1333,23
310,17	1196,01
310,39	1366,00
310,60	1306,60
310,81	1245,16
311,03	1306,60
311,24	1279,98
311,45	1261,55
311,67	1163,25
311,88	1306,60
312,09	1269,74
312,31	1196,01
312,52	1191,92
312,73	1265,64
312,95	1220,59
313,16	1216,49
313,37	1251,31
313,59	1226,73
313,80	1314,80
314,01	1275,88
314,23	1253,36
314,44	1271,79
314,65	1191,92
314,87	1277,93
315,08	1312,75
315,29	1292,27
315,51	1347,56
315,72	1322,99
315,93	1245,16
316,15	1249,26
316,36	1320,94
316,57	1322,99
316,79	1335,28
317,00	1312,75
317,21	1277,93
317,43	1265,64
317,64	1247,21
317,85	1302,51
318,07	1224,69
318,28	1316,84
318,49	1247,21
318,70	1267,69
318,92	1302,51
319,13	1206,25
319,34	1259,50
319,56	1322,99
319,77	1308,65
319,98	1290,22
320,20	1296,36
320,41	1206,25
320,62	1224,69
320,83	1294,32
321,05	1269,74
321,26	1282,03
321,47	1306,60
321,69	1251,31
321,90	1372,14
322,11	1284,08
322,32	1222,64
322,54	1312,75
322,75	1279,98
322,96	1284,08
323,18	1320,94
323,39	1222,64
323,60	1329,13
323,81	1279,98
324,03	1267,69
324,24	1292,27
324,45	1257,45
324,66	1234,93
324,88	1232,88
325,09	1310,70
325,30	1304,56
325,52	1265,64
325,73	1257,45
325,94	1253,36
326,15	1298,41
326,37	1296,36
326,58	1253,36
326,79	1245,16
327,00	1288,17
327,22	1216,49
327,43	1322,99
327,64	1302,51
327,85	1226,73
328,07	1322,99
328,28	1241,07
328,49	1306,60
328,70	1271,79
328,92	1279,98
329,13	1296,36
329,34	1208,30
329,55	1306,60
329,76	1267,69
329,98	1204,21
330,19	1214,45
330,40	1296,36
330,61	1271,79
330,83	1298,41
331,04	1292,27
331,25	1271,79
331,46	1318,89
331,68	1343,47
331,89	1322,99
332,10	1224,69
332,31	1247,21
332,52	1269,74
332,74	1322,99
332,95	1263,60
333,16	1290,22
333,37	1263,60
333,58	1220,59
333,80	1308,65
334,01	1200,11
334,22	1318,89
334,43	1337,32
334,64	1241,07
334,86	1257,45
335,07	1257,45
335,28	1329,13
335,49	1259,50
335,70	1288,17
335,92	1282,03
336,13	1316,84
336,34	1187,82
336,55	1191,92
336,76	1245,16
336,98	1212,40
337,19	1275,88
337,40	1296,36
337,61	1359,85
337,82	1282,03
338,04	1230,83
338,25	1290,22
338,46	1232,88
338,67	1269,74
338,88	1243,12
339,09	1290,22
339,31	1234,93
339,52	1249,26
339,73	1232,88
339,94	1230,83
340,15	1308,65
340,36	1239,02
340,58	1296,36
340,79	1263,60
341,00	1306,60
341,21	1212,40
341,42	1282,03
341,63	1314,80
341,85	1251,31
342,06	1253,36
342,27	1306,60
342,48	1316,84
342,69	1243,12
342,90	1318,89
343,12	1277,93
343,33	1308,65
343,54	1218,54
343,75	1290,22
343,96	1234,93
344,17	1228,78
344,38	1290,22
344,60	1271,79
344,81	1292,27
345,02	1298,41
345,23	1228,78
345,44	1218,54
345,65	1243,12
345,86	1259,50
346,07	1267,69
346,29	1279,98
346,50	1259,50
346,71	1302,51
346,92	1335,28
347,13	1206,25
347,34	1226,73
347,55	1261,55
347,76	1331,18
347,98	1226,73
348,19	1216,49
348,40	1296,36
348,61	1329,13
348,82	1257,45
349,03	1232,88
349,24	1308,65
349,45	1220,59
349,66	1255,40
349,88	1261,55
350,09	1261,55
350,30	1312,75
350,51	1290,22
350,72	1273,84
350,93	1216,49
351,14	1191,92
351,35	1279,98
351,56	1239,02
351,77	1288,17
351,99	1239,02
352,20	1296,36
352,41	1269,74
352,62	1282,03
352,83	1206,25
353,04	1286,12
353,25	1294,32
353,46	1314,80
353,67	1185,77
353,88	1282,03
354,09	1267,69
354,30	1263,60
354,52	1349,61
354,73	1302,51
354,94	1241,07
355,15	1253,36
355,36	1261,55
355,57	1269,74
355,78	1300,46
355,99	1265,64
356,20	1275,88
356,41	1214,45
356,62	1298,41
356,83	1255,40
357,04	1269,74
357,25	1224,69
357,46	1263,60
357,68	1241,07
357,89	1296,36
358,10	1249,26
358,31	1267,69
358,52	1210,35
358,73	1179,63
358,94	1325,04
359,15	1255,40
359,36	1320,94
359,57	1288,17
359,78	1296,36
359,99	1265,64
360,20	1241,07
360,41	1267,69
360,62	1261,55
360,83	1312,75
361,04	1277,93
361,25	1279,98
361,46	1357,80
361,67	1331,18
361,88	1363,95
362,09	1327,08
362,30	1253,36
362,51	1271,79
362,72	1279,98
362,93	1269,74
363,14	1261,55
363,35	1294,32
363,56	1249,26
363,78	1298,41
363,99	1312,75
364,20	1341,42
364,41	1277,93
364,62	1290,22
364,83	1220,59
365,04	1310,70
365,25	1300,46
365,46	1320,94
365,67	1193,97
365,88	1265,64
366,09	1247,21
366,30	1224,69
366,51	1290,22
366,72	1261,55
366,93	1247,21
367,14	1277,93
367,35	1273,84
367,56	1286,12
367,77	1259,50
367,98	1273,84
368,18	1284,08
368,39	1253,36
368,60	1304,56
368,81	1290,22
369,02	1241,07
369,23	1253,36
369,44	1234,93
369,65	1189,87
369,86	1241,07
370,07	1218,54
370,28	1245,16
370,49	1230,83
370,70	1226,73
370,91	1232,88
371,12	1265,64
371,33	1314,80
371,54	1251,31
371,75	1304,56
371,96	1359,85
372,17	1298,41
372,38	1241,07
372,59	1286,12
372,80	1327,08
373,01	1310,70
373,22	1304,56
373,43	1234,93
373,64	1245,16
373,85	1296,36
374,06	1318,89
374,26	1247,21
374,47	1206,25
374,68	1234,93
374,89	1263,60
375,10	1230,83
375,31	1304,56
375,52	1243,12
375,73	1320,94
375,94	1239,02
376,15	1290,22
376,36	1265,64
376,57	1304,56
376,78	1230,83
376,99	1271,79
377,20	1312,75
377,40	1292,27
377,61	1255,40
377,82	1318,89
378,03	1259,50
378,24	1286,12
378,45	1212,40
378,66	1247,21
378,87	1363,95
379,08	1275,88
379,29	1337,32
379,50	1282,03
379,71	1220,59
379,91	1282,03
380,12	1249,26
380,33	1294,32
380,54	1288,17
380,75	1288,17
380,96	1343,47
381,17	1261,55
381,38	1355,76
381,59	1261,55
381,80	1241,07
382,00	1230,83
382,21	1331,18
382,42	1251,31
382,63	1314,80
382,84	1265,64
383,05	1193,97
383,26	1255,40
383,47	1320,94
383,68	1286,12
383,88	1234,93
384,09	1275,88
384,30	1277,93
384,51	1222,64
384,72	1345,52
384,93	1226,73
385,14	1318,89
385,35	1302,51
385,55	1202,16
385,76	1341,42
385,97	1257,45
386,18	1279,98
386,39	1261,55
386,60	1259,50
386,81	1298,41
387,02	1271,79
387,22	1306,60
387,43	1279,98
387,64	1224,69
387,85	1284,08
388,06	1331,18
388,27	1267,69
388,48	1202,16
388,68	1265,64
388,89	1232,88
389,10	1279,98
389,31	1357,80
389,52	1331,18
389,73	1304,56
389,93	1239,02
390,14	1302,51
390,35	1232,88
390,56	1259,50
390,77	1226,73
390,98	1243,12
391,18	1277,93
391,39	1286,12
391,60	1318,89
391,81	1257,45
392,02	1259,50
392,23	1228,78
392,43	1298,41
392,64	1282,03
392,85	1288,17
393,06	1241,07
393,27	1302,51
393,47	1253,36
393,68	1296,36
393,89	1318,89
394,10	1282,03
394,31	1298,41
394,52	1212,40
394,72	1255,40
394,93	1294,32
395,14	1279,98
395,35	1263,60
395,56	1275,88
395,76	1288,17
395,97	1236,97
396,18	1296,36
396,39	1339,37
396,60	1253,36
396,80	1183,73
397,01	1290,22
397,22	1257,45
397,43	1368,04
397,64	1255,40
397,84	1210,35
398,05	1355,76
398,26	1366,00
398,47	1267,69
398,67	1314,80
398,88	1286,12
399,09	1261,55
399,30	1263,60
399,51	1236,97
399,71	1230,83
399,92	1308,65
400,13	1314,80
400,34	1251,31
400,54	1314,80
400,75	1279,98
400,96	1302,51
401,17	1271,79
401,37	1210,35
401,58	1224,69
401,79	1265,64
402,00	1298,41
402,21	1370,09
402,41	1304,56
402,62	1230,83
402,83	1279,98
403,04	1265,64
403,24	1245,16
403,45	1306,60
403,66	1339,37
403,87	1279,98
404,07	1232,88
404,28	1265,64
404,49	1417,19
404,70	1333,23
404,90	1251,31
405,11	1275,88
405,32	1257,45
405,52	1290,22
405,73	1232,88
405,94	1296,36
406,15	1243,12
406,35	1284,08
406,56	1386,47
406,77	1228,78
406,98	1349,61
407,18	1304,56
407,39	1241,07
407,60	1163,25
407,80	1251,31
408,01	1226,73
408,22	1296,36
408,43	1222,64
408,63	1333,23
408,84	1263,60
409,05	1304,56
409,25	1236,97
409,46	1236,97
409,67	1214,45
409,88	1343,47
410,08	1267,69
410,29	1265,64
410,50	1302,51
410,70	1193,97
410,91	1263,60
411,12	1296,36
411,32	1251,31
411,53	1200,11
411,74	1298,41
411,95	1243,12
412,15	1322,99
412,36	1265,64
412,57	1265,64
412,77	1349,61
412,98	1206,25
413,19	1249,26
413,39	1306,60
413,60	1222,64
413,81	1255,40
414,01	1249,26
414,22	1236,97
414,43	1249,26
414,63	1282,03
414,84	1343,47
415,05	1302,51
415,25	1251,31
415,46	1290,22
415,67	1257,45
415,87	1300,46
416,08	1316,84
416,29	1343,47
416,49	1312,75
416,70	1243,12
416,91	1257,45
417,11	1255,40
417,32	1329,13
417,53	1271,79
417,73	1331,18
417,94	1193,97
418,15	1271,79
418,35	1286,12
418,56	1232,88
418,77	1327,08
418,97	1279,98
419,18	1239,02
419,38	1298,41
419,59	1241,07
419,80	1271,79
420,00	1218,54
420,21	1265,64
420,42	1279,98
420,62	1265,64
420,83	1302,51
421,04	1290,22
421,24	1181,68
421,45	1224,69
421,65	1298,41
421,86	1312,75
422,07	1277,93
422,27	1322,99
422,48	1265,64
422,69	1331,18
422,89	1228,78
423,10	1267,69
423,30	1236,97
423,51	1282,03
423,72	1318,89
423,92	1302,51
424,13	1261,55
424,33	1261,55
424,54	1308,65
424,75	1298,41
424,95	1265,64
425,16	1282,03
425,36	1275,88
425,57	1279,98
425,78	1247,21
425,98	1292,27
426,19	1228,78
426,39	1239,02
426,60	1206,25
426,81	1331,18
427,01	1251,31
427,22	1290,22
427,42	1169,39
427,63	1343,47
427,83	1224,69
428,04	1247,21
428,25	1265,64
428,45	1265,64
428,66	1290,22
428,86	1247,21
429,07	1273,84
429,28	1234,93
429,48	1267,69
429,69	1275,88
429,89	1275,88
430,10	1275,88
430,30	1198,06
430,51	1298,41
430,71	1247,21
430,92	1275,88
431,13	1247,21
431,33	1255,40
431,54	1282,03
431,74	1273,84
431,95	1228,78
432,15	1263,60
432,36	1282,03
432,56	1247,21
432,77	1230,83
432,98	1329,13
433,18	1243,12
433,39	1218,54
433,59	1279,98
433,80	1239,02
434,00	1325,04
434,21	1306,60
434,41	1351,66
434,62	1296,36
434,82	1261,55
435,03	1298,41
435,23	1286,12
435,44	1300,46
435,64	1232,88
435,85	1224,69
436,06	1218,54
436,26	1239,02
436,47	1206,25
436,67	1363,95
436,88	1294,32
437,08	1302,51
437,29	1226,73
437,49	1273,84
437,70	1230,83
437,90	1216,49
438,11	1333,23
438,31	1294,32
438,52	1239,02
438,72	1320,94
438,93	1322,99
439,13	1314,80
439,34	1273,84
439,54	1226,73
439,75	1255,40
439,95	1247,21
440,16	1310,70
440,36	1290,22
440,57	1314,80
440,77	1277,93
440,98	1308,65
441,18	1277,93
441,39	1259,50
441,59	1214,45
441,80	1269,74
442,00	1265,64
442,21	1271,79
442,41	1288,17
442,62	1286,12
442,82	1306,60
443,02	1296,36
443,23	1224,69
443,43	1294,32
443,64	1273,84
443,84	1236,97
444,05	1275,88
444,25	1329,13
444,46	1306,60
444,66	1275,88
444,87	1284,08
445,07	1204,21
445,28	1290,22
445,48	1320,94
445,69	1341,42
445,89	1255,40
446,09	1284,08
446,30	1265,64
446,50	1241,07
446,71	1265,64
446,91	1224,69
447,12	1198,06
447,32	1269,74
447,53	1275,88
447,73	1337,32
447,93	1337,32
448,14	1273,84
448,34	1236,97
448,55	1292,27
448,75	1292,27
448,96	1228,78
449,16	1226,73
449,36	1228,78
449,57	1224,69
449,77	1241,07
449,98	1331,18
450,18	1273,84
450,39	1294,32
450,59	1306,60
450,79	1253,36
451,00	1298,41
451,20	1308,65
451,41	1255,40
451,61	1257,45
451,81	1257,45
452,02	1255,40
452,22	1322,99
452,43	1247,21
452,63	1284,08
452,84	1273,84
453,04	1232,88
453,24	1269,74
453,45	1304,56
453,65	1288,17
453,86	1265,64
454,06	1249,26
454,26	1222,64
454,47	1341,42
454,67	1263,60
454,87	1329,13
455,08	1320,94
455,28	1361,90
455,49	1249,26
455,69	1288,17
455,89	1347,56
456,10	1331,18
456,30	1251,31
456,51	1359,85
456,71	1239,02
456,91	1273,84
457,12	1265,64
457,32	1241,07
457,52	1234,93
457,73	1193,97
457,93	1255,40
458,14	1187,82
458,34	1302,51
458,54	1341,42
458,75	1294,32
458,95	1257,45
459,15	1312,75
459,36	1267,69
459,56	1247,21
459,76	1259,50
459,97	1247,21
460,17	1269,74
460,37	1343,47
460,58	1255,40
460,78	1304,56
460,99	1255,40
461,19	1331,18
461,39	1290,22
461,60	1273,84
461,80	1282,03
462,00	1327,08
462,21	1265,64
462,41	1277,93
462,61	1255,40
462,82	1255,40
463,02	1167,34
463,22	1302,51
463,43	1228,78
463,63	1355,76
463,83	1241,07
464,04	1282,03
464,24	1302,51
464,44	1255,40
464,64	1249,26
464,85	1257,45
465,05	1239,02
465,25	1282,03
465,46	1245,16
465,66	1234,93
465,86	1245,16
466,07	1267,69
466,27	1257,45
466,47	1290,22
466,68	1220,59
466,88	1212,40
467,08	1282,03
467,29	1325,04
467,49	1277,93
467,69	1222,64
467,89	1257,45
468,10	1288,17
468,30	1282,03
468,50	1306,60
468,71	1265,64
468,91	1286,12
469,11	1228,78
469,31	1226,73
469,52	1220,59
469,72	1341,42
469,92	1314,80
470,13	1282,03
470,33	1232,88
470,53	1292,27
470,73	1245,16
470,94	1265,64
471,14	1316,84
471,34	1265,64
471,54	1333,23
471,75	1306,60
471,95	1271,79
472,15	1273,84
472,36	1275,88
472,56	1253,36
472,76	1257,45
472,96	1216,49
473,17	1298,41
473,37	1243,12
473,57	1306,60
473,77	1236,97
473,98	1294,32
474,18	1308,65
474,38	1298,41
474,58	1290,22
474,79	1290,22
474,99	1206,25
475,19	1296,36
475,39	1279,98
475,60	1286,12
475,80	1220,59
476,00	1269,74
476,20	1306,60
476,41	1312,75
476,61	1206,25
476,81	1271,79
477,01	1286,12
477,21	1241,07
477,42	1232,88
477,62	1243,12
477,82	1277,93
478,02	1253,36
478,23	1284,08
478,43	1263,60
478,63	1290,22
478,83	1271,79
479,03	1267,69
479,24	1286,12
479,44	1275,88
479,64	1304,56
479,84	1267,69
480,04	1284,08
480,25	1294,32
480,45	1239,02
480,65	1255,40
480,85	1308,65
481,06	1173,49
481,26	1228,78
481,46	1234,93
481,66	1267,69
481,86	1275,88
482,06	1284,08
482,27	1249,26
482,47	1277,93
482,67	1249,26
482,87	1232,88
483,07	1247,21
483,28	1243,12
483,48	1253,36
483,68	1296,36
483,88	1226,73
484,08	1249,26
484,29	1298,41
484,49	1230,83
484,69	1286,12
484,89	1282,03
485,09	1372,14
485,29	1245,16
485,50	1298,41
485,70	1333,23
485,90	1312,75
486,10	1335,28
486,30	1253,36
486,50	1247,21
486,71	1220,59
486,91	1282,03
487,11	1304,56
487,31	1247,21
487,51	1310,70
487,71	1271,79
487,91	1273,84
488,12	1273,84
488,32	1267,69
488,52	1263,60
488,72	1314,80
488,92	1320,94
489,12	1216,49
489,32	1320,94
489,53	1277,93
489,73	1329,13
489,93	1257,45
490,13	1302,51
490,33	1294,32
490,53	1298,41
490,73	1337,32
490,94	1298,41
491,14	1273,84
491,34	1263,60
491,54	1239,02
491,74	1243,12
491,94	1239,02
492,14	1183,73
492,34	1257,45
492,54	1259,50
492,75	1286,12
492,95	1202,16
493,15	1306,60
493,35	1312,75
493,55	1361,90
493,75	1228,78
493,95	1257,45
494,15	1288,17
494,35	1302,51
494,56	1282,03
494,76	1273,84
494,96	1292,27
495,16	1286,12
495,36	1257,45
495,56	1306,60
495,76	1222,64
495,96	1249,26
496,16	1212,40
496,36	1212,40
496,56	1259,50
496,77	1290,22
496,97	1357,80
497,17	1271,79
497,37	1241,07
497,57	1308,65
497,77	1286,12
497,97	1249,26
498,17	1216,49
498,37	1253,36
498,57	1245,16
498,77	1296,36
498,97	1300,46
499,17	1345,52
499,38	1249,26
499,58	1249,26
499,78	1284,08
499,98	1255,40
500,18	1239,02
500,38	1310,70
500,58	1259,50
500,78	1296,36
500,98	1279,98
501,18	1312,75
501,38	1286,12
501,58	1257,45
501,78	1269,74
501,98	1286,12
502,18	1300,46
502,38	1267,69
502,58	1318,89
502,78	1296,36
502,98	1249,26
503,18	1257,45
503,38	1255,40
503,59	1320,94
503,79	1249,26
503,99	1271,79
504,19	1216,49
504,39	1290,22
504,59	1163,25
504,79	1214,45
504,99	1322,99
505,19	1300,46
505,39	1318,89
505,59	1298,41
505,79	1234,93
505,99	1312,75
506,19	1169,39
506,39	1212,40
506,59	1298,41
506,79	1200,11
506,99	1208,30
507,19	1304,56
507,39	1286,12
507,59	1206,25
507,79	1275,88
507,99	1253,36
508,19	1290,22
508,39	1325,04
508,59	1284,08
508,79	1218,54
508,99	1224,69
509,19	1228,78
509,39	1263,60
509,59	1214,45
509,79	1269,74
509,99	1292,27
510,19	1234,93
510,39	1249,26
510,59	1259,50
510,79	1261,55
510,99	1222,64
511,19	1288,17
511,39	1327,08
511,59	1300,46
511,79	1267,69
511,99	1300,46
512,19	1275,88
512,38	1265,64
512,58	1273,84
512,78	1263,60
512,98	1214,45
513,18	1288,17
513,38	1308,65
513,58	1179,63
513,78	1212,40
513,98	1239,02
514,18	1322,99
514,38	1298,41
514,58	1312,75
514,78	1257,45
514,98	1247,21
515,18	1269,74
515,38	1251,31
515,58	1277,93
515,78	1189,87
515,98	1259,50
516,18	1249,26
516,38	1312,75
516,57	1220,59
516,77	1312,75
516,97	1191,92
517,17	1310,70
517,37	1320,94
517,57	1232,88
517,77	1288,17
517,97	1257,45
518,17	1316,84
518,37	1232,88
518,57	1271,79
518,77	1224,69
518,97	1234,93
519,16	1212,40
519,36	1224,69
519,56	1314,80
519,76	1304,56
519,96	1241,07
520,16	1320,94
520,36	1234,93
520,56	1212,40
520,76	1296,36
520,96	1273,84
521,16	1263,60
521,35	1273,84
521,55	1294,32
521,75	1241,07
521,95	1357,80
522,15	1275,88
522,35	1282,03
522,55	1253,36
522,75	1288,17
522,95	1277,93
523,14	1312,75
523,34	1286,12
523,54	1265,64
523,74	1228,78
523,94	1300,46
524,14	1269,74
524,34	1288,17
524,54	1255,40
524,73	1273,84
524,93	1230,83
525,13	1318,89
525,33	1232,88
525,53	1290,22
525,73	1255,40
525,93	1265,64
526,13	1267,69
526,32	1331,18
526,52	1271,79
526,72	1187,82
526,92	1257,45
527,12	1271,79
527,32	1284,08
527,52	1339,37
527,71	1312,75
527,91	1228,78
528,11	1351,66
528,31	1257,45
528,51	1204,21
528,71	1230,83
528,90	1261,55
529,10	1275,88
529,30	1277,93
529,50	1277,93
529,70	1292,27
529,90	1288,17
530,09	1269,74
530,29	1286,12
530,49	1304,56
530,69	1314,80
530,89	1282,03
531,09	1259,50
531,28	1333,23
531,48	1302,51
531,68	1247,21
531,88	1329,13
532,08	1298,41
532,28	1325,04
532,47	1292,27
532,67	1306,60
532,87	1214,45
533,07	1247,21
533,27	1263,60
533,46	1294,32
533,66	1339,37
533,86	1220,59
534,06	1304,56
534,26	1232,88
534,45	1196,01
534,65	1261,55
534,85	1200,11
535,05	1269,74
535,25	1275,88
535,44	1318,89
535,64	1261,55
535,84	1298,41
536,04	1292,27
536,24	1300,46
536,43	1277,93
536,63	1259,50
536,83	1335,28
537,03	1310,70
537,22	1282,03
537,42	1247,21
537,62	1292,27
537,82	1325,04
538,02	1236,97
538,21	1263,60
538,41	1257,45
538,61	1292,27
538,81	1183,73
539,00	1320,94
539,20	1277,93
539,40	1331,18
539,60	1249,26
539,79	1314,80
539,99	1306,60
540,19	1316,84
540,39	1316,84
540,58	1189,87
540,78	1257,45
540,98	1247,21
541,18	1282,03
541,37	1226,73
541,57	1245,16
541,77	1302,51
541,97	1208,30
542,16	1220,59
542,36	1204,21
542,56	1314,80
542,76	1277,93
542,95	1318,89
543,15	1275,88
543,35	1234,93
543,54	1271,79
543,74	1271,79
543,94	1286,12
544,14	1224,69
544,33	1318,89
544,53	1255,40
544,73	1325,04
544,93	1232,88
545,12	1247,21
545,32	1232,88
545,52	1322,99
545,71	1263,60
545,91	1224,69
546,11	1300,46
546,30	1234,93
546,50	1314,80
546,70	1249,26
546,90	1177,58
547,09	1181,68
547,29	1353,71
547,49	1286,12
547,68	1267,69
547,88	1241,07
548,08	1318,89
548,27	1294,32
548,47	1302,51
548,67	1286,12
548,87	1298,41
549,06	1253,36
549,26	1318,89
549,46	1241,07
549,65	1247,21
549,85	1304,56
550,05	1259,50
550,24	1304,56
550,44	1322,99
550,64	1300,46
550,83	1196,01
551,03	1236,97
551,23	1243,12
551,42	1234,93
551,62	1265,64
551,82	1265,64
552,01	1337,32
552,21	1357,80
552,41	1253,36
552,60	1253,36
552,80	1216,49
553,00	1210,35
553,19	1257,45
553,39	1286,12
553,59	1265,64
553,78	1320,94
553,98	1271,79
554,17	1308,65
554,37	1271,79
554,57	1236,97
554,76	1286,12
554,96	1306,60
555,16	1275,88
555,35	1236,97
555,55	1241,07
555,75	1325,04
555,94	1275,88
556,14	1247,21
556,33	1257,45
556,53	1259,50
556,73	1208,30
556,92	1290,22
557,12	1251,31
557,32	1257,45
557,51	1269,74
557,71	1368,04
557,90	1271,79
558,10	1335,28
558,30	1247,21
558,49	1294,32
558,69	1241,07
558,88	1329,13
559,08	1269,74
559,28	1267,69
559,47	1329,13
559,67	1302,51
559,86	1282,03
560,06	1282,03
560,26	1282,03
560,45	1322,99
560,65	1290,22
560,84	1204,21
561,04	1239,02
561,24	1263,60
561,43	1314,80
561,63	1261,55
561,82	1255,40
562,02	1304,56
562,22	1212,40
562,41	1206,25
562,61	1286,12
562,80	1257,45
563,00	1304,56
563,19	1282,03
563,39	1294,32
563,59	1374,19
563,78	1275,88
563,98	1314,80
564,17	1167,34
564,37	1273,84
564,56	1269,74
564,76	1253,36
564,96	1331,18
565,15	1327,08
565,35	1300,46
565,54	1279,98
565,74	1255,40
565,93	1333,23
566,13	1253,36
566,32	1263,60
566,52	1234,93
566,71	1302,51
566,91	1312,75
567,11	1298,41
567,30	1228,78
567,50	1245,16
567,69	1265,64
567,89	1241,07
568,08	1271,79
568,28	1359,85
568,47	1243,12
568,67	1224,69
568,86	1216,49
569,06	1275,88
569,25	1288,17
569,45	1216,49
569,64	1308,65
569,84	1181,68
570,04	1214,45
570,23	1345,52
570,43	1226,73
570,62	1253,36
570,82	1239,02
571,01	1265,64
571,21	1208,30
571,40	1226,73
571,60	1298,41
571,79	1273,84
571,99	1255,40
572,18	1277,93
572,38	1290,22
572,57	1202,16
572,77	1300,46
572,96	1417,19
573,16	1249,26
573,35	1282,03
573,55	1218,54
573,74	1288,17
573,94	1220,59
574,13	1290,22
574,33	1298,41
574,52	1349,61
574,71	1257,45
574,91	1304,56
575,10	1255,40
575,30	1290,22
575,49	1261,55
575,69	1212,40
575,88	1255,40
576,08	1275,88
576,27	1370,09
576,47	1290,22
576,66	1318,89
576,86	1288,17
577,05	1314,80
577,25	1284,08
577,44	1259,50
577,64	1267,69
577,83	1284,08
578,02	1243,12
578,22	1273,84
578,41	1333,23
578,61	1304,56
578,80	1259,50
579,00	1210,35
579,19	1294,32
579,39	1202,16
579,58	1308,65
579,77	1298,41
579,97	1249,26
580,16	1216,49
580,36	1298,41
580,55	1322,99
580,75	1302,51
580,94	1255,40
581,13	1286,12
581,33	1271,79
581,52	1251,31
581,72	1216,49
581,91	1269,74
582,11	1282,03
582,30	1255,40
582,49	1245,16
582,69	1241,07
582,88	1277,93
583,08	1320,94
583,27	1298,41
583,47	1265,64
583,66	1224,69
583,85	1216,49
584,05	1265,64
584,24	1204,21
584,44	1265,64
584,63	1302,51
584,82	1273,84
585,02	1247,21
585,21	1279,98
585,41	1306,60
585,60	1322,99
585,79	1355,76
585,99	1232,88
586,18	1261,55
586,37	1300,46
586,57	1218,54
586,76	1308,65
586,96	1267,69
587,15	1230,83
587,34	1288,17
587,54	1304,56
587,73	1263,60
587,93	1234,93
588,12	1312,75
588,31	1288,17
588,51	1249,26
588,70	1204,21
588,89	1282,03
589,09	1343,47
589,28	1355,76
589,47	1294,32
589,67	1204,21
589,86	1302,51
590,06	1196,01
590,25	1228,78
590,44	1302,51
590,64	1226,73
590,83	1255,40
591,02	1247,21
591,22	1282,03
591,41	1406,95
591,60	1277,93
591,80	1284,08
591,99	1314,80
592,18	1232,88
592,38	1312,75
592,57	1239,02
592,76	1206,25
592,96	1247,21
593,15	1255,40
593,34	1345,52
593,54	1288,17
593,73	1327,08
593,92	1277,93
594,12	1271,79
594,31	1296,36
594,50	1261,55
594,70	1302,51
594,89	1224,69
595,08	1312,75
595,28	1316,84
595,47	1298,41
595,66	1304,56
595,86	1277,93
596,05	1288,17
596,24	1257,45
596,43	1277,93
596,63	1308,65
596,82	1255,40
597,01	1226,73
597,21	1306,60
597,40	1234,93
597,59	1320,94
597,79	1222,64
597,98	1292,27
598,17	1320,94
598,36	1300,46
598,56	1239,02
598,75	1282,03
598,94	1322,99
599,14	1282,03
599,33	1275,88
599,52	1347,56
599,71	1286,12
599,91	1239,02
600,10	1255,40
600,29	1222,64
600,48	1357,80
600,68	1216,49
600,87	1261,55
601,06	1335,28
601,26	1263,60
601,45	1282,03
601,64	1327,08
601,83	1288,17
602,03	1322,99
602,22	1302,51
602,41	1253,36
602,60	1249,26
602,80	1343,47
602,99	1214,45
603,18	1253,36
603,37	1245,16
603,57	1329,13
603,76	1282,03
603,95	1251,31
604,14	1304,56
604,34	1282,03
604,53	1284,08
604,72	1306,60
604,91	1212,40
605,10	1247,21
605,30	1208,30
605,49	1290,22
605,68	1236,97
605,87	1251,31
606,07	1249,26
606,26	1265,64
606,45	1290,22
606,64	1308,65
606,84	1236,97
607,03	1212,40
607,22	1222,64
607,41	1263,60
607,60	1245,16
607,80	1263,60
607,99	1222,64
608,18	1282,03
608,37	1265,64
608,56	1288,17
608,76	1263,60
608,95	1316,84
609,14	1253,36
609,33	1325,04
609,52	1271,79
609,72	1224,69
609,91	1218,54
610,10	1232,88
610,29	1288,17
610,48	1247,21
610,68	1269,74
610,87	1329,13
611,06	1271,79
611,25	1312,75
611,44	1214,45
611,63	1257,45
611,83	1222,64
612,02	1296,36
612,21	1279,98
612,40	1273,84
612,59	1282,03
612,79	1294,32
612,98	1304,56
613,17	1337,32
613,36	1286,12
613,55	1253,36
613,74	1251,31
613,93	1216,49
614,13	1230,83
614,32	1288,17
614,51	1286,12
614,70	1257,45
614,89	1253,36
615,08	1296,36
615,28	1294,32
615,47	1247,21
615,66	1224,69
615,85	1296,36
616,04	1241,07
616,23	1261,55
616,42	1314,80
616,62	1361,90
616,81	1275,88
617,00	1292,27
617,19	1296,36
617,38	1279,98
617,57	1339,37
617,76	1290,22
617,95	1331,18
618,15	1210,35
618,34	1282,03
618,53	1269,74
618,72	1226,73
618,91	1306,60
619,10	1308,65
619,29	1304,56
619,48	1339,37
619,68	1220,59
619,87	1224,69
620,06	1269,74
620,25	1286,12
620,44	1216,49
620,63	1218,54
620,82	1296,36
621,01	1288,17
621,20	1286,12
621,39	1241,07
621,59	1366,00
621,78	1269,74
621,97	1292,27
622,16	1253,36
622,35	1267,69
622,54	1335,28
622,73	1247,21
622,92	1302,51
623,11	1333,23
623,30	1265,64
623,49	1263,60
623,68	1298,41
623,88	1241,07
624,07	1265,64
624,26	1267,69
624,45	1271,79
624,64	1327,08
624,83	1255,40
625,02	1251,31
625,21	1245,16
625,40	1298,41
625,59	1275,88
625,78	1292,27
625,97	1327,08
626,16	1236,97
626,35	1236,97
626,54	1320,94
626,74	1279,98
626,93	1333,23
627,12	1279,98
627,31	1245,16
627,50	1282,03
627,69	1308,65
627,88	1282,03
628,07	1290,22
628,26	1320,94
628,45	1284,08
628,64	1288,17
628,83	1263,60
629,02	1263,60
629,21	1277,93
629,40	1298,41
629,59	1273,84
629,78	1312,75
629,97	1294,32
630,16	1251,31
630,35	1341,42
630,54	1316,84
630,73	1255,40
630,92	1251,31
631,11	1343,47
631,30	1366,00
631,49	1329,13
631,68	1740,77
631,87	2813,91
632,06	6279,07
632,25	6049,70
632,44	9426,80
632,63	12861,24
632,82	18290,41
633,01	37389,77
633,20	65535,00
633,39	65535,00
633,58	51758,31
633,77	28591,69
633,96	13250,36
634,15	7958,41
634,34	6004,64
634,53	4360,13
634,72	2684,89
634,91	1959,91
635,10	1812,45
635,29	1746,92
635,48	1705,96
635,67	1632,23
635,86	1495,02
636,05	1406,95
636,24	1384,43
636,43	1335,28
636,62	1435,63
636,81	1376,24
637,00	1265,64
637,19	1318,89
637,38	1411,05
637,57	1331,18
637,76	1343,47
637,95	1243,12
638,14	1308,65
638,33	1355,76
638,52	1361,90
638,71	1290,22
638,89	1261,55
639,08	1259,50
639,27	1302,51
639,46	1306,60
639,65	1337,32
639,84	1275,88
640,03	1347,56
640,22	1241,07
640,41	1333,23
640,60	1234,93
640,79	1249,26
640,98	1292,27
641,17	1277,93
641,36	1265,64
641,55	1253,36
641,74	1243,12
641,92	1193,97
642,11	1218,54
642,30	1261,55
642,49	1214,45
642,68	1312,75
642,87	1284,08
643,06	1277,93
643,25	1226,73
643,44	1298,41
643,63	1234,93
643,82	1327,08
644,00	1273,84
644,19	1216,49
644,38	1179,63
644,57	1322,99
644,76	1302,51
644,95	1271,79
645,14	1222,64
645,33	1322,99
645,52	1292,27
645,71	1275,88
645,89	1314,80
646,08	1347,56
646,27	1277,93
646,46	1265,64
646,65	1302,51
646,84	1279,98
647,03	1261,55
647,22	1230,83
647,40	1265,64
647,59	1279,98
647,78	1265,64
647,97	1263,60
648,16	1341,42
648,35	1327,08
648,54	1261,55
648,73	1302,51
648,91	1331,18
649,10	1279,98
649,29	1249,26
649,48	1243,12
649,67	1234,93
649,86	1298,41
650,05	1288,17
650,23	1259,50
650,42	1269,74
650,61	1271,79
650,80	1312,75
650,99	1325,04
651,18	1312,75
651,36	1265,64
651,55	1339,37
651,74	1245,16
651,93	1306,60
652,12	1284,08
652,31	1241,07
652,49	1263,60
652,68	1302,51
652,87	1294,32
653,06	1230,83
653,25	1290,22
653,44	1308,65
653,62	1232,88
653,81	1259,50
654,00	1255,40
654,19	1286,12
654,38	1290,22
654,56	1290,22
654,75	1226,73
654,94	1273,84
655,13	1214,45
655,32	1294,32
655,51	1286,12
655,69	1204,21
655,88	1329,13
656,07	1261,55
656,26	1302,51
656,45	1359,85
656,63	1210,35
656,82	1251,31
657,01	1292,27
657,20	1208,30
657,38	1265,64
657,57	1331,18
657,76	1294,32
657,95	1216,49
658,14	1306,60
658,32	1288,17
658,51	1255,40
658,70	1296,36
658,89	1267,69
659,08	1345,52
659,26	1306,60
659,45	1267,69
659,64	1259,50
659,83	1331,18
660,01	1198,06
660,20	1243,12
660,39	1253,36
660,58	1345,52
660,76	1335,28
660,95	1232,88
661,14	1292,27
661,33	1265,64
661,51	1210,35
661,70	1294,32
661,89	1200,11
662,08	1327,08
662,26	1263,60
662,45	1243,12
662,64	1241,07
662,83	1300,46
663,01	1306,60
663,20	1236,97
663,39	1255,40
663,58	1288,17
663,76	1279,98
663,95	1236,97
664,14	1286,12
664,32	1255,40
664,51	1208,30
664,70	1226,73
664,89	1273,84
665,07	1243,12
665,26	1298,41
665,45	1273,84
665,64	1257,45
665,82	1304,56
666,01	1288,17
666,20	1355,76
666,38	1277,93
666,57	1267,69
666,76	1277,93
666,95	1298,41
667,13	1359,85
667,32	1294,32
667,51	1271,79
667,69	1316,84
667,88	1265,64
668,07	1204,21
668,25	1325,04
668,44	1247,21
668,63	1306,60
668,81	1247,21
669,00	1296,36
669,19	1218,54
669,38	1187,82
669,56	1294,32
669,75	1265,64
669,94	1290,22
670,12	1269,74
670,31	1198,06
670,50	1288,17
670,68	1218,54
670,87	1253,36
671,06	1288,17
671,24	1269,74
671,43	1318,89
671,62	1279,98
671,80	1245,16
671,99	1239,02
672,18	1277,93
672,36	1335,28
672,55	1263,60
672,74	1292,27
672,92	1265,64
673,11	1288,17
673,29	1302,51
673,48	1290,22
673,67	1232,88
673,85	1275,88
674,04	1247,21
674,23	1183,73
674,41	1218,54
674,60	1271,79
674,79	1271,79
674,97	1312,75
675,16	1282,03
675,34	1312,75
675,53	1327,08
675,72	1304,56
675,90	1314,80
676,09	1325,04
676,28	1222,64
676,46	1288,17
676,65	1232,88
676,83	1294,32
677,02	1236,97
677,21	1241,07
677,39	1310,70
677,58	1306,60
677,77	1277,93
677,95	1243,12
678,14	1183,73
678,32	1308,65
678,51	1314,80
678,70	1357,80
678,88	1247,21
679,07	1288,17
679,25	1275,88
679,44	1273,84
679,63	1251,31
679,81	1257,45
680,00	1269,74
680,18	1245,16
680,37	1294,32
680,55	1306,60
680,74	1251,31
680,93	1173,49
681,11	1279,98
681,30	1263,60
681,48	1251,31
681,67	1318,89
681,85	1263,60
682,04	1329,13
682,23	1251,31
682,41	1284,08
682,60	1279,98
682,78	1236,97
682,97	1316,84
683,15	1286,12
683,34	1312,75
683,53	1290,22
683,71	1277,93
683,90	1220,59
684,08	1286,12
684,27	1241,07
684,45	1331,18
684,64	1247,21
684,82	1253,36
685,01	1325,04
685,19	1298,41
685,38	1263,60
685,57	1243,12
685,75	1249,26
685,94	1220,59
686,12	1265,64
686,31	1239,02
686,49	1318,89
686,68	1251,31
686,86	1312,75
687,05	1265,64
687,23	1226,73
687,42	1234,93
687,60	1249,26
687,79	1263,60
687,97	1318,89
688,16	1314,80
688,34	1331,18
688,53	1279,98
688,71	1308,65
688,90	1265,64
689,08	1253,36
689,27	1236,97
689,45	1316,84
689,64	1286,12
689,82	1251,31
690,01	1253,36
690,19	1255,40
690,38	1245,16
690,56	1320,94
690,75	1249,26
690,93	1245,16
691,12	1310,70
691,30	1232,88
691,49	1261,55
691,67	1253,36
691,86	1282,03
692,04	1337,32
692,23	1263,60
692,41	1290,22
692,60	1320,94
692,78	1241,07
692,97	1269,74
693,15	1331,18
693,34	1312,75
693,52	1269,74
693,71	1255,40
693,89	1247,21
694,08	1263,60
694,26	1230,83
694,44	1310,70
694,63	1288,17
694,81	1271,79
695,00	1226,73
695,18	1243,12
695,37	1265,64
695,55	1288,17
695,74	1239,02
695,92	1267,69
696,10	1273,84
696,29	1247,21
696,47	1314,80
696,66	1253,36
696,84	1306,60
697,03	1318,89
697,21	1282,03
697,40	1288,17
697,58	1294,32
697,76	1294,32
697,95	1271,79
698,13	1282,03
698,32	1206,25
698,50	1243,12
698,68	1304,56
698,87	1234,93
699,05	1255,40
699,24	1214,45
699,42	1241,07
699,61	1359,85
699,79	1302,51
699,97	1218,54
700,16	1261,55
700,34	1187,82
700,53	1269,74
700,71	1269,74
700,89	1286,12
701,08	1234,93
701,26	1257,45
701,45	1300,46
701,63	1255,40
701,81	1282,03
702,00	1265,64
702,18	1243,12
702,37	1228,78
702,55	1288,17
702,73	1253,36
702,92	1247,21
703,10	1288,17
703,28	1318,89
703,47	1257,45
703,65	1294,32
703,84	1214,45
704,02	1273,84
704,20	1275,88
704,39	1284,08
704,57	1290,22
704,75	1253,36
704,94	1282,03
705,12	1306,60
705,30	1271,79
705,49	1263,60
705,67	1255,40
705,86	1304,56
706,04	1257,45
706,22	1259,50
706,41	1241,07
706,59	1304,56
706,77	1253,36
706,96	1216,49
707,14	1298,41
707,32	1245,16
707,51	1214,45
707,69	1273,84
707,87	1273,84
708,06	1169,39
708,24	1312,75
708,42	1290,22
708,61	1247,21
708,79	1267,69
708,97	1265,64
709,16	1290,22
709,34	1320,94
709,52	1255,40
709,71	1312,75
709,89	1224,69
710,07	1286,12
710,26	1263,60
710,44	1245,16
710,62	1277,93
710,80	1241,07
710,99	1298,41
711,17	1245,16
711,35	1224,69
711,54	1300,46
711,72	1359,85
711,90	1245,16
712,09	1314,80
712,27	1273,84
712,45	1230,83
712,63	1273,84
712,82	1277,93
713,00	1220,59
713,18	1263,60
713,37	1251,31
713,55	1249,26
713,73	1249,26
713,91	1230,83
714,10	1239,02
714,28	1284,08
714,46	1216,49
714,65	1292,27
714,83	1361,90
715,01	1290,22
715,19	1271,79
715,38	1228,78
715,56	1372,14
715,74	1284,08
715,92	1286,12
716,11	1275,88
716,29	1312,75
716,47	1249,26
716,65	1288,17
716,84	1314,80
717,02	1306,60
717,20	1206,25
717,38	1269,74
717,57	1261,55
717,75	1282,03
717,93	1288,17
718,11	1290,22
718,30	1220,59
718,48	1284,08
718,66	1288,17
718,84	1263,60
719,03	1304,56
719,21	1232,88
719,39	1298,41
719,57	1298,41
719,75	1249,26
719,94	1265,64
720,12	1236,97
720,30	1282,03
720,48	1314,80
720,67	1255,40
720,85	1331,18
721,03	1322,99
721,21	1320,94
721,39	1310,70
721,58	1279,98
721,76	1243,12
721,94	1286,12
722,12	1277,93
722,30	1269,74
722,49	1263,60
722,67	1150,96
722,85	1265,64
723,03	1269,74
723,21	1263,60
723,40	1220,59
723,58	1241,07
723,76	1279,98
723,94	1298,41
724,12	1290,22
724,30	1294,32
724,49	1282,03
724,67	1302,51
724,85	1230,83
725,03	1314,80
725,21	1357,80
725,40	1263,60
725,58	1275,88
725,76	1265,64
725,94	1308,65
726,12	1243,12
726,30	1294,32
726,49	1308,65
726,67	1257,45
726,85	1249,26
727,03	1300,46
727,21	1239,02
727,39	1325,04
727,57	1302,51
727,76	1208,30
727,94	1286,12
728,12	1249,26
728,30	1214,45
728,48	1230,83
728,66	1259,50
728,84	1230,83
729,03	1269,74
729,21	1286,12
729,39	1302,51
729,57	1327,08
729,75	1275,88
729,93	1261,55
730,11	1312,75
730,30	1294,32
730,48	1253,36
730,66	1257,45
730,84	1275,88
731,02	1284,08
731,20	1329,13
731,38	1271,79
731,56	1277,93
731,74	1224,69
731,93	1241,07
732,11	1294,32
732,29	1247,21
732,47	1275,88
732,65	1279,98
732,83	1310,70
733,01	1265,64
733,19	1290,22
733,37	1243,12
733,56	1308,65
733,74	1249,26
733,92	1386,47
734,10	1255,40
734,28	1247,21
734,46	1269,74
734,64	1333,23
734,82	1249,26
735,00	1230,83
735,18	1292,27
735,36	1290,22
735,54	1247,21
735,73	1251,31
735,91	1247,21
736,09	1247,21
736,27	1320,94
736,45	1265,64
736,63	1257,45
736,81	1288,17
736,99	1290,22
737,17	1185,77
737,35	1290,22
737,53	1290,22
737,71	1292,27
737,89	1314,80
738,07	1222,64
738,25	1292,27
738,43	1279,98
738,61	1247,21
738,80	1173,49
738,98	1302,51
739,16	1318,89
739,34	1261,55
739,52	1236,97
739,70	1236,97
739,88	1226,73
740,06	1249,26
740,24	1351,66
740,42	1173,49
740,60	1279,98
740,78	1259,50
740,96	1273,84
741,14	1259,50
741,32	1312,75
741,50	1290,22
741,68	1212,40
741,86	1277,93
742,04	1249,26
742,22	1265,64
742,40	1279,98
742,58	1269,74
742,76	1259,50
742,94	1253,36
743,12	1329,13
743,30	1259,50
743,48	1210,35
743,66	1308,65
743,84	1273,84
744,02	1310,70
744,20	1288,17
744,38	1271,79
744,56	1296,36
744,74	1282,03
744,92	1230,83
745,10	1279,98
745,28	1273,84
745,46	1286,12
745,64	1361,90
745,82	1304,56
746,00	1222,64
746,18	1327,08
746,36	1271,79
746,54	1228,78
746,72	1271,79
746,90	1222,64
747,08	1286,12
747,26	1200,11
747,44	1253,36
747,62	1300,46
747,80	1292,27
747,98	1304,56
748,15	1333,23
748,33	1200,11
748,51	1296,36
748,69	1325,04
748,87	1267,69
749,05	1308,65
749,23	1265,64
749,41	1296,36
749,59	1230,83
749,77	1263,60
749,95	1239,02
750,13	1236,97
750,31	1298,41
750,49	1218,54
750,67	1275,88
750,85	1341,42
751,03	1249,26
751,20	1290,22
751,38	1249,26
751,56	1271,79
751,74	1253,36
751,92	1220,59
752,10	1230,83
752,28	1273,84
752,46	1257,45
752,64	1322,99
752,82	1335,28
753,00	1298,41
753,18	1245,16
753,35	1263,60
753,53	1224,69
753,71	1267,69
753,89	1318,89
754,07	1275,88
754,25	1273,84
754,43	1267,69
754,61	1257,45
754,79	1312,75
754,97	1279,98
755,14	1265,64
755,32	1247,21
755,50	1210,35
755,68	1333,23
755,86	1284,08
756,04	1206,25
756,22	1341,42
756,40	1279,98
756,57	1216,49
756,75	1247,21
756,93	1302,51
757,11	1310,70
757,29	1245,16
757,47	1241,07
757,65	1286,12
757,82	1230,83
758,00	1292,27
758,18	1271,79
758,36	1257,45
758,54	1263,60
758,72	1279,98
758,90	1269,74
759,07	1314,80
759,25	1226,73
759,43	1335,28
759,61	1222,64
759,79	1347,56
759,97	1241,07
760,15	1286,12
760,32	1226,73
760,50	1290,22
760,68	1239,02
760,86	1263,60
761,04	1261,55
761,22	1261,55
761,39	1273,84
761,57	1173,49
761,75	1329,13
761,93	1251,31
762,11	1316,84
762,28	1245,16
762,46	1220,59
762,64	1265,64
762,82	1269,74
763,00	1218,54
763,18	1343,47
763,35	1136,62
763,53	1214,45
763,71	1279,98
763,89	1257,45
764,07	1286,12
764,24	1230,83
764,42	1314,80
764,60	1273,84
764,78	1241,07
764,96	1245,16
765,13	1253,36
765,31	1259,50
765,49	1228,78
765,67	1318,89
765,84	1322,99
766,02	1290,22
766,20	1265,64
766,38	1275,88
766,56	1165,29
766,73	1226,73
766,91	1247,21
767,09	1304,56
767,27	1314,80
767,44	1308,65
767,62	1314,80
767,80	1259,50
767,98	1257,45
768,15	1255,40
768,33	1263,60
768,51	1265,64
768,69	1220,59
768,87	1279,98
769,04	1273,84
769,22	1361,90
769,40	1241,07
769,58	1249,26
769,75	1296,36
769,93	1279,98
770,11	1218,54
770,28	1294,32
770,46	1304,56
770,64	1245,16
770,82	1239,02
770,99	1286,12
771,17	1310,70
771,35	1226,73
771,53	1304,56
771,70	1267,69
771,88	1275,88
772,06	1239,02
772,23	1275,88
772,41	1232,88
772,59	1265,64
772,77	1226,73
772,94	1277,93
773,12	1337,32
773,30	1208,30
773,47	1263,60
773,65	1204,21
773,83	1314,80
774,01	1347,56
774,18	1206,25
774,36	1255,40
774,54	1251,31
774,71	1271,79
774,89	1304,56
775,07	1279,98
775,24	1230,83
775,42	1224,69
775,60	1302,51
775,78	1296,36
775,95	1239,02
776,13	1286,12
776,31	1294,32
776,48	1202,16
776,66	1294,32
776,84	1288,17
777,01	1314,80
777,19	1279,98
777,37	1273,84
777,54	1308,65
777,72	1327,08
777,90	1204,21
778,07	1257,45
778,25	1286,12
778,43	1175,53
778,60	1247,21
778,78	1341,42
778,96	1236,97
779,13	1288,17
779,31	1265,64
779,49	1210,35
779,66	1263,60
779,84	1279,98
780,01	1232,88
780,19	1220,59
780,37	1327,08
780,54	1300,46
780,72	1263,60
780,90	1277,93
781,07	1187,82
781,25	1304,56
781,43	1212,40
781,60	1277,93
781,78	1253,36
781,95	1273,84
782,13	1304,56
782,31	1273,84
782,48	1275,88
782,66	1286,12
782,83	1253,36
783,01	1296,36
783,19	1318,89
783,36	1370,09
783,54	1245,16
783,72	1239,02
783,89	1277,93
784,07	1300,46
784,24	1196,01
784,42	1310,70
784,60	1284,08
784,77	1236,97
784,95	1259,50
785,12	1286,12
785,30	1228,78
785,47	1239,02
785,65	1247,21
785,83	1241,07
786,00	1234,93
786,18	1275,88
786,35	1210,35
786,53	1300,46
786,71	1273,84
786,88	1247,21
787,06	1298,41
787,23	1273,84
787,41	1351,66
787,58	1230,83
787,76	1222,64
787,94	1292,27
788,11	1322,99
788,29	1261,55
788,46	1331,18
788,64	1279,98
788,81	1216,49
788,99	1411,05
789,16	1236,97
789,34	1306,60
789,52	1245,16
789,69	1277,93
789,87	1210,35
790,04	1259,50
790,22	1214,45
790,39	1210,35
790,57	1298,41
790,74	1329,13
790,92	1206,25
791,09	1312,75
791,27	1265,64
791,44	1243,12
791,62	1218,54
791,79	1198,06
791,97	1230,83
792,15	1259,50
792,32	1341,42
792,50	1288,17
792,67	1322,99
792,85	1296,36
793,02	1304,56
793,20	1247,21
793,37	1302,51
793,55	1292,27
793,72	1277,93
793,90	1257,45
794,07	1271,79
794,25	1216,49
794,42	1251,31
794,60	1239,02
794,77	1296,36
794,95	1210,35
795,12	1290,22
795,30	1306,60
795,47	1247,21
795,65	1222,64
795,82	1206,25
796,00	1198,06
796,17	1232,88
796,34	1255,40
796,52	1259,50
796,69	1290,22
796,87	1273,84
797,04	1279,98
797,22	1339,37
797,39	1249,26
797,57	1284,08
797,74	1243,12
797,92	1304,56
798,09	1312,75
798,27	1249,26
798,44	1325,04
798,62	1263,60
798,79	1308,65
798,96	1263,60
799,14	1275,88
799,31	1288,17
799,49	1181,68
799,66	1175,53
799,84	1325,04
800,01	1306,60
800,19	1200,11
800,36	1271,79
800,53	1218,54
800,71	1206,25
800,88	1257,45
801,06	1218,54
801,23	1294,32
801,41	1271,79
801,58	1279,98
801,75	1271,79
801,93	1306,60
802,10	1236,97
802,28	1347,56
802,45	1196,01
802,63	1163,25
802,80	1220,59
802,97	1245,16
803,15	1271,79
803,32	1288,17
803,50	1257,45
803,67	1284,08
803,84	1247,21
804,02	1306,60
804,19	1236,97
804,37	1284,08
804,54	1249,26
804,71	1310,70
804,89	1279,98
805,06	1255,40
805,24	1236,97
805,41	1267,69
805,58	1290,22
805,76	1359,85
805,93	1292,27
806,10	1337,32
806,28	1249,26
806,45	1216,49
806,63	1196,01
806,80	1249,26
806,97	1269,74
807,15	1263,60
807,32	1327,08
807,49	1273,84
807,67	1257,45
807,84	1370,09
808,01	1257,45
808,19	1341,42
808,36	1337,32
808,54	1255,40
808,71	1290,22
808,88	1288,17
809,06	1165,29
809,23	1271,79
809,40	1267,69
809,58	1304,56
809,75	1265,64
809,92	1263,60
810,10	1302,51
810,27	1302,51
810,44	1322,99
810,62	1349,61
810,79	1273,84
810,96	1253,36
811,14	1255,40
811,31	1296,36
811,48	1288,17
811,66	1218,54
811,83	1224,69
812,00	1251,31
812,18	1230,83
812,35	1316,84
812,52	1333,23
812,69	1255,40
812,87	1312,75
813,04	1282,03
813,21	1236,97
813,39	1255,40
813,56	1253,36
813,73	1331,18
813,91	1273,84
814,08	1292,27
814,25	1249,26
814,42	1273,84
814,60	1282,03
814,77	1286,12
814,94	1263,60
815,12	1290,22
815,29	1277,93
815,46	1279,98
815,63	1243,12
815,81	1277,93
815,98	1222,64
816,15	1298,41
816,33	1277,93
816,50	1292,27
816,67	1277,93
816,84	1226,73
817,02	1357,80
817,19	1255,40
817,36	1247,21
817,53	1300,46
817,71	1269,74
817,88	1282,03
818,05	1232,88
818,22	1255,40
818,40	1314,80
818,57	1325,04
818,74	1265,64
818,91	1286,12
819,09	1230,83
819,26	1279,98
819,43	1308,65
819,60	1275,88
819,78	1249,26
819,95	1257,45
820,12	1294,32
820,29	1245,16
820,47	1279,98
820,64	1269,74
820,81	1269,74
820,98	1316,84
821,15	1257,45
821,33	1335,28
821,50	1322,99
821,67	1302,51
821,84	1275,88
822,02	1392,62
822,19	1263,60
822,36	1273,84
822,53	1290,22
822,70	1226,73
822,88	1298,41
823,05	1282,03
823,22	1261,55
823,39	1257,45
823,56	1288,17
823,74	1308,65
823,91	1239,02
824,08	1327,08
824,25	1267,69
824,42	1341,42
824,60	1284,08
824,77	1257,45
824,94	1212,40
825,11	1224,69
825,28	1284,08
825,45	1241,07
825,63	1200,11
825,80	1216,49
825,97	1282,03
826,14	1355,76
826,31	1304,56
826,48	1355,76
826,66	1257,45
826,83	1181,68
827,00	1308,65
827,17	1296,36
827,34	1290,22
827,51	1208,30
827,69	1306,60
827,86	1253,36
828,03	1306,60
828,20	1263,60
828,37	1216,49
828,54	1292,27
828,71	1279,98
828,89	1300,46
829,06	1232,88
829,23	1286,12
829,40	1286,12
829,57	1255,40
829,74	1273,84
829,91	1267,69
830,09	1249,26
830,26	1245,16
830,43	1282,03
830,60	1320,94
830,77	1257,45
830,94	1273,84
831,11	1245,16
831,28	1265,64
831,46	1216,49
831,63	1353,71
831,80	1249,26
831,97	1288,17
832,14	1298,41
832,31	1308,65
832,48	1261,55
832,65	1220,59
832,82	1257,45
832,99	1376,24
833,17	1253,36
833,34	1239,02
833,51	1224,69
833,68	1284,08
833,85	1204,21
834,02	1232,88
834,19	1236,97
834,36	1267,69
834,53	1298,41
834,70	1253,36
834,87	1265,64
835,04	1314,80
835,22	1265,64
835,39	1261,55
835,56	1261,55
835,73	1255,40
835,90	1259,50
836,07	1349,61
836,24	1210,35
836,41	1298,41
836,58	1273,84
836,75	1251,31
836,92	1271,79
837,09	1277,93
837,26	1214,45
837,43	1296,36
837,60	1290,22
837,77	1288,17
837,94	1257,45
838,12	1286,12
838,29	1251,31
838,46	1230,83
838,63	1228,78
838,80	1263,60
838,97	1331,18
839,14	1251,31
839,31	1296,36
839,48	1294,32
839,65	1288,17
839,82	1341,42
839,99	1300,46
840,16	1335,28
840,33	1196,01
840,50	1267,69
840,67	1273,84
840,84	1243,12
841,01	1265,64
841,18	1259,50
841,35	1322,99
841,52	1320,94
841,69	1273,84
841,86	1226,73
842,03	1245,16
842,20	1294,32
842,37	1210,35
842,54	1279,98
842,71	1327,08
842,88	1312,75
843,05	1325,04
843,22	1228,78
843,39	1351,66
843,56	1284,08
843,73	1239,02
843,90	1249,26
844,07	1294,32
844,24	1292,27
844,41	1228,78
844,58	1269,74
844,75	1241,07
844,92	1302,51
845,09	1265,64
845,26	1236,97
845,43	1310,70
845,60	1265,64
845,77	1300,46
845,94	1308,65
846,10	1296,36
846,27	1312,75
846,44	1308,65
846,61	1314,80
846,78	1273,84
846,95	1304,56
847,12	1296,36
847,29	1234,93
847,46	1220,59
847,63	1322,99
847,80	1243,12
847,97	1245,16
848,14	1271,79
848,31	1329,13
848,48	1327,08
848,65	1296,36
848,82	1247,21
848,98	1200,11
849,15	1335,28
849,32	1273,84
849,49	1329,13
849,66	1230,83
849,83	1279,98
850,00	1302,51
850,17	1325,04
850,34	1279,98
850,51	1245,16
850,68	1263,60
850,85	1265,64
851,01	1179,63
851,18	1239,02
851,35	1259,50
851,52	1294,32
851,69	1306,60
851,86	1196,01
852,03	1224,69
852,20	1302,51
852,37	1193,97
852,53	1286,12
852,70	1290,22
852,87	1206,25
853,04	1353,71
853,21	1273,84
853,38	1257,45
853,55	1318,89
853,72	1277,93
853,89	1210,35
854,05	1255,40
854,22	1322,99
854,39	1265,64
854,56	1277,93
854,73	1239,02
854,90	1277,93
855,07	1296,36
855,23	1230,83
855,40	1255,40
855,57	1314,80
855,74	1302,51
855,91	1288,17
856,08	1308,65
856,25	1218,54
856,41	1318,89
856,58	1316,84
856,75	1224,69
856,92	1282,03
857,09	1271,79
857,26	1282,03
857,42	1329,13
857,59	1277,93
857,76	1290,22
857,93	1245,16
858,10	1304,56
858,27	1269,74
858,43	1290,22
858,60	1249,26
858,77	1304,56
858,94	1286,12
859,11	1273,84
859,27	1236,97
859,44	1255,40
859,61	1265,64
859,78	1277,93
859,95	1265,64
860,12	1222,64
860,28	1282,03
860,45	1296,36
860,62	1236,97
860,79	1290,22
860,95	1253,36
861,12	1310,70
861,29	1249,26
861,46	1271,79
861,63	1282,03
861,79	1296,36
861,96	1257,45
862,13	1279,98
862,30	1306,60
862,47	1302,51
862,63	1269,74
862,80	1329,13
862,97	1304,56
863,14	1257,45
863,30	1286,12
863,47	1298,41
863,64	1196,01
863,81	1224,69
863,97	1296,36
864,14	1222,64
864,31	1273,84
864,48	1241,07
864,65	1306,60
864,81	1310,70
864,98	1355,76
865,15	1310,70
865,32	1273,84
865,48	1341,42
865,65	1306,60
865,82	1290,22
865,98	1339,37
866,15	1257,45
866,32	1206,25
866,49	1304,56
866,65	1232,88
866,82	1232,88
866,99	1333,23
867,16	1302,51
867,32	1314,80
867,49	1335,28
867,66	1255,40
867,83	1232,88
867,99	1290,22
868,16	1294,32
868,33	1275,88
868,49	1279,98
868,66	1253,36
868,83	1294,32
868,99	1275,88
869,16	1290,22
869,33	1277,93
869,50	1247,21
869,66	1286,12
869,83	1269,74
870,00	1218,54
870,16	1312,75
870,33	1277,93
870,50	1304,56
870,66	1335,28
870,83	1300,46
871,00	1200,11
871,17	1222,64
871,33	1290,22
871,50	1257,45
871,67	1191,92
871,83	1322,99
872,00	1224,69
872,17	1306,60
872,33	1288,17
872,50	1218,54
872,67	1355,76
872,83	1306,60
873,00	1286,12
873,17	1236,97
873,33	1245,16
873,50	1331,18
873,67	1255,40
873,83	1286,12
874,00	1286,12
874,16	1241,07
874,33	1247,21
874,50	1341,42
874,66	1322,99
874,83	1290,22
875,00	1191,92
875,16	1261,55
875,33	1279,98
875,50	1234,93
875,66	1243,12
875,83	1212,40
875,99	1282,03
876,16	1275,88
876,33	1241,07
876,49	1290,22
876,66	1239,02
876,83	1322,99
876,99	1284,08
877,16	1253,36
877,32	1306,60
877,49	1216,49
877,66	1161,20
877,82	1269,74
877,99	1236,97
878,15	1255,40
878,32	1290,22
878,49	1339,37
878,65	1302,51
878,82	1261,55
878,98	1239,02
879,15	1277,93
879,32	1288,17
879,48	1239,02
879,65	1202,16
879,81	1290,22
879,98	1310,70
880,15	1322,99
880,31	1279,98
880,48	1259,50
880,64	1265,64
880,81	1277,93
880,97	1251,31
881,14	1302,51
881,31	1198,06
881,47	1208,30
881,64	1310,70
881,80	1261,55
881,97	1216,49
882,13	1234,93
882,30	1218,54
882,47	1239,02
882,63	1255,40
882,80	1257,45
882,96	1322,99
883,13	1212,40
883,29	1282,03
883,46	1247,21
883,62	1347,56
883,79	1306,60
883,95	1284,08
884,12	1304,56
884,29	1284,08
884,45	1318,89
884,62	1314,80
884,78	1320,94
884,95	1245,16
885,11	1290,22
885,28	1320,94
885,44	1241,07
885,61	1302,51
885,77	1335,28
885,94	1300,46
886,10	1288,17
886,27	1308,65
886,43	1282,03
886,60	1275,88
886,76	1302,51
886,93	1224,69
887,09	1282,03
887,26	1296,36
887,42	1265,64
887,59	1308,65
887,75	1292,27
887,92	1312,75
888,08	1288,17
888,25	1325,04
888,41	1322,99
888,58	1267,69
888,74	1257,45
888,91	1290,22
>>>>>End Processed Spectral Data<<<<<
