SpectraSuite Data File
++++++++++++++++++++++++++++++++++++
Date: Sun Apr 03 19:00:34 CEST 2016
User: root
Dark Spectrum Present: No
Reference Spectrum Present: No
Number of Sampled Component Spectra: 1
Spectrometers: USB4C02835
Integration Time (usec): 10000 (USB4C02835)
Spectra Averaged: 1 (USB4C02835)
Boxcar Smoothing: 0 (USB4C02835)
Correct for Electrical Dark: No (USB4C02835)
Strobe/Lamp Enabled: No (USB4C02835)
Correct for Detector Non-linearity: No (USB4C02835)
Correct for Stray Light: No (USB4C02835)
Number of Pixels in Processed Spectrum: 3648
>>>>>Begin Processed Spectral Data<<<<<
177,47	1255,40
177,69	1255,40
177,91	1255,40
178,13	1222,64
178,36	1257,45
178,58	1247,21
178,80	1284,08
179,02	1196,01
179,24	1257,45
179,46	1208,30
179,68	1247,21
179,90	1243,12
180,13	1322,99
180,35	1253,36
180,57	1306,60
180,79	1241,07
181,01	1284,08
181,23	1261,55
181,45	1312,75
181,67	1288,17
181,90	1304,56
182,12	1275,88
182,34	1234,93
182,56	1263,60
182,78	1282,03
183,00	1269,74
183,22	1314,80
183,44	1247,21
183,66	1292,27
183,89	1292,27
184,11	1232,88
184,33	1284,08
184,55	1257,45
184,77	1228,78
184,99	1202,16
185,21	1275,88
185,43	1247,21
185,65	1236,97
185,87	1282,03
186,10	1302,51
186,32	1286,12
186,54	1224,69
186,76	1249,26
186,98	1253,36
187,20	1265,64
187,42	1251,31
187,64	1216,49
187,86	1308,65
188,08	1318,89
188,30	1269,74
188,52	1216,49
188,75	1298,41
188,97	1320,94
189,19	1222,64
189,41	1232,88
189,63	1277,93
189,85	1191,92
190,07	1284,08
190,29	1241,07
190,51	1243,12
190,73	1263,60
190,95	1290,22
191,17	1271,79
191,39	1310,70
191,61	1263,60
191,84	1245,16
192,06	1284,08
192,28	1251,31
192,50	1302,51
192,72	1255,40
192,94	1222,64
193,16	1234,93
193,38	1249,26
193,60	1277,93
193,82	1251,31
194,04	1296,36
194,26	1312,75
194,48	1329,13
194,70	1261,55
194,92	1304,56
195,14	1300,46
195,36	1146,86
195,58	1257,45
195,80	1292,27
196,02	1300,46
196,24	1282,03
196,46	1337,32
196,69	1255,40
196,91	1292,27
197,13	1257,45
197,35	1292,27
197,57	1196,01
197,79	1314,80
198,01	1269,74
198,23	1286,12
198,45	1279,98
198,67	1265,64
198,89	1300,46
199,11	1232,88
199,33	1292,27
199,55	1214,45
199,77	1224,69
199,99	1226,73
200,21	1325,04
200,43	1255,40
200,65	1228,78
200,87	1247,21
201,09	1304,56
201,31	1236,97
201,53	1218,54
201,75	1273,84
201,97	1247,21
202,19	1253,36
202,41	1245,16
202,63	1277,93
202,85	1261,55
203,07	1282,03
203,29	1253,36
203,51	1271,79
203,73	1267,69
203,95	1327,08
204,17	1277,93
204,39	1257,45
204,61	1249,26
204,83	1224,69
205,05	1363,95
205,27	1269,74
205,49	1249,26
205,71	1357,80
205,93	1277,93
206,15	1247,21
206,37	1249,26
206,59	1243,12
206,81	1269,74
207,03	1257,45
207,25	1251,31
207,47	1316,84
207,69	1234,93
207,91	1236,97
208,13	1302,51
208,34	1261,55
208,56	1286,12
208,78	1251,31
209,00	1310,70
209,22	1230,83
209,44	1198,06
209,66	1261,55
209,88	1273,84
210,10	1288,17
210,32	1247,21
210,54	1236,97
210,76	1279,98
210,98	1302,51
211,20	1241,07
211,42	1275,88
211,64	1249,26
211,86	1284,08
212,08	1257,45
212,30	1312,75
212,52	1247,21
212,74	1286,12
212,96	1284,08
213,17	1222,64
213,39	1263,60
213,61	1183,73
213,83	1314,80
214,05	1245,16
214,27	1292,27
214,49	1284,08
214,71	1263,60
214,93	1339,37
215,15	1273,84
215,37	1255,40
215,59	1245,16
215,81	1247,21
216,03	1267,69
216,24	1267,69
216,46	1204,21
216,68	1286,12
216,90	1314,80
217,12	1206,25
217,34	1232,88
217,56	1265,64
217,78	1224,69
218,00	1200,11
218,22	1333,23
218,44	1273,84
218,66	1253,36
218,87	1288,17
219,09	1224,69
219,31	1228,78
219,53	1306,60
219,75	1259,50
219,97	1253,36
220,19	1251,31
220,41	1290,22
220,63	1320,94
220,85	1218,54
221,06	1239,02
221,28	1288,17
221,50	1220,59
221,72	1322,99
221,94	1273,84
222,16	1253,36
222,38	1222,64
222,60	1279,98
222,82	1275,88
223,03	1269,74
223,25	1316,84
223,47	1245,16
223,69	1286,12
223,91	1241,07
224,13	1267,69
224,35	1275,88
224,57	1279,98
224,78	1251,31
225,00	1259,50
225,22	1187,82
225,44	1245,16
225,66	1304,56
225,88	1310,70
226,10	1294,32
226,32	1273,84
226,53	1316,84
226,75	1255,40
226,97	1265,64
227,19	1206,25
227,41	1241,07
227,63	1271,79
227,85	1228,78
228,06	1294,32
228,28	1316,84
228,50	1249,26
228,72	1300,46
228,94	1304,56
229,16	1239,02
229,37	1288,17
229,59	1271,79
229,81	1265,64
230,03	1228,78
230,25	1208,30
230,47	1200,11
230,69	1288,17
230,90	1284,08
231,12	1259,50
231,34	1286,12
231,56	1232,88
231,78	1351,66
232,00	1343,47
232,21	1251,31
232,43	1259,50
232,65	1263,60
232,87	1196,01
233,09	1187,82
233,30	1351,66
233,52	1245,16
233,74	1269,74
233,96	1286,12
234,18	1271,79
234,40	1212,40
234,61	1314,80
234,83	1279,98
235,05	1265,64
235,27	1273,84
235,49	1271,79
235,70	1288,17
235,92	1271,79
236,14	1249,26
236,36	1298,41
236,58	1218,54
236,79	1284,08
237,01	1224,69
237,23	1265,64
237,45	1249,26
237,67	1273,84
237,88	1179,63
238,10	1236,97
238,32	1282,03
238,54	1222,64
238,76	1284,08
238,97	1261,55
239,19	1255,40
239,41	1269,74
239,63	1273,84
239,85	1183,73
240,06	1257,45
240,28	1249,26
240,50	1279,98
240,72	1290,22
240,93	1286,12
241,15	1277,93
241,37	1273,84
241,59	1239,02
241,81	1353,71
242,02	1228,78
242,24	1347,56
242,46	1216,49
242,68	1288,17
242,89	1294,32
243,11	1230,83
243,33	1175,53
243,55	1202,16
243,76	1312,75
243,98	1284,08
244,20	1257,45
244,42	1230,83
244,64	1302,51
244,85	1267,69
245,07	1253,36
245,29	1284,08
245,51	1216,49
245,72	1251,31
245,94	1275,88
246,16	1304,56
246,38	1206,25
246,59	1269,74
246,81	1282,03
247,03	1314,80
247,24	1216,49
247,46	1239,02
247,68	1279,98
247,90	1214,45
248,11	1245,16
248,33	1298,41
248,55	1298,41
248,77	1290,22
248,98	1249,26
249,20	1282,03
249,42	1212,40
249,64	1261,55
249,85	1200,11
250,07	1290,22
250,29	1314,80
250,50	1226,73
250,72	1304,56
250,94	1253,36
251,16	1257,45
251,37	1282,03
251,59	1310,70
251,81	1265,64
252,02	1255,40
252,24	1300,46
252,46	1361,90
252,68	1218,54
252,89	1249,26
253,11	1193,97
253,33	1259,50
253,54	1234,93
253,76	1294,32
253,98	1255,40
254,20	1288,17
254,41	1236,97
254,63	1220,59
254,85	1306,60
255,06	1247,21
255,28	1282,03
255,50	1214,45
255,71	1304,56
255,93	1339,37
256,15	1253,36
256,36	1222,64
256,58	1308,65
256,80	1275,88
257,02	1300,46
257,23	1284,08
257,45	1230,83
257,67	1255,40
257,88	1263,60
258,10	1257,45
258,32	1261,55
258,53	1239,02
258,75	1214,45
258,97	1273,84
259,18	1196,01
259,40	1204,21
259,62	1245,16
259,83	1255,40
260,05	1300,46
260,27	1286,12
260,48	1290,22
260,70	1232,88
260,92	1257,45
261,13	1269,74
261,35	1243,12
261,57	1245,16
261,78	1175,53
262,00	1230,83
262,22	1249,26
262,43	1286,12
262,65	1347,56
262,86	1255,40
263,08	1290,22
263,30	1257,45
263,51	1351,66
263,73	1257,45
263,95	1253,36
264,16	1318,89
264,38	1298,41
264,60	1253,36
264,81	1259,50
265,03	1370,09
265,25	1241,07
265,46	1290,22
265,68	1267,69
265,89	1337,32
266,11	1261,55
266,33	1204,21
266,54	1257,45
266,76	1292,27
266,98	1251,31
267,19	1312,75
267,41	1271,79
267,62	1288,17
267,84	1263,60
268,06	1261,55
268,27	1179,63
268,49	1271,79
268,70	1263,60
268,92	1249,26
269,14	1243,12
269,35	1292,27
269,57	1263,60
269,79	1204,21
270,00	1259,50
270,22	1325,04
270,43	1232,88
270,65	1261,55
270,87	1308,65
271,08	1314,80
271,30	1308,65
271,51	1245,16
271,73	1257,45
271,95	1253,36
272,16	1232,88
272,38	1312,75
272,59	1255,40
272,81	1300,46
273,02	1298,41
273,24	1304,56
273,46	1331,18
273,67	1177,58
273,89	1275,88
274,10	1193,97
274,32	1277,93
274,54	1277,93
274,75	1251,31
274,97	1253,36
275,18	1302,51
275,40	1282,03
275,61	1218,54
275,83	1265,64
276,05	1232,88
276,26	1314,80
276,48	1290,22
276,69	1275,88
276,91	1273,84
277,12	1286,12
277,34	1187,82
277,55	1220,59
277,77	1322,99
277,99	1296,36
278,20	1167,34
278,42	1261,55
278,63	1269,74
278,85	1286,12
279,06	1234,93
279,28	1251,31
279,49	1239,02
279,71	1257,45
279,93	1249,26
280,14	1271,79
280,36	1183,73
280,57	1263,60
280,79	1265,64
281,00	1175,53
281,22	1239,02
281,43	1284,08
281,65	1300,46
281,86	1300,46
282,08	1230,83
282,29	1236,97
282,51	1273,84
282,73	1257,45
282,94	1343,47
283,16	1269,74
283,37	1300,46
283,59	1347,56
283,80	1224,69
284,02	1279,98
284,23	1183,73
284,45	1296,36
284,66	1218,54
284,88	1257,45
285,09	1300,46
285,31	1255,40
285,52	1277,93
285,74	1204,21
285,95	1253,36
286,17	1234,93
286,38	1298,41
286,60	1202,16
286,81	1312,75
287,03	1279,98
287,24	1247,21
287,46	1175,53
287,67	1253,36
287,89	1218,54
288,10	1224,69
288,32	1302,51
288,53	1304,56
288,75	1286,12
288,96	1232,88
289,18	1263,60
289,39	1292,27
289,61	1181,68
289,82	1253,36
290,04	1298,41
290,25	1302,51
290,47	1263,60
290,68	1193,97
290,90	1292,27
291,11	1226,73
291,33	1294,32
291,54	1204,21
291,76	1279,98
291,97	1239,02
292,18	1302,51
292,40	1222,64
292,61	1251,31
292,83	1255,40
293,04	1261,55
293,26	1241,07
293,47	1296,36
293,69	1255,40
293,90	1302,51
294,12	1290,22
294,33	1210,35
294,55	1167,34
294,76	1345,52
294,97	1228,78
295,19	1361,90
295,40	1298,41
295,62	1249,26
295,83	1304,56
296,05	1316,84
296,26	1234,93
296,48	1261,55
296,69	1236,97
296,90	1183,73
297,12	1277,93
297,33	1294,32
297,55	1298,41
297,76	1294,32
297,98	1277,93
298,19	1312,75
298,41	1232,88
298,62	1298,41
298,83	1290,22
299,05	1222,64
299,26	1290,22
299,48	1327,08
299,69	1269,74
299,90	1292,27
300,12	1236,97
300,33	1302,51
300,55	1292,27
300,76	1265,64
300,98	1224,69
301,19	1255,40
301,40	1288,17
301,62	1241,07
301,83	1265,64
302,05	1312,75
302,26	1255,40
302,47	1257,45
302,69	1191,92
302,90	1234,93
303,12	1304,56
303,33	1306,60
303,54	1255,40
303,76	1288,17
303,97	1257,45
304,19	1161,20
304,40	1282,03
304,61	1273,84
304,83	1298,41
305,04	1232,88
305,26	1366,00
305,47	1175,53
305,68	1136,62
305,90	1255,40
306,11	1273,84
306,33	1241,07
306,54	1261,55
306,75	1263,60
306,97	1255,40
307,18	1241,07
307,39	1267,69
307,61	1208,30
307,82	1210,35
308,04	1257,45
308,25	1329,13
308,46	1257,45
308,68	1234,93
308,89	1282,03
309,10	1279,98
309,32	1314,80
309,53	1259,50
309,74	1386,47
309,96	1247,21
310,17	1294,32
310,39	1294,32
310,60	1234,93
310,81	1275,88
311,03	1298,41
311,24	1269,74
311,45	1349,61
311,67	1306,60
311,88	1298,41
312,09	1251,31
312,31	1271,79
312,52	1279,98
312,73	1271,79
312,95	1249,26
313,16	1257,45
313,37	1218,54
313,59	1306,60
313,80	1247,21
314,01	1263,60
314,23	1251,31
314,44	1255,40
314,65	1243,12
314,87	1277,93
315,08	1284,08
315,29	1320,94
315,51	1191,92
315,72	1247,21
315,93	1290,22
316,15	1304,56
316,36	1347,56
316,57	1298,41
316,79	1218,54
317,00	1304,56
317,21	1300,46
317,43	1234,93
317,64	1277,93
317,85	1286,12
318,07	1337,32
318,28	1273,84
318,49	1267,69
318,70	1243,12
318,92	1216,49
319,13	1228,78
319,34	1185,77
319,56	1337,32
319,77	1251,31
319,98	1230,83
320,20	1286,12
320,41	1259,50
320,62	1259,50
320,83	1314,80
321,05	1271,79
321,26	1265,64
321,47	1257,45
321,69	1304,56
321,90	1196,01
322,11	1249,26
322,32	1298,41
322,54	1214,45
322,75	1275,88
322,96	1253,36
323,18	1236,97
323,39	1316,84
323,60	1198,06
323,81	1273,84
324,03	1249,26
324,24	1265,64
324,45	1282,03
324,66	1273,84
324,88	1257,45
325,09	1241,07
325,30	1220,59
325,52	1353,71
325,73	1267,69
325,94	1329,13
326,15	1249,26
326,37	1286,12
326,58	1290,22
326,79	1224,69
327,00	1288,17
327,22	1290,22
327,43	1282,03
327,64	1239,02
327,85	1275,88
328,07	1294,32
328,28	1294,32
328,49	1310,70
328,70	1253,36
328,92	1284,08
329,13	1236,97
329,34	1259,50
329,55	1236,97
329,76	1335,28
329,98	1222,64
330,19	1245,16
330,40	1212,40
330,61	1269,74
330,83	1284,08
331,04	1271,79
331,25	1259,50
331,46	1335,28
331,68	1259,50
331,89	1271,79
332,10	1310,70
332,31	1300,46
332,52	1269,74
332,74	1171,44
332,95	1279,98
333,16	1249,26
333,37	1218,54
333,58	1312,75
333,80	1265,64
334,01	1290,22
334,22	1290,22
334,43	1273,84
334,64	1253,36
334,86	1302,51
335,07	1292,27
335,28	1263,60
335,49	1200,11
335,70	1234,93
335,92	1333,23
336,13	1368,04
336,34	1259,50
336,55	1241,07
336,76	1210,35
336,98	1263,60
337,19	1232,88
337,40	1288,17
337,61	1286,12
337,82	1271,79
338,04	1257,45
338,25	1249,26
338,46	1290,22
338,67	1277,93
338,88	1236,97
339,09	1316,84
339,31	1226,73
339,52	1292,27
339,73	1271,79
339,94	1241,07
340,15	1214,45
340,36	1228,78
340,58	1302,51
340,79	1230,83
341,00	1292,27
341,21	1200,11
341,42	1253,36
341,63	1306,60
341,85	1236,97
342,06	1230,83
342,27	1234,93
342,48	1239,02
342,69	1277,93
342,90	1300,46
343,12	1271,79
343,33	1245,16
343,54	1273,84
343,75	1363,95
343,96	1257,45
344,17	1251,31
344,38	1253,36
344,60	1239,02
344,81	1245,16
345,02	1308,65
345,23	1267,69
345,44	1294,32
345,65	1269,74
345,86	1286,12
346,07	1273,84
346,29	1206,25
346,50	1312,75
346,71	1273,84
346,92	1261,55
347,13	1265,64
347,34	1261,55
347,55	1267,69
347,76	1202,16
347,98	1198,06
348,19	1232,88
348,40	1232,88
348,61	1306,60
348,82	1288,17
349,03	1247,21
349,24	1271,79
349,45	1282,03
349,66	1306,60
349,88	1253,36
350,09	1290,22
350,30	1286,12
350,51	1292,27
350,72	1218,54
350,93	1282,03
351,14	1243,12
351,35	1230,83
351,56	1216,49
351,77	1314,80
351,99	1230,83
352,20	1239,02
352,41	1310,70
352,62	1341,42
352,83	1236,97
353,04	1288,17
353,25	1236,97
353,46	1296,36
353,67	1157,10
353,88	1243,12
354,09	1267,69
354,30	1210,35
354,52	1247,21
354,73	1187,82
354,94	1312,75
355,15	1273,84
355,36	1261,55
355,57	1361,90
355,78	1218,54
355,99	1232,88
356,20	1224,69
356,41	1253,36
356,62	1290,22
356,83	1239,02
357,04	1249,26
357,25	1198,06
357,46	1288,17
357,68	1255,40
357,89	1216,49
358,10	1255,40
358,31	1181,68
358,52	1196,01
358,73	1218,54
358,94	1290,22
359,15	1341,42
359,36	1361,90
359,57	1294,32
359,78	1241,07
359,99	1249,26
360,20	1269,74
360,41	1279,98
360,62	1279,98
360,83	1312,75
361,04	1279,98
361,25	1261,55
361,46	1249,26
361,67	1245,16
361,88	1247,21
362,09	1173,49
362,30	1263,60
362,51	1286,12
362,72	1257,45
362,93	1320,94
363,14	1288,17
363,35	1251,31
363,56	1277,93
363,78	1333,23
363,99	1335,28
364,20	1230,83
364,41	1263,60
364,62	1245,16
364,83	1277,93
365,04	1339,37
365,25	1359,85
365,46	1257,45
365,67	1247,21
365,88	1282,03
366,09	1249,26
366,30	1310,70
366,51	1228,78
366,72	1284,08
366,93	1265,64
367,14	1245,16
367,35	1337,32
367,56	1220,59
367,77	1273,84
367,98	1308,65
368,18	1169,39
368,39	1284,08
368,60	1271,79
368,81	1298,41
369,02	1271,79
369,23	1230,83
369,44	1294,32
369,65	1286,12
369,86	1284,08
370,07	1294,32
370,28	1216,49
370,49	1267,69
370,70	1290,22
370,91	1226,73
371,12	1247,21
371,33	1263,60
371,54	1282,03
371,75	1226,73
371,96	1161,20
372,17	1243,12
372,38	1343,47
372,59	1302,51
372,80	1191,92
373,01	1300,46
373,22	1290,22
373,43	1277,93
373,64	1265,64
373,85	1277,93
374,06	1216,49
374,26	1169,39
374,47	1249,26
374,68	1263,60
374,89	1290,22
375,10	1249,26
375,31	1302,51
375,52	1322,99
375,73	1257,45
375,94	1304,56
376,15	1216,49
376,36	1214,45
376,57	1212,40
376,78	1251,31
376,99	1251,31
377,20	1296,36
377,40	1288,17
377,61	1284,08
377,82	1243,12
378,03	1243,12
378,24	1304,56
378,45	1284,08
378,66	1322,99
378,87	1230,83
379,08	1241,07
379,29	1267,69
379,50	1288,17
379,71	1294,32
379,91	1284,08
380,12	1255,40
380,33	1249,26
380,54	1302,51
380,75	1306,60
380,96	1279,98
381,17	1312,75
381,38	1189,87
381,59	1253,36
381,80	1216,49
382,00	1316,84
382,21	1191,92
382,42	1318,89
382,63	1275,88
382,84	1327,08
383,05	1241,07
383,26	1271,79
383,47	1259,50
383,68	1279,98
383,88	1314,80
384,09	1284,08
384,30	1255,40
384,51	1263,60
384,72	1261,55
384,93	1275,88
385,14	1322,99
385,35	1257,45
385,55	1320,94
385,76	1247,21
385,97	1320,94
386,18	1279,98
386,39	1245,16
386,60	1322,99
386,81	1359,85
387,02	1218,54
387,22	1288,17
387,43	1216,49
387,64	1249,26
387,85	1355,76
388,06	1249,26
388,27	1314,80
388,48	1263,60
388,68	1249,26
388,89	1251,31
389,10	1232,88
389,31	1226,73
389,52	1263,60
389,73	1253,36
389,93	1282,03
390,14	1261,55
390,35	1300,46
390,56	1294,32
390,77	1277,93
390,98	1234,93
391,18	1331,18
391,39	1249,26
391,60	1245,16
391,81	1206,25
392,02	1263,60
392,23	1255,40
392,43	1277,93
392,64	1234,93
392,85	1267,69
393,06	1247,21
393,27	1292,27
393,47	1224,69
393,68	1245,16
393,89	1271,79
394,10	1306,60
394,31	1230,83
394,52	1257,45
394,72	1214,45
394,93	1318,89
395,14	1286,12
395,35	1255,40
395,56	1275,88
395,76	1259,50
395,97	1345,52
396,18	1282,03
396,39	1241,07
396,60	1290,22
396,80	1282,03
397,01	1279,98
397,22	1304,56
397,43	1226,73
397,64	1359,85
397,84	1279,98
398,05	1265,64
398,26	1257,45
398,47	1286,12
398,67	1214,45
398,88	1249,26
399,09	1327,08
399,30	1325,04
399,51	1294,32
399,71	1288,17
399,92	1236,97
400,13	1257,45
400,34	1251,31
400,54	1327,08
400,75	1318,89
400,96	1230,83
401,17	1245,16
401,37	1202,16
401,58	1269,74
401,79	1196,01
402,00	1263,60
402,21	1218,54
402,41	1327,08
402,62	1236,97
402,83	1322,99
403,04	1300,46
403,24	1243,12
403,45	1302,51
403,66	1273,84
403,87	1327,08
404,07	1247,21
404,28	1220,59
404,49	1288,17
404,70	1236,97
404,90	1327,08
405,11	1271,79
405,32	1329,13
405,52	1239,02
405,73	1247,21
405,94	1275,88
406,15	1204,21
406,35	1312,75
406,56	1261,55
406,77	1239,02
406,98	1318,89
407,18	1343,47
407,39	1271,79
407,60	1296,36
407,80	1269,74
408,01	1234,93
408,22	1292,27
408,43	1236,97
408,63	1331,18
408,84	1279,98
409,05	1271,79
409,25	1245,16
409,46	1267,69
409,67	1253,36
409,88	1300,46
410,08	1269,74
410,29	1193,97
410,50	1224,69
410,70	1314,80
410,91	1273,84
411,12	1206,25
411,32	1273,84
411,53	1247,21
411,74	1333,23
411,95	1257,45
412,15	1294,32
412,36	1300,46
412,57	1185,77
412,77	1263,60
412,98	1212,40
413,19	1359,85
413,39	1290,22
413,60	1232,88
413,81	1251,31
414,01	1282,03
414,22	1150,96
414,43	1241,07
414,63	1214,45
414,84	1214,45
415,05	1279,98
415,25	1294,32
415,46	1361,90
415,67	1308,65
415,87	1253,36
416,08	1271,79
416,29	1249,26
416,49	1351,66
416,70	1300,46
416,91	1241,07
417,11	1279,98
417,32	1273,84
417,53	1271,79
417,73	1271,79
417,94	1316,84
418,15	1300,46
418,35	1288,17
418,56	1222,64
418,77	1236,97
418,97	1318,89
419,18	1267,69
419,38	1247,21
419,59	1257,45
419,80	1282,03
420,00	1257,45
420,21	1183,73
420,42	1331,18
420,62	1329,13
420,83	1255,40
421,04	1273,84
421,24	1284,08
421,45	1222,64
421,65	1267,69
421,86	1337,32
422,07	1214,45
422,27	1253,36
422,48	1216,49
422,69	1304,56
422,89	1249,26
423,10	1286,12
423,30	1275,88
423,51	1261,55
423,72	1296,36
423,92	1286,12
424,13	1214,45
424,33	1255,40
424,54	1232,88
424,75	1312,75
424,95	1253,36
425,16	1339,37
425,36	1249,26
425,57	1275,88
425,78	1241,07
425,98	1251,31
426,19	1308,65
426,39	1253,36
426,60	1134,57
426,81	1224,69
427,01	1243,12
427,22	1269,74
427,42	1294,32
427,63	1232,88
427,83	1230,83
428,04	1263,60
428,25	1253,36
428,45	1333,23
428,66	1277,93
428,86	1239,02
429,07	1261,55
429,28	1247,21
429,48	1269,74
429,69	1257,45
429,89	1290,22
430,10	1314,80
430,30	1290,22
430,51	1271,79
430,71	1300,46
430,92	1253,36
431,13	1208,30
431,33	1230,83
431,54	1245,16
431,74	1288,17
431,95	1282,03
432,15	1277,93
432,36	1316,84
432,56	1224,69
432,77	1290,22
432,98	1290,22
433,18	1236,97
433,39	1275,88
433,59	1208,30
433,80	1273,84
434,00	1345,52
434,21	1251,31
434,41	1333,23
434,62	1224,69
434,82	1230,83
435,03	1271,79
435,23	1294,32
435,44	1308,65
435,64	1255,40
435,85	1312,75
436,06	1239,02
436,26	1306,60
436,47	1327,08
436,67	1239,02
436,88	1239,02
437,08	1245,16
437,29	1243,12
437,49	1304,56
437,70	1282,03
437,90	1292,27
438,11	1331,18
438,31	1263,60
438,52	1314,80
438,72	1300,46
438,93	1202,16
439,13	1245,16
439,34	1251,31
439,54	1296,36
439,75	1204,21
439,95	1290,22
440,16	1265,64
440,36	1279,98
440,57	1265,64
440,77	1331,18
440,98	1263,60
441,18	1284,08
441,39	1214,45
441,59	1265,64
441,80	1218,54
442,00	1267,69
442,21	1322,99
442,41	1253,36
442,62	1241,07
442,82	1251,31
443,02	1261,55
443,23	1318,89
443,43	1306,60
443,64	1298,41
443,84	1185,77
444,05	1251,31
444,25	1263,60
444,46	1245,16
444,66	1247,21
444,87	1273,84
445,07	1263,60
445,28	1282,03
445,48	1282,03
445,69	1253,36
445,89	1273,84
446,09	1263,60
446,30	1271,79
446,50	1251,31
446,71	1327,08
446,91	1273,84
447,12	1224,69
447,32	1263,60
447,53	1208,30
447,73	1296,36
447,93	1253,36
448,14	1230,83
448,34	1269,74
448,55	1288,17
448,75	1222,64
448,96	1230,83
449,16	1296,36
449,36	1277,93
449,57	1279,98
449,77	1318,89
449,98	1300,46
450,18	1275,88
450,39	1232,88
450,59	1300,46
450,79	1282,03
451,00	1296,36
451,20	1312,75
451,41	1279,98
451,61	1296,36
451,81	1257,45
452,02	1234,93
452,22	1259,50
452,43	1161,20
452,63	1259,50
452,84	1329,13
453,04	1251,31
453,24	1249,26
453,45	1249,26
453,65	1206,25
453,86	1300,46
454,06	1351,66
454,26	1239,02
454,47	1247,21
454,67	1247,21
454,87	1275,88
455,08	1296,36
455,28	1269,74
455,49	1275,88
455,69	1290,22
455,89	1288,17
456,10	1288,17
456,30	1267,69
456,51	1224,69
456,71	1259,50
456,91	1267,69
457,12	1255,40
457,32	1228,78
457,52	1216,49
457,73	1269,74
457,93	1316,84
458,14	1216,49
458,34	1198,06
458,54	1292,27
458,75	1302,51
458,95	1292,27
459,15	1263,60
459,36	1216,49
459,56	1267,69
459,76	1259,50
459,97	1249,26
460,17	1259,50
460,37	1335,28
460,58	1261,55
460,78	1259,50
460,99	1273,84
461,19	1277,93
461,39	1310,70
461,60	1273,84
461,80	1228,78
462,00	1226,73
462,21	1284,08
462,41	1230,83
462,61	1279,98
462,82	1261,55
463,02	1226,73
463,22	1271,79
463,43	1269,74
463,63	1310,70
463,83	1279,98
464,04	1302,51
464,24	1277,93
464,44	1279,98
464,64	1196,01
464,85	1275,88
465,05	1279,98
465,25	1273,84
465,46	1245,16
465,66	1269,74
465,86	1308,65
466,07	1292,27
466,27	1212,40
466,47	1284,08
466,68	1267,69
466,88	1249,26
467,08	1300,46
467,29	1245,16
467,49	1255,40
467,69	1277,93
467,89	1261,55
468,10	1263,60
468,30	1253,36
468,50	1212,40
468,71	1284,08
468,91	1263,60
469,11	1191,92
469,31	1263,60
469,52	1267,69
469,72	1200,11
469,92	1318,89
470,13	1327,08
470,33	1267,69
470,53	1294,32
470,73	1216,49
470,94	1204,21
471,14	1222,64
471,34	1269,74
471,54	1333,23
471,75	1239,02
471,95	1273,84
472,15	1282,03
472,36	1294,32
472,56	1243,12
472,76	1279,98
472,96	1247,21
473,17	1331,18
473,37	1298,41
473,57	1216,49
473,77	1296,36
473,98	1282,03
474,18	1208,30
474,38	1239,02
474,58	1253,36
474,79	1296,36
474,99	1224,69
475,19	1249,26
475,39	1257,45
475,60	1253,36
475,80	1175,53
476,00	1263,60
476,20	1232,88
476,41	1302,51
476,61	1284,08
476,81	1271,79
477,01	1370,09
477,21	1306,60
477,42	1273,84
477,62	1249,26
477,82	1304,56
478,02	1247,21
478,23	1212,40
478,43	1273,84
478,63	1245,16
478,83	1257,45
479,03	1228,78
479,24	1265,64
479,44	1259,50
479,64	1284,08
479,84	1286,12
480,04	1316,84
480,25	1302,51
480,45	1318,89
480,65	1263,60
480,85	1251,31
481,06	1241,07
481,26	1253,36
481,46	1239,02
481,66	1251,31
481,86	1206,25
482,06	1247,21
482,27	1306,60
482,47	1232,88
482,67	1286,12
482,87	1218,54
483,07	1329,13
483,28	1183,73
483,48	1329,13
483,68	1310,70
483,88	1271,79
484,08	1271,79
484,29	1298,41
484,49	1357,80
484,69	1247,21
484,89	1277,93
485,09	1316,84
485,29	1247,21
485,50	1314,80
485,70	1251,31
485,90	1255,40
486,10	1300,46
486,30	1257,45
486,50	1273,84
486,71	1294,32
486,91	1267,69
487,11	1245,16
487,31	1230,83
487,51	1259,50
487,71	1271,79
487,91	1273,84
488,12	1345,52
488,32	1232,88
488,52	1345,52
488,72	1275,88
488,92	1263,60
489,12	1257,45
489,32	1245,16
489,53	1304,56
489,73	1243,12
489,93	1271,79
490,13	1230,83
490,33	1310,70
490,53	1294,32
490,73	1200,11
490,94	1249,26
491,14	1327,08
491,34	1212,40
491,54	1245,16
491,74	1288,17
491,94	1306,60
492,14	1206,25
492,34	1273,84
492,54	1292,27
492,75	1292,27
492,95	1234,93
493,15	1206,25
493,35	1282,03
493,55	1275,88
493,75	1269,74
493,95	1257,45
494,15	1261,55
494,35	1273,84
494,56	1245,16
494,76	1269,74
494,96	1277,93
495,16	1226,73
495,36	1247,21
495,56	1241,07
495,76	1214,45
495,96	1298,41
496,16	1191,92
496,36	1351,66
496,56	1308,65
496,77	1253,36
496,97	1177,58
497,17	1261,55
497,37	1263,60
497,57	1286,12
497,77	1322,99
497,97	1253,36
498,17	1284,08
498,37	1269,74
498,57	1259,50
498,77	1290,22
498,97	1298,41
499,17	1224,69
499,38	1224,69
499,58	1275,88
499,78	1150,96
499,98	1286,12
500,18	1290,22
500,38	1273,84
500,58	1265,64
500,78	1226,73
500,98	1322,99
501,18	1226,73
501,38	1265,64
501,58	1292,27
501,78	1312,75
501,98	1173,49
502,18	1273,84
502,38	1300,46
502,58	1265,64
502,78	1322,99
502,98	1267,69
503,18	1214,45
503,38	1214,45
503,59	1273,84
503,79	1279,98
503,99	1241,07
504,19	1288,17
504,39	1263,60
504,59	1314,80
504,79	1314,80
504,99	1204,21
505,19	1282,03
505,39	1304,56
505,59	1212,40
505,79	1265,64
505,99	1247,21
506,19	1226,73
506,39	1339,37
506,59	1216,49
506,79	1335,28
506,99	1273,84
507,19	1241,07
507,39	1224,69
507,59	1279,98
507,79	1265,64
507,99	1241,07
508,19	1265,64
508,39	1296,36
508,59	1210,35
508,79	1337,32
508,99	1198,06
509,19	1304,56
509,39	1210,35
509,59	1255,40
509,79	1275,88
509,99	1265,64
510,19	1239,02
510,39	1243,12
510,59	1286,12
510,79	1243,12
510,99	1290,22
511,19	1239,02
511,39	1288,17
511,59	1296,36
511,79	1222,64
511,99	1224,69
512,19	1271,79
512,38	1263,60
512,58	1230,83
512,78	1234,93
512,98	1261,55
513,18	1306,60
513,38	1257,45
513,58	1253,36
513,78	1259,50
513,98	1308,65
514,18	1259,50
514,38	1284,08
514,58	1214,45
514,78	1279,98
514,98	1304,56
515,18	1304,56
515,38	1208,30
515,58	1245,16
515,78	1322,99
515,98	1265,64
516,18	1226,73
516,38	1189,87
516,57	1300,46
516,77	1269,74
516,97	1329,13
517,17	1232,88
517,37	1265,64
517,57	1282,03
517,77	1234,93
517,97	1269,74
518,17	1300,46
518,37	1251,31
518,57	1269,74
518,77	1279,98
518,97	1279,98
519,16	1222,64
519,36	1335,28
519,56	1214,45
519,76	1273,84
519,96	1265,64
520,16	1216,49
520,36	1249,26
520,56	1288,17
520,76	1230,83
520,96	1175,53
521,16	1298,41
521,35	1265,64
521,55	1257,45
521,75	1351,66
521,95	1249,26
522,15	1234,93
522,35	1290,22
522,55	1316,84
522,75	1366,00
522,95	1277,93
523,14	1298,41
523,34	1292,27
523,54	1337,32
523,74	1255,40
523,94	1275,88
524,14	1339,37
524,34	1298,41
524,54	1220,59
524,73	1257,45
524,93	1306,60
525,13	1232,88
525,33	1234,93
525,53	1271,79
525,73	1224,69
525,93	1216,49
526,13	1290,22
526,32	1241,07
526,52	1284,08
526,72	1347,56
526,92	1228,78
527,12	1224,69
527,32	1302,51
527,52	1208,30
527,71	1175,53
527,91	1263,60
528,11	1306,60
528,31	1236,97
528,51	1335,28
528,71	1322,99
528,90	1282,03
529,10	1306,60
529,30	1273,84
529,50	1243,12
529,70	1218,54
529,90	1218,54
530,09	1230,83
530,29	1277,93
530,49	1236,97
530,69	1234,93
530,89	1243,12
531,09	1286,12
531,28	1251,31
531,48	1296,36
531,68	1236,97
531,88	1241,07
532,08	1286,12
532,28	1335,28
532,47	1220,59
532,67	1290,22
532,87	1251,31
533,07	1298,41
533,27	1239,02
533,46	1243,12
533,66	1198,06
533,86	1212,40
534,06	1247,21
534,26	1236,97
534,45	1255,40
534,65	1249,26
534,85	1302,51
535,05	1263,60
535,25	1236,97
535,44	1290,22
535,64	1224,69
535,84	1273,84
536,04	1208,30
536,24	1327,08
536,43	1167,34
536,63	1325,04
536,83	1271,79
537,03	1279,98
537,22	1292,27
537,42	1222,64
537,62	1273,84
537,82	1239,02
538,02	1288,17
538,21	1255,40
538,41	1210,35
538,61	1279,98
538,81	1228,78
539,00	1167,34
539,20	1286,12
539,40	1322,99
539,60	1357,80
539,79	1312,75
539,99	1261,55
540,19	1308,65
540,39	1239,02
540,58	1249,26
540,78	1269,74
540,98	1279,98
541,18	1236,97
541,37	1298,41
541,57	1282,03
541,77	1304,56
541,97	1333,23
542,16	1273,84
542,36	1230,83
542,56	1202,16
542,76	1277,93
542,95	1253,36
543,15	1257,45
543,35	1265,64
543,54	1286,12
543,74	1288,17
543,94	1202,16
544,14	1226,73
544,33	1243,12
544,53	1204,21
544,73	1204,21
544,93	1236,97
545,12	1304,56
545,32	1204,21
545,52	1259,50
545,71	1290,22
545,91	1275,88
546,11	1202,16
546,30	1275,88
546,50	1308,65
546,70	1257,45
546,90	1271,79
547,09	1273,84
547,29	1306,60
547,49	1214,45
547,68	1247,21
547,88	1210,35
548,08	1322,99
548,27	1304,56
548,47	1273,84
548,67	1300,46
548,87	1191,92
549,06	1265,64
549,26	1189,87
549,46	1204,21
549,65	1302,51
549,85	1228,78
550,05	1294,32
550,24	1228,78
550,44	1318,89
550,64	1257,45
550,83	1318,89
551,03	1361,90
551,23	1220,59
551,42	1347,56
551,62	1304,56
551,82	1234,93
552,01	1245,16
552,21	1282,03
552,41	1273,84
552,60	1259,50
552,80	1261,55
553,00	1304,56
553,19	1198,06
553,39	1269,74
553,59	1282,03
553,78	1243,12
553,98	1222,64
554,17	1284,08
554,37	1241,07
554,57	1132,53
554,76	1198,06
554,96	1245,16
555,16	1265,64
555,35	1292,27
555,55	1212,40
555,75	1187,82
555,94	1239,02
556,14	1249,26
556,33	1232,88
556,53	1255,40
556,73	1271,79
556,92	1320,94
557,12	1249,26
557,32	1296,36
557,51	1277,93
557,71	1226,73
557,90	1355,76
558,10	1259,50
558,30	1261,55
558,49	1224,69
558,69	1249,26
558,88	1155,05
559,08	1261,55
559,28	1331,18
559,47	1325,04
559,67	1259,50
559,86	1241,07
560,06	1271,79
560,26	1239,02
560,45	1257,45
560,65	1308,65
560,84	1337,32
561,04	1284,08
561,24	1277,93
561,43	1273,84
561,63	1265,64
561,82	1208,30
562,02	1322,99
562,22	1265,64
562,41	1243,12
562,61	1314,80
562,80	1236,97
563,00	1335,28
563,19	1269,74
563,39	1294,32
563,59	1247,21
563,78	1232,88
563,98	1245,16
564,17	1286,12
564,37	1284,08
564,56	1271,79
564,76	1255,40
564,96	1298,41
565,15	1275,88
565,35	1275,88
565,54	1267,69
565,74	1292,27
565,93	1337,32
566,13	1263,60
566,32	1198,06
566,52	1277,93
566,71	1318,89
566,91	1294,32
567,11	1282,03
567,30	1265,64
567,50	1275,88
567,69	1269,74
567,89	1236,97
568,08	1257,45
568,28	1271,79
568,47	1236,97
568,67	1259,50
568,86	1273,84
569,06	1257,45
569,25	1372,14
569,45	1275,88
569,64	1193,97
569,84	1296,36
570,04	1255,40
570,23	1259,50
570,43	1214,45
570,62	1282,03
570,82	1232,88
571,01	1245,16
571,21	1279,98
571,40	1271,79
571,60	1251,31
571,79	1247,21
571,99	1259,50
572,18	1322,99
572,38	1234,93
572,57	1275,88
572,77	1298,41
572,96	1253,36
573,16	1224,69
573,35	1271,79
573,55	1249,26
573,74	1228,78
573,94	1249,26
574,13	1222,64
574,33	1292,27
574,52	1292,27
574,71	1302,51
574,91	1247,21
575,10	1265,64
575,30	1257,45
575,49	1234,93
575,69	1273,84
575,88	1247,21
576,08	1247,21
576,27	1193,97
576,47	1271,79
576,66	1257,45
576,86	1298,41
577,05	1284,08
577,25	1322,99
577,44	1257,45
577,64	1261,55
577,83	1273,84
578,02	1298,41
578,22	1267,69
578,41	1273,84
578,61	1216,49
578,80	1216,49
579,00	1265,64
579,19	1212,40
579,39	1314,80
579,58	1220,59
579,77	1196,01
579,97	1331,18
580,16	1298,41
580,36	1273,84
580,55	1239,02
580,75	1292,27
580,94	1236,97
581,13	1257,45
581,33	1314,80
581,52	1245,16
581,72	1239,02
581,91	1306,60
582,11	1259,50
582,30	1333,23
582,49	1273,84
582,69	1261,55
582,88	1320,94
583,08	1337,32
583,27	1271,79
583,47	1296,36
583,66	1275,88
583,85	1298,41
584,05	1322,99
584,24	1275,88
584,44	1296,36
584,63	1212,40
584,82	1271,79
585,02	1177,58
585,21	1249,26
585,41	1239,02
585,60	1298,41
585,79	1331,18
585,99	1253,36
586,18	1210,35
586,37	1298,41
586,57	1193,97
586,76	1296,36
586,96	1273,84
587,15	1216,49
587,34	1218,54
587,54	1206,25
587,73	1284,08
587,93	1277,93
588,12	1275,88
588,31	1204,21
588,51	1198,06
588,70	1286,12
588,89	1296,36
589,09	1288,17
589,28	1296,36
589,47	1255,40
589,67	1247,21
589,86	1308,65
590,06	1277,93
590,25	1265,64
590,44	1183,73
590,64	1228,78
590,83	1347,56
591,02	1271,79
591,22	1269,74
591,41	1185,77
591,60	1306,60
591,80	1282,03
591,99	1329,13
592,18	1282,03
592,38	1265,64
592,57	1230,83
592,76	1282,03
592,96	1329,13
593,15	1249,26
593,34	1298,41
593,54	1239,02
593,73	1279,98
593,92	1243,12
594,12	1239,02
594,31	1212,40
594,50	1282,03
594,70	1236,97
594,89	1296,36
595,08	1263,60
595,28	1232,88
595,47	1308,65
595,66	1304,56
595,86	1224,69
596,05	1202,16
596,24	1247,21
596,43	1245,16
596,63	1210,35
596,82	1310,70
597,01	1292,27
597,21	1347,56
597,40	1255,40
597,59	1310,70
597,79	1210,35
597,98	1279,98
598,17	1290,22
598,36	1216,49
598,56	1261,55
598,75	1277,93
598,94	1294,32
599,14	1316,84
599,33	1249,26
599,52	1282,03
599,71	1267,69
599,91	1277,93
600,10	1290,22
600,29	1265,64
600,48	1230,83
600,68	1236,97
600,87	1157,10
601,06	1243,12
601,26	1286,12
601,45	1179,63
601,64	1282,03
601,83	1292,27
602,03	1198,06
602,22	1296,36
602,41	1279,98
602,60	1271,79
602,80	1267,69
602,99	1224,69
603,18	1236,97
603,37	1290,22
603,57	1355,76
603,76	1351,66
603,95	1355,76
604,14	1273,84
604,34	1271,79
604,53	1329,13
604,72	1277,93
604,91	1296,36
605,10	1253,36
605,30	1306,60
605,49	1259,50
605,68	1261,55
605,87	1245,16
606,07	1275,88
606,26	1257,45
606,45	1247,21
606,64	1253,36
606,84	1226,73
607,03	1202,16
607,22	1220,59
607,41	1296,36
607,60	1239,02
607,80	1257,45
607,99	1351,66
608,18	1298,41
608,37	1269,74
608,56	1261,55
608,76	1316,84
608,95	1277,93
609,14	1316,84
609,33	1222,64
609,52	1222,64
609,72	1304,56
609,91	1273,84
610,10	1226,73
610,29	1290,22
610,48	1294,32
610,68	1271,79
610,87	1325,04
611,06	1308,65
611,25	1271,79
611,44	1290,22
611,63	1325,04
611,83	1257,45
612,02	1267,69
612,21	1261,55
612,40	1222,64
612,59	1230,83
612,79	1282,03
612,98	1306,60
613,17	1327,08
613,36	1202,16
613,55	1261,55
613,74	1290,22
613,93	1269,74
614,13	1261,55
614,32	1284,08
614,51	1261,55
614,70	1232,88
614,89	1255,40
615,08	1296,36
615,28	1343,47
615,47	1271,79
615,66	1333,23
615,85	1304,56
616,04	1286,12
616,23	1290,22
616,42	1286,12
616,62	1318,89
616,81	1282,03
617,00	1228,78
617,19	1263,60
617,38	1236,97
617,57	1331,18
617,76	1304,56
617,95	1312,75
618,15	1312,75
618,34	1298,41
618,53	1284,08
618,72	1300,46
618,91	1265,64
619,10	1273,84
619,29	1282,03
619,48	1265,64
619,68	1302,51
619,87	1251,31
620,06	1306,60
620,25	1286,12
620,44	1282,03
620,63	1300,46
620,82	1232,88
621,01	1279,98
621,20	1253,36
621,39	1331,18
621,59	1259,50
621,78	1329,13
621,97	1279,98
622,16	1269,74
622,35	1245,16
622,54	1273,84
622,73	1302,51
622,92	1202,16
623,11	1290,22
623,30	1259,50
623,49	1292,27
623,68	1298,41
623,88	1253,36
624,07	1273,84
624,26	1202,16
624,45	1314,80
624,64	1304,56
624,83	1251,31
625,02	1314,80
625,21	1214,45
625,40	1327,08
625,59	1265,64
625,78	1296,36
625,97	1286,12
626,16	1232,88
626,35	1277,93
626,54	1204,21
626,74	1282,03
626,93	1171,44
627,12	1271,79
627,31	1339,37
627,50	1331,18
627,69	1298,41
627,88	1294,32
628,07	1322,99
628,26	1327,08
628,45	1296,36
628,64	1314,80
628,83	1204,21
629,02	1304,56
629,21	1316,84
629,40	1296,36
629,59	1294,32
629,78	1185,77
629,97	1259,50
630,16	1345,52
630,35	1275,88
630,54	1249,26
630,73	1261,55
630,92	1320,94
631,11	1261,55
631,30	1370,09
631,49	1304,56
631,68	1697,77
631,87	6315,94
632,06	25632,38
632,25	55876,78
632,44	46345,53
632,63	33525,25
632,82	28749,39
633,01	7600,01
633,20	3448,78
633,39	3237,84
633,58	2797,53
633,77	2047,97
633,96	1761,25
634,15	1794,02
634,34	1841,12
634,53	1687,53
634,72	1533,93
634,91	1531,88
635,10	1548,26
635,29	1503,21
635,48	1474,54
635,67	1429,48
635,86	1468,39
636,05	1343,47
636,24	1394,67
636,43	1413,10
636,62	1368,04
636,81	1357,80
637,00	1353,71
637,19	1300,46
637,38	1318,89
637,57	1212,40
637,76	1314,80
637,95	1331,18
638,14	1300,46
638,33	1363,95
638,52	1331,18
638,71	1282,03
638,89	1335,28
639,08	1318,89
639,27	1300,46
639,46	1284,08
639,65	1298,41
639,84	1304,56
640,03	1345,52
640,22	1273,84
640,41	1384,43
640,60	1294,32
640,79	1277,93
640,98	1335,28
641,17	1322,99
641,36	1282,03
641,55	1322,99
641,74	1232,88
641,92	1259,50
642,11	1318,89
642,30	1212,40
642,49	1316,84
642,68	1339,37
642,87	1282,03
643,06	1310,70
643,25	1339,37
643,44	1189,87
643,63	1290,22
643,82	1306,60
644,00	1286,12
644,19	1310,70
644,38	1277,93
644,57	1298,41
644,76	1308,65
644,95	1286,12
645,14	1241,07
645,33	1257,45
645,52	1257,45
645,71	1335,28
645,89	1282,03
646,08	1284,08
646,27	1245,16
646,46	1288,17
646,65	1300,46
646,84	1325,04
647,03	1322,99
647,22	1267,69
647,40	1302,51
647,59	1267,69
647,78	1241,07
647,97	1275,88
648,16	1257,45
648,35	1271,79
648,54	1261,55
648,73	1226,73
648,91	1294,32
649,10	1243,12
649,29	1257,45
649,48	1247,21
649,67	1329,13
649,86	1239,02
650,05	1333,23
650,23	1251,31
650,42	1267,69
650,61	1249,26
650,80	1234,93
650,99	1306,60
651,18	1214,45
651,36	1312,75
651,55	1255,40
651,74	1282,03
651,93	1212,40
652,12	1318,89
652,31	1284,08
652,49	1325,04
652,68	1216,49
652,87	1308,65
653,06	1241,07
653,25	1279,98
653,44	1310,70
653,62	1298,41
653,81	1247,21
654,00	1335,28
654,19	1247,21
654,38	1271,79
654,56	1302,51
654,75	1239,02
654,94	1261,55
655,13	1275,88
655,32	1277,93
655,51	1261,55
655,69	1277,93
655,88	1247,21
656,07	1253,36
656,26	1247,21
656,45	1275,88
656,63	1193,97
656,82	1353,71
657,01	1279,98
657,20	1257,45
657,38	1306,60
657,57	1236,97
657,76	1308,65
657,95	1216,49
658,14	1245,16
658,32	1224,69
658,51	1314,80
658,70	1230,83
658,89	1214,45
659,08	1288,17
659,26	1204,21
659,45	1236,97
659,64	1249,26
659,83	1304,56
660,01	1308,65
660,20	1318,89
660,39	1302,51
660,58	1286,12
660,76	1226,73
660,95	1253,36
661,14	1212,40
661,33	1257,45
661,51	1263,60
661,70	1290,22
661,89	1249,26
662,08	1234,93
662,26	1294,32
662,45	1259,50
662,64	1255,40
662,83	1220,59
663,01	1277,93
663,20	1249,26
663,39	1296,36
663,58	1234,93
663,76	1259,50
663,95	1269,74
664,14	1241,07
664,32	1267,69
664,51	1249,26
664,70	1200,11
664,89	1193,97
665,07	1191,92
665,26	1337,32
665,45	1241,07
665,64	1263,60
665,82	1253,36
666,01	1279,98
666,20	1320,94
666,38	1259,50
666,57	1265,64
666,76	1275,88
666,95	1288,17
667,13	1257,45
667,32	1232,88
667,51	1261,55
667,69	1214,45
667,88	1189,87
668,07	1292,27
668,25	1230,83
668,44	1206,25
668,63	1247,21
668,81	1279,98
669,00	1296,36
669,19	1298,41
669,38	1298,41
669,56	1347,56
669,75	1261,55
669,94	1300,46
670,12	1290,22
670,31	1253,36
670,50	1236,97
670,68	1253,36
670,87	1284,08
671,06	1267,69
671,24	1216,49
671,43	1298,41
671,62	1222,64
671,80	1218,54
671,99	1251,31
672,18	1279,98
672,36	1257,45
672,55	1271,79
672,74	1282,03
672,92	1200,11
673,11	1241,07
673,29	1251,31
673,48	1327,08
673,67	1249,26
673,85	1310,70
674,04	1247,21
674,23	1310,70
674,41	1257,45
674,60	1273,84
674,79	1212,40
674,97	1263,60
675,16	1224,69
675,34	1314,80
675,53	1218,54
675,72	1294,32
675,90	1263,60
676,09	1296,36
676,28	1220,59
676,46	1261,55
676,65	1279,98
676,83	1245,16
677,02	1271,79
677,21	1273,84
677,39	1239,02
677,58	1269,74
677,77	1220,59
677,95	1257,45
678,14	1277,93
678,32	1298,41
678,51	1232,88
678,70	1259,50
678,88	1269,74
679,07	1255,40
679,25	1308,65
679,44	1263,60
679,63	1253,36
679,81	1239,02
680,00	1335,28
680,18	1249,26
680,37	1251,31
680,55	1329,13
680,74	1208,30
680,93	1181,68
681,11	1249,26
681,30	1265,64
681,48	1341,42
681,67	1220,59
681,85	1239,02
682,04	1236,97
682,23	1226,73
682,41	1294,32
682,60	1232,88
682,78	1267,69
682,97	1275,88
683,15	1273,84
683,34	1222,64
683,53	1314,80
683,71	1304,56
683,90	1239,02
684,08	1263,60
684,27	1245,16
684,45	1277,93
684,64	1224,69
684,82	1302,51
685,01	1202,16
685,19	1292,27
685,38	1288,17
685,57	1322,99
685,75	1249,26
685,94	1296,36
686,12	1200,11
686,31	1376,24
686,49	1271,79
686,68	1308,65
686,86	1322,99
687,05	1279,98
687,23	1275,88
687,42	1314,80
687,60	1247,21
687,79	1202,16
687,97	1296,36
688,16	1259,50
688,34	1318,89
688,53	1257,45
688,71	1290,22
688,90	1234,93
689,08	1249,26
689,27	1200,11
689,45	1277,93
689,64	1263,60
689,82	1251,31
690,01	1255,40
690,19	1245,16
690,38	1198,06
690,56	1284,08
690,75	1243,12
690,93	1322,99
691,12	1267,69
691,30	1277,93
691,49	1222,64
691,67	1181,68
691,86	1253,36
692,04	1290,22
692,23	1320,94
692,41	1259,50
692,60	1253,36
692,78	1261,55
692,97	1290,22
693,15	1259,50
693,34	1259,50
693,52	1314,80
693,71	1312,75
693,89	1296,36
694,08	1189,87
694,26	1273,84
694,44	1302,51
694,63	1220,59
694,81	1259,50
695,00	1239,02
695,18	1290,22
695,37	1191,92
695,55	1202,16
695,74	1265,64
695,92	1304,56
696,10	1298,41
696,29	1265,64
696,47	1251,31
696,66	1236,97
696,84	1243,12
697,03	1271,79
697,21	1239,02
697,40	1232,88
697,58	1243,12
697,76	1212,40
697,95	1318,89
698,13	1263,60
698,32	1167,34
698,50	1282,03
698,68	1222,64
698,87	1241,07
699,05	1306,60
699,24	1230,83
699,42	1239,02
699,61	1341,42
699,79	1239,02
699,97	1327,08
700,16	1247,21
700,34	1249,26
700,53	1261,55
700,71	1257,45
700,89	1218,54
701,08	1267,69
701,26	1347,56
701,45	1275,88
701,63	1228,78
701,81	1247,21
702,00	1312,75
702,18	1257,45
702,37	1263,60
702,55	1277,93
702,73	1241,07
702,92	1302,51
703,10	1222,64
703,28	1267,69
703,47	1284,08
703,65	1189,87
703,84	1284,08
704,02	1265,64
704,20	1259,50
704,39	1294,32
704,57	1222,64
704,75	1263,60
704,94	1265,64
705,12	1183,73
705,30	1226,73
705,49	1267,69
705,67	1310,70
705,86	1316,84
706,04	1226,73
706,22	1253,36
706,41	1253,36
706,59	1243,12
706,77	1288,17
706,96	1236,97
707,14	1239,02
707,32	1261,55
707,51	1241,07
707,69	1261,55
707,87	1284,08
708,06	1234,93
708,24	1310,70
708,42	1304,56
708,61	1241,07
708,79	1220,59
708,97	1284,08
709,16	1286,12
709,34	1232,88
709,52	1294,32
709,71	1322,99
709,89	1241,07
710,07	1251,31
710,26	1206,25
710,44	1331,18
710,62	1249,26
710,80	1241,07
710,99	1302,51
711,17	1206,25
711,35	1218,54
711,54	1239,02
711,72	1255,40
711,90	1277,93
712,09	1331,18
712,27	1214,45
712,45	1259,50
712,63	1294,32
712,82	1169,39
713,00	1275,88
713,18	1253,36
713,37	1298,41
713,55	1282,03
713,73	1232,88
713,91	1220,59
714,10	1335,28
714,28	1306,60
714,46	1239,02
714,65	1212,40
714,83	1230,83
715,01	1279,98
715,19	1316,84
715,38	1183,73
715,56	1298,41
715,74	1284,08
715,92	1310,70
716,11	1257,45
716,29	1259,50
716,47	1236,97
716,65	1273,84
716,84	1259,50
717,02	1191,92
717,20	1257,45
717,38	1279,98
717,57	1243,12
717,75	1292,27
717,93	1286,12
718,11	1249,26
718,30	1257,45
718,48	1230,83
718,66	1245,16
718,84	1226,73
719,03	1224,69
719,21	1259,50
719,39	1261,55
719,57	1198,06
719,75	1284,08
719,94	1337,32
720,12	1249,26
720,30	1255,40
720,48	1366,00
720,67	1206,25
720,85	1298,41
721,03	1239,02
721,21	1267,69
721,39	1265,64
721,58	1214,45
721,76	1327,08
721,94	1210,35
722,12	1286,12
722,30	1284,08
722,49	1257,45
722,67	1239,02
722,85	1263,60
723,03	1210,35
723,21	1357,80
723,40	1320,94
723,58	1249,26
723,76	1245,16
723,94	1271,79
724,12	1284,08
724,30	1286,12
724,49	1263,60
724,67	1275,88
724,85	1300,46
725,03	1261,55
725,21	1257,45
725,40	1232,88
725,58	1251,31
725,76	1312,75
725,94	1265,64
726,12	1308,65
726,30	1257,45
726,49	1202,16
726,67	1200,11
726,85	1290,22
727,03	1239,02
727,21	1265,64
727,39	1269,74
727,57	1249,26
727,76	1271,79
727,94	1271,79
728,12	1271,79
728,30	1218,54
728,48	1284,08
728,66	1308,65
728,84	1308,65
729,03	1249,26
729,21	1292,27
729,39	1273,84
729,57	1286,12
729,75	1284,08
729,93	1224,69
730,11	1226,73
730,30	1232,88
730,48	1245,16
730,66	1314,80
730,84	1335,28
731,02	1255,40
731,20	1247,21
731,38	1265,64
731,56	1232,88
731,74	1277,93
731,93	1236,97
732,11	1193,97
732,29	1273,84
732,47	1288,17
732,65	1259,50
732,83	1384,43
733,01	1329,13
733,19	1269,74
733,37	1331,18
733,56	1208,30
733,74	1245,16
733,92	1325,04
734,10	1279,98
734,28	1251,31
734,46	1224,69
734,64	1265,64
734,82	1327,08
735,00	1316,84
735,18	1243,12
735,36	1230,83
735,54	1277,93
735,73	1218,54
735,91	1306,60
736,09	1224,69
736,27	1261,55
736,45	1251,31
736,63	1259,50
736,81	1308,65
736,99	1226,73
737,17	1333,23
737,35	1290,22
737,53	1261,55
737,71	1249,26
737,89	1243,12
738,07	1253,36
738,25	1218,54
738,43	1294,32
738,61	1230,83
738,80	1290,22
738,98	1263,60
739,16	1206,25
739,34	1243,12
739,52	1312,75
739,70	1304,56
739,88	1306,60
740,06	1292,27
740,24	1241,07
740,42	1243,12
740,60	1249,26
740,78	1290,22
740,96	1333,23
741,14	1247,21
741,32	1216,49
741,50	1257,45
741,68	1284,08
741,86	1247,21
742,04	1239,02
742,22	1294,32
742,40	1312,75
742,58	1222,64
742,76	1298,41
742,94	1290,22
743,12	1259,50
743,30	1310,70
743,48	1253,36
743,66	1282,03
743,84	1243,12
744,02	1259,50
744,20	1335,28
744,38	1286,12
744,56	1288,17
744,74	1300,46
744,92	1273,84
745,10	1226,73
745,28	1269,74
745,46	1206,25
745,64	1312,75
745,82	1286,12
746,00	1286,12
746,18	1271,79
746,36	1222,64
746,54	1232,88
746,72	1263,60
746,90	1327,08
747,08	1220,59
747,26	1331,18
747,44	1271,79
747,62	1306,60
747,80	1345,52
747,98	1204,21
748,15	1284,08
748,33	1249,26
748,51	1275,88
748,69	1191,92
748,87	1251,31
749,05	1249,26
749,23	1298,41
749,41	1290,22
749,59	1222,64
749,77	1296,36
749,95	1263,60
750,13	1288,17
750,31	1259,50
750,49	1294,32
750,67	1294,32
750,85	1257,45
751,03	1216,49
751,20	1224,69
751,38	1230,83
751,56	1298,41
751,74	1306,60
751,92	1212,40
752,10	1290,22
752,28	1191,92
752,46	1271,79
752,64	1314,80
752,82	1245,16
753,00	1230,83
753,18	1279,98
753,35	1232,88
753,53	1241,07
753,71	1251,31
753,89	1247,21
754,07	1232,88
754,25	1228,78
754,43	1304,56
754,61	1236,97
754,79	1265,64
754,97	1304,56
755,14	1304,56
755,32	1222,64
755,50	1282,03
755,68	1284,08
755,86	1271,79
756,04	1230,83
756,22	1232,88
756,40	1230,83
756,57	1265,64
756,75	1263,60
756,93	1241,07
757,11	1239,02
757,29	1247,21
757,47	1230,83
757,65	1148,91
757,82	1247,21
758,00	1224,69
758,18	1286,12
758,36	1249,26
758,54	1337,32
758,72	1292,27
758,90	1206,25
759,07	1257,45
759,25	1239,02
759,43	1247,21
759,61	1290,22
759,79	1304,56
759,97	1318,89
760,15	1236,97
760,32	1296,36
760,50	1208,30
760,68	1308,65
760,86	1263,60
761,04	1288,17
761,22	1300,46
761,39	1241,07
761,57	1277,93
761,75	1273,84
761,93	1282,03
762,11	1376,24
762,28	1265,64
762,46	1275,88
762,64	1245,16
762,82	1224,69
763,00	1255,40
763,18	1304,56
763,35	1191,92
763,53	1318,89
763,71	1308,65
763,89	1214,45
764,07	1329,13
764,24	1296,36
764,42	1320,94
764,60	1282,03
764,78	1234,93
764,96	1267,69
765,13	1271,79
765,31	1310,70
765,49	1271,79
765,67	1181,68
765,84	1304,56
766,02	1306,60
766,20	1255,40
766,38	1232,88
766,56	1220,59
766,73	1273,84
766,91	1294,32
767,09	1296,36
767,27	1239,02
767,44	1292,27
767,62	1200,11
767,80	1296,36
767,98	1249,26
768,15	1216,49
768,33	1271,79
768,51	1236,97
768,69	1294,32
768,87	1279,98
769,04	1282,03
769,22	1275,88
769,40	1247,21
769,58	1292,27
769,75	1331,18
769,93	1325,04
770,11	1247,21
770,28	1212,40
770,46	1247,21
770,64	1239,02
770,82	1247,21
770,99	1204,21
771,17	1245,16
771,35	1343,47
771,53	1296,36
771,70	1261,55
771,88	1126,38
772,06	1325,04
772,23	1253,36
772,41	1339,37
772,59	1228,78
772,77	1239,02
772,94	1318,89
773,12	1322,99
773,30	1327,08
773,47	1308,65
773,65	1320,94
773,83	1228,78
774,01	1318,89
774,18	1265,64
774,36	1312,75
774,54	1322,99
774,71	1236,97
774,89	1230,83
775,07	1302,51
775,24	1230,83
775,42	1263,60
775,60	1355,76
775,78	1247,21
775,95	1239,02
776,13	1277,93
776,31	1226,73
776,48	1243,12
776,66	1267,69
776,84	1247,21
777,01	1296,36
777,19	1220,59
777,37	1200,11
777,54	1275,88
777,72	1218,54
777,90	1290,22
778,07	1269,74
778,25	1245,16
778,43	1261,55
778,60	1251,31
778,78	1241,07
778,96	1277,93
779,13	1273,84
779,31	1218,54
779,49	1306,60
779,66	1243,12
779,84	1263,60
780,01	1245,16
780,19	1239,02
780,37	1259,50
780,54	1273,84
780,72	1290,22
780,90	1245,16
781,07	1216,49
781,25	1257,45
781,43	1232,88
781,60	1175,53
781,78	1236,97
781,95	1228,78
782,13	1236,97
782,31	1296,36
782,48	1339,37
782,66	1200,11
782,83	1277,93
783,01	1261,55
783,19	1253,36
783,36	1337,32
783,54	1282,03
783,72	1284,08
783,89	1267,69
784,07	1226,73
784,24	1337,32
784,42	1249,26
784,60	1263,60
784,77	1316,84
784,95	1271,79
785,12	1296,36
785,30	1263,60
785,47	1218,54
785,65	1279,98
785,83	1243,12
786,00	1239,02
786,18	1206,25
786,35	1261,55
786,53	1255,40
786,71	1282,03
786,88	1253,36
787,06	1236,97
787,23	1279,98
787,41	1249,26
787,58	1288,17
787,76	1286,12
787,94	1232,88
788,11	1218,54
788,29	1218,54
788,46	1279,98
788,64	1200,11
788,81	1320,94
788,99	1200,11
789,16	1218,54
789,34	1316,84
789,52	1243,12
789,69	1224,69
789,87	1236,97
790,04	1249,26
790,22	1255,40
790,39	1245,16
790,57	1277,93
790,74	1163,25
790,92	1257,45
791,09	1318,89
791,27	1214,45
791,44	1241,07
791,62	1200,11
791,79	1239,02
791,97	1255,40
792,15	1329,13
792,32	1304,56
792,50	1191,92
792,67	1259,50
792,85	1286,12
793,02	1257,45
793,20	1265,64
793,37	1275,88
793,55	1269,74
793,72	1265,64
793,90	1261,55
794,07	1236,97
794,25	1271,79
794,42	1286,12
794,60	1376,24
794,77	1314,80
794,95	1282,03
795,12	1298,41
795,30	1236,97
795,47	1191,92
795,65	1322,99
795,82	1308,65
796,00	1296,36
796,17	1331,18
796,34	1320,94
796,52	1220,59
796,69	1259,50
796,87	1253,36
797,04	1228,78
797,22	1288,17
797,39	1216,49
797,57	1314,80
797,74	1265,64
797,92	1314,80
798,09	1271,79
798,27	1228,78
798,44	1298,41
798,62	1257,45
798,79	1249,26
798,96	1259,50
799,14	1269,74
799,31	1306,60
799,49	1275,88
799,66	1257,45
799,84	1247,21
800,01	1224,69
800,19	1302,51
800,36	1286,12
800,53	1306,60
800,71	1306,60
800,88	1206,25
801,06	1292,27
801,23	1222,64
801,41	1298,41
801,58	1325,04
801,75	1179,63
801,93	1269,74
802,10	1243,12
802,28	1253,36
802,45	1271,79
802,63	1296,36
802,80	1261,55
802,97	1312,75
803,15	1220,59
803,32	1304,56
803,50	1247,21
803,67	1263,60
803,84	1263,60
804,02	1300,46
804,19	1236,97
804,37	1228,78
804,54	1318,89
804,71	1241,07
804,89	1300,46
805,06	1314,80
805,24	1222,64
805,41	1282,03
805,58	1239,02
805,76	1284,08
805,93	1341,42
806,10	1277,93
806,28	1310,70
806,45	1304,56
806,63	1265,64
806,80	1241,07
806,97	1257,45
807,15	1212,40
807,32	1232,88
807,49	1150,96
807,67	1218,54
807,84	1257,45
808,01	1298,41
808,19	1249,26
808,36	1302,51
808,54	1261,55
808,71	1288,17
808,88	1345,52
809,06	1245,16
809,23	1206,25
809,40	1284,08
809,58	1290,22
809,75	1263,60
809,92	1261,55
810,10	1269,74
810,27	1273,84
810,44	1206,25
810,62	1220,59
810,79	1249,26
810,96	1241,07
811,14	1284,08
811,31	1257,45
811,48	1273,84
811,66	1271,79
811,83	1337,32
812,00	1198,06
812,18	1300,46
812,35	1361,90
812,52	1206,25
812,69	1263,60
812,87	1308,65
813,04	1241,07
813,21	1241,07
813,39	1275,88
813,56	1224,69
813,73	1304,56
813,91	1214,45
814,08	1253,36
814,25	1216,49
814,42	1275,88
814,60	1265,64
814,77	1259,50
814,94	1196,01
815,12	1361,90
815,29	1193,97
815,46	1253,36
815,63	1333,23
815,81	1277,93
815,98	1243,12
816,15	1177,58
816,33	1214,45
816,50	1277,93
816,67	1288,17
816,84	1304,56
817,02	1300,46
817,19	1306,60
817,36	1257,45
817,53	1269,74
817,71	1271,79
817,88	1249,26
818,05	1208,30
818,22	1331,18
818,40	1257,45
818,57	1216,49
818,74	1290,22
818,91	1316,84
819,09	1206,25
819,26	1232,88
819,43	1296,36
819,60	1251,31
819,78	1210,35
819,95	1298,41
820,12	1218,54
820,29	1290,22
820,47	1232,88
820,64	1232,88
820,81	1181,68
820,98	1247,21
821,15	1247,21
821,33	1331,18
821,50	1273,84
821,67	1255,40
821,84	1304,56
822,02	1253,36
822,19	1230,83
822,36	1282,03
822,53	1284,08
822,70	1247,21
822,88	1302,51
823,05	1247,21
823,22	1290,22
823,39	1294,32
823,56	1249,26
823,74	1263,60
823,91	1202,16
824,08	1269,74
824,25	1282,03
824,42	1259,50
824,60	1218,54
824,77	1329,13
824,94	1333,23
825,11	1345,52
825,28	1282,03
825,45	1198,06
825,63	1279,98
825,80	1234,93
825,97	1224,69
826,14	1249,26
826,31	1210,35
826,48	1222,64
826,66	1245,16
826,83	1208,30
827,00	1245,16
827,17	1198,06
827,34	1263,60
827,51	1259,50
827,69	1269,74
827,86	1241,07
828,03	1214,45
828,20	1269,74
828,37	1277,93
828,54	1273,84
828,71	1282,03
828,89	1239,02
829,06	1284,08
829,23	1314,80
829,40	1249,26
829,57	1247,21
829,74	1325,04
829,91	1277,93
830,09	1191,92
830,26	1333,23
830,43	1253,36
830,60	1322,99
830,77	1275,88
830,94	1294,32
831,11	1236,97
831,28	1298,41
831,46	1345,52
831,63	1308,65
831,80	1249,26
831,97	1239,02
832,14	1267,69
832,31	1253,36
832,48	1290,22
832,65	1226,73
832,82	1255,40
832,99	1329,13
833,17	1290,22
833,34	1263,60
833,51	1232,88
833,68	1249,26
833,85	1222,64
834,02	1277,93
834,19	1224,69
834,36	1265,64
834,53	1247,21
834,70	1277,93
834,87	1343,47
835,04	1239,02
835,22	1253,36
835,39	1243,12
835,56	1269,74
835,73	1255,40
835,90	1277,93
836,07	1247,21
836,24	1257,45
836,41	1243,12
836,58	1269,74
836,75	1345,52
836,92	1265,64
837,09	1325,04
837,26	1294,32
837,43	1259,50
837,60	1202,16
837,77	1191,92
837,94	1228,78
838,12	1322,99
838,29	1300,46
838,46	1265,64
838,63	1218,54
838,80	1327,08
838,97	1257,45
839,14	1314,80
839,31	1216,49
839,48	1222,64
839,65	1243,12
839,82	1290,22
839,99	1210,35
840,16	1196,01
840,33	1261,55
840,50	1220,59
840,67	1277,93
840,84	1234,93
841,01	1271,79
841,18	1279,98
841,35	1267,69
841,52	1292,27
841,69	1286,12
841,86	1302,51
842,03	1165,29
842,20	1267,69
842,37	1189,87
842,54	1267,69
842,71	1310,70
842,88	1292,27
843,05	1249,26
843,22	1243,12
843,39	1286,12
843,56	1271,79
843,73	1284,08
843,90	1290,22
844,07	1220,59
844,24	1314,80
844,41	1257,45
844,58	1286,12
844,75	1236,97
844,92	1243,12
845,09	1187,82
845,26	1208,30
845,43	1304,56
845,60	1282,03
845,77	1226,73
845,94	1284,08
846,10	1298,41
846,27	1279,98
846,44	1239,02
846,61	1255,40
846,78	1265,64
846,95	1269,74
847,12	1224,69
847,29	1228,78
847,46	1372,14
847,63	1271,79
847,80	1255,40
847,97	1284,08
848,14	1298,41
848,31	1239,02
848,48	1167,34
848,65	1200,11
848,82	1290,22
848,98	1263,60
849,15	1290,22
849,32	1249,26
849,49	1300,46
849,66	1279,98
849,83	1222,64
850,00	1306,60
850,17	1271,79
850,34	1257,45
850,51	1269,74
850,68	1224,69
850,85	1312,75
851,01	1273,84
851,18	1284,08
851,35	1343,47
851,52	1308,65
851,69	1249,26
851,86	1259,50
852,03	1308,65
852,20	1257,45
852,37	1273,84
852,53	1206,25
852,70	1310,70
852,87	1222,64
853,04	1189,87
853,21	1234,93
853,38	1298,41
853,55	1243,12
853,72	1279,98
853,89	1224,69
854,05	1220,59
854,22	1259,50
854,39	1257,45
854,56	1308,65
854,73	1243,12
854,90	1310,70
855,07	1226,73
855,23	1261,55
855,40	1312,75
855,57	1275,88
855,74	1239,02
855,91	1212,40
856,08	1314,80
856,25	1284,08
856,41	1333,23
856,58	1206,25
856,75	1200,11
856,92	1259,50
857,09	1241,07
857,26	1282,03
857,42	1286,12
857,59	1234,93
857,76	1200,11
857,93	1241,07
858,10	1279,98
858,27	1236,97
858,43	1247,21
858,60	1265,64
858,77	1265,64
858,94	1228,78
859,11	1290,22
859,27	1288,17
859,44	1200,11
859,61	1284,08
859,78	1243,12
859,95	1288,17
860,12	1320,94
860,28	1284,08
860,45	1325,04
860,62	1236,97
860,79	1228,78
860,95	1318,89
861,12	1290,22
861,29	1245,16
861,46	1239,02
861,63	1273,84
861,79	1312,75
861,96	1290,22
862,13	1275,88
862,30	1224,69
862,47	1273,84
862,63	1290,22
862,80	1261,55
862,97	1218,54
863,14	1335,28
863,30	1198,06
863,47	1300,46
863,64	1294,32
863,81	1318,89
863,97	1265,64
864,14	1257,45
864,31	1267,69
864,48	1239,02
864,65	1241,07
864,81	1284,08
864,98	1366,00
865,15	1302,51
865,32	1306,60
865,48	1279,98
865,65	1339,37
865,82	1304,56
865,98	1279,98
866,15	1312,75
866,32	1239,02
866,49	1208,30
866,65	1241,07
866,82	1259,50
866,99	1284,08
867,16	1331,18
867,32	1320,94
867,49	1271,79
867,66	1181,68
867,83	1359,85
867,99	1282,03
868,16	1241,07
868,33	1320,94
868,49	1329,13
868,66	1191,92
868,83	1322,99
868,99	1222,64
869,16	1251,31
869,33	1282,03
869,50	1204,21
869,66	1249,26
869,83	1300,46
870,00	1282,03
870,16	1224,69
870,33	1243,12
870,50	1273,84
870,66	1273,84
870,83	1239,02
871,00	1255,40
871,17	1232,88
871,33	1275,88
871,50	1282,03
871,67	1257,45
871,83	1216,49
872,00	1263,60
872,17	1298,41
872,33	1294,32
872,50	1275,88
872,67	1288,17
872,83	1255,40
873,00	1208,30
873,17	1335,28
873,33	1206,25
873,50	1200,11
873,67	1269,74
873,83	1263,60
874,00	1286,12
874,16	1216,49
874,33	1239,02
874,50	1220,59
874,66	1316,84
874,83	1314,80
875,00	1372,14
875,16	1302,51
875,33	1288,17
875,50	1269,74
875,66	1290,22
875,83	1312,75
875,99	1249,26
876,16	1212,40
876,33	1306,60
876,49	1216,49
876,66	1298,41
876,83	1269,74
876,99	1292,27
877,16	1314,80
877,32	1286,12
877,49	1251,31
877,66	1322,99
877,82	1263,60
877,99	1298,41
878,15	1357,80
878,32	1218,54
878,49	1277,93
878,65	1261,55
878,82	1265,64
878,98	1339,37
879,15	1251,31
879,32	1300,46
879,48	1314,80
879,65	1257,45
879,81	1249,26
879,98	1343,47
880,15	1196,01
880,31	1288,17
880,48	1236,97
880,64	1302,51
880,81	1273,84
880,97	1239,02
881,14	1279,98
881,31	1255,40
881,47	1273,84
881,64	1259,50
881,80	1333,23
881,97	1210,35
882,13	1271,79
882,30	1316,84
882,47	1255,40
882,63	1255,40
882,80	1302,51
882,96	1269,74
883,13	1294,32
883,29	1269,74
883,46	1216,49
883,62	1306,60
883,79	1236,97
883,95	1275,88
884,12	1282,03
884,29	1251,31
884,45	1284,08
884,62	1269,74
884,78	1271,79
884,95	1288,17
885,11	1243,12
885,28	1222,64
885,44	1282,03
885,61	1302,51
885,77	1298,41
885,94	1284,08
886,10	1267,69
886,27	1263,60
886,43	1249,26
886,60	1230,83
886,76	1193,97
886,93	1257,45
887,09	1284,08
887,26	1255,40
887,42	1263,60
887,59	1347,56
887,75	1302,51
887,92	1273,84
888,08	1187,82
888,25	1251,31
888,41	1265,64
888,58	1259,50
888,74	1198,06
888,91	1243,12
>>>>>End Processed Spectral Data<<<<<
