SpectraSuite Data File
++++++++++++++++++++++++++++++++++++
Date: Sun Apr 03 19:04:34 CEST 2016
User: root
Dark Spectrum Present: No
Reference Spectrum Present: No
Number of Sampled Component Spectra: 1
Spectrometers: USB4C02835
Integration Time (usec): 10000 (USB4C02835)
Spectra Averaged: 1 (USB4C02835)
Boxcar Smoothing: 0 (USB4C02835)
Correct for Electrical Dark: No (USB4C02835)
Strobe/Lamp Enabled: No (USB4C02835)
Correct for Detector Non-linearity: No (USB4C02835)
Correct for Stray Light: No (USB4C02835)
Number of Pixels in Processed Spectrum: 3648
>>>>>Begin Processed Spectral Data<<<<<
177,47	1230,83
177,69	1230,83
177,91	1230,83
178,13	1208,30
178,36	1191,92
178,58	1214,45
178,80	1279,98
179,02	1322,99
179,24	1249,26
179,46	1306,60
179,68	1310,70
179,90	1341,42
180,13	1304,56
180,35	1251,31
180,57	1341,42
180,79	1257,45
181,01	1370,09
181,23	1259,50
181,45	1273,84
181,67	1294,32
181,90	1327,08
182,12	1271,79
182,34	1279,98
182,56	1171,44
182,78	1273,84
183,00	1292,27
183,22	1275,88
183,44	1263,60
183,66	1279,98
183,89	1259,50
184,11	1241,07
184,33	1257,45
184,55	1253,36
184,77	1279,98
184,99	1230,83
185,21	1228,78
185,43	1230,83
185,65	1265,64
185,87	1286,12
186,10	1249,26
186,32	1279,98
186,54	1296,36
186,76	1253,36
186,98	1265,64
187,20	1185,77
187,42	1232,88
187,64	1306,60
187,86	1312,75
188,08	1275,88
188,30	1241,07
188,52	1255,40
188,75	1310,70
188,97	1251,31
189,19	1277,93
189,41	1230,83
189,63	1292,27
189,85	1247,21
190,07	1284,08
190,29	1241,07
190,51	1304,56
190,73	1322,99
190,95	1216,49
191,17	1232,88
191,39	1286,12
191,61	1286,12
191,84	1218,54
192,06	1234,93
192,28	1241,07
192,50	1302,51
192,72	1279,98
192,94	1267,69
193,16	1228,78
193,38	1298,41
193,60	1243,12
193,82	1204,21
194,04	1320,94
194,26	1282,03
194,48	1294,32
194,70	1269,74
194,92	1294,32
195,14	1187,82
195,36	1284,08
195,58	1298,41
195,80	1306,60
196,02	1286,12
196,24	1300,46
196,46	1230,83
196,69	1265,64
196,91	1265,64
197,13	1228,78
197,35	1206,25
197,57	1247,21
197,79	1255,40
198,01	1294,32
198,23	1243,12
198,45	1249,26
198,67	1322,99
198,89	1263,60
199,11	1290,22
199,33	1333,23
199,55	1220,59
199,77	1230,83
199,99	1228,78
200,21	1286,12
200,43	1279,98
200,65	1236,97
200,87	1282,03
201,09	1322,99
201,31	1249,26
201,53	1314,80
201,75	1204,21
201,97	1239,02
202,19	1275,88
202,41	1243,12
202,63	1275,88
202,85	1234,93
203,07	1261,55
203,29	1236,97
203,51	1236,97
203,73	1314,80
203,95	1322,99
204,17	1218,54
204,39	1216,49
204,61	1236,97
204,83	1302,51
205,05	1224,69
205,27	1277,93
205,49	1277,93
205,71	1253,36
205,93	1243,12
206,15	1249,26
206,37	1259,50
206,59	1267,69
206,81	1212,40
207,03	1273,84
207,25	1241,07
207,47	1304,56
207,69	1220,59
207,91	1249,26
208,13	1302,51
208,34	1212,40
208,56	1239,02
208,78	1253,36
209,00	1275,88
209,22	1286,12
209,44	1277,93
209,66	1298,41
209,88	1318,89
210,10	1302,51
210,32	1361,90
210,54	1230,83
210,76	1282,03
210,98	1253,36
211,20	1298,41
211,42	1279,98
211,64	1325,04
211,86	1265,64
212,08	1333,23
212,30	1183,73
212,52	1255,40
212,74	1290,22
212,96	1298,41
213,17	1290,22
213,39	1267,69
213,61	1271,79
213,83	1228,78
214,05	1290,22
214,27	1300,46
214,49	1265,64
214,71	1171,44
214,93	1228,78
215,15	1284,08
215,37	1222,64
215,59	1298,41
215,81	1222,64
216,03	1314,80
216,24	1275,88
216,46	1208,30
216,68	1265,64
216,90	1210,35
217,12	1261,55
217,34	1251,31
217,56	1288,17
217,78	1228,78
218,00	1253,36
218,22	1241,07
218,44	1298,41
218,66	1191,92
218,87	1308,65
219,09	1279,98
219,31	1306,60
219,53	1282,03
219,75	1243,12
219,97	1222,64
220,19	1327,08
220,41	1273,84
220,63	1292,27
220,85	1302,51
221,06	1196,01
221,28	1255,40
221,50	1181,68
221,72	1224,69
221,94	1302,51
222,16	1228,78
222,38	1279,98
222,60	1253,36
222,82	1298,41
223,03	1306,60
223,25	1214,45
223,47	1292,27
223,69	1275,88
223,91	1220,59
224,13	1212,40
224,35	1314,80
224,57	1269,74
224,78	1267,69
225,00	1279,98
225,22	1222,64
225,44	1261,55
225,66	1208,30
225,88	1259,50
226,10	1247,21
226,32	1257,45
226,53	1269,74
226,75	1236,97
226,97	1200,11
227,19	1322,99
227,41	1275,88
227,63	1230,83
227,85	1196,01
228,06	1284,08
228,28	1325,04
228,50	1232,88
228,72	1245,16
228,94	1273,84
229,16	1275,88
229,37	1312,75
229,59	1245,16
229,81	1304,56
230,03	1259,50
230,25	1245,16
230,47	1292,27
230,69	1325,04
230,90	1255,40
231,12	1298,41
231,34	1263,60
231,56	1290,22
231,78	1269,74
232,00	1290,22
232,21	1247,21
232,43	1292,27
232,65	1234,93
232,87	1331,18
233,09	1351,66
233,30	1251,31
233,52	1269,74
233,74	1284,08
233,96	1290,22
234,18	1234,93
234,40	1214,45
234,61	1263,60
234,83	1284,08
235,05	1273,84
235,27	1288,17
235,49	1271,79
235,70	1249,26
235,92	1277,93
236,14	1236,97
236,36	1339,37
236,58	1279,98
236,79	1253,36
237,01	1214,45
237,23	1288,17
237,45	1290,22
237,67	1294,32
237,88	1263,60
238,10	1298,41
238,32	1251,31
238,54	1304,56
238,76	1308,65
238,97	1245,16
239,19	1308,65
239,41	1267,69
239,63	1257,45
239,85	1271,79
240,06	1267,69
240,28	1269,74
240,50	1232,88
240,72	1353,71
240,93	1296,36
241,15	1261,55
241,37	1204,21
241,59	1308,65
241,81	1265,64
242,02	1271,79
242,24	1218,54
242,46	1265,64
242,68	1265,64
242,89	1191,92
243,11	1288,17
243,33	1249,26
243,55	1265,64
243,76	1269,74
243,98	1171,44
244,20	1245,16
244,42	1273,84
244,64	1298,41
244,85	1230,83
245,07	1261,55
245,29	1239,02
245,51	1255,40
245,72	1259,50
245,94	1282,03
246,16	1202,16
246,38	1241,07
246,59	1226,73
246,81	1267,69
247,03	1277,93
247,24	1310,70
247,46	1191,92
247,68	1230,83
247,90	1279,98
248,11	1183,73
248,33	1275,88
248,55	1220,59
248,77	1204,21
248,98	1290,22
249,20	1253,36
249,42	1341,42
249,64	1204,21
249,85	1208,30
250,07	1208,30
250,29	1296,36
250,50	1247,21
250,72	1265,64
250,94	1243,12
251,16	1290,22
251,37	1267,69
251,59	1343,47
251,81	1288,17
252,02	1308,65
252,24	1265,64
252,46	1279,98
252,68	1275,88
252,89	1284,08
253,11	1187,82
253,33	1273,84
253,54	1234,93
253,76	1243,12
253,98	1339,37
254,20	1261,55
254,41	1251,31
254,63	1245,16
254,85	1273,84
255,06	1234,93
255,28	1322,99
255,50	1282,03
255,71	1292,27
255,93	1345,52
256,15	1243,12
256,36	1220,59
256,58	1212,40
256,80	1251,31
257,02	1220,59
257,23	1273,84
257,45	1310,70
257,67	1271,79
257,88	1267,69
258,10	1282,03
258,32	1236,97
258,53	1286,12
258,75	1236,97
258,97	1247,21
259,18	1202,16
259,40	1253,36
259,62	1177,58
259,83	1275,88
260,05	1236,97
260,27	1243,12
260,48	1298,41
260,70	1267,69
260,92	1296,36
261,13	1294,32
261,35	1183,73
261,57	1249,26
261,78	1267,69
262,00	1279,98
262,22	1234,93
262,43	1300,46
262,65	1212,40
262,86	1316,84
263,08	1302,51
263,30	1322,99
263,51	1232,88
263,73	1263,60
263,95	1322,99
264,16	1249,26
264,38	1263,60
264,60	1331,18
264,81	1214,45
265,03	1267,69
265,25	1269,74
265,46	1325,04
265,68	1335,28
265,89	1286,12
266,11	1306,60
266,33	1279,98
266,54	1202,16
266,76	1277,93
266,98	1298,41
267,19	1177,58
267,41	1222,64
267,62	1245,16
267,84	1249,26
268,06	1296,36
268,27	1273,84
268,49	1183,73
268,70	1269,74
268,92	1247,21
269,14	1259,50
269,35	1202,16
269,57	1263,60
269,79	1347,56
270,00	1284,08
270,22	1304,56
270,43	1288,17
270,65	1329,13
270,87	1294,32
271,08	1253,36
271,30	1282,03
271,51	1191,92
271,73	1261,55
271,95	1282,03
272,16	1243,12
272,38	1263,60
272,59	1282,03
272,81	1245,16
273,02	1220,59
273,24	1239,02
273,46	1214,45
273,67	1251,31
273,89	1232,88
274,10	1337,32
274,32	1308,65
274,54	1296,36
274,75	1265,64
274,97	1353,71
275,18	1236,97
275,40	1269,74
275,61	1288,17
275,83	1275,88
276,05	1243,12
276,26	1304,56
276,48	1261,55
276,69	1273,84
276,91	1265,64
277,12	1304,56
277,34	1249,26
277,55	1308,65
277,77	1306,60
277,99	1320,94
278,20	1288,17
278,42	1230,83
278,63	1308,65
278,85	1255,40
279,06	1224,69
279,28	1271,79
279,49	1288,17
279,71	1230,83
279,93	1288,17
280,14	1245,16
280,36	1236,97
280,57	1331,18
280,79	1220,59
281,00	1234,93
281,22	1263,60
281,43	1294,32
281,65	1206,25
281,86	1222,64
282,08	1259,50
282,29	1288,17
282,51	1253,36
282,73	1304,56
282,94	1304,56
283,16	1259,50
283,37	1261,55
283,59	1290,22
283,80	1284,08
284,02	1282,03
284,23	1228,78
284,45	1304,56
284,66	1261,55
284,88	1271,79
285,09	1368,04
285,31	1249,26
285,52	1320,94
285,74	1284,08
285,95	1282,03
286,17	1284,08
286,38	1230,83
286,60	1239,02
286,81	1286,12
287,03	1312,75
287,24	1167,34
287,46	1273,84
287,67	1210,35
287,89	1267,69
288,10	1163,25
288,32	1329,13
288,53	1284,08
288,75	1263,60
288,96	1259,50
289,18	1241,07
289,39	1302,51
289,61	1308,65
289,82	1251,31
290,04	1224,69
290,25	1298,41
290,47	1261,55
290,68	1220,59
290,90	1279,98
291,11	1263,60
291,33	1296,36
291,54	1296,36
291,76	1277,93
291,97	1398,76
292,18	1296,36
292,40	1288,17
292,61	1230,83
292,83	1310,70
293,04	1286,12
293,26	1271,79
293,47	1226,73
293,69	1216,49
293,90	1222,64
294,12	1269,74
294,33	1325,04
294,55	1327,08
294,76	1322,99
294,97	1316,84
295,19	1325,04
295,40	1286,12
295,62	1300,46
295,83	1234,93
296,05	1214,45
296,26	1230,83
296,48	1214,45
296,69	1279,98
296,90	1241,07
297,12	1271,79
297,33	1255,40
297,55	1277,93
297,76	1228,78
297,98	1234,93
298,19	1259,50
298,41	1279,98
298,62	1241,07
298,83	1296,36
299,05	1241,07
299,26	1232,88
299,48	1247,21
299,69	1304,56
299,90	1202,16
300,12	1306,60
300,33	1310,70
300,55	1322,99
300,76	1302,51
300,98	1204,21
301,19	1290,22
301,40	1308,65
301,62	1243,12
301,83	1255,40
302,05	1300,46
302,26	1263,60
302,47	1183,73
302,69	1255,40
302,90	1224,69
303,12	1298,41
303,33	1214,45
303,54	1253,36
303,76	1216,49
303,97	1294,32
304,19	1200,11
304,40	1300,46
304,61	1320,94
304,83	1282,03
305,04	1222,64
305,26	1220,59
305,47	1277,93
305,68	1298,41
305,90	1261,55
306,11	1277,93
306,33	1239,02
306,54	1267,69
306,75	1331,18
306,97	1263,60
307,18	1296,36
307,39	1304,56
307,61	1277,93
307,82	1249,26
308,04	1253,36
308,25	1263,60
308,46	1263,60
308,68	1200,11
308,89	1298,41
309,10	1253,36
309,32	1251,31
309,53	1241,07
309,74	1302,51
309,96	1306,60
310,17	1282,03
310,39	1249,26
310,60	1269,74
310,81	1263,60
311,03	1226,73
311,24	1290,22
311,45	1228,78
311,67	1284,08
311,88	1284,08
312,09	1198,06
312,31	1224,69
312,52	1257,45
312,73	1249,26
312,95	1239,02
313,16	1277,93
313,37	1253,36
313,59	1290,22
313,80	1294,32
314,01	1331,18
314,23	1200,11
314,44	1302,51
314,65	1282,03
314,87	1271,79
315,08	1300,46
315,29	1226,73
315,51	1284,08
315,72	1282,03
315,93	1230,83
316,15	1290,22
316,36	1234,93
316,57	1204,21
316,79	1314,80
317,00	1288,17
317,21	1202,16
317,43	1288,17
317,64	1245,16
317,85	1318,89
318,07	1239,02
318,28	1216,49
318,49	1308,65
318,70	1269,74
318,92	1304,56
319,13	1290,22
319,34	1210,35
319,56	1322,99
319,77	1204,21
319,98	1294,32
320,20	1232,88
320,41	1204,21
320,62	1302,51
320,83	1269,74
321,05	1275,88
321,26	1247,21
321,47	1302,51
321,69	1265,64
321,90	1202,16
322,11	1234,93
322,32	1253,36
322,54	1279,98
322,75	1269,74
322,96	1296,36
323,18	1277,93
323,39	1228,78
323,60	1265,64
323,81	1282,03
324,03	1341,42
324,24	1296,36
324,45	1228,78
324,66	1320,94
324,88	1288,17
325,09	1288,17
325,30	1316,84
325,52	1212,40
325,73	1312,75
325,94	1343,47
326,15	1187,82
326,37	1288,17
326,58	1343,47
326,79	1288,17
327,00	1282,03
327,22	1294,32
327,43	1288,17
327,64	1255,40
327,85	1236,97
328,07	1273,84
328,28	1189,87
328,49	1286,12
328,70	1181,68
328,92	1212,40
329,13	1331,18
329,34	1150,96
329,55	1277,93
329,76	1208,30
329,98	1212,40
330,19	1259,50
330,40	1314,80
330,61	1284,08
330,83	1269,74
331,04	1273,84
331,25	1257,45
331,46	1234,93
331,68	1314,80
331,89	1239,02
332,10	1224,69
332,31	1222,64
332,52	1251,31
332,74	1353,71
332,95	1284,08
333,16	1267,69
333,37	1273,84
333,58	1314,80
333,80	1312,75
334,01	1230,83
334,22	1275,88
334,43	1228,78
334,64	1279,98
334,86	1230,83
335,07	1351,66
335,28	1239,02
335,49	1302,51
335,70	1183,73
335,92	1269,74
336,13	1290,22
336,34	1343,47
336,55	1318,89
336,76	1245,16
336,98	1243,12
337,19	1269,74
337,40	1183,73
337,61	1269,74
337,82	1257,45
338,04	1345,52
338,25	1187,82
338,46	1245,16
338,67	1222,64
338,88	1271,79
339,09	1316,84
339,31	1202,16
339,52	1306,60
339,73	1206,25
339,94	1341,42
340,15	1271,79
340,36	1224,69
340,58	1271,79
340,79	1224,69
341,00	1329,13
341,21	1279,98
341,42	1232,88
341,63	1241,07
341,85	1290,22
342,06	1322,99
342,27	1372,14
342,48	1290,22
342,69	1290,22
342,90	1189,87
343,12	1187,82
343,33	1212,40
343,54	1271,79
343,75	1267,69
343,96	1261,55
344,17	1275,88
344,38	1339,37
344,60	1236,97
344,81	1314,80
345,02	1257,45
345,23	1236,97
345,44	1236,97
345,65	1218,54
345,86	1241,07
346,07	1363,95
346,29	1220,59
346,50	1290,22
346,71	1279,98
346,92	1282,03
347,13	1167,34
347,34	1304,56
347,55	1206,25
347,76	1273,84
347,98	1298,41
348,19	1234,93
348,40	1290,22
348,61	1232,88
348,82	1200,11
349,03	1189,87
349,24	1298,41
349,45	1355,76
349,66	1216,49
349,88	1277,93
350,09	1216,49
350,30	1224,69
350,51	1304,56
350,72	1245,16
350,93	1243,12
351,14	1265,64
351,35	1216,49
351,56	1216,49
351,77	1304,56
351,99	1298,41
352,20	1253,36
352,41	1296,36
352,62	1216,49
352,83	1228,78
353,04	1224,69
353,25	1286,12
353,46	1247,21
353,67	1290,22
353,88	1314,80
354,09	1265,64
354,30	1230,83
354,52	1302,51
354,73	1247,21
354,94	1277,93
355,15	1263,60
355,36	1279,98
355,57	1314,80
355,78	1181,68
355,99	1226,73
356,20	1298,41
356,41	1296,36
356,62	1273,84
356,83	1273,84
357,04	1228,78
357,25	1232,88
357,46	1198,06
357,68	1247,21
357,89	1218,54
358,10	1216,49
358,31	1314,80
358,52	1304,56
358,73	1253,36
358,94	1259,50
359,15	1261,55
359,36	1271,79
359,57	1255,40
359,78	1265,64
359,99	1261,55
360,20	1322,99
360,41	1247,21
360,62	1257,45
360,83	1232,88
361,04	1300,46
361,25	1322,99
361,46	1251,31
361,67	1232,88
361,88	1300,46
362,09	1273,84
362,30	1282,03
362,51	1277,93
362,72	1325,04
362,93	1288,17
363,14	1241,07
363,35	1241,07
363,56	1263,60
363,78	1298,41
363,99	1286,12
364,20	1212,40
364,41	1228,78
364,62	1302,51
364,83	1245,16
365,04	1232,88
365,25	1255,40
365,46	1265,64
365,67	1220,59
365,88	1314,80
366,09	1273,84
366,30	1300,46
366,51	1271,79
366,72	1163,25
366,93	1179,63
367,14	1239,02
367,35	1335,28
367,56	1302,51
367,77	1300,46
367,98	1261,55
368,18	1279,98
368,39	1241,07
368,60	1265,64
368,81	1306,60
369,02	1255,40
369,23	1179,63
369,44	1312,75
369,65	1249,26
369,86	1284,08
370,07	1247,21
370,28	1249,26
370,49	1239,02
370,70	1298,41
370,91	1329,13
371,12	1329,13
371,33	1290,22
371,54	1286,12
371,75	1265,64
371,96	1212,40
372,17	1339,37
372,38	1261,55
372,59	1245,16
372,80	1234,93
373,01	1277,93
373,22	1239,02
373,43	1245,16
373,64	1216,49
373,85	1318,89
374,06	1279,98
374,26	1269,74
374,47	1286,12
374,68	1261,55
374,89	1284,08
375,10	1302,51
375,31	1269,74
375,52	1214,45
375,73	1290,22
375,94	1216,49
376,15	1265,64
376,36	1257,45
376,57	1259,50
376,78	1273,84
376,99	1292,27
377,20	1245,16
377,40	1327,08
377,61	1275,88
377,82	1265,64
378,03	1265,64
378,24	1335,28
378,45	1226,73
378,66	1245,16
378,87	1263,60
379,08	1284,08
379,29	1218,54
379,50	1228,78
379,71	1257,45
379,91	1202,16
380,12	1288,17
380,33	1261,55
380,54	1249,26
380,75	1224,69
380,96	1224,69
381,17	1318,89
381,38	1224,69
381,59	1304,56
381,80	1218,54
382,00	1296,36
382,21	1306,60
382,42	1218,54
382,63	1218,54
382,84	1267,69
383,05	1251,31
383,26	1279,98
383,47	1224,69
383,68	1263,60
383,88	1288,17
384,09	1304,56
384,30	1292,27
384,51	1171,44
384,72	1234,93
384,93	1310,70
385,14	1265,64
385,35	1232,88
385,55	1294,32
385,76	1308,65
385,97	1243,12
386,18	1288,17
386,39	1241,07
386,60	1257,45
386,81	1245,16
387,02	1263,60
387,22	1257,45
387,43	1257,45
387,64	1327,08
387,85	1335,28
388,06	1275,88
388,27	1251,31
388,48	1316,84
388,68	1298,41
388,89	1239,02
389,10	1302,51
389,31	1202,16
389,52	1279,98
389,73	1308,65
389,93	1314,80
390,14	1265,64
390,35	1304,56
390,56	1232,88
390,77	1239,02
390,98	1279,98
391,18	1241,07
391,39	1296,36
391,60	1232,88
391,81	1259,50
392,02	1265,64
392,23	1275,88
392,43	1312,75
392,64	1263,60
392,85	1269,74
393,06	1294,32
393,27	1216,49
393,47	1331,18
393,68	1263,60
393,89	1261,55
394,10	1290,22
394,31	1267,69
394,52	1314,80
394,72	1214,45
394,93	1257,45
395,14	1347,56
395,35	1282,03
395,56	1318,89
395,76	1218,54
395,97	1279,98
396,18	1322,99
396,39	1273,84
396,60	1273,84
396,80	1308,65
397,01	1267,69
397,22	1263,60
397,43	1263,60
397,64	1261,55
397,84	1267,69
398,05	1284,08
398,26	1277,93
398,47	1232,88
398,67	1241,07
398,88	1308,65
399,09	1236,97
399,30	1282,03
399,51	1288,17
399,71	1218,54
399,92	1241,07
400,13	1191,92
400,34	1187,82
400,54	1187,82
400,75	1255,40
400,96	1261,55
401,17	1234,93
401,37	1312,75
401,58	1288,17
401,79	1230,83
402,00	1214,45
402,21	1314,80
402,41	1277,93
402,62	1196,01
402,83	1255,40
403,04	1284,08
403,24	1304,56
403,45	1263,60
403,66	1259,50
403,87	1288,17
404,07	1312,75
404,28	1214,45
404,49	1282,03
404,70	1245,16
404,90	1232,88
405,11	1245,16
405,32	1327,08
405,52	1261,55
405,73	1302,51
405,94	1273,84
406,15	1249,26
406,35	1310,70
406,56	1249,26
406,77	1269,74
406,98	1210,35
407,18	1271,79
407,39	1378,28
407,60	1282,03
407,80	1265,64
408,01	1294,32
408,22	1220,59
408,43	1339,37
408,63	1243,12
408,84	1284,08
409,05	1177,58
409,25	1220,59
409,46	1279,98
409,67	1189,87
409,88	1249,26
410,08	1329,13
410,29	1359,85
410,50	1322,99
410,70	1279,98
410,91	1208,30
411,12	1298,41
411,32	1259,50
411,53	1218,54
411,74	1320,94
411,95	1257,45
412,15	1234,93
412,36	1282,03
412,57	1282,03
412,77	1267,69
412,98	1216,49
413,19	1320,94
413,39	1286,12
413,60	1345,52
413,81	1228,78
414,01	1302,51
414,22	1171,44
414,43	1333,23
414,63	1282,03
414,84	1347,56
415,05	1224,69
415,25	1300,46
415,46	1292,27
415,67	1226,73
415,87	1282,03
416,08	1191,92
416,29	1275,88
416,49	1273,84
416,70	1269,74
416,91	1314,80
417,11	1271,79
417,32	1374,19
417,53	1316,84
417,73	1222,64
417,94	1206,25
418,15	1196,01
418,35	1279,98
418,56	1191,92
418,77	1279,98
418,97	1265,64
419,18	1300,46
419,38	1292,27
419,59	1271,79
419,80	1265,64
420,00	1263,60
420,21	1224,69
420,42	1265,64
420,62	1314,80
420,83	1271,79
421,04	1337,32
421,24	1290,22
421,45	1243,12
421,65	1343,47
421,86	1275,88
422,07	1140,72
422,27	1333,23
422,48	1253,36
422,69	1267,69
422,89	1216,49
423,10	1236,97
423,30	1345,52
423,51	1239,02
423,72	1292,27
423,92	1284,08
424,13	1208,30
424,33	1234,93
424,54	1327,08
424,75	1279,98
424,95	1265,64
425,16	1308,65
425,36	1222,64
425,57	1304,56
425,78	1198,06
425,98	1226,73
426,19	1241,07
426,39	1269,74
426,60	1247,21
426,81	1294,32
427,01	1306,60
427,22	1257,45
427,42	1241,07
427,63	1208,30
427,83	1271,79
428,04	1327,08
428,25	1267,69
428,45	1273,84
428,66	1257,45
428,86	1310,70
429,07	1222,64
429,28	1288,17
429,48	1216,49
429,69	1277,93
429,89	1200,11
430,10	1318,89
430,30	1224,69
430,51	1226,73
430,71	1249,26
430,92	1185,77
431,13	1292,27
431,33	1290,22
431,54	1337,32
431,74	1269,74
431,95	1322,99
432,15	1292,27
432,36	1333,23
432,56	1286,12
432,77	1261,55
432,98	1222,64
433,18	1286,12
433,39	1271,79
433,59	1298,41
433,80	1282,03
434,00	1241,07
434,21	1337,32
434,41	1245,16
434,62	1302,51
434,82	1269,74
435,03	1206,25
435,23	1269,74
435,44	1279,98
435,64	1200,11
435,85	1273,84
436,06	1251,31
436,26	1271,79
436,47	1277,93
436,67	1224,69
436,88	1300,46
437,08	1216,49
437,29	1284,08
437,49	1300,46
437,70	1267,69
437,90	1247,21
438,11	1292,27
438,31	1247,21
438,52	1224,69
438,72	1243,12
438,93	1302,51
439,13	1255,40
439,34	1335,28
439,54	1236,97
439,75	1249,26
439,95	1196,01
440,16	1265,64
440,36	1259,50
440,57	1243,12
440,77	1273,84
440,98	1265,64
441,18	1312,75
441,39	1255,40
441,59	1277,93
441,80	1222,64
442,00	1349,61
442,21	1228,78
442,41	1314,80
442,62	1300,46
442,82	1257,45
443,02	1355,76
443,23	1208,30
443,43	1212,40
443,64	1271,79
443,84	1265,64
444,05	1273,84
444,25	1208,30
444,46	1337,32
444,66	1298,41
444,87	1308,65
445,07	1294,32
445,28	1322,99
445,48	1355,76
445,69	1275,88
445,89	1239,02
446,09	1273,84
446,30	1298,41
446,50	1269,74
446,71	1259,50
446,91	1282,03
447,12	1339,37
447,32	1318,89
447,53	1298,41
447,73	1279,98
447,93	1214,45
448,14	1253,36
448,34	1325,04
448,55	1335,28
448,75	1249,26
448,96	1234,93
449,16	1310,70
449,36	1298,41
449,57	1218,54
449,77	1218,54
449,98	1312,75
450,18	1249,26
450,39	1202,16
450,59	1249,26
450,79	1316,84
451,00	1288,17
451,20	1271,79
451,41	1298,41
451,61	1255,40
451,81	1302,51
452,02	1243,12
452,22	1247,21
452,43	1224,69
452,63	1257,45
452,84	1251,31
453,04	1263,60
453,24	1255,40
453,45	1236,97
453,65	1275,88
453,86	1279,98
454,06	1206,25
454,26	1265,64
454,47	1314,80
454,67	1329,13
454,87	1210,35
455,08	1296,36
455,28	1200,11
455,49	1288,17
455,69	1304,56
455,89	1300,46
456,10	1261,55
456,30	1351,66
456,51	1226,73
456,71	1259,50
456,91	1253,36
457,12	1290,22
457,32	1214,45
457,52	1290,22
457,73	1282,03
457,93	1288,17
458,14	1327,08
458,34	1214,45
458,54	1243,12
458,75	1247,21
458,95	1243,12
459,15	1314,80
459,36	1257,45
459,56	1257,45
459,76	1245,16
459,97	1241,07
460,17	1318,89
460,37	1277,93
460,58	1249,26
460,78	1267,69
460,99	1267,69
461,19	1253,36
461,39	1282,03
461,60	1228,78
461,80	1251,31
462,00	1302,51
462,21	1314,80
462,41	1277,93
462,61	1296,36
462,82	1247,21
463,02	1255,40
463,22	1257,45
463,43	1255,40
463,63	1255,40
463,83	1282,03
464,04	1275,88
464,24	1304,56
464,44	1222,64
464,64	1247,21
464,85	1234,93
465,05	1253,36
465,25	1306,60
465,46	1275,88
465,66	1185,77
465,86	1224,69
466,07	1263,60
466,27	1265,64
466,47	1263,60
466,68	1210,35
466,88	1304,56
467,08	1251,31
467,29	1263,60
467,49	1275,88
467,69	1320,94
467,89	1298,41
468,10	1267,69
468,30	1279,98
468,50	1337,32
468,71	1241,07
468,91	1253,36
469,11	1275,88
469,31	1259,50
469,52	1261,55
469,72	1216,49
469,92	1241,07
470,13	1296,36
470,33	1253,36
470,53	1271,79
470,73	1261,55
470,94	1241,07
471,14	1273,84
471,34	1306,60
471,54	1296,36
471,75	1298,41
471,95	1241,07
472,15	1265,64
472,36	1259,50
472,56	1296,36
472,76	1275,88
472,96	1302,51
473,17	1273,84
473,37	1247,21
473,57	1269,74
473,77	1300,46
473,98	1234,93
474,18	1253,36
474,38	1249,26
474,58	1269,74
474,79	1286,12
474,99	1253,36
475,19	1222,64
475,39	1290,22
475,60	1277,93
475,80	1310,70
476,00	1304,56
476,20	1310,70
476,41	1210,35
476,61	1228,78
476,81	1249,26
477,01	1282,03
477,21	1296,36
477,42	1261,55
477,62	1263,60
477,82	1292,27
478,02	1269,74
478,23	1261,55
478,43	1241,07
478,63	1271,79
478,83	1267,69
479,03	1236,97
479,24	1327,08
479,44	1253,36
479,64	1302,51
479,84	1267,69
480,04	1255,40
480,25	1271,79
480,45	1253,36
480,65	1298,41
480,85	1191,92
481,06	1224,69
481,26	1302,51
481,46	1275,88
481,66	1273,84
481,86	1288,17
482,06	1196,01
482,27	1239,02
482,47	1302,51
482,67	1249,26
482,87	1232,88
483,07	1275,88
483,28	1261,55
483,48	1247,21
483,68	1220,59
483,88	1347,56
484,08	1214,45
484,29	1234,93
484,49	1288,17
484,69	1329,13
484,89	1322,99
485,09	1189,87
485,29	1239,02
485,50	1255,40
485,70	1318,89
485,90	1306,60
486,10	1257,45
486,30	1267,69
486,50	1261,55
486,71	1241,07
486,91	1273,84
487,11	1298,41
487,31	1265,64
487,51	1251,31
487,71	1314,80
487,91	1255,40
488,12	1247,21
488,32	1271,79
488,52	1316,84
488,72	1228,78
488,92	1277,93
489,12	1290,22
489,32	1232,88
489,53	1243,12
489,73	1286,12
489,93	1243,12
490,13	1210,35
490,33	1232,88
490,53	1187,82
490,73	1288,17
490,94	1282,03
491,14	1316,84
491,34	1251,31
491,54	1249,26
491,74	1183,73
491,94	1279,98
492,14	1302,51
492,34	1300,46
492,54	1249,26
492,75	1206,25
492,95	1202,16
493,15	1267,69
493,35	1322,99
493,55	1257,45
493,75	1261,55
493,95	1255,40
494,15	1290,22
494,35	1214,45
494,56	1357,80
494,76	1355,76
494,96	1351,66
495,16	1308,65
495,36	1245,16
495,56	1247,21
495,76	1239,02
495,96	1298,41
496,16	1220,59
496,36	1296,36
496,56	1263,60
496,77	1265,64
496,97	1361,90
497,17	1265,64
497,37	1277,93
497,57	1296,36
497,77	1300,46
497,97	1273,84
498,17	1265,64
498,37	1282,03
498,57	1251,31
498,77	1241,07
498,97	1318,89
499,17	1306,60
499,38	1224,69
499,58	1232,88
499,78	1263,60
499,98	1204,21
500,18	1269,74
500,38	1304,56
500,58	1273,84
500,78	1279,98
500,98	1318,89
501,18	1232,88
501,38	1241,07
501,58	1300,46
501,78	1198,06
501,98	1255,40
502,18	1132,53
502,38	1269,74
502,58	1322,99
502,78	1210,35
502,98	1302,51
503,18	1290,22
503,38	1265,64
503,59	1220,59
503,79	1236,97
503,99	1302,51
504,19	1341,42
504,39	1224,69
504,59	1282,03
504,79	1282,03
504,99	1200,11
505,19	1277,93
505,39	1298,41
505,59	1247,21
505,79	1288,17
505,99	1206,25
506,19	1269,74
506,39	1339,37
506,59	1308,65
506,79	1204,21
506,99	1277,93
507,19	1292,27
507,39	1202,16
507,59	1249,26
507,79	1212,40
507,99	1277,93
508,19	1247,21
508,39	1339,37
508,59	1249,26
508,79	1245,16
508,99	1263,60
509,19	1249,26
509,39	1288,17
509,59	1318,89
509,79	1245,16
509,99	1267,69
510,19	1218,54
510,39	1322,99
510,59	1236,97
510,79	1300,46
510,99	1271,79
511,19	1304,56
511,39	1208,30
511,59	1271,79
511,79	1220,59
511,99	1355,76
512,19	1226,73
512,38	1300,46
512,58	1228,78
512,78	1345,52
512,98	1294,32
513,18	1277,93
513,38	1290,22
513,58	1257,45
513,78	1294,32
513,98	1210,35
514,18	1189,87
514,38	1232,88
514,58	1261,55
514,78	1263,60
514,98	1294,32
515,18	1267,69
515,38	1271,79
515,58	1282,03
515,78	1290,22
515,98	1257,45
516,18	1257,45
516,38	1290,22
516,57	1284,08
516,77	1370,09
516,97	1298,41
517,17	1255,40
517,37	1208,30
517,57	1224,69
517,77	1282,03
517,97	1224,69
518,17	1284,08
518,37	1257,45
518,57	1263,60
518,77	1265,64
518,97	1310,70
519,16	1214,45
519,36	1294,32
519,56	1251,31
519,76	1279,98
519,96	1206,25
520,16	1292,27
520,36	1245,16
520,56	1337,32
520,76	1224,69
520,96	1204,21
521,16	1243,12
521,35	1357,80
521,55	1292,27
521,75	1279,98
521,95	1249,26
522,15	1234,93
522,35	1261,55
522,55	1306,60
522,75	1265,64
522,95	1230,83
523,14	1239,02
523,34	1255,40
523,54	1273,84
523,74	1279,98
523,94	1302,51
524,14	1267,69
524,34	1290,22
524,54	1333,23
524,73	1247,21
524,93	1253,36
525,13	1284,08
525,33	1249,26
525,53	1222,64
525,73	1261,55
525,93	1269,74
526,13	1310,70
526,32	1208,30
526,52	1329,13
526,72	1243,12
526,92	1230,83
527,12	1329,13
527,32	1232,88
527,52	1228,78
527,71	1316,84
527,91	1277,93
528,11	1247,21
528,31	1255,40
528,51	1294,32
528,71	1157,10
528,90	1269,74
529,10	1230,83
529,30	1267,69
529,50	1331,18
529,70	1216,49
529,90	1290,22
530,09	1304,56
530,29	1279,98
530,49	1212,40
530,69	1261,55
530,89	1286,12
531,09	1275,88
531,28	1273,84
531,48	1243,12
531,68	1236,97
531,88	1353,71
532,08	1255,40
532,28	1273,84
532,47	1259,50
532,67	1249,26
532,87	1224,69
533,07	1239,02
533,27	1259,50
533,46	1257,45
533,66	1255,40
533,86	1271,79
534,06	1298,41
534,26	1302,51
534,45	1288,17
534,65	1249,26
534,85	1292,27
535,05	1269,74
535,25	1308,65
535,44	1251,31
535,64	1351,66
535,84	1286,12
536,04	1255,40
536,24	1288,17
536,43	1159,15
536,63	1208,30
536,83	1277,93
537,03	1232,88
537,22	1224,69
537,42	1331,18
537,62	1335,28
537,82	1245,16
538,02	1290,22
538,21	1245,16
538,41	1251,31
538,61	1218,54
538,81	1312,75
539,00	1318,89
539,20	1185,77
539,40	1232,88
539,60	1214,45
539,79	1200,11
539,99	1310,70
540,19	1298,41
540,39	1239,02
540,58	1327,08
540,78	1279,98
540,98	1247,21
541,18	1265,64
541,37	1298,41
541,57	1259,50
541,77	1239,02
541,97	1236,97
542,16	1241,07
542,36	1224,69
542,56	1249,26
542,76	1251,31
542,95	1284,08
543,15	1265,64
543,35	1271,79
543,54	1232,88
543,74	1306,60
543,94	1265,64
544,14	1271,79
544,33	1255,40
544,53	1261,55
544,73	1292,27
544,93	1241,07
545,12	1308,65
545,32	1230,83
545,52	1294,32
545,71	1298,41
545,91	1228,78
546,11	1314,80
546,30	1286,12
546,50	1331,18
546,70	1267,69
546,90	1245,16
547,09	1222,64
547,29	1286,12
547,49	1275,88
547,68	1239,02
547,88	1322,99
548,08	1251,31
548,27	1249,26
548,47	1312,75
548,67	1316,84
548,87	1273,84
549,06	1314,80
549,26	1273,84
549,46	1318,89
549,65	1206,25
549,85	1208,30
550,05	1300,46
550,24	1286,12
550,44	1228,78
550,64	1271,79
550,83	1286,12
551,03	1263,60
551,23	1296,36
551,42	1208,30
551,62	1306,60
551,82	1279,98
552,01	1232,88
552,21	1261,55
552,41	1224,69
552,60	1298,41
552,80	1279,98
553,00	1220,59
553,19	1306,60
553,39	1320,94
553,59	1232,88
553,78	1306,60
553,98	1251,31
554,17	1300,46
554,37	1220,59
554,57	1226,73
554,76	1245,16
554,96	1325,04
555,16	1282,03
555,35	1236,97
555,55	1275,88
555,75	1243,12
555,94	1284,08
556,14	1259,50
556,33	1288,17
556,53	1279,98
556,73	1255,40
556,92	1279,98
557,12	1277,93
557,32	1179,63
557,51	1327,08
557,71	1232,88
557,90	1277,93
558,10	1228,78
558,30	1249,26
558,49	1257,45
558,69	1288,17
558,88	1232,88
559,08	1333,23
559,28	1179,63
559,47	1243,12
559,67	1257,45
559,86	1331,18
560,06	1304,56
560,26	1259,50
560,45	1284,08
560,65	1298,41
560,84	1253,36
561,04	1243,12
561,24	1263,60
561,43	1273,84
561,63	1259,50
561,82	1325,04
562,02	1191,92
562,22	1304,56
562,41	1245,16
562,61	1222,64
562,80	1232,88
563,00	1316,84
563,19	1316,84
563,39	1337,32
563,59	1265,64
563,78	1267,69
563,98	1214,45
564,17	1322,99
564,37	1239,02
564,56	1286,12
564,76	1259,50
564,96	1290,22
565,15	1261,55
565,35	1216,49
565,54	1310,70
565,74	1279,98
565,93	1214,45
566,13	1271,79
566,32	1300,46
566,52	1288,17
566,71	1273,84
566,91	1265,64
567,11	1312,75
567,30	1284,08
567,50	1271,79
567,69	1296,36
567,89	1212,40
568,08	1232,88
568,28	1202,16
568,47	1277,93
568,67	1257,45
568,86	1265,64
569,06	1292,27
569,25	1282,03
569,45	1378,28
569,64	1193,97
569,84	1302,51
570,04	1232,88
570,23	1282,03
570,43	1198,06
570,62	1247,21
570,82	1345,52
571,01	1269,74
571,21	1253,36
571,40	1322,99
571,60	1298,41
571,79	1234,93
571,99	1300,46
572,18	1257,45
572,38	1294,32
572,57	1275,88
572,77	1259,50
572,96	1339,37
573,16	1234,93
573,35	1271,79
573,55	1247,21
573,74	1300,46
573,94	1267,69
574,13	1279,98
574,33	1331,18
574,52	1210,35
574,71	1181,68
574,91	1241,07
575,10	1255,40
575,30	1249,26
575,49	1245,16
575,69	1320,94
575,88	1257,45
576,08	1159,15
576,27	1306,60
576,47	1255,40
576,66	1224,69
576,86	1282,03
577,05	1230,83
577,25	1253,36
577,44	1290,22
577,64	1335,28
577,83	1265,64
578,02	1214,45
578,22	1290,22
578,41	1236,97
578,61	1284,08
578,80	1232,88
579,00	1288,17
579,19	1300,46
579,39	1314,80
579,58	1212,40
579,77	1247,21
579,97	1267,69
580,16	1236,97
580,36	1251,31
580,55	1228,78
580,75	1220,59
580,94	1261,55
581,13	1300,46
581,33	1296,36
581,52	1212,40
581,72	1267,69
581,91	1251,31
582,11	1251,31
582,30	1298,41
582,49	1253,36
582,69	1304,56
582,88	1269,74
583,08	1228,78
583,27	1249,26
583,47	1271,79
583,66	1163,25
583,85	1279,98
584,05	1255,40
584,24	1150,96
584,44	1230,83
584,63	1284,08
584,82	1257,45
585,02	1314,80
585,21	1261,55
585,41	1302,51
585,60	1322,99
585,79	1191,92
585,99	1345,52
586,18	1327,08
586,37	1300,46
586,57	1241,07
586,76	1255,40
586,96	1249,26
587,15	1277,93
587,34	1275,88
587,54	1245,16
587,73	1230,83
587,93	1300,46
588,12	1279,98
588,31	1222,64
588,51	1308,65
588,70	1296,36
588,89	1267,69
589,09	1312,75
589,28	1204,21
589,47	1232,88
589,67	1314,80
589,86	1316,84
590,06	1243,12
590,25	1261,55
590,44	1298,41
590,64	1322,99
590,83	1296,36
591,02	1322,99
591,22	1261,55
591,41	1247,21
591,60	1296,36
591,80	1370,09
591,99	1269,74
592,18	1271,79
592,38	1257,45
592,57	1275,88
592,76	1251,31
592,96	1204,21
593,15	1241,07
593,34	1243,12
593,54	1306,60
593,73	1284,08
593,92	1169,39
594,12	1214,45
594,31	1327,08
594,50	1243,12
594,70	1290,22
594,89	1296,36
595,08	1232,88
595,28	1243,12
595,47	1245,16
595,66	1265,64
595,86	1218,54
596,05	1302,51
596,24	1251,31
596,43	1255,40
596,63	1243,12
596,82	1325,04
597,01	1271,79
597,21	1279,98
597,40	1212,40
597,59	1236,97
597,79	1271,79
597,98	1306,60
598,17	1271,79
598,36	1306,60
598,56	1273,84
598,75	1263,60
598,94	1253,36
599,14	1327,08
599,33	1249,26
599,52	1347,56
599,71	1304,56
599,91	1259,50
600,10	1277,93
600,29	1247,21
600,48	1232,88
600,68	1261,55
600,87	1277,93
601,06	1271,79
601,26	1218,54
601,45	1290,22
601,64	1234,93
601,83	1255,40
602,03	1243,12
602,22	1308,65
602,41	1327,08
602,60	1316,84
602,80	1314,80
602,99	1269,74
603,18	1259,50
603,37	1265,64
603,57	1261,55
603,76	1290,22
603,95	1220,59
604,14	1290,22
604,34	1302,51
604,53	1320,94
604,72	1245,16
604,91	1292,27
605,10	1273,84
605,30	1329,13
605,49	1222,64
605,68	1279,98
605,87	1259,50
606,07	1284,08
606,26	1339,37
606,45	1279,98
606,64	1236,97
606,84	1271,79
607,03	1261,55
607,22	1271,79
607,41	1359,85
607,60	1275,88
607,80	1245,16
607,99	1216,49
608,18	1253,36
608,37	1247,21
608,56	1249,26
608,76	1263,60
608,95	1198,06
609,14	1226,73
609,33	1265,64
609,52	1265,64
609,72	1296,36
609,91	1363,95
610,10	1253,36
610,29	1232,88
610,48	1298,41
610,68	1300,46
610,87	1296,36
611,06	1308,65
611,25	1261,55
611,44	1292,27
611,63	1290,22
611,83	1314,80
612,02	1239,02
612,21	1253,36
612,40	1232,88
612,59	1271,79
612,79	1284,08
612,98	1261,55
613,17	1216,49
613,36	1322,99
613,55	1277,93
613,74	1292,27
613,93	1306,60
614,13	1253,36
614,32	1212,40
614,51	1343,47
614,70	1251,31
614,89	1335,28
615,08	1253,36
615,28	1320,94
615,47	1290,22
615,66	1294,32
615,85	1329,13
616,04	1298,41
616,23	1320,94
616,42	1277,93
616,62	1253,36
616,81	1275,88
617,00	1275,88
617,19	1261,55
617,38	1232,88
617,57	1181,68
617,76	1290,22
617,95	1255,40
618,15	1282,03
618,34	1275,88
618,53	1279,98
618,72	1257,45
618,91	1267,69
619,10	1384,43
619,29	1329,13
619,48	1271,79
619,68	1277,93
619,87	1243,12
620,06	1224,69
620,25	1269,74
620,44	1251,31
620,63	1241,07
620,82	1312,75
621,01	1282,03
621,20	1200,11
621,39	1249,26
621,59	1263,60
621,78	1327,08
621,97	1216,49
622,16	1273,84
622,35	1341,42
622,54	1277,93
622,73	1359,85
622,92	1253,36
623,11	1298,41
623,30	1370,09
623,49	1347,56
623,68	1339,37
623,88	1306,60
624,07	1183,73
624,26	1298,41
624,45	1279,98
624,64	1226,73
624,83	1218,54
625,02	1286,12
625,21	1273,84
625,40	1302,51
625,59	1259,50
625,78	1271,79
625,97	1265,64
626,16	1322,99
626,35	1337,32
626,54	1290,22
626,74	1214,45
626,93	1253,36
627,12	1286,12
627,31	1304,56
627,50	1263,60
627,69	1296,36
627,88	1294,32
628,07	1292,27
628,26	1253,36
628,45	1300,46
628,64	1286,12
628,83	1325,04
629,02	1224,69
629,21	1265,64
629,40	1294,32
629,59	1267,69
629,78	1320,94
629,97	1325,04
630,16	1314,80
630,35	1226,73
630,54	1271,79
630,73	1325,04
630,92	1306,60
631,11	1339,37
631,30	1261,55
631,49	1345,52
631,68	1540,07
631,87	2007,01
632,06	3145,68
632,25	2490,33
632,44	3008,47
632,63	3184,59
632,82	3053,52
633,01	4995,00
633,20	6813,59
633,39	6991,77
633,58	13963,05
633,77	30301,75
633,96	46757,17
634,15	53818,57
634,34	45581,64
634,53	27659,87
634,72	13137,72
634,91	5883,81
635,10	3665,86
635,29	3090,38
635,48	2510,81
635,67	2119,65
635,86	1699,81
636,05	1550,31
636,24	1501,16
636,43	1376,24
636,62	1306,60
636,81	1419,24
637,00	1325,04
637,19	1386,47
637,38	1298,41
637,57	1368,04
637,76	1331,18
637,95	1333,23
638,14	1337,32
638,33	1296,36
638,52	1273,84
638,71	1282,03
638,89	1288,17
639,08	1318,89
639,27	1296,36
639,46	1296,36
639,65	1277,93
639,84	1298,41
640,03	1273,84
640,22	1316,84
640,41	1198,06
640,60	1253,36
640,79	1259,50
640,98	1265,64
641,17	1224,69
641,36	1253,36
641,55	1267,69
641,74	1306,60
641,92	1257,45
642,11	1292,27
642,30	1271,79
642,49	1269,74
642,68	1185,77
642,87	1308,65
643,06	1259,50
643,25	1245,16
643,44	1273,84
643,63	1282,03
643,82	1286,12
644,00	1218,54
644,19	1263,60
644,38	1271,79
644,57	1308,65
644,76	1259,50
644,95	1372,14
645,14	1284,08
645,33	1249,26
645,52	1236,97
645,71	1239,02
645,89	1259,50
646,08	1257,45
646,27	1253,36
646,46	1275,88
646,65	1398,76
646,84	1273,84
647,03	1247,21
647,22	1277,93
647,40	1253,36
647,59	1302,51
647,78	1277,93
647,97	1257,45
648,16	1210,35
648,35	1249,26
648,54	1230,83
648,73	1308,65
648,91	1251,31
649,10	1259,50
649,29	1230,83
649,48	1275,88
649,67	1314,80
649,86	1226,73
650,05	1249,26
650,23	1218,54
650,42	1216,49
650,61	1222,64
650,80	1292,27
650,99	1247,21
651,18	1318,89
651,36	1304,56
651,55	1243,12
651,74	1265,64
651,93	1286,12
652,12	1232,88
652,31	1294,32
652,49	1273,84
652,68	1226,73
652,87	1290,22
653,06	1314,80
653,25	1351,66
653,44	1257,45
653,62	1325,04
653,81	1216,49
654,00	1359,85
654,19	1271,79
654,38	1308,65
654,56	1249,26
654,75	1212,40
654,94	1255,40
655,13	1251,31
655,32	1257,45
655,51	1277,93
655,69	1306,60
655,88	1107,95
656,07	1282,03
656,26	1282,03
656,45	1241,07
656,63	1304,56
656,82	1345,52
657,01	1273,84
657,20	1273,84
657,38	1273,84
657,57	1335,28
657,76	1214,45
657,95	1239,02
658,14	1308,65
658,32	1259,50
658,51	1345,52
658,70	1320,94
658,89	1273,84
659,08	1304,56
659,26	1277,93
659,45	1206,25
659,64	1236,97
659,83	1269,74
660,01	1267,69
660,20	1329,13
660,39	1333,23
660,58	1290,22
660,76	1249,26
660,95	1177,58
661,14	1271,79
661,33	1253,36
661,51	1298,41
661,70	1322,99
661,89	1253,36
662,08	1316,84
662,26	1241,07
662,45	1189,87
662,64	1239,02
662,83	1286,12
663,01	1290,22
663,20	1275,88
663,39	1255,40
663,58	1253,36
663,76	1241,07
663,95	1243,12
664,14	1224,69
664,32	1339,37
664,51	1288,17
664,70	1302,51
664,89	1265,64
665,07	1224,69
665,26	1277,93
665,45	1265,64
665,64	1220,59
665,82	1204,21
666,01	1257,45
666,20	1249,26
666,38	1284,08
666,57	1265,64
666,76	1261,55
666,95	1263,60
667,13	1220,59
667,32	1284,08
667,51	1370,09
667,69	1279,98
667,88	1316,84
668,07	1269,74
668,25	1214,45
668,44	1286,12
668,63	1304,56
668,81	1267,69
669,00	1230,83
669,19	1290,22
669,38	1191,92
669,56	1198,06
669,75	1302,51
669,94	1343,47
670,12	1304,56
670,31	1239,02
670,50	1247,21
670,68	1325,04
670,87	1247,21
671,06	1247,21
671,24	1257,45
671,43	1288,17
671,62	1331,18
671,80	1241,07
671,99	1355,76
672,18	1312,75
672,36	1263,60
672,55	1222,64
672,74	1265,64
672,92	1208,30
673,11	1257,45
673,29	1267,69
673,48	1277,93
673,67	1271,79
673,85	1265,64
674,04	1308,65
674,23	1279,98
674,41	1271,79
674,60	1288,17
674,79	1277,93
674,97	1298,41
675,16	1286,12
675,34	1230,83
675,53	1249,26
675,72	1318,89
675,90	1265,64
676,09	1320,94
676,28	1232,88
676,46	1228,78
676,65	1214,45
676,83	1230,83
677,02	1300,46
677,21	1292,27
677,39	1232,88
677,58	1322,99
677,77	1284,08
677,95	1241,07
678,14	1286,12
678,32	1290,22
678,51	1259,50
678,70	1320,94
678,88	1236,97
679,07	1275,88
679,25	1222,64
679,44	1239,02
679,63	1163,25
679,81	1198,06
680,00	1275,88
680,18	1290,22
680,37	1234,93
680,55	1245,16
680,74	1239,02
680,93	1300,46
681,11	1269,74
681,30	1265,64
681,48	1241,07
681,67	1245,16
681,85	1208,30
682,04	1239,02
682,23	1239,02
682,41	1259,50
682,60	1239,02
682,78	1296,36
682,97	1284,08
683,15	1204,21
683,34	1296,36
683,53	1308,65
683,71	1294,32
683,90	1226,73
684,08	1335,28
684,27	1306,60
684,45	1300,46
684,64	1249,26
684,82	1290,22
685,01	1333,23
685,19	1263,60
685,38	1224,69
685,57	1304,56
685,75	1259,50
685,94	1239,02
686,12	1339,37
686,31	1273,84
686,49	1292,27
686,68	1236,97
686,86	1263,60
687,05	1255,40
687,23	1277,93
687,42	1171,44
687,60	1245,16
687,79	1218,54
687,97	1312,75
688,16	1253,36
688,34	1337,32
688,53	1316,84
688,71	1288,17
688,90	1290,22
689,08	1286,12
689,27	1232,88
689,45	1304,56
689,64	1228,78
689,82	1236,97
690,01	1300,46
690,19	1251,31
690,38	1257,45
690,56	1249,26
690,75	1265,64
690,93	1243,12
691,12	1282,03
691,30	1216,49
691,49	1261,55
691,67	1257,45
691,86	1310,70
692,04	1327,08
692,23	1257,45
692,41	1308,65
692,60	1185,77
692,78	1257,45
692,97	1218,54
693,15	1226,73
693,34	1325,04
693,52	1331,18
693,71	1279,98
693,89	1253,36
694,08	1232,88
694,26	1257,45
694,44	1277,93
694,63	1257,45
694,81	1249,26
695,00	1273,84
695,18	1193,97
695,37	1220,59
695,55	1279,98
695,74	1296,36
695,92	1265,64
696,10	1327,08
696,29	1279,98
696,47	1232,88
696,66	1325,04
696,84	1236,97
697,03	1263,60
697,21	1247,21
697,40	1290,22
697,58	1288,17
697,76	1298,41
697,95	1253,36
698,13	1267,69
698,32	1298,41
698,50	1296,36
698,68	1257,45
698,87	1312,75
699,05	1333,23
699,24	1265,64
699,42	1298,41
699,61	1308,65
699,79	1318,89
699,97	1224,69
700,16	1234,93
700,34	1300,46
700,53	1314,80
700,71	1288,17
700,89	1208,30
701,08	1282,03
701,26	1298,41
701,45	1282,03
701,63	1216,49
701,81	1257,45
702,00	1335,28
702,18	1294,32
702,37	1331,18
702,55	1322,99
702,73	1247,21
702,92	1263,60
703,10	1232,88
703,28	1286,12
703,47	1333,23
703,65	1275,88
703,84	1312,75
704,02	1228,78
704,20	1279,98
704,39	1341,42
704,57	1279,98
704,75	1284,08
704,94	1269,74
705,12	1214,45
705,30	1271,79
705,49	1259,50
705,67	1232,88
705,86	1269,74
706,04	1282,03
706,22	1308,65
706,41	1312,75
706,59	1286,12
706,77	1214,45
706,96	1290,22
707,14	1294,32
707,32	1306,60
707,51	1265,64
707,69	1241,07
707,87	1200,11
708,06	1196,01
708,24	1310,70
708,42	1263,60
708,61	1298,41
708,79	1294,32
708,97	1290,22
709,16	1275,88
709,34	1331,18
709,52	1259,50
709,71	1253,36
709,89	1259,50
710,07	1310,70
710,26	1253,36
710,44	1239,02
710,62	1286,12
710,80	1255,40
710,99	1335,28
711,17	1261,55
711,35	1222,64
711,54	1146,86
711,72	1255,40
711,90	1302,51
712,09	1282,03
712,27	1234,93
712,45	1222,64
712,63	1282,03
712,82	1255,40
713,00	1296,36
713,18	1212,40
713,37	1243,12
713,55	1290,22
713,73	1327,08
713,91	1269,74
714,10	1263,60
714,28	1263,60
714,46	1230,83
714,65	1236,97
714,83	1239,02
715,01	1298,41
715,19	1206,25
715,38	1308,65
715,56	1261,55
715,74	1228,78
715,92	1198,06
716,11	1277,93
716,29	1255,40
716,47	1294,32
716,65	1310,70
716,84	1279,98
717,02	1187,82
717,20	1212,40
717,38	1220,59
717,57	1230,83
717,75	1230,83
717,93	1277,93
718,11	1292,27
718,30	1179,63
718,48	1269,74
718,66	1279,98
718,84	1222,64
719,03	1187,82
719,21	1196,01
719,39	1200,11
719,57	1255,40
719,75	1261,55
719,94	1247,21
720,12	1234,93
720,30	1253,36
720,48	1259,50
720,67	1228,78
720,85	1239,02
721,03	1271,79
721,21	1251,31
721,39	1286,12
721,58	1259,50
721,76	1253,36
721,94	1228,78
722,12	1259,50
722,30	1249,26
722,49	1292,27
722,67	1275,88
722,85	1286,12
723,03	1261,55
723,21	1279,98
723,40	1226,73
723,58	1224,69
723,76	1204,21
723,94	1339,37
724,12	1257,45
724,30	1255,40
724,49	1327,08
724,67	1284,08
724,85	1308,65
725,03	1239,02
725,21	1243,12
725,40	1253,36
725,58	1245,16
725,76	1286,12
725,94	1271,79
726,12	1322,99
726,30	1249,26
726,49	1230,83
726,67	1306,60
726,85	1277,93
727,03	1181,68
727,21	1232,88
727,39	1230,83
727,57	1271,79
727,76	1329,13
727,94	1241,07
728,12	1302,51
728,30	1320,94
728,48	1298,41
728,66	1298,41
728,84	1255,40
729,03	1220,59
729,21	1290,22
729,39	1306,60
729,57	1214,45
729,75	1282,03
729,93	1290,22
730,11	1302,51
730,30	1251,31
730,48	1318,89
730,66	1204,21
730,84	1300,46
731,02	1335,28
731,20	1191,92
731,38	1206,25
731,56	1269,74
731,74	1298,41
731,93	1265,64
732,11	1243,12
732,29	1398,76
732,47	1298,41
732,65	1273,84
732,83	1267,69
733,01	1259,50
733,19	1257,45
733,37	1239,02
733,56	1290,22
733,74	1216,49
733,92	1271,79
734,10	1275,88
734,28	1288,17
734,46	1243,12
734,64	1335,28
734,82	1306,60
735,00	1220,59
735,18	1337,32
735,36	1290,22
735,54	1308,65
735,73	1243,12
735,91	1314,80
736,09	1247,21
736,27	1259,50
736,45	1175,53
736,63	1265,64
736,81	1212,40
736,99	1249,26
737,17	1220,59
737,35	1200,11
737,53	1277,93
737,71	1271,79
737,89	1253,36
738,07	1210,35
738,25	1239,02
738,43	1286,12
738,61	1185,77
738,80	1290,22
738,98	1329,13
739,16	1208,30
739,34	1292,27
739,52	1282,03
739,70	1253,36
739,88	1279,98
740,06	1212,40
740,24	1255,40
740,42	1288,17
740,60	1183,73
740,78	1257,45
740,96	1279,98
741,14	1290,22
741,32	1232,88
741,50	1243,12
741,68	1277,93
741,86	1239,02
742,04	1273,84
742,22	1327,08
742,40	1275,88
742,58	1261,55
742,76	1220,59
742,94	1267,69
743,12	1171,44
743,30	1253,36
743,48	1314,80
743,66	1292,27
743,84	1292,27
744,02	1255,40
744,20	1253,36
744,38	1196,01
744,56	1253,36
744,74	1277,93
744,92	1304,56
745,10	1243,12
745,28	1232,88
745,46	1251,31
745,64	1341,42
745,82	1298,41
746,00	1247,21
746,18	1216,49
746,36	1259,50
746,54	1210,35
746,72	1298,41
746,90	1292,27
747,08	1292,27
747,26	1251,31
747,44	1247,21
747,62	1265,64
747,80	1265,64
747,98	1228,78
748,15	1273,84
748,33	1269,74
748,51	1245,16
748,69	1288,17
748,87	1222,64
749,05	1269,74
749,23	1298,41
749,41	1187,82
749,59	1331,18
749,77	1241,07
749,95	1230,83
750,13	1234,93
750,31	1247,21
750,49	1216,49
750,67	1306,60
750,85	1290,22
751,03	1314,80
751,20	1228,78
751,38	1275,88
751,56	1251,31
751,74	1294,32
751,92	1263,60
752,10	1257,45
752,28	1339,37
752,46	1175,53
752,64	1282,03
752,82	1212,40
753,00	1269,74
753,18	1275,88
753,35	1226,73
753,53	1353,71
753,71	1247,21
753,89	1249,26
754,07	1257,45
754,25	1257,45
754,43	1257,45
754,61	1220,59
754,79	1265,64
754,97	1228,78
755,14	1212,40
755,32	1265,64
755,50	1275,88
755,68	1316,84
755,86	1239,02
756,04	1286,12
756,22	1239,02
756,40	1271,79
756,57	1193,97
756,75	1273,84
756,93	1296,36
757,11	1236,97
757,29	1273,84
757,47	1277,93
757,65	1230,83
757,82	1282,03
758,00	1284,08
758,18	1271,79
758,36	1208,30
758,54	1222,64
758,72	1263,60
758,90	1267,69
759,07	1247,21
759,25	1318,89
759,43	1320,94
759,61	1200,11
759,79	1345,52
759,97	1318,89
760,15	1267,69
760,32	1331,18
760,50	1282,03
760,68	1310,70
760,86	1179,63
761,04	1298,41
761,22	1218,54
761,39	1253,36
761,57	1273,84
761,75	1282,03
761,93	1306,60
762,11	1302,51
762,28	1214,45
762,46	1247,21
762,64	1230,83
762,82	1222,64
763,00	1241,07
763,18	1286,12
763,35	1251,31
763,53	1300,46
763,71	1296,36
763,89	1329,13
764,07	1271,79
764,24	1286,12
764,42	1251,31
764,60	1236,97
764,78	1261,55
764,96	1222,64
765,13	1308,65
765,31	1308,65
765,49	1267,69
765,67	1286,12
765,84	1210,35
766,02	1282,03
766,20	1273,84
766,38	1279,98
766,56	1220,59
766,73	1314,80
766,91	1224,69
767,09	1316,84
767,27	1267,69
767,44	1230,83
767,62	1247,21
767,80	1271,79
767,98	1282,03
768,15	1296,36
768,33	1286,12
768,51	1249,26
768,69	1224,69
768,87	1279,98
769,04	1243,12
769,22	1263,60
769,40	1234,93
769,58	1286,12
769,75	1277,93
769,93	1253,36
770,11	1374,19
770,28	1222,64
770,46	1304,56
770,64	1273,84
770,82	1234,93
770,99	1306,60
771,17	1222,64
771,35	1271,79
771,53	1304,56
771,70	1251,31
771,88	1284,08
772,06	1288,17
772,23	1271,79
772,41	1296,36
772,59	1239,02
772,77	1249,26
772,94	1318,89
773,12	1239,02
773,30	1290,22
773,47	1271,79
773,65	1216,49
773,83	1302,51
774,01	1259,50
774,18	1296,36
774,36	1243,12
774,54	1241,07
774,71	1277,93
774,89	1249,26
775,07	1271,79
775,24	1230,83
775,42	1224,69
775,60	1277,93
775,78	1255,40
775,95	1179,63
776,13	1224,69
776,31	1247,21
776,48	1304,56
776,66	1255,40
776,84	1253,36
777,01	1290,22
777,19	1255,40
777,37	1222,64
777,54	1228,78
777,72	1247,21
777,90	1273,84
778,07	1310,70
778,25	1300,46
778,43	1212,40
778,60	1249,26
778,78	1259,50
778,96	1269,74
779,13	1314,80
779,31	1236,97
779,49	1216,49
779,66	1308,65
779,84	1284,08
780,01	1239,02
780,19	1247,21
780,37	1267,69
780,54	1193,97
780,72	1265,64
780,90	1245,16
781,07	1284,08
781,25	1292,27
781,43	1212,40
781,60	1320,94
781,78	1335,28
781,95	1259,50
782,13	1255,40
782,31	1236,97
782,48	1247,21
782,66	1275,88
782,83	1232,88
783,01	1191,92
783,19	1314,80
783,36	1224,69
783,54	1245,16
783,72	1218,54
783,89	1277,93
784,07	1292,27
784,24	1277,93
784,42	1304,56
784,60	1251,31
784,77	1284,08
784,95	1269,74
785,12	1263,60
785,30	1216,49
785,47	1208,30
785,65	1286,12
785,83	1249,26
786,00	1247,21
786,18	1230,83
786,35	1286,12
786,53	1298,41
786,71	1228,78
786,88	1271,79
787,06	1234,93
787,23	1359,85
787,41	1265,64
787,58	1241,07
787,76	1232,88
787,94	1345,52
788,11	1218,54
788,29	1259,50
788,46	1277,93
788,64	1220,59
788,81	1310,70
788,99	1265,64
789,16	1261,55
789,34	1222,64
789,52	1210,35
789,69	1181,68
789,87	1251,31
790,04	1263,60
790,22	1232,88
790,39	1245,16
790,57	1239,02
790,74	1294,32
790,92	1302,51
791,09	1212,40
791,27	1200,11
791,44	1228,78
791,62	1290,22
791,79	1277,93
791,97	1269,74
792,15	1261,55
792,32	1204,21
792,50	1259,50
792,67	1318,89
792,85	1279,98
793,02	1284,08
793,20	1290,22
793,37	1189,87
793,55	1304,56
793,72	1320,94
793,90	1232,88
794,07	1277,93
794,25	1273,84
794,42	1265,64
794,60	1294,32
794,77	1171,44
794,95	1288,17
795,12	1294,32
795,30	1308,65
795,47	1312,75
795,65	1329,13
795,82	1286,12
796,00	1263,60
796,17	1304,56
796,34	1267,69
796,52	1253,36
796,69	1259,50
796,87	1279,98
797,04	1218,54
797,22	1245,16
797,39	1198,06
797,57	1218,54
797,74	1236,97
797,92	1308,65
798,09	1245,16
798,27	1150,96
798,44	1271,79
798,62	1239,02
798,79	1212,40
798,96	1290,22
799,14	1351,66
799,31	1277,93
799,49	1271,79
799,66	1243,12
799,84	1245,16
800,01	1279,98
800,19	1269,74
800,36	1214,45
800,53	1228,78
800,71	1216,49
800,88	1314,80
801,06	1347,56
801,23	1304,56
801,41	1257,45
801,58	1239,02
801,75	1210,35
801,93	1261,55
802,10	1302,51
802,28	1253,36
802,45	1306,60
802,63	1312,75
802,80	1261,55
802,97	1298,41
803,15	1255,40
803,32	1265,64
803,50	1212,40
803,67	1259,50
803,84	1241,07
804,02	1284,08
804,19	1265,64
804,37	1265,64
804,54	1290,22
804,71	1304,56
804,89	1226,73
805,06	1279,98
805,24	1279,98
805,41	1249,26
805,58	1230,83
805,76	1216,49
805,93	1230,83
806,10	1320,94
806,28	1239,02
806,45	1259,50
806,63	1300,46
806,80	1314,80
806,97	1275,88
807,15	1314,80
807,32	1271,79
807,49	1247,21
807,67	1247,21
807,84	1198,06
808,01	1245,16
808,19	1312,75
808,36	1236,97
808,54	1261,55
808,71	1251,31
808,88	1290,22
809,06	1298,41
809,23	1286,12
809,40	1353,71
809,58	1265,64
809,75	1290,22
809,92	1193,97
810,10	1333,23
810,27	1359,85
810,44	1320,94
810,62	1269,74
810,79	1265,64
810,96	1290,22
811,14	1249,26
811,31	1284,08
811,48	1196,01
811,66	1366,00
811,83	1335,28
812,00	1228,78
812,18	1232,88
812,35	1239,02
812,52	1269,74
812,69	1290,22
812,87	1253,36
813,04	1284,08
813,21	1236,97
813,39	1316,84
813,56	1259,50
813,73	1273,84
813,91	1216,49
814,08	1241,07
814,25	1339,37
814,42	1308,65
814,60	1279,98
814,77	1218,54
814,94	1277,93
815,12	1255,40
815,29	1247,21
815,46	1208,30
815,63	1236,97
815,81	1241,07
815,98	1294,32
816,15	1226,73
816,33	1239,02
816,50	1288,17
816,67	1357,80
816,84	1304,56
817,02	1218,54
817,19	1236,97
817,36	1282,03
817,53	1228,78
817,71	1269,74
817,88	1282,03
818,05	1212,40
818,22	1300,46
818,40	1282,03
818,57	1257,45
818,74	1222,64
818,91	1325,04
819,09	1275,88
819,26	1290,22
819,43	1322,99
819,60	1296,36
819,78	1189,87
819,95	1288,17
820,12	1183,73
820,29	1327,08
820,47	1220,59
820,64	1216,49
820,81	1349,61
820,98	1284,08
821,15	1314,80
821,33	1290,22
821,50	1232,88
821,67	1239,02
821,84	1189,87
822,02	1288,17
822,19	1226,73
822,36	1183,73
822,53	1222,64
822,70	1261,55
822,88	1304,56
823,05	1359,85
823,22	1183,73
823,39	1282,03
823,56	1292,27
823,74	1255,40
823,91	1245,16
824,08	1261,55
824,25	1241,07
824,42	1271,79
824,60	1245,16
824,77	1200,11
824,94	1286,12
825,11	1275,88
825,28	1335,28
825,45	1267,69
825,63	1325,04
825,80	1204,21
825,97	1196,01
826,14	1265,64
826,31	1230,83
826,48	1290,22
826,66	1310,70
826,83	1214,45
827,00	1257,45
827,17	1294,32
827,34	1290,22
827,51	1202,16
827,69	1306,60
827,86	1259,50
828,03	1249,26
828,20	1290,22
828,37	1288,17
828,54	1261,55
828,71	1200,11
828,89	1275,88
829,06	1298,41
829,23	1275,88
829,40	1261,55
829,57	1249,26
829,74	1261,55
829,91	1259,50
830,09	1228,78
830,26	1279,98
830,43	1263,60
830,60	1249,26
830,77	1271,79
830,94	1191,92
831,11	1245,16
831,28	1273,84
831,46	1279,98
831,63	1279,98
831,80	1286,12
831,97	1232,88
832,14	1257,45
832,31	1335,28
832,48	1257,45
832,65	1275,88
832,82	1251,31
832,99	1193,97
833,17	1245,16
833,34	1277,93
833,51	1220,59
833,68	1290,22
833,85	1257,45
834,02	1298,41
834,19	1318,89
834,36	1226,73
834,53	1298,41
834,70	1189,87
834,87	1286,12
835,04	1253,36
835,22	1236,97
835,39	1337,32
835,56	1228,78
835,73	1296,36
835,90	1204,21
836,07	1245,16
836,24	1257,45
836,41	1265,64
836,58	1230,83
836,75	1312,75
836,92	1255,40
837,09	1206,25
837,26	1230,83
837,43	1261,55
837,60	1224,69
837,77	1337,32
837,94	1230,83
838,12	1257,45
838,29	1208,30
838,46	1226,73
838,63	1269,74
838,80	1333,23
838,97	1275,88
839,14	1263,60
839,31	1282,03
839,48	1267,69
839,65	1249,26
839,82	1218,54
839,99	1286,12
840,16	1191,92
840,33	1224,69
840,50	1312,75
840,67	1298,41
840,84	1325,04
841,01	1253,36
841,18	1343,47
841,35	1277,93
841,52	1267,69
841,69	1257,45
841,86	1239,02
842,03	1206,25
842,20	1189,87
842,37	1218,54
842,54	1329,13
842,71	1279,98
842,88	1288,17
843,05	1318,89
843,22	1267,69
843,39	1243,12
843,56	1245,16
843,73	1257,45
843,90	1298,41
844,07	1234,93
844,24	1243,12
844,41	1239,02
844,58	1222,64
844,75	1279,98
844,92	1320,94
845,09	1277,93
845,26	1239,02
845,43	1302,51
845,60	1273,84
845,77	1261,55
845,94	1273,84
846,10	1269,74
846,27	1245,16
846,44	1259,50
846,61	1212,40
846,78	1269,74
846,95	1239,02
847,12	1214,45
847,29	1265,64
847,46	1234,93
847,63	1263,60
847,80	1306,60
847,97	1298,41
848,14	1202,16
848,31	1322,99
848,48	1290,22
848,65	1370,09
848,82	1232,88
848,98	1296,36
849,15	1218,54
849,32	1191,92
849,49	1230,83
849,66	1228,78
849,83	1265,64
850,00	1263,60
850,17	1220,59
850,34	1284,08
850,51	1292,27
850,68	1222,64
850,85	1228,78
851,01	1277,93
851,18	1212,40
851,35	1294,32
851,52	1224,69
851,69	1193,97
851,86	1214,45
852,03	1300,46
852,20	1224,69
852,37	1288,17
852,53	1263,60
852,70	1271,79
852,87	1181,68
853,04	1286,12
853,21	1208,30
853,38	1282,03
853,55	1216,49
853,72	1327,08
853,89	1243,12
854,05	1329,13
854,22	1153,01
854,39	1267,69
854,56	1251,31
854,73	1234,93
854,90	1220,59
855,07	1249,26
855,23	1251,31
855,40	1269,74
855,57	1239,02
855,74	1318,89
855,91	1273,84
856,08	1275,88
856,25	1271,79
856,41	1228,78
856,58	1230,83
856,75	1306,60
856,92	1239,02
857,09	1234,93
857,26	1275,88
857,42	1282,03
857,59	1243,12
857,76	1294,32
857,93	1349,61
858,10	1253,36
858,27	1290,22
858,43	1277,93
858,60	1306,60
858,77	1216,49
858,94	1236,97
859,11	1269,74
859,27	1329,13
859,44	1257,45
859,61	1214,45
859,78	1275,88
859,95	1204,21
860,12	1286,12
860,28	1279,98
860,45	1243,12
860,62	1222,64
860,79	1249,26
860,95	1234,93
861,12	1273,84
861,29	1286,12
861,46	1257,45
861,63	1216,49
861,79	1277,93
861,96	1243,12
862,13	1255,40
862,30	1224,69
862,47	1310,70
862,63	1290,22
862,80	1271,79
862,97	1253,36
863,14	1255,40
863,30	1212,40
863,47	1222,64
863,64	1230,83
863,81	1271,79
863,97	1267,69
864,14	1239,02
864,31	1257,45
864,48	1302,51
864,65	1277,93
864,81	1286,12
864,98	1308,65
865,15	1277,93
865,32	1263,60
865,48	1224,69
865,65	1329,13
865,82	1269,74
865,98	1214,45
866,15	1265,64
866,32	1261,55
866,49	1275,88
866,65	1232,88
866,82	1316,84
866,99	1243,12
867,16	1239,02
867,32	1265,64
867,49	1279,98
867,66	1279,98
867,83	1265,64
867,99	1208,30
868,16	1239,02
868,33	1347,56
868,49	1279,98
868,66	1277,93
868,83	1247,21
868,99	1198,06
869,16	1347,56
869,33	1288,17
869,50	1265,64
869,66	1269,74
869,83	1251,31
870,00	1347,56
870,16	1306,60
870,33	1294,32
870,50	1239,02
870,66	1300,46
870,83	1277,93
871,00	1282,03
871,17	1279,98
871,33	1236,97
871,50	1279,98
871,67	1282,03
871,83	1267,69
872,00	1245,16
872,17	1277,93
872,33	1314,80
872,50	1253,36
872,67	1306,60
872,83	1257,45
873,00	1292,27
873,17	1310,70
873,33	1253,36
873,50	1236,97
873,67	1284,08
873,83	1234,93
874,00	1241,07
874,16	1288,17
874,33	1198,06
874,50	1245,16
874,66	1255,40
874,83	1271,79
875,00	1208,30
875,16	1310,70
875,33	1216,49
875,50	1218,54
875,66	1286,12
875,83	1259,50
875,99	1296,36
876,16	1245,16
876,33	1306,60
876,49	1200,11
876,66	1292,27
876,83	1320,94
876,99	1218,54
877,16	1265,64
877,32	1279,98
877,49	1232,88
877,66	1185,77
877,82	1355,76
877,99	1279,98
878,15	1181,68
878,32	1286,12
878,49	1265,64
878,65	1306,60
878,82	1243,12
878,98	1302,51
879,15	1241,07
879,32	1261,55
879,48	1325,04
879,65	1290,22
879,81	1265,64
879,98	1296,36
880,15	1230,83
880,31	1261,55
880,48	1224,69
880,64	1273,84
880,81	1214,45
880,97	1349,61
881,14	1230,83
881,31	1290,22
881,47	1314,80
881,64	1282,03
881,80	1312,75
881,97	1269,74
882,13	1241,07
882,30	1247,21
882,47	1290,22
882,63	1224,69
882,80	1261,55
882,96	1200,11
883,13	1310,70
883,29	1243,12
883,46	1249,26
883,62	1257,45
883,79	1247,21
883,95	1228,78
884,12	1265,64
884,29	1245,16
884,45	1261,55
884,62	1255,40
884,78	1208,30
884,95	1284,08
885,11	1249,26
885,28	1288,17
885,44	1279,98
885,61	1183,73
885,77	1230,83
885,94	1198,06
886,10	1265,64
886,27	1322,99
886,43	1306,60
886,60	1294,32
886,76	1271,79
886,93	1284,08
887,09	1251,31
887,26	1236,97
887,42	1320,94
887,59	1294,32
887,75	1306,60
887,92	1327,08
888,08	1288,17
888,25	1277,93
888,41	1263,60
888,58	1261,55
888,74	1296,36
888,91	1277,93
>>>>>End Processed Spectral Data<<<<<
