SpectraSuite Data File
++++++++++++++++++++++++++++++++++++
Date: Sun Apr 03 16:28:34 CEST 2016
User: root
Dark Spectrum Present: No
Reference Spectrum Present: No
Number of Sampled Component Spectra: 1
Spectrometers: USB4C02835
Integration Time (usec): 10000 (USB4C02835)
Spectra Averaged: 1 (USB4C02835)
Boxcar Smoothing: 0 (USB4C02835)
Correct for Electrical Dark: No (USB4C02835)
Strobe/Lamp Enabled: No (USB4C02835)
Correct for Detector Non-linearity: No (USB4C02835)
Correct for Stray Light: No (USB4C02835)
Number of Pixels in Processed Spectrum: 3648
>>>>>Begin Processed Spectral Data<<<<<
177,47	1298,41
177,69	1298,41
177,91	1298,41
178,13	1263,60
178,36	1239,02
178,58	1275,88
178,80	1269,74
179,02	1265,64
179,24	1265,64
179,46	1251,31
179,68	1226,73
179,90	1224,69
180,13	1288,17
180,35	1312,75
180,57	1284,08
180,79	1187,82
181,01	1300,46
181,23	1302,51
181,45	1345,52
181,67	1263,60
181,90	1230,83
182,12	1253,36
182,34	1275,88
182,56	1288,17
182,78	1277,93
183,00	1296,36
183,22	1261,55
183,44	1259,50
183,66	1273,84
183,89	1298,41
184,11	1257,45
184,33	1288,17
184,55	1243,12
184,77	1181,68
184,99	1232,88
185,21	1224,69
185,43	1339,37
185,65	1279,98
185,87	1196,01
186,10	1269,74
186,32	1288,17
186,54	1247,21
186,76	1265,64
186,98	1232,88
187,20	1273,84
187,42	1224,69
187,64	1243,12
187,86	1193,97
188,08	1298,41
188,30	1312,75
188,52	1306,60
188,75	1294,32
188,97	1286,12
189,19	1282,03
189,41	1234,93
189,63	1243,12
189,85	1286,12
190,07	1257,45
190,29	1255,40
190,51	1230,83
190,73	1318,89
190,95	1314,80
191,17	1298,41
191,39	1224,69
191,61	1224,69
191,84	1210,35
192,06	1236,97
192,28	1224,69
192,50	1277,93
192,72	1288,17
192,94	1241,07
193,16	1333,23
193,38	1251,31
193,60	1322,99
193,82	1273,84
194,04	1329,13
194,26	1247,21
194,48	1306,60
194,70	1245,16
194,92	1296,36
195,14	1236,97
195,36	1345,52
195,58	1269,74
195,80	1308,65
196,02	1279,98
196,24	1284,08
196,46	1279,98
196,69	1282,03
196,91	1259,50
197,13	1196,01
197,35	1310,70
197,57	1222,64
197,79	1265,64
198,01	1214,45
198,23	1347,56
198,45	1308,65
198,67	1304,56
198,89	1228,78
199,11	1273,84
199,33	1249,26
199,55	1232,88
199,77	1269,74
199,99	1290,22
200,21	1222,64
200,43	1257,45
200,65	1269,74
200,87	1322,99
201,09	1222,64
201,31	1308,65
201,53	1341,42
201,75	1306,60
201,97	1306,60
202,19	1288,17
202,41	1261,55
202,63	1286,12
202,85	1241,07
203,07	1271,79
203,29	1259,50
203,51	1167,34
203,73	1292,27
203,95	1247,21
204,17	1251,31
204,39	1245,16
204,61	1296,36
204,83	1261,55
205,05	1284,08
205,27	1378,28
205,49	1288,17
205,71	1312,75
205,93	1247,21
206,15	1290,22
206,37	1284,08
206,59	1286,12
206,81	1220,59
207,03	1243,12
207,25	1259,50
207,47	1284,08
207,69	1265,64
207,91	1265,64
208,13	1282,03
208,34	1275,88
208,56	1275,88
208,78	1273,84
209,00	1181,68
209,22	1257,45
209,44	1284,08
209,66	1320,94
209,88	1302,51
210,10	1236,97
210,32	1279,98
210,54	1208,30
210,76	1204,21
210,98	1279,98
211,20	1288,17
211,42	1273,84
211,64	1284,08
211,86	1239,02
212,08	1267,69
212,30	1232,88
212,52	1267,69
212,74	1261,55
212,96	1269,74
213,17	1253,36
213,39	1243,12
213,61	1232,88
213,83	1300,46
214,05	1202,16
214,27	1296,36
214,49	1243,12
214,71	1284,08
214,93	1279,98
215,15	1236,97
215,37	1282,03
215,59	1234,93
215,81	1226,73
216,03	1271,79
216,24	1267,69
216,46	1228,78
216,68	1345,52
216,90	1290,22
217,12	1271,79
217,34	1265,64
217,56	1255,40
217,78	1284,08
218,00	1273,84
218,22	1255,40
218,44	1253,36
218,66	1341,42
218,87	1320,94
219,09	1249,26
219,31	1353,71
219,53	1187,82
219,75	1298,41
219,97	1325,04
220,19	1304,56
220,41	1265,64
220,63	1230,83
220,85	1247,21
221,06	1282,03
221,28	1236,97
221,50	1296,36
221,72	1243,12
221,94	1314,80
222,16	1269,74
222,38	1286,12
222,60	1288,17
222,82	1306,60
223,03	1249,26
223,25	1279,98
223,47	1339,37
223,69	1226,73
223,91	1290,22
224,13	1257,45
224,35	1220,59
224,57	1329,13
224,78	1271,79
225,00	1298,41
225,22	1304,56
225,44	1226,73
225,66	1331,18
225,88	1273,84
226,10	1263,60
226,32	1351,66
226,53	1263,60
226,75	1343,47
226,97	1261,55
227,19	1265,64
227,41	1320,94
227,63	1204,21
227,85	1232,88
228,06	1361,90
228,28	1236,97
228,50	1251,31
228,72	1245,16
228,94	1224,69
229,16	1239,02
229,37	1187,82
229,59	1271,79
229,81	1282,03
230,03	1165,29
230,25	1306,60
230,47	1245,16
230,69	1363,95
230,90	1222,64
231,12	1255,40
231,34	1277,93
231,56	1286,12
231,78	1245,16
232,00	1312,75
232,21	1257,45
232,43	1282,03
232,65	1284,08
232,87	1353,71
233,09	1277,93
233,30	1208,30
233,52	1218,54
233,74	1232,88
233,96	1273,84
234,18	1245,16
234,40	1241,07
234,61	1316,84
234,83	1200,11
235,05	1296,36
235,27	1265,64
235,49	1230,83
235,70	1329,13
235,92	1265,64
236,14	1310,70
236,36	1261,55
236,58	1273,84
236,79	1322,99
237,01	1284,08
237,23	1294,32
237,45	1275,88
237,67	1267,69
237,88	1318,89
238,10	1288,17
238,32	1253,36
238,54	1249,26
238,76	1259,50
238,97	1290,22
239,19	1318,89
239,41	1269,74
239,63	1257,45
239,85	1298,41
240,06	1359,85
240,28	1310,70
240,50	1263,60
240,72	1202,16
240,93	1255,40
241,15	1255,40
241,37	1294,32
241,59	1310,70
241,81	1298,41
242,02	1279,98
242,24	1243,12
242,46	1300,46
242,68	1298,41
242,89	1273,84
243,11	1247,21
243,33	1257,45
243,55	1292,27
243,76	1273,84
243,98	1322,99
244,20	1292,27
244,42	1257,45
244,64	1325,04
244,85	1312,75
245,07	1253,36
245,29	1277,93
245,51	1271,79
245,72	1275,88
245,94	1261,55
246,16	1279,98
246,38	1179,63
246,59	1224,69
246,81	1273,84
247,03	1253,36
247,24	1226,73
247,46	1302,51
247,68	1322,99
247,90	1257,45
248,11	1255,40
248,33	1239,02
248,55	1261,55
248,77	1279,98
248,98	1247,21
249,20	1267,69
249,42	1288,17
249,64	1206,25
249,85	1216,49
250,07	1202,16
250,29	1329,13
250,50	1306,60
250,72	1296,36
250,94	1329,13
251,16	1222,64
251,37	1202,16
251,59	1243,12
251,81	1191,92
252,02	1269,74
252,24	1282,03
252,46	1187,82
252,68	1245,16
252,89	1284,08
253,11	1368,04
253,33	1290,22
253,54	1314,80
253,76	1290,22
253,98	1282,03
254,20	1245,16
254,41	1333,23
254,63	1296,36
254,85	1366,00
255,06	1329,13
255,28	1196,01
255,50	1267,69
255,71	1282,03
255,93	1327,08
256,15	1320,94
256,36	1296,36
256,58	1243,12
256,80	1222,64
257,02	1234,93
257,23	1320,94
257,45	1146,86
257,67	1282,03
257,88	1249,26
258,10	1226,73
258,32	1327,08
258,53	1243,12
258,75	1255,40
258,97	1208,30
259,18	1277,93
259,40	1267,69
259,62	1290,22
259,83	1265,64
260,05	1302,51
260,27	1290,22
260,48	1286,12
260,70	1312,75
260,92	1216,49
261,13	1236,97
261,35	1191,92
261,57	1247,21
261,78	1257,45
262,00	1294,32
262,22	1226,73
262,43	1282,03
262,65	1216,49
262,86	1279,98
263,08	1277,93
263,30	1249,26
263,51	1251,31
263,73	1273,84
263,95	1253,36
264,16	1263,60
264,38	1267,69
264,60	1290,22
264,81	1204,21
265,03	1249,26
265,25	1294,32
265,46	1322,99
265,68	1296,36
265,89	1282,03
266,11	1298,41
266,33	1255,40
266,54	1282,03
266,76	1292,27
266,98	1279,98
267,19	1226,73
267,41	1259,50
267,62	1228,78
267,84	1245,16
268,06	1255,40
268,27	1275,88
268,49	1257,45
268,70	1275,88
268,92	1259,50
269,14	1284,08
269,35	1312,75
269,57	1208,30
269,79	1282,03
270,00	1294,32
270,22	1298,41
270,43	1286,12
270,65	1261,55
270,87	1308,65
271,08	1241,07
271,30	1257,45
271,51	1306,60
271,73	1226,73
271,95	1273,84
272,16	1261,55
272,38	1288,17
272,59	1232,88
272,81	1261,55
273,02	1306,60
273,24	1232,88
273,46	1216,49
273,67	1335,28
273,89	1290,22
274,10	1273,84
274,32	1183,73
274,54	1259,50
274,75	1253,36
274,97	1353,71
275,18	1206,25
275,40	1271,79
275,61	1249,26
275,83	1206,25
276,05	1241,07
276,26	1290,22
276,48	1202,16
276,69	1275,88
276,91	1296,36
277,12	1337,32
277,34	1263,60
277,55	1308,65
277,77	1241,07
277,99	1290,22
278,20	1234,93
278,42	1288,17
278,63	1277,93
278,85	1232,88
279,06	1286,12
279,28	1349,61
279,49	1273,84
279,71	1300,46
279,93	1230,83
280,14	1247,21
280,36	1239,02
280,57	1298,41
280,79	1290,22
281,00	1265,64
281,22	1247,21
281,43	1218,54
281,65	1263,60
281,86	1273,84
282,08	1335,28
282,29	1239,02
282,51	1239,02
282,73	1277,93
282,94	1193,97
283,16	1239,02
283,37	1277,93
283,59	1251,31
283,80	1279,98
284,02	1247,21
284,23	1200,11
284,45	1290,22
284,66	1196,01
284,88	1304,56
285,09	1198,06
285,31	1269,74
285,52	1220,59
285,74	1411,05
285,95	1308,65
286,17	1306,60
286,38	1249,26
286,60	1226,73
286,81	1261,55
287,03	1282,03
287,24	1275,88
287,46	1265,64
287,67	1363,95
287,89	1318,89
288,10	1216,49
288,32	1312,75
288,53	1290,22
288,75	1263,60
288,96	1249,26
289,18	1206,25
289,39	1243,12
289,61	1239,02
289,82	1308,65
290,04	1216,49
290,25	1259,50
290,47	1284,08
290,68	1265,64
290,90	1196,01
291,11	1249,26
291,33	1269,74
291,54	1249,26
291,76	1228,78
291,97	1271,79
292,18	1239,02
292,40	1267,69
292,61	1329,13
292,83	1279,98
293,04	1396,71
293,26	1269,74
293,47	1314,80
293,69	1331,18
293,90	1253,36
294,12	1302,51
294,33	1288,17
294,55	1236,97
294,76	1216,49
294,97	1284,08
295,19	1382,38
295,40	1282,03
295,62	1269,74
295,83	1269,74
296,05	1314,80
296,26	1294,32
296,48	1267,69
296,69	1298,41
296,90	1220,59
297,12	1296,36
297,33	1298,41
297,55	1245,16
297,76	1314,80
297,98	1308,65
298,19	1265,64
298,41	1284,08
298,62	1329,13
298,83	1357,80
299,05	1224,69
299,26	1253,36
299,48	1388,52
299,69	1232,88
299,90	1349,61
300,12	1255,40
300,33	1282,03
300,55	1282,03
300,76	1353,71
300,98	1320,94
301,19	1314,80
301,40	1308,65
301,62	1251,31
301,83	1341,42
302,05	1277,93
302,26	1265,64
302,47	1228,78
302,69	1259,50
302,90	1286,12
303,12	1267,69
303,33	1282,03
303,54	1249,26
303,76	1290,22
303,97	1255,40
304,19	1310,70
304,40	1261,55
304,61	1265,64
304,83	1361,90
305,04	1282,03
305,26	1312,75
305,47	1302,51
305,68	1300,46
305,90	1259,50
306,11	1226,73
306,33	1257,45
306,54	1261,55
306,75	1245,16
306,97	1275,88
307,18	1312,75
307,39	1226,73
307,61	1349,61
307,82	1212,40
308,04	1243,12
308,25	1249,26
308,46	1290,22
308,68	1286,12
308,89	1273,84
309,10	1222,64
309,32	1255,40
309,53	1308,65
309,74	1329,13
309,96	1169,39
310,17	1308,65
310,39	1259,50
310,60	1355,76
310,81	1265,64
311,03	1247,21
311,24	1286,12
311,45	1320,94
311,67	1257,45
311,88	1200,11
312,09	1282,03
312,31	1257,45
312,52	1234,93
312,73	1304,56
312,95	1150,96
313,16	1286,12
313,37	1224,69
313,59	1271,79
313,80	1253,36
314,01	1261,55
314,23	1294,32
314,44	1357,80
314,65	1294,32
314,87	1273,84
315,08	1232,88
315,29	1343,47
315,51	1247,21
315,72	1267,69
315,93	1271,79
316,15	1257,45
316,36	1282,03
316,57	1236,97
316,79	1320,94
317,00	1273,84
317,21	1284,08
317,43	1277,93
317,64	1335,28
317,85	1316,84
318,07	1226,73
318,28	1232,88
318,49	1312,75
318,70	1300,46
318,92	1290,22
319,13	1298,41
319,34	1304,56
319,56	1271,79
319,77	1241,07
319,98	1251,31
320,20	1189,87
320,41	1306,60
320,62	1212,40
320,83	1243,12
321,05	1257,45
321,26	1247,21
321,47	1191,92
321,69	1331,18
321,90	1294,32
322,11	1327,08
322,32	1282,03
322,54	1304,56
322,75	1245,16
322,96	1226,73
323,18	1265,64
323,39	1236,97
323,60	1312,75
323,81	1273,84
324,03	1257,45
324,24	1249,26
324,45	1300,46
324,66	1228,78
324,88	1255,40
325,09	1259,50
325,30	1230,83
325,52	1271,79
325,73	1257,45
325,94	1312,75
326,15	1241,07
326,37	1267,69
326,58	1269,74
326,79	1318,89
327,00	1249,26
327,22	1300,46
327,43	1261,55
327,64	1275,88
327,85	1306,60
328,07	1284,08
328,28	1302,51
328,49	1226,73
328,70	1298,41
328,92	1292,27
329,13	1284,08
329,34	1286,12
329,55	1243,12
329,76	1279,98
329,98	1267,69
330,19	1306,60
330,40	1255,40
330,61	1296,36
330,83	1300,46
331,04	1216,49
331,25	1304,56
331,46	1241,07
331,68	1255,40
331,89	1296,36
332,10	1224,69
332,31	1300,46
332,52	1210,35
332,74	1263,60
332,95	1218,54
333,16	1161,20
333,37	1322,99
333,58	1259,50
333,80	1253,36
334,01	1273,84
334,22	1200,11
334,43	1282,03
334,64	1277,93
334,86	1282,03
335,07	1302,51
335,28	1255,40
335,49	1277,93
335,70	1282,03
335,92	1230,83
336,13	1300,46
336,34	1370,09
336,55	1257,45
336,76	1294,32
336,98	1253,36
337,19	1255,40
337,40	1325,04
337,61	1271,79
337,82	1265,64
338,04	1273,84
338,25	1290,22
338,46	1273,84
338,67	1226,73
338,88	1277,93
339,09	1253,36
339,31	1351,66
339,52	1228,78
339,73	1253,36
339,94	1318,89
340,15	1212,40
340,36	1218,54
340,58	1370,09
340,79	1200,11
341,00	1320,94
341,21	1269,74
341,42	1300,46
341,63	1234,93
341,85	1267,69
342,06	1234,93
342,27	1263,60
342,48	1198,06
342,69	1189,87
342,90	1226,73
343,12	1269,74
343,33	1288,17
343,54	1275,88
343,75	1284,08
343,96	1320,94
344,17	1355,76
344,38	1296,36
344,60	1345,52
344,81	1249,26
345,02	1286,12
345,23	1349,61
345,44	1265,64
345,65	1300,46
345,86	1273,84
346,07	1220,59
346,29	1261,55
346,50	1263,60
346,71	1279,98
346,92	1300,46
347,13	1257,45
347,34	1222,64
347,55	1312,75
347,76	1277,93
347,98	1269,74
348,19	1312,75
348,40	1300,46
348,61	1218,54
348,82	1298,41
349,03	1304,56
349,24	1273,84
349,45	1314,80
349,66	1255,40
349,88	1206,25
350,09	1300,46
350,30	1312,75
350,51	1335,28
350,72	1320,94
350,93	1265,64
351,14	1273,84
351,35	1247,21
351,56	1230,83
351,77	1247,21
351,99	1251,31
352,20	1222,64
352,41	1212,40
352,62	1327,08
352,83	1300,46
353,04	1351,66
353,25	1306,60
353,46	1275,88
353,67	1282,03
353,88	1292,27
354,09	1247,21
354,30	1261,55
354,52	1206,25
354,73	1214,45
354,94	1290,22
355,15	1236,97
355,36	1312,75
355,57	1288,17
355,78	1286,12
355,99	1253,36
356,20	1236,97
356,41	1265,64
356,62	1298,41
356,83	1220,59
357,04	1282,03
357,25	1275,88
357,46	1253,36
357,68	1263,60
357,89	1277,93
358,10	1253,36
358,31	1275,88
358,52	1216,49
358,73	1196,01
358,94	1294,32
359,15	1322,99
359,36	1277,93
359,57	1257,45
359,78	1298,41
359,99	1292,27
360,20	1308,65
360,41	1243,12
360,62	1251,31
360,83	1271,79
361,04	1265,64
361,25	1257,45
361,46	1253,36
361,67	1318,89
361,88	1224,69
362,09	1253,36
362,30	1265,64
362,51	1265,64
362,72	1265,64
362,93	1271,79
363,14	1292,27
363,35	1322,99
363,56	1263,60
363,78	1269,74
363,99	1261,55
364,20	1361,90
364,41	1294,32
364,62	1337,32
364,83	1316,84
365,04	1226,73
365,25	1294,32
365,46	1310,70
365,67	1357,80
365,88	1290,22
366,09	1277,93
366,30	1218,54
366,51	1327,08
366,72	1282,03
366,93	1245,16
367,14	1241,07
367,35	1284,08
367,56	1322,99
367,77	1265,64
367,98	1230,83
368,18	1245,16
368,39	1335,28
368,60	1243,12
368,81	1255,40
369,02	1230,83
369,23	1214,45
369,44	1230,83
369,65	1263,60
369,86	1249,26
370,07	1288,17
370,28	1312,75
370,49	1236,97
370,70	1177,58
370,91	1257,45
371,12	1245,16
371,33	1294,32
371,54	1269,74
371,75	1259,50
371,96	1200,11
372,17	1347,56
372,38	1263,60
372,59	1271,79
372,80	1279,98
373,01	1253,36
373,22	1296,36
373,43	1222,64
373,64	1208,30
373,85	1296,36
374,06	1308,65
374,26	1275,88
374,47	1251,31
374,68	1275,88
374,89	1312,75
375,10	1220,59
375,31	1359,85
375,52	1288,17
375,73	1206,25
375,94	1271,79
376,15	1290,22
376,36	1216,49
376,57	1267,69
376,78	1226,73
376,99	1282,03
377,20	1196,01
377,40	1259,50
377,61	1302,51
377,82	1249,26
378,03	1290,22
378,24	1271,79
378,45	1216,49
378,66	1277,93
378,87	1353,71
379,08	1249,26
379,29	1243,12
379,50	1239,02
379,71	1200,11
379,91	1173,49
380,12	1279,98
380,33	1230,83
380,54	1277,93
380,75	1275,88
380,96	1288,17
381,17	1304,56
381,38	1306,60
381,59	1282,03
381,80	1322,99
382,00	1300,46
382,21	1296,36
382,42	1245,16
382,63	1296,36
382,84	1263,60
383,05	1333,23
383,26	1267,69
383,47	1279,98
383,68	1239,02
383,88	1198,06
384,09	1298,41
384,30	1296,36
384,51	1327,08
384,72	1279,98
384,93	1277,93
385,14	1267,69
385,35	1249,26
385,55	1224,69
385,76	1263,60
385,97	1245,16
386,18	1327,08
386,39	1263,60
386,60	1282,03
386,81	1255,40
387,02	1259,50
387,22	1210,35
387,43	1253,36
387,64	1247,21
387,85	1374,19
388,06	1279,98
388,27	1322,99
388,48	1220,59
388,68	1349,61
388,89	1259,50
389,10	1263,60
389,31	1261,55
389,52	1232,88
389,73	1298,41
389,93	1245,16
390,14	1253,36
390,35	1320,94
390,56	1247,21
390,77	1271,79
390,98	1322,99
391,18	1310,70
391,39	1298,41
391,60	1292,27
391,81	1249,26
392,02	1325,04
392,23	1212,40
392,43	1288,17
392,64	1302,51
392,85	1259,50
393,06	1259,50
393,27	1327,08
393,47	1204,21
393,68	1298,41
393,89	1292,27
394,10	1247,21
394,31	1255,40
394,52	1259,50
394,72	1290,22
394,93	1339,37
395,14	1257,45
395,35	1243,12
395,56	1234,93
395,76	1292,27
395,97	1247,21
396,18	1265,64
396,39	1392,62
396,60	1275,88
396,80	1290,22
397,01	1275,88
397,22	1259,50
397,43	1296,36
397,64	1251,31
397,84	1277,93
398,05	1198,06
398,26	1257,45
398,47	1296,36
398,67	1204,21
398,88	1251,31
399,09	1257,45
399,30	1261,55
399,51	1284,08
399,71	1275,88
399,92	1253,36
400,13	1257,45
400,34	1310,70
400,54	1267,69
400,75	1255,40
400,96	1302,51
401,17	1236,97
401,37	1363,95
401,58	1294,32
401,79	1247,21
402,00	1257,45
402,21	1261,55
402,41	1277,93
402,62	1241,07
402,83	1273,84
403,04	1251,31
403,24	1304,56
403,45	1243,12
403,66	1316,84
403,87	1234,93
404,07	1263,60
404,28	1302,51
404,49	1329,13
404,70	1275,88
404,90	1320,94
405,11	1331,18
405,32	1232,88
405,52	1318,89
405,73	1314,80
405,94	1247,21
406,15	1322,99
406,35	1232,88
406,56	1232,88
406,77	1255,40
406,98	1325,04
407,18	1232,88
407,39	1370,09
407,60	1271,79
407,80	1271,79
408,01	1191,92
408,22	1239,02
408,43	1320,94
408,63	1279,98
408,84	1253,36
409,05	1253,36
409,25	1265,64
409,46	1226,73
409,67	1271,79
409,88	1228,78
410,08	1288,17
410,29	1279,98
410,50	1239,02
410,70	1241,07
410,91	1230,83
411,12	1230,83
411,32	1228,78
411,53	1265,64
411,74	1341,42
411,95	1343,47
412,15	1230,83
412,36	1296,36
412,57	1294,32
412,77	1322,99
412,98	1333,23
413,19	1234,93
413,39	1357,80
413,60	1318,89
413,81	1267,69
414,01	1265,64
414,22	1261,55
414,43	1282,03
414,63	1298,41
414,84	1294,32
415,05	1241,07
415,25	1294,32
415,46	1275,88
415,67	1261,55
415,87	1255,40
416,08	1288,17
416,29	1273,84
416,49	1353,71
416,70	1275,88
416,91	1257,45
417,11	1224,69
417,32	1167,34
417,53	1322,99
417,73	1329,13
417,94	1282,03
418,15	1200,11
418,35	1241,07
418,56	1243,12
418,77	1320,94
418,97	1249,26
419,18	1241,07
419,38	1279,98
419,59	1251,31
419,80	1273,84
420,00	1337,32
420,21	1234,93
420,42	1251,31
420,62	1275,88
420,83	1232,88
421,04	1232,88
421,24	1318,89
421,45	1247,21
421,65	1253,36
421,86	1306,60
422,07	1259,50
422,27	1337,32
422,48	1251,31
422,69	1275,88
422,89	1312,75
423,10	1241,07
423,30	1208,30
423,51	1273,84
423,72	1290,22
423,92	1265,64
424,13	1214,45
424,33	1308,65
424,54	1259,50
424,75	1222,64
424,95	1261,55
425,16	1247,21
425,36	1210,35
425,57	1292,27
425,78	1284,08
425,98	1314,80
426,19	1316,84
426,39	1279,98
426,60	1200,11
426,81	1372,14
427,01	1261,55
427,22	1306,60
427,42	1347,56
427,63	1261,55
427,83	1310,70
428,04	1249,26
428,25	1304,56
428,45	1275,88
428,66	1257,45
428,86	1329,13
429,07	1282,03
429,28	1370,09
429,48	1292,27
429,69	1312,75
429,89	1224,69
430,10	1255,40
430,30	1267,69
430,51	1314,80
430,71	1343,47
430,92	1308,65
431,13	1222,64
431,33	1343,47
431,54	1294,32
431,74	1292,27
431,95	1302,51
432,15	1202,16
432,36	1304,56
432,56	1292,27
432,77	1296,36
432,98	1269,74
433,18	1327,08
433,39	1273,84
433,59	1296,36
433,80	1257,45
434,00	1333,23
434,21	1267,69
434,41	1263,60
434,62	1255,40
434,82	1273,84
435,03	1189,87
435,23	1265,64
435,44	1298,41
435,64	1224,69
435,85	1251,31
436,06	1261,55
436,26	1292,27
436,47	1308,65
436,67	1279,98
436,88	1255,40
437,08	1271,79
437,29	1234,93
437,49	1253,36
437,70	1271,79
437,90	1212,40
438,11	1220,59
438,31	1253,36
438,52	1245,16
438,72	1314,80
438,93	1261,55
439,13	1257,45
439,34	1316,84
439,54	1320,94
439,75	1265,64
439,95	1304,56
440,16	1232,88
440,36	1269,74
440,57	1300,46
440,77	1327,08
440,98	1320,94
441,18	1226,73
441,39	1286,12
441,59	1261,55
441,80	1202,16
442,00	1327,08
442,21	1282,03
442,41	1269,74
442,62	1300,46
442,82	1290,22
443,02	1239,02
443,23	1318,89
443,43	1277,93
443,64	1288,17
443,84	1253,36
444,05	1257,45
444,25	1232,88
444,46	1333,23
444,66	1300,46
444,87	1279,98
445,07	1224,69
445,28	1249,26
445,48	1255,40
445,69	1320,94
445,89	1316,84
446,09	1290,22
446,30	1255,40
446,50	1279,98
446,71	1232,88
446,91	1239,02
447,12	1308,65
447,32	1220,59
447,53	1251,31
447,73	1263,60
447,93	1241,07
448,14	1279,98
448,34	1257,45
448,55	1263,60
448,75	1273,84
448,96	1314,80
449,16	1296,36
449,36	1318,89
449,57	1212,40
449,77	1298,41
449,98	1216,49
450,18	1284,08
450,39	1253,36
450,59	1275,88
450,79	1327,08
451,00	1214,45
451,20	1232,88
451,41	1292,27
451,61	1216,49
451,81	1312,75
452,02	1206,25
452,22	1296,36
452,43	1277,93
452,63	1265,64
452,84	1220,59
453,04	1255,40
453,24	1284,08
453,45	1320,94
453,65	1294,32
453,86	1300,46
454,06	1265,64
454,26	1259,50
454,47	1212,40
454,67	1294,32
454,87	1245,16
455,08	1255,40
455,28	1277,93
455,49	1253,36
455,69	1296,36
455,89	1298,41
456,10	1316,84
456,30	1249,26
456,51	1343,47
456,71	1257,45
456,91	1335,28
457,12	1273,84
457,32	1239,02
457,52	1271,79
457,73	1247,21
457,93	1249,26
458,14	1226,73
458,34	1304,56
458,54	1355,76
458,75	1298,41
458,95	1282,03
459,15	1214,45
459,36	1286,12
459,56	1353,71
459,76	1251,31
459,97	1277,93
460,17	1263,60
460,37	1275,88
460,58	1228,78
460,78	1316,84
460,99	1368,04
461,19	1212,40
461,39	1187,82
461,60	1304,56
461,80	1296,36
462,00	1212,40
462,21	1286,12
462,41	1222,64
462,61	1234,93
462,82	1265,64
463,02	1202,16
463,22	1142,77
463,43	1210,35
463,63	1263,60
463,83	1263,60
464,04	1349,61
464,24	1226,73
464,44	1249,26
464,64	1261,55
464,85	1243,12
465,05	1179,63
465,25	1181,68
465,46	1191,92
465,66	1253,36
465,86	1275,88
466,07	1259,50
466,27	1183,73
466,47	1255,40
466,68	1296,36
466,88	1318,89
467,08	1273,84
467,29	1179,63
467,49	1257,45
467,69	1282,03
467,89	1294,32
468,10	1275,88
468,30	1259,50
468,50	1261,55
468,71	1333,23
468,91	1296,36
469,11	1222,64
469,31	1243,12
469,52	1294,32
469,72	1296,36
469,92	1345,52
470,13	1257,45
470,33	1245,16
470,53	1265,64
470,73	1226,73
470,94	1249,26
471,14	1269,74
471,34	1275,88
471,54	1345,52
471,75	1314,80
471,95	1265,64
472,15	1265,64
472,36	1251,31
472,56	1239,02
472,76	1224,69
472,96	1302,51
473,17	1333,23
473,37	1290,22
473,57	1220,59
473,77	1284,08
473,98	1294,32
474,18	1249,26
474,38	1339,37
474,58	1292,27
474,79	1196,01
474,99	1286,12
475,19	1294,32
475,39	1288,17
475,60	1302,51
475,80	1339,37
476,00	1210,35
476,20	1228,78
476,41	1224,69
476,61	1279,98
476,81	1259,50
477,01	1277,93
477,21	1234,93
477,42	1304,56
477,62	1284,08
477,82	1300,46
478,02	1359,85
478,23	1253,36
478,43	1236,97
478,63	1273,84
478,83	1277,93
479,03	1277,93
479,24	1284,08
479,44	1241,07
479,64	1232,88
479,84	1282,03
480,04	1214,45
480,25	1255,40
480,45	1253,36
480,65	1345,52
480,85	1251,31
481,06	1304,56
481,26	1255,40
481,46	1239,02
481,66	1187,82
481,86	1214,45
482,06	1320,94
482,27	1290,22
482,47	1222,64
482,67	1245,16
482,87	1292,27
483,07	1314,80
483,28	1296,36
483,48	1259,50
483,68	1257,45
483,88	1277,93
484,08	1335,28
484,29	1300,46
484,49	1300,46
484,69	1226,73
484,89	1296,36
485,09	1284,08
485,29	1286,12
485,50	1300,46
485,70	1220,59
485,90	1286,12
486,10	1263,60
486,30	1288,17
486,50	1275,88
486,71	1286,12
486,91	1302,51
487,11	1296,36
487,31	1200,11
487,51	1273,84
487,71	1300,46
487,91	1234,93
488,12	1282,03
488,32	1282,03
488,52	1261,55
488,72	1353,71
488,92	1288,17
489,12	1222,64
489,32	1245,16
489,53	1226,73
489,73	1302,51
489,93	1288,17
490,13	1257,45
490,33	1333,23
490,53	1198,06
490,73	1279,98
490,94	1290,22
491,14	1288,17
491,34	1308,65
491,54	1204,21
491,74	1249,26
491,94	1249,26
492,14	1206,25
492,34	1249,26
492,54	1275,88
492,75	1234,93
492,95	1302,51
493,15	1279,98
493,35	1245,16
493,55	1239,02
493,75	1302,51
493,95	1265,64
494,15	1253,36
494,35	1259,50
494,56	1255,40
494,76	1234,93
494,96	1302,51
495,16	1279,98
495,36	1255,40
495,56	1245,16
495,76	1314,80
495,96	1234,93
496,16	1179,63
496,36	1290,22
496,56	1284,08
496,77	1269,74
496,97	1236,97
497,17	1286,12
497,37	1222,64
497,57	1282,03
497,77	1269,74
497,97	1239,02
498,17	1298,41
498,37	1255,40
498,57	1286,12
498,77	1263,60
498,97	1325,04
499,17	1310,70
499,38	1290,22
499,58	1306,60
499,78	1257,45
499,98	1181,68
500,18	1298,41
500,38	1288,17
500,58	1304,56
500,78	1325,04
500,98	1329,13
501,18	1243,12
501,38	1218,54
501,58	1290,22
501,78	1269,74
501,98	1249,26
502,18	1247,21
502,38	1187,82
502,58	1263,60
502,78	1286,12
502,98	1288,17
503,18	1230,83
503,38	1282,03
503,59	1298,41
503,79	1341,42
503,99	1251,31
504,19	1257,45
504,39	1292,27
504,59	1230,83
504,79	1279,98
504,99	1298,41
505,19	1294,32
505,39	1239,02
505,59	1290,22
505,79	1282,03
505,99	1271,79
506,19	1314,80
506,39	1251,31
506,59	1302,51
506,79	1255,40
506,99	1269,74
507,19	1243,12
507,39	1245,16
507,59	1163,25
507,79	1212,40
507,99	1292,27
508,19	1245,16
508,39	1230,83
508,59	1300,46
508,79	1257,45
508,99	1243,12
509,19	1259,50
509,39	1339,37
509,59	1245,16
509,79	1247,21
509,99	1279,98
510,19	1220,59
510,39	1302,51
510,59	1212,40
510,79	1269,74
510,99	1279,98
511,19	1253,36
511,39	1333,23
511,59	1345,52
511,79	1290,22
511,99	1296,36
512,19	1279,98
512,38	1288,17
512,58	1216,49
512,78	1314,80
512,98	1228,78
513,18	1284,08
513,38	1273,84
513,58	1378,28
513,78	1288,17
513,98	1263,60
514,18	1300,46
514,38	1255,40
514,58	1255,40
514,78	1232,88
514,98	1288,17
515,18	1288,17
515,38	1271,79
515,58	1296,36
515,78	1298,41
515,98	1228,78
516,18	1316,84
516,38	1308,65
516,57	1267,69
516,77	1290,22
516,97	1245,16
517,17	1230,83
517,37	1298,41
517,57	1300,46
517,77	1366,00
517,97	1322,99
518,17	1269,74
518,37	1279,98
518,57	1265,64
518,77	1269,74
518,97	1290,22
519,16	1245,16
519,36	1265,64
519,56	1253,36
519,76	1257,45
519,96	1273,84
520,16	1290,22
520,36	1208,30
520,56	1306,60
520,76	1279,98
520,96	1300,46
521,16	1249,26
521,35	1214,45
521,55	1279,98
521,75	1275,88
521,95	1359,85
522,15	1312,75
522,35	1300,46
522,55	1277,93
522,75	1267,69
522,95	1335,28
523,14	1265,64
523,34	1251,31
523,54	1290,22
523,74	1222,64
523,94	1265,64
524,14	1290,22
524,34	1288,17
524,54	1255,40
524,73	1253,36
524,93	1314,80
525,13	1247,21
525,33	1265,64
525,53	1337,32
525,73	1322,99
525,93	1298,41
526,13	1230,83
526,32	1273,84
526,52	1251,31
526,72	1210,35
526,92	1228,78
527,12	1265,64
527,32	1243,12
527,52	1304,56
527,71	1206,25
527,91	1273,84
528,11	1234,93
528,31	1239,02
528,51	1261,55
528,71	1306,60
528,90	1245,16
529,10	1193,97
529,30	1284,08
529,50	1239,02
529,70	1273,84
529,90	1329,13
530,09	1179,63
530,29	1298,41
530,49	1210,35
530,69	1275,88
530,89	1212,40
531,09	1286,12
531,28	1302,51
531,48	1263,60
531,68	1181,68
531,88	1304,56
532,08	1298,41
532,28	1312,75
532,47	1292,27
532,67	1234,93
532,87	1314,80
533,07	1298,41
533,27	1255,40
533,46	1230,83
533,66	1191,92
533,86	1298,41
534,06	1294,32
534,26	1253,36
534,45	1204,21
534,65	1255,40
534,85	1296,36
535,05	1290,22
535,25	1271,79
535,44	1312,75
535,64	1275,88
535,84	1331,18
536,04	1312,75
536,24	1329,13
536,43	1282,03
536,63	1320,94
536,83	1230,83
537,03	1241,07
537,22	1277,93
537,42	1286,12
537,62	1224,69
537,82	1279,98
538,02	1249,26
538,21	1322,99
538,41	1257,45
538,61	1331,18
538,81	1257,45
539,00	1255,40
539,20	1257,45
539,40	1257,45
539,60	1277,93
539,79	1269,74
539,99	1277,93
540,19	1273,84
540,39	1320,94
540,58	1267,69
540,78	1308,65
540,98	1320,94
541,18	1253,36
541,37	1343,47
541,57	1216,49
541,77	1339,37
541,97	1234,93
542,16	1282,03
542,36	1232,88
542,56	1263,60
542,76	1220,59
542,95	1261,55
543,15	1236,97
543,35	1265,64
543,54	1329,13
543,74	1239,02
543,94	1241,07
544,14	1290,22
544,33	1263,60
544,53	1265,64
544,73	1210,35
544,93	1290,22
545,12	1329,13
545,32	1218,54
545,52	1288,17
545,71	1298,41
545,91	1290,22
546,11	1220,59
546,30	1277,93
546,50	1224,69
546,70	1322,99
546,90	1253,36
547,09	1230,83
547,29	1243,12
547,49	1267,69
547,68	1198,06
547,88	1286,12
548,08	1196,01
548,27	1271,79
548,47	1245,16
548,67	1290,22
548,87	1277,93
549,06	1216,49
549,26	1265,64
549,46	1196,01
549,65	1265,64
549,85	1257,45
550,05	1189,87
550,24	1261,55
550,44	1337,32
550,64	1347,56
550,83	1314,80
551,03	1247,21
551,23	1292,27
551,42	1316,84
551,62	1234,93
551,82	1273,84
552,01	1312,75
552,21	1261,55
552,41	1290,22
552,60	1304,56
552,80	1232,88
553,00	1189,87
553,19	1159,15
553,39	1200,11
553,59	1257,45
553,78	1265,64
553,98	1284,08
554,17	1228,78
554,37	1310,70
554,57	1308,65
554,76	1304,56
554,96	1331,18
555,16	1306,60
555,35	1243,12
555,55	1210,35
555,75	1257,45
555,94	1232,88
556,14	1298,41
556,33	1269,74
556,53	1277,93
556,73	1329,13
556,92	1298,41
557,12	1236,97
557,32	1273,84
557,51	1304,56
557,71	1263,60
557,90	1251,31
558,10	1245,16
558,30	1271,79
558,49	1329,13
558,69	1261,55
558,88	1249,26
559,08	1265,64
559,28	1169,39
559,47	1306,60
559,67	1300,46
559,86	1224,69
560,06	1210,35
560,26	1255,40
560,45	1228,78
560,65	1263,60
560,84	1351,66
561,04	1322,99
561,24	1206,25
561,43	1224,69
561,63	1243,12
561,82	1265,64
562,02	1241,07
562,22	1249,26
562,41	1243,12
562,61	1275,88
562,80	1259,50
563,00	1345,52
563,19	1187,82
563,39	1224,69
563,59	1302,51
563,78	1253,36
563,98	1257,45
564,17	1234,93
564,37	1243,12
564,56	1261,55
564,76	1273,84
564,96	1255,40
565,15	1294,32
565,35	1284,08
565,54	1288,17
565,74	1282,03
565,93	1316,84
566,13	1273,84
566,32	1265,64
566,52	1341,42
566,71	1208,30
566,91	1269,74
567,11	1236,97
567,30	1298,41
567,50	1193,97
567,69	1253,36
567,89	1249,26
568,08	1300,46
568,28	1259,50
568,47	1304,56
568,67	1239,02
568,86	1279,98
569,06	1189,87
569,25	1347,56
569,45	1298,41
569,64	1265,64
569,84	1308,65
570,04	1263,60
570,23	1249,26
570,43	1239,02
570,62	1259,50
570,82	1331,18
571,01	1343,47
571,21	1255,40
571,40	1304,56
571,60	1247,21
571,79	1308,65
571,99	1259,50
572,18	1222,64
572,38	1257,45
572,57	1241,07
572,77	1310,70
572,96	1282,03
573,16	1212,40
573,35	1247,21
573,55	1277,93
573,74	1255,40
573,94	1288,17
574,13	1273,84
574,33	1243,12
574,52	1234,93
574,71	1322,99
574,91	1288,17
575,10	1282,03
575,30	1298,41
575,49	1255,40
575,69	1236,97
575,88	1349,61
576,08	1277,93
576,27	1253,36
576,47	1193,97
576,66	1165,29
576,86	1282,03
577,05	1212,40
577,25	1261,55
577,44	1282,03
577,64	1353,71
577,83	1325,04
578,02	1298,41
578,22	1318,89
578,41	1296,36
578,61	1294,32
578,80	1284,08
579,00	1261,55
579,19	1265,64
579,39	1273,84
579,58	1306,60
579,77	1253,36
579,97	1275,88
580,16	1314,80
580,36	1226,73
580,55	1269,74
580,75	1261,55
580,94	1296,36
581,13	1267,69
581,33	1230,83
581,52	1361,90
581,72	1327,08
581,91	1292,27
582,11	1253,36
582,30	1318,89
582,49	1271,79
582,69	1191,92
582,88	1284,08
583,08	1224,69
583,27	1271,79
583,47	1316,84
583,66	1322,99
583,85	1269,74
584,05	1302,51
584,24	1363,95
584,44	1181,68
584,63	1279,98
584,82	1298,41
585,02	1232,88
585,21	1239,02
585,41	1263,60
585,60	1284,08
585,79	1292,27
585,99	1249,26
586,18	1251,31
586,37	1255,40
586,57	1298,41
586,76	1290,22
586,96	1292,27
587,15	1255,40
587,34	1300,46
587,54	1290,22
587,73	1245,16
587,93	1259,50
588,12	1335,28
588,31	1345,52
588,51	1189,87
588,70	1259,50
588,89	1232,88
589,09	1286,12
589,28	1298,41
589,47	1292,27
589,67	1247,21
589,86	1302,51
590,06	1241,07
590,25	1282,03
590,44	1198,06
590,64	1320,94
590,83	1249,26
591,02	1308,65
591,22	1286,12
591,41	1282,03
591,60	1302,51
591,80	1292,27
591,99	1298,41
592,18	1300,46
592,38	1214,45
592,57	1298,41
592,76	1239,02
592,96	1251,31
593,15	1241,07
593,34	1212,40
593,54	1239,02
593,73	1257,45
593,92	1245,16
594,12	1277,93
594,31	1251,31
594,50	1265,64
594,70	1236,97
594,89	1298,41
595,08	1292,27
595,28	1275,88
595,47	1265,64
595,66	1208,30
595,86	1251,31
596,05	1290,22
596,24	1230,83
596,43	1284,08
596,63	1251,31
596,82	1298,41
597,01	1265,64
597,21	1284,08
597,40	1294,32
597,59	1279,98
597,79	1271,79
597,98	1322,99
598,17	1216,49
598,36	1255,40
598,56	1261,55
598,75	1239,02
598,94	1241,07
599,14	1179,63
599,33	1282,03
599,52	1200,11
599,71	1294,32
599,91	1226,73
600,10	1243,12
600,29	1306,60
600,48	1306,60
600,68	1298,41
600,87	1267,69
601,06	1282,03
601,26	1245,16
601,45	1290,22
601,64	1269,74
601,83	1286,12
602,03	1259,50
602,22	1263,60
602,41	1265,64
602,60	1255,40
602,80	1263,60
602,99	1179,63
603,18	1327,08
603,37	1171,44
603,57	1257,45
603,76	1271,79
603,95	1335,28
604,14	1220,59
604,34	1298,41
604,53	1251,31
604,72	1306,60
604,91	1239,02
605,10	1292,27
605,30	1165,29
605,49	1286,12
605,68	1245,16
605,87	1212,40
606,07	1339,37
606,26	1241,07
606,45	1206,25
606,64	1232,88
606,84	1267,69
607,03	1261,55
607,22	1282,03
607,41	1220,59
607,60	1282,03
607,80	1339,37
607,99	1277,93
608,18	1259,50
608,37	1267,69
608,56	1277,93
608,76	1279,98
608,95	1230,83
609,14	1345,52
609,33	1232,88
609,52	1245,16
609,72	1243,12
609,91	1277,93
610,10	1357,80
610,29	1296,36
610,48	1277,93
610,68	1216,49
610,87	1273,84
611,06	1253,36
611,25	1304,56
611,44	1273,84
611,63	1210,35
611,83	1267,69
612,02	1310,70
612,21	1331,18
612,40	1239,02
612,59	1304,56
612,79	1251,31
612,98	1337,32
613,17	1275,88
613,36	1269,74
613,55	1286,12
613,74	1212,40
613,93	1312,75
614,13	1292,27
614,32	1288,17
614,51	1314,80
614,70	1271,79
614,89	1331,18
615,08	1220,59
615,28	1325,04
615,47	1327,08
615,66	1212,40
615,85	1269,74
616,04	1316,84
616,23	1277,93
616,42	1245,16
616,62	1282,03
616,81	1279,98
617,00	1243,12
617,19	1286,12
617,38	1212,40
617,57	1261,55
617,76	1290,22
617,95	1241,07
618,15	1312,75
618,34	1232,88
618,53	1249,26
618,72	1265,64
618,91	1306,60
619,10	1232,88
619,29	1312,75
619,48	1282,03
619,68	1263,60
619,87	1224,69
620,06	1189,87
620,25	1273,84
620,44	1267,69
620,63	1349,61
620,82	1216,49
621,01	1232,88
621,20	1322,99
621,39	1259,50
621,59	1288,17
621,78	1314,80
621,97	1216,49
622,16	1286,12
622,35	1312,75
622,54	1251,31
622,73	1251,31
622,92	1210,35
623,11	1335,28
623,30	1251,31
623,49	1290,22
623,68	1290,22
623,88	1220,59
624,07	1263,60
624,26	1193,97
624,45	1245,16
624,64	1349,61
624,83	1304,56
625,02	1226,73
625,21	1327,08
625,40	1322,99
625,59	1314,80
625,78	1249,26
625,97	1320,94
626,16	1308,65
626,35	1277,93
626,54	1290,22
626,74	1302,51
626,93	1247,21
627,12	1296,36
627,31	1351,66
627,50	1292,27
627,69	1290,22
627,88	1220,59
628,07	1245,16
628,26	1298,41
628,45	1329,13
628,64	1318,89
628,83	1284,08
629,02	1269,74
629,21	1265,64
629,40	1288,17
629,59	1247,21
629,78	1335,28
629,97	1298,41
630,16	1271,79
630,35	1261,55
630,54	1329,13
630,73	1370,09
630,92	1333,23
631,11	1220,59
631,30	1372,14
631,49	1388,52
631,68	1773,54
631,87	3682,25
632,06	10979,16
632,25	20676,29
632,44	26617,45
632,63	30737,96
632,82	18319,08
633,01	5705,64
633,20	3340,24
633,39	3121,10
633,58	2500,57
633,77	1798,12
633,96	1748,97
634,15	1675,24
634,34	1665,00
634,53	1591,27
634,72	1538,02
634,91	1447,91
635,10	1441,77
635,29	1419,24
635,48	1482,73
635,67	1421,29
635,86	1456,11
636,05	1468,39
636,24	1376,24
636,43	1337,32
636,62	1421,29
636,81	1392,62
637,00	1308,65
637,19	1353,71
637,38	1329,13
637,57	1347,56
637,76	1327,08
637,95	1353,71
638,14	1312,75
638,33	1306,60
638,52	1241,07
638,71	1339,37
638,89	1255,40
639,08	1294,32
639,27	1286,12
639,46	1312,75
639,65	1316,84
639,84	1259,50
640,03	1294,32
640,22	1316,84
640,41	1329,13
640,60	1253,36
640,79	1255,40
640,98	1314,80
641,17	1312,75
641,36	1251,31
641,55	1263,60
641,74	1273,84
641,92	1275,88
642,11	1263,60
642,30	1273,84
642,49	1312,75
642,68	1247,21
642,87	1251,31
643,06	1284,08
643,25	1214,45
643,44	1298,41
643,63	1253,36
643,82	1292,27
644,00	1259,50
644,19	1228,78
644,38	1234,93
644,57	1355,76
644,76	1263,60
644,95	1312,75
645,14	1220,59
645,33	1310,70
645,52	1255,40
645,71	1279,98
645,89	1245,16
646,08	1325,04
646,27	1241,07
646,46	1366,00
646,65	1236,97
646,84	1212,40
647,03	1185,77
647,22	1298,41
647,40	1273,84
647,59	1282,03
647,78	1302,51
647,97	1296,36
648,16	1308,65
648,35	1265,64
648,54	1261,55
648,73	1314,80
648,91	1355,76
649,10	1245,16
649,29	1228,78
649,48	1310,70
649,67	1232,88
649,86	1314,80
650,05	1292,27
650,23	1345,52
650,42	1222,64
650,61	1304,56
650,80	1187,82
650,99	1290,22
651,18	1239,02
651,36	1136,62
651,55	1241,07
651,74	1265,64
651,93	1255,40
652,12	1202,16
652,31	1247,21
652,49	1253,36
652,68	1282,03
652,87	1249,26
653,06	1206,25
653,25	1216,49
653,44	1265,64
653,62	1255,40
653,81	1322,99
654,00	1368,04
654,19	1228,78
654,38	1273,84
654,56	1298,41
654,75	1312,75
654,94	1331,18
655,13	1220,59
655,32	1220,59
655,51	1298,41
655,69	1325,04
655,88	1292,27
656,07	1286,12
656,26	1277,93
656,45	1312,75
656,63	1294,32
656,82	1306,60
657,01	1271,79
657,20	1253,36
657,38	1320,94
657,57	1282,03
657,76	1243,12
657,95	1259,50
658,14	1327,08
658,32	1212,40
658,51	1329,13
658,70	1251,31
658,89	1236,97
659,08	1261,55
659,26	1286,12
659,45	1306,60
659,64	1316,84
659,83	1271,79
660,01	1239,02
660,20	1308,65
660,39	1292,27
660,58	1200,11
660,76	1267,69
660,95	1296,36
661,14	1183,73
661,33	1288,17
661,51	1314,80
661,70	1296,36
661,89	1241,07
662,08	1269,74
662,26	1198,06
662,45	1277,93
662,64	1273,84
662,83	1302,51
663,01	1298,41
663,20	1263,60
663,39	1271,79
663,58	1193,97
663,76	1286,12
663,95	1263,60
664,14	1202,16
664,32	1257,45
664,51	1312,75
664,70	1312,75
664,89	1261,55
665,07	1263,60
665,26	1337,32
665,45	1193,97
665,64	1316,84
665,82	1210,35
666,01	1232,88
666,20	1279,98
666,38	1363,95
666,57	1210,35
666,76	1263,60
666,95	1306,60
667,13	1349,61
667,32	1241,07
667,51	1308,65
667,69	1308,65
667,88	1253,36
668,07	1247,21
668,25	1230,83
668,44	1239,02
668,63	1359,85
668,81	1329,13
669,00	1296,36
669,19	1282,03
669,38	1320,94
669,56	1294,32
669,75	1263,60
669,94	1257,45
670,12	1341,42
670,31	1245,16
670,50	1273,84
670,68	1306,60
670,87	1230,83
671,06	1212,40
671,24	1347,56
671,43	1359,85
671,62	1282,03
671,80	1355,76
671,99	1298,41
672,18	1286,12
672,36	1320,94
672,55	1273,84
672,74	1298,41
672,92	1376,24
673,11	1282,03
673,29	1312,75
673,48	1230,83
673,67	1363,95
673,85	1241,07
674,04	1214,45
674,23	1294,32
674,41	1308,65
674,60	1286,12
674,79	1296,36
674,97	1261,55
675,16	1277,93
675,34	1263,60
675,53	1273,84
675,72	1261,55
675,90	1198,06
676,09	1230,83
676,28	1251,31
676,46	1232,88
676,65	1306,60
676,83	1216,49
677,02	1277,93
677,21	1243,12
677,39	1243,12
677,58	1292,27
677,77	1290,22
677,95	1218,54
678,14	1249,26
678,32	1263,60
678,51	1212,40
678,70	1290,22
678,88	1261,55
679,07	1187,82
679,25	1282,03
679,44	1216,49
679,63	1273,84
679,81	1322,99
680,00	1286,12
680,18	1249,26
680,37	1232,88
680,55	1247,21
680,74	1236,97
680,93	1263,60
681,11	1279,98
681,30	1228,78
681,48	1273,84
681,67	1343,47
681,85	1259,50
682,04	1296,36
682,23	1245,16
682,41	1247,21
682,60	1288,17
682,78	1284,08
682,97	1302,51
683,15	1282,03
683,34	1224,69
683,53	1189,87
683,71	1230,83
683,90	1236,97
684,08	1284,08
684,27	1257,45
684,45	1341,42
684,64	1230,83
684,82	1314,80
685,01	1298,41
685,19	1279,98
685,38	1261,55
685,57	1232,88
685,75	1282,03
685,94	1257,45
686,12	1314,80
686,31	1232,88
686,49	1261,55
686,68	1284,08
686,86	1308,65
687,05	1310,70
687,23	1298,41
687,42	1265,64
687,60	1312,75
687,79	1312,75
687,97	1355,76
688,16	1286,12
688,34	1273,84
688,53	1253,36
688,71	1302,51
688,90	1347,56
689,08	1306,60
689,27	1277,93
689,45	1322,99
689,64	1261,55
689,82	1230,83
690,01	1265,64
690,19	1239,02
690,38	1271,79
690,56	1325,04
690,75	1304,56
690,93	1316,84
691,12	1265,64
691,30	1259,50
691,49	1196,01
691,67	1275,88
691,86	1183,73
692,04	1277,93
692,23	1331,18
692,41	1243,12
692,60	1257,45
692,78	1312,75
692,97	1275,88
693,15	1269,74
693,34	1257,45
693,52	1208,30
693,71	1253,36
693,89	1288,17
694,08	1261,55
694,26	1349,61
694,44	1277,93
694,63	1255,40
694,81	1251,31
695,00	1304,56
695,18	1247,21
695,37	1294,32
695,55	1259,50
695,74	1247,21
695,92	1302,51
696,10	1216,49
696,29	1232,88
696,47	1310,70
696,66	1204,21
696,84	1331,18
697,03	1273,84
697,21	1347,56
697,40	1322,99
697,58	1234,93
697,76	1179,63
697,95	1249,26
698,13	1220,59
698,32	1333,23
698,50	1284,08
698,68	1277,93
698,87	1228,78
699,05	1331,18
699,24	1230,83
699,42	1265,64
699,61	1232,88
699,79	1228,78
699,97	1234,93
700,16	1269,74
700,34	1232,88
700,53	1296,36
700,71	1329,13
700,89	1257,45
701,08	1228,78
701,26	1302,51
701,45	1388,52
701,63	1271,79
701,81	1230,83
702,00	1191,92
702,18	1249,26
702,37	1279,98
702,55	1290,22
702,73	1167,34
702,92	1228,78
703,10	1226,73
703,28	1306,60
703,47	1267,69
703,65	1245,16
703,84	1259,50
704,02	1310,70
704,20	1337,32
704,39	1232,88
704,57	1181,68
704,75	1263,60
704,94	1290,22
705,12	1236,97
705,30	1261,55
705,49	1261,55
705,67	1320,94
705,86	1282,03
706,04	1306,60
706,22	1290,22
706,41	1234,93
706,59	1261,55
706,77	1292,27
706,96	1376,24
707,14	1265,64
707,32	1296,36
707,51	1265,64
707,69	1298,41
707,87	1351,66
708,06	1263,60
708,24	1222,64
708,42	1255,40
708,61	1263,60
708,79	1230,83
708,97	1286,12
709,16	1208,30
709,34	1306,60
709,52	1316,84
709,71	1253,36
709,89	1253,36
710,07	1249,26
710,26	1273,84
710,44	1218,54
710,62	1232,88
710,80	1247,21
710,99	1282,03
711,17	1224,69
711,35	1275,88
711,54	1347,56
711,72	1282,03
711,90	1282,03
712,09	1300,46
712,27	1282,03
712,45	1255,40
712,63	1343,47
712,82	1255,40
713,00	1208,30
713,18	1251,31
713,37	1224,69
713,55	1218,54
713,73	1351,66
713,91	1228,78
714,10	1282,03
714,28	1202,16
714,46	1286,12
714,65	1298,41
714,83	1290,22
715,01	1236,97
715,19	1216,49
715,38	1259,50
715,56	1269,74
715,74	1232,88
715,92	1245,16
716,11	1298,41
716,29	1300,46
716,47	1386,47
716,65	1368,04
716,84	1316,84
717,02	1226,73
717,20	1304,56
717,38	1296,36
717,57	1292,27
717,75	1212,40
717,93	1300,46
718,11	1234,93
718,30	1236,97
718,48	1304,56
718,66	1245,16
718,84	1234,93
719,03	1257,45
719,21	1189,87
719,39	1218,54
719,57	1294,32
719,75	1234,93
719,94	1300,46
720,12	1269,74
720,30	1181,68
720,48	1245,16
720,67	1318,89
720,85	1275,88
721,03	1255,40
721,21	1243,12
721,39	1228,78
721,58	1200,11
721,76	1288,17
721,94	1288,17
722,12	1271,79
722,30	1306,60
722,49	1208,30
722,67	1253,36
722,85	1333,23
723,03	1241,07
723,21	1327,08
723,40	1288,17
723,58	1216,49
723,76	1239,02
723,94	1298,41
724,12	1273,84
724,30	1320,94
724,49	1261,55
724,67	1275,88
724,85	1271,79
725,03	1300,46
725,21	1255,40
725,40	1353,71
725,58	1302,51
725,76	1282,03
725,94	1267,69
726,12	1216,49
726,30	1200,11
726,49	1200,11
726,67	1300,46
726,85	1265,64
727,03	1210,35
727,21	1255,40
727,39	1273,84
727,57	1239,02
727,76	1204,21
727,94	1259,50
728,12	1290,22
728,30	1284,08
728,48	1247,21
728,66	1263,60
728,84	1257,45
729,03	1191,92
729,21	1193,97
729,39	1312,75
729,57	1296,36
729,75	1320,94
729,93	1269,74
730,11	1265,64
730,30	1290,22
730,48	1232,88
730,66	1273,84
730,84	1255,40
731,02	1306,60
731,20	1263,60
731,38	1267,69
731,56	1273,84
731,74	1259,50
731,93	1349,61
732,11	1292,27
732,29	1263,60
732,47	1300,46
732,65	1273,84
732,83	1333,23
733,01	1261,55
733,19	1189,87
733,37	1222,64
733,56	1216,49
733,74	1304,56
733,92	1279,98
734,10	1327,08
734,28	1296,36
734,46	1247,21
734,64	1220,59
734,82	1288,17
735,00	1279,98
735,18	1320,94
735,36	1241,07
735,54	1236,97
735,73	1200,11
735,91	1290,22
736,09	1263,60
736,27	1263,60
736,45	1224,69
736,63	1150,96
736,81	1257,45
736,99	1308,65
737,17	1228,78
737,35	1234,93
737,53	1222,64
737,71	1275,88
737,89	1290,22
738,07	1222,64
738,25	1185,77
738,43	1210,35
738,61	1314,80
738,80	1277,93
738,98	1339,37
739,16	1320,94
739,34	1290,22
739,52	1310,70
739,70	1193,97
739,88	1239,02
740,06	1279,98
740,24	1312,75
740,42	1312,75
740,60	1306,60
740,78	1341,42
740,96	1155,05
741,14	1196,01
741,32	1327,08
741,50	1277,93
741,68	1279,98
741,86	1284,08
742,04	1271,79
742,22	1269,74
742,40	1239,02
742,58	1173,49
742,76	1273,84
742,94	1245,16
743,12	1275,88
743,30	1345,52
743,48	1292,27
743,66	1210,35
743,84	1222,64
744,02	1284,08
744,20	1329,13
744,38	1269,74
744,56	1294,32
744,74	1294,32
744,92	1200,11
745,10	1312,75
745,28	1290,22
745,46	1261,55
745,64	1239,02
745,82	1273,84
746,00	1312,75
746,18	1286,12
746,36	1288,17
746,54	1222,64
746,72	1247,21
746,90	1241,07
747,08	1234,93
747,26	1206,25
747,44	1290,22
747,62	1253,36
747,80	1277,93
747,98	1265,64
748,15	1292,27
748,33	1247,21
748,51	1200,11
748,69	1263,60
748,87	1284,08
749,05	1183,73
749,23	1228,78
749,41	1282,03
749,59	1210,35
749,77	1286,12
749,95	1247,21
750,13	1206,25
750,31	1290,22
750,49	1273,84
750,67	1261,55
750,85	1370,09
751,03	1259,50
751,20	1189,87
751,38	1300,46
751,56	1298,41
751,74	1257,45
751,92	1247,21
752,10	1247,21
752,28	1265,64
752,46	1275,88
752,64	1277,93
752,82	1255,40
753,00	1220,59
753,18	1300,46
753,35	1236,97
753,53	1253,36
753,71	1304,56
753,89	1312,75
754,07	1234,93
754,25	1269,74
754,43	1202,16
754,61	1306,60
754,79	1292,27
754,97	1296,36
755,14	1284,08
755,32	1198,06
755,50	1214,45
755,68	1282,03
755,86	1232,88
756,04	1275,88
756,22	1331,18
756,40	1320,94
756,57	1241,07
756,75	1277,93
756,93	1216,49
757,11	1208,30
757,29	1292,27
757,47	1304,56
757,65	1286,12
757,82	1193,97
758,00	1275,88
758,18	1222,64
758,36	1288,17
758,54	1222,64
758,72	1320,94
758,90	1368,04
759,07	1302,51
759,25	1327,08
759,43	1273,84
759,61	1298,41
759,79	1249,26
759,97	1241,07
760,15	1277,93
760,32	1271,79
760,50	1267,69
760,68	1259,50
760,86	1275,88
761,04	1259,50
761,22	1290,22
761,39	1271,79
761,57	1273,84
761,75	1341,42
761,93	1206,25
762,11	1298,41
762,28	1310,70
762,46	1298,41
762,64	1239,02
762,82	1251,31
763,00	1247,21
763,18	1282,03
763,35	1243,12
763,53	1253,36
763,71	1306,60
763,89	1279,98
764,07	1300,46
764,24	1228,78
764,42	1302,51
764,60	1249,26
764,78	1300,46
764,96	1316,84
765,13	1261,55
765,31	1314,80
765,49	1316,84
765,67	1284,08
765,84	1232,88
766,02	1257,45
766,20	1310,70
766,38	1294,32
766,56	1265,64
766,73	1300,46
766,91	1316,84
767,09	1200,11
767,27	1251,31
767,44	1275,88
767,62	1239,02
767,80	1292,27
767,98	1306,60
768,15	1259,50
768,33	1277,93
768,51	1269,74
768,69	1267,69
768,87	1226,73
769,04	1193,97
769,22	1226,73
769,40	1296,36
769,58	1322,99
769,75	1241,07
769,93	1265,64
770,11	1368,04
770,28	1224,69
770,46	1255,40
770,64	1300,46
770,82	1224,69
770,99	1335,28
771,17	1267,69
771,35	1290,22
771,53	1216,49
771,70	1222,64
771,88	1306,60
772,06	1253,36
772,23	1275,88
772,41	1347,56
772,59	1296,36
772,77	1269,74
772,94	1222,64
773,12	1286,12
773,30	1234,93
773,47	1241,07
773,65	1249,26
773,83	1277,93
774,01	1261,55
774,18	1257,45
774,36	1273,84
774,54	1306,60
774,71	1222,64
774,89	1298,41
775,07	1247,21
775,24	1286,12
775,42	1208,30
775,60	1320,94
775,78	1228,78
775,95	1249,26
776,13	1279,98
776,31	1286,12
776,48	1216,49
776,66	1224,69
776,84	1214,45
777,01	1282,03
777,19	1282,03
777,37	1241,07
777,54	1314,80
777,72	1239,02
777,90	1331,18
778,07	1304,56
778,25	1265,64
778,43	1318,89
778,60	1216,49
778,78	1284,08
778,96	1245,16
779,13	1216,49
779,31	1216,49
779,49	1210,35
779,66	1224,69
779,84	1288,17
780,01	1290,22
780,19	1245,16
780,37	1275,88
780,54	1284,08
780,72	1325,04
780,90	1316,84
781,07	1275,88
781,25	1343,47
781,43	1273,84
781,60	1325,04
781,78	1261,55
781,95	1263,60
782,13	1241,07
782,31	1273,84
782,48	1251,31
782,66	1314,80
782,83	1245,16
783,01	1320,94
783,19	1220,59
783,36	1282,03
783,54	1214,45
783,72	1263,60
783,89	1212,40
784,07	1284,08
784,24	1296,36
784,42	1290,22
784,60	1243,12
784,77	1322,99
784,95	1292,27
785,12	1302,51
785,30	1249,26
785,47	1208,30
785,65	1241,07
785,83	1316,84
786,00	1304,56
786,18	1306,60
786,35	1265,64
786,53	1277,93
786,71	1228,78
786,88	1273,84
787,06	1288,17
787,23	1204,21
787,41	1251,31
787,58	1312,75
787,76	1269,74
787,94	1271,79
788,11	1361,90
788,29	1253,36
788,46	1288,17
788,64	1187,82
788,81	1236,97
788,99	1275,88
789,16	1288,17
789,34	1273,84
789,52	1257,45
789,69	1232,88
789,87	1239,02
790,04	1331,18
790,22	1257,45
790,39	1181,68
790,57	1277,93
790,74	1273,84
790,92	1265,64
791,09	1347,56
791,27	1312,75
791,44	1310,70
791,62	1343,47
791,79	1263,60
791,97	1257,45
792,15	1296,36
792,32	1257,45
792,50	1232,88
792,67	1234,93
792,85	1316,84
793,02	1245,16
793,20	1228,78
793,37	1232,88
793,55	1245,16
793,72	1239,02
793,90	1265,64
794,07	1269,74
794,25	1306,60
794,42	1294,32
794,60	1275,88
794,77	1228,78
794,95	1275,88
795,12	1224,69
795,30	1318,89
795,47	1286,12
795,65	1302,51
795,82	1251,31
796,00	1286,12
796,17	1302,51
796,34	1230,83
796,52	1181,68
796,69	1249,26
796,87	1298,41
797,04	1230,83
797,22	1263,60
797,39	1282,03
797,57	1202,16
797,74	1230,83
797,92	1255,40
798,09	1388,52
798,27	1228,78
798,44	1161,20
798,62	1234,93
798,79	1320,94
798,96	1204,21
799,14	1312,75
799,31	1304,56
799,49	1322,99
799,66	1316,84
799,84	1247,21
800,01	1277,93
800,19	1304,56
800,36	1359,85
800,53	1320,94
800,71	1298,41
800,88	1267,69
801,06	1187,82
801,23	1269,74
801,41	1359,85
801,58	1259,50
801,75	1247,21
801,93	1341,42
802,10	1294,32
802,28	1259,50
802,45	1243,12
802,63	1277,93
802,80	1239,02
802,97	1243,12
803,15	1208,30
803,32	1314,80
803,50	1304,56
803,67	1261,55
803,84	1251,31
804,02	1290,22
804,19	1312,75
804,37	1275,88
804,54	1261,55
804,71	1232,88
804,89	1214,45
805,06	1257,45
805,24	1300,46
805,41	1220,59
805,58	1241,07
805,76	1230,83
805,93	1269,74
806,10	1259,50
806,28	1216,49
806,45	1294,32
806,63	1355,76
806,80	1363,95
806,97	1200,11
807,15	1306,60
807,32	1325,04
807,49	1257,45
807,67	1241,07
807,84	1335,28
808,01	1239,02
808,19	1271,79
808,36	1257,45
808,54	1359,85
808,71	1277,93
808,88	1249,26
809,06	1249,26
809,23	1243,12
809,40	1292,27
809,58	1267,69
809,75	1284,08
809,92	1247,21
810,10	1204,21
810,27	1318,89
810,44	1255,40
810,62	1290,22
810,79	1214,45
810,96	1163,25
811,14	1327,08
811,31	1241,07
811,48	1294,32
811,66	1339,37
811,83	1370,09
812,00	1236,97
812,18	1216,49
812,35	1314,80
812,52	1206,25
812,69	1259,50
812,87	1259,50
813,04	1302,51
813,21	1226,73
813,39	1306,60
813,56	1265,64
813,73	1251,31
813,91	1214,45
814,08	1282,03
814,25	1265,64
814,42	1306,60
814,60	1214,45
814,77	1300,46
814,94	1228,78
815,12	1290,22
815,29	1284,08
815,46	1273,84
815,63	1150,96
815,81	1306,60
815,98	1193,97
816,15	1243,12
816,33	1214,45
816,50	1316,84
816,67	1261,55
816,84	1277,93
817,02	1257,45
817,19	1255,40
817,36	1388,52
817,53	1251,31
817,71	1249,26
817,88	1222,64
818,05	1236,97
818,22	1224,69
818,40	1314,80
818,57	1284,08
818,74	1228,78
818,91	1263,60
819,09	1228,78
819,26	1306,60
819,43	1304,56
819,60	1210,35
819,78	1341,42
819,95	1259,50
820,12	1265,64
820,29	1253,36
820,47	1241,07
820,64	1320,94
820,81	1286,12
820,98	1288,17
821,15	1228,78
821,33	1277,93
821,50	1214,45
821,67	1298,41
821,84	1255,40
822,02	1251,31
822,19	1298,41
822,36	1314,80
822,53	1322,99
822,70	1267,69
822,88	1306,60
823,05	1257,45
823,22	1228,78
823,39	1322,99
823,56	1298,41
823,74	1269,74
823,91	1230,83
824,08	1239,02
824,25	1263,60
824,42	1296,36
824,60	1263,60
824,77	1206,25
824,94	1259,50
825,11	1230,83
825,28	1255,40
825,45	1277,93
825,63	1212,40
825,80	1187,82
825,97	1279,98
826,14	1273,84
826,31	1335,28
826,48	1273,84
826,66	1251,31
826,83	1318,89
827,00	1214,45
827,17	1230,83
827,34	1259,50
827,51	1210,35
827,69	1251,31
827,86	1189,87
828,03	1232,88
828,20	1218,54
828,37	1251,31
828,54	1212,40
828,71	1171,44
828,89	1304,56
829,06	1277,93
829,23	1312,75
829,40	1236,97
829,57	1302,51
829,74	1335,28
829,91	1230,83
830,09	1257,45
830,26	1269,74
830,43	1245,16
830,60	1302,51
830,77	1263,60
830,94	1230,83
831,11	1296,36
831,28	1294,32
831,46	1298,41
831,63	1271,79
831,80	1251,31
831,97	1310,70
832,14	1347,56
832,31	1353,71
832,48	1261,55
832,65	1292,27
832,82	1263,60
832,99	1329,13
833,17	1292,27
833,34	1304,56
833,51	1253,36
833,68	1202,16
833,85	1212,40
834,02	1275,88
834,19	1282,03
834,36	1269,74
834,53	1226,73
834,70	1249,26
834,87	1241,07
835,04	1353,71
835,22	1243,12
835,39	1241,07
835,56	1310,70
835,73	1294,32
835,90	1177,58
836,07	1308,65
836,24	1224,69
836,41	1247,21
836,58	1171,44
836,75	1304,56
836,92	1277,93
837,09	1247,21
837,26	1320,94
837,43	1316,84
837,60	1232,88
837,77	1202,16
837,94	1243,12
838,12	1210,35
838,29	1243,12
838,46	1277,93
838,63	1298,41
838,80	1290,22
838,97	1296,36
839,14	1363,95
839,31	1179,63
839,48	1271,79
839,65	1290,22
839,82	1271,79
839,99	1275,88
840,16	1310,70
840,33	1298,41
840,50	1286,12
840,67	1239,02
840,84	1308,65
841,01	1302,51
841,18	1265,64
841,35	1288,17
841,52	1226,73
841,69	1257,45
841,86	1234,93
842,03	1327,08
842,20	1329,13
842,37	1312,75
842,54	1243,12
842,71	1282,03
842,88	1263,60
843,05	1245,16
843,22	1157,10
843,39	1226,73
843,56	1228,78
843,73	1290,22
843,90	1290,22
844,07	1236,97
844,24	1310,70
844,41	1284,08
844,58	1370,09
844,75	1308,65
844,92	1282,03
845,09	1290,22
845,26	1273,84
845,43	1277,93
845,60	1304,56
845,77	1322,99
845,94	1263,60
846,10	1329,13
846,27	1290,22
846,44	1312,75
846,61	1290,22
846,78	1314,80
846,95	1275,88
847,12	1251,31
847,29	1251,31
847,46	1310,70
847,63	1277,93
847,80	1279,98
847,97	1304,56
848,14	1335,28
848,31	1273,84
848,48	1253,36
848,65	1277,93
848,82	1226,73
848,98	1286,12
849,15	1296,36
849,32	1320,94
849,49	1234,93
849,66	1310,70
849,83	1300,46
850,00	1320,94
850,17	1275,88
850,34	1249,26
850,51	1249,26
850,68	1327,08
850,85	1249,26
851,01	1269,74
851,18	1259,50
851,35	1353,71
851,52	1216,49
851,69	1243,12
851,86	1224,69
852,03	1296,36
852,20	1300,46
852,37	1271,79
852,53	1273,84
852,70	1273,84
852,87	1327,08
853,04	1284,08
853,21	1179,63
853,38	1265,64
853,55	1198,06
853,72	1310,70
853,89	1288,17
854,05	1306,60
854,22	1290,22
854,39	1212,40
854,56	1271,79
854,73	1304,56
854,90	1279,98
855,07	1228,78
855,23	1214,45
855,40	1236,97
855,57	1228,78
855,74	1206,25
855,91	1218,54
856,08	1232,88
856,25	1259,50
856,41	1257,45
856,58	1265,64
856,75	1296,36
856,92	1263,60
857,09	1216,49
857,26	1251,31
857,42	1239,02
857,59	1265,64
857,76	1263,60
857,93	1273,84
858,10	1288,17
858,27	1226,73
858,43	1325,04
858,60	1279,98
858,77	1234,93
858,94	1284,08
859,11	1357,80
859,27	1275,88
859,44	1290,22
859,61	1253,36
859,78	1245,16
859,95	1261,55
860,12	1331,18
860,28	1251,31
860,45	1282,03
860,62	1251,31
860,79	1302,51
860,95	1253,36
861,12	1290,22
861,29	1361,90
861,46	1267,69
861,63	1331,18
861,79	1366,00
861,96	1298,41
862,13	1322,99
862,30	1239,02
862,47	1286,12
862,63	1253,36
862,80	1282,03
862,97	1277,93
863,14	1234,93
863,30	1320,94
863,47	1292,27
863,64	1288,17
863,81	1302,51
863,97	1249,26
864,14	1251,31
864,31	1253,36
864,48	1251,31
864,65	1198,06
864,81	1271,79
864,98	1273,84
865,15	1271,79
865,32	1263,60
865,48	1243,12
865,65	1347,56
865,82	1292,27
865,98	1220,59
866,15	1204,21
866,32	1279,98
866,49	1210,35
866,65	1224,69
866,82	1230,83
866,99	1304,56
867,16	1288,17
867,32	1169,39
867,49	1226,73
867,66	1296,36
867,83	1171,44
867,99	1320,94
868,16	1294,32
868,33	1228,78
868,49	1216,49
868,66	1273,84
868,83	1261,55
868,99	1243,12
869,16	1206,25
869,33	1265,64
869,50	1304,56
869,66	1228,78
869,83	1294,32
870,00	1296,36
870,16	1306,60
870,33	1191,92
870,50	1329,13
870,66	1263,60
870,83	1257,45
871,00	1269,74
871,17	1257,45
871,33	1253,36
871,50	1312,75
871,67	1273,84
871,83	1183,73
872,00	1236,97
872,17	1259,50
872,33	1282,03
872,50	1220,59
872,67	1306,60
872,83	1314,80
873,00	1220,59
873,17	1257,45
873,33	1241,07
873,50	1282,03
873,67	1263,60
873,83	1282,03
874,00	1234,93
874,16	1251,31
874,33	1222,64
874,50	1200,11
874,66	1261,55
874,83	1269,74
875,00	1335,28
875,16	1259,50
875,33	1245,16
875,50	1239,02
875,66	1284,08
875,83	1292,27
875,99	1239,02
876,16	1312,75
876,33	1347,56
876,49	1277,93
876,66	1259,50
876,83	1239,02
876,99	1347,56
877,16	1251,31
877,32	1241,07
877,49	1185,77
877,66	1263,60
877,82	1245,16
877,99	1273,84
878,15	1318,89
878,32	1294,32
878,49	1279,98
878,65	1290,22
878,82	1306,60
878,98	1218,54
879,15	1241,07
879,32	1261,55
879,48	1279,98
879,65	1279,98
879,81	1265,64
879,98	1253,36
880,15	1230,83
880,31	1353,71
880,48	1316,84
880,64	1286,12
880,81	1310,70
880,97	1275,88
881,14	1337,32
881,31	1306,60
881,47	1257,45
881,64	1257,45
881,80	1355,76
881,97	1267,69
882,13	1308,65
882,30	1359,85
882,47	1226,73
882,63	1232,88
882,80	1241,07
882,96	1333,23
883,13	1296,36
883,29	1257,45
883,46	1273,84
883,62	1234,93
883,79	1333,23
883,95	1218,54
884,12	1308,65
884,29	1279,98
884,45	1234,93
884,62	1292,27
884,78	1245,16
884,95	1183,73
885,11	1327,08
885,28	1302,51
885,44	1288,17
885,61	1257,45
885,77	1279,98
885,94	1331,18
886,10	1316,84
886,27	1216,49
886,43	1245,16
886,60	1288,17
886,76	1212,40
886,93	1261,55
887,09	1247,21
887,26	1216,49
887,42	1247,21
887,59	1275,88
887,75	1265,64
887,92	1277,93
888,08	1302,51
888,25	1275,88
888,41	1275,88
888,58	1226,73
888,74	1220,59
888,91	1271,79
>>>>>End Processed Spectral Data<<<<<
