SpectraSuite Data File
++++++++++++++++++++++++++++++++++++
Date: Sun Apr 03 13:46:34 CEST 2016
User: root
Dark Spectrum Present: No
Reference Spectrum Present: No
Number of Sampled Component Spectra: 1
Spectrometers: USB4C02835
Integration Time (usec): 10000 (USB4C02835)
Spectra Averaged: 1 (USB4C02835)
Boxcar Smoothing: 0 (USB4C02835)
Correct for Electrical Dark: No (USB4C02835)
Strobe/Lamp Enabled: No (USB4C02835)
Correct for Detector Non-linearity: No (USB4C02835)
Correct for Stray Light: No (USB4C02835)
Number of Pixels in Processed Spectrum: 3648
>>>>>Begin Processed Spectral Data<<<<<
177,47	1284,08
177,69	1284,08
177,91	1284,08
178,13	1241,07
178,36	1245,16
178,58	1322,99
178,80	1279,98
179,02	1300,46
179,24	1239,02
179,46	1277,93
179,68	1263,60
179,90	1183,73
180,13	1286,12
180,35	1290,22
180,57	1269,74
180,79	1349,61
181,01	1243,12
181,23	1261,55
181,45	1300,46
181,67	1189,87
181,90	1253,36
182,12	1296,36
182,34	1265,64
182,56	1220,59
182,78	1290,22
183,00	1310,70
183,22	1245,16
183,44	1273,84
183,66	1318,89
183,89	1232,88
184,11	1320,94
184,33	1257,45
184,55	1249,26
184,77	1247,21
184,99	1200,11
185,21	1220,59
185,43	1265,64
185,65	1232,88
185,87	1288,17
186,10	1304,56
186,32	1220,59
186,54	1269,74
186,76	1298,41
186,98	1259,50
187,20	1247,21
187,42	1255,40
187,64	1339,37
187,86	1232,88
188,08	1402,86
188,30	1253,36
188,52	1306,60
188,75	1226,73
188,97	1253,36
189,19	1298,41
189,41	1322,99
189,63	1247,21
189,85	1249,26
190,07	1245,16
190,29	1206,25
190,51	1247,21
190,73	1208,30
190,95	1314,80
191,17	1157,10
191,39	1273,84
191,61	1339,37
191,84	1216,49
192,06	1304,56
192,28	1224,69
192,50	1310,70
192,72	1261,55
192,94	1269,74
193,16	1310,70
193,38	1273,84
193,60	1277,93
193,82	1234,93
194,04	1214,45
194,26	1296,36
194,48	1335,28
194,70	1286,12
194,92	1286,12
195,14	1308,65
195,36	1273,84
195,58	1271,79
195,80	1257,45
196,02	1239,02
196,24	1320,94
196,46	1259,50
196,69	1269,74
196,91	1265,64
197,13	1251,31
197,35	1312,75
197,57	1290,22
197,79	1298,41
198,01	1302,51
198,23	1306,60
198,45	1325,04
198,67	1279,98
198,89	1279,98
199,11	1222,64
199,33	1216,49
199,55	1312,75
199,77	1236,97
199,99	1337,32
200,21	1230,83
200,43	1218,54
200,65	1239,02
200,87	1306,60
201,09	1325,04
201,31	1310,70
201,53	1243,12
201,75	1294,32
201,97	1290,22
202,19	1236,97
202,41	1265,64
202,63	1384,43
202,85	1318,89
203,07	1292,27
203,29	1191,92
203,51	1331,18
203,73	1236,97
203,95	1357,80
204,17	1288,17
204,39	1282,03
204,61	1290,22
204,83	1286,12
205,05	1255,40
205,27	1318,89
205,49	1304,56
205,71	1236,97
205,93	1304,56
206,15	1277,93
206,37	1230,83
206,59	1306,60
206,81	1310,70
207,03	1279,98
207,25	1290,22
207,47	1251,31
207,69	1308,65
207,91	1277,93
208,13	1175,53
208,34	1234,93
208,56	1251,31
208,78	1212,40
209,00	1241,07
209,22	1286,12
209,44	1271,79
209,66	1279,98
209,88	1300,46
210,10	1335,28
210,32	1306,60
210,54	1300,46
210,76	1257,45
210,98	1230,83
211,20	1277,93
211,42	1232,88
211,64	1222,64
211,86	1265,64
212,08	1267,69
212,30	1304,56
212,52	1263,60
212,74	1286,12
212,96	1294,32
213,17	1265,64
213,39	1253,36
213,61	1374,19
213,83	1302,51
214,05	1236,97
214,27	1257,45
214,49	1257,45
214,71	1251,31
214,93	1239,02
215,15	1318,89
215,37	1308,65
215,59	1218,54
215,81	1337,32
216,03	1251,31
216,24	1226,73
216,46	1265,64
216,68	1337,32
216,90	1265,64
217,12	1230,83
217,34	1292,27
217,56	1298,41
217,78	1263,60
218,00	1234,93
218,22	1253,36
218,44	1277,93
218,66	1279,98
218,87	1361,90
219,09	1333,23
219,31	1222,64
219,53	1228,78
219,75	1300,46
219,97	1259,50
220,19	1273,84
220,41	1329,13
220,63	1255,40
220,85	1292,27
221,06	1312,75
221,28	1349,61
221,50	1267,69
221,72	1249,26
221,94	1298,41
222,16	1243,12
222,38	1327,08
222,60	1304,56
222,82	1292,27
223,03	1366,00
223,25	1236,97
223,47	1322,99
223,69	1361,90
223,91	1351,66
224,13	1210,35
224,35	1306,60
224,57	1296,36
224,78	1236,97
225,00	1277,93
225,22	1269,74
225,44	1247,21
225,66	1284,08
225,88	1255,40
226,10	1286,12
226,32	1245,16
226,53	1185,77
226,75	1337,32
226,97	1220,59
227,19	1331,18
227,41	1325,04
227,63	1189,87
227,85	1216,49
228,06	1284,08
228,28	1269,74
228,50	1363,95
228,72	1284,08
228,94	1247,21
229,16	1271,79
229,37	1302,51
229,59	1271,79
229,81	1234,93
230,03	1277,93
230,25	1259,50
230,47	1290,22
230,69	1277,93
230,90	1341,42
231,12	1224,69
231,34	1191,92
231,56	1341,42
231,78	1243,12
232,00	1286,12
232,21	1294,32
232,43	1353,71
232,65	1181,68
232,87	1232,88
233,09	1255,40
233,30	1312,75
233,52	1284,08
233,74	1296,36
233,96	1290,22
234,18	1327,08
234,40	1366,00
234,61	1247,21
234,83	1300,46
235,05	1279,98
235,27	1308,65
235,49	1288,17
235,70	1361,90
235,92	1296,36
236,14	1249,26
236,36	1236,97
236,58	1306,60
236,79	1263,60
237,01	1220,59
237,23	1331,18
237,45	1282,03
237,67	1273,84
237,88	1359,85
238,10	1228,78
238,32	1243,12
238,54	1316,84
238,76	1329,13
238,97	1236,97
239,19	1277,93
239,41	1249,26
239,63	1208,30
239,85	1290,22
240,06	1296,36
240,28	1228,78
240,50	1277,93
240,72	1304,56
240,93	1214,45
241,15	1286,12
241,37	1269,74
241,59	1329,13
241,81	1304,56
242,02	1296,36
242,24	1204,21
242,46	1236,97
242,68	1255,40
242,89	1296,36
243,11	1251,31
243,33	1200,11
243,55	1261,55
243,76	1292,27
243,98	1325,04
244,20	1314,80
244,42	1271,79
244,64	1304,56
244,85	1298,41
245,07	1204,21
245,29	1253,36
245,51	1247,21
245,72	1269,74
245,94	1318,89
246,16	1249,26
246,38	1359,85
246,59	1220,59
246,81	1275,88
247,03	1253,36
247,24	1341,42
247,46	1265,64
247,68	1292,27
247,90	1255,40
248,11	1181,68
248,33	1257,45
248,55	1226,73
248,77	1341,42
248,98	1251,31
249,20	1253,36
249,42	1263,60
249,64	1220,59
249,85	1288,17
250,07	1294,32
250,29	1267,69
250,50	1304,56
250,72	1224,69
250,94	1302,51
251,16	1329,13
251,37	1275,88
251,59	1306,60
251,81	1234,93
252,02	1253,36
252,24	1273,84
252,46	1183,73
252,68	1241,07
252,89	1300,46
253,11	1296,36
253,33	1329,13
253,54	1320,94
253,76	1277,93
253,98	1277,93
254,20	1318,89
254,41	1261,55
254,63	1347,56
254,85	1232,88
255,06	1286,12
255,28	1298,41
255,50	1275,88
255,71	1269,74
255,93	1261,55
256,15	1271,79
256,36	1269,74
256,58	1288,17
256,80	1263,60
257,02	1312,75
257,23	1232,88
257,45	1253,36
257,67	1304,56
257,88	1267,69
258,10	1284,08
258,32	1267,69
258,53	1224,69
258,75	1273,84
258,97	1292,27
259,18	1304,56
259,40	1282,03
259,62	1322,99
259,83	1230,83
260,05	1417,19
260,27	1206,25
260,48	1310,70
260,70	1245,16
260,92	1294,32
261,13	1275,88
261,35	1275,88
261,57	1257,45
261,78	1232,88
262,00	1284,08
262,22	1314,80
262,43	1259,50
262,65	1279,98
262,86	1292,27
263,08	1308,65
263,30	1282,03
263,51	1210,35
263,73	1277,93
263,95	1239,02
264,16	1239,02
264,38	1239,02
264,60	1290,22
264,81	1279,98
265,03	1337,32
265,25	1302,51
265,46	1290,22
265,68	1341,42
265,89	1247,21
266,11	1249,26
266,33	1245,16
266,54	1243,12
266,76	1255,40
266,98	1224,69
267,19	1239,02
267,41	1304,56
267,62	1288,17
267,84	1282,03
268,06	1271,79
268,27	1279,98
268,49	1245,16
268,70	1316,84
268,92	1329,13
269,14	1279,98
269,35	1290,22
269,57	1337,32
269,79	1269,74
270,00	1279,98
270,22	1249,26
270,43	1239,02
270,65	1359,85
270,87	1200,11
271,08	1265,64
271,30	1271,79
271,51	1222,64
271,73	1292,27
271,95	1341,42
272,16	1284,08
272,38	1247,21
272,59	1245,16
272,81	1232,88
273,02	1243,12
273,24	1265,64
273,46	1243,12
273,67	1249,26
273,89	1288,17
274,10	1322,99
274,32	1271,79
274,54	1312,75
274,75	1290,22
274,97	1267,69
275,18	1243,12
275,40	1322,99
275,61	1288,17
275,83	1298,41
276,05	1181,68
276,26	1290,22
276,48	1300,46
276,69	1257,45
276,91	1292,27
277,12	1216,49
277,34	1269,74
277,55	1288,17
277,77	1290,22
277,99	1249,26
278,20	1279,98
278,42	1224,69
278,63	1349,61
278,85	1366,00
279,06	1241,07
279,28	1220,59
279,49	1208,30
279,71	1253,36
279,93	1269,74
280,14	1257,45
280,36	1273,84
280,57	1224,69
280,79	1277,93
281,00	1345,52
281,22	1284,08
281,43	1331,18
281,65	1247,21
281,86	1204,21
282,08	1239,02
282,29	1308,65
282,51	1245,16
282,73	1210,35
282,94	1191,92
283,16	1265,64
283,37	1271,79
283,59	1234,93
283,80	1241,07
284,02	1263,60
284,23	1249,26
284,45	1290,22
284,66	1265,64
284,88	1374,19
285,09	1304,56
285,31	1341,42
285,52	1265,64
285,74	1241,07
285,95	1288,17
286,17	1241,07
286,38	1277,93
286,60	1255,40
286,81	1257,45
287,03	1339,37
287,24	1224,69
287,46	1306,60
287,67	1273,84
287,89	1228,78
288,10	1255,40
288,32	1325,04
288,53	1312,75
288,75	1273,84
288,96	1261,55
289,18	1202,16
289,39	1308,65
289,61	1257,45
289,82	1265,64
290,04	1320,94
290,25	1318,89
290,47	1279,98
290,68	1286,12
290,90	1308,65
291,11	1306,60
291,33	1255,40
291,54	1265,64
291,76	1279,98
291,97	1206,25
292,18	1146,86
292,40	1327,08
292,61	1271,79
292,83	1253,36
293,04	1314,80
293,26	1302,51
293,47	1341,42
293,69	1337,32
293,90	1245,16
294,12	1253,36
294,33	1271,79
294,55	1322,99
294,76	1257,45
294,97	1230,83
295,19	1337,32
295,40	1310,70
295,62	1304,56
295,83	1230,83
296,05	1210,35
296,26	1290,22
296,48	1308,65
296,69	1226,73
296,90	1263,60
297,12	1236,97
297,33	1257,45
297,55	1187,82
297,76	1327,08
297,98	1318,89
298,19	1366,00
298,41	1351,66
298,62	1255,40
298,83	1288,17
299,05	1318,89
299,26	1241,07
299,48	1331,18
299,69	1261,55
299,90	1247,21
300,12	1263,60
300,33	1290,22
300,55	1312,75
300,76	1261,55
300,98	1300,46
301,19	1304,56
301,40	1335,28
301,62	1279,98
301,83	1263,60
302,05	1224,69
302,26	1210,35
302,47	1304,56
302,69	1245,16
302,90	1308,65
303,12	1239,02
303,33	1302,51
303,54	1259,50
303,76	1216,49
303,97	1296,36
304,19	1232,88
304,40	1308,65
304,61	1298,41
304,83	1275,88
305,04	1253,36
305,26	1230,83
305,47	1292,27
305,68	1286,12
305,90	1304,56
306,11	1339,37
306,33	1300,46
306,54	1302,51
306,75	1251,31
306,97	1320,94
307,18	1239,02
307,39	1218,54
307,61	1316,84
307,82	1245,16
308,04	1298,41
308,25	1257,45
308,46	1298,41
308,68	1292,27
308,89	1275,88
309,10	1298,41
309,32	1253,36
309,53	1284,08
309,74	1351,66
309,96	1263,60
310,17	1279,98
310,39	1310,70
310,60	1325,04
310,81	1269,74
311,03	1253,36
311,24	1247,21
311,45	1263,60
311,67	1292,27
311,88	1277,93
312,09	1273,84
312,31	1222,64
312,52	1269,74
312,73	1296,36
312,95	1306,60
313,16	1265,64
313,37	1263,60
313,59	1279,98
313,80	1286,12
314,01	1366,00
314,23	1255,40
314,44	1232,88
314,65	1304,56
314,87	1327,08
315,08	1290,22
315,29	1277,93
315,51	1275,88
315,72	1312,75
315,93	1257,45
316,15	1220,59
316,36	1290,22
316,57	1322,99
316,79	1239,02
317,00	1296,36
317,21	1241,07
317,43	1337,32
317,64	1294,32
317,85	1296,36
318,07	1267,69
318,28	1214,45
318,49	1234,93
318,70	1247,21
318,92	1255,40
319,13	1257,45
319,34	1216,49
319,56	1292,27
319,77	1261,55
319,98	1308,65
320,20	1249,26
320,41	1224,69
320,62	1253,36
320,83	1183,73
321,05	1243,12
321,26	1347,56
321,47	1263,60
321,69	1329,13
321,90	1224,69
322,11	1232,88
322,32	1286,12
322,54	1314,80
322,75	1296,36
322,96	1245,16
323,18	1298,41
323,39	1314,80
323,60	1286,12
323,81	1286,12
324,03	1247,21
324,24	1251,31
324,45	1261,55
324,66	1261,55
324,88	1343,47
325,09	1300,46
325,30	1320,94
325,52	1255,40
325,73	1290,22
325,94	1275,88
326,15	1304,56
326,37	1306,60
326,58	1236,97
326,79	1384,43
327,00	1175,53
327,22	1267,69
327,43	1271,79
327,64	1228,78
327,85	1269,74
328,07	1347,56
328,28	1267,69
328,49	1247,21
328,70	1275,88
328,92	1353,71
329,13	1247,21
329,34	1327,08
329,55	1308,65
329,76	1331,18
329,98	1322,99
330,19	1306,60
330,40	1322,99
330,61	1337,32
330,83	1206,25
331,04	1296,36
331,25	1329,13
331,46	1185,77
331,68	1273,84
331,89	1255,40
332,10	1294,32
332,31	1277,93
332,52	1241,07
332,74	1306,60
332,95	1277,93
333,16	1282,03
333,37	1277,93
333,58	1263,60
333,80	1200,11
334,01	1249,26
334,22	1292,27
334,43	1224,69
334,64	1294,32
334,86	1230,83
335,07	1296,36
335,28	1265,64
335,49	1284,08
335,70	1298,41
335,92	1247,21
336,13	1384,43
336,34	1220,59
336,55	1322,99
336,76	1247,21
336,98	1345,52
337,19	1322,99
337,40	1290,22
337,61	1345,52
337,82	1327,08
338,04	1234,93
338,25	1261,55
338,46	1259,50
338,67	1267,69
338,88	1279,98
339,09	1257,45
339,31	1308,65
339,52	1298,41
339,73	1357,80
339,94	1249,26
340,15	1279,98
340,36	1249,26
340,58	1257,45
340,79	1245,16
341,00	1218,54
341,21	1318,89
341,42	1286,12
341,63	1271,79
341,85	1257,45
342,06	1245,16
342,27	1267,69
342,48	1320,94
342,69	1294,32
342,90	1308,65
343,12	1255,40
343,33	1282,03
343,54	1193,97
343,75	1347,56
343,96	1253,36
344,17	1279,98
344,38	1247,21
344,60	1294,32
344,81	1265,64
345,02	1292,27
345,23	1273,84
345,44	1302,51
345,65	1322,99
345,86	1222,64
346,07	1312,75
346,29	1245,16
346,50	1290,22
346,71	1294,32
346,92	1204,21
347,13	1286,12
347,34	1292,27
347,55	1335,28
347,76	1261,55
347,98	1296,36
348,19	1386,47
348,40	1275,88
348,61	1257,45
348,82	1294,32
349,03	1232,88
349,24	1241,07
349,45	1290,22
349,66	1261,55
349,88	1249,26
350,09	1308,65
350,30	1288,17
350,51	1265,64
350,72	1296,36
350,93	1273,84
351,14	1263,60
351,35	1218,54
351,56	1271,79
351,77	1255,40
351,99	1232,88
352,20	1251,31
352,41	1355,76
352,62	1333,23
352,83	1300,46
353,04	1273,84
353,25	1300,46
353,46	1294,32
353,67	1216,49
353,88	1294,32
354,09	1286,12
354,30	1239,02
354,52	1308,65
354,73	1247,21
354,94	1251,31
355,15	1302,51
355,36	1304,56
355,57	1341,42
355,78	1292,27
355,99	1243,12
356,20	1269,74
356,41	1277,93
356,62	1277,93
356,83	1374,19
357,04	1273,84
357,25	1322,99
357,46	1230,83
357,68	1327,08
357,89	1267,69
358,10	1351,66
358,31	1175,53
358,52	1263,60
358,73	1310,70
358,94	1232,88
359,15	1261,55
359,36	1318,89
359,57	1234,93
359,78	1279,98
359,99	1239,02
360,20	1228,78
360,41	1232,88
360,62	1325,04
360,83	1210,35
361,04	1245,16
361,25	1241,07
361,46	1325,04
361,67	1294,32
361,88	1363,95
362,09	1261,55
362,30	1214,45
362,51	1302,51
362,72	1329,13
362,93	1253,36
363,14	1357,80
363,35	1329,13
363,56	1279,98
363,78	1316,84
363,99	1261,55
364,20	1294,32
364,41	1292,27
364,62	1316,84
364,83	1290,22
365,04	1267,69
365,25	1247,21
365,46	1306,60
365,67	1275,88
365,88	1249,26
366,09	1259,50
366,30	1222,64
366,51	1222,64
366,72	1230,83
366,93	1339,37
367,14	1277,93
367,35	1314,80
367,56	1392,62
367,77	1271,79
367,98	1265,64
368,18	1296,36
368,39	1249,26
368,60	1335,28
368,81	1277,93
369,02	1269,74
369,23	1306,60
369,44	1255,40
369,65	1218,54
369,86	1271,79
370,07	1234,93
370,28	1247,21
370,49	1277,93
370,70	1298,41
370,91	1249,26
371,12	1220,59
371,33	1351,66
371,54	1271,79
371,75	1318,89
371,96	1314,80
372,17	1212,40
372,38	1206,25
372,59	1310,70
372,80	1284,08
373,01	1157,10
373,22	1263,60
373,43	1316,84
373,64	1226,73
373,85	1277,93
374,06	1347,56
374,26	1277,93
374,47	1296,36
374,68	1306,60
374,89	1271,79
375,10	1267,69
375,31	1306,60
375,52	1224,69
375,73	1341,42
375,94	1236,97
376,15	1325,04
376,36	1222,64
376,57	1257,45
376,78	1265,64
376,99	1339,37
377,20	1255,40
377,40	1273,84
377,61	1249,26
377,82	1298,41
378,03	1306,60
378,24	1282,03
378,45	1249,26
378,66	1331,18
378,87	1308,65
379,08	1294,32
379,29	1228,78
379,50	1253,36
379,71	1224,69
379,91	1339,37
380,12	1286,12
380,33	1277,93
380,54	1292,27
380,75	1230,83
380,96	1282,03
381,17	1286,12
381,38	1284,08
381,59	1337,32
381,80	1327,08
382,00	1286,12
382,21	1249,26
382,42	1288,17
382,63	1339,37
382,84	1290,22
383,05	1245,16
383,26	1279,98
383,47	1267,69
383,68	1296,36
383,88	1263,60
384,09	1253,36
384,30	1279,98
384,51	1304,56
384,72	1271,79
384,93	1296,36
385,14	1259,50
385,35	1216,49
385,55	1273,84
385,76	1282,03
385,97	1275,88
386,18	1251,31
386,39	1302,51
386,60	1234,93
386,81	1339,37
387,02	1341,42
387,22	1210,35
387,43	1275,88
387,64	1286,12
387,85	1312,75
388,06	1318,89
388,27	1312,75
388,48	1376,24
388,68	1304,56
388,89	1308,65
389,10	1196,01
389,31	1224,69
389,52	1294,32
389,73	1296,36
389,93	1210,35
390,14	1308,65
390,35	1245,16
390,56	1261,55
390,77	1181,68
390,98	1335,28
391,18	1226,73
391,39	1282,03
391,60	1263,60
391,81	1271,79
392,02	1337,32
392,23	1251,31
392,43	1325,04
392,64	1255,40
392,85	1249,26
393,06	1261,55
393,27	1304,56
393,47	1236,97
393,68	1241,07
393,89	1298,41
394,10	1263,60
394,31	1288,17
394,52	1322,99
394,72	1284,08
394,93	1306,60
395,14	1271,79
395,35	1294,32
395,56	1296,36
395,76	1232,88
395,97	1320,94
396,18	1339,37
396,39	1177,58
396,60	1296,36
396,80	1298,41
397,01	1290,22
397,22	1220,59
397,43	1271,79
397,64	1302,51
397,84	1189,87
398,05	1320,94
398,26	1251,31
398,47	1306,60
398,67	1228,78
398,88	1263,60
399,09	1304,56
399,30	1302,51
399,51	1251,31
399,71	1193,97
399,92	1249,26
400,13	1310,70
400,34	1263,60
400,54	1236,97
400,75	1296,36
400,96	1308,65
401,17	1218,54
401,37	1333,23
401,58	1253,36
401,79	1271,79
402,00	1300,46
402,21	1290,22
402,41	1306,60
402,62	1267,69
402,83	1286,12
403,04	1314,80
403,24	1189,87
403,45	1255,40
403,66	1261,55
403,87	1208,30
404,07	1331,18
404,28	1249,26
404,49	1304,56
404,70	1329,13
404,90	1345,52
405,11	1286,12
405,32	1267,69
405,52	1261,55
405,73	1251,31
405,94	1298,41
406,15	1314,80
406,35	1196,01
406,56	1353,71
406,77	1300,46
406,98	1226,73
407,18	1255,40
407,39	1335,28
407,60	1249,26
407,80	1202,16
408,01	1294,32
408,22	1275,88
408,43	1257,45
408,63	1318,89
408,84	1261,55
409,05	1275,88
409,25	1241,07
409,46	1284,08
409,67	1196,01
409,88	1312,75
410,08	1245,16
410,29	1241,07
410,50	1241,07
410,70	1345,52
410,91	1202,16
411,12	1230,83
411,32	1263,60
411,53	1279,98
411,74	1198,06
411,95	1314,80
412,15	1247,21
412,36	1298,41
412,57	1306,60
412,77	1265,64
412,98	1265,64
413,19	1265,64
413,39	1273,84
413,60	1279,98
413,81	1296,36
414,01	1271,79
414,22	1320,94
414,43	1331,18
414,63	1265,64
414,84	1308,65
415,05	1273,84
415,25	1298,41
415,46	1243,12
415,67	1298,41
415,87	1226,73
416,08	1224,69
416,29	1255,40
416,49	1294,32
416,70	1263,60
416,91	1271,79
417,11	1320,94
417,32	1314,80
417,53	1296,36
417,73	1306,60
417,94	1206,25
418,15	1232,88
418,35	1335,28
418,56	1269,74
418,77	1347,56
418,97	1306,60
419,18	1288,17
419,38	1210,35
419,59	1230,83
419,80	1294,32
420,00	1249,26
420,21	1216,49
420,42	1335,28
420,62	1220,59
420,83	1296,36
421,04	1265,64
421,24	1310,70
421,45	1296,36
421,65	1212,40
421,86	1314,80
422,07	1335,28
422,27	1220,59
422,48	1316,84
422,69	1263,60
422,89	1239,02
423,10	1288,17
423,30	1290,22
423,51	1247,21
423,72	1357,80
423,92	1261,55
424,13	1314,80
424,33	1271,79
424,54	1277,93
424,75	1277,93
424,95	1279,98
425,16	1275,88
425,36	1267,69
425,57	1306,60
425,78	1366,00
425,98	1251,31
426,19	1273,84
426,39	1300,46
426,60	1228,78
426,81	1239,02
427,01	1241,07
427,22	1337,32
427,42	1247,21
427,63	1255,40
427,83	1228,78
428,04	1263,60
428,25	1204,21
428,45	1282,03
428,66	1249,26
428,86	1210,35
429,07	1290,22
429,28	1228,78
429,48	1302,51
429,69	1279,98
429,89	1298,41
430,10	1282,03
430,30	1359,85
430,51	1298,41
430,71	1337,32
430,92	1298,41
431,13	1282,03
431,33	1277,93
431,54	1255,40
431,74	1245,16
431,95	1300,46
432,15	1277,93
432,36	1296,36
432,56	1267,69
432,77	1236,97
432,98	1232,88
433,18	1296,36
433,39	1232,88
433,59	1351,66
433,80	1320,94
434,00	1277,93
434,21	1255,40
434,41	1308,65
434,62	1249,26
434,82	1290,22
435,03	1288,17
435,23	1275,88
435,44	1261,55
435,64	1247,21
435,85	1308,65
436,06	1282,03
436,26	1304,56
436,47	1288,17
436,67	1255,40
436,88	1204,21
437,08	1257,45
437,29	1294,32
437,49	1273,84
437,70	1296,36
437,90	1196,01
438,11	1296,36
438,31	1286,12
438,52	1284,08
438,72	1271,79
438,93	1296,36
439,13	1296,36
439,34	1206,25
439,54	1306,60
439,75	1220,59
439,95	1318,89
440,16	1259,50
440,36	1351,66
440,57	1269,74
440,77	1257,45
440,98	1298,41
441,18	1273,84
441,39	1224,69
441,59	1208,30
441,80	1220,59
442,00	1216,49
442,21	1277,93
442,41	1241,07
442,62	1232,88
442,82	1241,07
443,02	1271,79
443,23	1288,17
443,43	1255,40
443,64	1302,51
443,84	1230,83
444,05	1304,56
444,25	1263,60
444,46	1333,23
444,66	1261,55
444,87	1337,32
445,07	1265,64
445,28	1265,64
445,48	1308,65
445,69	1259,50
445,89	1220,59
446,09	1312,75
446,30	1335,28
446,50	1288,17
446,71	1249,26
446,91	1234,93
447,12	1265,64
447,32	1294,32
447,53	1312,75
447,73	1267,69
447,93	1257,45
448,14	1294,32
448,34	1273,84
448,55	1292,27
448,75	1304,56
448,96	1343,47
449,16	1247,21
449,36	1249,26
449,57	1220,59
449,77	1259,50
449,98	1253,36
450,18	1316,84
450,39	1286,12
450,59	1275,88
450,79	1282,03
451,00	1306,60
451,20	1335,28
451,41	1304,56
451,61	1279,98
451,81	1257,45
452,02	1355,76
452,22	1312,75
452,43	1298,41
452,63	1347,56
452,84	1298,41
453,04	1234,93
453,24	1269,74
453,45	1181,68
453,65	1267,69
453,86	1304,56
454,06	1269,74
454,26	1224,69
454,47	1210,35
454,67	1232,88
454,87	1304,56
455,08	1318,89
455,28	1288,17
455,49	1239,02
455,69	1251,31
455,89	1363,95
456,10	1333,23
456,30	1249,26
456,51	1255,40
456,71	1253,36
456,91	1269,74
457,12	1279,98
457,32	1267,69
457,52	1255,40
457,73	1359,85
457,93	1257,45
458,14	1265,64
458,34	1234,93
458,54	1202,16
458,75	1302,51
458,95	1318,89
459,15	1294,32
459,36	1191,92
459,56	1265,64
459,76	1325,04
459,97	1286,12
460,17	1216,49
460,37	1337,32
460,58	1243,12
460,78	1277,93
460,99	1216,49
461,19	1294,32
461,39	1232,88
461,60	1267,69
461,80	1341,42
462,00	1277,93
462,21	1261,55
462,41	1249,26
462,61	1308,65
462,82	1273,84
463,02	1304,56
463,22	1329,13
463,43	1318,89
463,63	1359,85
463,83	1284,08
464,04	1261,55
464,24	1263,60
464,44	1236,97
464,64	1214,45
464,85	1267,69
465,05	1282,03
465,25	1345,52
465,46	1232,88
465,66	1210,35
465,86	1277,93
466,07	1249,26
466,27	1249,26
466,47	1249,26
466,68	1304,56
466,88	1351,66
467,08	1277,93
467,29	1234,93
467,49	1388,52
467,69	1277,93
467,89	1230,83
468,10	1318,89
468,30	1298,41
468,50	1230,83
468,71	1292,27
468,91	1298,41
469,11	1290,22
469,31	1259,50
469,52	1318,89
469,72	1259,50
469,92	1277,93
470,13	1308,65
470,33	1292,27
470,53	1255,40
470,73	1263,60
470,94	1337,32
471,14	1314,80
471,34	1251,31
471,54	1251,31
471,75	1296,36
471,95	1226,73
472,15	1183,73
472,36	1251,31
472,56	1255,40
472,76	1300,46
472,96	1236,97
473,17	1259,50
473,37	1284,08
473,57	1251,31
473,77	1353,71
473,98	1329,13
474,18	1331,18
474,38	1275,88
474,58	1255,40
474,79	1230,83
474,99	1310,70
475,19	1300,46
475,39	1304,56
475,60	1218,54
475,80	1310,70
476,00	1277,93
476,20	1282,03
476,41	1320,94
476,61	1322,99
476,81	1243,12
477,01	1259,50
477,21	1341,42
477,42	1300,46
477,62	1298,41
477,82	1234,93
478,02	1265,64
478,23	1259,50
478,43	1279,98
478,63	1320,94
478,83	1241,07
479,03	1320,94
479,24	1327,08
479,44	1263,60
479,64	1284,08
479,84	1296,36
480,04	1187,82
480,25	1265,64
480,45	1216,49
480,65	1269,74
480,85	1236,97
481,06	1284,08
481,26	1304,56
481,46	1206,25
481,66	1224,69
481,86	1206,25
482,06	1294,32
482,27	1294,32
482,47	1298,41
482,67	1349,61
482,87	1306,60
483,07	1320,94
483,28	1302,51
483,48	1273,84
483,68	1318,89
483,88	1255,40
484,08	1302,51
484,29	1284,08
484,49	1304,56
484,69	1331,18
484,89	1265,64
485,09	1273,84
485,29	1275,88
485,50	1322,99
485,70	1312,75
485,90	1275,88
486,10	1243,12
486,30	1306,60
486,50	1329,13
486,71	1296,36
486,91	1286,12
487,11	1320,94
487,31	1265,64
487,51	1271,79
487,71	1314,80
487,91	1263,60
488,12	1363,95
488,32	1259,50
488,52	1273,84
488,72	1292,27
488,92	1292,27
489,12	1286,12
489,32	1316,84
489,53	1351,66
489,73	1296,36
489,93	1269,74
490,13	1245,16
490,33	1263,60
490,53	1259,50
490,73	1339,37
490,94	1302,51
491,14	1279,98
491,34	1312,75
491,54	1322,99
491,74	1232,88
491,94	1234,93
492,14	1220,59
492,34	1247,21
492,54	1325,04
492,75	1349,61
492,95	1236,97
493,15	1234,93
493,35	1286,12
493,55	1271,79
493,75	1282,03
493,95	1282,03
494,15	1308,65
494,35	1275,88
494,56	1255,40
494,76	1269,74
494,96	1251,31
495,16	1290,22
495,36	1322,99
495,56	1269,74
495,76	1300,46
495,96	1288,17
496,16	1265,64
496,36	1259,50
496,56	1308,65
496,77	1322,99
496,97	1296,36
497,17	1378,28
497,37	1196,01
497,57	1380,33
497,77	1284,08
497,97	1253,36
498,17	1214,45
498,37	1296,36
498,57	1279,98
498,77	1273,84
498,97	1331,18
499,17	1265,64
499,38	1220,59
499,58	1333,23
499,78	1282,03
499,98	1222,64
500,18	1286,12
500,38	1314,80
500,58	1224,69
500,78	1249,26
500,98	1267,69
501,18	1316,84
501,38	1239,02
501,58	1302,51
501,78	1263,60
501,98	1239,02
502,18	1257,45
502,38	1212,40
502,58	1224,69
502,78	1310,70
502,98	1277,93
503,18	1378,28
503,38	1366,00
503,59	1306,60
503,79	1312,75
503,99	1257,45
504,19	1226,73
504,39	1290,22
504,59	1290,22
504,79	1249,26
504,99	1271,79
505,19	1304,56
505,39	1228,78
505,59	1257,45
505,79	1247,21
505,99	1277,93
506,19	1251,31
506,39	1261,55
506,59	1247,21
506,79	1216,49
506,99	1320,94
507,19	1337,32
507,39	1222,64
507,59	1273,84
507,79	1253,36
507,99	1290,22
508,19	1300,46
508,39	1265,64
508,59	1243,12
508,79	1265,64
508,99	1232,88
509,19	1269,74
509,39	1277,93
509,59	1257,45
509,79	1253,36
509,99	1277,93
510,19	1294,32
510,39	1290,22
510,59	1239,02
510,79	1296,36
510,99	1277,93
511,19	1294,32
511,39	1312,75
511,59	1267,69
511,79	1265,64
511,99	1271,79
512,19	1329,13
512,38	1275,88
512,58	1263,60
512,78	1279,98
512,98	1263,60
513,18	1327,08
513,38	1245,16
513,58	1329,13
513,78	1224,69
513,98	1298,41
514,18	1232,88
514,38	1308,65
514,58	1228,78
514,78	1175,53
514,98	1329,13
515,18	1251,31
515,38	1255,40
515,58	1306,60
515,78	1261,55
515,98	1288,17
516,18	1275,88
516,38	1314,80
516,57	1290,22
516,77	1294,32
516,97	1269,74
517,17	1279,98
517,37	1185,77
517,57	1288,17
517,77	1261,55
517,97	1224,69
518,17	1277,93
518,37	1288,17
518,57	1243,12
518,77	1236,97
518,97	1247,21
519,16	1337,32
519,36	1296,36
519,56	1273,84
519,76	1255,40
519,96	1298,41
520,16	1310,70
520,36	1286,12
520,56	1218,54
520,76	1306,60
520,96	1265,64
521,16	1232,88
521,35	1318,89
521,55	1300,46
521,75	1187,82
521,95	1296,36
522,15	1327,08
522,35	1331,18
522,55	1286,12
522,75	1314,80
522,95	1329,13
523,14	1216,49
523,34	1255,40
523,54	1249,26
523,74	1247,21
523,94	1271,79
524,14	1294,32
524,34	1290,22
524,54	1273,84
524,73	1253,36
524,93	1306,60
525,13	1263,60
525,33	1251,31
525,53	1249,26
525,73	1228,78
525,93	1255,40
526,13	1304,56
526,32	1296,36
526,52	1279,98
526,72	1355,76
526,92	1290,22
527,12	1247,21
527,32	1251,31
527,52	1296,36
527,71	1277,93
527,91	1245,16
528,11	1251,31
528,31	1261,55
528,51	1239,02
528,71	1292,27
528,90	1230,83
529,10	1218,54
529,30	1294,32
529,50	1310,70
529,70	1236,97
529,90	1265,64
530,09	1298,41
530,29	1269,74
530,49	1290,22
530,69	1214,45
530,89	1325,04
531,09	1333,23
531,28	1263,60
531,48	1222,64
531,68	1271,79
531,88	1288,17
532,08	1282,03
532,28	1310,70
532,47	1290,22
532,67	1329,13
532,87	1318,89
533,07	1200,11
533,27	1222,64
533,46	1300,46
533,66	1277,93
533,86	1265,64
534,06	1282,03
534,26	1255,40
534,45	1249,26
534,65	1253,36
534,85	1292,27
535,05	1261,55
535,25	1218,54
535,44	1298,41
535,64	1241,07
535,84	1271,79
536,04	1198,06
536,24	1300,46
536,43	1251,31
536,63	1243,12
536,83	1286,12
537,03	1279,98
537,22	1267,69
537,42	1236,97
537,62	1253,36
537,82	1228,78
538,02	1257,45
538,21	1304,56
538,41	1337,32
538,61	1322,99
538,81	1163,25
539,00	1322,99
539,20	1214,45
539,40	1331,18
539,60	1269,74
539,79	1277,93
539,99	1257,45
540,19	1247,21
540,39	1310,70
540,58	1288,17
540,78	1247,21
540,98	1292,27
541,18	1300,46
541,37	1290,22
541,57	1214,45
541,77	1298,41
541,97	1224,69
542,16	1294,32
542,36	1245,16
542,56	1318,89
542,76	1290,22
542,95	1325,04
543,15	1243,12
543,35	1265,64
543,54	1286,12
543,74	1288,17
543,94	1251,31
544,14	1245,16
544,33	1275,88
544,53	1300,46
544,73	1277,93
544,93	1247,21
545,12	1273,84
545,32	1224,69
545,52	1212,40
545,71	1269,74
545,91	1265,64
546,11	1320,94
546,30	1269,74
546,50	1271,79
546,70	1226,73
546,90	1241,07
547,09	1177,58
547,29	1294,32
547,49	1163,25
547,68	1294,32
547,88	1259,50
548,08	1341,42
548,27	1361,90
548,47	1273,84
548,67	1271,79
548,87	1327,08
549,06	1277,93
549,26	1286,12
549,46	1232,88
549,65	1269,74
549,85	1269,74
550,05	1253,36
550,24	1245,16
550,44	1241,07
550,64	1251,31
550,83	1247,21
551,03	1282,03
551,23	1247,21
551,42	1304,56
551,62	1249,26
551,82	1269,74
552,01	1267,69
552,21	1230,83
552,41	1298,41
552,60	1284,08
552,80	1286,12
553,00	1220,59
553,19	1288,17
553,39	1277,93
553,59	1177,58
553,78	1253,36
553,98	1279,98
554,17	1294,32
554,37	1290,22
554,57	1290,22
554,76	1300,46
554,96	1320,94
555,16	1318,89
555,35	1243,12
555,55	1220,59
555,75	1243,12
555,94	1271,79
556,14	1232,88
556,33	1304,56
556,53	1302,51
556,73	1271,79
556,92	1329,13
557,12	1241,07
557,32	1312,75
557,51	1279,98
557,71	1320,94
557,90	1234,93
558,10	1257,45
558,30	1282,03
558,49	1304,56
558,69	1277,93
558,88	1271,79
559,08	1236,97
559,28	1257,45
559,47	1198,06
559,67	1308,65
559,86	1284,08
560,06	1257,45
560,26	1314,80
560,45	1318,89
560,65	1251,31
560,84	1218,54
561,04	1306,60
561,24	1286,12
561,43	1322,99
561,63	1200,11
561,82	1220,59
562,02	1353,71
562,22	1245,16
562,41	1273,84
562,61	1308,65
562,80	1245,16
563,00	1271,79
563,19	1339,37
563,39	1306,60
563,59	1218,54
563,78	1282,03
563,98	1273,84
564,17	1318,89
564,37	1259,50
564,56	1277,93
564,76	1294,32
564,96	1277,93
565,15	1279,98
565,35	1345,52
565,54	1277,93
565,74	1290,22
565,93	1249,26
566,13	1253,36
566,32	1355,76
566,52	1288,17
566,71	1286,12
566,91	1292,27
567,11	1245,16
567,30	1368,04
567,50	1279,98
567,69	1302,51
567,89	1267,69
568,08	1251,31
568,28	1327,08
568,47	1296,36
568,67	1251,31
568,86	1298,41
569,06	1361,90
569,25	1247,21
569,45	1316,84
569,64	1290,22
569,84	1327,08
570,04	1226,73
570,23	1255,40
570,43	1271,79
570,62	1251,31
570,82	1269,74
571,01	1224,69
571,21	1232,88
571,40	1294,32
571,60	1306,60
571,79	1290,22
571,99	1224,69
572,18	1239,02
572,38	1279,98
572,57	1296,36
572,77	1296,36
572,96	1292,27
573,16	1275,88
573,35	1277,93
573,55	1286,12
573,74	1196,01
573,94	1320,94
574,13	1294,32
574,33	1222,64
574,52	1306,60
574,71	1277,93
574,91	1271,79
575,10	1259,50
575,30	1257,45
575,49	1333,23
575,69	1282,03
575,88	1327,08
576,08	1220,59
576,27	1288,17
576,47	1366,00
576,66	1241,07
576,86	1294,32
577,05	1286,12
577,25	1261,55
577,44	1286,12
577,64	1265,64
577,83	1275,88
578,02	1331,18
578,22	1273,84
578,41	1331,18
578,61	1261,55
578,80	1243,12
579,00	1314,80
579,19	1296,36
579,39	1212,40
579,58	1296,36
579,77	1185,77
579,97	1282,03
580,16	1335,28
580,36	1284,08
580,55	1265,64
580,75	1232,88
580,94	1300,46
581,13	1337,32
581,33	1247,21
581,52	1286,12
581,72	1286,12
581,91	1286,12
582,11	1263,60
582,30	1267,69
582,49	1294,32
582,69	1292,27
582,88	1267,69
583,08	1304,56
583,27	1261,55
583,47	1167,34
583,66	1339,37
583,85	1298,41
584,05	1269,74
584,24	1265,64
584,44	1327,08
584,63	1314,80
584,82	1267,69
585,02	1284,08
585,21	1275,88
585,41	1331,18
585,60	1247,21
585,79	1224,69
585,99	1210,35
586,18	1253,36
586,37	1296,36
586,57	1284,08
586,76	1284,08
586,96	1300,46
587,15	1239,02
587,34	1296,36
587,54	1314,80
587,73	1314,80
587,93	1304,56
588,12	1325,04
588,31	1286,12
588,51	1279,98
588,70	1273,84
588,89	1327,08
589,09	1273,84
589,28	1257,45
589,47	1239,02
589,67	1202,16
589,86	1263,60
590,06	1253,36
590,25	1212,40
590,44	1267,69
590,64	1290,22
590,83	1265,64
591,02	1232,88
591,22	1308,65
591,41	1249,26
591,60	1320,94
591,80	1273,84
591,99	1322,99
592,18	1269,74
592,38	1288,17
592,57	1220,59
592,76	1265,64
592,96	1228,78
593,15	1253,36
593,34	1308,65
593,54	1322,99
593,73	1298,41
593,92	1318,89
594,12	1306,60
594,31	1196,01
594,50	1288,17
594,70	1300,46
594,89	1255,40
595,08	1304,56
595,28	1277,93
595,47	1318,89
595,66	1333,23
595,86	1282,03
596,05	1261,55
596,24	1257,45
596,43	1288,17
596,63	1298,41
596,82	1290,22
597,01	1288,17
597,21	1193,97
597,40	1290,22
597,59	1345,52
597,79	1239,02
597,98	1273,84
598,17	1232,88
598,36	1292,27
598,56	1312,75
598,75	1245,16
598,94	1271,79
599,14	1318,89
599,33	1314,80
599,52	1247,21
599,71	1230,83
599,91	1230,83
600,10	1284,08
600,29	1308,65
600,48	1245,16
600,68	1189,87
600,87	1228,78
601,06	1290,22
601,26	1267,69
601,45	1265,64
601,64	1218,54
601,83	1273,84
602,03	1314,80
602,22	1251,31
602,41	1288,17
602,60	1322,99
602,80	1255,40
602,99	1228,78
603,18	1279,98
603,37	1296,36
603,57	1296,36
603,76	1271,79
603,95	1253,36
604,14	1314,80
604,34	1216,49
604,53	1232,88
604,72	1302,51
604,91	1286,12
605,10	1298,41
605,30	1273,84
605,49	1353,71
605,68	1325,04
605,87	1218,54
606,07	1255,40
606,26	1247,21
606,45	1253,36
606,64	1245,16
606,84	1269,74
607,03	1243,12
607,22	1288,17
607,41	1277,93
607,60	1263,60
607,80	1335,28
607,99	1245,16
608,18	1271,79
608,37	1331,18
608,56	1214,45
608,76	1251,31
608,95	1273,84
609,14	1290,22
609,33	1277,93
609,52	1286,12
609,72	1282,03
609,91	1259,50
610,10	1183,73
610,29	1302,51
610,48	1284,08
610,68	1255,40
610,87	1269,74
611,06	1253,36
611,25	1277,93
611,44	1322,99
611,63	1322,99
611,83	1257,45
612,02	1277,93
612,21	1380,33
612,40	1267,69
612,59	1320,94
612,79	1214,45
612,98	1288,17
613,17	1290,22
613,36	1259,50
613,55	1253,36
613,74	1357,80
613,93	1251,31
614,13	1220,59
614,32	1206,25
614,51	1296,36
614,70	1249,26
614,89	1230,83
615,08	1290,22
615,28	1236,97
615,47	1271,79
615,66	1290,22
615,85	1220,59
616,04	1288,17
616,23	1290,22
616,42	1253,36
616,62	1279,98
616,81	1304,56
617,00	1290,22
617,19	1284,08
617,38	1265,64
617,57	1275,88
617,76	1220,59
617,95	1312,75
618,15	1265,64
618,34	1339,37
618,53	1259,50
618,72	1239,02
618,91	1300,46
619,10	1277,93
619,29	1298,41
619,48	1290,22
619,68	1302,51
619,87	1245,16
620,06	1347,56
620,25	1243,12
620,44	1273,84
620,63	1343,47
620,82	1294,32
621,01	1318,89
621,20	1282,03
621,39	1282,03
621,59	1275,88
621,78	1333,23
621,97	1224,69
622,16	1343,47
622,35	1243,12
622,54	1320,94
622,73	1261,55
622,92	1345,52
623,11	1288,17
623,30	1271,79
623,49	1308,65
623,68	1325,04
623,88	1253,36
624,07	1261,55
624,26	1249,26
624,45	1255,40
624,64	1228,78
624,83	1306,60
625,02	1284,08
625,21	1261,55
625,40	1306,60
625,59	1288,17
625,78	1282,03
625,97	1306,60
626,16	1247,21
626,35	1279,98
626,54	1306,60
626,74	1304,56
626,93	1370,09
627,12	1290,22
627,31	1257,45
627,50	1320,94
627,69	1355,76
627,88	1302,51
628,07	1353,71
628,26	1294,32
628,45	1320,94
628,64	1339,37
628,83	1312,75
629,02	1298,41
629,21	1243,12
629,40	1251,31
629,59	1337,32
629,78	1312,75
629,97	1339,37
630,16	1302,51
630,35	1298,41
630,54	1353,71
630,73	1304,56
630,92	1331,18
631,11	1292,27
631,30	1372,14
631,49	1329,13
631,68	1273,84
631,87	1423,34
632,06	1581,03
632,25	1497,07
632,44	1521,64
632,63	1808,36
632,82	2222,05
633,01	2494,43
633,20	2523,10
633,39	2549,72
633,58	2328,54
633,77	1992,67
633,96	2246,62
634,15	2719,70
634,34	2922,45
634,53	2680,79
634,72	2211,81
634,91	1869,80
635,10	1771,49
635,29	1699,81
635,48	1675,24
635,67	1624,04
635,86	1540,07
636,05	1519,59
636,24	1435,63
636,43	1382,38
636,62	1384,43
636,81	1392,62
637,00	1339,37
637,19	1404,91
637,38	1339,37
637,57	1404,91
637,76	1394,67
637,95	1257,45
638,14	1394,67
638,33	1288,17
638,52	1386,47
638,71	1314,80
638,89	1322,99
639,08	1224,69
639,27	1308,65
639,46	1318,89
639,65	1265,64
639,84	1292,27
640,03	1296,36
640,22	1265,64
640,41	1304,56
640,60	1322,99
640,79	1249,26
640,98	1304,56
641,17	1314,80
641,36	1282,03
641,55	1310,70
641,74	1339,37
641,92	1259,50
642,11	1251,31
642,30	1296,36
642,49	1312,75
642,68	1269,74
642,87	1236,97
643,06	1271,79
643,25	1181,68
643,44	1239,02
643,63	1206,25
643,82	1282,03
644,00	1343,47
644,19	1251,31
644,38	1273,84
644,57	1302,51
644,76	1224,69
644,95	1245,16
645,14	1255,40
645,33	1333,23
645,52	1265,64
645,71	1335,28
645,89	1273,84
646,08	1249,26
646,27	1380,33
646,46	1318,89
646,65	1232,88
646,84	1327,08
647,03	1302,51
647,22	1409,00
647,40	1331,18
647,59	1206,25
647,78	1306,60
647,97	1327,08
648,16	1234,93
648,35	1312,75
648,54	1312,75
648,73	1314,80
648,91	1239,02
649,10	1298,41
649,29	1220,59
649,48	1290,22
649,67	1300,46
649,86	1253,36
650,05	1251,31
650,23	1267,69
650,42	1318,89
650,61	1241,07
650,80	1282,03
650,99	1275,88
651,18	1212,40
651,36	1275,88
651,55	1208,30
651,74	1251,31
651,93	1271,79
652,12	1234,93
652,31	1241,07
652,49	1251,31
652,68	1241,07
652,87	1241,07
653,06	1288,17
653,25	1290,22
653,44	1257,45
653,62	1263,60
653,81	1288,17
654,00	1243,12
654,19	1294,32
654,38	1298,41
654,56	1247,21
654,75	1288,17
654,94	1298,41
655,13	1290,22
655,32	1267,69
655,51	1279,98
655,69	1308,65
655,88	1206,25
656,07	1216,49
656,26	1306,60
656,45	1308,65
656,63	1312,75
656,82	1273,84
657,01	1251,31
657,20	1284,08
657,38	1265,64
657,57	1218,54
657,76	1273,84
657,95	1310,70
658,14	1249,26
658,32	1271,79
658,51	1271,79
658,70	1318,89
658,89	1245,16
659,08	1249,26
659,26	1273,84
659,45	1257,45
659,64	1271,79
659,83	1312,75
660,01	1259,50
660,20	1206,25
660,39	1325,04
660,58	1273,84
660,76	1232,88
660,95	1267,69
661,14	1372,14
661,33	1216,49
661,51	1273,84
661,70	1210,35
661,89	1345,52
662,08	1318,89
662,26	1286,12
662,45	1251,31
662,64	1236,97
662,83	1230,83
663,01	1245,16
663,20	1247,21
663,39	1245,16
663,58	1267,69
663,76	1224,69
663,95	1273,84
664,14	1249,26
664,32	1290,22
664,51	1294,32
664,70	1253,36
664,89	1232,88
665,07	1273,84
665,26	1298,41
665,45	1261,55
665,64	1251,31
665,82	1214,45
666,01	1304,56
666,20	1234,93
666,38	1288,17
666,57	1273,84
666,76	1298,41
666,95	1286,12
667,13	1239,02
667,32	1265,64
667,51	1306,60
667,69	1271,79
667,88	1230,83
668,07	1298,41
668,25	1325,04
668,44	1308,65
668,63	1273,84
668,81	1290,22
669,00	1290,22
669,19	1210,35
669,38	1214,45
669,56	1243,12
669,75	1259,50
669,94	1320,94
670,12	1345,52
670,31	1288,17
670,50	1282,03
670,68	1294,32
670,87	1253,36
671,06	1261,55
671,24	1325,04
671,43	1241,07
671,62	1314,80
671,80	1286,12
671,99	1216,49
672,18	1249,26
672,36	1304,56
672,55	1251,31
672,74	1288,17
672,92	1239,02
673,11	1259,50
673,29	1304,56
673,48	1230,83
673,67	1275,88
673,85	1300,46
674,04	1271,79
674,23	1245,16
674,41	1181,68
674,60	1296,36
674,79	1265,64
674,97	1333,23
675,16	1288,17
675,34	1214,45
675,53	1314,80
675,72	1198,06
675,90	1314,80
676,09	1245,16
676,28	1331,18
676,46	1312,75
676,65	1239,02
676,83	1349,61
677,02	1243,12
677,21	1290,22
677,39	1257,45
677,58	1331,18
677,77	1232,88
677,95	1318,89
678,14	1277,93
678,32	1214,45
678,51	1214,45
678,70	1322,99
678,88	1200,11
679,07	1318,89
679,25	1263,60
679,44	1228,78
679,63	1261,55
679,81	1277,93
680,00	1341,42
680,18	1208,30
680,37	1249,26
680,55	1310,70
680,74	1232,88
680,93	1241,07
681,11	1286,12
681,30	1298,41
681,48	1243,12
681,67	1302,51
681,85	1312,75
682,04	1261,55
682,23	1298,41
682,41	1292,27
682,60	1222,64
682,78	1294,32
682,97	1314,80
683,15	1271,79
683,34	1288,17
683,53	1298,41
683,71	1331,18
683,90	1241,07
684,08	1290,22
684,27	1198,06
684,45	1265,64
684,64	1302,51
684,82	1284,08
685,01	1288,17
685,19	1267,69
685,38	1224,69
685,57	1257,45
685,75	1265,64
685,94	1245,16
686,12	1306,60
686,31	1275,88
686,49	1363,95
686,68	1275,88
686,86	1259,50
687,05	1288,17
687,23	1269,74
687,42	1329,13
687,60	1241,07
687,79	1271,79
687,97	1232,88
688,16	1302,51
688,34	1296,36
688,53	1286,12
688,71	1310,70
688,90	1294,32
689,08	1304,56
689,27	1308,65
689,45	1296,36
689,64	1275,88
689,82	1243,12
690,01	1277,93
690,19	1218,54
690,38	1320,94
690,56	1236,97
690,75	1279,98
690,93	1298,41
691,12	1353,71
691,30	1337,32
691,49	1308,65
691,67	1314,80
691,86	1255,40
692,04	1212,40
692,23	1294,32
692,41	1265,64
692,60	1304,56
692,78	1304,56
692,97	1214,45
693,15	1173,49
693,34	1198,06
693,52	1249,26
693,71	1282,03
693,89	1331,18
694,08	1243,12
694,26	1304,56
694,44	1290,22
694,63	1245,16
694,81	1290,22
695,00	1243,12
695,18	1273,84
695,37	1327,08
695,55	1355,76
695,74	1275,88
695,92	1322,99
696,10	1251,31
696,29	1316,84
696,47	1218,54
696,66	1368,04
696,84	1357,80
697,03	1325,04
697,21	1243,12
697,40	1314,80
697,58	1279,98
697,76	1257,45
697,95	1247,21
698,13	1241,07
698,32	1271,79
698,50	1312,75
698,68	1265,64
698,87	1259,50
699,05	1277,93
699,24	1224,69
699,42	1253,36
699,61	1296,36
699,79	1273,84
699,97	1282,03
700,16	1249,26
700,34	1279,98
700,53	1339,37
700,71	1318,89
700,89	1146,86
701,08	1302,51
701,26	1228,78
701,45	1249,26
701,63	1234,93
701,81	1253,36
702,00	1310,70
702,18	1282,03
702,37	1255,40
702,55	1298,41
702,73	1253,36
702,92	1279,98
703,10	1251,31
703,28	1239,02
703,47	1361,90
703,65	1220,59
703,84	1243,12
704,02	1249,26
704,20	1339,37
704,39	1312,75
704,57	1243,12
704,75	1325,04
704,94	1288,17
705,12	1241,07
705,30	1189,87
705,49	1275,88
705,67	1290,22
705,86	1230,83
706,04	1239,02
706,22	1277,93
706,41	1255,40
706,59	1257,45
706,77	1236,97
706,96	1177,58
707,14	1286,12
707,32	1249,26
707,51	1320,94
707,69	1243,12
707,87	1249,26
708,06	1308,65
708,24	1239,02
708,42	1220,59
708,61	1302,51
708,79	1216,49
708,97	1247,21
709,16	1331,18
709,34	1253,36
709,52	1263,60
709,71	1243,12
709,89	1202,16
710,07	1349,61
710,26	1273,84
710,44	1247,21
710,62	1265,64
710,80	1271,79
710,99	1189,87
711,17	1249,26
711,35	1259,50
711,54	1288,17
711,72	1275,88
711,90	1273,84
712,09	1257,45
712,27	1314,80
712,45	1282,03
712,63	1191,92
712,82	1302,51
713,00	1261,55
713,18	1241,07
713,37	1282,03
713,55	1286,12
713,73	1236,97
713,91	1296,36
714,10	1189,87
714,28	1249,26
714,46	1267,69
714,65	1245,16
714,83	1282,03
715,01	1302,51
715,19	1271,79
715,38	1304,56
715,56	1243,12
715,74	1261,55
715,92	1255,40
716,11	1292,27
716,29	1196,01
716,47	1261,55
716,65	1245,16
716,84	1218,54
717,02	1263,60
717,20	1239,02
717,38	1220,59
717,57	1300,46
717,75	1298,41
717,93	1282,03
718,11	1296,36
718,30	1265,64
718,48	1294,32
718,66	1304,56
718,84	1314,80
719,03	1282,03
719,21	1259,50
719,39	1265,64
719,57	1333,23
719,75	1294,32
719,94	1253,36
720,12	1288,17
720,30	1288,17
720,48	1306,60
720,67	1357,80
720,85	1316,84
721,03	1288,17
721,21	1306,60
721,39	1290,22
721,58	1341,42
721,76	1298,41
721,94	1253,36
722,12	1335,28
722,30	1308,65
722,49	1261,55
722,67	1368,04
722,85	1226,73
723,03	1243,12
723,21	1265,64
723,40	1263,60
723,58	1341,42
723,76	1357,80
723,94	1249,26
724,12	1298,41
724,30	1257,45
724,49	1265,64
724,67	1318,89
724,85	1255,40
725,03	1308,65
725,21	1288,17
725,40	1292,27
725,58	1245,16
725,76	1320,94
725,94	1290,22
726,12	1259,50
726,30	1247,21
726,49	1239,02
726,67	1339,37
726,85	1236,97
727,03	1327,08
727,21	1236,97
727,39	1318,89
727,57	1241,07
727,76	1284,08
727,94	1279,98
728,12	1327,08
728,30	1333,23
728,48	1335,28
728,66	1226,73
728,84	1282,03
729,03	1294,32
729,21	1282,03
729,39	1267,69
729,57	1279,98
729,75	1347,56
729,93	1277,93
730,11	1322,99
730,30	1308,65
730,48	1327,08
730,66	1261,55
730,84	1339,37
731,02	1232,88
731,20	1259,50
731,38	1318,89
731,56	1271,79
731,74	1232,88
731,93	1273,84
732,11	1292,27
732,29	1277,93
732,47	1316,84
732,65	1292,27
732,83	1224,69
733,01	1273,84
733,19	1179,63
733,37	1247,21
733,56	1263,60
733,74	1284,08
733,92	1257,45
734,10	1282,03
734,28	1318,89
734,46	1239,02
734,64	1322,99
734,82	1345,52
735,00	1296,36
735,18	1359,85
735,36	1263,60
735,54	1282,03
735,73	1263,60
735,91	1294,32
736,09	1251,31
736,27	1232,88
736,45	1259,50
736,63	1269,74
736,81	1257,45
736,99	1216,49
737,17	1312,75
737,35	1263,60
737,53	1267,69
737,71	1310,70
737,89	1239,02
738,07	1292,27
738,25	1290,22
738,43	1327,08
738,61	1296,36
738,80	1370,09
738,98	1234,93
739,16	1230,83
739,34	1290,22
739,52	1282,03
739,70	1226,73
739,88	1239,02
740,06	1351,66
740,24	1265,64
740,42	1296,36
740,60	1257,45
740,78	1275,88
740,96	1253,36
741,14	1253,36
741,32	1214,45
741,50	1236,97
741,68	1312,75
741,86	1253,36
742,04	1288,17
742,22	1282,03
742,40	1345,52
742,58	1355,76
742,76	1234,93
742,94	1290,22
743,12	1290,22
743,30	1200,11
743,48	1249,26
743,66	1306,60
743,84	1212,40
744,02	1263,60
744,20	1288,17
744,38	1341,42
744,56	1329,13
744,74	1359,85
744,92	1273,84
745,10	1298,41
745,28	1230,83
745,46	1302,51
745,64	1277,93
745,82	1224,69
746,00	1355,76
746,18	1298,41
746,36	1322,99
746,54	1271,79
746,72	1310,70
746,90	1243,12
747,08	1282,03
747,26	1275,88
747,44	1249,26
747,62	1335,28
747,80	1304,56
747,98	1243,12
748,15	1284,08
748,33	1306,60
748,51	1263,60
748,69	1284,08
748,87	1298,41
749,05	1249,26
749,23	1261,55
749,41	1286,12
749,59	1253,36
749,77	1310,70
749,95	1251,31
750,13	1277,93
750,31	1286,12
750,49	1335,28
750,67	1253,36
750,85	1288,17
751,03	1314,80
751,20	1320,94
751,38	1288,17
751,56	1267,69
751,74	1277,93
751,92	1288,17
752,10	1320,94
752,28	1247,21
752,46	1286,12
752,64	1318,89
752,82	1302,51
753,00	1251,31
753,18	1286,12
753,35	1325,04
753,53	1200,11
753,71	1306,60
753,89	1247,21
754,07	1241,07
754,25	1232,88
754,43	1275,88
754,61	1222,64
754,79	1284,08
754,97	1275,88
755,14	1310,70
755,32	1329,13
755,50	1200,11
755,68	1290,22
755,86	1302,51
756,04	1257,45
756,22	1335,28
756,40	1265,64
756,57	1302,51
756,75	1243,12
756,93	1216,49
757,11	1312,75
757,29	1304,56
757,47	1243,12
757,65	1282,03
757,82	1286,12
758,00	1267,69
758,18	1241,07
758,36	1247,21
758,54	1308,65
758,72	1318,89
758,90	1222,64
759,07	1234,93
759,25	1345,52
759,43	1337,32
759,61	1308,65
759,79	1314,80
759,97	1300,46
760,15	1265,64
760,32	1318,89
760,50	1228,78
760,68	1261,55
760,86	1265,64
761,04	1198,06
761,22	1253,36
761,39	1286,12
761,57	1273,84
761,75	1366,00
761,93	1282,03
762,11	1267,69
762,28	1255,40
762,46	1333,23
762,64	1286,12
762,82	1314,80
763,00	1329,13
763,18	1286,12
763,35	1251,31
763,53	1290,22
763,71	1222,64
763,89	1243,12
764,07	1331,18
764,24	1224,69
764,42	1284,08
764,60	1284,08
764,78	1243,12
764,96	1327,08
765,13	1239,02
765,31	1290,22
765,49	1286,12
765,67	1257,45
765,84	1196,01
766,02	1279,98
766,20	1279,98
766,38	1243,12
766,56	1220,59
766,73	1312,75
766,91	1277,93
767,09	1296,36
767,27	1267,69
767,44	1279,98
767,62	1226,73
767,80	1241,07
767,98	1230,83
768,15	1277,93
768,33	1234,93
768,51	1230,83
768,69	1247,21
768,87	1327,08
769,04	1331,18
769,22	1288,17
769,40	1226,73
769,58	1241,07
769,75	1304,56
769,93	1300,46
770,11	1222,64
770,28	1279,98
770,46	1253,36
770,64	1322,99
770,82	1279,98
770,99	1226,73
771,17	1275,88
771,35	1325,04
771,53	1320,94
771,70	1290,22
771,88	1288,17
772,06	1284,08
772,23	1339,37
772,41	1312,75
772,59	1296,36
772,77	1232,88
772,94	1300,46
773,12	1300,46
773,30	1306,60
773,47	1290,22
773,65	1279,98
773,83	1284,08
774,01	1267,69
774,18	1200,11
774,36	1294,32
774,54	1300,46
774,71	1269,74
774,89	1351,66
775,07	1230,83
775,24	1251,31
775,42	1353,71
775,60	1241,07
775,78	1257,45
775,95	1269,74
776,13	1366,00
776,31	1261,55
776,48	1273,84
776,66	1255,40
776,84	1277,93
777,01	1304,56
777,19	1191,92
777,37	1273,84
777,54	1218,54
777,72	1265,64
777,90	1228,78
778,07	1239,02
778,25	1271,79
778,43	1232,88
778,60	1292,27
778,78	1310,70
778,96	1320,94
779,13	1247,21
779,31	1255,40
779,49	1296,36
779,66	1245,16
779,84	1243,12
780,01	1314,80
780,19	1337,32
780,37	1341,42
780,54	1247,21
780,72	1273,84
780,90	1249,26
781,07	1292,27
781,25	1314,80
781,43	1255,40
781,60	1282,03
781,78	1226,73
781,95	1310,70
782,13	1292,27
782,31	1224,69
782,48	1247,21
782,66	1251,31
782,83	1314,80
783,01	1292,27
783,19	1269,74
783,36	1308,65
783,54	1183,73
783,72	1294,32
783,89	1296,36
784,07	1298,41
784,24	1265,64
784,42	1218,54
784,60	1232,88
784,77	1265,64
784,95	1279,98
785,12	1349,61
785,30	1265,64
785,47	1163,25
785,65	1277,93
785,83	1247,21
786,00	1245,16
786,18	1228,78
786,35	1261,55
786,53	1335,28
786,71	1318,89
786,88	1236,97
787,06	1298,41
787,23	1263,60
787,41	1327,08
787,58	1345,52
787,76	1306,60
787,94	1372,14
788,11	1261,55
788,29	1267,69
788,46	1275,88
788,64	1198,06
788,81	1322,99
788,99	1263,60
789,16	1230,83
789,34	1255,40
789,52	1269,74
789,69	1255,40
789,87	1273,84
790,04	1304,56
790,22	1210,35
790,39	1265,64
790,57	1228,78
790,74	1241,07
790,92	1337,32
791,09	1232,88
791,27	1265,64
791,44	1228,78
791,62	1279,98
791,79	1298,41
791,97	1290,22
792,15	1288,17
792,32	1263,60
792,50	1230,83
792,67	1339,37
792,85	1308,65
793,02	1198,06
793,20	1277,93
793,37	1220,59
793,55	1277,93
793,72	1183,73
793,90	1257,45
794,07	1257,45
794,25	1345,52
794,42	1292,27
794,60	1306,60
794,77	1304,56
794,95	1310,70
795,12	1288,17
795,30	1300,46
795,47	1222,64
795,65	1292,27
795,82	1273,84
796,00	1302,51
796,17	1226,73
796,34	1312,75
796,52	1212,40
796,69	1267,69
796,87	1277,93
797,04	1306,60
797,22	1294,32
797,39	1257,45
797,57	1290,22
797,74	1290,22
797,92	1312,75
798,09	1296,36
798,27	1284,08
798,44	1277,93
798,62	1191,92
798,79	1322,99
798,96	1273,84
799,14	1183,73
799,31	1320,94
799,49	1245,16
799,66	1251,31
799,84	1239,02
800,01	1296,36
800,19	1204,21
800,36	1288,17
800,53	1302,51
800,71	1275,88
800,88	1261,55
801,06	1257,45
801,23	1277,93
801,41	1228,78
801,58	1290,22
801,75	1253,36
801,93	1253,36
802,10	1349,61
802,28	1316,84
802,45	1329,13
802,63	1290,22
802,80	1251,31
802,97	1296,36
803,15	1267,69
803,32	1277,93
803,50	1232,88
803,67	1286,12
803,84	1255,40
804,02	1290,22
804,19	1263,60
804,37	1288,17
804,54	1292,27
804,71	1259,50
804,89	1312,75
805,06	1322,99
805,24	1296,36
805,41	1279,98
805,58	1353,71
805,76	1200,11
805,93	1222,64
806,10	1269,74
806,28	1275,88
806,45	1265,64
806,63	1269,74
806,80	1255,40
806,97	1290,22
807,15	1349,61
807,32	1234,93
807,49	1349,61
807,67	1304,56
807,84	1273,84
808,01	1259,50
808,19	1263,60
808,36	1331,18
808,54	1249,26
808,71	1249,26
808,88	1269,74
809,06	1245,16
809,23	1345,52
809,40	1294,32
809,58	1247,21
809,75	1325,04
809,92	1302,51
810,10	1312,75
810,27	1230,83
810,44	1279,98
810,62	1259,50
810,79	1327,08
810,96	1273,84
811,14	1290,22
811,31	1382,38
811,48	1220,59
811,66	1290,22
811,83	1314,80
812,00	1296,36
812,18	1269,74
812,35	1228,78
812,52	1245,16
812,69	1306,60
812,87	1247,21
813,04	1200,11
813,21	1310,70
813,39	1296,36
813,56	1230,83
813,73	1288,17
813,91	1241,07
814,08	1361,90
814,25	1241,07
814,42	1226,73
814,60	1312,75
814,77	1310,70
814,94	1288,17
815,12	1282,03
815,29	1226,73
815,46	1282,03
815,63	1284,08
815,81	1374,19
815,98	1292,27
816,15	1263,60
816,33	1212,40
816,50	1284,08
816,67	1245,16
816,84	1329,13
817,02	1284,08
817,19	1327,08
817,36	1271,79
817,53	1275,88
817,71	1261,55
817,88	1234,93
818,05	1300,46
818,22	1265,64
818,40	1222,64
818,57	1322,99
818,74	1302,51
818,91	1173,49
819,09	1222,64
819,26	1230,83
819,43	1292,27
819,60	1282,03
819,78	1261,55
819,95	1236,97
820,12	1206,25
820,29	1181,68
820,47	1284,08
820,64	1193,97
820,81	1302,51
820,98	1232,88
821,15	1341,42
821,33	1249,26
821,50	1294,32
821,67	1269,74
821,84	1236,97
822,02	1279,98
822,19	1257,45
822,36	1306,60
822,53	1245,16
822,70	1282,03
822,88	1243,12
823,05	1271,79
823,22	1273,84
823,39	1376,24
823,56	1181,68
823,74	1269,74
823,91	1200,11
824,08	1271,79
824,25	1335,28
824,42	1320,94
824,60	1273,84
824,77	1243,12
824,94	1290,22
825,11	1265,64
825,28	1230,83
825,45	1279,98
825,63	1325,04
825,80	1257,45
825,97	1273,84
826,14	1257,45
826,31	1241,07
826,48	1279,98
826,66	1296,36
826,83	1353,71
827,00	1273,84
827,17	1212,40
827,34	1269,74
827,51	1275,88
827,69	1193,97
827,86	1271,79
828,03	1361,90
828,20	1263,60
828,37	1234,93
828,54	1345,52
828,71	1275,88
828,89	1234,93
829,06	1234,93
829,23	1253,36
829,40	1294,32
829,57	1275,88
829,74	1245,16
829,91	1255,40
830,09	1286,12
830,26	1353,71
830,43	1284,08
830,60	1261,55
830,77	1320,94
830,94	1288,17
831,11	1277,93
831,28	1284,08
831,46	1271,79
831,63	1310,70
831,80	1224,69
831,97	1312,75
832,14	1316,84
832,31	1288,17
832,48	1318,89
832,65	1282,03
832,82	1241,07
832,99	1298,41
833,17	1271,79
833,34	1349,61
833,51	1298,41
833,68	1230,83
833,85	1241,07
834,02	1277,93
834,19	1249,26
834,36	1277,93
834,53	1273,84
834,70	1359,85
834,87	1314,80
835,04	1275,88
835,22	1284,08
835,39	1200,11
835,56	1265,64
835,73	1234,93
835,90	1275,88
836,07	1265,64
836,24	1257,45
836,41	1277,93
836,58	1218,54
836,75	1265,64
836,92	1226,73
837,09	1333,23
837,26	1284,08
837,43	1288,17
837,60	1318,89
837,77	1261,55
837,94	1310,70
838,12	1271,79
838,29	1253,36
838,46	1310,70
838,63	1251,31
838,80	1312,75
838,97	1284,08
839,14	1304,56
839,31	1249,26
839,48	1234,93
839,65	1306,60
839,82	1288,17
839,99	1273,84
840,16	1292,27
840,33	1273,84
840,50	1222,64
840,67	1282,03
840,84	1214,45
841,01	1400,81
841,18	1249,26
841,35	1253,36
841,52	1290,22
841,69	1220,59
841,86	1286,12
842,03	1304,56
842,20	1337,32
842,37	1343,47
842,54	1298,41
842,71	1202,16
842,88	1263,60
843,05	1304,56
843,22	1269,74
843,39	1316,84
843,56	1243,12
843,73	1253,36
843,90	1302,51
844,07	1282,03
844,24	1277,93
844,41	1300,46
844,58	1265,64
844,75	1247,21
844,92	1288,17
845,09	1327,08
845,26	1347,56
845,43	1259,50
845,60	1310,70
845,77	1314,80
845,94	1296,36
846,10	1259,50
846,27	1206,25
846,44	1277,93
846,61	1259,50
846,78	1329,13
846,95	1314,80
847,12	1286,12
847,29	1255,40
847,46	1228,78
847,63	1286,12
847,80	1298,41
847,97	1253,36
848,14	1271,79
848,31	1245,16
848,48	1290,22
848,65	1288,17
848,82	1239,02
848,98	1306,60
849,15	1320,94
849,32	1314,80
849,49	1294,32
849,66	1206,25
849,83	1306,60
850,00	1304,56
850,17	1181,68
850,34	1318,89
850,51	1282,03
850,68	1302,51
850,85	1378,28
851,01	1232,88
851,18	1206,25
851,35	1239,02
851,52	1310,70
851,69	1380,33
851,86	1257,45
852,03	1232,88
852,20	1265,64
852,37	1251,31
852,53	1306,60
852,70	1347,56
852,87	1222,64
853,04	1273,84
853,21	1261,55
853,38	1310,70
853,55	1290,22
853,72	1308,65
853,89	1288,17
854,05	1320,94
854,22	1255,40
854,39	1333,23
854,56	1325,04
854,73	1339,37
854,90	1259,50
855,07	1273,84
855,23	1247,21
855,40	1263,60
855,57	1273,84
855,74	1214,45
855,91	1277,93
856,08	1312,75
856,25	1167,34
856,41	1306,60
856,58	1263,60
856,75	1261,55
856,92	1224,69
857,09	1345,52
857,26	1239,02
857,42	1331,18
857,59	1224,69
857,76	1282,03
857,93	1306,60
858,10	1339,37
858,27	1257,45
858,43	1269,74
858,60	1275,88
858,77	1271,79
858,94	1191,92
859,11	1224,69
859,27	1314,80
859,44	1290,22
859,61	1296,36
859,78	1343,47
859,95	1249,26
860,12	1320,94
860,28	1312,75
860,45	1355,76
860,62	1236,97
860,79	1212,40
860,95	1196,01
861,12	1286,12
861,29	1261,55
861,46	1347,56
861,63	1247,21
861,79	1310,70
861,96	1292,27
862,13	1243,12
862,30	1286,12
862,47	1261,55
862,63	1282,03
862,80	1277,93
862,97	1302,51
863,14	1259,50
863,30	1286,12
863,47	1322,99
863,64	1259,50
863,81	1261,55
863,97	1224,69
864,14	1249,26
864,31	1310,70
864,48	1232,88
864,65	1275,88
864,81	1187,82
864,98	1337,32
865,15	1230,83
865,32	1320,94
865,48	1255,40
865,65	1261,55
865,82	1200,11
865,98	1300,46
866,15	1339,37
866,32	1239,02
866,49	1247,21
866,65	1222,64
866,82	1249,26
866,99	1306,60
867,16	1288,17
867,32	1275,88
867,49	1267,69
867,66	1271,79
867,83	1175,53
867,99	1302,51
868,16	1294,32
868,33	1273,84
868,49	1253,36
868,66	1282,03
868,83	1255,40
868,99	1204,21
869,16	1327,08
869,33	1318,89
869,50	1300,46
869,66	1226,73
869,83	1277,93
870,00	1212,40
870,16	1220,59
870,33	1302,51
870,50	1304,56
870,66	1273,84
870,83	1353,71
871,00	1312,75
871,17	1261,55
871,33	1302,51
871,50	1273,84
871,67	1298,41
871,83	1288,17
872,00	1232,88
872,17	1312,75
872,33	1294,32
872,50	1171,44
872,67	1259,50
872,83	1298,41
873,00	1208,30
873,17	1292,27
873,33	1298,41
873,50	1361,90
873,67	1222,64
873,83	1273,84
874,00	1257,45
874,16	1312,75
874,33	1232,88
874,50	1284,08
874,66	1249,26
874,83	1316,84
875,00	1212,40
875,16	1310,70
875,33	1239,02
875,50	1320,94
875,66	1333,23
875,83	1249,26
875,99	1241,07
876,16	1300,46
876,33	1304,56
876,49	1261,55
876,66	1273,84
876,83	1243,12
876,99	1331,18
877,16	1286,12
877,32	1196,01
877,49	1198,06
877,66	1333,23
877,82	1269,74
877,99	1325,04
878,15	1308,65
878,32	1220,59
878,49	1245,16
878,65	1316,84
878,82	1318,89
878,98	1304,56
879,15	1251,31
879,32	1298,41
879,48	1298,41
879,65	1302,51
879,81	1277,93
879,98	1222,64
880,15	1294,32
880,31	1251,31
880,48	1279,98
880,64	1224,69
880,81	1265,64
880,97	1320,94
881,14	1232,88
881,31	1239,02
881,47	1277,93
881,64	1198,06
881,80	1355,76
881,97	1232,88
882,13	1226,73
882,30	1310,70
882,47	1290,22
882,63	1304,56
882,80	1249,26
882,96	1296,36
883,13	1308,65
883,29	1273,84
883,46	1318,89
883,62	1277,93
883,79	1296,36
883,95	1329,13
884,12	1363,95
884,29	1302,51
884,45	1282,03
884,62	1269,74
884,78	1271,79
884,95	1304,56
885,11	1290,22
885,28	1239,02
885,44	1261,55
885,61	1314,80
885,77	1232,88
885,94	1286,12
886,10	1265,64
886,27	1255,40
886,43	1236,97
886,60	1269,74
886,76	1337,32
886,93	1239,02
887,09	1232,88
887,26	1261,55
887,42	1234,93
887,59	1263,60
887,75	1253,36
887,92	1296,36
888,08	1294,32
888,25	1325,04
888,41	1292,27
888,58	1247,21
888,74	1302,51
888,91	1302,51
>>>>>End Processed Spectral Data<<<<<
