SpectraSuite Data File
++++++++++++++++++++++++++++++++++++
Date: Sun Apr 03 17:45:04 CEST 2016
User: root
Dark Spectrum Present: No
Reference Spectrum Present: No
Number of Sampled Component Spectra: 1
Spectrometers: USB4C02835
Integration Time (usec): 10000 (USB4C02835)
Spectra Averaged: 1 (USB4C02835)
Boxcar Smoothing: 0 (USB4C02835)
Correct for Electrical Dark: No (USB4C02835)
Strobe/Lamp Enabled: No (USB4C02835)
Correct for Detector Non-linearity: No (USB4C02835)
Correct for Stray Light: No (USB4C02835)
Number of Pixels in Processed Spectrum: 3648
>>>>>Begin Processed Spectral Data<<<<<
177,47	1269,74
177,69	1269,74
177,91	1269,74
178,13	1279,98
178,36	1202,16
178,58	1286,12
178,80	1228,78
179,02	1196,01
179,24	1290,22
179,46	1306,60
179,68	1259,50
179,90	1296,36
180,13	1292,27
180,35	1316,84
180,57	1267,69
180,79	1275,88
181,01	1269,74
181,23	1255,40
181,45	1224,69
181,67	1269,74
181,90	1236,97
182,12	1236,97
182,34	1329,13
182,56	1279,98
182,78	1212,40
183,00	1255,40
183,22	1284,08
183,44	1306,60
183,66	1284,08
183,89	1247,21
184,11	1200,11
184,33	1271,79
184,55	1265,64
184,77	1220,59
184,99	1331,18
185,21	1292,27
185,43	1218,54
185,65	1298,41
185,87	1234,93
186,10	1273,84
186,32	1269,74
186,54	1322,99
186,76	1290,22
186,98	1269,74
187,20	1220,59
187,42	1124,33
187,64	1277,93
187,86	1284,08
188,08	1191,92
188,30	1257,45
188,52	1298,41
188,75	1269,74
188,97	1282,03
189,19	1310,70
189,41	1349,61
189,63	1239,02
189,85	1271,79
190,07	1304,56
190,29	1345,52
190,51	1243,12
190,73	1279,98
190,95	1288,17
191,17	1230,83
191,39	1202,16
191,61	1273,84
191,84	1239,02
192,06	1339,37
192,28	1288,17
192,50	1308,65
192,72	1249,26
192,94	1245,16
193,16	1273,84
193,38	1255,40
193,60	1230,83
193,82	1177,58
194,04	1282,03
194,26	1286,12
194,48	1351,66
194,70	1236,97
194,92	1241,07
195,14	1279,98
195,36	1331,18
195,58	1224,69
195,80	1318,89
196,02	1265,64
196,24	1236,97
196,46	1320,94
196,69	1304,56
196,91	1318,89
197,13	1228,78
197,35	1320,94
197,57	1308,65
197,79	1316,84
198,01	1232,88
198,23	1275,88
198,45	1171,44
198,67	1335,28
198,89	1374,19
199,11	1325,04
199,33	1267,69
199,55	1308,65
199,77	1243,12
199,99	1228,78
200,21	1208,30
200,43	1304,56
200,65	1222,64
200,87	1308,65
201,09	1331,18
201,31	1198,06
201,53	1243,12
201,75	1249,26
201,97	1300,46
202,19	1239,02
202,41	1279,98
202,63	1339,37
202,85	1304,56
203,07	1296,36
203,29	1222,64
203,51	1271,79
203,73	1228,78
203,95	1314,80
204,17	1347,56
204,39	1261,55
204,61	1327,08
204,83	1161,20
205,05	1286,12
205,27	1306,60
205,49	1249,26
205,71	1290,22
205,93	1263,60
206,15	1277,93
206,37	1267,69
206,59	1236,97
206,81	1259,50
207,03	1288,17
207,25	1316,84
207,47	1247,21
207,69	1232,88
207,91	1302,51
208,13	1312,75
208,34	1216,49
208,56	1306,60
208,78	1253,36
209,00	1282,03
209,22	1142,77
209,44	1259,50
209,66	1249,26
209,88	1288,17
210,10	1288,17
210,32	1275,88
210,54	1279,98
210,76	1249,26
210,98	1327,08
211,20	1245,16
211,42	1226,73
211,64	1320,94
211,86	1271,79
212,08	1335,28
212,30	1241,07
212,52	1267,69
212,74	1239,02
212,96	1277,93
213,17	1257,45
213,39	1292,27
213,61	1216,49
213,83	1271,79
214,05	1318,89
214,27	1290,22
214,49	1271,79
214,71	1279,98
214,93	1286,12
215,15	1271,79
215,37	1196,01
215,59	1316,84
215,81	1245,16
216,03	1251,31
216,24	1232,88
216,46	1259,50
216,68	1318,89
216,90	1241,07
217,12	1290,22
217,34	1284,08
217,56	1318,89
217,78	1275,88
218,00	1306,60
218,22	1228,78
218,44	1339,37
218,66	1249,26
218,87	1257,45
219,09	1165,29
219,31	1279,98
219,53	1279,98
219,75	1226,73
219,97	1366,00
220,19	1247,21
220,41	1239,02
220,63	1198,06
220,85	1310,70
221,06	1290,22
221,28	1310,70
221,50	1282,03
221,72	1261,55
221,94	1320,94
222,16	1187,82
222,38	1286,12
222,60	1255,40
222,82	1253,36
223,03	1310,70
223,25	1286,12
223,47	1304,56
223,69	1275,88
223,91	1247,21
224,13	1345,52
224,35	1200,11
224,57	1296,36
224,78	1189,87
225,00	1312,75
225,22	1261,55
225,44	1310,70
225,66	1228,78
225,88	1134,57
226,10	1257,45
226,32	1251,31
226,53	1234,93
226,75	1269,74
226,97	1279,98
227,19	1232,88
227,41	1290,22
227,63	1304,56
227,85	1282,03
228,06	1349,61
228,28	1298,41
228,50	1333,23
228,72	1255,40
228,94	1275,88
229,16	1267,69
229,37	1286,12
229,59	1234,93
229,81	1218,54
230,03	1249,26
230,25	1257,45
230,47	1269,74
230,69	1288,17
230,90	1322,99
231,12	1232,88
231,34	1314,80
231,56	1255,40
231,78	1359,85
232,00	1288,17
232,21	1267,69
232,43	1267,69
232,65	1269,74
232,87	1308,65
233,09	1232,88
233,30	1312,75
233,52	1226,73
233,74	1259,50
233,96	1249,26
234,18	1263,60
234,40	1228,78
234,61	1220,59
234,83	1216,49
235,05	1331,18
235,27	1331,18
235,49	1273,84
235,70	1183,73
235,92	1288,17
236,14	1271,79
236,36	1349,61
236,58	1306,60
236,79	1247,21
237,01	1329,13
237,23	1282,03
237,45	1265,64
237,67	1318,89
237,88	1286,12
238,10	1286,12
238,32	1232,88
238,54	1196,01
238,76	1193,97
238,97	1290,22
239,19	1308,65
239,41	1271,79
239,63	1273,84
239,85	1329,13
240,06	1232,88
240,28	1308,65
240,50	1271,79
240,72	1230,83
240,93	1267,69
241,15	1257,45
241,37	1204,21
241,59	1228,78
241,81	1255,40
242,02	1273,84
242,24	1279,98
242,46	1322,99
242,68	1279,98
242,89	1255,40
243,11	1322,99
243,33	1308,65
243,55	1257,45
243,76	1298,41
243,98	1263,60
244,20	1273,84
244,42	1253,36
244,64	1187,82
244,85	1202,16
245,07	1241,07
245,29	1298,41
245,51	1247,21
245,72	1277,93
245,94	1286,12
246,16	1236,97
246,38	1265,64
246,59	1218,54
246,81	1273,84
247,03	1245,16
247,24	1181,68
247,46	1251,31
247,68	1241,07
247,90	1290,22
248,11	1312,75
248,33	1275,88
248,55	1314,80
248,77	1320,94
248,98	1320,94
249,20	1239,02
249,42	1200,11
249,64	1269,74
249,85	1220,59
250,07	1353,71
250,29	1255,40
250,50	1306,60
250,72	1251,31
250,94	1249,26
251,16	1220,59
251,37	1300,46
251,59	1290,22
251,81	1239,02
252,02	1222,64
252,24	1212,40
252,46	1286,12
252,68	1331,18
252,89	1208,30
253,11	1304,56
253,33	1224,69
253,54	1259,50
253,76	1255,40
253,98	1224,69
254,20	1265,64
254,41	1282,03
254,63	1320,94
254,85	1271,79
255,06	1261,55
255,28	1292,27
255,50	1282,03
255,71	1251,31
255,93	1249,26
256,15	1251,31
256,36	1247,21
256,58	1230,83
256,80	1284,08
257,02	1243,12
257,23	1239,02
257,45	1337,32
257,67	1269,74
257,88	1241,07
258,10	1341,42
258,32	1257,45
258,53	1284,08
258,75	1271,79
258,97	1243,12
259,18	1265,64
259,40	1269,74
259,62	1320,94
259,83	1226,73
260,05	1275,88
260,27	1312,75
260,48	1290,22
260,70	1282,03
260,92	1331,18
261,13	1212,40
261,35	1247,21
261,57	1263,60
261,78	1273,84
262,00	1218,54
262,22	1263,60
262,43	1247,21
262,65	1236,97
262,86	1335,28
263,08	1331,18
263,30	1288,17
263,51	1298,41
263,73	1267,69
263,95	1220,59
264,16	1230,83
264,38	1265,64
264,60	1298,41
264,81	1249,26
265,03	1273,84
265,25	1355,76
265,46	1308,65
265,68	1198,06
265,89	1339,37
266,11	1284,08
266,33	1245,16
266,54	1306,60
266,76	1304,56
266,98	1318,89
267,19	1294,32
267,41	1230,83
267,62	1271,79
267,84	1288,17
268,06	1271,79
268,27	1259,50
268,49	1208,30
268,70	1220,59
268,92	1292,27
269,14	1183,73
269,35	1333,23
269,57	1269,74
269,79	1239,02
270,00	1290,22
270,22	1267,69
270,43	1306,60
270,65	1298,41
270,87	1249,26
271,08	1284,08
271,30	1312,75
271,51	1269,74
271,73	1310,70
271,95	1198,06
272,16	1345,52
272,38	1253,36
272,59	1296,36
272,81	1284,08
273,02	1314,80
273,24	1245,16
273,46	1183,73
273,67	1372,14
273,89	1263,60
274,10	1265,64
274,32	1292,27
274,54	1259,50
274,75	1271,79
274,97	1286,12
275,18	1306,60
275,40	1255,40
275,61	1304,56
275,83	1208,30
276,05	1320,94
276,26	1288,17
276,48	1327,08
276,69	1257,45
276,91	1251,31
277,12	1298,41
277,34	1228,78
277,55	1234,93
277,77	1298,41
277,99	1232,88
278,20	1286,12
278,42	1288,17
278,63	1327,08
278,85	1310,70
279,06	1331,18
279,28	1294,32
279,49	1282,03
279,71	1296,36
279,93	1265,64
280,14	1257,45
280,36	1255,40
280,57	1224,69
280,79	1261,55
281,00	1243,12
281,22	1234,93
281,43	1261,55
281,65	1234,93
281,86	1230,83
282,08	1228,78
282,29	1206,25
282,51	1243,12
282,73	1253,36
282,94	1230,83
283,16	1298,41
283,37	1261,55
283,59	1288,17
283,80	1308,65
284,02	1302,51
284,23	1216,49
284,45	1314,80
284,66	1265,64
284,88	1216,49
285,09	1284,08
285,31	1339,37
285,52	1265,64
285,74	1296,36
285,95	1228,78
286,17	1253,36
286,38	1322,99
286,60	1241,07
286,81	1269,74
287,03	1208,30
287,24	1232,88
287,46	1312,75
287,67	1296,36
287,89	1304,56
288,10	1308,65
288,32	1150,96
288,53	1271,79
288,75	1282,03
288,96	1251,31
289,18	1284,08
289,39	1257,45
289,61	1290,22
289,82	1290,22
290,04	1249,26
290,25	1279,98
290,47	1241,07
290,68	1279,98
290,90	1300,46
291,11	1275,88
291,33	1230,83
291,54	1294,32
291,76	1267,69
291,97	1236,97
292,18	1357,80
292,40	1296,36
292,61	1265,64
292,83	1261,55
293,04	1279,98
293,26	1241,07
293,47	1241,07
293,69	1284,08
293,90	1226,73
294,12	1265,64
294,33	1296,36
294,55	1257,45
294,76	1304,56
294,97	1304,56
295,19	1290,22
295,40	1245,16
295,62	1312,75
295,83	1275,88
296,05	1368,04
296,26	1228,78
296,48	1290,22
296,69	1259,50
296,90	1310,70
297,12	1286,12
297,33	1294,32
297,55	1257,45
297,76	1388,52
297,98	1306,60
298,19	1327,08
298,41	1322,99
298,62	1279,98
298,83	1167,34
299,05	1304,56
299,26	1298,41
299,48	1255,40
299,69	1372,14
299,90	1230,83
300,12	1337,32
300,33	1239,02
300,55	1251,31
300,76	1208,30
300,98	1351,66
301,19	1302,51
301,40	1269,74
301,62	1212,40
301,83	1259,50
302,05	1290,22
302,26	1236,97
302,47	1251,31
302,69	1224,69
302,90	1331,18
303,12	1183,73
303,33	1253,36
303,54	1341,42
303,76	1239,02
303,97	1351,66
304,19	1241,07
304,40	1310,70
304,61	1302,51
304,83	1310,70
305,04	1232,88
305,26	1310,70
305,47	1322,99
305,68	1265,64
305,90	1273,84
306,11	1290,22
306,33	1255,40
306,54	1241,07
306,75	1263,60
306,97	1304,56
307,18	1253,36
307,39	1269,74
307,61	1245,16
307,82	1269,74
308,04	1271,79
308,25	1228,78
308,46	1314,80
308,68	1275,88
308,89	1275,88
309,10	1327,08
309,32	1320,94
309,53	1255,40
309,74	1282,03
309,96	1253,36
310,17	1304,56
310,39	1220,59
310,60	1232,88
310,81	1269,74
311,03	1236,97
311,24	1302,51
311,45	1288,17
311,67	1322,99
311,88	1216,49
312,09	1208,30
312,31	1249,26
312,52	1263,60
312,73	1232,88
312,95	1228,78
313,16	1265,64
313,37	1267,69
313,59	1257,45
313,80	1275,88
314,01	1269,74
314,23	1304,56
314,44	1222,64
314,65	1257,45
314,87	1216,49
315,08	1245,16
315,29	1257,45
315,51	1232,88
315,72	1251,31
315,93	1277,93
316,15	1288,17
316,36	1253,36
316,57	1286,12
316,79	1279,98
317,00	1230,83
317,21	1290,22
317,43	1239,02
317,64	1193,97
317,85	1347,56
318,07	1236,97
318,28	1298,41
318,49	1310,70
318,70	1304,56
318,92	1230,83
319,13	1251,31
319,34	1279,98
319,56	1263,60
319,77	1286,12
319,98	1241,07
320,20	1241,07
320,41	1263,60
320,62	1232,88
320,83	1275,88
321,05	1236,97
321,26	1325,04
321,47	1239,02
321,69	1271,79
321,90	1191,92
322,11	1265,64
322,32	1275,88
322,54	1239,02
322,75	1269,74
322,96	1288,17
323,18	1269,74
323,39	1253,36
323,60	1255,40
323,81	1228,78
324,03	1304,56
324,24	1282,03
324,45	1224,69
324,66	1200,11
324,88	1331,18
325,09	1341,42
325,30	1265,64
325,52	1214,45
325,73	1265,64
325,94	1257,45
326,15	1247,21
326,37	1228,78
326,58	1277,93
326,79	1257,45
327,00	1249,26
327,22	1232,88
327,43	1282,03
327,64	1279,98
327,85	1228,78
328,07	1277,93
328,28	1257,45
328,49	1239,02
328,70	1277,93
328,92	1290,22
329,13	1212,40
329,34	1269,74
329,55	1320,94
329,76	1306,60
329,98	1292,27
330,19	1306,60
330,40	1183,73
330,61	1243,12
330,83	1279,98
331,04	1329,13
331,25	1214,45
331,46	1253,36
331,68	1263,60
331,89	1286,12
332,10	1245,16
332,31	1304,56
332,52	1286,12
332,74	1300,46
332,95	1284,08
333,16	1320,94
333,37	1222,64
333,58	1282,03
333,80	1286,12
334,01	1224,69
334,22	1275,88
334,43	1247,21
334,64	1325,04
334,86	1226,73
335,07	1337,32
335,28	1222,64
335,49	1247,21
335,70	1245,16
335,92	1290,22
336,13	1322,99
336,34	1261,55
336,55	1308,65
336,76	1282,03
336,98	1306,60
337,19	1318,89
337,40	1284,08
337,61	1251,31
337,82	1353,71
338,04	1304,56
338,25	1292,27
338,46	1282,03
338,67	1247,21
338,88	1214,45
339,09	1355,76
339,31	1275,88
339,52	1327,08
339,73	1269,74
339,94	1284,08
340,15	1298,41
340,36	1335,28
340,58	1279,98
340,79	1236,97
341,00	1251,31
341,21	1259,50
341,42	1228,78
341,63	1241,07
341,85	1275,88
342,06	1298,41
342,27	1230,83
342,48	1304,56
342,69	1337,32
342,90	1249,26
343,12	1224,69
343,33	1310,70
343,54	1308,65
343,75	1288,17
343,96	1290,22
344,17	1288,17
344,38	1282,03
344,60	1255,40
344,81	1228,78
345,02	1279,98
345,23	1228,78
345,44	1339,37
345,65	1236,97
345,86	1265,64
346,07	1210,35
346,29	1253,36
346,50	1265,64
346,71	1267,69
346,92	1234,93
347,13	1275,88
347,34	1269,74
347,55	1331,18
347,76	1310,70
347,98	1249,26
348,19	1337,32
348,40	1239,02
348,61	1300,46
348,82	1304,56
349,03	1300,46
349,24	1245,16
349,45	1234,93
349,66	1277,93
349,88	1306,60
350,09	1284,08
350,30	1288,17
350,51	1175,53
350,72	1304,56
350,93	1306,60
351,14	1269,74
351,35	1220,59
351,56	1253,36
351,77	1245,16
351,99	1230,83
352,20	1247,21
352,41	1265,64
352,62	1277,93
352,83	1288,17
353,04	1269,74
353,25	1202,16
353,46	1226,73
353,67	1290,22
353,88	1255,40
354,09	1316,84
354,30	1230,83
354,52	1284,08
354,73	1273,84
354,94	1230,83
355,15	1208,30
355,36	1312,75
355,57	1263,60
355,78	1277,93
355,99	1273,84
356,20	1202,16
356,41	1214,45
356,62	1243,12
356,83	1239,02
357,04	1263,60
357,25	1310,70
357,46	1286,12
357,68	1234,93
357,89	1314,80
358,10	1259,50
358,31	1261,55
358,52	1208,30
358,73	1239,02
358,94	1282,03
359,15	1255,40
359,36	1288,17
359,57	1214,45
359,78	1241,07
359,99	1230,83
360,20	1212,40
360,41	1218,54
360,62	1261,55
360,83	1273,84
361,04	1288,17
361,25	1286,12
361,46	1279,98
361,67	1234,93
361,88	1257,45
362,09	1243,12
362,30	1247,21
362,51	1306,60
362,72	1286,12
362,93	1251,31
363,14	1255,40
363,35	1327,08
363,56	1298,41
363,78	1220,59
363,99	1222,64
364,20	1259,50
364,41	1314,80
364,62	1222,64
364,83	1241,07
365,04	1308,65
365,25	1222,64
365,46	1255,40
365,67	1212,40
365,88	1220,59
366,09	1263,60
366,30	1265,64
366,51	1185,77
366,72	1302,51
366,93	1208,30
367,14	1306,60
367,35	1236,97
367,56	1263,60
367,77	1265,64
367,98	1273,84
368,18	1204,21
368,39	1284,08
368,60	1312,75
368,81	1261,55
369,02	1247,21
369,23	1298,41
369,44	1296,36
369,65	1279,98
369,86	1253,36
370,07	1308,65
370,28	1282,03
370,49	1191,92
370,70	1327,08
370,91	1335,28
371,12	1273,84
371,33	1249,26
371,54	1271,79
371,75	1224,69
371,96	1185,77
372,17	1329,13
372,38	1214,45
372,59	1243,12
372,80	1275,88
373,01	1275,88
373,22	1245,16
373,43	1255,40
373,64	1302,51
373,85	1282,03
374,06	1316,84
374,26	1228,78
374,47	1232,88
374,68	1261,55
374,89	1222,64
375,10	1294,32
375,31	1257,45
375,52	1234,93
375,73	1374,19
375,94	1306,60
376,15	1320,94
376,36	1249,26
376,57	1325,04
376,78	1228,78
376,99	1298,41
377,20	1234,93
377,40	1241,07
377,61	1228,78
377,82	1290,22
378,03	1271,79
378,24	1271,79
378,45	1245,16
378,66	1345,52
378,87	1187,82
379,08	1271,79
379,29	1236,97
379,50	1228,78
379,71	1259,50
379,91	1253,36
380,12	1243,12
380,33	1304,56
380,54	1329,13
380,75	1275,88
380,96	1232,88
381,17	1310,70
381,38	1255,40
381,59	1349,61
381,80	1232,88
382,00	1335,28
382,21	1224,69
382,42	1345,52
382,63	1214,45
382,84	1257,45
383,05	1230,83
383,26	1279,98
383,47	1263,60
383,68	1187,82
383,88	1267,69
384,09	1239,02
384,30	1267,69
384,51	1265,64
384,72	1279,98
384,93	1210,35
385,14	1257,45
385,35	1255,40
385,55	1251,31
385,76	1257,45
385,97	1282,03
386,18	1220,59
386,39	1175,53
386,60	1251,31
386,81	1310,70
387,02	1302,51
387,22	1302,51
387,43	1294,32
387,64	1261,55
387,85	1300,46
388,06	1228,78
388,27	1306,60
388,48	1261,55
388,68	1249,26
388,89	1243,12
389,10	1241,07
389,31	1241,07
389,52	1277,93
389,73	1253,36
389,93	1249,26
390,14	1247,21
390,35	1230,83
390,56	1232,88
390,77	1273,84
390,98	1232,88
391,18	1284,08
391,39	1286,12
391,60	1318,89
391,81	1355,76
392,02	1292,27
392,23	1210,35
392,43	1273,84
392,64	1333,23
392,85	1196,01
393,06	1200,11
393,27	1308,65
393,47	1284,08
393,68	1308,65
393,89	1249,26
394,10	1329,13
394,31	1247,21
394,52	1304,56
394,72	1322,99
394,93	1275,88
395,14	1257,45
395,35	1255,40
395,56	1310,70
395,76	1273,84
395,97	1361,90
396,18	1259,50
396,39	1255,40
396,60	1265,64
396,80	1304,56
397,01	1277,93
397,22	1206,25
397,43	1267,69
397,64	1294,32
397,84	1292,27
398,05	1282,03
398,26	1282,03
398,47	1251,31
398,67	1304,56
398,88	1232,88
399,09	1288,17
399,30	1273,84
399,51	1320,94
399,71	1228,78
399,92	1292,27
400,13	1232,88
400,34	1312,75
400,54	1294,32
400,75	1275,88
400,96	1193,97
401,17	1198,06
401,37	1220,59
401,58	1167,34
401,79	1263,60
402,00	1257,45
402,21	1253,36
402,41	1273,84
402,62	1239,02
402,83	1224,69
403,04	1341,42
403,24	1255,40
403,45	1265,64
403,66	1269,74
403,87	1325,04
404,07	1255,40
404,28	1226,73
404,49	1314,80
404,70	1249,26
404,90	1241,07
405,11	1290,22
405,32	1273,84
405,52	1206,25
405,73	1288,17
405,94	1249,26
406,15	1294,32
406,35	1247,21
406,56	1271,79
406,77	1273,84
406,98	1298,41
407,18	1216,49
407,39	1341,42
407,60	1243,12
407,80	1337,32
408,01	1257,45
408,22	1249,26
408,43	1236,97
408,63	1308,65
408,84	1320,94
409,05	1347,56
409,25	1282,03
409,46	1290,22
409,67	1265,64
409,88	1279,98
410,08	1273,84
410,29	1284,08
410,50	1265,64
410,70	1300,46
410,91	1284,08
411,12	1304,56
411,32	1282,03
411,53	1312,75
411,74	1257,45
411,95	1265,64
412,15	1306,60
412,36	1282,03
412,57	1282,03
412,77	1296,36
412,98	1241,07
413,19	1292,27
413,39	1322,99
413,60	1255,40
413,81	1236,97
414,01	1286,12
414,22	1277,93
414,43	1249,26
414,63	1290,22
414,84	1290,22
415,05	1312,75
415,25	1245,16
415,46	1271,79
415,67	1288,17
415,87	1271,79
416,08	1290,22
416,29	1255,40
416,49	1333,23
416,70	1290,22
416,91	1314,80
417,11	1228,78
417,32	1329,13
417,53	1226,73
417,73	1257,45
417,94	1255,40
418,15	1376,24
418,35	1302,51
418,56	1288,17
418,77	1275,88
418,97	1302,51
419,18	1322,99
419,38	1282,03
419,59	1214,45
419,80	1261,55
420,00	1259,50
420,21	1198,06
420,42	1292,27
420,62	1236,97
420,83	1173,49
421,04	1312,75
421,24	1308,65
421,45	1312,75
421,65	1271,79
421,86	1288,17
422,07	1288,17
422,27	1259,50
422,48	1200,11
422,69	1177,58
422,89	1241,07
423,10	1308,65
423,30	1206,25
423,51	1288,17
423,72	1306,60
423,92	1228,78
424,13	1288,17
424,33	1251,31
424,54	1208,30
424,75	1327,08
424,95	1230,83
425,16	1261,55
425,36	1247,21
425,57	1230,83
425,78	1282,03
425,98	1355,76
426,19	1265,64
426,39	1243,12
426,60	1232,88
426,81	1290,22
427,01	1261,55
427,22	1296,36
427,42	1247,21
427,63	1236,97
427,83	1284,08
428,04	1275,88
428,25	1300,46
428,45	1267,69
428,66	1282,03
428,86	1312,75
429,07	1245,16
429,28	1284,08
429,48	1282,03
429,69	1277,93
429,89	1290,22
430,10	1234,93
430,30	1265,64
430,51	1253,36
430,71	1273,84
430,92	1296,36
431,13	1216,49
431,33	1273,84
431,54	1265,64
431,74	1327,08
431,95	1304,56
432,15	1314,80
432,36	1290,22
432,56	1275,88
432,77	1257,45
432,98	1308,65
433,18	1263,60
433,39	1271,79
433,59	1253,36
433,80	1298,41
434,00	1226,73
434,21	1236,97
434,41	1265,64
434,62	1222,64
434,82	1247,21
435,03	1239,02
435,23	1275,88
435,44	1255,40
435,64	1261,55
435,85	1232,88
436,06	1167,34
436,26	1249,26
436,47	1284,08
436,67	1275,88
436,88	1275,88
437,08	1277,93
437,29	1271,79
437,49	1214,45
437,70	1243,12
437,90	1282,03
438,11	1257,45
438,31	1251,31
438,52	1316,84
438,72	1232,88
438,93	1267,69
439,13	1290,22
439,34	1284,08
439,54	1286,12
439,75	1279,98
439,95	1200,11
440,16	1302,51
440,36	1208,30
440,57	1255,40
440,77	1304,56
440,98	1314,80
441,18	1290,22
441,39	1277,93
441,59	1247,21
441,80	1271,79
442,00	1263,60
442,21	1282,03
442,41	1335,28
442,62	1232,88
442,82	1212,40
443,02	1304,56
443,23	1224,69
443,43	1273,84
443,64	1228,78
443,84	1263,60
444,05	1239,02
444,25	1257,45
444,46	1277,93
444,66	1257,45
444,87	1232,88
445,07	1257,45
445,28	1265,64
445,48	1296,36
445,69	1273,84
445,89	1304,56
446,09	1259,50
446,30	1322,99
446,50	1255,40
446,71	1200,11
446,91	1304,56
447,12	1255,40
447,32	1296,36
447,53	1318,89
447,73	1245,16
447,93	1216,49
448,14	1222,64
448,34	1275,88
448,55	1263,60
448,75	1214,45
448,96	1372,14
449,16	1261,55
449,36	1236,97
449,57	1296,36
449,77	1271,79
449,98	1273,84
450,18	1298,41
450,39	1294,32
450,59	1245,16
450,79	1222,64
451,00	1302,51
451,20	1257,45
451,41	1370,09
451,61	1308,65
451,81	1339,37
452,02	1239,02
452,22	1247,21
452,43	1198,06
452,63	1279,98
452,84	1263,60
453,04	1275,88
453,24	1308,65
453,45	1288,17
453,65	1200,11
453,86	1202,16
454,06	1296,36
454,26	1347,56
454,47	1306,60
454,67	1284,08
454,87	1220,59
455,08	1236,97
455,28	1318,89
455,49	1263,60
455,69	1253,36
455,89	1290,22
456,10	1239,02
456,30	1277,93
456,51	1249,26
456,71	1322,99
456,91	1259,50
457,12	1273,84
457,32	1300,46
457,52	1259,50
457,73	1271,79
457,93	1286,12
458,14	1271,79
458,34	1241,07
458,54	1318,89
458,75	1265,64
458,95	1290,22
459,15	1232,88
459,36	1316,84
459,56	1239,02
459,76	1228,78
459,97	1251,31
460,17	1292,27
460,37	1286,12
460,58	1206,25
460,78	1265,64
460,99	1251,31
461,19	1247,21
461,39	1224,69
461,60	1222,64
461,80	1294,32
462,00	1265,64
462,21	1325,04
462,41	1273,84
462,61	1306,60
462,82	1265,64
463,02	1304,56
463,22	1232,88
463,43	1239,02
463,63	1284,08
463,83	1275,88
464,04	1243,12
464,24	1177,58
464,44	1214,45
464,64	1251,31
464,85	1298,41
465,05	1202,16
465,25	1277,93
465,46	1288,17
465,66	1353,71
465,86	1241,07
466,07	1312,75
466,27	1273,84
466,47	1300,46
466,68	1300,46
466,88	1380,33
467,08	1292,27
467,29	1292,27
467,49	1241,07
467,69	1216,49
467,89	1253,36
468,10	1216,49
468,30	1327,08
468,50	1251,31
468,71	1263,60
468,91	1304,56
469,11	1296,36
469,31	1314,80
469,52	1267,69
469,72	1269,74
469,92	1267,69
470,13	1345,52
470,33	1298,41
470,53	1236,97
470,73	1271,79
470,94	1239,02
471,14	1214,45
471,34	1339,37
471,54	1239,02
471,75	1224,69
471,95	1220,59
472,15	1267,69
472,36	1245,16
472,56	1325,04
472,76	1247,21
472,96	1284,08
473,17	1198,06
473,37	1382,38
473,57	1298,41
473,77	1251,31
473,98	1271,79
474,18	1277,93
474,38	1290,22
474,58	1173,49
474,79	1292,27
474,99	1232,88
475,19	1294,32
475,39	1210,35
475,60	1308,65
475,80	1255,40
476,00	1239,02
476,20	1232,88
476,41	1382,38
476,61	1339,37
476,81	1282,03
477,01	1337,32
477,21	1314,80
477,42	1265,64
477,62	1271,79
477,82	1255,40
478,02	1230,83
478,23	1284,08
478,43	1222,64
478,63	1232,88
478,83	1241,07
479,03	1259,50
479,24	1202,16
479,44	1236,97
479,64	1308,65
479,84	1314,80
480,04	1224,69
480,25	1261,55
480,45	1302,51
480,65	1259,50
480,85	1243,12
481,06	1269,74
481,26	1261,55
481,46	1269,74
481,66	1277,93
481,86	1243,12
482,06	1284,08
482,27	1277,93
482,47	1247,21
482,67	1259,50
482,87	1294,32
483,07	1286,12
483,28	1269,74
483,48	1263,60
483,68	1224,69
483,88	1292,27
484,08	1253,36
484,29	1263,60
484,49	1230,83
484,69	1279,98
484,89	1310,70
485,09	1183,73
485,29	1286,12
485,50	1300,46
485,70	1314,80
485,90	1206,25
486,10	1236,97
486,30	1265,64
486,50	1361,90
486,71	1331,18
486,91	1257,45
487,11	1222,64
487,31	1230,83
487,51	1308,65
487,71	1282,03
487,91	1249,26
488,12	1239,02
488,32	1255,40
488,52	1239,02
488,72	1222,64
488,92	1224,69
489,12	1306,60
489,32	1273,84
489,53	1259,50
489,73	1224,69
489,93	1269,74
490,13	1247,21
490,33	1265,64
490,53	1243,12
490,73	1351,66
490,94	1288,17
491,14	1316,84
491,34	1294,32
491,54	1267,69
491,74	1265,64
491,94	1316,84
492,14	1265,64
492,34	1249,26
492,54	1255,40
492,75	1312,75
492,95	1263,60
493,15	1277,93
493,35	1261,55
493,55	1236,97
493,75	1224,69
493,95	1355,76
494,15	1261,55
494,35	1306,60
494,56	1257,45
494,76	1302,51
494,96	1286,12
495,16	1253,36
495,36	1245,16
495,56	1275,88
495,76	1261,55
495,96	1306,60
496,16	1327,08
496,36	1318,89
496,56	1226,73
496,77	1294,32
496,97	1263,60
497,17	1294,32
497,37	1253,36
497,57	1222,64
497,77	1347,56
497,97	1282,03
498,17	1255,40
498,37	1284,08
498,57	1290,22
498,77	1265,64
498,97	1255,40
499,17	1312,75
499,38	1298,41
499,58	1275,88
499,78	1249,26
499,98	1265,64
500,18	1234,93
500,38	1275,88
500,58	1257,45
500,78	1265,64
500,98	1282,03
501,18	1308,65
501,38	1310,70
501,58	1200,11
501,78	1255,40
501,98	1171,44
502,18	1275,88
502,38	1183,73
502,58	1175,53
502,78	1304,56
502,98	1257,45
503,18	1234,93
503,38	1218,54
503,59	1257,45
503,79	1275,88
503,99	1249,26
504,19	1265,64
504,39	1345,52
504,59	1296,36
504,79	1308,65
504,99	1239,02
505,19	1304,56
505,39	1298,41
505,59	1243,12
505,79	1329,13
505,99	1196,01
506,19	1228,78
506,39	1257,45
506,59	1275,88
506,79	1275,88
506,99	1243,12
507,19	1298,41
507,39	1255,40
507,59	1230,83
507,79	1249,26
507,99	1247,21
508,19	1263,60
508,39	1277,93
508,59	1247,21
508,79	1255,40
508,99	1294,32
509,19	1239,02
509,39	1279,98
509,59	1259,50
509,79	1224,69
509,99	1210,35
510,19	1322,99
510,39	1200,11
510,59	1232,88
510,79	1247,21
510,99	1255,40
511,19	1298,41
511,39	1271,79
511,59	1298,41
511,79	1331,18
511,99	1292,27
512,19	1298,41
512,38	1331,18
512,58	1220,59
512,78	1308,65
512,98	1349,61
513,18	1275,88
513,38	1265,64
513,58	1306,60
513,78	1255,40
513,98	1292,27
514,18	1273,84
514,38	1298,41
514,58	1255,40
514,78	1241,07
514,98	1226,73
515,18	1249,26
515,38	1288,17
515,58	1329,13
515,78	1193,97
515,98	1263,60
516,18	1177,58
516,38	1325,04
516,57	1259,50
516,77	1331,18
516,97	1259,50
517,17	1318,89
517,37	1275,88
517,57	1253,36
517,77	1214,45
517,97	1245,16
518,17	1267,69
518,37	1279,98
518,57	1220,59
518,77	1273,84
518,97	1267,69
519,16	1290,22
519,36	1314,80
519,56	1273,84
519,76	1294,32
519,96	1306,60
520,16	1245,16
520,36	1337,32
520,56	1282,03
520,76	1286,12
520,96	1273,84
521,16	1265,64
521,35	1241,07
521,55	1275,88
521,75	1253,36
521,95	1257,45
522,15	1249,26
522,35	1298,41
522,55	1284,08
522,75	1216,49
522,95	1286,12
523,14	1247,21
523,34	1175,53
523,54	1239,02
523,74	1308,65
523,94	1277,93
524,14	1288,17
524,34	1302,51
524,54	1308,65
524,73	1232,88
524,93	1228,78
525,13	1290,22
525,33	1255,40
525,53	1366,00
525,73	1271,79
525,93	1216,49
526,13	1261,55
526,32	1316,84
526,52	1290,22
526,72	1253,36
526,92	1271,79
527,12	1263,60
527,32	1271,79
527,52	1245,16
527,71	1279,98
527,91	1341,42
528,11	1239,02
528,31	1288,17
528,51	1335,28
528,71	1265,64
528,90	1183,73
529,10	1273,84
529,30	1345,52
529,50	1204,21
529,70	1284,08
529,90	1234,93
530,09	1300,46
530,29	1247,21
530,49	1253,36
530,69	1241,07
530,89	1245,16
531,09	1327,08
531,28	1292,27
531,48	1304,56
531,68	1322,99
531,88	1267,69
532,08	1275,88
532,28	1279,98
532,47	1288,17
532,67	1351,66
532,87	1251,31
533,07	1277,93
533,27	1310,70
533,46	1261,55
533,66	1216,49
533,86	1239,02
534,06	1236,97
534,26	1284,08
534,45	1210,35
534,65	1204,21
534,85	1312,75
535,05	1290,22
535,25	1269,74
535,44	1288,17
535,64	1259,50
535,84	1257,45
536,04	1263,60
536,24	1267,69
536,43	1271,79
536,63	1316,84
536,83	1224,69
537,03	1339,37
537,22	1220,59
537,42	1265,64
537,62	1345,52
537,82	1302,51
538,02	1263,60
538,21	1236,97
538,41	1277,93
538,61	1290,22
538,81	1345,52
539,00	1304,56
539,20	1286,12
539,40	1261,55
539,60	1263,60
539,79	1273,84
539,99	1243,12
540,19	1230,83
540,39	1314,80
540,58	1243,12
540,78	1263,60
540,98	1234,93
541,18	1290,22
541,37	1325,04
541,57	1236,97
541,77	1200,11
541,97	1239,02
542,16	1234,93
542,36	1247,21
542,56	1257,45
542,76	1308,65
542,95	1286,12
543,15	1257,45
543,35	1249,26
543,54	1243,12
543,74	1255,40
543,94	1210,35
544,14	1257,45
544,33	1218,54
544,53	1288,17
544,73	1247,21
544,93	1275,88
545,12	1284,08
545,32	1335,28
545,52	1214,45
545,71	1269,74
545,91	1232,88
546,11	1277,93
546,30	1216,49
546,50	1210,35
546,70	1294,32
546,90	1304,56
547,09	1234,93
547,29	1269,74
547,49	1243,12
547,68	1261,55
547,88	1247,21
548,08	1294,32
548,27	1320,94
548,47	1265,64
548,67	1286,12
548,87	1232,88
549,06	1327,08
549,26	1286,12
549,46	1284,08
549,65	1267,69
549,85	1259,50
550,05	1279,98
550,24	1261,55
550,44	1275,88
550,64	1253,36
550,83	1265,64
551,03	1218,54
551,23	1302,51
551,42	1290,22
551,62	1230,83
551,82	1290,22
552,01	1288,17
552,21	1257,45
552,41	1290,22
552,60	1189,87
552,80	1277,93
553,00	1288,17
553,19	1249,26
553,39	1282,03
553,59	1226,73
553,78	1296,36
553,98	1308,65
554,17	1220,59
554,37	1329,13
554,57	1239,02
554,76	1265,64
554,96	1208,30
555,16	1265,64
555,35	1218,54
555,55	1308,65
555,75	1282,03
555,94	1228,78
556,14	1216,49
556,33	1216,49
556,53	1302,51
556,73	1335,28
556,92	1204,21
557,12	1312,75
557,32	1251,31
557,51	1226,73
557,71	1239,02
557,90	1298,41
558,10	1255,40
558,30	1269,74
558,49	1337,32
558,69	1282,03
558,88	1298,41
559,08	1196,01
559,28	1282,03
559,47	1251,31
559,67	1359,85
559,86	1273,84
560,06	1306,60
560,26	1345,52
560,45	1282,03
560,65	1275,88
560,84	1257,45
561,04	1292,27
561,24	1212,40
561,43	1214,45
561,63	1329,13
561,82	1335,28
562,02	1298,41
562,22	1241,07
562,41	1288,17
562,61	1286,12
562,80	1212,40
563,00	1255,40
563,19	1269,74
563,39	1337,32
563,59	1204,21
563,78	1261,55
563,98	1259,50
564,17	1277,93
564,37	1275,88
564,56	1255,40
564,76	1294,32
564,96	1310,70
565,15	1222,64
565,35	1320,94
565,54	1300,46
565,74	1255,40
565,93	1179,63
566,13	1241,07
566,32	1232,88
566,52	1241,07
566,71	1288,17
566,91	1208,30
567,11	1273,84
567,30	1255,40
567,50	1257,45
567,69	1273,84
567,89	1224,69
568,08	1325,04
568,28	1316,84
568,47	1232,88
568,67	1327,08
568,86	1279,98
569,06	1286,12
569,25	1259,50
569,45	1269,74
569,64	1339,37
569,84	1257,45
570,04	1288,17
570,23	1279,98
570,43	1245,16
570,62	1261,55
570,82	1271,79
571,01	1208,30
571,21	1263,60
571,40	1316,84
571,60	1275,88
571,79	1183,73
571,99	1232,88
572,18	1265,64
572,38	1279,98
572,57	1325,04
572,77	1357,80
572,96	1314,80
573,16	1245,16
573,35	1279,98
573,55	1267,69
573,74	1290,22
573,94	1263,60
574,13	1243,12
574,33	1239,02
574,52	1247,21
574,71	1331,18
574,91	1275,88
575,10	1196,01
575,30	1308,65
575,49	1249,26
575,69	1292,27
575,88	1257,45
576,08	1261,55
576,27	1259,50
576,47	1243,12
576,66	1304,56
576,86	1210,35
577,05	1269,74
577,25	1263,60
577,44	1302,51
577,64	1216,49
577,83	1269,74
578,02	1304,56
578,22	1239,02
578,41	1255,40
578,61	1292,27
578,80	1232,88
579,00	1253,36
579,19	1263,60
579,39	1302,51
579,58	1310,70
579,77	1232,88
579,97	1282,03
580,16	1245,16
580,36	1310,70
580,55	1251,31
580,75	1263,60
580,94	1218,54
581,13	1282,03
581,33	1261,55
581,52	1214,45
581,72	1271,79
581,91	1259,50
582,11	1271,79
582,30	1247,21
582,49	1298,41
582,69	1322,99
582,88	1255,40
583,08	1257,45
583,27	1284,08
583,47	1269,74
583,66	1273,84
583,85	1275,88
584,05	1279,98
584,24	1261,55
584,44	1302,51
584,63	1302,51
584,82	1298,41
585,02	1206,25
585,21	1306,60
585,41	1310,70
585,60	1216,49
585,79	1196,01
585,99	1282,03
586,18	1265,64
586,37	1175,53
586,57	1251,31
586,76	1251,31
586,96	1193,97
587,15	1239,02
587,34	1271,79
587,54	1234,93
587,73	1277,93
587,93	1279,98
588,12	1275,88
588,31	1236,97
588,51	1310,70
588,70	1232,88
588,89	1306,60
589,09	1302,51
589,28	1269,74
589,47	1349,61
589,67	1275,88
589,86	1300,46
590,06	1277,93
590,25	1202,16
590,44	1314,80
590,64	1331,18
590,83	1245,16
591,02	1255,40
591,22	1273,84
591,41	1261,55
591,60	1327,08
591,80	1253,36
591,99	1306,60
592,18	1236,97
592,38	1282,03
592,57	1277,93
592,76	1257,45
592,96	1279,98
593,15	1267,69
593,34	1243,12
593,54	1249,26
593,73	1290,22
593,92	1302,51
594,12	1288,17
594,31	1288,17
594,50	1243,12
594,70	1298,41
594,89	1308,65
595,08	1341,42
595,28	1284,08
595,47	1284,08
595,66	1226,73
595,86	1247,21
596,05	1230,83
596,24	1286,12
596,43	1247,21
596,63	1409,00
596,82	1255,40
597,01	1308,65
597,21	1261,55
597,40	1259,50
597,59	1208,30
597,79	1290,22
597,98	1261,55
598,17	1275,88
598,36	1296,36
598,56	1208,30
598,75	1275,88
598,94	1306,60
599,14	1255,40
599,33	1224,69
599,52	1312,75
599,71	1265,64
599,91	1304,56
600,10	1304,56
600,29	1282,03
600,48	1232,88
600,68	1263,60
600,87	1273,84
601,06	1253,36
601,26	1232,88
601,45	1351,66
601,64	1304,56
601,83	1306,60
602,03	1347,56
602,22	1353,71
602,41	1290,22
602,60	1263,60
602,80	1286,12
602,99	1204,21
603,18	1226,73
603,37	1286,12
603,57	1218,54
603,76	1304,56
603,95	1300,46
604,14	1224,69
604,34	1259,50
604,53	1292,27
604,72	1308,65
604,91	1308,65
605,10	1257,45
605,30	1282,03
605,49	1214,45
605,68	1366,00
605,87	1239,02
606,07	1288,17
606,26	1220,59
606,45	1220,59
606,64	1294,32
606,84	1263,60
607,03	1273,84
607,22	1294,32
607,41	1263,60
607,60	1263,60
607,80	1325,04
607,99	1259,50
608,18	1245,16
608,37	1210,35
608,56	1265,64
608,76	1263,60
608,95	1208,30
609,14	1286,12
609,33	1298,41
609,52	1230,83
609,72	1232,88
609,91	1290,22
610,10	1310,70
610,29	1243,12
610,48	1243,12
610,68	1292,27
610,87	1243,12
611,06	1382,38
611,25	1302,51
611,44	1259,50
611,63	1310,70
611,83	1257,45
612,02	1224,69
612,21	1257,45
612,40	1275,88
612,59	1239,02
612,79	1277,93
612,98	1247,21
613,17	1245,16
613,36	1247,21
613,55	1275,88
613,74	1269,74
613,93	1261,55
614,13	1263,60
614,32	1257,45
614,51	1300,46
614,70	1288,17
614,89	1290,22
615,08	1275,88
615,28	1308,65
615,47	1302,51
615,66	1265,64
615,85	1314,80
616,04	1296,36
616,23	1259,50
616,42	1255,40
616,62	1265,64
616,81	1275,88
617,00	1185,77
617,19	1241,07
617,38	1196,01
617,57	1277,93
617,76	1290,22
617,95	1263,60
618,15	1335,28
618,34	1273,84
618,53	1279,98
618,72	1374,19
618,91	1304,56
619,10	1273,84
619,29	1347,56
619,48	1372,14
619,68	1214,45
619,87	1298,41
620,06	1245,16
620,25	1302,51
620,44	1261,55
620,63	1265,64
620,82	1284,08
621,01	1265,64
621,20	1353,71
621,39	1265,64
621,59	1298,41
621,78	1259,50
621,97	1202,16
622,16	1269,74
622,35	1263,60
622,54	1257,45
622,73	1224,69
622,92	1234,93
623,11	1239,02
623,30	1378,28
623,49	1337,32
623,68	1236,97
623,88	1329,13
624,07	1269,74
624,26	1196,01
624,45	1245,16
624,64	1187,82
624,83	1331,18
625,02	1355,76
625,21	1359,85
625,40	1306,60
625,59	1269,74
625,78	1247,21
625,97	1372,14
626,16	1361,90
626,35	1329,13
626,54	1275,88
626,74	1298,41
626,93	1327,08
627,12	1345,52
627,31	1325,04
627,50	1300,46
627,69	1333,23
627,88	1386,47
628,07	1261,55
628,26	1284,08
628,45	1243,12
628,64	1269,74
628,83	1298,41
629,02	1277,93
629,21	1288,17
629,40	1277,93
629,59	1263,60
629,78	1251,31
629,97	1353,71
630,16	1212,40
630,35	1310,70
630,54	1329,13
630,73	1386,47
630,92	1404,91
631,11	1370,09
631,30	1372,14
631,49	1372,14
631,68	2090,98
631,87	5337,01
632,06	17194,75
632,25	32400,91
632,44	51582,19
632,63	65535,00
632,82	55895,21
633,01	26218,10
633,20	12646,21
633,39	6211,49
633,58	3475,40
633,77	2865,11
633,96	2633,69
634,15	2469,85
634,34	1964,00
634,53	1832,93
634,72	1773,54
634,91	1603,56
635,10	1613,80
635,29	1523,69
635,48	1521,64
635,67	1454,06
635,86	1423,34
636,05	1417,19
636,24	1404,91
636,43	1423,34
636,62	1318,89
636,81	1257,45
637,00	1294,32
637,19	1310,70
637,38	1335,28
637,57	1343,47
637,76	1314,80
637,95	1261,55
638,14	1423,34
638,33	1347,56
638,52	1271,79
638,71	1306,60
638,89	1247,21
639,08	1234,93
639,27	1253,36
639,46	1241,07
639,65	1341,42
639,84	1300,46
640,03	1284,08
640,22	1355,76
640,41	1302,51
640,60	1353,71
640,79	1361,90
640,98	1269,74
641,17	1263,60
641,36	1279,98
641,55	1312,75
641,74	1329,13
641,92	1267,69
642,11	1269,74
642,30	1232,88
642,49	1251,31
642,68	1234,93
642,87	1331,18
643,06	1200,11
643,25	1216,49
643,44	1376,24
643,63	1263,60
643,82	1314,80
644,00	1265,64
644,19	1253,36
644,38	1273,84
644,57	1232,88
644,76	1220,59
644,95	1255,40
645,14	1247,21
645,33	1284,08
645,52	1314,80
645,71	1286,12
645,89	1282,03
646,08	1345,52
646,27	1267,69
646,46	1267,69
646,65	1198,06
646,84	1261,55
647,03	1220,59
647,22	1300,46
647,40	1232,88
647,59	1267,69
647,78	1355,76
647,97	1243,12
648,16	1265,64
648,35	1339,37
648,54	1263,60
648,73	1220,59
648,91	1269,74
649,10	1275,88
649,29	1273,84
649,48	1198,06
649,67	1243,12
649,86	1368,04
650,05	1284,08
650,23	1325,04
650,42	1279,98
650,61	1286,12
650,80	1253,36
650,99	1333,23
651,18	1290,22
651,36	1331,18
651,55	1294,32
651,74	1239,02
651,93	1245,16
652,12	1253,36
652,31	1261,55
652,49	1204,21
652,68	1300,46
652,87	1290,22
653,06	1257,45
653,25	1259,50
653,44	1257,45
653,62	1282,03
653,81	1290,22
654,00	1275,88
654,19	1263,60
654,38	1277,93
654,56	1284,08
654,75	1206,25
654,94	1196,01
655,13	1322,99
655,32	1306,60
655,51	1284,08
655,69	1341,42
655,88	1232,88
656,07	1261,55
656,26	1284,08
656,45	1273,84
656,63	1292,27
656,82	1271,79
657,01	1322,99
657,20	1331,18
657,38	1253,36
657,57	1304,56
657,76	1247,21
657,95	1234,93
658,14	1277,93
658,32	1282,03
658,51	1292,27
658,70	1214,45
658,89	1275,88
659,08	1300,46
659,26	1363,95
659,45	1261,55
659,64	1325,04
659,83	1275,88
660,01	1277,93
660,20	1228,78
660,39	1312,75
660,58	1255,40
660,76	1296,36
660,95	1284,08
661,14	1243,12
661,33	1249,26
661,51	1259,50
661,70	1329,13
661,89	1306,60
662,08	1292,27
662,26	1263,60
662,45	1241,07
662,64	1269,74
662,83	1298,41
663,01	1298,41
663,20	1277,93
663,39	1220,59
663,58	1198,06
663,76	1296,36
663,95	1279,98
664,14	1232,88
664,32	1271,79
664,51	1212,40
664,70	1294,32
664,89	1226,73
665,07	1265,64
665,26	1226,73
665,45	1294,32
665,64	1247,21
665,82	1294,32
666,01	1255,40
666,20	1269,74
666,38	1198,06
666,57	1234,93
666,76	1247,21
666,95	1251,31
667,13	1224,69
667,32	1275,88
667,51	1208,30
667,69	1249,26
667,88	1277,93
668,07	1232,88
668,25	1308,65
668,44	1316,84
668,63	1292,27
668,81	1243,12
669,00	1316,84
669,19	1275,88
669,38	1257,45
669,56	1269,74
669,75	1288,17
669,94	1273,84
670,12	1245,16
670,31	1224,69
670,50	1294,32
670,68	1239,02
670,87	1279,98
671,06	1228,78
671,24	1306,60
671,43	1277,93
671,62	1284,08
671,80	1239,02
671,99	1204,21
672,18	1331,18
672,36	1273,84
672,55	1249,26
672,74	1269,74
672,92	1257,45
673,11	1292,27
673,29	1206,25
673,48	1310,70
673,67	1273,84
673,85	1282,03
674,04	1245,16
674,23	1273,84
674,41	1306,60
674,60	1294,32
674,79	1257,45
674,97	1306,60
675,16	1228,78
675,34	1239,02
675,53	1290,22
675,72	1239,02
675,90	1312,75
676,09	1253,36
676,28	1267,69
676,46	1290,22
676,65	1304,56
676,83	1239,02
677,02	1257,45
677,21	1300,46
677,39	1249,26
677,58	1279,98
677,77	1290,22
677,95	1214,45
678,14	1214,45
678,32	1241,07
678,51	1279,98
678,70	1263,60
678,88	1279,98
679,07	1341,42
679,25	1253,36
679,44	1279,98
679,63	1212,40
679,81	1275,88
680,00	1306,60
680,18	1282,03
680,37	1335,28
680,55	1245,16
680,74	1325,04
680,93	1286,12
681,11	1320,94
681,30	1228,78
681,48	1277,93
681,67	1253,36
681,85	1308,65
682,04	1218,54
682,23	1263,60
682,41	1329,13
682,60	1265,64
682,78	1333,23
682,97	1269,74
683,15	1279,98
683,34	1216,49
683,53	1300,46
683,71	1349,61
683,90	1279,98
684,08	1282,03
684,27	1341,42
684,45	1249,26
684,64	1271,79
684,82	1212,40
685,01	1249,26
685,19	1257,45
685,38	1331,18
685,57	1210,35
685,75	1134,57
685,94	1161,20
686,12	1216,49
686,31	1204,21
686,49	1288,17
686,68	1271,79
686,86	1247,21
687,05	1288,17
687,23	1204,21
687,42	1245,16
687,60	1277,93
687,79	1208,30
687,97	1259,50
688,16	1325,04
688,34	1288,17
688,53	1265,64
688,71	1279,98
688,90	1232,88
689,08	1263,60
689,27	1325,04
689,45	1269,74
689,64	1239,02
689,82	1277,93
690,01	1257,45
690,19	1234,93
690,38	1202,16
690,56	1271,79
690,75	1300,46
690,93	1312,75
691,12	1298,41
691,30	1257,45
691,49	1267,69
691,67	1257,45
691,86	1316,84
692,04	1243,12
692,23	1361,90
692,41	1265,64
692,60	1306,60
692,78	1249,26
692,97	1290,22
693,15	1341,42
693,34	1247,21
693,52	1312,75
693,71	1236,97
693,89	1230,83
694,08	1236,97
694,26	1212,40
694,44	1224,69
694,63	1265,64
694,81	1239,02
695,00	1257,45
695,18	1249,26
695,37	1220,59
695,55	1210,35
695,74	1279,98
695,92	1277,93
696,10	1267,69
696,29	1279,98
696,47	1282,03
696,66	1243,12
696,84	1228,78
697,03	1196,01
697,21	1269,74
697,40	1306,60
697,58	1304,56
697,76	1232,88
697,95	1255,40
698,13	1253,36
698,32	1267,69
698,50	1273,84
698,68	1279,98
698,87	1351,66
699,05	1265,64
699,24	1177,58
699,42	1226,73
699,61	1267,69
699,79	1294,32
699,97	1230,83
700,16	1290,22
700,34	1318,89
700,53	1306,60
700,71	1363,95
700,89	1288,17
701,08	1279,98
701,26	1284,08
701,45	1239,02
701,63	1239,02
701,81	1230,83
702,00	1296,36
702,18	1259,50
702,37	1202,16
702,55	1216,49
702,73	1296,36
702,92	1218,54
703,10	1314,80
703,28	1243,12
703,47	1230,83
703,65	1202,16
703,84	1333,23
704,02	1271,79
704,20	1294,32
704,39	1208,30
704,57	1288,17
704,75	1277,93
704,94	1241,07
705,12	1273,84
705,30	1273,84
705,49	1265,64
705,67	1226,73
705,86	1247,21
706,04	1304,56
706,22	1329,13
706,41	1241,07
706,59	1232,88
706,77	1230,83
706,96	1296,36
707,14	1232,88
707,32	1224,69
707,51	1261,55
707,69	1290,22
707,87	1241,07
708,06	1212,40
708,24	1245,16
708,42	1286,12
708,61	1251,31
708,79	1267,69
708,97	1255,40
709,16	1316,84
709,34	1279,98
709,52	1202,16
709,71	1298,41
709,89	1259,50
710,07	1263,60
710,26	1265,64
710,44	1325,04
710,62	1298,41
710,80	1294,32
710,99	1275,88
711,17	1255,40
711,35	1261,55
711,54	1232,88
711,72	1230,83
711,90	1210,35
712,09	1230,83
712,27	1279,98
712,45	1310,70
712,63	1353,71
712,82	1310,70
713,00	1294,32
713,18	1267,69
713,37	1267,69
713,55	1306,60
713,73	1243,12
713,91	1218,54
714,10	1222,64
714,28	1249,26
714,46	1243,12
714,65	1249,26
714,83	1206,25
715,01	1257,45
715,19	1222,64
715,38	1239,02
715,56	1290,22
715,74	1286,12
715,92	1193,97
716,11	1251,31
716,29	1251,31
716,47	1284,08
716,65	1232,88
716,84	1290,22
717,02	1349,61
717,20	1267,69
717,38	1277,93
717,57	1284,08
717,75	1179,63
717,93	1318,89
718,11	1253,36
718,30	1290,22
718,48	1208,30
718,66	1269,74
718,84	1261,55
719,03	1331,18
719,21	1261,55
719,39	1329,13
719,57	1236,97
719,75	1335,28
719,94	1314,80
720,12	1222,64
720,30	1228,78
720,48	1273,84
720,67	1247,21
720,85	1284,08
721,03	1302,51
721,21	1302,51
721,39	1232,88
721,58	1308,65
721,76	1306,60
721,94	1277,93
722,12	1290,22
722,30	1204,21
722,49	1263,60
722,67	1282,03
722,85	1234,93
723,03	1339,37
723,21	1290,22
723,40	1294,32
723,58	1265,64
723,76	1359,85
723,94	1273,84
724,12	1292,27
724,30	1302,51
724,49	1277,93
724,67	1222,64
724,85	1265,64
725,03	1245,16
725,21	1279,98
725,40	1306,60
725,58	1273,84
725,76	1265,64
725,94	1263,60
726,12	1277,93
726,30	1212,40
726,49	1198,06
726,67	1249,26
726,85	1359,85
727,03	1277,93
727,21	1279,98
727,39	1247,21
727,57	1245,16
727,76	1263,60
727,94	1212,40
728,12	1277,93
728,30	1282,03
728,48	1224,69
728,66	1275,88
728,84	1288,17
729,03	1241,07
729,21	1253,36
729,39	1282,03
729,57	1298,41
729,75	1308,65
729,93	1300,46
730,11	1298,41
730,30	1185,77
730,48	1273,84
730,66	1243,12
730,84	1290,22
731,02	1296,36
731,20	1322,99
731,38	1212,40
731,56	1253,36
731,74	1245,16
731,93	1265,64
732,11	1202,16
732,29	1228,78
732,47	1228,78
732,65	1277,93
732,83	1304,56
733,01	1357,80
733,19	1202,16
733,37	1277,93
733,56	1294,32
733,74	1255,40
733,92	1275,88
734,10	1355,76
734,28	1230,83
734,46	1232,88
734,64	1279,98
734,82	1351,66
735,00	1196,01
735,18	1267,69
735,36	1312,75
735,54	1261,55
735,73	1271,79
735,91	1298,41
736,09	1284,08
736,27	1232,88
736,45	1261,55
736,63	1239,02
736,81	1294,32
736,99	1351,66
737,17	1216,49
737,35	1304,56
737,53	1277,93
737,71	1253,36
737,89	1335,28
738,07	1306,60
738,25	1271,79
738,43	1263,60
738,61	1226,73
738,80	1337,32
738,98	1279,98
739,16	1300,46
739,34	1275,88
739,52	1251,31
739,70	1265,64
739,88	1224,69
740,06	1306,60
740,24	1249,26
740,42	1277,93
740,60	1296,36
740,78	1267,69
740,96	1247,21
741,14	1286,12
741,32	1253,36
741,50	1304,56
741,68	1271,79
741,86	1243,12
742,04	1208,30
742,22	1322,99
742,40	1263,60
742,58	1271,79
742,76	1241,07
742,94	1271,79
743,12	1298,41
743,30	1290,22
743,48	1302,51
743,66	1163,25
743,84	1253,36
744,02	1226,73
744,20	1325,04
744,38	1228,78
744,56	1267,69
744,74	1314,80
744,92	1189,87
745,10	1318,89
745,28	1329,13
745,46	1349,61
745,64	1308,65
745,82	1212,40
746,00	1267,69
746,18	1257,45
746,36	1294,32
746,54	1202,16
746,72	1312,75
746,90	1247,21
747,08	1249,26
747,26	1259,50
747,44	1308,65
747,62	1228,78
747,80	1263,60
747,98	1214,45
748,15	1341,42
748,33	1300,46
748,51	1310,70
748,69	1198,06
748,87	1310,70
749,05	1257,45
749,23	1269,74
749,41	1239,02
749,59	1290,22
749,77	1310,70
749,95	1318,89
750,13	1204,21
750,31	1308,65
750,49	1263,60
750,67	1265,64
750,85	1329,13
751,03	1210,35
751,20	1275,88
751,38	1230,83
751,56	1279,98
751,74	1345,52
751,92	1286,12
752,10	1267,69
752,28	1288,17
752,46	1230,83
752,64	1282,03
752,82	1257,45
753,00	1320,94
753,18	1263,60
753,35	1279,98
753,53	1234,93
753,71	1185,77
753,89	1243,12
754,07	1210,35
754,25	1263,60
754,43	1288,17
754,61	1257,45
754,79	1298,41
754,97	1331,18
755,14	1306,60
755,32	1286,12
755,50	1271,79
755,68	1222,64
755,86	1230,83
756,04	1306,60
756,22	1259,50
756,40	1398,76
756,57	1255,40
756,75	1286,12
756,93	1282,03
757,11	1267,69
757,29	1273,84
757,47	1220,59
757,65	1255,40
757,82	1318,89
758,00	1333,23
758,18	1294,32
758,36	1271,79
758,54	1263,60
758,72	1239,02
758,90	1273,84
759,07	1200,11
759,25	1345,52
759,43	1304,56
759,61	1277,93
759,79	1261,55
759,97	1232,88
760,15	1239,02
760,32	1249,26
760,50	1196,01
760,68	1277,93
760,86	1212,40
761,04	1189,87
761,22	1279,98
761,39	1226,73
761,57	1224,69
761,75	1230,83
761,93	1306,60
762,11	1191,92
762,28	1259,50
762,46	1267,69
762,64	1236,97
762,82	1150,96
763,00	1308,65
763,18	1329,13
763,35	1277,93
763,53	1265,64
763,71	1249,26
763,89	1290,22
764,07	1196,01
764,24	1277,93
764,42	1253,36
764,60	1275,88
764,78	1284,08
764,96	1275,88
765,13	1288,17
765,31	1290,22
765,49	1245,16
765,67	1206,25
765,84	1191,92
766,02	1224,69
766,20	1286,12
766,38	1312,75
766,56	1275,88
766,73	1300,46
766,91	1269,74
767,09	1273,84
767,27	1263,60
767,44	1210,35
767,62	1329,13
767,80	1224,69
767,98	1265,64
768,15	1230,83
768,33	1345,52
768,51	1282,03
768,69	1302,51
768,87	1314,80
769,04	1316,84
769,22	1230,83
769,40	1236,97
769,58	1212,40
769,75	1374,19
769,93	1294,32
770,11	1306,60
770,28	1218,54
770,46	1253,36
770,64	1372,14
770,82	1218,54
770,99	1290,22
771,17	1267,69
771,35	1257,45
771,53	1253,36
771,70	1253,36
771,88	1269,74
772,06	1302,51
772,23	1243,12
772,41	1320,94
772,59	1339,37
772,77	1290,22
772,94	1282,03
773,12	1253,36
773,30	1269,74
773,47	1286,12
773,65	1222,64
773,83	1214,45
774,01	1251,31
774,18	1279,98
774,36	1331,18
774,54	1208,30
774,71	1251,31
774,89	1247,21
775,07	1226,73
775,24	1234,93
775,42	1322,99
775,60	1312,75
775,78	1300,46
775,95	1339,37
776,13	1261,55
776,31	1257,45
776,48	1316,84
776,66	1327,08
776,84	1220,59
777,01	1224,69
777,19	1267,69
777,37	1181,68
777,54	1263,60
777,72	1265,64
777,90	1335,28
778,07	1271,79
778,25	1251,31
778,43	1275,88
778,60	1239,02
778,78	1277,93
778,96	1290,22
779,13	1271,79
779,31	1193,97
779,49	1320,94
779,66	1191,92
779,84	1302,51
780,01	1247,21
780,19	1265,64
780,37	1232,88
780,54	1329,13
780,72	1191,92
780,90	1273,84
781,07	1234,93
781,25	1245,16
781,43	1222,64
781,60	1306,60
781,78	1261,55
781,95	1259,50
782,13	1284,08
782,31	1239,02
782,48	1353,71
782,66	1247,21
782,83	1282,03
783,01	1273,84
783,19	1208,30
783,36	1271,79
783,54	1286,12
783,72	1269,74
783,89	1239,02
784,07	1290,22
784,24	1210,35
784,42	1247,21
784,60	1310,70
784,77	1243,12
784,95	1273,84
785,12	1232,88
785,30	1251,31
785,47	1259,50
785,65	1347,56
785,83	1236,97
786,00	1329,13
786,18	1255,40
786,35	1290,22
786,53	1251,31
786,71	1290,22
786,88	1310,70
787,06	1249,26
787,23	1273,84
787,41	1200,11
787,58	1261,55
787,76	1286,12
787,94	1265,64
788,11	1234,93
788,29	1290,22
788,46	1236,97
788,64	1249,26
788,81	1271,79
788,99	1273,84
789,16	1282,03
789,34	1236,97
789,52	1318,89
789,69	1320,94
789,87	1271,79
790,04	1318,89
790,22	1286,12
790,39	1236,97
790,57	1269,74
790,74	1339,37
790,92	1277,93
791,09	1212,40
791,27	1286,12
791,44	1243,12
791,62	1269,74
791,79	1279,98
791,97	1363,95
792,15	1232,88
792,32	1249,26
792,50	1314,80
792,67	1226,73
792,85	1302,51
793,02	1269,74
793,20	1296,36
793,37	1239,02
793,55	1259,50
793,72	1300,46
793,90	1271,79
794,07	1275,88
794,25	1226,73
794,42	1247,21
794,60	1234,93
794,77	1265,64
794,95	1249,26
795,12	1220,59
795,30	1212,40
795,47	1296,36
795,65	1255,40
795,82	1259,50
796,00	1302,51
796,17	1193,97
796,34	1279,98
796,52	1288,17
796,69	1239,02
796,87	1363,95
797,04	1302,51
797,22	1228,78
797,39	1316,84
797,57	1224,69
797,74	1288,17
797,92	1241,07
798,09	1253,36
798,27	1239,02
798,44	1333,23
798,62	1314,80
798,79	1243,12
798,96	1290,22
799,14	1247,21
799,31	1251,31
799,49	1181,68
799,66	1236,97
799,84	1247,21
800,01	1241,07
800,19	1198,06
800,36	1341,42
800,53	1245,16
800,71	1298,41
800,88	1314,80
801,06	1308,65
801,23	1210,35
801,41	1210,35
801,58	1245,16
801,75	1269,74
801,93	1222,64
802,10	1279,98
802,28	1290,22
802,45	1343,47
802,63	1290,22
802,80	1214,45
802,97	1288,17
803,15	1251,31
803,32	1286,12
803,50	1298,41
803,67	1275,88
803,84	1245,16
804,02	1314,80
804,19	1290,22
804,37	1230,83
804,54	1177,58
804,71	1249,26
804,89	1249,26
805,06	1243,12
805,24	1292,27
805,41	1255,40
805,58	1247,21
805,76	1236,97
805,93	1320,94
806,10	1245,16
806,28	1263,60
806,45	1282,03
806,63	1316,84
806,80	1234,93
806,97	1304,56
807,15	1294,32
807,32	1187,82
807,49	1265,64
807,67	1320,94
807,84	1232,88
808,01	1208,30
808,19	1257,45
808,36	1269,74
808,54	1306,60
808,71	1298,41
808,88	1204,21
809,06	1220,59
809,23	1312,75
809,40	1236,97
809,58	1226,73
809,75	1255,40
809,92	1282,03
810,10	1261,55
810,27	1304,56
810,44	1306,60
810,62	1265,64
810,79	1249,26
810,96	1173,49
811,14	1306,60
811,31	1282,03
811,48	1257,45
811,66	1239,02
811,83	1290,22
812,00	1255,40
812,18	1331,18
812,35	1224,69
812,52	1222,64
812,69	1275,88
812,87	1284,08
813,04	1218,54
813,21	1277,93
813,39	1322,99
813,56	1202,16
813,73	1275,88
813,91	1257,45
814,08	1298,41
814,25	1153,01
814,42	1239,02
814,60	1341,42
814,77	1247,21
814,94	1230,83
815,12	1308,65
815,29	1308,65
815,46	1298,41
815,63	1259,50
815,81	1261,55
815,98	1230,83
816,15	1247,21
816,33	1220,59
816,50	1247,21
816,67	1286,12
816,84	1296,36
817,02	1292,27
817,19	1228,78
817,36	1269,74
817,53	1288,17
817,71	1314,80
817,88	1286,12
818,05	1312,75
818,22	1302,51
818,40	1288,17
818,57	1304,56
818,74	1263,60
818,91	1247,21
819,09	1314,80
819,26	1243,12
819,43	1267,69
819,60	1279,98
819,78	1259,50
819,95	1335,28
820,12	1286,12
820,29	1222,64
820,47	1271,79
820,64	1282,03
820,81	1214,45
820,98	1226,73
821,15	1232,88
821,33	1251,31
821,50	1208,30
821,67	1226,73
821,84	1296,36
822,02	1327,08
822,19	1320,94
822,36	1298,41
822,53	1198,06
822,70	1234,93
822,88	1310,70
823,05	1273,84
823,22	1167,34
823,39	1284,08
823,56	1239,02
823,74	1370,09
823,91	1286,12
824,08	1249,26
824,25	1163,25
824,42	1167,34
824,60	1224,69
824,77	1288,17
824,94	1269,74
825,11	1253,36
825,28	1290,22
825,45	1214,45
825,63	1286,12
825,80	1183,73
825,97	1267,69
826,14	1265,64
826,31	1226,73
826,48	1290,22
826,66	1218,54
826,83	1296,36
827,00	1267,69
827,17	1300,46
827,34	1204,21
827,51	1290,22
827,69	1333,23
827,86	1224,69
828,03	1298,41
828,20	1312,75
828,37	1275,88
828,54	1249,26
828,71	1298,41
828,89	1327,08
829,06	1263,60
829,23	1337,32
829,40	1208,30
829,57	1241,07
829,74	1277,93
829,91	1253,36
830,09	1271,79
830,26	1310,70
830,43	1271,79
830,60	1308,65
830,77	1279,98
830,94	1232,88
831,11	1212,40
831,28	1304,56
831,46	1222,64
831,63	1302,51
831,80	1265,64
831,97	1277,93
832,14	1312,75
832,31	1261,55
832,48	1296,36
832,65	1279,98
832,82	1216,49
832,99	1329,13
833,17	1265,64
833,34	1284,08
833,51	1191,92
833,68	1296,36
833,85	1284,08
834,02	1265,64
834,19	1288,17
834,36	1265,64
834,53	1257,45
834,70	1239,02
834,87	1282,03
835,04	1310,70
835,22	1263,60
835,39	1282,03
835,56	1224,69
835,73	1279,98
835,90	1230,83
836,07	1310,70
836,24	1236,97
836,41	1333,23
836,58	1232,88
836,75	1320,94
836,92	1265,64
837,09	1251,31
837,26	1236,97
837,43	1286,12
837,60	1253,36
837,77	1333,23
837,94	1253,36
838,12	1267,69
838,29	1282,03
838,46	1257,45
838,63	1191,92
838,80	1265,64
838,97	1318,89
839,14	1296,36
839,31	1288,17
839,48	1228,78
839,65	1263,60
839,82	1294,32
839,99	1294,32
840,16	1372,14
840,33	1210,35
840,50	1279,98
840,67	1275,88
840,84	1300,46
841,01	1290,22
841,18	1286,12
841,35	1368,04
841,52	1325,04
841,69	1210,35
841,86	1247,21
842,03	1277,93
842,20	1271,79
842,37	1230,83
842,54	1263,60
842,71	1279,98
842,88	1273,84
843,05	1292,27
843,22	1288,17
843,39	1251,31
843,56	1347,56
843,73	1277,93
843,90	1288,17
844,07	1269,74
844,24	1247,21
844,41	1279,98
844,58	1214,45
844,75	1245,16
844,92	1286,12
845,09	1335,28
845,26	1210,35
845,43	1265,64
845,60	1306,60
845,77	1239,02
845,94	1251,31
846,10	1286,12
846,27	1234,93
846,44	1265,64
846,61	1288,17
846,78	1239,02
846,95	1249,26
847,12	1265,64
847,29	1331,18
847,46	1204,21
847,63	1251,31
847,80	1185,77
847,97	1300,46
848,14	1259,50
848,31	1282,03
848,48	1226,73
848,65	1277,93
848,82	1263,60
848,98	1275,88
849,15	1230,83
849,32	1296,36
849,49	1277,93
849,66	1245,16
849,83	1234,93
850,00	1239,02
850,17	1239,02
850,34	1294,32
850,51	1265,64
850,68	1241,07
850,85	1298,41
851,01	1310,70
851,18	1247,21
851,35	1320,94
851,52	1181,68
851,69	1282,03
851,86	1316,84
852,03	1271,79
852,20	1267,69
852,37	1275,88
852,53	1294,32
852,70	1331,18
852,87	1239,02
853,04	1288,17
853,21	1232,88
853,38	1302,51
853,55	1282,03
853,72	1263,60
853,89	1249,26
854,05	1312,75
854,22	1222,64
854,39	1279,98
854,56	1257,45
854,73	1249,26
854,90	1228,78
855,07	1265,64
855,23	1337,32
855,40	1288,17
855,57	1255,40
855,74	1290,22
855,91	1265,64
856,08	1157,10
856,25	1220,59
856,41	1259,50
856,58	1228,78
856,75	1290,22
856,92	1253,36
857,09	1353,71
857,26	1249,26
857,42	1251,31
857,59	1298,41
857,76	1191,92
857,93	1290,22
858,10	1243,12
858,27	1255,40
858,43	1226,73
858,60	1191,92
858,77	1204,21
858,94	1261,55
859,11	1275,88
859,27	1267,69
859,44	1302,51
859,61	1316,84
859,78	1275,88
859,95	1279,98
860,12	1304,56
860,28	1216,49
860,45	1284,08
860,62	1290,22
860,79	1331,18
860,95	1157,10
861,12	1249,26
861,29	1189,87
861,46	1232,88
861,63	1259,50
861,79	1208,30
861,96	1304,56
862,13	1290,22
862,30	1255,40
862,47	1224,69
862,63	1243,12
862,80	1341,42
862,97	1267,69
863,14	1282,03
863,30	1292,27
863,47	1273,84
863,64	1269,74
863,81	1232,88
863,97	1300,46
864,14	1228,78
864,31	1232,88
864,48	1239,02
864,65	1263,60
864,81	1206,25
864,98	1353,71
865,15	1288,17
865,32	1269,74
865,48	1265,64
865,65	1288,17
865,82	1269,74
865,98	1210,35
866,15	1320,94
866,32	1282,03
866,49	1298,41
866,65	1267,69
866,82	1282,03
866,99	1214,45
867,16	1304,56
867,32	1302,51
867,49	1249,26
867,66	1243,12
867,83	1288,17
867,99	1232,88
868,16	1329,13
868,33	1304,56
868,49	1232,88
868,66	1302,51
868,83	1302,51
868,99	1310,70
869,16	1259,50
869,33	1236,97
869,50	1243,12
869,66	1267,69
869,83	1253,36
870,00	1255,40
870,16	1290,22
870,33	1249,26
870,50	1257,45
870,66	1284,08
870,83	1306,60
871,00	1234,93
871,17	1298,41
871,33	1273,84
871,50	1290,22
871,67	1267,69
871,83	1288,17
872,00	1218,54
872,17	1236,97
872,33	1239,02
872,50	1284,08
872,67	1226,73
872,83	1241,07
873,00	1275,88
873,17	1267,69
873,33	1216,49
873,50	1269,74
873,67	1241,07
873,83	1249,26
874,00	1251,31
874,16	1245,16
874,33	1249,26
874,50	1265,64
874,66	1220,59
874,83	1228,78
875,00	1230,83
875,16	1261,55
875,33	1243,12
875,50	1374,19
875,66	1232,88
875,83	1284,08
875,99	1288,17
876,16	1275,88
876,33	1372,14
876,49	1249,26
876,66	1220,59
876,83	1312,75
876,99	1230,83
877,16	1294,32
877,32	1261,55
877,49	1251,31
877,66	1216,49
877,82	1292,27
877,99	1306,60
878,15	1290,22
878,32	1347,56
878,49	1290,22
878,65	1241,07
878,82	1251,31
878,98	1282,03
879,15	1357,80
879,32	1232,88
879,48	1241,07
879,65	1243,12
879,81	1226,73
879,98	1333,23
880,15	1269,74
880,31	1298,41
880,48	1277,93
880,64	1327,08
880,81	1322,99
880,97	1243,12
881,14	1263,60
881,31	1251,31
881,47	1275,88
881,64	1247,21
881,80	1148,91
881,97	1236,97
882,13	1232,88
882,30	1325,04
882,47	1212,40
882,63	1198,06
882,80	1308,65
882,96	1275,88
883,13	1314,80
883,29	1316,84
883,46	1308,65
883,62	1300,46
883,79	1200,11
883,95	1302,51
884,12	1263,60
884,29	1286,12
884,45	1239,02
884,62	1220,59
884,78	1288,17
884,95	1206,25
885,11	1206,25
885,28	1206,25
885,44	1406,95
885,61	1357,80
885,77	1302,51
885,94	1290,22
886,10	1257,45
886,27	1245,16
886,43	1230,83
886,60	1314,80
886,76	1353,71
886,93	1292,27
887,09	1253,36
887,26	1228,78
887,42	1314,80
887,59	1263,60
887,75	1314,80
887,92	1214,45
888,08	1322,99
888,25	1230,83
888,41	1273,84
888,58	1241,07
888,74	1245,16
888,91	1243,12
>>>>>End Processed Spectral Data<<<<<
