SpectraSuite Data File
++++++++++++++++++++++++++++++++++++
Date: Sun Apr 03 15:32:04 CEST 2016
User: root
Dark Spectrum Present: No
Reference Spectrum Present: No
Number of Sampled Component Spectra: 1
Spectrometers: USB4C02835
Integration Time (usec): 10000 (USB4C02835)
Spectra Averaged: 1 (USB4C02835)
Boxcar Smoothing: 0 (USB4C02835)
Correct for Electrical Dark: No (USB4C02835)
Strobe/Lamp Enabled: No (USB4C02835)
Correct for Detector Non-linearity: No (USB4C02835)
Correct for Stray Light: No (USB4C02835)
Number of Pixels in Processed Spectrum: 3648
>>>>>Begin Processed Spectral Data<<<<<
177,47	1294,32
177,69	1294,32
177,91	1294,32
178,13	1335,28
178,36	1220,59
178,58	1282,03
178,80	1298,41
179,02	1286,12
179,24	1255,40
179,46	1292,27
179,68	1249,26
179,90	1290,22
180,13	1275,88
180,35	1249,26
180,57	1243,12
180,79	1239,02
181,01	1318,89
181,23	1316,84
181,45	1322,99
181,67	1284,08
181,90	1310,70
182,12	1271,79
182,34	1259,50
182,56	1241,07
182,78	1245,16
183,00	1234,93
183,22	1263,60
183,44	1261,55
183,66	1325,04
183,89	1245,16
184,11	1279,98
184,33	1292,27
184,55	1259,50
184,77	1255,40
184,99	1310,70
185,21	1210,35
185,43	1294,32
185,65	1282,03
185,87	1320,94
186,10	1284,08
186,32	1312,75
186,54	1179,63
186,76	1302,51
186,98	1245,16
187,20	1247,21
187,42	1331,18
187,64	1325,04
187,86	1273,84
188,08	1282,03
188,30	1241,07
188,52	1296,36
188,75	1306,60
188,97	1304,56
189,19	1320,94
189,41	1247,21
189,63	1329,13
189,85	1206,25
190,07	1224,69
190,29	1320,94
190,51	1212,40
190,73	1284,08
190,95	1241,07
191,17	1298,41
191,39	1279,98
191,61	1275,88
191,84	1249,26
192,06	1314,80
192,28	1257,45
192,50	1316,84
192,72	1284,08
192,94	1327,08
193,16	1306,60
193,38	1296,36
193,60	1345,52
193,82	1265,64
194,04	1282,03
194,26	1173,49
194,48	1222,64
194,70	1286,12
194,92	1290,22
195,14	1267,69
195,36	1298,41
195,58	1296,36
195,80	1204,21
196,02	1257,45
196,24	1226,73
196,46	1290,22
196,69	1271,79
196,91	1216,49
197,13	1288,17
197,35	1284,08
197,57	1306,60
197,79	1245,16
198,01	1327,08
198,23	1234,93
198,45	1279,98
198,67	1216,49
198,89	1308,65
199,11	1267,69
199,33	1271,79
199,55	1271,79
199,77	1239,02
199,99	1300,46
200,21	1230,83
200,43	1343,47
200,65	1265,64
200,87	1228,78
201,09	1263,60
201,31	1286,12
201,53	1296,36
201,75	1245,16
201,97	1302,51
202,19	1259,50
202,41	1282,03
202,63	1339,37
202,85	1273,84
203,07	1247,21
203,29	1181,68
203,51	1179,63
203,73	1282,03
203,95	1286,12
204,17	1241,07
204,39	1312,75
204,61	1153,01
204,83	1198,06
205,05	1251,31
205,27	1210,35
205,49	1257,45
205,71	1226,73
205,93	1236,97
206,15	1247,21
206,37	1265,64
206,59	1200,11
206,81	1286,12
207,03	1327,08
207,25	1224,69
207,47	1263,60
207,69	1257,45
207,91	1277,93
208,13	1288,17
208,34	1249,26
208,56	1234,93
208,78	1249,26
209,00	1247,21
209,22	1290,22
209,44	1198,06
209,66	1257,45
209,88	1202,16
210,10	1271,79
210,32	1294,32
210,54	1284,08
210,76	1271,79
210,98	1263,60
211,20	1259,50
211,42	1314,80
211,64	1271,79
211,86	1263,60
212,08	1241,07
212,30	1239,02
212,52	1306,60
212,74	1247,21
212,96	1236,97
213,17	1202,16
213,39	1198,06
213,61	1279,98
213,83	1226,73
214,05	1261,55
214,27	1271,79
214,49	1335,28
214,71	1241,07
214,93	1271,79
215,15	1224,69
215,37	1316,84
215,59	1331,18
215,81	1239,02
216,03	1249,26
216,24	1300,46
216,46	1269,74
216,68	1288,17
216,90	1259,50
217,12	1177,58
217,34	1277,93
217,56	1222,64
217,78	1286,12
218,00	1210,35
218,22	1286,12
218,44	1279,98
218,66	1261,55
218,87	1320,94
219,09	1292,27
219,31	1327,08
219,53	1239,02
219,75	1275,88
219,97	1249,26
220,19	1277,93
220,41	1296,36
220,63	1339,37
220,85	1282,03
221,06	1236,97
221,28	1232,88
221,50	1347,56
221,72	1306,60
221,94	1259,50
222,16	1265,64
222,38	1322,99
222,60	1279,98
222,82	1273,84
223,03	1273,84
223,25	1226,73
223,47	1333,23
223,69	1206,25
223,91	1290,22
224,13	1251,31
224,35	1232,88
224,57	1292,27
224,78	1255,40
225,00	1214,45
225,22	1243,12
225,44	1255,40
225,66	1322,99
225,88	1263,60
226,10	1286,12
226,32	1300,46
226,53	1343,47
226,75	1232,88
226,97	1277,93
227,19	1271,79
227,41	1269,74
227,63	1288,17
227,85	1210,35
228,06	1273,84
228,28	1196,01
228,50	1347,56
228,72	1271,79
228,94	1259,50
229,16	1292,27
229,37	1329,13
229,59	1282,03
229,81	1210,35
230,03	1316,84
230,25	1259,50
230,47	1265,64
230,69	1277,93
230,90	1286,12
231,12	1208,30
231,34	1282,03
231,56	1265,64
231,78	1257,45
232,00	1236,97
232,21	1290,22
232,43	1284,08
232,65	1263,60
232,87	1230,83
233,09	1308,65
233,30	1232,88
233,52	1286,12
233,74	1277,93
233,96	1294,32
234,18	1290,22
234,40	1290,22
234,61	1284,08
234,83	1275,88
235,05	1314,80
235,27	1222,64
235,49	1286,12
235,70	1245,16
235,92	1339,37
236,14	1277,93
236,36	1245,16
236,58	1298,41
236,79	1310,70
237,01	1306,60
237,23	1230,83
237,45	1271,79
237,67	1329,13
237,88	1322,99
238,10	1318,89
238,32	1302,51
238,54	1165,29
238,76	1239,02
238,97	1236,97
239,19	1302,51
239,41	1247,21
239,63	1279,98
239,85	1333,23
240,06	1263,60
240,28	1310,70
240,50	1279,98
240,72	1302,51
240,93	1239,02
241,15	1263,60
241,37	1284,08
241,59	1251,31
241,81	1226,73
242,02	1294,32
242,24	1269,74
242,46	1308,65
242,68	1331,18
242,89	1257,45
243,11	1273,84
243,33	1263,60
243,55	1259,50
243,76	1232,88
243,98	1249,26
244,20	1329,13
244,42	1294,32
244,64	1318,89
244,85	1296,36
245,07	1265,64
245,29	1366,00
245,51	1255,40
245,72	1247,21
245,94	1288,17
246,16	1251,31
246,38	1314,80
246,59	1249,26
246,81	1347,56
247,03	1351,66
247,24	1271,79
247,46	1286,12
247,68	1218,54
247,90	1277,93
248,11	1282,03
248,33	1296,36
248,55	1366,00
248,77	1296,36
248,98	1339,37
249,20	1290,22
249,42	1279,98
249,64	1251,31
249,85	1282,03
250,07	1298,41
250,29	1167,34
250,50	1271,79
250,72	1292,27
250,94	1347,56
251,16	1282,03
251,37	1212,40
251,59	1269,74
251,81	1349,61
252,02	1294,32
252,24	1294,32
252,46	1259,50
252,68	1302,51
252,89	1236,97
253,11	1257,45
253,33	1261,55
253,54	1273,84
253,76	1331,18
253,98	1263,60
254,20	1261,55
254,41	1232,88
254,63	1339,37
254,85	1230,83
255,06	1304,56
255,28	1269,74
255,50	1298,41
255,71	1284,08
255,93	1259,50
256,15	1308,65
256,36	1261,55
256,58	1253,36
256,80	1243,12
257,02	1222,64
257,23	1353,71
257,45	1261,55
257,67	1271,79
257,88	1224,69
258,10	1236,97
258,32	1279,98
258,53	1292,27
258,75	1204,21
258,97	1282,03
259,18	1298,41
259,40	1277,93
259,62	1247,21
259,83	1257,45
260,05	1273,84
260,27	1316,84
260,48	1212,40
260,70	1339,37
260,92	1239,02
261,13	1279,98
261,35	1214,45
261,57	1296,36
261,78	1224,69
262,00	1214,45
262,22	1228,78
262,43	1251,31
262,65	1290,22
262,86	1392,62
263,08	1366,00
263,30	1243,12
263,51	1257,45
263,73	1208,30
263,95	1286,12
264,16	1298,41
264,38	1228,78
264,60	1282,03
264,81	1277,93
265,03	1290,22
265,25	1310,70
265,46	1273,84
265,68	1271,79
265,89	1241,07
266,11	1292,27
266,33	1247,21
266,54	1298,41
266,76	1236,97
266,98	1284,08
267,19	1245,16
267,41	1249,26
267,62	1208,30
267,84	1232,88
268,06	1329,13
268,27	1325,04
268,49	1230,83
268,70	1251,31
268,92	1372,14
269,14	1214,45
269,35	1269,74
269,57	1220,59
269,79	1255,40
270,00	1298,41
270,22	1247,21
270,43	1298,41
270,65	1279,98
270,87	1214,45
271,08	1277,93
271,30	1269,74
271,51	1259,50
271,73	1288,17
271,95	1253,36
272,16	1222,64
272,38	1271,79
272,59	1292,27
272,81	1277,93
273,02	1282,03
273,24	1204,21
273,46	1206,25
273,67	1306,60
273,89	1189,87
274,10	1265,64
274,32	1220,59
274,54	1263,60
274,75	1341,42
274,97	1337,32
275,18	1294,32
275,40	1290,22
275,61	1284,08
275,83	1269,74
276,05	1208,30
276,26	1249,26
276,48	1355,76
276,69	1288,17
276,91	1259,50
277,12	1249,26
277,34	1286,12
277,55	1241,07
277,77	1265,64
277,99	1261,55
278,20	1234,93
278,42	1290,22
278,63	1314,80
278,85	1273,84
279,06	1257,45
279,28	1277,93
279,49	1296,36
279,71	1273,84
279,93	1294,32
280,14	1325,04
280,36	1232,88
280,57	1255,40
280,79	1271,79
281,00	1275,88
281,22	1259,50
281,43	1255,40
281,65	1214,45
281,86	1284,08
282,08	1290,22
282,29	1286,12
282,51	1329,13
282,73	1253,36
282,94	1343,47
283,16	1267,69
283,37	1290,22
283,59	1339,37
283,80	1304,56
284,02	1310,70
284,23	1284,08
284,45	1320,94
284,66	1228,78
284,88	1314,80
285,09	1220,59
285,31	1288,17
285,52	1249,26
285,74	1259,50
285,95	1368,04
286,17	1239,02
286,38	1206,25
286,60	1253,36
286,81	1300,46
287,03	1325,04
287,24	1284,08
287,46	1222,64
287,67	1251,31
287,89	1292,27
288,10	1220,59
288,32	1286,12
288,53	1241,07
288,75	1214,45
288,96	1310,70
289,18	1243,12
289,39	1204,21
289,61	1312,75
289,82	1275,88
290,04	1253,36
290,25	1257,45
290,47	1226,73
290,68	1333,23
290,90	1277,93
291,11	1296,36
291,33	1300,46
291,54	1290,22
291,76	1239,02
291,97	1218,54
292,18	1286,12
292,40	1191,92
292,61	1241,07
292,83	1239,02
293,04	1310,70
293,26	1263,60
293,47	1302,51
293,69	1259,50
293,90	1296,36
294,12	1275,88
294,33	1282,03
294,55	1220,59
294,76	1298,41
294,97	1271,79
295,19	1226,73
295,40	1263,60
295,62	1216,49
295,83	1263,60
296,05	1259,50
296,26	1333,23
296,48	1261,55
296,69	1261,55
296,90	1333,23
297,12	1249,26
297,33	1310,70
297,55	1253,36
297,76	1290,22
297,98	1288,17
298,19	1314,80
298,41	1161,20
298,62	1251,31
298,83	1327,08
299,05	1286,12
299,26	1290,22
299,48	1200,11
299,69	1294,32
299,90	1261,55
300,12	1247,21
300,33	1265,64
300,55	1183,73
300,76	1257,45
300,98	1239,02
301,19	1234,93
301,40	1339,37
301,62	1232,88
301,83	1220,59
302,05	1247,21
302,26	1206,25
302,47	1296,36
302,69	1216,49
302,90	1304,56
303,12	1275,88
303,33	1292,27
303,54	1316,84
303,76	1259,50
303,97	1282,03
304,19	1294,32
304,40	1259,50
304,61	1218,54
304,83	1294,32
305,04	1341,42
305,26	1316,84
305,47	1275,88
305,68	1257,45
305,90	1208,30
306,11	1306,60
306,33	1329,13
306,54	1320,94
306,75	1277,93
306,97	1282,03
307,18	1251,31
307,39	1318,89
307,61	1220,59
307,82	1284,08
308,04	1257,45
308,25	1277,93
308,46	1269,74
308,68	1366,00
308,89	1249,26
309,10	1275,88
309,32	1296,36
309,53	1263,60
309,74	1318,89
309,96	1275,88
310,17	1296,36
310,39	1245,16
310,60	1220,59
310,81	1290,22
311,03	1273,84
311,24	1312,75
311,45	1298,41
311,67	1290,22
311,88	1257,45
312,09	1239,02
312,31	1243,12
312,52	1236,97
312,73	1333,23
312,95	1249,26
313,16	1325,04
313,37	1282,03
313,59	1261,55
313,80	1275,88
314,01	1304,56
314,23	1300,46
314,44	1366,00
314,65	1322,99
314,87	1245,16
315,08	1210,35
315,29	1259,50
315,51	1179,63
315,72	1273,84
315,93	1257,45
316,15	1294,32
316,36	1228,78
316,57	1265,64
316,79	1212,40
317,00	1277,93
317,21	1239,02
317,43	1241,07
317,64	1327,08
317,85	1263,60
318,07	1320,94
318,28	1296,36
318,49	1245,16
318,70	1331,18
318,92	1267,69
319,13	1230,83
319,34	1294,32
319,56	1290,22
319,77	1271,79
319,98	1253,36
320,20	1261,55
320,41	1232,88
320,62	1279,98
320,83	1300,46
321,05	1277,93
321,26	1282,03
321,47	1279,98
321,69	1267,69
321,90	1288,17
322,11	1282,03
322,32	1316,84
322,54	1193,97
322,75	1261,55
322,96	1253,36
323,18	1294,32
323,39	1257,45
323,60	1261,55
323,81	1318,89
324,03	1282,03
324,24	1308,65
324,45	1304,56
324,66	1198,06
324,88	1316,84
325,09	1230,83
325,30	1259,50
325,52	1236,97
325,73	1271,79
325,94	1306,60
326,15	1253,36
326,37	1261,55
326,58	1218,54
326,79	1290,22
327,00	1277,93
327,22	1306,60
327,43	1286,12
327,64	1331,18
327,85	1249,26
328,07	1290,22
328,28	1290,22
328,49	1175,53
328,70	1273,84
328,92	1335,28
329,13	1273,84
329,34	1361,90
329,55	1333,23
329,76	1261,55
329,98	1165,29
330,19	1222,64
330,40	1300,46
330,61	1232,88
330,83	1228,78
331,04	1316,84
331,25	1325,04
331,46	1290,22
331,68	1294,32
331,89	1298,41
332,10	1312,75
332,31	1288,17
332,52	1351,66
332,74	1269,74
332,95	1306,60
333,16	1255,40
333,37	1265,64
333,58	1294,32
333,80	1277,93
334,01	1314,80
334,22	1318,89
334,43	1208,30
334,64	1298,41
334,86	1304,56
335,07	1247,21
335,28	1273,84
335,49	1222,64
335,70	1273,84
335,92	1284,08
336,13	1267,69
336,34	1273,84
336,55	1298,41
336,76	1271,79
336,98	1257,45
337,19	1236,97
337,40	1290,22
337,61	1302,51
337,82	1241,07
338,04	1279,98
338,25	1314,80
338,46	1277,93
338,67	1312,75
338,88	1261,55
339,09	1265,64
339,31	1296,36
339,52	1275,88
339,73	1310,70
339,94	1277,93
340,15	1298,41
340,36	1208,30
340,58	1255,40
340,79	1331,18
341,00	1224,69
341,21	1267,69
341,42	1359,85
341,63	1347,56
341,85	1290,22
342,06	1269,74
342,27	1243,12
342,48	1239,02
342,69	1279,98
342,90	1282,03
343,12	1228,78
343,33	1269,74
343,54	1329,13
343,75	1273,84
343,96	1228,78
344,17	1294,32
344,38	1286,12
344,60	1316,84
344,81	1165,29
345,02	1243,12
345,23	1263,60
345,44	1282,03
345,65	1224,69
345,86	1312,75
346,07	1247,21
346,29	1290,22
346,50	1284,08
346,71	1312,75
346,92	1327,08
347,13	1331,18
347,34	1269,74
347,55	1183,73
347,76	1171,44
347,98	1234,93
348,19	1261,55
348,40	1284,08
348,61	1267,69
348,82	1261,55
349,03	1224,69
349,24	1247,21
349,45	1288,17
349,66	1290,22
349,88	1245,16
350,09	1271,79
350,30	1239,02
350,51	1251,31
350,72	1241,07
350,93	1218,54
351,14	1312,75
351,35	1290,22
351,56	1202,16
351,77	1388,52
351,99	1196,01
352,20	1271,79
352,41	1314,80
352,62	1279,98
352,83	1228,78
353,04	1288,17
353,25	1255,40
353,46	1320,94
353,67	1290,22
353,88	1269,74
354,09	1261,55
354,30	1308,65
354,52	1196,01
354,73	1290,22
354,94	1261,55
355,15	1222,64
355,36	1314,80
355,57	1191,92
355,78	1243,12
355,99	1259,50
356,20	1282,03
356,41	1255,40
356,62	1234,93
356,83	1277,93
357,04	1286,12
357,25	1337,32
357,46	1257,45
357,68	1335,28
357,89	1292,27
358,10	1271,79
358,31	1290,22
358,52	1222,64
358,73	1269,74
358,94	1320,94
359,15	1239,02
359,36	1353,71
359,57	1255,40
359,78	1239,02
359,99	1212,40
360,20	1261,55
360,41	1210,35
360,62	1322,99
360,83	1257,45
361,04	1304,56
361,25	1314,80
361,46	1290,22
361,67	1298,41
361,88	1279,98
362,09	1300,46
362,30	1322,99
362,51	1261,55
362,72	1212,40
362,93	1267,69
363,14	1265,64
363,35	1226,73
363,56	1294,32
363,78	1189,87
363,99	1269,74
364,20	1247,21
364,41	1257,45
364,62	1261,55
364,83	1247,21
365,04	1333,23
365,25	1282,03
365,46	1273,84
365,67	1282,03
365,88	1302,51
366,09	1253,36
366,30	1208,30
366,51	1296,36
366,72	1259,50
366,93	1236,97
367,14	1212,40
367,35	1366,00
367,56	1222,64
367,77	1230,83
367,98	1320,94
368,18	1343,47
368,39	1253,36
368,60	1331,18
368,81	1294,32
369,02	1263,60
369,23	1286,12
369,44	1267,69
369,65	1275,88
369,86	1296,36
370,07	1318,89
370,28	1269,74
370,49	1296,36
370,70	1325,04
370,91	1230,83
371,12	1282,03
371,33	1236,97
371,54	1286,12
371,75	1300,46
371,96	1245,16
372,17	1314,80
372,38	1247,21
372,59	1241,07
372,80	1263,60
373,01	1273,84
373,22	1208,30
373,43	1300,46
373,64	1245,16
373,85	1300,46
374,06	1310,70
374,26	1277,93
374,47	1302,51
374,68	1279,98
374,89	1284,08
375,10	1251,31
375,31	1228,78
375,52	1263,60
375,73	1282,03
375,94	1263,60
376,15	1277,93
376,36	1228,78
376,57	1193,97
376,78	1271,79
376,99	1257,45
377,20	1265,64
377,40	1230,83
377,61	1210,35
377,82	1339,37
378,03	1320,94
378,24	1251,31
378,45	1265,64
378,66	1286,12
378,87	1296,36
379,08	1214,45
379,29	1320,94
379,50	1247,21
379,71	1282,03
379,91	1241,07
380,12	1236,97
380,33	1202,16
380,54	1343,47
380,75	1304,56
380,96	1216,49
381,17	1273,84
381,38	1234,93
381,59	1298,41
381,80	1296,36
382,00	1296,36
382,21	1263,60
382,42	1320,94
382,63	1269,74
382,84	1298,41
383,05	1312,75
383,26	1267,69
383,47	1255,40
383,68	1234,93
383,88	1298,41
384,09	1249,26
384,30	1251,31
384,51	1157,10
384,72	1228,78
384,93	1290,22
385,14	1220,59
385,35	1193,97
385,55	1277,93
385,76	1261,55
385,97	1286,12
386,18	1228,78
386,39	1224,69
386,60	1253,36
386,81	1216,49
387,02	1310,70
387,22	1232,88
387,43	1263,60
387,64	1216,49
387,85	1277,93
388,06	1273,84
388,27	1316,84
388,48	1306,60
388,68	1230,83
388,89	1222,64
389,10	1187,82
389,31	1255,40
389,52	1255,40
389,73	1263,60
389,93	1232,88
390,14	1218,54
390,35	1275,88
390,56	1308,65
390,77	1232,88
390,98	1202,16
391,18	1329,13
391,39	1214,45
391,60	1234,93
391,81	1329,13
392,02	1204,21
392,23	1251,31
392,43	1269,74
392,64	1216,49
392,85	1243,12
393,06	1150,96
393,27	1263,60
393,47	1259,50
393,68	1273,84
393,89	1253,36
394,10	1322,99
394,31	1265,64
394,52	1224,69
394,72	1265,64
394,93	1247,21
395,14	1263,60
395,35	1286,12
395,56	1218,54
395,76	1312,75
395,97	1200,11
396,18	1292,27
396,39	1216,49
396,60	1277,93
396,80	1259,50
397,01	1316,84
397,22	1234,93
397,43	1263,60
397,64	1239,02
397,84	1187,82
398,05	1318,89
398,26	1275,88
398,47	1249,26
398,67	1271,79
398,88	1298,41
399,09	1214,45
399,30	1224,69
399,51	1329,13
399,71	1312,75
399,92	1269,74
400,13	1273,84
400,34	1267,69
400,54	1290,22
400,75	1296,36
400,96	1310,70
401,17	1284,08
401,37	1222,64
401,58	1312,75
401,79	1222,64
402,00	1318,89
402,21	1230,83
402,41	1308,65
402,62	1265,64
402,83	1333,23
403,04	1259,50
403,24	1327,08
403,45	1253,36
403,66	1288,17
403,87	1249,26
404,07	1374,19
404,28	1243,12
404,49	1206,25
404,70	1269,74
404,90	1290,22
405,11	1265,64
405,32	1251,31
405,52	1224,69
405,73	1175,53
405,94	1312,75
406,15	1308,65
406,35	1253,36
406,56	1286,12
406,77	1275,88
406,98	1308,65
407,18	1269,74
407,39	1220,59
407,60	1273,84
407,80	1228,78
408,01	1220,59
408,22	1286,12
408,43	1245,16
408,63	1222,64
408,84	1257,45
409,05	1292,27
409,25	1243,12
409,46	1267,69
409,67	1314,80
409,88	1327,08
410,08	1288,17
410,29	1239,02
410,50	1224,69
410,70	1224,69
410,91	1292,27
411,12	1300,46
411,32	1247,21
411,53	1245,16
411,74	1255,40
411,95	1226,73
412,15	1294,32
412,36	1214,45
412,57	1232,88
412,77	1249,26
412,98	1290,22
413,19	1255,40
413,39	1355,76
413,60	1253,36
413,81	1208,30
414,01	1253,36
414,22	1241,07
414,43	1277,93
414,63	1257,45
414,84	1255,40
415,05	1310,70
415,25	1386,47
415,46	1302,51
415,67	1277,93
415,87	1269,74
416,08	1314,80
416,29	1222,64
416,49	1239,02
416,70	1245,16
416,91	1329,13
417,11	1271,79
417,32	1267,69
417,53	1253,36
417,73	1243,12
417,94	1243,12
418,15	1282,03
418,35	1249,26
418,56	1171,44
418,77	1249,26
418,97	1265,64
419,18	1290,22
419,38	1232,88
419,59	1265,64
419,80	1296,36
420,00	1255,40
420,21	1310,70
420,42	1288,17
420,62	1290,22
420,83	1298,41
421,04	1279,98
421,24	1282,03
421,45	1249,26
421,65	1304,56
421,86	1290,22
422,07	1333,23
422,27	1249,26
422,48	1292,27
422,69	1241,07
422,89	1265,64
423,10	1312,75
423,30	1284,08
423,51	1245,16
423,72	1220,59
423,92	1279,98
424,13	1198,06
424,33	1255,40
424,54	1310,70
424,75	1269,74
424,95	1253,36
425,16	1314,80
425,36	1247,21
425,57	1253,36
425,78	1243,12
425,98	1279,98
426,19	1306,60
426,39	1236,97
426,60	1255,40
426,81	1288,17
427,01	1298,41
427,22	1273,84
427,42	1204,21
427,63	1308,65
427,83	1327,08
428,04	1318,89
428,25	1306,60
428,45	1286,12
428,66	1292,27
428,86	1204,21
429,07	1279,98
429,28	1218,54
429,48	1236,97
429,69	1277,93
429,89	1282,03
430,10	1314,80
430,30	1277,93
430,51	1282,03
430,71	1308,65
430,92	1320,94
431,13	1206,25
431,33	1329,13
431,54	1327,08
431,74	1251,31
431,95	1355,76
432,15	1347,56
432,36	1277,93
432,56	1226,73
432,77	1259,50
432,98	1230,83
433,18	1286,12
433,39	1220,59
433,59	1263,60
433,80	1255,40
434,00	1320,94
434,21	1198,06
434,41	1331,18
434,62	1257,45
434,82	1257,45
435,03	1243,12
435,23	1255,40
435,44	1263,60
435,64	1298,41
435,85	1331,18
436,06	1306,60
436,26	1333,23
436,47	1245,16
436,67	1218,54
436,88	1228,78
437,08	1290,22
437,29	1345,52
437,49	1351,66
437,70	1265,64
437,90	1282,03
438,11	1263,60
438,31	1255,40
438,52	1279,98
438,72	1224,69
438,93	1290,22
439,13	1247,21
439,34	1286,12
439,54	1222,64
439,75	1249,26
439,95	1247,21
440,16	1284,08
440,36	1263,60
440,57	1236,97
440,77	1290,22
440,98	1265,64
441,18	1347,56
441,39	1279,98
441,59	1263,60
441,80	1302,51
442,00	1202,16
442,21	1294,32
442,41	1318,89
442,62	1265,64
442,82	1267,69
443,02	1255,40
443,23	1294,32
443,43	1267,69
443,64	1310,70
443,84	1302,51
444,05	1220,59
444,25	1257,45
444,46	1249,26
444,66	1257,45
444,87	1232,88
445,07	1185,77
445,28	1290,22
445,48	1298,41
445,69	1298,41
445,89	1384,43
446,09	1261,55
446,30	1284,08
446,50	1253,36
446,71	1259,50
446,91	1224,69
447,12	1230,83
447,32	1245,16
447,53	1226,73
447,73	1300,46
447,93	1286,12
448,14	1269,74
448,34	1304,56
448,55	1302,51
448,75	1277,93
448,96	1232,88
449,16	1282,03
449,36	1218,54
449,57	1282,03
449,77	1282,03
449,98	1271,79
450,18	1243,12
450,39	1298,41
450,59	1263,60
450,79	1329,13
451,00	1363,95
451,20	1253,36
451,41	1302,51
451,61	1255,40
451,81	1306,60
452,02	1208,30
452,22	1310,70
452,43	1292,27
452,63	1277,93
452,84	1331,18
453,04	1269,74
453,24	1173,49
453,45	1206,25
453,65	1312,75
453,86	1298,41
454,06	1298,41
454,26	1273,84
454,47	1308,65
454,67	1263,60
454,87	1267,69
455,08	1275,88
455,28	1277,93
455,49	1269,74
455,69	1212,40
455,89	1347,56
456,10	1308,65
456,30	1185,77
456,51	1222,64
456,71	1329,13
456,91	1273,84
457,12	1257,45
457,32	1355,76
457,52	1206,25
457,73	1290,22
457,93	1206,25
458,14	1173,49
458,34	1247,21
458,54	1193,97
458,75	1267,69
458,95	1316,84
459,15	1210,35
459,36	1282,03
459,56	1236,97
459,76	1282,03
459,97	1218,54
460,17	1241,07
460,37	1247,21
460,58	1302,51
460,78	1312,75
460,99	1263,60
461,19	1300,46
461,39	1224,69
461,60	1230,83
461,80	1249,26
462,00	1239,02
462,21	1220,59
462,41	1232,88
462,61	1269,74
462,82	1304,56
463,02	1267,69
463,22	1220,59
463,43	1333,23
463,63	1255,40
463,83	1269,74
464,04	1224,69
464,24	1265,64
464,44	1320,94
464,64	1241,07
464,85	1279,98
465,05	1325,04
465,25	1341,42
465,46	1251,31
465,66	1300,46
465,86	1269,74
466,07	1314,80
466,27	1187,82
466,47	1234,93
466,68	1224,69
466,88	1322,99
467,08	1255,40
467,29	1286,12
467,49	1290,22
467,69	1263,60
467,89	1247,21
468,10	1282,03
468,30	1253,36
468,50	1263,60
468,71	1255,40
468,91	1196,01
469,11	1312,75
469,31	1284,08
469,52	1228,78
469,72	1261,55
469,92	1308,65
470,13	1263,60
470,33	1335,28
470,53	1255,40
470,73	1239,02
470,94	1337,32
471,14	1263,60
471,34	1284,08
471,54	1279,98
471,75	1259,50
471,95	1277,93
472,15	1239,02
472,36	1372,14
472,56	1366,00
472,76	1269,74
472,96	1320,94
473,17	1247,21
473,37	1273,84
473,57	1298,41
473,77	1275,88
473,98	1220,59
474,18	1249,26
474,38	1251,31
474,58	1269,74
474,79	1245,16
474,99	1263,60
475,19	1288,17
475,39	1306,60
475,60	1310,70
475,80	1292,27
476,00	1322,99
476,20	1241,07
476,41	1224,69
476,61	1288,17
476,81	1255,40
477,01	1288,17
477,21	1175,53
477,42	1304,56
477,62	1255,40
477,82	1236,97
478,02	1210,35
478,23	1343,47
478,43	1286,12
478,63	1257,45
478,83	1253,36
479,03	1279,98
479,24	1318,89
479,44	1243,12
479,64	1296,36
479,84	1277,93
480,04	1273,84
480,25	1320,94
480,45	1230,83
480,65	1273,84
480,85	1337,32
481,06	1265,64
481,26	1251,31
481,46	1275,88
481,66	1282,03
481,86	1320,94
482,06	1257,45
482,27	1296,36
482,47	1292,27
482,67	1265,64
482,87	1304,56
483,07	1300,46
483,28	1239,02
483,48	1282,03
483,68	1214,45
483,88	1279,98
484,08	1216,49
484,29	1187,82
484,49	1320,94
484,69	1267,69
484,89	1284,08
485,09	1306,60
485,29	1269,74
485,50	1257,45
485,70	1226,73
485,90	1333,23
486,10	1296,36
486,30	1296,36
486,50	1296,36
486,71	1275,88
486,91	1298,41
487,11	1310,70
487,31	1236,97
487,51	1314,80
487,71	1214,45
487,91	1253,36
488,12	1247,21
488,32	1241,07
488,52	1308,65
488,72	1345,52
488,92	1241,07
489,12	1277,93
489,32	1251,31
489,53	1306,60
489,73	1259,50
489,93	1263,60
490,13	1249,26
490,33	1302,51
490,53	1310,70
490,73	1273,84
490,94	1292,27
491,14	1357,80
491,34	1259,50
491,54	1290,22
491,74	1257,45
491,94	1269,74
492,14	1212,40
492,34	1191,92
492,54	1335,28
492,75	1316,84
492,95	1263,60
493,15	1255,40
493,35	1329,13
493,55	1341,42
493,75	1185,77
493,95	1290,22
494,15	1310,70
494,35	1273,84
494,56	1239,02
494,76	1286,12
494,96	1214,45
495,16	1230,83
495,36	1277,93
495,56	1257,45
495,76	1261,55
495,96	1279,98
496,16	1277,93
496,36	1249,26
496,56	1232,88
496,77	1292,27
496,97	1189,87
497,17	1253,36
497,37	1232,88
497,57	1269,74
497,77	1302,51
497,97	1271,79
498,17	1253,36
498,37	1177,58
498,57	1265,64
498,77	1302,51
498,97	1218,54
499,17	1331,18
499,38	1282,03
499,58	1269,74
499,78	1296,36
499,98	1216,49
500,18	1271,79
500,38	1277,93
500,58	1257,45
500,78	1210,35
500,98	1245,16
501,18	1259,50
501,38	1327,08
501,58	1277,93
501,78	1255,40
501,98	1306,60
502,18	1351,66
502,38	1282,03
502,58	1232,88
502,78	1302,51
502,98	1284,08
503,18	1361,90
503,38	1243,12
503,59	1191,92
503,79	1251,31
503,99	1284,08
504,19	1325,04
504,39	1265,64
504,59	1261,55
504,79	1290,22
504,99	1345,52
505,19	1273,84
505,39	1259,50
505,59	1257,45
505,79	1374,19
505,99	1318,89
506,19	1241,07
506,39	1316,84
506,59	1286,12
506,79	1347,56
506,99	1277,93
507,19	1294,32
507,39	1265,64
507,59	1177,58
507,79	1261,55
507,99	1288,17
508,19	1239,02
508,39	1267,69
508,59	1294,32
508,79	1292,27
508,99	1245,16
509,19	1230,83
509,39	1290,22
509,59	1269,74
509,79	1226,73
509,99	1273,84
510,19	1275,88
510,39	1314,80
510,59	1196,01
510,79	1277,93
510,99	1269,74
511,19	1302,51
511,39	1288,17
511,59	1236,97
511,79	1298,41
511,99	1296,36
512,19	1359,85
512,38	1228,78
512,58	1224,69
512,78	1263,60
512,98	1228,78
513,18	1339,37
513,38	1288,17
513,58	1271,79
513,78	1273,84
513,98	1380,33
514,18	1208,30
514,38	1296,36
514,58	1241,07
514,78	1296,36
514,98	1353,71
515,18	1349,61
515,38	1257,45
515,58	1234,93
515,78	1290,22
515,98	1222,64
516,18	1243,12
516,38	1208,30
516,57	1304,56
516,77	1230,83
516,97	1302,51
517,17	1275,88
517,37	1234,93
517,57	1218,54
517,77	1318,89
517,97	1279,98
518,17	1259,50
518,37	1306,60
518,57	1243,12
518,77	1294,32
518,97	1300,46
519,16	1253,36
519,36	1267,69
519,56	1261,55
519,76	1300,46
519,96	1292,27
520,16	1247,21
520,36	1320,94
520,56	1236,97
520,76	1232,88
520,96	1224,69
521,16	1282,03
521,35	1320,94
521,55	1259,50
521,75	1302,51
521,95	1335,28
522,15	1200,11
522,35	1288,17
522,55	1273,84
522,75	1282,03
522,95	1243,12
523,14	1245,16
523,34	1245,16
523,54	1269,74
523,74	1361,90
523,94	1308,65
524,14	1310,70
524,34	1232,88
524,54	1265,64
524,73	1249,26
524,93	1245,16
525,13	1279,98
525,33	1298,41
525,53	1302,51
525,73	1255,40
525,93	1273,84
526,13	1271,79
526,32	1263,60
526,52	1331,18
526,72	1288,17
526,92	1263,60
527,12	1286,12
527,32	1212,40
527,52	1241,07
527,71	1284,08
527,91	1306,60
528,11	1304,56
528,31	1177,58
528,51	1261,55
528,71	1220,59
528,90	1292,27
529,10	1339,37
529,30	1204,21
529,50	1296,36
529,70	1331,18
529,90	1325,04
530,09	1343,47
530,29	1249,26
530,49	1228,78
530,69	1253,36
530,89	1349,61
531,09	1363,95
531,28	1236,97
531,48	1290,22
531,68	1279,98
531,88	1282,03
532,08	1253,36
532,28	1263,60
532,47	1210,35
532,67	1216,49
532,87	1288,17
533,07	1255,40
533,27	1284,08
533,46	1245,16
533,66	1243,12
533,86	1243,12
534,06	1267,69
534,26	1212,40
534,45	1292,27
534,65	1245,16
534,85	1234,93
535,05	1282,03
535,25	1193,97
535,44	1273,84
535,64	1265,64
535,84	1312,75
536,04	1269,74
536,24	1261,55
536,43	1265,64
536,63	1302,51
536,83	1271,79
537,03	1257,45
537,22	1224,69
537,42	1193,97
537,62	1277,93
537,82	1230,83
538,02	1310,70
538,21	1249,26
538,41	1263,60
538,61	1210,35
538,81	1286,12
539,00	1208,30
539,20	1218,54
539,40	1214,45
539,60	1261,55
539,79	1298,41
539,99	1331,18
540,19	1200,11
540,39	1269,74
540,58	1255,40
540,78	1222,64
540,98	1300,46
541,18	1220,59
541,37	1310,70
541,57	1304,56
541,77	1310,70
541,97	1220,59
542,16	1241,07
542,36	1230,83
542,56	1296,36
542,76	1245,16
542,95	1282,03
543,15	1294,32
543,35	1236,97
543,54	1290,22
543,74	1300,46
543,94	1243,12
544,14	1286,12
544,33	1322,99
544,53	1249,26
544,73	1167,34
544,93	1306,60
545,12	1263,60
545,32	1279,98
545,52	1241,07
545,71	1314,80
545,91	1208,30
546,11	1341,42
546,30	1343,47
546,50	1320,94
546,70	1341,42
546,90	1257,45
547,09	1337,32
547,29	1282,03
547,49	1271,79
547,68	1302,51
547,88	1216,49
548,08	1339,37
548,27	1341,42
548,47	1292,27
548,67	1290,22
548,87	1292,27
549,06	1277,93
549,26	1302,51
549,46	1273,84
549,65	1187,82
549,85	1226,73
550,05	1275,88
550,24	1243,12
550,44	1265,64
550,64	1265,64
550,83	1220,59
551,03	1273,84
551,23	1267,69
551,42	1325,04
551,62	1325,04
551,82	1284,08
552,01	1279,98
552,21	1226,73
552,41	1296,36
552,60	1294,32
552,80	1339,37
553,00	1259,50
553,19	1257,45
553,39	1279,98
553,59	1310,70
553,78	1247,21
553,98	1249,26
554,17	1310,70
554,37	1282,03
554,57	1273,84
554,76	1292,27
554,96	1267,69
555,16	1251,31
555,35	1263,60
555,55	1304,56
555,75	1261,55
555,94	1306,60
556,14	1277,93
556,33	1239,02
556,53	1269,74
556,73	1200,11
556,92	1218,54
557,12	1308,65
557,32	1279,98
557,51	1366,00
557,71	1226,73
557,90	1370,09
558,10	1312,75
558,30	1263,60
558,49	1198,06
558,69	1234,93
558,88	1300,46
559,08	1314,80
559,28	1241,07
559,47	1253,36
559,67	1261,55
559,86	1273,84
560,06	1277,93
560,26	1269,74
560,45	1286,12
560,65	1251,31
560,84	1327,08
561,04	1273,84
561,24	1269,74
561,43	1216,49
561,63	1245,16
561,82	1376,24
562,02	1300,46
562,22	1275,88
562,41	1298,41
562,61	1284,08
562,80	1232,88
563,00	1275,88
563,19	1275,88
563,39	1282,03
563,59	1216,49
563,78	1241,07
563,98	1308,65
564,17	1234,93
564,37	1275,88
564,56	1277,93
564,76	1261,55
564,96	1234,93
565,15	1259,50
565,35	1236,97
565,54	1232,88
565,74	1265,64
565,93	1269,74
566,13	1234,93
566,32	1310,70
566,52	1282,03
566,71	1261,55
566,91	1345,52
567,11	1288,17
567,30	1294,32
567,50	1226,73
567,69	1298,41
567,89	1232,88
568,08	1245,16
568,28	1333,23
568,47	1314,80
568,67	1234,93
568,86	1255,40
569,06	1325,04
569,25	1275,88
569,45	1302,51
569,64	1271,79
569,84	1234,93
570,04	1269,74
570,23	1228,78
570,43	1214,45
570,62	1290,22
570,82	1300,46
571,01	1253,36
571,21	1304,56
571,40	1255,40
571,60	1271,79
571,79	1279,98
571,99	1183,73
572,18	1275,88
572,38	1325,04
572,57	1314,80
572,77	1292,27
572,96	1200,11
573,16	1236,97
573,35	1275,88
573,55	1224,69
573,74	1302,51
573,94	1292,27
574,13	1204,21
574,33	1282,03
574,52	1296,36
574,71	1273,84
574,91	1253,36
575,10	1236,97
575,30	1247,21
575,49	1333,23
575,69	1296,36
575,88	1300,46
576,08	1273,84
576,27	1282,03
576,47	1275,88
576,66	1216,49
576,86	1259,50
577,05	1279,98
577,25	1206,25
577,44	1255,40
577,64	1257,45
577,83	1388,52
578,02	1310,70
578,22	1241,07
578,41	1253,36
578,61	1314,80
578,80	1222,64
579,00	1236,97
579,19	1173,49
579,39	1331,18
579,58	1286,12
579,77	1245,16
579,97	1290,22
580,16	1232,88
580,36	1294,32
580,55	1308,65
580,75	1292,27
580,94	1292,27
581,13	1316,84
581,33	1171,44
581,52	1298,41
581,72	1208,30
581,91	1243,12
582,11	1271,79
582,30	1251,31
582,49	1263,60
582,69	1296,36
582,88	1275,88
583,08	1277,93
583,27	1245,16
583,47	1279,98
583,66	1265,64
583,85	1259,50
584,05	1277,93
584,24	1241,07
584,44	1200,11
584,63	1218,54
584,82	1294,32
585,02	1241,07
585,21	1298,41
585,41	1308,65
585,60	1232,88
585,79	1339,37
585,99	1325,04
586,18	1261,55
586,37	1269,74
586,57	1275,88
586,76	1322,99
586,96	1232,88
587,15	1318,89
587,34	1245,16
587,54	1187,82
587,73	1325,04
587,93	1261,55
588,12	1288,17
588,31	1269,74
588,51	1269,74
588,70	1312,75
588,89	1333,23
589,09	1198,06
589,28	1290,22
589,47	1257,45
589,67	1249,26
589,86	1273,84
590,06	1230,83
590,25	1271,79
590,44	1333,23
590,64	1247,21
590,83	1304,56
591,02	1325,04
591,22	1284,08
591,41	1247,21
591,60	1294,32
591,80	1222,64
591,99	1185,77
592,18	1339,37
592,38	1234,93
592,57	1320,94
592,76	1294,32
592,96	1290,22
593,15	1226,73
593,34	1308,65
593,54	1253,36
593,73	1296,36
593,92	1300,46
594,12	1302,51
594,31	1261,55
594,50	1251,31
594,70	1275,88
594,89	1255,40
595,08	1320,94
595,28	1296,36
595,47	1279,98
595,66	1269,74
595,86	1286,12
596,05	1306,60
596,24	1294,32
596,43	1249,26
596,63	1259,50
596,82	1232,88
597,01	1261,55
597,21	1271,79
597,40	1206,25
597,59	1222,64
597,79	1269,74
597,98	1341,42
598,17	1232,88
598,36	1245,16
598,56	1245,16
598,75	1335,28
598,94	1236,97
599,14	1277,93
599,33	1220,59
599,52	1298,41
599,71	1214,45
599,91	1322,99
600,10	1288,17
600,29	1304,56
600,48	1234,93
600,68	1204,21
600,87	1234,93
601,06	1306,60
601,26	1228,78
601,45	1263,60
601,64	1206,25
601,83	1220,59
602,03	1286,12
602,22	1331,18
602,41	1279,98
602,60	1236,97
602,80	1300,46
602,99	1331,18
603,18	1282,03
603,37	1265,64
603,57	1286,12
603,76	1290,22
603,95	1286,12
604,14	1232,88
604,34	1320,94
604,53	1312,75
604,72	1265,64
604,91	1234,93
605,10	1257,45
605,30	1310,70
605,49	1245,16
605,68	1314,80
605,87	1329,13
606,07	1259,50
606,26	1269,74
606,45	1224,69
606,64	1290,22
606,84	1306,60
607,03	1282,03
607,22	1331,18
607,41	1267,69
607,60	1306,60
607,80	1216,49
607,99	1290,22
608,18	1273,84
608,37	1275,88
608,56	1249,26
608,76	1255,40
608,95	1214,45
609,14	1298,41
609,33	1255,40
609,52	1245,16
609,72	1296,36
609,91	1271,79
610,10	1255,40
610,29	1273,84
610,48	1302,51
610,68	1312,75
610,87	1232,88
611,06	1302,51
611,25	1181,68
611,44	1288,17
611,63	1247,21
611,83	1251,31
612,02	1249,26
612,21	1255,40
612,40	1216,49
612,59	1269,74
612,79	1298,41
612,98	1306,60
613,17	1226,73
613,36	1331,18
613,55	1251,31
613,74	1296,36
613,93	1279,98
614,13	1249,26
614,32	1286,12
614,51	1230,83
614,70	1216,49
614,89	1292,27
615,08	1335,28
615,28	1275,88
615,47	1247,21
615,66	1265,64
615,85	1294,32
616,04	1288,17
616,23	1239,02
616,42	1193,97
616,62	1253,36
616,81	1263,60
617,00	1294,32
617,19	1265,64
617,38	1331,18
617,57	1298,41
617,76	1314,80
617,95	1288,17
618,15	1306,60
618,34	1331,18
618,53	1193,97
618,72	1341,42
618,91	1257,45
619,10	1271,79
619,29	1191,92
619,48	1286,12
619,68	1302,51
619,87	1322,99
620,06	1181,68
620,25	1298,41
620,44	1288,17
620,63	1267,69
620,82	1218,54
621,01	1357,80
621,20	1294,32
621,39	1279,98
621,59	1325,04
621,78	1302,51
621,97	1263,60
622,16	1302,51
622,35	1298,41
622,54	1296,36
622,73	1288,17
622,92	1249,26
623,11	1253,36
623,30	1273,84
623,49	1275,88
623,68	1243,12
623,88	1333,23
624,07	1294,32
624,26	1273,84
624,45	1269,74
624,64	1304,56
624,83	1218,54
625,02	1282,03
625,21	1298,41
625,40	1204,21
625,59	1366,00
625,78	1337,32
625,97	1294,32
626,16	1310,70
626,35	1300,46
626,54	1302,51
626,74	1306,60
626,93	1304,56
627,12	1273,84
627,31	1282,03
627,50	1253,36
627,69	1347,56
627,88	1292,27
628,07	1251,31
628,26	1329,13
628,45	1220,59
628,64	1271,79
628,83	1316,84
629,02	1316,84
629,21	1224,69
629,40	1282,03
629,59	1298,41
629,78	1234,93
629,97	1288,17
630,16	1253,36
630,35	1282,03
630,54	1335,28
630,73	1312,75
630,92	1286,12
631,11	1359,85
631,30	1318,89
631,49	1355,76
631,68	1531,88
631,87	2103,26
632,06	3233,74
632,25	2574,30
632,44	2865,11
632,63	3493,83
632,82	6868,89
633,01	8490,88
633,20	9244,53
633,39	10121,06
633,58	13330,23
633,77	14118,70
633,96	14276,39
634,15	27338,33
634,34	37246,41
634,53	34375,16
634,72	26277,49
634,91	19066,59
635,10	13336,37
635,29	8849,27
635,48	6154,15
635,67	4337,60
635,86	3020,75
636,05	2150,37
636,24	1677,29
636,43	1511,40
636,62	1433,58
636,81	1443,82
637,00	1443,82
637,19	1298,41
637,38	1333,23
637,57	1359,85
637,76	1322,99
637,95	1406,95
638,14	1294,32
638,33	1322,99
638,52	1286,12
638,71	1347,56
638,89	1351,66
639,08	1296,36
639,27	1288,17
639,46	1322,99
639,65	1234,93
639,84	1314,80
640,03	1445,87
640,22	1282,03
640,41	1279,98
640,60	1243,12
640,79	1304,56
640,98	1247,21
641,17	1310,70
641,36	1353,71
641,55	1228,78
641,74	1273,84
641,92	1239,02
642,11	1308,65
642,30	1335,28
642,49	1255,40
642,68	1251,31
642,87	1288,17
643,06	1292,27
643,25	1269,74
643,44	1257,45
643,63	1259,50
643,82	1331,18
644,00	1259,50
644,19	1273,84
644,38	1273,84
644,57	1228,78
644,76	1236,97
644,95	1261,55
645,14	1296,36
645,33	1288,17
645,52	1263,60
645,71	1310,70
645,89	1327,08
646,08	1308,65
646,27	1304,56
646,46	1263,60
646,65	1271,79
646,84	1261,55
647,03	1269,74
647,22	1267,69
647,40	1343,47
647,59	1187,82
647,78	1271,79
647,97	1196,01
648,16	1282,03
648,35	1220,59
648,54	1249,26
648,73	1284,08
648,91	1214,45
649,10	1325,04
649,29	1288,17
649,48	1310,70
649,67	1263,60
649,86	1267,69
650,05	1183,73
650,23	1271,79
650,42	1236,97
650,61	1286,12
650,80	1275,88
650,99	1282,03
651,18	1282,03
651,36	1284,08
651,55	1251,31
651,74	1249,26
651,93	1275,88
652,12	1302,51
652,31	1302,51
652,49	1302,51
652,68	1220,59
652,87	1243,12
653,06	1249,26
653,25	1286,12
653,44	1290,22
653,62	1279,98
653,81	1255,40
654,00	1341,42
654,19	1226,73
654,38	1294,32
654,56	1214,45
654,75	1222,64
654,94	1253,36
655,13	1208,30
655,32	1290,22
655,51	1310,70
655,69	1325,04
655,88	1259,50
656,07	1296,36
656,26	1257,45
656,45	1241,07
656,63	1322,99
656,82	1335,28
657,01	1275,88
657,20	1224,69
657,38	1304,56
657,57	1255,40
657,76	1241,07
657,95	1259,50
658,14	1310,70
658,32	1322,99
658,51	1251,31
658,70	1200,11
658,89	1249,26
659,08	1269,74
659,26	1261,55
659,45	1290,22
659,64	1353,71
659,83	1247,21
660,01	1183,73
660,20	1267,69
660,39	1257,45
660,58	1183,73
660,76	1263,60
660,95	1222,64
661,14	1257,45
661,33	1245,16
661,51	1304,56
661,70	1239,02
661,89	1257,45
662,08	1298,41
662,26	1271,79
662,45	1214,45
662,64	1331,18
662,83	1300,46
663,01	1306,60
663,20	1241,07
663,39	1314,80
663,58	1202,16
663,76	1275,88
663,95	1302,51
664,14	1320,94
664,32	1265,64
664,51	1232,88
664,70	1316,84
664,89	1198,06
665,07	1298,41
665,26	1329,13
665,45	1257,45
665,64	1357,80
665,82	1265,64
666,01	1261,55
666,20	1259,50
666,38	1300,46
666,57	1331,18
666,76	1292,27
666,95	1224,69
667,13	1288,17
667,32	1247,21
667,51	1271,79
667,69	1234,93
667,88	1226,73
668,07	1265,64
668,25	1273,84
668,44	1259,50
668,63	1290,22
668,81	1259,50
669,00	1265,64
669,19	1300,46
669,38	1298,41
669,56	1318,89
669,75	1284,08
669,94	1306,60
670,12	1304,56
670,31	1271,79
670,50	1230,83
670,68	1239,02
670,87	1249,26
671,06	1261,55
671,24	1230,83
671,43	1187,82
671,62	1277,93
671,80	1226,73
671,99	1331,18
672,18	1298,41
672,36	1288,17
672,55	1374,19
672,74	1331,18
672,92	1247,21
673,11	1277,93
673,29	1284,08
673,48	1255,40
673,67	1290,22
673,85	1243,12
674,04	1345,52
674,23	1277,93
674,41	1279,98
674,60	1273,84
674,79	1265,64
674,97	1243,12
675,16	1259,50
675,34	1255,40
675,53	1300,46
675,72	1279,98
675,90	1228,78
676,09	1243,12
676,28	1261,55
676,46	1341,42
676,65	1267,69
676,83	1302,51
677,02	1322,99
677,21	1271,79
677,39	1279,98
677,58	1232,88
677,77	1300,46
677,95	1292,27
678,14	1288,17
678,32	1284,08
678,51	1226,73
678,70	1306,60
678,88	1290,22
679,07	1294,32
679,25	1306,60
679,44	1294,32
679,63	1290,22
679,81	1253,36
680,00	1294,32
680,18	1304,56
680,37	1279,98
680,55	1316,84
680,74	1294,32
680,93	1288,17
681,11	1361,90
681,30	1273,84
681,48	1236,97
681,67	1322,99
681,85	1247,21
682,04	1273,84
682,23	1265,64
682,41	1222,64
682,60	1286,12
682,78	1191,92
682,97	1239,02
683,15	1279,98
683,34	1226,73
683,53	1322,99
683,71	1204,21
683,90	1243,12
684,08	1296,36
684,27	1322,99
684,45	1214,45
684,64	1279,98
684,82	1230,83
685,01	1239,02
685,19	1286,12
685,38	1275,88
685,57	1310,70
685,75	1271,79
685,94	1292,27
686,12	1308,65
686,31	1273,84
686,49	1263,60
686,68	1239,02
686,86	1300,46
687,05	1269,74
687,23	1347,56
687,42	1245,16
687,60	1200,11
687,79	1234,93
687,97	1363,95
688,16	1257,45
688,34	1261,55
688,53	1322,99
688,71	1302,51
688,90	1267,69
689,08	1331,18
689,27	1261,55
689,45	1255,40
689,64	1273,84
689,82	1290,22
690,01	1294,32
690,19	1198,06
690,38	1292,27
690,56	1253,36
690,75	1308,65
690,93	1298,41
691,12	1200,11
691,30	1275,88
691,49	1243,12
691,67	1302,51
691,86	1183,73
692,04	1341,42
692,23	1308,65
692,41	1220,59
692,60	1251,31
692,78	1286,12
692,97	1222,64
693,15	1292,27
693,34	1204,21
693,52	1239,02
693,71	1253,36
693,89	1263,60
694,08	1181,68
694,26	1265,64
694,44	1271,79
694,63	1232,88
694,81	1277,93
695,00	1249,26
695,18	1243,12
695,37	1314,80
695,55	1222,64
695,74	1247,21
695,92	1187,82
696,10	1187,82
696,29	1257,45
696,47	1296,36
696,66	1255,40
696,84	1243,12
697,03	1214,45
697,21	1294,32
697,40	1265,64
697,58	1226,73
697,76	1214,45
697,95	1320,94
698,13	1294,32
698,32	1318,89
698,50	1312,75
698,68	1277,93
698,87	1286,12
699,05	1269,74
699,24	1273,84
699,42	1259,50
699,61	1329,13
699,79	1329,13
699,97	1327,08
700,16	1300,46
700,34	1304,56
700,53	1230,83
700,71	1304,56
700,89	1255,40
701,08	1208,30
701,26	1175,53
701,45	1290,22
701,63	1216,49
701,81	1273,84
702,00	1298,41
702,18	1304,56
702,37	1339,37
702,55	1257,45
702,73	1325,04
702,92	1230,83
703,10	1245,16
703,28	1261,55
703,47	1249,26
703,65	1220,59
703,84	1325,04
704,02	1269,74
704,20	1232,88
704,39	1241,07
704,57	1298,41
704,75	1282,03
704,94	1263,60
705,12	1267,69
705,30	1298,41
705,49	1261,55
705,67	1193,97
705,86	1343,47
706,04	1261,55
706,22	1316,84
706,41	1241,07
706,59	1306,60
706,77	1239,02
706,96	1286,12
707,14	1249,26
707,32	1294,32
707,51	1286,12
707,69	1290,22
707,87	1325,04
708,06	1308,65
708,24	1296,36
708,42	1398,76
708,61	1255,40
708,79	1269,74
708,97	1269,74
709,16	1259,50
709,34	1357,80
709,52	1259,50
709,71	1277,93
709,89	1288,17
710,07	1343,47
710,26	1271,79
710,44	1279,98
710,62	1335,28
710,80	1322,99
710,99	1206,25
711,17	1214,45
711,35	1245,16
711,54	1261,55
711,72	1208,30
711,90	1269,74
712,09	1247,21
712,27	1296,36
712,45	1247,21
712,63	1290,22
712,82	1228,78
713,00	1318,89
713,18	1277,93
713,37	1290,22
713,55	1196,01
713,73	1333,23
713,91	1267,69
714,10	1284,08
714,28	1273,84
714,46	1341,42
714,65	1257,45
714,83	1273,84
715,01	1337,32
715,19	1327,08
715,38	1277,93
715,56	1247,21
715,74	1296,36
715,92	1279,98
716,11	1243,12
716,29	1198,06
716,47	1273,84
716,65	1136,62
716,84	1288,17
717,02	1288,17
717,20	1308,65
717,38	1239,02
717,57	1292,27
717,75	1220,59
717,93	1273,84
718,11	1228,78
718,30	1327,08
718,48	1265,64
718,66	1236,97
718,84	1282,03
719,03	1329,13
719,21	1279,98
719,39	1366,00
719,57	1216,49
719,75	1275,88
719,94	1232,88
720,12	1318,89
720,30	1204,21
720,48	1263,60
720,67	1241,07
720,85	1292,27
721,03	1226,73
721,21	1206,25
721,39	1214,45
721,58	1249,26
721,76	1363,95
721,94	1284,08
722,12	1251,31
722,30	1296,36
722,49	1220,59
722,67	1329,13
722,85	1185,77
723,03	1230,83
723,21	1202,16
723,40	1216,49
723,58	1339,37
723,76	1261,55
723,94	1314,80
724,12	1232,88
724,30	1300,46
724,49	1269,74
724,67	1261,55
724,85	1361,90
725,03	1239,02
725,21	1253,36
725,40	1292,27
725,58	1218,54
725,76	1318,89
725,94	1300,46
726,12	1279,98
726,30	1257,45
726,49	1253,36
726,67	1261,55
726,85	1232,88
727,03	1273,84
727,21	1355,76
727,39	1191,92
727,57	1241,07
727,76	1316,84
727,94	1234,93
728,12	1275,88
728,30	1253,36
728,48	1331,18
728,66	1320,94
728,84	1327,08
729,03	1265,64
729,21	1251,31
729,39	1302,51
729,57	1249,26
729,75	1196,01
729,93	1337,32
730,11	1312,75
730,30	1257,45
730,48	1335,28
730,66	1265,64
730,84	1279,98
731,02	1173,49
731,20	1304,56
731,38	1271,79
731,56	1273,84
731,74	1314,80
731,93	1273,84
732,11	1263,60
732,29	1378,28
732,47	1298,41
732,65	1265,64
732,83	1236,97
733,01	1261,55
733,19	1275,88
733,37	1236,97
733,56	1325,04
733,74	1243,12
733,92	1271,79
734,10	1265,64
734,28	1200,11
734,46	1239,02
734,64	1261,55
734,82	1222,64
735,00	1284,08
735,18	1232,88
735,36	1206,25
735,54	1298,41
735,73	1302,51
735,91	1300,46
736,09	1247,21
736,27	1335,28
736,45	1257,45
736,63	1259,50
736,81	1312,75
736,99	1273,84
737,17	1357,80
737,35	1347,56
737,53	1267,69
737,71	1220,59
737,89	1251,31
738,07	1265,64
738,25	1257,45
738,43	1286,12
738,61	1320,94
738,80	1239,02
738,98	1308,65
739,16	1263,60
739,34	1333,23
739,52	1247,21
739,70	1261,55
739,88	1298,41
740,06	1204,21
740,24	1310,70
740,42	1306,60
740,60	1239,02
740,78	1232,88
740,96	1210,35
741,14	1253,36
741,32	1306,60
741,50	1249,26
741,68	1290,22
741,86	1304,56
742,04	1150,96
742,22	1277,93
742,40	1177,58
742,58	1292,27
742,76	1239,02
742,94	1284,08
743,12	1251,31
743,30	1314,80
743,48	1243,12
743,66	1286,12
743,84	1286,12
744,02	1294,32
744,20	1322,99
744,38	1284,08
744,56	1339,37
744,74	1302,51
744,92	1267,69
745,10	1236,97
745,28	1284,08
745,46	1308,65
745,64	1282,03
745,82	1288,17
746,00	1185,77
746,18	1241,07
746,36	1284,08
746,54	1284,08
746,72	1322,99
746,90	1320,94
747,08	1259,50
747,26	1212,40
747,44	1234,93
747,62	1302,51
747,80	1302,51
747,98	1243,12
748,15	1279,98
748,33	1275,88
748,51	1232,88
748,69	1230,83
748,87	1333,23
749,05	1222,64
749,23	1265,64
749,41	1257,45
749,59	1253,36
749,77	1249,26
749,95	1261,55
750,13	1220,59
750,31	1288,17
750,49	1320,94
750,67	1271,79
750,85	1277,93
751,03	1253,36
751,20	1302,51
751,38	1257,45
751,56	1218,54
751,74	1251,31
751,92	1245,16
752,10	1271,79
752,28	1271,79
752,46	1263,60
752,64	1277,93
752,82	1292,27
753,00	1294,32
753,18	1271,79
753,35	1214,45
753,53	1329,13
753,71	1234,93
753,89	1304,56
754,07	1296,36
754,25	1220,59
754,43	1298,41
754,61	1282,03
754,79	1247,21
754,97	1275,88
755,14	1273,84
755,32	1236,97
755,50	1265,64
755,68	1277,93
755,86	1286,12
756,04	1282,03
756,22	1265,64
756,40	1296,36
756,57	1245,16
756,75	1236,97
756,93	1210,35
757,11	1325,04
757,29	1239,02
757,47	1269,74
757,65	1288,17
757,82	1306,60
758,00	1284,08
758,18	1253,36
758,36	1288,17
758,54	1220,59
758,72	1228,78
758,90	1230,83
759,07	1296,36
759,25	1345,52
759,43	1245,16
759,61	1273,84
759,79	1245,16
759,97	1327,08
760,15	1286,12
760,32	1245,16
760,50	1269,74
760,68	1261,55
760,86	1222,64
761,04	1255,40
761,22	1329,13
761,39	1306,60
761,57	1257,45
761,75	1327,08
761,93	1292,27
762,11	1288,17
762,28	1239,02
762,46	1284,08
762,64	1282,03
762,82	1288,17
763,00	1304,56
763,18	1310,70
763,35	1257,45
763,53	1257,45
763,71	1228,78
763,89	1325,04
764,07	1339,37
764,24	1290,22
764,42	1269,74
764,60	1263,60
764,78	1339,37
764,96	1236,97
765,13	1308,65
765,31	1247,21
765,49	1333,23
765,67	1298,41
765,84	1290,22
766,02	1277,93
766,20	1251,31
766,38	1286,12
766,56	1294,32
766,73	1243,12
766,91	1284,08
767,09	1335,28
767,27	1277,93
767,44	1257,45
767,62	1263,60
767,80	1273,84
767,98	1302,51
768,15	1241,07
768,33	1304,56
768,51	1282,03
768,69	1269,74
768,87	1288,17
769,04	1288,17
769,22	1279,98
769,40	1277,93
769,58	1279,98
769,75	1247,21
769,93	1261,55
770,11	1239,02
770,28	1251,31
770,46	1243,12
770,64	1275,88
770,82	1253,36
770,99	1288,17
771,17	1316,84
771,35	1259,50
771,53	1296,36
771,70	1314,80
771,88	1314,80
772,06	1279,98
772,23	1284,08
772,41	1261,55
772,59	1333,23
772,77	1230,83
772,94	1212,40
773,12	1331,18
773,30	1306,60
773,47	1284,08
773,65	1298,41
773,83	1325,04
774,01	1318,89
774,18	1320,94
774,36	1216,49
774,54	1261,55
774,71	1284,08
774,89	1230,83
775,07	1241,07
775,24	1265,64
775,42	1230,83
775,60	1288,17
775,78	1257,45
775,95	1284,08
776,13	1163,25
776,31	1257,45
776,48	1290,22
776,66	1286,12
776,84	1265,64
777,01	1333,23
777,19	1279,98
777,37	1253,36
777,54	1257,45
777,72	1243,12
777,90	1181,68
778,07	1282,03
778,25	1298,41
778,43	1230,83
778,60	1394,67
778,78	1232,88
778,96	1284,08
779,13	1232,88
779,31	1261,55
779,49	1239,02
779,66	1257,45
779,84	1290,22
780,01	1286,12
780,19	1282,03
780,37	1322,99
780,54	1290,22
780,72	1259,50
780,90	1302,51
781,07	1284,08
781,25	1232,88
781,43	1243,12
781,60	1243,12
781,78	1251,31
781,95	1265,64
782,13	1261,55
782,31	1273,84
782,48	1249,26
782,66	1275,88
782,83	1265,64
783,01	1314,80
783,19	1247,21
783,36	1343,47
783,54	1257,45
783,72	1298,41
783,89	1277,93
784,07	1318,89
784,24	1380,33
784,42	1292,27
784,60	1320,94
784,77	1380,33
784,95	1314,80
785,12	1273,84
785,30	1239,02
785,47	1277,93
785,65	1255,40
785,83	1228,78
786,00	1232,88
786,18	1255,40
786,35	1253,36
786,53	1247,21
786,71	1312,75
786,88	1241,07
787,06	1286,12
787,23	1310,70
787,41	1282,03
787,58	1282,03
787,76	1261,55
787,94	1220,59
788,11	1275,88
788,29	1273,84
788,46	1214,45
788,64	1216,49
788,81	1269,74
788,99	1239,02
789,16	1314,80
789,34	1257,45
789,52	1228,78
789,69	1288,17
789,87	1318,89
790,04	1279,98
790,22	1306,60
790,39	1282,03
790,57	1286,12
790,74	1318,89
790,92	1265,64
791,09	1253,36
791,27	1239,02
791,44	1331,18
791,62	1261,55
791,79	1239,02
791,97	1312,75
792,15	1333,23
792,32	1267,69
792,50	1335,28
792,67	1290,22
792,85	1271,79
793,02	1312,75
793,20	1288,17
793,37	1277,93
793,55	1269,74
793,72	1226,73
793,90	1290,22
794,07	1292,27
794,25	1183,73
794,42	1236,97
794,60	1284,08
794,77	1175,53
794,95	1284,08
795,12	1228,78
795,30	1226,73
795,47	1220,59
795,65	1343,47
795,82	1253,36
796,00	1288,17
796,17	1249,26
796,34	1282,03
796,52	1284,08
796,69	1288,17
796,87	1286,12
797,04	1226,73
797,22	1314,80
797,39	1288,17
797,57	1269,74
797,74	1212,40
797,92	1279,98
798,09	1265,64
798,27	1251,31
798,44	1255,40
798,62	1284,08
798,79	1220,59
798,96	1220,59
799,14	1251,31
799,31	1249,26
799,49	1243,12
799,66	1269,74
799,84	1345,52
800,01	1232,88
800,19	1337,32
800,36	1214,45
800,53	1206,25
800,71	1288,17
800,88	1300,46
801,06	1273,84
801,23	1279,98
801,41	1294,32
801,58	1333,23
801,75	1271,79
801,93	1304,56
802,10	1284,08
802,28	1249,26
802,45	1208,30
802,63	1316,84
802,80	1298,41
802,97	1263,60
803,15	1208,30
803,32	1234,93
803,50	1222,64
803,67	1298,41
803,84	1341,42
804,02	1296,36
804,19	1282,03
804,37	1294,32
804,54	1277,93
804,71	1273,84
804,89	1243,12
805,06	1247,21
805,24	1189,87
805,41	1255,40
805,58	1232,88
805,76	1218,54
805,93	1275,88
806,10	1335,28
806,28	1284,08
806,45	1339,37
806,63	1302,51
806,80	1267,69
806,97	1193,97
807,15	1286,12
807,32	1261,55
807,49	1263,60
807,67	1275,88
807,84	1282,03
808,01	1263,60
808,19	1275,88
808,36	1351,66
808,54	1263,60
808,71	1337,32
808,88	1288,17
809,06	1298,41
809,23	1288,17
809,40	1259,50
809,58	1351,66
809,75	1327,08
809,92	1306,60
810,10	1218,54
810,27	1226,73
810,44	1302,51
810,62	1279,98
810,79	1271,79
810,96	1234,93
811,14	1173,49
811,31	1206,25
811,48	1267,69
811,66	1202,16
811,83	1228,78
812,00	1282,03
812,18	1247,21
812,35	1298,41
812,52	1302,51
812,69	1318,89
812,87	1249,26
813,04	1327,08
813,21	1216,49
813,39	1312,75
813,56	1273,84
813,73	1288,17
813,91	1275,88
814,08	1294,32
814,25	1273,84
814,42	1253,36
814,60	1271,79
814,77	1249,26
814,94	1175,53
815,12	1257,45
815,29	1265,64
815,46	1329,13
815,63	1335,28
815,81	1261,55
815,98	1249,26
816,15	1312,75
816,33	1318,89
816,50	1267,69
816,67	1271,79
816,84	1325,04
817,02	1271,79
817,19	1241,07
817,36	1251,31
817,53	1316,84
817,71	1308,65
817,88	1265,64
818,05	1218,54
818,22	1253,36
818,40	1224,69
818,57	1249,26
818,74	1322,99
818,91	1214,45
819,09	1306,60
819,26	1308,65
819,43	1290,22
819,60	1277,93
819,78	1304,56
819,95	1249,26
820,12	1255,40
820,29	1253,36
820,47	1251,31
820,64	1318,89
820,81	1284,08
820,98	1245,16
821,15	1306,60
821,33	1236,97
821,50	1230,83
821,67	1286,12
821,84	1306,60
822,02	1284,08
822,19	1275,88
822,36	1277,93
822,53	1251,31
822,70	1265,64
822,88	1290,22
823,05	1284,08
823,22	1275,88
823,39	1282,03
823,56	1177,58
823,74	1230,83
823,91	1288,17
824,08	1279,98
824,25	1210,35
824,42	1277,93
824,60	1210,35
824,77	1247,21
824,94	1273,84
825,11	1271,79
825,28	1277,93
825,45	1185,77
825,63	1265,64
825,80	1306,60
825,97	1263,60
826,14	1298,41
826,31	1265,64
826,48	1189,87
826,66	1232,88
826,83	1251,31
827,00	1236,97
827,17	1316,84
827,34	1214,45
827,51	1298,41
827,69	1253,36
827,86	1282,03
828,03	1259,50
828,20	1206,25
828,37	1179,63
828,54	1282,03
828,71	1249,26
828,89	1284,08
829,06	1275,88
829,23	1241,07
829,40	1298,41
829,57	1261,55
829,74	1298,41
829,91	1251,31
830,09	1298,41
830,26	1302,51
830,43	1257,45
830,60	1304,56
830,77	1359,85
830,94	1253,36
831,11	1316,84
831,28	1259,50
831,46	1359,85
831,63	1239,02
831,80	1245,16
831,97	1302,51
832,14	1322,99
832,31	1292,27
832,48	1265,64
832,65	1200,11
832,82	1271,79
832,99	1275,88
833,17	1269,74
833,34	1298,41
833,51	1261,55
833,68	1228,78
833,85	1304,56
834,02	1220,59
834,19	1222,64
834,36	1257,45
834,53	1271,79
834,70	1298,41
834,87	1257,45
835,04	1267,69
835,22	1232,88
835,39	1239,02
835,56	1214,45
835,73	1302,51
835,90	1277,93
836,07	1279,98
836,24	1300,46
836,41	1216,49
836,58	1327,08
836,75	1253,36
836,92	1271,79
837,09	1230,83
837,26	1298,41
837,43	1241,07
837,60	1257,45
837,77	1308,65
837,94	1263,60
838,12	1300,46
838,29	1279,98
838,46	1318,89
838,63	1302,51
838,80	1294,32
838,97	1282,03
839,14	1185,77
839,31	1267,69
839,48	1288,17
839,65	1189,87
839,82	1236,97
839,99	1341,42
840,16	1292,27
840,33	1251,31
840,50	1331,18
840,67	1292,27
840,84	1255,40
841,01	1290,22
841,18	1245,16
841,35	1282,03
841,52	1296,36
841,69	1236,97
841,86	1284,08
842,03	1220,59
842,20	1294,32
842,37	1302,51
842,54	1189,87
842,71	1214,45
842,88	1230,83
843,05	1247,21
843,22	1275,88
843,39	1230,83
843,56	1191,92
843,73	1239,02
843,90	1251,31
844,07	1224,69
844,24	1300,46
844,41	1241,07
844,58	1257,45
844,75	1279,98
844,92	1247,21
845,09	1300,46
845,26	1265,64
845,43	1277,93
845,60	1263,60
845,77	1300,46
845,94	1298,41
846,10	1253,36
846,27	1298,41
846,44	1284,08
846,61	1300,46
846,78	1265,64
846,95	1267,69
847,12	1263,60
847,29	1327,08
847,46	1269,74
847,63	1189,87
847,80	1261,55
847,97	1265,64
848,14	1265,64
848,31	1265,64
848,48	1288,17
848,65	1181,68
848,82	1232,88
848,98	1296,36
849,15	1228,78
849,32	1232,88
849,49	1232,88
849,66	1220,59
849,83	1253,36
850,00	1226,73
850,17	1222,64
850,34	1298,41
850,51	1288,17
850,68	1216,49
850,85	1306,60
851,01	1290,22
851,18	1304,56
851,35	1322,99
851,52	1370,09
851,69	1273,84
851,86	1308,65
852,03	1327,08
852,20	1255,40
852,37	1243,12
852,53	1329,13
852,70	1226,73
852,87	1224,69
853,04	1304,56
853,21	1236,97
853,38	1310,70
853,55	1273,84
853,72	1322,99
853,89	1257,45
854,05	1218,54
854,22	1236,97
854,39	1314,80
854,56	1247,21
854,73	1341,42
854,90	1282,03
855,07	1251,31
855,23	1218,54
855,40	1200,11
855,57	1339,37
855,74	1228,78
855,91	1300,46
856,08	1257,45
856,25	1249,26
856,41	1263,60
856,58	1320,94
856,75	1232,88
856,92	1214,45
857,09	1302,51
857,26	1312,75
857,42	1214,45
857,59	1300,46
857,76	1202,16
857,93	1214,45
858,10	1179,63
858,27	1239,02
858,43	1236,97
858,60	1265,64
858,77	1312,75
858,94	1245,16
859,11	1204,21
859,27	1198,06
859,44	1288,17
859,61	1316,84
859,78	1306,60
859,95	1290,22
860,12	1234,93
860,28	1249,26
860,45	1327,08
860,62	1277,93
860,79	1298,41
860,95	1296,36
861,12	1263,60
861,29	1271,79
861,46	1249,26
861,63	1257,45
861,79	1216,49
861,96	1208,30
862,13	1212,40
862,30	1206,25
862,47	1349,61
862,63	1255,40
862,80	1290,22
862,97	1265,64
863,14	1279,98
863,30	1294,32
863,47	1296,36
863,64	1265,64
863,81	1279,98
863,97	1351,66
864,14	1310,70
864,31	1249,26
864,48	1273,84
864,65	1241,07
864,81	1298,41
864,98	1296,36
865,15	1413,10
865,32	1253,36
865,48	1329,13
865,65	1245,16
865,82	1269,74
865,98	1226,73
866,15	1271,79
866,32	1290,22
866,49	1273,84
866,65	1241,07
866,82	1282,03
866,99	1249,26
867,16	1183,73
867,32	1282,03
867,49	1312,75
867,66	1267,69
867,83	1226,73
867,99	1245,16
868,16	1249,26
868,33	1290,22
868,49	1298,41
868,66	1302,51
868,83	1322,99
868,99	1269,74
869,16	1298,41
869,33	1314,80
869,50	1271,79
869,66	1277,93
869,83	1251,31
870,00	1302,51
870,16	1322,99
870,33	1230,83
870,50	1310,70
870,66	1302,51
870,83	1298,41
871,00	1236,97
871,17	1239,02
871,33	1306,60
871,50	1271,79
871,67	1241,07
871,83	1300,46
872,00	1304,56
872,17	1251,31
872,33	1306,60
872,50	1271,79
872,67	1236,97
872,83	1290,22
873,00	1314,80
873,17	1304,56
873,33	1261,55
873,50	1214,45
873,67	1275,88
873,83	1298,41
874,00	1261,55
874,16	1261,55
874,33	1243,12
874,50	1282,03
874,66	1282,03
874,83	1208,30
875,00	1298,41
875,16	1288,17
875,33	1347,56
875,50	1228,78
875,66	1318,89
875,83	1255,40
875,99	1294,32
876,16	1267,69
876,33	1249,26
876,49	1290,22
876,66	1273,84
876,83	1241,07
876,99	1241,07
877,16	1206,25
877,32	1255,40
877,49	1265,64
877,66	1230,83
877,82	1216,49
877,99	1202,16
878,15	1232,88
878,32	1257,45
878,49	1253,36
878,65	1277,93
878,82	1275,88
878,98	1294,32
879,15	1241,07
879,32	1253,36
879,48	1232,88
879,65	1210,35
879,81	1279,98
879,98	1325,04
880,15	1245,16
880,31	1306,60
880,48	1290,22
880,64	1279,98
880,81	1251,31
880,97	1273,84
881,14	1253,36
881,31	1343,47
881,47	1257,45
881,64	1269,74
881,80	1257,45
881,97	1294,32
882,13	1314,80
882,30	1269,74
882,47	1294,32
882,63	1294,32
882,80	1306,60
882,96	1267,69
883,13	1290,22
883,29	1236,97
883,46	1259,50
883,62	1286,12
883,79	1300,46
883,95	1267,69
884,12	1263,60
884,29	1308,65
884,45	1296,36
884,62	1187,82
884,78	1284,08
884,95	1296,36
885,11	1212,40
885,28	1230,83
885,44	1271,79
885,61	1279,98
885,77	1282,03
885,94	1236,97
886,10	1249,26
886,27	1279,98
886,43	1300,46
886,60	1187,82
886,76	1243,12
886,93	1333,23
887,09	1312,75
887,26	1181,68
887,42	1294,32
887,59	1187,82
887,75	1282,03
887,92	1175,53
888,08	1232,88
888,25	1286,12
888,41	1312,75
888,58	1247,21
888,74	1214,45
888,91	1298,41
>>>>>End Processed Spectral Data<<<<<
