SpectraSuite Data File
++++++++++++++++++++++++++++++++++++
Date: Sun Apr 03 15:53:04 CEST 2016
User: root
Dark Spectrum Present: No
Reference Spectrum Present: No
Number of Sampled Component Spectra: 1
Spectrometers: USB4C02835
Integration Time (usec): 10000 (USB4C02835)
Spectra Averaged: 1 (USB4C02835)
Boxcar Smoothing: 0 (USB4C02835)
Correct for Electrical Dark: No (USB4C02835)
Strobe/Lamp Enabled: No (USB4C02835)
Correct for Detector Non-linearity: No (USB4C02835)
Correct for Stray Light: No (USB4C02835)
Number of Pixels in Processed Spectrum: 3648
>>>>>Begin Processed Spectral Data<<<<<
177,47	1247,21
177,69	1247,21
177,91	1247,21
178,13	1275,88
178,36	1322,99
178,58	1247,21
178,80	1212,40
179,02	1263,60
179,24	1216,49
179,46	1214,45
179,68	1312,75
179,90	1282,03
180,13	1308,65
180,35	1204,21
180,57	1243,12
180,79	1273,84
181,01	1275,88
181,23	1279,98
181,45	1378,28
181,67	1290,22
181,90	1333,23
182,12	1275,88
182,34	1331,18
182,56	1290,22
182,78	1255,40
183,00	1263,60
183,22	1212,40
183,44	1208,30
183,66	1288,17
183,89	1290,22
184,11	1269,74
184,33	1241,07
184,55	1275,88
184,77	1230,83
184,99	1339,37
185,21	1243,12
185,43	1331,18
185,65	1253,36
185,87	1204,21
186,10	1368,04
186,32	1294,32
186,54	1255,40
186,76	1259,50
186,98	1243,12
187,20	1343,47
187,42	1300,46
187,64	1232,88
187,86	1236,97
188,08	1220,59
188,30	1257,45
188,52	1298,41
188,75	1236,97
188,97	1253,36
189,19	1273,84
189,41	1273,84
189,63	1247,21
189,85	1226,73
190,07	1269,74
190,29	1220,59
190,51	1282,03
190,73	1253,36
190,95	1320,94
191,17	1218,54
191,39	1284,08
191,61	1253,36
191,84	1275,88
192,06	1273,84
192,28	1318,89
192,50	1249,26
192,72	1318,89
192,94	1257,45
193,16	1294,32
193,38	1267,69
193,60	1279,98
193,82	1245,16
194,04	1255,40
194,26	1339,37
194,48	1257,45
194,70	1288,17
194,92	1245,16
195,14	1320,94
195,36	1312,75
195,58	1290,22
195,80	1239,02
196,02	1263,60
196,24	1304,56
196,46	1251,31
196,69	1230,83
196,91	1265,64
197,13	1286,12
197,35	1292,27
197,57	1171,44
197,79	1290,22
198,01	1261,55
198,23	1286,12
198,45	1220,59
198,67	1273,84
198,89	1275,88
199,11	1239,02
199,33	1187,82
199,55	1310,70
199,77	1318,89
199,99	1322,99
200,21	1284,08
200,43	1271,79
200,65	1265,64
200,87	1318,89
201,09	1308,65
201,31	1290,22
201,53	1179,63
201,75	1298,41
201,97	1290,22
202,19	1230,83
202,41	1275,88
202,63	1265,64
202,85	1196,01
203,07	1241,07
203,29	1222,64
203,51	1243,12
203,73	1228,78
203,95	1320,94
204,17	1316,84
204,39	1329,13
204,61	1263,60
204,83	1296,36
205,05	1239,02
205,27	1290,22
205,49	1232,88
205,71	1247,21
205,93	1245,16
206,15	1210,35
206,37	1335,28
206,59	1306,60
206,81	1292,27
207,03	1255,40
207,25	1263,60
207,47	1306,60
207,69	1337,32
207,91	1284,08
208,13	1263,60
208,34	1304,56
208,56	1347,56
208,78	1363,95
209,00	1243,12
209,22	1284,08
209,44	1275,88
209,66	1259,50
209,88	1300,46
210,10	1226,73
210,32	1253,36
210,54	1296,36
210,76	1275,88
210,98	1253,36
211,20	1300,46
211,42	1255,40
211,64	1286,12
211,86	1253,36
212,08	1249,26
212,30	1331,18
212,52	1302,51
212,74	1329,13
212,96	1282,03
213,17	1320,94
213,39	1265,64
213,61	1327,08
213,83	1298,41
214,05	1251,31
214,27	1318,89
214,49	1267,69
214,71	1279,98
214,93	1335,28
215,15	1269,74
215,37	1208,30
215,59	1247,21
215,81	1296,36
216,03	1259,50
216,24	1296,36
216,46	1294,32
216,68	1279,98
216,90	1236,97
217,12	1239,02
217,34	1265,64
217,56	1290,22
217,78	1306,60
218,00	1296,36
218,22	1306,60
218,44	1292,27
218,66	1255,40
218,87	1296,36
219,09	1298,41
219,31	1292,27
219,53	1318,89
219,75	1335,28
219,97	1335,28
220,19	1343,47
220,41	1284,08
220,63	1294,32
220,85	1255,40
221,06	1261,55
221,28	1247,21
221,50	1296,36
221,72	1255,40
221,94	1300,46
222,16	1257,45
222,38	1232,88
222,60	1261,55
222,82	1275,88
223,03	1302,51
223,25	1294,32
223,47	1247,21
223,69	1261,55
223,91	1302,51
224,13	1292,27
224,35	1261,55
224,57	1273,84
224,78	1345,52
225,00	1292,27
225,22	1236,97
225,44	1226,73
225,66	1220,59
225,88	1206,25
226,10	1255,40
226,32	1308,65
226,53	1282,03
226,75	1261,55
226,97	1320,94
227,19	1255,40
227,41	1243,12
227,63	1292,27
227,85	1275,88
228,06	1312,75
228,28	1251,31
228,50	1226,73
228,72	1212,40
228,94	1310,70
229,16	1269,74
229,37	1265,64
229,59	1247,21
229,81	1261,55
230,03	1331,18
230,25	1359,85
230,47	1224,69
230,69	1282,03
230,90	1261,55
231,12	1259,50
231,34	1255,40
231,56	1310,70
231,78	1189,87
232,00	1198,06
232,21	1228,78
232,43	1251,31
232,65	1286,12
232,87	1351,66
233,09	1329,13
233,30	1243,12
233,52	1257,45
233,74	1224,69
233,96	1257,45
234,18	1296,36
234,40	1255,40
234,61	1296,36
234,83	1271,79
235,05	1265,64
235,27	1300,46
235,49	1329,13
235,70	1263,60
235,92	1302,51
236,14	1316,84
236,36	1245,16
236,58	1269,74
236,79	1249,26
237,01	1267,69
237,23	1308,65
237,45	1304,56
237,67	1236,97
237,88	1294,32
238,10	1263,60
238,32	1318,89
238,54	1267,69
238,76	1218,54
238,97	1304,56
239,19	1257,45
239,41	1294,32
239,63	1322,99
239,85	1247,21
240,06	1247,21
240,28	1314,80
240,50	1267,69
240,72	1265,64
240,93	1282,03
241,15	1298,41
241,37	1245,16
241,59	1300,46
241,81	1318,89
242,02	1249,26
242,24	1277,93
242,46	1259,50
242,68	1275,88
242,89	1331,18
243,11	1273,84
243,33	1239,02
243,55	1271,79
243,76	1288,17
243,98	1290,22
244,20	1314,80
244,42	1263,60
244,64	1337,32
244,85	1247,21
245,07	1247,21
245,29	1282,03
245,51	1251,31
245,72	1294,32
245,94	1247,21
246,16	1284,08
246,38	1218,54
246,59	1292,27
246,81	1275,88
247,03	1245,16
247,24	1257,45
247,46	1306,60
247,68	1292,27
247,90	1316,84
248,11	1249,26
248,33	1261,55
248,55	1298,41
248,77	1247,21
248,98	1255,40
249,20	1208,30
249,42	1245,16
249,64	1220,59
249,85	1222,64
250,07	1282,03
250,29	1357,80
250,50	1210,35
250,72	1251,31
250,94	1232,88
251,16	1316,84
251,37	1302,51
251,59	1247,21
251,81	1341,42
252,02	1320,94
252,24	1282,03
252,46	1257,45
252,68	1308,65
252,89	1298,41
253,11	1282,03
253,33	1249,26
253,54	1251,31
253,76	1257,45
253,98	1265,64
254,20	1261,55
254,41	1239,02
254,63	1236,97
254,85	1247,21
255,06	1298,41
255,28	1253,36
255,50	1269,74
255,71	1255,40
255,93	1232,88
256,15	1230,83
256,36	1204,21
256,58	1232,88
256,80	1349,61
257,02	1220,59
257,23	1294,32
257,45	1220,59
257,67	1296,36
257,88	1245,16
258,10	1243,12
258,32	1265,64
258,53	1216,49
258,75	1253,36
258,97	1253,36
259,18	1204,21
259,40	1269,74
259,62	1259,50
259,83	1265,64
260,05	1259,50
260,27	1286,12
260,48	1267,69
260,70	1265,64
260,92	1218,54
261,13	1261,55
261,35	1296,36
261,57	1247,21
261,78	1236,97
262,00	1249,26
262,22	1298,41
262,43	1271,79
262,65	1294,32
262,86	1294,32
263,08	1275,88
263,30	1179,63
263,51	1241,07
263,73	1265,64
263,95	1341,42
264,16	1257,45
264,38	1267,69
264,60	1249,26
264,81	1185,77
265,03	1314,80
265,25	1263,60
265,46	1259,50
265,68	1292,27
265,89	1275,88
266,11	1241,07
266,33	1206,25
266,54	1277,93
266,76	1273,84
266,98	1284,08
267,19	1292,27
267,41	1236,97
267,62	1193,97
267,84	1218,54
268,06	1216,49
268,27	1279,98
268,49	1247,21
268,70	1294,32
268,92	1232,88
269,14	1279,98
269,35	1202,16
269,57	1234,93
269,79	1214,45
270,00	1261,55
270,22	1263,60
270,43	1288,17
270,65	1232,88
270,87	1228,78
271,08	1259,50
271,30	1290,22
271,51	1312,75
271,73	1359,85
271,95	1265,64
272,16	1255,40
272,38	1279,98
272,59	1296,36
272,81	1341,42
273,02	1286,12
273,24	1327,08
273,46	1310,70
273,67	1300,46
273,89	1290,22
274,10	1310,70
274,32	1261,55
274,54	1216,49
274,75	1273,84
274,97	1273,84
275,18	1198,06
275,40	1318,89
275,61	1298,41
275,83	1366,00
276,05	1300,46
276,26	1312,75
276,48	1191,92
276,69	1208,30
276,91	1284,08
277,12	1263,60
277,34	1284,08
277,55	1333,23
277,77	1247,21
277,99	1273,84
278,20	1206,25
278,42	1329,13
278,63	1241,07
278,85	1212,40
279,06	1302,51
279,28	1261,55
279,49	1216,49
279,71	1265,64
279,93	1296,36
280,14	1253,36
280,36	1243,12
280,57	1284,08
280,79	1239,02
281,00	1273,84
281,22	1241,07
281,43	1282,03
281,65	1304,56
281,86	1288,17
282,08	1306,60
282,29	1331,18
282,51	1279,98
282,73	1191,92
282,94	1234,93
283,16	1249,26
283,37	1273,84
283,59	1308,65
283,80	1269,74
284,02	1292,27
284,23	1288,17
284,45	1218,54
284,66	1290,22
284,88	1306,60
285,09	1288,17
285,31	1355,76
285,52	1288,17
285,74	1263,60
285,95	1286,12
286,17	1202,16
286,38	1286,12
286,60	1298,41
286,81	1202,16
287,03	1290,22
287,24	1286,12
287,46	1282,03
287,67	1312,75
287,89	1296,36
288,10	1320,94
288,32	1320,94
288,53	1277,93
288,75	1265,64
288,96	1366,00
289,18	1259,50
289,39	1251,31
289,61	1257,45
289,82	1331,18
290,04	1234,93
290,25	1271,79
290,47	1271,79
290,68	1232,88
290,90	1310,70
291,11	1290,22
291,33	1279,98
291,54	1255,40
291,76	1218,54
291,97	1300,46
292,18	1259,50
292,40	1335,28
292,61	1300,46
292,83	1308,65
293,04	1241,07
293,26	1308,65
293,47	1263,60
293,69	1314,80
293,90	1290,22
294,12	1279,98
294,33	1273,84
294,55	1253,36
294,76	1282,03
294,97	1302,51
295,19	1337,32
295,40	1275,88
295,62	1222,64
295,83	1279,98
296,05	1249,26
296,26	1310,70
296,48	1279,98
296,69	1308,65
296,90	1284,08
297,12	1286,12
297,33	1249,26
297,55	1327,08
297,76	1249,26
297,98	1312,75
298,19	1282,03
298,41	1212,40
298,62	1286,12
298,83	1259,50
299,05	1202,16
299,26	1259,50
299,48	1269,74
299,69	1228,78
299,90	1206,25
300,12	1228,78
300,33	1183,73
300,55	1279,98
300,76	1263,60
300,98	1265,64
301,19	1236,97
301,40	1298,41
301,62	1269,74
301,83	1249,26
302,05	1259,50
302,26	1241,07
302,47	1320,94
302,69	1234,93
302,90	1257,45
303,12	1257,45
303,33	1345,52
303,54	1245,16
303,76	1230,83
303,97	1296,36
304,19	1292,27
304,40	1234,93
304,61	1239,02
304,83	1275,88
305,04	1333,23
305,26	1269,74
305,47	1255,40
305,68	1249,26
305,90	1263,60
306,11	1288,17
306,33	1286,12
306,54	1243,12
306,75	1257,45
306,97	1290,22
307,18	1312,75
307,39	1310,70
307,61	1282,03
307,82	1179,63
308,04	1212,40
308,25	1241,07
308,46	1261,55
308,68	1298,41
308,89	1290,22
309,10	1245,16
309,32	1290,22
309,53	1296,36
309,74	1216,49
309,96	1251,31
310,17	1308,65
310,39	1269,74
310,60	1257,45
310,81	1310,70
311,03	1267,69
311,24	1322,99
311,45	1351,66
311,67	1249,26
311,88	1243,12
312,09	1261,55
312,31	1269,74
312,52	1288,17
312,73	1253,36
312,95	1245,16
313,16	1263,60
313,37	1366,00
313,59	1347,56
313,80	1224,69
314,01	1304,56
314,23	1257,45
314,44	1294,32
314,65	1288,17
314,87	1271,79
315,08	1216,49
315,29	1269,74
315,51	1271,79
315,72	1306,60
315,93	1200,11
316,15	1296,36
316,36	1265,64
316,57	1232,88
316,79	1265,64
317,00	1259,50
317,21	1380,33
317,43	1298,41
317,64	1226,73
317,85	1312,75
318,07	1234,93
318,28	1320,94
318,49	1284,08
318,70	1275,88
318,92	1263,60
319,13	1216,49
319,34	1257,45
319,56	1282,03
319,77	1302,51
319,98	1304,56
320,20	1347,56
320,41	1265,64
320,62	1230,83
320,83	1245,16
321,05	1318,89
321,26	1206,25
321,47	1273,84
321,69	1208,30
321,90	1277,93
322,11	1308,65
322,32	1232,88
322,54	1226,73
322,75	1277,93
322,96	1261,55
323,18	1290,22
323,39	1310,70
323,60	1279,98
323,81	1261,55
324,03	1263,60
324,24	1230,83
324,45	1241,07
324,66	1269,74
324,88	1349,61
325,09	1267,69
325,30	1304,56
325,52	1267,69
325,73	1204,21
325,94	1345,52
326,15	1265,64
326,37	1275,88
326,58	1298,41
326,79	1230,83
327,00	1275,88
327,22	1224,69
327,43	1298,41
327,64	1273,84
327,85	1228,78
328,07	1298,41
328,28	1329,13
328,49	1224,69
328,70	1284,08
328,92	1279,98
329,13	1300,46
329,34	1230,83
329,55	1263,60
329,76	1255,40
329,98	1286,12
330,19	1206,25
330,40	1306,60
330,61	1251,31
330,83	1271,79
331,04	1271,79
331,25	1261,55
331,46	1247,21
331,68	1171,44
331,89	1310,70
332,10	1284,08
332,31	1222,64
332,52	1284,08
332,74	1306,60
332,95	1286,12
333,16	1277,93
333,37	1304,56
333,58	1351,66
333,80	1232,88
334,01	1230,83
334,22	1333,23
334,43	1230,83
334,64	1300,46
334,86	1239,02
335,07	1265,64
335,28	1269,74
335,49	1224,69
335,70	1185,77
335,92	1171,44
336,13	1275,88
336,34	1228,78
336,55	1247,21
336,76	1255,40
336,98	1214,45
337,19	1232,88
337,40	1327,08
337,61	1292,27
337,82	1296,36
338,04	1253,36
338,25	1292,27
338,46	1247,21
338,67	1253,36
338,88	1200,11
339,09	1255,40
339,31	1296,36
339,52	1230,83
339,73	1245,16
339,94	1247,21
340,15	1275,88
340,36	1214,45
340,58	1241,07
340,79	1273,84
341,00	1302,51
341,21	1296,36
341,42	1253,36
341,63	1271,79
341,85	1314,80
342,06	1288,17
342,27	1236,97
342,48	1204,21
342,69	1245,16
342,90	1187,82
343,12	1327,08
343,33	1312,75
343,54	1261,55
343,75	1361,90
343,96	1224,69
344,17	1175,53
344,38	1302,51
344,60	1263,60
344,81	1269,74
345,02	1257,45
345,23	1245,16
345,44	1296,36
345,65	1255,40
345,86	1275,88
346,07	1198,06
346,29	1265,64
346,50	1271,79
346,71	1298,41
346,92	1243,12
347,13	1290,22
347,34	1273,84
347,55	1234,93
347,76	1275,88
347,98	1236,97
348,19	1234,93
348,40	1249,26
348,61	1261,55
348,82	1241,07
349,03	1261,55
349,24	1294,32
349,45	1232,88
349,66	1271,79
349,88	1230,83
350,09	1257,45
350,30	1282,03
350,51	1226,73
350,72	1216,49
350,93	1196,01
351,14	1310,70
351,35	1210,35
351,56	1277,93
351,77	1331,18
351,99	1275,88
352,20	1288,17
352,41	1302,51
352,62	1310,70
352,83	1282,03
353,04	1230,83
353,25	1269,74
353,46	1300,46
353,67	1292,27
353,88	1210,35
354,09	1241,07
354,30	1331,18
354,52	1206,25
354,73	1288,17
354,94	1265,64
355,15	1306,60
355,36	1265,64
355,57	1259,50
355,78	1327,08
355,99	1257,45
356,20	1290,22
356,41	1333,23
356,62	1269,74
356,83	1249,26
357,04	1271,79
357,25	1255,40
357,46	1282,03
357,68	1314,80
357,89	1282,03
358,10	1316,84
358,31	1245,16
358,52	1308,65
358,73	1292,27
358,94	1185,77
359,15	1277,93
359,36	1241,07
359,57	1236,97
359,78	1290,22
359,99	1294,32
360,20	1253,36
360,41	1292,27
360,62	1273,84
360,83	1210,35
361,04	1292,27
361,25	1302,51
361,46	1298,41
361,67	1382,38
361,88	1257,45
362,09	1298,41
362,30	1236,97
362,51	1318,89
362,72	1206,25
362,93	1259,50
363,14	1247,21
363,35	1275,88
363,56	1282,03
363,78	1308,65
363,99	1232,88
364,20	1290,22
364,41	1200,11
364,62	1261,55
364,83	1263,60
365,04	1279,98
365,25	1241,07
365,46	1267,69
365,67	1327,08
365,88	1277,93
366,09	1263,60
366,30	1245,16
366,51	1288,17
366,72	1275,88
366,93	1269,74
367,14	1282,03
367,35	1275,88
367,56	1179,63
367,77	1243,12
367,98	1273,84
368,18	1261,55
368,39	1329,13
368,60	1312,75
368,81	1279,98
369,02	1296,36
369,23	1290,22
369,44	1269,74
369,65	1327,08
369,86	1312,75
370,07	1228,78
370,28	1253,36
370,49	1261,55
370,70	1232,88
370,91	1273,84
371,12	1298,41
371,33	1275,88
371,54	1208,30
371,75	1282,03
371,96	1249,26
372,17	1263,60
372,38	1292,27
372,59	1333,23
372,80	1300,46
373,01	1255,40
373,22	1314,80
373,43	1239,02
373,64	1269,74
373,85	1226,73
374,06	1271,79
374,26	1216,49
374,47	1259,50
374,68	1286,12
374,89	1282,03
375,10	1245,16
375,31	1320,94
375,52	1292,27
375,73	1239,02
375,94	1275,88
376,15	1325,04
376,36	1236,97
376,57	1290,22
376,78	1230,83
376,99	1273,84
377,20	1230,83
377,40	1247,21
377,61	1236,97
377,82	1271,79
378,03	1273,84
378,24	1286,12
378,45	1239,02
378,66	1318,89
378,87	1304,56
379,08	1241,07
379,29	1257,45
379,50	1267,69
379,71	1300,46
379,91	1310,70
380,12	1343,47
380,33	1294,32
380,54	1234,93
380,75	1273,84
380,96	1212,40
381,17	1355,76
381,38	1265,64
381,59	1212,40
381,80	1327,08
382,00	1267,69
382,21	1288,17
382,42	1282,03
382,63	1267,69
382,84	1320,94
383,05	1214,45
383,26	1349,61
383,47	1210,35
383,68	1308,65
383,88	1327,08
384,09	1257,45
384,30	1241,07
384,51	1204,21
384,72	1257,45
384,93	1277,93
385,14	1243,12
385,35	1282,03
385,55	1236,97
385,76	1271,79
385,97	1241,07
386,18	1241,07
386,39	1185,77
386,60	1296,36
386,81	1236,97
387,02	1226,73
387,22	1318,89
387,43	1310,70
387,64	1279,98
387,85	1191,92
388,06	1288,17
388,27	1284,08
388,48	1273,84
388,68	1263,60
388,89	1255,40
389,10	1282,03
389,31	1243,12
389,52	1200,11
389,73	1265,64
389,93	1269,74
390,14	1312,75
390,35	1245,16
390,56	1282,03
390,77	1304,56
390,98	1290,22
391,18	1247,21
391,39	1290,22
391,60	1288,17
391,81	1355,76
392,02	1312,75
392,23	1304,56
392,43	1298,41
392,64	1249,26
392,85	1282,03
393,06	1269,74
393,27	1337,32
393,47	1230,83
393,68	1282,03
393,89	1331,18
394,10	1327,08
394,31	1241,07
394,52	1298,41
394,72	1251,31
394,93	1241,07
395,14	1216,49
395,35	1298,41
395,56	1306,60
395,76	1222,64
395,97	1232,88
396,18	1271,79
396,39	1267,69
396,60	1247,21
396,80	1261,55
397,01	1314,80
397,22	1296,36
397,43	1318,89
397,64	1292,27
397,84	1261,55
398,05	1279,98
398,26	1273,84
398,47	1282,03
398,67	1284,08
398,88	1226,73
399,09	1265,64
399,30	1269,74
399,51	1298,41
399,71	1296,36
399,92	1343,47
400,13	1224,69
400,34	1247,21
400,54	1284,08
400,75	1310,70
400,96	1386,47
401,17	1251,31
401,37	1288,17
401,58	1183,73
401,79	1198,06
402,00	1255,40
402,21	1208,30
402,41	1296,36
402,62	1275,88
402,83	1314,80
403,04	1310,70
403,24	1269,74
403,45	1222,64
403,66	1345,52
403,87	1273,84
404,07	1206,25
404,28	1269,74
404,49	1282,03
404,70	1249,26
404,90	1218,54
405,11	1261,55
405,32	1247,21
405,52	1253,36
405,73	1271,79
405,94	1226,73
406,15	1267,69
406,35	1218,54
406,56	1265,64
406,77	1298,41
406,98	1210,35
407,18	1275,88
407,39	1236,97
407,60	1277,93
407,80	1288,17
408,01	1265,64
408,22	1222,64
408,43	1290,22
408,63	1294,32
408,84	1320,94
409,05	1181,68
409,25	1239,02
409,46	1239,02
409,67	1347,56
409,88	1267,69
410,08	1247,21
410,29	1224,69
410,50	1265,64
410,70	1241,07
410,91	1259,50
411,12	1228,78
411,32	1275,88
411,53	1302,51
411,74	1279,98
411,95	1345,52
412,15	1331,18
412,36	1245,16
412,57	1273,84
412,77	1224,69
412,98	1214,45
413,19	1257,45
413,39	1230,83
413,60	1224,69
413,81	1228,78
414,01	1261,55
414,22	1206,25
414,43	1243,12
414,63	1284,08
414,84	1296,36
415,05	1304,56
415,25	1329,13
415,46	1218,54
415,67	1263,60
415,87	1224,69
416,08	1310,70
416,29	1216,49
416,49	1286,12
416,70	1245,16
416,91	1286,12
417,11	1249,26
417,32	1284,08
417,53	1355,76
417,73	1267,69
417,94	1265,64
418,15	1214,45
418,35	1314,80
418,56	1222,64
418,77	1273,84
418,97	1253,36
419,18	1226,73
419,38	1277,93
419,59	1284,08
419,80	1290,22
420,00	1294,32
420,21	1261,55
420,42	1239,02
420,62	1304,56
420,83	1277,93
421,04	1259,50
421,24	1267,69
421,45	1294,32
421,65	1234,93
421,86	1234,93
422,07	1198,06
422,27	1269,74
422,48	1263,60
422,69	1261,55
422,89	1310,70
423,10	1259,50
423,30	1247,21
423,51	1290,22
423,72	1251,31
423,92	1226,73
424,13	1247,21
424,33	1290,22
424,54	1322,99
424,75	1198,06
424,95	1177,58
425,16	1271,79
425,36	1271,79
425,57	1191,92
425,78	1325,04
425,98	1304,56
426,19	1214,45
426,39	1314,80
426,60	1243,12
426,81	1337,32
427,01	1314,80
427,22	1241,07
427,42	1275,88
427,63	1277,93
427,83	1284,08
428,04	1306,60
428,25	1161,20
428,45	1222,64
428,66	1320,94
428,86	1290,22
429,07	1296,36
429,28	1282,03
429,48	1337,32
429,69	1273,84
429,89	1275,88
430,10	1239,02
430,30	1347,56
430,51	1284,08
430,71	1282,03
430,92	1232,88
431,13	1265,64
431,33	1245,16
431,54	1290,22
431,74	1329,13
431,95	1236,97
432,15	1290,22
432,36	1245,16
432,56	1214,45
432,77	1255,40
432,98	1343,47
433,18	1243,12
433,39	1183,73
433,59	1310,70
433,80	1263,60
434,00	1302,51
434,21	1286,12
434,41	1275,88
434,62	1290,22
434,82	1269,74
435,03	1271,79
435,23	1275,88
435,44	1294,32
435,64	1320,94
435,85	1290,22
436,06	1259,50
436,26	1345,52
436,47	1218,54
436,67	1218,54
436,88	1220,59
437,08	1329,13
437,29	1263,60
437,49	1329,13
437,70	1302,51
437,90	1230,83
438,11	1284,08
438,31	1234,93
438,52	1290,22
438,72	1294,32
438,93	1275,88
439,13	1247,21
439,34	1267,69
439,54	1273,84
439,75	1249,26
439,95	1312,75
440,16	1257,45
440,36	1267,69
440,57	1322,99
440,77	1376,24
440,98	1347,56
441,18	1234,93
441,39	1251,31
441,59	1273,84
441,80	1292,27
442,00	1306,60
442,21	1341,42
442,41	1200,11
442,62	1306,60
442,82	1296,36
443,02	1257,45
443,23	1241,07
443,43	1273,84
443,64	1232,88
443,84	1253,36
444,05	1265,64
444,25	1363,95
444,46	1314,80
444,66	1271,79
444,87	1247,21
445,07	1232,88
445,28	1302,51
445,48	1206,25
445,69	1282,03
445,89	1218,54
446,09	1279,98
446,30	1290,22
446,50	1282,03
446,71	1269,74
446,91	1214,45
447,12	1261,55
447,32	1273,84
447,53	1263,60
447,73	1282,03
447,93	1232,88
448,14	1273,84
448,34	1288,17
448,55	1306,60
448,75	1218,54
448,96	1273,84
449,16	1245,16
449,36	1247,21
449,57	1220,59
449,77	1220,59
449,98	1294,32
450,18	1222,64
450,39	1273,84
450,59	1296,36
450,79	1253,36
451,00	1206,25
451,20	1296,36
451,41	1298,41
451,61	1232,88
451,81	1292,27
452,02	1265,64
452,22	1251,31
452,43	1261,55
452,63	1312,75
452,84	1224,69
453,04	1306,60
453,24	1214,45
453,45	1306,60
453,65	1255,40
453,86	1320,94
454,06	1273,84
454,26	1296,36
454,47	1267,69
454,67	1277,93
454,87	1300,46
455,08	1232,88
455,28	1236,97
455,49	1269,74
455,69	1245,16
455,89	1245,16
456,10	1255,40
456,30	1243,12
456,51	1257,45
456,71	1279,98
456,91	1282,03
457,12	1169,39
457,32	1259,50
457,52	1329,13
457,73	1198,06
457,93	1308,65
458,14	1214,45
458,34	1277,93
458,54	1249,26
458,75	1296,36
458,95	1243,12
459,15	1220,59
459,36	1286,12
459,56	1286,12
459,76	1239,02
459,97	1245,16
460,17	1208,30
460,37	1277,93
460,58	1310,70
460,78	1214,45
460,99	1245,16
461,19	1273,84
461,39	1218,54
461,60	1279,98
461,80	1298,41
462,00	1300,46
462,21	1224,69
462,41	1269,74
462,61	1210,35
462,82	1185,77
463,02	1271,79
463,22	1302,51
463,43	1279,98
463,63	1179,63
463,83	1345,52
464,04	1232,88
464,24	1284,08
464,44	1296,36
464,64	1294,32
464,85	1288,17
465,05	1275,88
465,25	1290,22
465,46	1263,60
465,66	1331,18
465,86	1304,56
466,07	1267,69
466,27	1294,32
466,47	1275,88
466,68	1269,74
466,88	1228,78
467,08	1357,80
467,29	1214,45
467,49	1200,11
467,69	1255,40
467,89	1257,45
468,10	1263,60
468,30	1355,76
468,50	1341,42
468,71	1257,45
468,91	1241,07
469,11	1259,50
469,31	1191,92
469,52	1300,46
469,72	1290,22
469,92	1234,93
470,13	1282,03
470,33	1243,12
470,53	1290,22
470,73	1261,55
470,94	1232,88
471,14	1263,60
471,34	1314,80
471,54	1224,69
471,75	1292,27
471,95	1239,02
472,15	1239,02
472,36	1292,27
472,56	1306,60
472,76	1292,27
472,96	1247,21
473,17	1206,25
473,37	1347,56
473,57	1269,74
473,77	1263,60
473,98	1320,94
474,18	1187,82
474,38	1236,97
474,58	1331,18
474,79	1306,60
474,99	1296,36
475,19	1269,74
475,39	1275,88
475,60	1345,52
475,80	1251,31
476,00	1267,69
476,20	1167,34
476,41	1273,84
476,61	1345,52
476,81	1269,74
477,01	1337,32
477,21	1282,03
477,42	1232,88
477,62	1265,64
477,82	1247,21
478,02	1308,65
478,23	1218,54
478,43	1224,69
478,63	1259,50
478,83	1247,21
479,03	1224,69
479,24	1318,89
479,44	1241,07
479,64	1292,27
479,84	1269,74
480,04	1224,69
480,25	1292,27
480,45	1312,75
480,65	1253,36
480,85	1318,89
481,06	1263,60
481,26	1220,59
481,46	1259,50
481,66	1290,22
481,86	1277,93
482,06	1257,45
482,27	1265,64
482,47	1241,07
482,67	1263,60
482,87	1257,45
483,07	1304,56
483,28	1249,26
483,48	1226,73
483,68	1189,87
483,88	1241,07
484,08	1339,37
484,29	1271,79
484,49	1290,22
484,69	1288,17
484,89	1208,30
485,09	1347,56
485,29	1249,26
485,50	1279,98
485,70	1325,04
485,90	1245,16
486,10	1275,88
486,30	1279,98
486,50	1273,84
486,71	1269,74
486,91	1327,08
487,11	1337,32
487,31	1239,02
487,51	1345,52
487,71	1284,08
487,91	1284,08
488,12	1206,25
488,32	1196,01
488,52	1290,22
488,72	1322,99
488,92	1298,41
489,12	1284,08
489,32	1220,59
489,53	1282,03
489,73	1286,12
489,93	1277,93
490,13	1282,03
490,33	1210,35
490,53	1236,97
490,73	1249,26
490,94	1271,79
491,14	1253,36
491,34	1316,84
491,54	1263,60
491,74	1224,69
491,94	1292,27
492,14	1222,64
492,34	1247,21
492,54	1314,80
492,75	1345,52
492,95	1251,31
493,15	1318,89
493,35	1308,65
493,55	1249,26
493,75	1288,17
493,95	1239,02
494,15	1290,22
494,35	1284,08
494,56	1247,21
494,76	1331,18
494,96	1239,02
495,16	1327,08
495,36	1298,41
495,56	1325,04
495,76	1224,69
495,96	1255,40
496,16	1232,88
496,36	1286,12
496,56	1269,74
496,77	1282,03
496,97	1316,84
497,17	1267,69
497,37	1288,17
497,57	1214,45
497,77	1269,74
497,97	1251,31
498,17	1228,78
498,37	1220,59
498,57	1245,16
498,77	1271,79
498,97	1175,53
499,17	1359,85
499,38	1279,98
499,58	1310,70
499,78	1220,59
499,98	1251,31
500,18	1261,55
500,38	1204,21
500,58	1271,79
500,78	1279,98
500,98	1263,60
501,18	1271,79
501,38	1251,31
501,58	1296,36
501,78	1286,12
501,98	1249,26
502,18	1230,83
502,38	1294,32
502,58	1271,79
502,78	1191,92
502,98	1284,08
503,18	1292,27
503,38	1247,21
503,59	1325,04
503,79	1279,98
503,99	1331,18
504,19	1251,31
504,39	1259,50
504,59	1220,59
504,79	1312,75
504,99	1263,60
505,19	1335,28
505,39	1243,12
505,59	1236,97
505,79	1265,64
505,99	1290,22
506,19	1320,94
506,39	1302,51
506,59	1257,45
506,79	1249,26
506,99	1277,93
507,19	1251,31
507,39	1366,00
507,59	1247,21
507,79	1279,98
507,99	1271,79
508,19	1241,07
508,39	1310,70
508,59	1218,54
508,79	1275,88
508,99	1316,84
509,19	1308,65
509,39	1249,26
509,59	1259,50
509,79	1300,46
509,99	1261,55
510,19	1177,58
510,39	1279,98
510,59	1224,69
510,79	1290,22
510,99	1269,74
511,19	1255,40
511,39	1228,78
511,59	1255,40
511,79	1292,27
511,99	1306,60
512,19	1267,69
512,38	1279,98
512,58	1245,16
512,78	1263,60
512,98	1243,12
513,18	1308,65
513,38	1279,98
513,58	1255,40
513,78	1222,64
513,98	1273,84
514,18	1214,45
514,38	1243,12
514,58	1288,17
514,78	1265,64
514,98	1259,50
515,18	1361,90
515,38	1327,08
515,58	1288,17
515,78	1343,47
515,98	1271,79
516,18	1265,64
516,38	1318,89
516,57	1286,12
516,77	1347,56
516,97	1220,59
517,17	1236,97
517,37	1253,36
517,57	1314,80
517,77	1228,78
517,97	1196,01
518,17	1325,04
518,37	1228,78
518,57	1232,88
518,77	1232,88
518,97	1208,30
519,16	1290,22
519,36	1290,22
519,56	1298,41
519,76	1271,79
519,96	1290,22
520,16	1224,69
520,36	1271,79
520,56	1288,17
520,76	1294,32
520,96	1251,31
521,16	1335,28
521,35	1224,69
521,55	1298,41
521,75	1275,88
521,95	1267,69
522,15	1286,12
522,35	1275,88
522,55	1314,80
522,75	1288,17
522,95	1236,97
523,14	1296,36
523,34	1273,84
523,54	1310,70
523,74	1302,51
523,94	1241,07
524,14	1232,88
524,34	1255,40
524,54	1249,26
524,73	1198,06
524,93	1214,45
525,13	1239,02
525,33	1243,12
525,53	1249,26
525,73	1259,50
525,93	1243,12
526,13	1267,69
526,32	1245,16
526,52	1247,21
526,72	1257,45
526,92	1259,50
527,12	1202,16
527,32	1294,32
527,52	1253,36
527,71	1263,60
527,91	1282,03
528,11	1226,73
528,31	1198,06
528,51	1329,13
528,71	1249,26
528,90	1271,79
529,10	1257,45
529,30	1314,80
529,50	1286,12
529,70	1265,64
529,90	1304,56
530,09	1316,84
530,29	1271,79
530,49	1241,07
530,69	1234,93
530,89	1296,36
531,09	1257,45
531,28	1249,26
531,48	1337,32
531,68	1222,64
531,88	1314,80
532,08	1290,22
532,28	1216,49
532,47	1279,98
532,67	1282,03
532,87	1329,13
533,07	1282,03
533,27	1202,16
533,46	1357,80
533,66	1228,78
533,86	1259,50
534,06	1230,83
534,26	1314,80
534,45	1202,16
534,65	1251,31
534,85	1277,93
535,05	1245,16
535,25	1200,11
535,44	1320,94
535,64	1300,46
535,84	1265,64
536,04	1245,16
536,24	1296,36
536,43	1300,46
536,63	1279,98
536,83	1316,84
537,03	1187,82
537,22	1290,22
537,42	1275,88
537,62	1306,60
537,82	1284,08
538,02	1226,73
538,21	1226,73
538,41	1320,94
538,61	1198,06
538,81	1308,65
539,00	1216,49
539,20	1208,30
539,40	1257,45
539,60	1249,26
539,79	1241,07
539,99	1296,36
540,19	1183,73
540,39	1243,12
540,58	1306,60
540,78	1243,12
540,98	1329,13
541,18	1228,78
541,37	1290,22
541,57	1222,64
541,77	1304,56
541,97	1212,40
542,16	1298,41
542,36	1259,50
542,56	1236,97
542,76	1273,84
542,95	1282,03
543,15	1273,84
543,35	1312,75
543,54	1290,22
543,74	1265,64
543,94	1263,60
544,14	1214,45
544,33	1261,55
544,53	1265,64
544,73	1269,74
544,93	1257,45
545,12	1312,75
545,32	1296,36
545,52	1214,45
545,71	1351,66
545,91	1300,46
546,11	1232,88
546,30	1288,17
546,50	1220,59
546,70	1277,93
546,90	1257,45
547,09	1273,84
547,29	1288,17
547,49	1236,97
547,68	1249,26
547,88	1284,08
548,08	1279,98
548,27	1290,22
548,47	1249,26
548,67	1261,55
548,87	1298,41
549,06	1343,47
549,26	1290,22
549,46	1230,83
549,65	1232,88
549,85	1214,45
550,05	1306,60
550,24	1255,40
550,44	1249,26
550,64	1267,69
550,83	1279,98
551,03	1247,21
551,23	1345,52
551,42	1196,01
551,62	1292,27
551,82	1222,64
552,01	1243,12
552,21	1253,36
552,41	1271,79
552,60	1239,02
552,80	1302,51
553,00	1224,69
553,19	1212,40
553,39	1392,62
553,59	1312,75
553,78	1415,15
553,98	1294,32
554,17	1257,45
554,37	1308,65
554,57	1310,70
554,76	1261,55
554,96	1277,93
555,16	1327,08
555,35	1286,12
555,55	1275,88
555,75	1265,64
555,94	1271,79
556,14	1181,68
556,33	1333,23
556,53	1245,16
556,73	1304,56
556,92	1331,18
557,12	1286,12
557,32	1230,83
557,51	1208,30
557,71	1331,18
557,90	1255,40
558,10	1273,84
558,30	1236,97
558,49	1236,97
558,69	1331,18
558,88	1286,12
559,08	1255,40
559,28	1236,97
559,47	1257,45
559,67	1259,50
559,86	1312,75
560,06	1257,45
560,26	1210,35
560,45	1251,31
560,65	1249,26
560,84	1296,36
561,04	1275,88
561,24	1259,50
561,43	1279,98
561,63	1263,60
561,82	1265,64
562,02	1267,69
562,22	1267,69
562,41	1304,56
562,61	1257,45
562,80	1251,31
563,00	1243,12
563,19	1245,16
563,39	1243,12
563,59	1290,22
563,78	1241,07
563,98	1296,36
564,17	1259,50
564,37	1302,51
564,56	1316,84
564,76	1349,61
564,96	1329,13
565,15	1259,50
565,35	1241,07
565,54	1269,74
565,74	1257,45
565,93	1292,27
566,13	1325,04
566,32	1230,83
566,52	1294,32
566,71	1232,88
566,91	1226,73
567,11	1202,16
567,30	1296,36
567,50	1294,32
567,69	1333,23
567,89	1349,61
568,08	1312,75
568,28	1255,40
568,47	1257,45
568,67	1290,22
568,86	1265,64
569,06	1185,77
569,25	1322,99
569,45	1239,02
569,64	1304,56
569,84	1210,35
570,04	1210,35
570,23	1331,18
570,43	1298,41
570,62	1230,83
570,82	1325,04
571,01	1327,08
571,21	1259,50
571,40	1259,50
571,60	1292,27
571,79	1224,69
571,99	1273,84
572,18	1327,08
572,38	1249,26
572,57	1245,16
572,77	1320,94
572,96	1247,21
573,16	1214,45
573,35	1257,45
573,55	1257,45
573,74	1222,64
573,94	1337,32
574,13	1216,49
574,33	1292,27
574,52	1273,84
574,71	1253,36
574,91	1210,35
575,10	1257,45
575,30	1302,51
575,49	1241,07
575,69	1257,45
575,88	1320,94
576,08	1290,22
576,27	1290,22
576,47	1265,64
576,66	1275,88
576,86	1236,97
577,05	1300,46
577,25	1259,50
577,44	1271,79
577,64	1191,92
577,83	1239,02
578,02	1316,84
578,22	1214,45
578,41	1232,88
578,61	1267,69
578,80	1189,87
579,00	1290,22
579,19	1269,74
579,39	1288,17
579,58	1271,79
579,77	1263,60
579,97	1245,16
580,16	1210,35
580,36	1200,11
580,55	1224,69
580,75	1298,41
580,94	1230,83
581,13	1245,16
581,33	1249,26
581,52	1239,02
581,72	1335,28
581,91	1316,84
582,11	1228,78
582,30	1251,31
582,49	1275,88
582,69	1236,97
582,88	1257,45
583,08	1302,51
583,27	1191,92
583,47	1253,36
583,66	1312,75
583,85	1310,70
584,05	1279,98
584,24	1296,36
584,44	1271,79
584,63	1255,40
584,82	1247,21
585,02	1300,46
585,21	1302,51
585,41	1294,32
585,60	1331,18
585,79	1271,79
585,99	1288,17
586,18	1234,93
586,37	1282,03
586,57	1312,75
586,76	1259,50
586,96	1263,60
587,15	1284,08
587,34	1257,45
587,54	1275,88
587,73	1273,84
587,93	1310,70
588,12	1261,55
588,31	1245,16
588,51	1212,40
588,70	1255,40
588,89	1230,83
589,09	1277,93
589,28	1253,36
589,47	1249,26
589,67	1290,22
589,86	1226,73
590,06	1239,02
590,25	1193,97
590,44	1230,83
590,64	1290,22
590,83	1245,16
591,02	1236,97
591,22	1257,45
591,41	1259,50
591,60	1349,61
591,80	1179,63
591,99	1322,99
592,18	1259,50
592,38	1298,41
592,57	1271,79
592,76	1277,93
592,96	1286,12
593,15	1288,17
593,34	1245,16
593,54	1279,98
593,73	1261,55
593,92	1314,80
594,12	1212,40
594,31	1325,04
594,50	1282,03
594,70	1312,75
594,89	1327,08
595,08	1245,16
595,28	1249,26
595,47	1273,84
595,66	1224,69
595,86	1245,16
596,05	1263,60
596,24	1243,12
596,43	1263,60
596,63	1255,40
596,82	1228,78
597,01	1249,26
597,21	1263,60
597,40	1249,26
597,59	1273,84
597,79	1294,32
597,98	1267,69
598,17	1247,21
598,36	1267,69
598,56	1279,98
598,75	1263,60
598,94	1249,26
599,14	1222,64
599,33	1236,97
599,52	1257,45
599,71	1320,94
599,91	1286,12
600,10	1245,16
600,29	1306,60
600,48	1298,41
600,68	1218,54
600,87	1251,31
601,06	1243,12
601,26	1288,17
601,45	1249,26
601,64	1241,07
601,83	1300,46
602,03	1249,26
602,22	1253,36
602,41	1214,45
602,60	1288,17
602,80	1267,69
602,99	1300,46
603,18	1308,65
603,37	1277,93
603,57	1206,25
603,76	1263,60
603,95	1292,27
604,14	1273,84
604,34	1284,08
604,53	1228,78
604,72	1273,84
604,91	1267,69
605,10	1255,40
605,30	1228,78
605,49	1275,88
605,68	1269,74
605,87	1277,93
606,07	1249,26
606,26	1214,45
606,45	1286,12
606,64	1218,54
606,84	1312,75
607,03	1286,12
607,22	1251,31
607,41	1236,97
607,60	1214,45
607,80	1277,93
607,99	1247,21
608,18	1216,49
608,37	1267,69
608,56	1224,69
608,76	1181,68
608,95	1261,55
609,14	1269,74
609,33	1208,30
609,52	1253,36
609,72	1271,79
609,91	1226,73
610,10	1222,64
610,29	1245,16
610,48	1279,98
610,68	1298,41
610,87	1247,21
611,06	1241,07
611,25	1308,65
611,44	1277,93
611,63	1267,69
611,83	1304,56
612,02	1273,84
612,21	1310,70
612,40	1271,79
612,59	1236,97
612,79	1271,79
612,98	1251,31
613,17	1265,64
613,36	1226,73
613,55	1290,22
613,74	1298,41
613,93	1271,79
614,13	1349,61
614,32	1302,51
614,51	1290,22
614,70	1333,23
614,89	1273,84
615,08	1247,21
615,28	1327,08
615,47	1275,88
615,66	1306,60
615,85	1279,98
616,04	1325,04
616,23	1206,25
616,42	1318,89
616,62	1279,98
616,81	1232,88
617,00	1275,88
617,19	1257,45
617,38	1318,89
617,57	1308,65
617,76	1300,46
617,95	1251,31
618,15	1302,51
618,34	1247,21
618,53	1163,25
618,72	1220,59
618,91	1273,84
619,10	1335,28
619,29	1349,61
619,48	1267,69
619,68	1329,13
619,87	1218,54
620,06	1243,12
620,25	1366,00
620,44	1279,98
620,63	1234,93
620,82	1226,73
621,01	1198,06
621,20	1310,70
621,39	1329,13
621,59	1208,30
621,78	1300,46
621,97	1304,56
622,16	1288,17
622,35	1179,63
622,54	1329,13
622,73	1269,74
622,92	1249,26
623,11	1187,82
623,30	1302,51
623,49	1349,61
623,68	1284,08
623,88	1230,83
624,07	1267,69
624,26	1243,12
624,45	1282,03
624,64	1269,74
624,83	1282,03
625,02	1251,31
625,21	1343,47
625,40	1249,26
625,59	1271,79
625,78	1261,55
625,97	1329,13
626,16	1331,18
626,35	1320,94
626,54	1220,59
626,74	1259,50
626,93	1288,17
627,12	1247,21
627,31	1288,17
627,50	1314,80
627,69	1333,23
627,88	1296,36
628,07	1310,70
628,26	1314,80
628,45	1257,45
628,64	1312,75
628,83	1298,41
629,02	1306,60
629,21	1331,18
629,40	1236,97
629,59	1267,69
629,78	1273,84
629,97	1241,07
630,16	1359,85
630,35	1318,89
630,54	1257,45
630,73	1339,37
630,92	1282,03
631,11	1282,03
631,30	1282,03
631,49	1273,84
631,68	1384,43
631,87	1589,22
632,06	1820,64
632,25	1517,54
632,44	1665,00
632,63	1980,39
632,82	2426,84
633,01	5656,49
633,20	5236,66
633,39	4124,61
633,58	2117,60
633,77	2856,92
633,96	5824,42
634,15	7126,93
634,34	5808,04
634,53	4042,69
634,72	2713,56
634,91	2086,88
635,10	1751,01
635,29	1572,84
635,48	1626,09
635,67	1552,36
635,86	1482,73
636,05	1378,28
636,24	1406,95
636,43	1337,32
636,62	1404,91
636,81	1357,80
637,00	1402,86
637,19	1290,22
637,38	1294,32
637,57	1271,79
637,76	1333,23
637,95	1355,76
638,14	1380,33
638,33	1322,99
638,52	1329,13
638,71	1282,03
638,89	1230,83
639,08	1271,79
639,27	1361,90
639,46	1269,74
639,65	1312,75
639,84	1304,56
640,03	1325,04
640,22	1206,25
640,41	1327,08
640,60	1325,04
640,79	1255,40
640,98	1251,31
641,17	1271,79
641,36	1275,88
641,55	1284,08
641,74	1312,75
641,92	1279,98
642,11	1263,60
642,30	1304,56
642,49	1241,07
642,68	1148,91
642,87	1331,18
643,06	1249,26
643,25	1304,56
643,44	1292,27
643,63	1245,16
643,82	1306,60
644,00	1312,75
644,19	1191,92
644,38	1310,70
644,57	1298,41
644,76	1292,27
644,95	1269,74
645,14	1245,16
645,33	1279,98
645,52	1294,32
645,71	1290,22
645,89	1267,69
646,08	1306,60
646,27	1300,46
646,46	1339,37
646,65	1236,97
646,84	1255,40
647,03	1245,16
647,22	1234,93
647,40	1263,60
647,59	1318,89
647,78	1232,88
647,97	1261,55
648,16	1318,89
648,35	1255,40
648,54	1306,60
648,73	1253,36
648,91	1216,49
649,10	1312,75
649,29	1181,68
649,48	1282,03
649,67	1249,26
649,86	1267,69
650,05	1316,84
650,23	1288,17
650,42	1277,93
650,61	1300,46
650,80	1232,88
650,99	1286,12
651,18	1263,60
651,36	1284,08
651,55	1302,51
651,74	1310,70
651,93	1310,70
652,12	1263,60
652,31	1312,75
652,49	1277,93
652,68	1357,80
652,87	1314,80
653,06	1249,26
653,25	1306,60
653,44	1269,74
653,62	1300,46
653,81	1251,31
654,00	1267,69
654,19	1236,97
654,38	1249,26
654,56	1249,26
654,75	1282,03
654,94	1216,49
655,13	1310,70
655,32	1224,69
655,51	1286,12
655,69	1245,16
655,88	1265,64
656,07	1275,88
656,26	1318,89
656,45	1259,50
656,63	1245,16
656,82	1265,64
657,01	1288,17
657,20	1261,55
657,38	1294,32
657,57	1228,78
657,76	1331,18
657,95	1316,84
658,14	1306,60
658,32	1294,32
658,51	1345,52
658,70	1279,98
658,89	1357,80
659,08	1316,84
659,26	1267,69
659,45	1271,79
659,64	1232,88
659,83	1304,56
660,01	1290,22
660,20	1282,03
660,39	1247,21
660,58	1271,79
660,76	1255,40
660,95	1241,07
661,14	1302,51
661,33	1316,84
661,51	1226,73
661,70	1183,73
661,89	1312,75
662,08	1314,80
662,26	1320,94
662,45	1214,45
662,64	1298,41
662,83	1232,88
663,01	1249,26
663,20	1310,70
663,39	1320,94
663,58	1255,40
663,76	1247,21
663,95	1294,32
664,14	1282,03
664,32	1282,03
664,51	1277,93
664,70	1247,21
664,89	1271,79
665,07	1290,22
665,26	1228,78
665,45	1322,99
665,64	1239,02
665,82	1288,17
666,01	1263,60
666,20	1261,55
666,38	1322,99
666,57	1200,11
666,76	1196,01
666,95	1261,55
667,13	1308,65
667,32	1306,60
667,51	1322,99
667,69	1320,94
667,88	1277,93
668,07	1275,88
668,25	1300,46
668,44	1241,07
668,63	1314,80
668,81	1193,97
669,00	1257,45
669,19	1294,32
669,38	1273,84
669,56	1284,08
669,75	1353,71
669,94	1251,31
670,12	1247,21
670,31	1220,59
670,50	1228,78
670,68	1191,92
670,87	1282,03
671,06	1226,73
671,24	1308,65
671,43	1322,99
671,62	1279,98
671,80	1216,49
671,99	1314,80
672,18	1310,70
672,36	1222,64
672,55	1294,32
672,74	1333,23
672,92	1243,12
673,11	1284,08
673,29	1298,41
673,48	1327,08
673,67	1279,98
673,85	1286,12
674,04	1300,46
674,23	1320,94
674,41	1251,31
674,60	1288,17
674,79	1288,17
674,97	1263,60
675,16	1316,84
675,34	1279,98
675,53	1327,08
675,72	1232,88
675,90	1310,70
676,09	1243,12
676,28	1216,49
676,46	1271,79
676,65	1255,40
676,83	1304,56
677,02	1230,83
677,21	1249,26
677,39	1253,36
677,58	1277,93
677,77	1208,30
677,95	1216,49
678,14	1284,08
678,32	1296,36
678,51	1226,73
678,70	1288,17
678,88	1282,03
679,07	1298,41
679,25	1265,64
679,44	1226,73
679,63	1185,77
679,81	1304,56
680,00	1253,36
680,18	1239,02
680,37	1257,45
680,55	1232,88
680,74	1331,18
680,93	1200,11
681,11	1296,36
681,30	1320,94
681,48	1273,84
681,67	1304,56
681,85	1277,93
682,04	1294,32
682,23	1220,59
682,41	1255,40
682,60	1304,56
682,78	1255,40
682,97	1273,84
683,15	1282,03
683,34	1310,70
683,53	1241,07
683,71	1277,93
683,90	1304,56
684,08	1300,46
684,27	1245,16
684,45	1282,03
684,64	1239,02
684,82	1200,11
685,01	1331,18
685,19	1290,22
685,38	1277,93
685,57	1245,16
685,75	1273,84
685,94	1234,93
686,12	1245,16
686,31	1187,82
686,49	1290,22
686,68	1325,04
686,86	1273,84
687,05	1239,02
687,23	1355,76
687,42	1294,32
687,60	1241,07
687,79	1288,17
687,97	1277,93
688,16	1318,89
688,34	1271,79
688,53	1282,03
688,71	1327,08
688,90	1265,64
689,08	1341,42
689,27	1249,26
689,45	1208,30
689,64	1206,25
689,82	1286,12
690,01	1335,28
690,19	1196,01
690,38	1279,98
690,56	1318,89
690,75	1337,32
690,93	1222,64
691,12	1210,35
691,30	1294,32
691,49	1216,49
691,67	1241,07
691,86	1245,16
692,04	1261,55
692,23	1275,88
692,41	1292,27
692,60	1361,90
692,78	1273,84
692,97	1249,26
693,15	1239,02
693,34	1255,40
693,52	1206,25
693,71	1294,32
693,89	1216,49
694,08	1290,22
694,26	1265,64
694,44	1331,18
694,63	1288,17
694,81	1300,46
695,00	1292,27
695,18	1306,60
695,37	1316,84
695,55	1253,36
695,74	1267,69
695,92	1249,26
696,10	1273,84
696,29	1236,97
696,47	1306,60
696,66	1232,88
696,84	1333,23
697,03	1191,92
697,21	1294,32
697,40	1271,79
697,58	1273,84
697,76	1214,45
697,95	1265,64
698,13	1271,79
698,32	1271,79
698,50	1275,88
698,68	1298,41
698,87	1290,22
699,05	1288,17
699,24	1220,59
699,42	1355,76
699,61	1167,34
699,79	1261,55
699,97	1224,69
700,16	1279,98
700,34	1247,21
700,53	1265,64
700,71	1271,79
700,89	1224,69
701,08	1255,40
701,26	1331,18
701,45	1335,28
701,63	1241,07
701,81	1286,12
702,00	1284,08
702,18	1259,50
702,37	1241,07
702,55	1220,59
702,73	1347,56
702,92	1218,54
703,10	1265,64
703,28	1230,83
703,47	1257,45
703,65	1329,13
703,84	1226,73
704,02	1263,60
704,20	1298,41
704,39	1325,04
704,57	1273,84
704,75	1296,36
704,94	1304,56
705,12	1245,16
705,30	1325,04
705,49	1198,06
705,67	1282,03
705,86	1269,74
706,04	1279,98
706,22	1234,93
706,41	1249,26
706,59	1288,17
706,77	1288,17
706,96	1251,31
707,14	1251,31
707,32	1257,45
707,51	1290,22
707,69	1228,78
707,87	1212,40
708,06	1243,12
708,24	1253,36
708,42	1341,42
708,61	1329,13
708,79	1269,74
708,97	1316,84
709,16	1257,45
709,34	1245,16
709,52	1302,51
709,71	1204,21
709,89	1249,26
710,07	1243,12
710,26	1224,69
710,44	1286,12
710,62	1222,64
710,80	1314,80
710,99	1265,64
711,17	1273,84
711,35	1255,40
711,54	1331,18
711,72	1300,46
711,90	1259,50
712,09	1366,00
712,27	1243,12
712,45	1249,26
712,63	1257,45
712,82	1308,65
713,00	1259,50
713,18	1314,80
713,37	1284,08
713,55	1253,36
713,73	1265,64
713,91	1302,51
714,10	1312,75
714,28	1306,60
714,46	1302,51
714,65	1218,54
714,83	1292,27
715,01	1236,97
715,19	1263,60
715,38	1341,42
715,56	1259,50
715,74	1253,36
715,92	1259,50
716,11	1294,32
716,29	1271,79
716,47	1353,71
716,65	1222,64
716,84	1269,74
717,02	1339,37
717,20	1265,64
717,38	1253,36
717,57	1245,16
717,75	1255,40
717,93	1320,94
718,11	1271,79
718,30	1236,97
718,48	1298,41
718,66	1261,55
718,84	1288,17
719,03	1259,50
719,21	1259,50
719,39	1357,80
719,57	1230,83
719,75	1318,89
719,94	1222,64
720,12	1249,26
720,30	1241,07
720,48	1224,69
720,67	1310,70
720,85	1261,55
721,03	1325,04
721,21	1341,42
721,39	1275,88
721,58	1243,12
721,76	1269,74
721,94	1255,40
722,12	1292,27
722,30	1302,51
722,49	1296,36
722,67	1247,21
722,85	1224,69
723,03	1208,30
723,21	1282,03
723,40	1253,36
723,58	1216,49
723,76	1236,97
723,94	1206,25
724,12	1265,64
724,30	1265,64
724,49	1286,12
724,67	1269,74
724,85	1304,56
725,03	1253,36
725,21	1251,31
725,40	1292,27
725,58	1206,25
725,76	1345,52
725,94	1259,50
726,12	1296,36
726,30	1126,38
726,49	1261,55
726,67	1292,27
726,85	1304,56
727,03	1282,03
727,21	1282,03
727,39	1267,69
727,57	1259,50
727,76	1353,71
727,94	1267,69
728,12	1222,64
728,30	1247,21
728,48	1255,40
728,66	1320,94
728,84	1277,93
729,03	1259,50
729,21	1327,08
729,39	1306,60
729,57	1273,84
729,75	1304,56
729,93	1243,12
730,11	1243,12
730,30	1140,72
730,48	1269,74
730,66	1236,97
730,84	1257,45
731,02	1277,93
731,20	1206,25
731,38	1306,60
731,56	1325,04
731,74	1271,79
731,93	1380,33
732,11	1345,52
732,29	1306,60
732,47	1222,64
732,65	1279,98
732,83	1245,16
733,01	1267,69
733,19	1265,64
733,37	1292,27
733,56	1277,93
733,74	1269,74
733,92	1300,46
734,10	1286,12
734,28	1312,75
734,46	1351,66
734,64	1269,74
734,82	1304,56
735,00	1279,98
735,18	1253,36
735,36	1193,97
735,54	1322,99
735,73	1247,21
735,91	1267,69
736,09	1271,79
736,27	1200,11
736,45	1306,60
736,63	1232,88
736,81	1236,97
736,99	1290,22
737,17	1314,80
737,35	1200,11
737,53	1353,71
737,71	1333,23
737,89	1279,98
738,07	1249,26
738,25	1257,45
738,43	1275,88
738,61	1273,84
738,80	1263,60
738,98	1318,89
739,16	1263,60
739,34	1359,85
739,52	1216,49
739,70	1269,74
739,88	1325,04
740,06	1300,46
740,24	1196,01
740,42	1239,02
740,60	1261,55
740,78	1255,40
740,96	1269,74
741,14	1275,88
741,32	1220,59
741,50	1232,88
741,68	1251,31
741,86	1292,27
742,04	1228,78
742,22	1236,97
742,40	1232,88
742,58	1290,22
742,76	1261,55
742,94	1265,64
743,12	1284,08
743,30	1247,21
743,48	1277,93
743,66	1265,64
743,84	1294,32
744,02	1269,74
744,20	1290,22
744,38	1193,97
744,56	1359,85
744,74	1302,51
744,92	1255,40
745,10	1239,02
745,28	1302,51
745,46	1267,69
745,64	1261,55
745,82	1228,78
746,00	1279,98
746,18	1255,40
746,36	1167,34
746,54	1320,94
746,72	1327,08
746,90	1279,98
747,08	1259,50
747,26	1320,94
747,44	1187,82
747,62	1259,50
747,80	1222,64
747,98	1269,74
748,15	1265,64
748,33	1284,08
748,51	1239,02
748,69	1308,65
748,87	1318,89
749,05	1327,08
749,23	1249,26
749,41	1257,45
749,59	1310,70
749,77	1220,59
749,95	1273,84
750,13	1243,12
750,31	1247,21
750,49	1290,22
750,67	1230,83
750,85	1273,84
751,03	1261,55
751,20	1263,60
751,38	1234,93
751,56	1239,02
751,74	1271,79
751,92	1255,40
752,10	1292,27
752,28	1243,12
752,46	1292,27
752,64	1259,50
752,82	1333,23
753,00	1310,70
753,18	1198,06
753,35	1308,65
753,53	1224,69
753,71	1300,46
753,89	1261,55
754,07	1255,40
754,25	1259,50
754,43	1292,27
754,61	1275,88
754,79	1349,61
754,97	1257,45
755,14	1245,16
755,32	1245,16
755,50	1333,23
755,68	1271,79
755,86	1267,69
756,04	1261,55
756,22	1204,21
756,40	1316,84
756,57	1243,12
756,75	1304,56
756,93	1214,45
757,11	1218,54
757,29	1249,26
757,47	1251,31
757,65	1294,32
757,82	1273,84
758,00	1312,75
758,18	1298,41
758,36	1230,83
758,54	1220,59
758,72	1288,17
758,90	1200,11
759,07	1318,89
759,25	1286,12
759,43	1239,02
759,61	1288,17
759,79	1335,28
759,97	1228,78
760,15	1298,41
760,32	1247,21
760,50	1224,69
760,68	1304,56
760,86	1275,88
761,04	1259,50
761,22	1210,35
761,39	1236,97
761,57	1239,02
761,75	1226,73
761,93	1210,35
762,11	1277,93
762,28	1257,45
762,46	1236,97
762,64	1322,99
762,82	1282,03
763,00	1179,63
763,18	1279,98
763,35	1271,79
763,53	1236,97
763,71	1224,69
763,89	1239,02
764,07	1355,76
764,24	1263,60
764,42	1265,64
764,60	1304,56
764,78	1341,42
764,96	1359,85
765,13	1275,88
765,31	1318,89
765,49	1226,73
765,67	1214,45
765,84	1273,84
766,02	1275,88
766,20	1214,45
766,38	1304,56
766,56	1234,93
766,73	1345,52
766,91	1241,07
767,09	1243,12
767,27	1298,41
767,44	1259,50
767,62	1247,21
767,80	1255,40
767,98	1296,36
768,15	1232,88
768,33	1249,26
768,51	1241,07
768,69	1286,12
768,87	1263,60
769,04	1294,32
769,22	1253,36
769,40	1296,36
769,58	1243,12
769,75	1255,40
769,93	1261,55
770,11	1224,69
770,28	1208,30
770,46	1296,36
770,64	1249,26
770,82	1259,50
770,99	1140,72
771,17	1189,87
771,35	1329,13
771,53	1249,26
771,70	1277,93
771,88	1363,95
772,06	1302,51
772,23	1239,02
772,41	1320,94
772,59	1286,12
772,77	1193,97
772,94	1269,74
773,12	1275,88
773,30	1306,60
773,47	1302,51
773,65	1216,49
773,83	1196,01
774,01	1300,46
774,18	1294,32
774,36	1296,36
774,54	1202,16
774,71	1218,54
774,89	1234,93
775,07	1222,64
775,24	1333,23
775,42	1263,60
775,60	1312,75
775,78	1249,26
775,95	1226,73
776,13	1275,88
776,31	1257,45
776,48	1294,32
776,66	1214,45
776,84	1296,36
777,01	1273,84
777,19	1273,84
777,37	1273,84
777,54	1251,31
777,72	1331,18
777,90	1349,61
778,07	1222,64
778,25	1286,12
778,43	1294,32
778,60	1271,79
778,78	1302,51
778,96	1261,55
779,13	1234,93
779,31	1241,07
779,49	1306,60
779,66	1279,98
779,84	1226,73
780,01	1339,37
780,19	1331,18
780,37	1257,45
780,54	1265,64
780,72	1241,07
780,90	1302,51
781,07	1286,12
781,25	1339,37
781,43	1296,36
781,60	1296,36
781,78	1216,49
781,95	1288,17
782,13	1214,45
782,31	1251,31
782,48	1335,28
782,66	1290,22
782,83	1277,93
783,01	1322,99
783,19	1234,93
783,36	1298,41
783,54	1296,36
783,72	1267,69
783,89	1290,22
784,07	1255,40
784,24	1329,13
784,42	1282,03
784,60	1210,35
784,77	1222,64
784,95	1286,12
785,12	1271,79
785,30	1206,25
785,47	1218,54
785,65	1273,84
785,83	1329,13
786,00	1255,40
786,18	1263,60
786,35	1337,32
786,53	1220,59
786,71	1259,50
786,88	1279,98
787,06	1271,79
787,23	1234,93
787,41	1267,69
787,58	1302,51
787,76	1228,78
787,94	1277,93
788,11	1277,93
788,29	1230,83
788,46	1259,50
788,64	1210,35
788,81	1261,55
788,99	1312,75
789,16	1269,74
789,34	1306,60
789,52	1261,55
789,69	1298,41
789,87	1273,84
790,04	1277,93
790,22	1363,95
790,39	1273,84
790,57	1204,21
790,74	1290,22
790,92	1216,49
791,09	1318,89
791,27	1239,02
791,44	1290,22
791,62	1327,08
791,79	1286,12
791,97	1298,41
792,15	1339,37
792,32	1228,78
792,50	1200,11
792,67	1343,47
792,85	1275,88
793,02	1300,46
793,20	1249,26
793,37	1236,97
793,55	1267,69
793,72	1284,08
793,90	1275,88
794,07	1290,22
794,25	1292,27
794,42	1329,13
794,60	1327,08
794,77	1275,88
794,95	1284,08
795,12	1322,99
795,30	1200,11
795,47	1228,78
795,65	1308,65
795,82	1232,88
796,00	1325,04
796,17	1234,93
796,34	1273,84
796,52	1265,64
796,69	1333,23
796,87	1282,03
797,04	1296,36
797,22	1310,70
797,39	1261,55
797,57	1218,54
797,74	1277,93
797,92	1269,74
798,09	1259,50
798,27	1253,36
798,44	1243,12
798,62	1208,30
798,79	1331,18
798,96	1310,70
799,14	1290,22
799,31	1155,05
799,49	1314,80
799,66	1357,80
799,84	1249,26
800,01	1306,60
800,19	1259,50
800,36	1284,08
800,53	1267,69
800,71	1271,79
800,88	1255,40
801,06	1269,74
801,23	1249,26
801,41	1259,50
801,58	1302,51
801,75	1234,93
801,93	1247,21
802,10	1214,45
802,28	1255,40
802,45	1282,03
802,63	1310,70
802,80	1187,82
802,97	1282,03
803,15	1259,50
803,32	1316,84
803,50	1259,50
803,67	1236,97
803,84	1247,21
804,02	1253,36
804,19	1263,60
804,37	1265,64
804,54	1261,55
804,71	1294,32
804,89	1255,40
805,06	1245,16
805,24	1224,69
805,41	1267,69
805,58	1314,80
805,76	1267,69
805,93	1236,97
806,10	1255,40
806,28	1279,98
806,45	1241,07
806,63	1298,41
806,80	1286,12
806,97	1312,75
807,15	1316,84
807,32	1271,79
807,49	1290,22
807,67	1269,74
807,84	1325,04
808,01	1245,16
808,19	1263,60
808,36	1253,36
808,54	1298,41
808,71	1298,41
808,88	1193,97
809,06	1239,02
809,23	1282,03
809,40	1206,25
809,58	1255,40
809,75	1282,03
809,92	1257,45
810,10	1355,76
810,27	1306,60
810,44	1249,26
810,62	1284,08
810,79	1253,36
810,96	1247,21
811,14	1261,55
811,31	1263,60
811,48	1320,94
811,66	1300,46
811,83	1259,50
812,00	1230,83
812,18	1310,70
812,35	1236,97
812,52	1267,69
812,69	1218,54
812,87	1273,84
813,04	1191,92
813,21	1380,33
813,39	1271,79
813,56	1255,40
813,73	1239,02
813,91	1234,93
814,08	1306,60
814,25	1220,59
814,42	1259,50
814,60	1306,60
814,77	1363,95
814,94	1255,40
815,12	1277,93
815,29	1302,51
815,46	1228,78
815,63	1259,50
815,81	1273,84
815,98	1247,21
816,15	1259,50
816,33	1241,07
816,50	1279,98
816,67	1253,36
816,84	1239,02
817,02	1263,60
817,19	1257,45
817,36	1282,03
817,53	1269,74
817,71	1200,11
817,88	1224,69
818,05	1320,94
818,22	1286,12
818,40	1200,11
818,57	1275,88
818,74	1282,03
818,91	1241,07
819,09	1269,74
819,26	1384,43
819,43	1308,65
819,60	1239,02
819,78	1343,47
819,95	1263,60
820,12	1257,45
820,29	1302,51
820,47	1318,89
820,64	1245,16
820,81	1216,49
820,98	1277,93
821,15	1271,79
821,33	1173,49
821,50	1288,17
821,67	1257,45
821,84	1345,52
822,02	1286,12
822,19	1265,64
822,36	1282,03
822,53	1261,55
822,70	1314,80
822,88	1300,46
823,05	1259,50
823,22	1196,01
823,39	1265,64
823,56	1312,75
823,74	1259,50
823,91	1159,15
824,08	1271,79
824,25	1214,45
824,42	1290,22
824,60	1236,97
824,77	1308,65
824,94	1318,89
825,11	1243,12
825,28	1339,37
825,45	1249,26
825,63	1204,21
825,80	1228,78
825,97	1273,84
826,14	1277,93
826,31	1265,64
826,48	1277,93
826,66	1300,46
826,83	1259,50
827,00	1325,04
827,17	1249,26
827,34	1275,88
827,51	1329,13
827,69	1181,68
827,86	1193,97
828,03	1261,55
828,20	1224,69
828,37	1232,88
828,54	1243,12
828,71	1368,04
828,89	1249,26
829,06	1198,06
829,23	1249,26
829,40	1277,93
829,57	1273,84
829,74	1236,97
829,91	1300,46
830,09	1304,56
830,26	1241,07
830,43	1269,74
830,60	1320,94
830,77	1226,73
830,94	1308,65
831,11	1353,71
831,28	1269,74
831,46	1220,59
831,63	1290,22
831,80	1259,50
831,97	1282,03
832,14	1290,22
832,31	1316,84
832,48	1265,64
832,65	1361,90
832,82	1265,64
832,99	1277,93
833,17	1261,55
833,34	1216,49
833,51	1247,21
833,68	1245,16
833,85	1275,88
834,02	1279,98
834,19	1257,45
834,36	1265,64
834,53	1269,74
834,70	1300,46
834,87	1294,32
835,04	1259,50
835,22	1228,78
835,39	1257,45
835,56	1224,69
835,73	1267,69
835,90	1236,97
836,07	1261,55
836,24	1228,78
836,41	1294,32
836,58	1247,21
836,75	1296,36
836,92	1245,16
837,09	1277,93
837,26	1212,40
837,43	1351,66
837,60	1314,80
837,77	1271,79
837,94	1284,08
838,12	1312,75
838,29	1243,12
838,46	1314,80
838,63	1200,11
838,80	1329,13
838,97	1275,88
839,14	1298,41
839,31	1179,63
839,48	1216,49
839,65	1200,11
839,82	1308,65
839,99	1216,49
840,16	1316,84
840,33	1304,56
840,50	1271,79
840,67	1224,69
840,84	1257,45
841,01	1265,64
841,18	1306,60
841,35	1349,61
841,52	1263,60
841,69	1265,64
841,86	1255,40
842,03	1279,98
842,20	1271,79
842,37	1253,36
842,54	1298,41
842,71	1230,83
842,88	1304,56
843,05	1230,83
843,22	1267,69
843,39	1304,56
843,56	1216,49
843,73	1355,76
843,90	1282,03
844,07	1341,42
844,24	1216,49
844,41	1325,04
844,58	1269,74
844,75	1269,74
844,92	1296,36
845,09	1196,01
845,26	1255,40
845,43	1292,27
845,60	1267,69
845,77	1314,80
845,94	1257,45
846,10	1261,55
846,27	1357,80
846,44	1257,45
846,61	1306,60
846,78	1290,22
846,95	1259,50
847,12	1234,93
847,29	1329,13
847,46	1218,54
847,63	1282,03
847,80	1271,79
847,97	1216,49
848,14	1327,08
848,31	1198,06
848,48	1277,93
848,65	1304,56
848,82	1310,70
848,98	1339,37
849,15	1275,88
849,32	1277,93
849,49	1226,73
849,66	1277,93
849,83	1300,46
850,00	1251,31
850,17	1271,79
850,34	1294,32
850,51	1273,84
850,68	1290,22
850,85	1353,71
851,01	1216,49
851,18	1257,45
851,35	1298,41
851,52	1314,80
851,69	1331,18
851,86	1286,12
852,03	1263,60
852,20	1312,75
852,37	1288,17
852,53	1275,88
852,70	1263,60
852,87	1247,21
853,04	1347,56
853,21	1232,88
853,38	1257,45
853,55	1249,26
853,72	1249,26
853,89	1271,79
854,05	1257,45
854,22	1271,79
854,39	1202,16
854,56	1249,26
854,73	1220,59
854,90	1296,36
855,07	1314,80
855,23	1341,42
855,40	1220,59
855,57	1267,69
855,74	1282,03
855,91	1394,67
856,08	1302,51
856,25	1241,07
856,41	1236,97
856,58	1273,84
856,75	1294,32
856,92	1331,18
857,09	1279,98
857,26	1239,02
857,42	1255,40
857,59	1261,55
857,76	1214,45
857,93	1218,54
858,10	1288,17
858,27	1249,26
858,43	1253,36
858,60	1257,45
858,77	1282,03
858,94	1245,16
859,11	1288,17
859,27	1300,46
859,44	1306,60
859,61	1208,30
859,78	1251,31
859,95	1261,55
860,12	1273,84
860,28	1253,36
860,45	1331,18
860,62	1284,08
860,79	1222,64
860,95	1234,93
861,12	1333,23
861,29	1230,83
861,46	1298,41
861,63	1314,80
861,79	1230,83
861,96	1284,08
862,13	1314,80
862,30	1292,27
862,47	1355,76
862,63	1341,42
862,80	1241,07
862,97	1232,88
863,14	1320,94
863,30	1249,26
863,47	1335,28
863,64	1234,93
863,81	1335,28
863,97	1267,69
864,14	1259,50
864,31	1277,93
864,48	1277,93
864,65	1331,18
864,81	1255,40
864,98	1220,59
865,15	1329,13
865,32	1208,30
865,48	1224,69
865,65	1277,93
865,82	1224,69
865,98	1290,22
866,15	1241,07
866,32	1243,12
866,49	1304,56
866,65	1234,93
866,82	1310,70
866,99	1273,84
867,16	1300,46
867,32	1245,16
867,49	1243,12
867,66	1183,73
867,83	1226,73
867,99	1206,25
868,16	1273,84
868,33	1243,12
868,49	1333,23
868,66	1304,56
868,83	1236,97
868,99	1320,94
869,16	1337,32
869,33	1302,51
869,50	1267,69
869,66	1241,07
869,83	1261,55
870,00	1198,06
870,16	1245,16
870,33	1239,02
870,50	1267,69
870,66	1292,27
870,83	1206,25
871,00	1312,75
871,17	1288,17
871,33	1222,64
871,50	1312,75
871,67	1224,69
871,83	1318,89
872,00	1318,89
872,17	1298,41
872,33	1355,76
872,50	1318,89
872,67	1222,64
872,83	1263,60
873,00	1241,07
873,17	1269,74
873,33	1243,12
873,50	1234,93
873,67	1212,40
873,83	1265,64
874,00	1222,64
874,16	1298,41
874,33	1314,80
874,50	1275,88
874,66	1300,46
874,83	1333,23
875,00	1271,79
875,16	1290,22
875,33	1277,93
875,50	1296,36
875,66	1275,88
875,83	1314,80
875,99	1341,42
876,16	1288,17
876,33	1306,60
876,49	1275,88
876,66	1320,94
876,83	1228,78
876,99	1236,97
877,16	1318,89
877,32	1316,84
877,49	1210,35
877,66	1259,50
877,82	1259,50
877,99	1226,73
878,15	1368,04
878,32	1271,79
878,49	1312,75
878,65	1300,46
878,82	1286,12
878,98	1269,74
879,15	1247,21
879,32	1290,22
879,48	1282,03
879,65	1282,03
879,81	1249,26
879,98	1308,65
880,15	1286,12
880,31	1269,74
880,48	1337,32
880,64	1329,13
880,81	1355,76
880,97	1288,17
881,14	1243,12
881,31	1230,83
881,47	1261,55
881,64	1255,40
881,80	1343,47
881,97	1230,83
882,13	1310,70
882,30	1265,64
882,47	1224,69
882,63	1239,02
882,80	1279,98
882,96	1245,16
883,13	1370,09
883,29	1267,69
883,46	1302,51
883,62	1273,84
883,79	1247,21
883,95	1294,32
884,12	1284,08
884,29	1263,60
884,45	1327,08
884,62	1290,22
884,78	1269,74
884,95	1339,37
885,11	1251,31
885,28	1275,88
885,44	1275,88
885,61	1214,45
885,77	1253,36
885,94	1329,13
886,10	1234,93
886,27	1294,32
886,43	1230,83
886,60	1253,36
886,76	1306,60
886,93	1175,53
887,09	1302,51
887,26	1275,88
887,42	1300,46
887,59	1286,12
887,75	1265,64
887,92	1222,64
888,08	1265,64
888,25	1294,32
888,41	1347,56
888,58	1308,65
888,74	1191,92
888,91	1263,60
>>>>>End Processed Spectral Data<<<<<
