SpectraSuite Data File
++++++++++++++++++++++++++++++++++++
Date: Sun Apr 03 14:31:34 CEST 2016
User: root
Dark Spectrum Present: No
Reference Spectrum Present: No
Number of Sampled Component Spectra: 1
Spectrometers: USB4C02835
Integration Time (usec): 10000 (USB4C02835)
Spectra Averaged: 1 (USB4C02835)
Boxcar Smoothing: 0 (USB4C02835)
Correct for Electrical Dark: No (USB4C02835)
Strobe/Lamp Enabled: No (USB4C02835)
Correct for Detector Non-linearity: No (USB4C02835)
Correct for Stray Light: No (USB4C02835)
Number of Pixels in Processed Spectrum: 3648
>>>>>Begin Processed Spectral Data<<<<<
177,47	1241,07
177,69	1241,07
177,91	1241,07
178,13	1247,21
178,36	1148,91
178,58	1224,69
178,80	1294,32
179,02	1241,07
179,24	1284,08
179,46	1230,83
179,68	1232,88
179,90	1331,18
180,13	1251,31
180,35	1298,41
180,57	1267,69
180,79	1253,36
181,01	1300,46
181,23	1255,40
181,45	1269,74
181,67	1298,41
181,90	1259,50
182,12	1218,54
182,34	1327,08
182,56	1282,03
182,78	1239,02
183,00	1325,04
183,22	1298,41
183,44	1228,78
183,66	1259,50
183,89	1275,88
184,11	1234,93
184,33	1302,51
184,55	1204,21
184,77	1234,93
184,99	1333,23
185,21	1187,82
185,43	1372,14
185,65	1316,84
185,87	1261,55
186,10	1314,80
186,32	1341,42
186,54	1320,94
186,76	1241,07
186,98	1302,51
187,20	1282,03
187,42	1191,92
187,64	1265,64
187,86	1286,12
188,08	1275,88
188,30	1236,97
188,52	1255,40
188,75	1286,12
188,97	1204,21
189,19	1243,12
189,41	1259,50
189,63	1265,64
189,85	1261,55
190,07	1294,32
190,29	1273,84
190,51	1288,17
190,73	1318,89
190,95	1284,08
191,17	1288,17
191,39	1261,55
191,61	1282,03
191,84	1261,55
192,06	1257,45
192,28	1271,79
192,50	1263,60
192,72	1302,51
192,94	1284,08
193,16	1153,01
193,38	1282,03
193,60	1232,88
193,82	1247,21
194,04	1368,04
194,26	1253,36
194,48	1288,17
194,70	1288,17
194,92	1193,97
195,14	1318,89
195,36	1282,03
195,58	1224,69
195,80	1224,69
196,02	1314,80
196,24	1261,55
196,46	1243,12
196,69	1214,45
196,91	1261,55
197,13	1222,64
197,35	1265,64
197,57	1292,27
197,79	1284,08
198,01	1296,36
198,23	1331,18
198,45	1257,45
198,67	1290,22
198,89	1222,64
199,11	1290,22
199,33	1284,08
199,55	1204,21
199,77	1173,49
199,99	1306,60
200,21	1282,03
200,43	1255,40
200,65	1220,59
200,87	1298,41
201,09	1341,42
201,31	1314,80
201,53	1277,93
201,75	1259,50
201,97	1239,02
202,19	1234,93
202,41	1255,40
202,63	1263,60
202,85	1222,64
203,07	1282,03
203,29	1255,40
203,51	1269,74
203,73	1230,83
203,95	1357,80
204,17	1312,75
204,39	1284,08
204,61	1234,93
204,83	1265,64
205,05	1247,21
205,27	1312,75
205,49	1212,40
205,71	1279,98
205,93	1212,40
206,15	1206,25
206,37	1296,36
206,59	1228,78
206,81	1284,08
207,03	1314,80
207,25	1200,11
207,47	1236,97
207,69	1226,73
207,91	1241,07
208,13	1226,73
208,34	1251,31
208,56	1292,27
208,78	1306,60
209,00	1316,84
209,22	1249,26
209,44	1300,46
209,66	1277,93
209,88	1259,50
210,10	1226,73
210,32	1288,17
210,54	1306,60
210,76	1269,74
210,98	1257,45
211,20	1292,27
211,42	1282,03
211,64	1206,25
211,86	1228,78
212,08	1275,88
212,30	1269,74
212,52	1343,47
212,74	1232,88
212,96	1306,60
213,17	1273,84
213,39	1271,79
213,61	1267,69
213,83	1284,08
214,05	1228,78
214,27	1218,54
214,49	1302,51
214,71	1320,94
214,93	1232,88
215,15	1277,93
215,37	1300,46
215,59	1277,93
215,81	1224,69
216,03	1310,70
216,24	1290,22
216,46	1282,03
216,68	1263,60
216,90	1214,45
217,12	1345,52
217,34	1255,40
217,56	1288,17
217,78	1306,60
218,00	1253,36
218,22	1224,69
218,44	1263,60
218,66	1310,70
218,87	1312,75
219,09	1288,17
219,31	1253,36
219,53	1265,64
219,75	1236,97
219,97	1230,83
220,19	1271,79
220,41	1298,41
220,63	1335,28
220,85	1198,06
221,06	1288,17
221,28	1175,53
221,50	1265,64
221,72	1173,49
221,94	1300,46
222,16	1239,02
222,38	1234,93
222,60	1312,75
222,82	1271,79
223,03	1236,97
223,25	1282,03
223,47	1349,61
223,69	1239,02
223,91	1189,87
224,13	1310,70
224,35	1247,21
224,57	1294,32
224,78	1277,93
225,00	1261,55
225,22	1243,12
225,44	1216,49
225,66	1275,88
225,88	1337,32
226,10	1312,75
226,32	1257,45
226,53	1255,40
226,75	1208,30
226,97	1249,26
227,19	1232,88
227,41	1314,80
227,63	1277,93
227,85	1212,40
228,06	1298,41
228,28	1198,06
228,50	1208,30
228,72	1284,08
228,94	1273,84
229,16	1333,23
229,37	1322,99
229,59	1247,21
229,81	1216,49
230,03	1312,75
230,25	1232,88
230,47	1335,28
230,69	1290,22
230,90	1318,89
231,12	1316,84
231,34	1273,84
231,56	1265,64
231,78	1243,12
232,00	1241,07
232,21	1279,98
232,43	1226,73
232,65	1314,80
232,87	1271,79
233,09	1265,64
233,30	1300,46
233,52	1298,41
233,74	1304,56
233,96	1310,70
234,18	1300,46
234,40	1257,45
234,61	1288,17
234,83	1243,12
235,05	1249,26
235,27	1269,74
235,49	1306,60
235,70	1271,79
235,92	1290,22
236,14	1247,21
236,36	1308,65
236,58	1236,97
236,79	1269,74
237,01	1257,45
237,23	1275,88
237,45	1363,95
237,67	1204,21
237,88	1325,04
238,10	1265,64
238,32	1265,64
238,54	1304,56
238,76	1288,17
238,97	1224,69
239,19	1273,84
239,41	1269,74
239,63	1304,56
239,85	1239,02
240,06	1253,36
240,28	1288,17
240,50	1224,69
240,72	1191,92
240,93	1286,12
241,15	1304,56
241,37	1314,80
241,59	1236,97
241,81	1273,84
242,02	1279,98
242,24	1265,64
242,46	1257,45
242,68	1144,81
242,89	1286,12
243,11	1335,28
243,33	1259,50
243,55	1216,49
243,76	1257,45
243,98	1255,40
244,20	1282,03
244,42	1251,31
244,64	1286,12
244,85	1234,93
245,07	1265,64
245,29	1255,40
245,51	1247,21
245,72	1228,78
245,94	1261,55
246,16	1249,26
246,38	1269,74
246,59	1261,55
246,81	1228,78
247,03	1327,08
247,24	1267,69
247,46	1259,50
247,68	1251,31
247,90	1243,12
248,11	1271,79
248,33	1230,83
248,55	1290,22
248,77	1294,32
248,98	1288,17
249,20	1232,88
249,42	1271,79
249,64	1267,69
249,85	1286,12
250,07	1306,60
250,29	1277,93
250,50	1294,32
250,72	1290,22
250,94	1253,36
251,16	1241,07
251,37	1261,55
251,59	1294,32
251,81	1294,32
252,02	1236,97
252,24	1335,28
252,46	1288,17
252,68	1322,99
252,89	1294,32
253,11	1314,80
253,33	1406,95
253,54	1261,55
253,76	1255,40
253,98	1290,22
254,20	1230,83
254,41	1241,07
254,63	1279,98
254,85	1288,17
255,06	1310,70
255,28	1292,27
255,50	1314,80
255,71	1298,41
255,93	1335,28
256,15	1284,08
256,36	1329,13
256,58	1236,97
256,80	1300,46
257,02	1236,97
257,23	1265,64
257,45	1226,73
257,67	1337,32
257,88	1232,88
258,10	1331,18
258,32	1255,40
258,53	1292,27
258,75	1230,83
258,97	1282,03
259,18	1366,00
259,40	1322,99
259,62	1273,84
259,83	1247,21
260,05	1263,60
260,27	1216,49
260,48	1234,93
260,70	1259,50
260,92	1265,64
261,13	1282,03
261,35	1304,56
261,57	1300,46
261,78	1245,16
262,00	1300,46
262,22	1335,28
262,43	1284,08
262,65	1273,84
262,86	1316,84
263,08	1279,98
263,30	1230,83
263,51	1302,51
263,73	1275,88
263,95	1263,60
264,16	1298,41
264,38	1312,75
264,60	1300,46
264,81	1322,99
265,03	1249,26
265,25	1245,16
265,46	1239,02
265,68	1257,45
265,89	1349,61
266,11	1320,94
266,33	1224,69
266,54	1312,75
266,76	1331,18
266,98	1275,88
267,19	1267,69
267,41	1236,97
267,62	1202,16
267,84	1306,60
268,06	1267,69
268,27	1269,74
268,49	1282,03
268,70	1236,97
268,92	1271,79
269,14	1304,56
269,35	1314,80
269,57	1228,78
269,79	1257,45
270,00	1267,69
270,22	1359,85
270,43	1255,40
270,65	1322,99
270,87	1259,50
271,08	1370,09
271,30	1239,02
271,51	1259,50
271,73	1232,88
271,95	1232,88
272,16	1279,98
272,38	1269,74
272,59	1230,83
272,81	1267,69
273,02	1255,40
273,24	1208,30
273,46	1296,36
273,67	1241,07
273,89	1232,88
274,10	1269,74
274,32	1239,02
274,54	1257,45
274,75	1300,46
274,97	1216,49
275,18	1325,04
275,40	1273,84
275,61	1314,80
275,83	1282,03
276,05	1243,12
276,26	1320,94
276,48	1310,70
276,69	1273,84
276,91	1245,16
277,12	1208,30
277,34	1327,08
277,55	1312,75
277,77	1239,02
277,99	1273,84
278,20	1255,40
278,42	1318,89
278,63	1239,02
278,85	1259,50
279,06	1277,93
279,28	1304,56
279,49	1314,80
279,71	1357,80
279,93	1263,60
280,14	1282,03
280,36	1312,75
280,57	1273,84
280,79	1249,26
281,00	1171,44
281,22	1284,08
281,43	1273,84
281,65	1298,41
281,86	1259,50
282,08	1259,50
282,29	1292,27
282,51	1241,07
282,73	1298,41
282,94	1224,69
283,16	1265,64
283,37	1265,64
283,59	1257,45
283,80	1255,40
284,02	1273,84
284,23	1257,45
284,45	1320,94
284,66	1239,02
284,88	1290,22
285,09	1339,37
285,31	1343,47
285,52	1259,50
285,74	1222,64
285,95	1308,65
286,17	1255,40
286,38	1273,84
286,60	1331,18
286,81	1269,74
287,03	1279,98
287,24	1253,36
287,46	1370,09
287,67	1296,36
287,89	1298,41
288,10	1335,28
288,32	1196,01
288,53	1196,01
288,75	1261,55
288,96	1216,49
289,18	1255,40
289,39	1230,83
289,61	1318,89
289,82	1298,41
290,04	1193,97
290,25	1273,84
290,47	1277,93
290,68	1245,16
290,90	1279,98
291,11	1224,69
291,33	1249,26
291,54	1218,54
291,76	1253,36
291,97	1318,89
292,18	1302,51
292,40	1318,89
292,61	1298,41
292,83	1286,12
293,04	1304,56
293,26	1290,22
293,47	1234,93
293,69	1341,42
293,90	1284,08
294,12	1241,07
294,33	1265,64
294,55	1290,22
294,76	1300,46
294,97	1257,45
295,19	1306,60
295,40	1208,30
295,62	1220,59
295,83	1290,22
296,05	1296,36
296,26	1284,08
296,48	1304,56
296,69	1292,27
296,90	1279,98
297,12	1284,08
297,33	1255,40
297,55	1241,07
297,76	1271,79
297,98	1206,25
298,19	1306,60
298,41	1327,08
298,62	1279,98
298,83	1282,03
299,05	1298,41
299,26	1322,99
299,48	1261,55
299,69	1322,99
299,90	1236,97
300,12	1239,02
300,33	1255,40
300,55	1284,08
300,76	1298,41
300,98	1273,84
301,19	1306,60
301,40	1241,07
301,62	1271,79
301,83	1228,78
302,05	1275,88
302,26	1259,50
302,47	1265,64
302,69	1286,12
302,90	1288,17
303,12	1308,65
303,33	1245,16
303,54	1232,88
303,76	1269,74
303,97	1288,17
304,19	1179,63
304,40	1267,69
304,61	1245,16
304,83	1302,51
305,04	1251,31
305,26	1384,43
305,47	1273,84
305,68	1290,22
305,90	1243,12
306,11	1279,98
306,33	1298,41
306,54	1271,79
306,75	1153,01
306,97	1271,79
307,18	1275,88
307,39	1249,26
307,61	1265,64
307,82	1196,01
308,04	1282,03
308,25	1286,12
308,46	1275,88
308,68	1273,84
308,89	1329,13
309,10	1341,42
309,32	1343,47
309,53	1245,16
309,74	1306,60
309,96	1239,02
310,17	1263,60
310,39	1308,65
310,60	1241,07
310,81	1241,07
311,03	1255,40
311,24	1286,12
311,45	1286,12
311,67	1290,22
311,88	1253,36
312,09	1273,84
312,31	1292,27
312,52	1343,47
312,73	1249,26
312,95	1220,59
313,16	1245,16
313,37	1257,45
313,59	1265,64
313,80	1267,69
314,01	1273,84
314,23	1294,32
314,44	1216,49
314,65	1320,94
314,87	1288,17
315,08	1363,95
315,29	1267,69
315,51	1290,22
315,72	1341,42
315,93	1310,70
316,15	1249,26
316,36	1304,56
316,57	1230,83
316,79	1222,64
317,00	1241,07
317,21	1290,22
317,43	1292,27
317,64	1261,55
317,85	1271,79
318,07	1282,03
318,28	1271,79
318,49	1273,84
318,70	1275,88
318,92	1261,55
319,13	1314,80
319,34	1282,03
319,56	1255,40
319,77	1341,42
319,98	1286,12
320,20	1269,74
320,41	1290,22
320,62	1241,07
320,83	1265,64
321,05	1312,75
321,26	1318,89
321,47	1263,60
321,69	1263,60
321,90	1251,31
322,11	1284,08
322,32	1208,30
322,54	1273,84
322,75	1282,03
322,96	1224,69
323,18	1241,07
323,39	1271,79
323,60	1230,83
323,81	1269,74
324,03	1298,41
324,24	1263,60
324,45	1294,32
324,66	1271,79
324,88	1341,42
325,09	1265,64
325,30	1306,60
325,52	1249,26
325,73	1265,64
325,94	1288,17
326,15	1304,56
326,37	1253,36
326,58	1331,18
326,79	1290,22
327,00	1247,21
327,22	1294,32
327,43	1212,40
327,64	1288,17
327,85	1273,84
328,07	1243,12
328,28	1216,49
328,49	1282,03
328,70	1288,17
328,92	1288,17
329,13	1284,08
329,34	1292,27
329,55	1263,60
329,76	1224,69
329,98	1241,07
330,19	1314,80
330,40	1273,84
330,61	1208,30
330,83	1312,75
331,04	1228,78
331,25	1232,88
331,46	1200,11
331,68	1275,88
331,89	1331,18
332,10	1286,12
332,31	1220,59
332,52	1247,21
332,74	1282,03
332,95	1249,26
333,16	1292,27
333,37	1320,94
333,58	1251,31
333,80	1292,27
334,01	1257,45
334,22	1177,58
334,43	1290,22
334,64	1226,73
334,86	1322,99
335,07	1261,55
335,28	1306,60
335,49	1306,60
335,70	1331,18
335,92	1288,17
336,13	1269,74
336,34	1267,69
336,55	1247,21
336,76	1306,60
336,98	1302,51
337,19	1220,59
337,40	1257,45
337,61	1282,03
337,82	1208,30
338,04	1202,16
338,25	1286,12
338,46	1200,11
338,67	1306,60
338,88	1273,84
339,09	1304,56
339,31	1284,08
339,52	1312,75
339,73	1314,80
339,94	1208,30
340,15	1279,98
340,36	1208,30
340,58	1284,08
340,79	1282,03
341,00	1300,46
341,21	1275,88
341,42	1234,93
341,63	1245,16
341,85	1310,70
342,06	1341,42
342,27	1218,54
342,48	1265,64
342,69	1253,36
342,90	1273,84
343,12	1279,98
343,33	1228,78
343,54	1241,07
343,75	1263,60
343,96	1247,21
344,17	1275,88
344,38	1267,69
344,60	1220,59
344,81	1255,40
345,02	1312,75
345,23	1310,70
345,44	1339,37
345,65	1273,84
345,86	1273,84
346,07	1275,88
346,29	1269,74
346,50	1325,04
346,71	1273,84
346,92	1273,84
347,13	1249,26
347,34	1251,31
347,55	1257,45
347,76	1253,36
347,98	1316,84
348,19	1263,60
348,40	1310,70
348,61	1277,93
348,82	1322,99
349,03	1243,12
349,24	1275,88
349,45	1277,93
349,66	1292,27
349,88	1234,93
350,09	1308,65
350,30	1298,41
350,51	1269,74
350,72	1290,22
350,93	1292,27
351,14	1251,31
351,35	1318,89
351,56	1245,16
351,77	1232,88
351,99	1269,74
352,20	1298,41
352,41	1351,66
352,62	1263,60
352,83	1279,98
353,04	1322,99
353,25	1308,65
353,46	1271,79
353,67	1202,16
353,88	1249,26
354,09	1239,02
354,30	1343,47
354,52	1282,03
354,73	1277,93
354,94	1269,74
355,15	1325,04
355,36	1257,45
355,57	1249,26
355,78	1251,31
355,99	1247,21
356,20	1306,60
356,41	1306,60
356,62	1208,30
356,83	1335,28
357,04	1290,22
357,25	1312,75
357,46	1308,65
357,68	1265,64
357,89	1206,25
358,10	1241,07
358,31	1263,60
358,52	1204,21
358,73	1265,64
358,94	1226,73
359,15	1275,88
359,36	1374,19
359,57	1271,79
359,78	1214,45
359,99	1261,55
360,20	1216,49
360,41	1245,16
360,62	1306,60
360,83	1249,26
361,04	1331,18
361,25	1220,59
361,46	1269,74
361,67	1322,99
361,88	1277,93
362,09	1318,89
362,30	1275,88
362,51	1224,69
362,72	1279,98
362,93	1263,60
363,14	1277,93
363,35	1232,88
363,56	1269,74
363,78	1236,97
363,99	1306,60
364,20	1245,16
364,41	1267,69
364,62	1325,04
364,83	1327,08
365,04	1236,97
365,25	1312,75
365,46	1243,12
365,67	1296,36
365,88	1232,88
366,09	1310,70
366,30	1239,02
366,51	1251,31
366,72	1284,08
366,93	1239,02
367,14	1261,55
367,35	1345,52
367,56	1251,31
367,77	1296,36
367,98	1296,36
368,18	1220,59
368,39	1273,84
368,60	1277,93
368,81	1271,79
369,02	1312,75
369,23	1216,49
369,44	1331,18
369,65	1288,17
369,86	1273,84
370,07	1257,45
370,28	1216,49
370,49	1249,26
370,70	1243,12
370,91	1265,64
371,12	1232,88
371,33	1298,41
371,54	1337,32
371,75	1271,79
371,96	1288,17
372,17	1261,55
372,38	1222,64
372,59	1220,59
372,80	1288,17
373,01	1259,50
373,22	1255,40
373,43	1239,02
373,64	1255,40
373,85	1226,73
374,06	1230,83
374,26	1284,08
374,47	1294,32
374,68	1214,45
374,89	1304,56
375,10	1292,27
375,31	1230,83
375,52	1339,37
375,73	1247,21
375,94	1271,79
376,15	1308,65
376,36	1259,50
376,57	1298,41
376,78	1239,02
376,99	1247,21
377,20	1263,60
377,40	1267,69
377,61	1241,07
377,82	1339,37
378,03	1314,80
378,24	1251,31
378,45	1257,45
378,66	1255,40
378,87	1277,93
379,08	1271,79
379,29	1243,12
379,50	1216,49
379,71	1216,49
379,91	1273,84
380,12	1282,03
380,33	1259,50
380,54	1249,26
380,75	1255,40
380,96	1312,75
381,17	1345,52
381,38	1310,70
381,59	1282,03
381,80	1263,60
382,00	1249,26
382,21	1245,16
382,42	1282,03
382,63	1345,52
382,84	1257,45
383,05	1261,55
383,26	1259,50
383,47	1150,96
383,68	1300,46
383,88	1343,47
384,09	1312,75
384,30	1284,08
384,51	1306,60
384,72	1327,08
384,93	1210,35
385,14	1224,69
385,35	1210,35
385,55	1228,78
385,76	1337,32
385,97	1200,11
386,18	1320,94
386,39	1322,99
386,60	1298,41
386,81	1232,88
387,02	1306,60
387,22	1263,60
387,43	1288,17
387,64	1292,27
387,85	1327,08
388,06	1196,01
388,27	1296,36
388,48	1222,64
388,68	1265,64
388,89	1275,88
389,10	1279,98
389,31	1265,64
389,52	1251,31
389,73	1228,78
389,93	1214,45
390,14	1302,51
390,35	1253,36
390,56	1263,60
390,77	1282,03
390,98	1298,41
391,18	1249,26
391,39	1306,60
391,60	1259,50
391,81	1245,16
392,02	1378,28
392,23	1288,17
392,43	1292,27
392,64	1232,88
392,85	1279,98
393,06	1228,78
393,27	1294,32
393,47	1335,28
393,68	1275,88
393,89	1243,12
394,10	1265,64
394,31	1214,45
394,52	1329,13
394,72	1261,55
394,93	1275,88
395,14	1400,81
395,35	1265,64
395,56	1286,12
395,76	1282,03
395,97	1312,75
396,18	1253,36
396,39	1234,93
396,60	1265,64
396,80	1304,56
397,01	1355,76
397,22	1230,83
397,43	1249,26
397,64	1290,22
397,84	1175,53
398,05	1304,56
398,26	1284,08
398,47	1269,74
398,67	1312,75
398,88	1277,93
399,09	1257,45
399,30	1253,36
399,51	1175,53
399,71	1277,93
399,92	1298,41
400,13	1263,60
400,34	1298,41
400,54	1253,36
400,75	1306,60
400,96	1220,59
401,17	1255,40
401,37	1290,22
401,58	1259,50
401,79	1277,93
402,00	1255,40
402,21	1212,40
402,41	1236,97
402,62	1216,49
402,83	1228,78
403,04	1304,56
403,24	1236,97
403,45	1261,55
403,66	1296,36
403,87	1259,50
404,07	1337,32
404,28	1245,16
404,49	1247,21
404,70	1220,59
404,90	1329,13
405,11	1234,93
405,32	1308,65
405,52	1261,55
405,73	1265,64
405,94	1234,93
406,15	1370,09
406,35	1228,78
406,56	1273,84
406,77	1292,27
406,98	1265,64
407,18	1298,41
407,39	1212,40
407,60	1226,73
407,80	1269,74
408,01	1255,40
408,22	1247,21
408,43	1224,69
408,63	1286,12
408,84	1322,99
409,05	1337,32
409,25	1255,40
409,46	1312,75
409,67	1265,64
409,88	1253,36
410,08	1230,83
410,29	1290,22
410,50	1255,40
410,70	1345,52
410,91	1263,60
411,12	1239,02
411,32	1294,32
411,53	1263,60
411,74	1288,17
411,95	1294,32
412,15	1288,17
412,36	1265,64
412,57	1273,84
412,77	1253,36
412,98	1345,52
413,19	1320,94
413,39	1306,60
413,60	1282,03
413,81	1282,03
414,01	1292,27
414,22	1331,18
414,43	1286,12
414,63	1214,45
414,84	1226,73
415,05	1290,22
415,25	1173,49
415,46	1247,21
415,67	1296,36
415,87	1234,93
416,08	1271,79
416,29	1318,89
416,49	1314,80
416,70	1286,12
416,91	1275,88
417,11	1179,63
417,32	1251,31
417,53	1279,98
417,73	1206,25
417,94	1300,46
418,15	1335,28
418,35	1247,21
418,56	1300,46
418,77	1322,99
418,97	1239,02
419,18	1259,50
419,38	1300,46
419,59	1224,69
419,80	1341,42
420,00	1196,01
420,21	1234,93
420,42	1241,07
420,62	1325,04
420,83	1267,69
421,04	1265,64
421,24	1185,77
421,45	1294,32
421,65	1269,74
421,86	1275,88
422,07	1265,64
422,27	1263,60
422,48	1284,08
422,69	1333,23
422,89	1284,08
423,10	1290,22
423,30	1288,17
423,51	1284,08
423,72	1316,84
423,92	1257,45
424,13	1255,40
424,33	1259,50
424,54	1273,84
424,75	1271,79
424,95	1269,74
425,16	1290,22
425,36	1265,64
425,57	1296,36
425,78	1265,64
425,98	1325,04
426,19	1216,49
426,39	1261,55
426,60	1251,31
426,81	1341,42
427,01	1343,47
427,22	1234,93
427,42	1247,21
427,63	1286,12
427,83	1239,02
428,04	1292,27
428,25	1259,50
428,45	1355,76
428,66	1310,70
428,86	1298,41
429,07	1296,36
429,28	1261,55
429,48	1331,18
429,69	1277,93
429,89	1316,84
430,10	1267,69
430,30	1306,60
430,51	1243,12
430,71	1193,97
430,92	1200,11
431,13	1370,09
431,33	1257,45
431,54	1288,17
431,74	1228,78
431,95	1282,03
432,15	1214,45
432,36	1239,02
432,56	1263,60
432,77	1322,99
432,98	1275,88
433,18	1249,26
433,39	1261,55
433,59	1298,41
433,80	1234,93
434,00	1230,83
434,21	1343,47
434,41	1236,97
434,62	1322,99
434,82	1247,21
435,03	1241,07
435,23	1275,88
435,44	1331,18
435,64	1294,32
435,85	1255,40
436,06	1333,23
436,26	1314,80
436,47	1331,18
436,67	1286,12
436,88	1212,40
437,08	1337,32
437,29	1290,22
437,49	1249,26
437,70	1296,36
437,90	1282,03
438,11	1335,28
438,31	1294,32
438,52	1306,60
438,72	1329,13
438,93	1257,45
439,13	1288,17
439,34	1247,21
439,54	1249,26
439,75	1216,49
439,95	1226,73
440,16	1206,25
440,36	1273,84
440,57	1230,83
440,77	1300,46
440,98	1241,07
441,18	1253,36
441,39	1267,69
441,59	1298,41
441,80	1208,30
442,00	1259,50
442,21	1232,88
442,41	1282,03
442,62	1232,88
442,82	1263,60
443,02	1218,54
443,23	1298,41
443,43	1384,43
443,64	1263,60
443,84	1232,88
444,05	1263,60
444,25	1247,21
444,46	1273,84
444,66	1249,26
444,87	1253,36
445,07	1234,93
445,28	1251,31
445,48	1288,17
445,69	1279,98
445,89	1331,18
446,09	1314,80
446,30	1368,04
446,50	1247,21
446,71	1241,07
446,91	1136,62
447,12	1302,51
447,32	1279,98
447,53	1214,45
447,73	1290,22
447,93	1112,05
448,14	1290,22
448,34	1241,07
448,55	1263,60
448,75	1269,74
448,96	1284,08
449,16	1265,64
449,36	1355,76
449,57	1288,17
449,77	1251,31
449,98	1275,88
450,18	1296,36
450,39	1296,36
450,59	1245,16
450,79	1288,17
451,00	1259,50
451,20	1296,36
451,41	1325,04
451,61	1302,51
451,81	1239,02
452,02	1308,65
452,22	1318,89
452,43	1257,45
452,63	1279,98
452,84	1318,89
453,04	1351,66
453,24	1269,74
453,45	1286,12
453,65	1271,79
453,86	1273,84
454,06	1257,45
454,26	1277,93
454,47	1243,12
454,67	1265,64
454,87	1294,32
455,08	1234,93
455,28	1232,88
455,49	1275,88
455,69	1261,55
455,89	1267,69
456,10	1198,06
456,30	1273,84
456,51	1226,73
456,71	1208,30
456,91	1265,64
457,12	1275,88
457,32	1255,40
457,52	1239,02
457,73	1265,64
457,93	1206,25
458,14	1275,88
458,34	1245,16
458,54	1236,97
458,75	1292,27
458,95	1300,46
459,15	1271,79
459,36	1312,75
459,56	1282,03
459,76	1232,88
459,97	1257,45
460,17	1265,64
460,37	1232,88
460,58	1279,98
460,78	1230,83
460,99	1306,60
461,19	1234,93
461,39	1245,16
461,60	1245,16
461,80	1329,13
462,00	1271,79
462,21	1273,84
462,41	1361,90
462,61	1257,45
462,82	1191,92
463,02	1302,51
463,22	1253,36
463,43	1243,12
463,63	1239,02
463,83	1269,74
464,04	1273,84
464,24	1279,98
464,44	1239,02
464,64	1271,79
464,85	1232,88
465,05	1247,21
465,25	1228,78
465,46	1355,76
465,66	1320,94
465,86	1343,47
466,07	1296,36
466,27	1282,03
466,47	1282,03
466,68	1243,12
466,88	1306,60
467,08	1310,70
467,29	1273,84
467,49	1273,84
467,69	1322,99
467,89	1253,36
468,10	1236,97
468,30	1296,36
468,50	1325,04
468,71	1234,93
468,91	1267,69
469,11	1312,75
469,31	1165,29
469,52	1366,00
469,72	1249,26
469,92	1337,32
470,13	1329,13
470,33	1275,88
470,53	1259,50
470,73	1269,74
470,94	1343,47
471,14	1282,03
471,34	1322,99
471,54	1279,98
471,75	1284,08
471,95	1298,41
472,15	1298,41
472,36	1341,42
472,56	1298,41
472,76	1292,27
472,96	1288,17
473,17	1279,98
473,37	1296,36
473,57	1232,88
473,77	1279,98
473,98	1331,18
474,18	1304,56
474,38	1232,88
474,58	1230,83
474,79	1312,75
474,99	1314,80
475,19	1279,98
475,39	1273,84
475,60	1316,84
475,80	1255,40
476,00	1222,64
476,20	1288,17
476,41	1191,92
476,61	1204,21
476,81	1210,35
477,01	1251,31
477,21	1318,89
477,42	1255,40
477,62	1322,99
477,82	1273,84
478,02	1214,45
478,23	1277,93
478,43	1255,40
478,63	1259,50
478,83	1296,36
479,03	1312,75
479,24	1230,83
479,44	1322,99
479,64	1232,88
479,84	1273,84
480,04	1277,93
480,25	1265,64
480,45	1218,54
480,65	1228,78
480,85	1234,93
481,06	1279,98
481,26	1273,84
481,46	1265,64
481,66	1304,56
481,86	1273,84
482,06	1269,74
482,27	1173,49
482,47	1265,64
482,67	1333,23
482,87	1273,84
483,07	1255,40
483,28	1296,36
483,48	1298,41
483,68	1257,45
483,88	1279,98
484,08	1269,74
484,29	1259,50
484,49	1239,02
484,69	1333,23
484,89	1290,22
485,09	1368,04
485,29	1269,74
485,50	1230,83
485,70	1267,69
485,90	1286,12
486,10	1212,40
486,30	1294,32
486,50	1314,80
486,71	1267,69
486,91	1277,93
487,11	1329,13
487,31	1259,50
487,51	1265,64
487,71	1263,60
487,91	1282,03
488,12	1210,35
488,32	1273,84
488,52	1210,35
488,72	1212,40
488,92	1200,11
489,12	1331,18
489,32	1210,35
489,53	1327,08
489,73	1230,83
489,93	1339,37
490,13	1277,93
490,33	1314,80
490,53	1222,64
490,73	1282,03
490,94	1284,08
491,14	1245,16
491,34	1322,99
491,54	1257,45
491,74	1304,56
491,94	1271,79
492,14	1335,28
492,34	1232,88
492,54	1230,83
492,75	1282,03
492,95	1314,80
493,15	1290,22
493,35	1236,97
493,55	1363,95
493,75	1263,60
493,95	1253,36
494,15	1249,26
494,35	1253,36
494,56	1355,76
494,76	1220,59
494,96	1253,36
495,16	1234,93
495,36	1228,78
495,56	1302,51
495,76	1257,45
495,96	1288,17
496,16	1251,31
496,36	1282,03
496,56	1249,26
496,77	1322,99
496,97	1263,60
497,17	1269,74
497,37	1263,60
497,57	1288,17
497,77	1259,50
497,97	1298,41
498,17	1288,17
498,37	1249,26
498,57	1224,69
498,77	1306,60
498,97	1277,93
499,17	1288,17
499,38	1251,31
499,58	1286,12
499,78	1284,08
499,98	1245,16
500,18	1232,88
500,38	1191,92
500,58	1331,18
500,78	1218,54
500,98	1236,97
501,18	1243,12
501,38	1232,88
501,58	1288,17
501,78	1183,73
501,98	1310,70
502,18	1193,97
502,38	1253,36
502,58	1298,41
502,78	1257,45
502,98	1275,88
503,18	1259,50
503,38	1288,17
503,59	1259,50
503,79	1212,40
503,99	1290,22
504,19	1308,65
504,39	1243,12
504,59	1255,40
504,79	1345,52
504,99	1341,42
505,19	1265,64
505,39	1277,93
505,59	1239,02
505,79	1239,02
505,99	1339,37
506,19	1284,08
506,39	1294,32
506,59	1290,22
506,79	1275,88
506,99	1329,13
507,19	1314,80
507,39	1284,08
507,59	1290,22
507,79	1286,12
507,99	1284,08
508,19	1224,69
508,39	1239,02
508,59	1308,65
508,79	1290,22
508,99	1339,37
509,19	1226,73
509,39	1232,88
509,59	1273,84
509,79	1228,78
509,99	1273,84
510,19	1261,55
510,39	1267,69
510,59	1290,22
510,79	1316,84
510,99	1304,56
511,19	1239,02
511,39	1273,84
511,59	1339,37
511,79	1302,51
511,99	1265,64
512,19	1312,75
512,38	1282,03
512,58	1241,07
512,78	1277,93
512,98	1216,49
513,18	1306,60
513,38	1290,22
513,58	1294,32
513,78	1212,40
513,98	1290,22
514,18	1277,93
514,38	1331,18
514,58	1234,93
514,78	1269,74
514,98	1202,16
515,18	1259,50
515,38	1157,10
515,58	1392,62
515,78	1257,45
515,98	1257,45
516,18	1236,97
516,38	1243,12
516,57	1257,45
516,77	1292,27
516,97	1345,52
517,17	1331,18
517,37	1320,94
517,57	1226,73
517,77	1292,27
517,97	1312,75
518,17	1275,88
518,37	1239,02
518,57	1267,69
518,77	1277,93
518,97	1267,69
519,16	1245,16
519,36	1325,04
519,56	1239,02
519,76	1290,22
519,96	1279,98
520,16	1261,55
520,36	1290,22
520,56	1282,03
520,76	1251,31
520,96	1304,56
521,16	1282,03
521,35	1263,60
521,55	1247,21
521,75	1306,60
521,95	1265,64
522,15	1306,60
522,35	1300,46
522,55	1284,08
522,75	1335,28
522,95	1273,84
523,14	1349,61
523,34	1222,64
523,54	1263,60
523,74	1230,83
523,94	1275,88
524,14	1306,60
524,34	1255,40
524,54	1193,97
524,73	1288,17
524,93	1345,52
525,13	1265,64
525,33	1239,02
525,53	1290,22
525,73	1255,40
525,93	1290,22
526,13	1322,99
526,32	1304,56
526,52	1314,80
526,72	1318,89
526,92	1220,59
527,12	1224,69
527,32	1247,21
527,52	1279,98
527,71	1226,73
527,91	1216,49
528,11	1279,98
528,31	1208,30
528,51	1224,69
528,71	1234,93
528,90	1214,45
529,10	1284,08
529,30	1169,39
529,50	1216,49
529,70	1243,12
529,90	1263,60
530,09	1224,69
530,29	1298,41
530,49	1255,40
530,69	1259,50
530,89	1220,59
531,09	1226,73
531,28	1279,98
531,48	1249,26
531,68	1257,45
531,88	1320,94
532,08	1298,41
532,28	1249,26
532,47	1286,12
532,67	1331,18
532,87	1265,64
533,07	1277,93
533,27	1236,97
533,46	1249,26
533,66	1232,88
533,86	1230,83
534,06	1300,46
534,26	1275,88
534,45	1247,21
534,65	1275,88
534,85	1347,56
535,05	1302,51
535,25	1204,21
535,44	1239,02
535,64	1288,17
535,84	1302,51
536,04	1314,80
536,24	1257,45
536,43	1279,98
536,63	1265,64
536,83	1257,45
537,03	1269,74
537,22	1202,16
537,42	1230,83
537,62	1220,59
537,82	1282,03
538,02	1306,60
538,21	1284,08
538,41	1306,60
538,61	1306,60
538,81	1300,46
539,00	1286,12
539,20	1257,45
539,40	1333,23
539,60	1282,03
539,79	1310,70
539,99	1189,87
540,19	1257,45
540,39	1224,69
540,58	1286,12
540,78	1292,27
540,98	1267,69
541,18	1230,83
541,37	1329,13
541,57	1253,36
541,77	1310,70
541,97	1239,02
542,16	1245,16
542,36	1279,98
542,56	1310,70
542,76	1298,41
542,95	1259,50
543,15	1316,84
543,35	1275,88
543,54	1222,64
543,74	1298,41
543,94	1271,79
544,14	1228,78
544,33	1214,45
544,53	1247,21
544,73	1298,41
544,93	1245,16
545,12	1282,03
545,32	1298,41
545,52	1269,74
545,71	1255,40
545,91	1298,41
546,11	1318,89
546,30	1284,08
546,50	1261,55
546,70	1234,93
546,90	1288,17
547,09	1241,07
547,29	1249,26
547,49	1247,21
547,68	1282,03
547,88	1298,41
548,08	1314,80
548,27	1370,09
548,47	1273,84
548,67	1296,36
548,87	1288,17
549,06	1228,78
549,26	1263,60
549,46	1282,03
549,65	1234,93
549,85	1243,12
550,05	1136,62
550,24	1243,12
550,44	1273,84
550,64	1198,06
550,83	1288,17
551,03	1310,70
551,23	1249,26
551,42	1239,02
551,62	1263,60
551,82	1279,98
552,01	1298,41
552,21	1251,31
552,41	1327,08
552,60	1335,28
552,80	1257,45
553,00	1282,03
553,19	1290,22
553,39	1273,84
553,59	1279,98
553,78	1298,41
553,98	1259,50
554,17	1304,56
554,37	1234,93
554,57	1306,60
554,76	1288,17
554,96	1329,13
555,16	1345,52
555,35	1232,88
555,55	1296,36
555,75	1290,22
555,94	1337,32
556,14	1261,55
556,33	1331,18
556,53	1267,69
556,73	1263,60
556,92	1243,12
557,12	1282,03
557,32	1290,22
557,51	1300,46
557,71	1222,64
557,90	1243,12
558,10	1265,64
558,30	1302,51
558,49	1306,60
558,69	1261,55
558,88	1390,57
559,08	1300,46
559,28	1265,64
559,47	1271,79
559,67	1230,83
559,86	1282,03
560,06	1296,36
560,26	1282,03
560,45	1206,25
560,65	1286,12
560,84	1376,24
561,04	1222,64
561,24	1331,18
561,43	1302,51
561,63	1173,49
561,82	1282,03
562,02	1261,55
562,22	1265,64
562,41	1279,98
562,61	1267,69
562,80	1224,69
563,00	1339,37
563,19	1275,88
563,39	1331,18
563,59	1312,75
563,78	1298,41
563,98	1282,03
564,17	1243,12
564,37	1234,93
564,56	1249,26
564,76	1265,64
564,96	1226,73
565,15	1318,89
565,35	1267,69
565,54	1273,84
565,74	1302,51
565,93	1335,28
566,13	1265,64
566,32	1167,34
566,52	1325,04
566,71	1275,88
566,91	1249,26
567,11	1241,07
567,30	1253,36
567,50	1230,83
567,69	1243,12
567,89	1363,95
568,08	1335,28
568,28	1304,56
568,47	1257,45
568,67	1271,79
568,86	1282,03
569,06	1255,40
569,25	1292,27
569,45	1189,87
569,64	1236,97
569,84	1316,84
570,04	1349,61
570,23	1265,64
570,43	1232,88
570,62	1214,45
570,82	1271,79
571,01	1212,40
571,21	1271,79
571,40	1251,31
571,60	1255,40
571,79	1253,36
571,99	1249,26
572,18	1257,45
572,38	1187,82
572,57	1222,64
572,77	1198,06
572,96	1314,80
573,16	1257,45
573,35	1292,27
573,55	1259,50
573,74	1249,26
573,94	1300,46
574,13	1271,79
574,33	1177,58
574,52	1290,22
574,71	1218,54
574,91	1202,16
575,10	1245,16
575,30	1282,03
575,49	1353,71
575,69	1279,98
575,88	1292,27
576,08	1253,36
576,27	1304,56
576,47	1259,50
576,66	1284,08
576,86	1288,17
577,05	1271,79
577,25	1263,60
577,44	1322,99
577,64	1302,51
577,83	1296,36
578,02	1245,16
578,22	1331,18
578,41	1216,49
578,61	1269,74
578,80	1247,21
579,00	1271,79
579,19	1243,12
579,39	1243,12
579,58	1292,27
579,77	1239,02
579,97	1249,26
580,16	1269,74
580,36	1261,55
580,55	1200,11
580,75	1196,01
580,94	1193,97
581,13	1239,02
581,33	1265,64
581,52	1261,55
581,72	1318,89
581,91	1228,78
582,11	1247,21
582,30	1236,97
582,49	1232,88
582,69	1269,74
582,88	1255,40
583,08	1249,26
583,27	1261,55
583,47	1249,26
583,66	1267,69
583,85	1359,85
584,05	1302,51
584,24	1320,94
584,44	1359,85
584,63	1230,83
584,82	1236,97
585,02	1271,79
585,21	1228,78
585,41	1232,88
585,60	1249,26
585,79	1202,16
585,99	1314,80
586,18	1173,49
586,37	1279,98
586,57	1318,89
586,76	1308,65
586,96	1208,30
587,15	1222,64
587,34	1206,25
587,54	1296,36
587,73	1277,93
587,93	1304,56
588,12	1269,74
588,31	1218,54
588,51	1322,99
588,70	1302,51
588,89	1294,32
589,09	1294,32
589,28	1259,50
589,47	1271,79
589,67	1290,22
589,86	1282,03
590,06	1212,40
590,25	1251,31
590,44	1296,36
590,64	1232,88
590,83	1269,74
591,02	1294,32
591,22	1259,50
591,41	1300,46
591,60	1296,36
591,80	1357,80
591,99	1273,84
592,18	1271,79
592,38	1269,74
592,57	1306,60
592,76	1196,01
592,96	1296,36
593,15	1241,07
593,34	1267,69
593,54	1288,17
593,73	1243,12
593,92	1269,74
594,12	1267,69
594,31	1232,88
594,50	1290,22
594,70	1288,17
594,89	1366,00
595,08	1249,26
595,28	1290,22
595,47	1290,22
595,66	1286,12
595,86	1241,07
596,05	1259,50
596,24	1290,22
596,43	1271,79
596,63	1273,84
596,82	1204,21
597,01	1318,89
597,21	1282,03
597,40	1343,47
597,59	1257,45
597,79	1259,50
597,98	1239,02
598,17	1296,36
598,36	1333,23
598,56	1191,92
598,75	1318,89
598,94	1200,11
599,14	1202,16
599,33	1374,19
599,52	1253,36
599,71	1275,88
599,91	1257,45
600,10	1298,41
600,29	1296,36
600,48	1277,93
600,68	1335,28
600,87	1253,36
601,06	1265,64
601,26	1288,17
601,45	1269,74
601,64	1302,51
601,83	1226,73
602,03	1236,97
602,22	1232,88
602,41	1191,92
602,60	1236,97
602,80	1230,83
602,99	1343,47
603,18	1273,84
603,37	1265,64
603,57	1263,60
603,76	1304,56
603,95	1183,73
604,14	1284,08
604,34	1279,98
604,53	1294,32
604,72	1267,69
604,91	1310,70
605,10	1204,21
605,30	1253,36
605,49	1255,40
605,68	1302,51
605,87	1331,18
606,07	1277,93
606,26	1269,74
606,45	1282,03
606,64	1372,14
606,84	1255,40
607,03	1271,79
607,22	1222,64
607,41	1286,12
607,60	1243,12
607,80	1239,02
607,99	1286,12
608,18	1296,36
608,37	1298,41
608,56	1267,69
608,76	1261,55
608,95	1220,59
609,14	1318,89
609,33	1288,17
609,52	1261,55
609,72	1288,17
609,91	1249,26
610,10	1284,08
610,29	1247,21
610,48	1261,55
610,68	1302,51
610,87	1279,98
611,06	1251,31
611,25	1265,64
611,44	1269,74
611,63	1226,73
611,83	1347,56
612,02	1257,45
612,21	1259,50
612,40	1275,88
612,59	1216,49
612,79	1224,69
612,98	1288,17
613,17	1232,88
613,36	1277,93
613,55	1226,73
613,74	1284,08
613,93	1298,41
614,13	1296,36
614,32	1273,84
614,51	1208,30
614,70	1308,65
614,89	1298,41
615,08	1390,57
615,28	1296,36
615,47	1249,26
615,66	1286,12
615,85	1286,12
616,04	1263,60
616,23	1222,64
616,42	1363,95
616,62	1302,51
616,81	1357,80
617,00	1269,74
617,19	1257,45
617,38	1228,78
617,57	1290,22
617,76	1302,51
617,95	1241,07
618,15	1265,64
618,34	1331,18
618,53	1400,81
618,72	1255,40
618,91	1277,93
619,10	1337,32
619,29	1181,68
619,48	1257,45
619,68	1247,21
619,87	1282,03
620,06	1282,03
620,25	1337,32
620,44	1241,07
620,63	1304,56
620,82	1253,36
621,01	1279,98
621,20	1277,93
621,39	1292,27
621,59	1277,93
621,78	1314,80
621,97	1234,93
622,16	1337,32
622,35	1226,73
622,54	1247,21
622,73	1255,40
622,92	1228,78
623,11	1279,98
623,30	1267,69
623,49	1339,37
623,68	1331,18
623,88	1271,79
624,07	1249,26
624,26	1331,18
624,45	1288,17
624,64	1302,51
624,83	1247,21
625,02	1316,84
625,21	1265,64
625,40	1314,80
625,59	1253,36
625,78	1327,08
625,97	1273,84
626,16	1290,22
626,35	1288,17
626,54	1376,24
626,74	1368,04
626,93	1292,27
627,12	1296,36
627,31	1329,13
627,50	1355,76
627,69	1204,21
627,88	1298,41
628,07	1220,59
628,26	1271,79
628,45	1341,42
628,64	1241,07
628,83	1366,00
629,02	1261,55
629,21	1275,88
629,40	1292,27
629,59	1290,22
629,78	1261,55
629,97	1325,04
630,16	1349,61
630,35	1286,12
630,54	1337,32
630,73	1277,93
630,92	1378,28
631,11	1368,04
631,30	1353,71
631,49	1370,09
631,68	1546,22
631,87	1935,33
632,06	3243,98
632,25	2602,97
632,44	3233,74
632,63	4030,40
632,82	8273,79
633,01	8793,98
633,20	11493,20
633,39	27625,05
633,58	43853,15
633,77	59053,18
633,96	65535,00
634,15	58707,07
634,34	39939,49
634,53	23293,60
634,72	13043,51
634,91	6719,39
635,10	3512,27
635,29	2312,16
635,48	1800,16
635,67	1566,70
635,86	1429,48
636,05	1501,16
636,24	1441,77
636,43	1423,34
636,62	1402,86
636,81	1353,71
637,00	1355,76
637,19	1359,85
637,38	1343,47
637,57	1277,93
637,76	1304,56
637,95	1345,52
638,14	1361,90
638,33	1329,13
638,52	1271,79
638,71	1343,47
638,89	1314,80
639,08	1341,42
639,27	1320,94
639,46	1271,79
639,65	1353,71
639,84	1302,51
640,03	1251,31
640,22	1290,22
640,41	1310,70
640,60	1273,84
640,79	1331,18
640,98	1245,16
641,17	1331,18
641,36	1333,23
641,55	1318,89
641,74	1267,69
641,92	1255,40
642,11	1234,93
642,30	1284,08
642,49	1255,40
642,68	1304,56
642,87	1239,02
643,06	1312,75
643,25	1355,76
643,44	1290,22
643,63	1239,02
643,82	1310,70
644,00	1298,41
644,19	1316,84
644,38	1173,49
644,57	1314,80
644,76	1206,25
644,95	1275,88
645,14	1318,89
645,33	1275,88
645,52	1277,93
645,71	1306,60
645,89	1228,78
646,08	1249,26
646,27	1267,69
646,46	1298,41
646,65	1329,13
646,84	1312,75
647,03	1273,84
647,22	1279,98
647,40	1337,32
647,59	1310,70
647,78	1308,65
647,97	1232,88
648,16	1220,59
648,35	1298,41
648,54	1247,21
648,73	1368,04
648,91	1388,52
649,10	1245,16
649,29	1212,40
649,48	1220,59
649,67	1243,12
649,86	1236,97
650,05	1247,21
650,23	1261,55
650,42	1335,28
650,61	1261,55
650,80	1259,50
650,99	1261,55
651,18	1255,40
651,36	1216,49
651,55	1277,93
651,74	1255,40
651,93	1185,77
652,12	1343,47
652,31	1277,93
652,49	1138,67
652,68	1243,12
652,87	1214,45
653,06	1249,26
653,25	1363,95
653,44	1214,45
653,62	1271,79
653,81	1255,40
654,00	1206,25
654,19	1273,84
654,38	1279,98
654,56	1222,64
654,75	1239,02
654,94	1329,13
655,13	1236,97
655,32	1212,40
655,51	1359,85
655,69	1282,03
655,88	1161,20
656,07	1292,27
656,26	1224,69
656,45	1294,32
656,63	1353,71
656,82	1261,55
657,01	1273,84
657,20	1253,36
657,38	1271,79
657,57	1144,81
657,76	1241,07
657,95	1206,25
658,14	1210,35
658,32	1302,51
658,51	1290,22
658,70	1284,08
658,89	1279,98
659,08	1282,03
659,26	1271,79
659,45	1335,28
659,64	1290,22
659,83	1228,78
660,01	1339,37
660,20	1263,60
660,39	1337,32
660,58	1298,41
660,76	1249,26
660,95	1327,08
661,14	1296,36
661,33	1275,88
661,51	1257,45
661,70	1294,32
661,89	1275,88
662,08	1351,66
662,26	1294,32
662,45	1263,60
662,64	1314,80
662,83	1247,21
663,01	1210,35
663,20	1177,58
663,39	1245,16
663,58	1247,21
663,76	1296,36
663,95	1273,84
664,14	1279,98
664,32	1259,50
664,51	1325,04
664,70	1329,13
664,89	1259,50
665,07	1210,35
665,26	1265,64
665,45	1214,45
665,64	1316,84
665,82	1245,16
666,01	1290,22
666,20	1200,11
666,38	1306,60
666,57	1327,08
666,76	1193,97
666,95	1228,78
667,13	1322,99
667,32	1214,45
667,51	1282,03
667,69	1302,51
667,88	1251,31
668,07	1253,36
668,25	1300,46
668,44	1269,74
668,63	1298,41
668,81	1304,56
669,00	1269,74
669,19	1296,36
669,38	1298,41
669,56	1218,54
669,75	1329,13
669,94	1249,26
670,12	1267,69
670,31	1282,03
670,50	1247,21
670,68	1259,50
670,87	1329,13
671,06	1294,32
671,24	1292,27
671,43	1263,60
671,62	1253,36
671,80	1322,99
671,99	1232,88
672,18	1288,17
672,36	1230,83
672,55	1288,17
672,74	1302,51
672,92	1282,03
673,11	1296,36
673,29	1277,93
673,48	1239,02
673,67	1300,46
673,85	1363,95
674,04	1314,80
674,23	1325,04
674,41	1251,31
674,60	1300,46
674,79	1341,42
674,97	1228,78
675,16	1292,27
675,34	1298,41
675,53	1241,07
675,72	1187,82
675,90	1282,03
676,09	1198,06
676,28	1277,93
676,46	1247,21
676,65	1363,95
676,83	1357,80
677,02	1239,02
677,21	1322,99
677,39	1253,36
677,58	1312,75
677,77	1263,60
677,95	1288,17
678,14	1208,30
678,32	1193,97
678,51	1277,93
678,70	1290,22
678,88	1265,64
679,07	1320,94
679,25	1255,40
679,44	1292,27
679,63	1232,88
679,81	1224,69
680,00	1322,99
680,18	1279,98
680,37	1308,65
680,55	1351,66
680,74	1279,98
680,93	1257,45
681,11	1261,55
681,30	1279,98
681,48	1310,70
681,67	1294,32
681,85	1279,98
682,04	1228,78
682,23	1271,79
682,41	1253,36
682,60	1245,16
682,78	1318,89
682,97	1269,74
683,15	1222,64
683,34	1277,93
683,53	1241,07
683,71	1316,84
683,90	1286,12
684,08	1351,66
684,27	1288,17
684,45	1288,17
684,64	1263,60
684,82	1216,49
685,01	1298,41
685,19	1282,03
685,38	1279,98
685,57	1267,69
685,75	1312,75
685,94	1296,36
686,12	1298,41
686,31	1236,97
686,49	1275,88
686,68	1300,46
686,86	1335,28
687,05	1290,22
687,23	1263,60
687,42	1249,26
687,60	1257,45
687,79	1269,74
687,97	1320,94
688,16	1247,21
688,34	1308,65
688,53	1230,83
688,71	1247,21
688,90	1329,13
689,08	1306,60
689,27	1193,97
689,45	1261,55
689,64	1300,46
689,82	1290,22
690,01	1216,49
690,19	1298,41
690,38	1310,70
690,56	1304,56
690,75	1204,21
690,93	1329,13
691,12	1284,08
691,30	1282,03
691,49	1204,21
691,67	1212,40
691,86	1366,00
692,04	1257,45
692,23	1236,97
692,41	1232,88
692,60	1277,93
692,78	1273,84
692,97	1214,45
693,15	1249,26
693,34	1284,08
693,52	1300,46
693,71	1257,45
693,89	1282,03
694,08	1322,99
694,26	1265,64
694,44	1282,03
694,63	1263,60
694,81	1169,39
695,00	1318,89
695,18	1298,41
695,37	1232,88
695,55	1234,93
695,74	1261,55
695,92	1249,26
696,10	1310,70
696,29	1228,78
696,47	1251,31
696,66	1232,88
696,84	1282,03
697,03	1269,74
697,21	1296,36
697,40	1316,84
697,58	1296,36
697,76	1327,08
697,95	1302,51
698,13	1265,64
698,32	1249,26
698,50	1316,84
698,68	1226,73
698,87	1310,70
699,05	1306,60
699,24	1218,54
699,42	1277,93
699,61	1251,31
699,79	1296,36
699,97	1288,17
700,16	1306,60
700,34	1292,27
700,53	1351,66
700,71	1216,49
700,89	1341,42
701,08	1226,73
701,26	1318,89
701,45	1286,12
701,63	1351,66
701,81	1275,88
702,00	1261,55
702,18	1296,36
702,37	1288,17
702,55	1306,60
702,73	1296,36
702,92	1183,73
703,10	1218,54
703,28	1212,40
703,47	1200,11
703,65	1253,36
703,84	1288,17
704,02	1247,21
704,20	1333,23
704,39	1247,21
704,57	1273,84
704,75	1304,56
704,94	1224,69
705,12	1312,75
705,30	1277,93
705,49	1302,51
705,67	1275,88
705,86	1325,04
706,04	1304,56
706,22	1269,74
706,41	1269,74
706,59	1210,35
706,77	1282,03
706,96	1284,08
707,14	1269,74
707,32	1198,06
707,51	1296,36
707,69	1294,32
707,87	1263,60
708,06	1245,16
708,24	1253,36
708,42	1261,55
708,61	1275,88
708,79	1230,83
708,97	1269,74
709,16	1236,97
709,34	1251,31
709,52	1267,69
709,71	1286,12
709,89	1282,03
710,07	1239,02
710,26	1273,84
710,44	1298,41
710,62	1306,60
710,80	1304,56
710,99	1290,22
711,17	1325,04
711,35	1241,07
711,54	1335,28
711,72	1290,22
711,90	1265,64
712,09	1296,36
712,27	1282,03
712,45	1282,03
712,63	1265,64
712,82	1255,40
713,00	1314,80
713,18	1261,55
713,37	1263,60
713,55	1302,51
713,73	1230,83
713,91	1308,65
714,10	1341,42
714,28	1347,56
714,46	1306,60
714,65	1275,88
714,83	1296,36
715,01	1312,75
715,19	1282,03
715,38	1279,98
715,56	1292,27
715,74	1269,74
715,92	1271,79
716,11	1251,31
716,29	1302,51
716,47	1220,59
716,65	1320,94
716,84	1298,41
717,02	1251,31
717,20	1220,59
717,38	1286,12
717,57	1279,98
717,75	1279,98
717,93	1273,84
718,11	1288,17
718,30	1279,98
718,48	1236,97
718,66	1351,66
718,84	1288,17
719,03	1306,60
719,21	1269,74
719,39	1255,40
719,57	1239,02
719,75	1314,80
719,94	1273,84
720,12	1271,79
720,30	1241,07
720,48	1251,31
720,67	1331,18
720,85	1257,45
721,03	1224,69
721,21	1241,07
721,39	1372,14
721,58	1187,82
721,76	1261,55
721,94	1261,55
722,12	1282,03
722,30	1265,64
722,49	1269,74
722,67	1294,32
722,85	1263,60
723,03	1259,50
723,21	1253,36
723,40	1286,12
723,58	1386,47
723,76	1279,98
723,94	1249,26
724,12	1282,03
724,30	1273,84
724,49	1239,02
724,67	1306,60
724,85	1290,22
725,03	1284,08
725,21	1290,22
725,40	1331,18
725,58	1255,40
725,76	1259,50
725,94	1259,50
726,12	1216,49
726,30	1249,26
726,49	1298,41
726,67	1255,40
726,85	1279,98
727,03	1312,75
727,21	1253,36
727,39	1300,46
727,57	1290,22
727,76	1208,30
727,94	1265,64
728,12	1236,97
728,30	1275,88
728,48	1271,79
728,66	1335,28
728,84	1265,64
729,03	1316,84
729,21	1251,31
729,39	1210,35
729,57	1234,93
729,75	1306,60
729,93	1279,98
730,11	1183,73
730,30	1312,75
730,48	1273,84
730,66	1208,30
730,84	1277,93
731,02	1339,37
731,20	1214,45
731,38	1279,98
731,56	1265,64
731,74	1286,12
731,93	1196,01
732,11	1249,26
732,29	1241,07
732,47	1290,22
732,65	1253,36
732,83	1294,32
733,01	1335,28
733,19	1298,41
733,37	1273,84
733,56	1218,54
733,74	1294,32
733,92	1341,42
734,10	1265,64
734,28	1306,60
734,46	1306,60
734,64	1271,79
734,82	1222,64
735,00	1243,12
735,18	1234,93
735,36	1249,26
735,54	1286,12
735,73	1269,74
735,91	1279,98
736,09	1202,16
736,27	1243,12
736,45	1255,40
736,63	1273,84
736,81	1228,78
736,99	1275,88
737,17	1316,84
737,35	1265,64
737,53	1318,89
737,71	1220,59
737,89	1253,36
738,07	1277,93
738,25	1259,50
738,43	1236,97
738,61	1284,08
738,80	1300,46
738,98	1292,27
739,16	1271,79
739,34	1232,88
739,52	1312,75
739,70	1218,54
739,88	1243,12
740,06	1263,60
740,24	1282,03
740,42	1386,47
740,60	1259,50
740,78	1259,50
740,96	1193,97
741,14	1314,80
741,32	1312,75
741,50	1331,18
741,68	1273,84
741,86	1312,75
742,04	1222,64
742,22	1284,08
742,40	1318,89
742,58	1204,21
742,76	1355,76
742,94	1271,79
743,12	1226,73
743,30	1279,98
743,48	1269,74
743,66	1251,31
743,84	1212,40
744,02	1275,88
744,20	1249,26
744,38	1232,88
744,56	1263,60
744,74	1239,02
744,92	1222,64
745,10	1284,08
745,28	1247,21
745,46	1290,22
745,64	1279,98
745,82	1243,12
746,00	1302,51
746,18	1333,23
746,36	1275,88
746,54	1277,93
746,72	1220,59
746,90	1261,55
747,08	1275,88
747,26	1245,16
747,44	1236,97
747,62	1333,23
747,80	1300,46
747,98	1251,31
748,15	1308,65
748,33	1261,55
748,51	1236,97
748,69	1224,69
748,87	1239,02
749,05	1259,50
749,23	1253,36
749,41	1275,88
749,59	1275,88
749,77	1339,37
749,95	1234,93
750,13	1228,78
750,31	1261,55
750,49	1249,26
750,67	1157,10
750,85	1245,16
751,03	1218,54
751,20	1249,26
751,38	1265,64
751,56	1282,03
751,74	1292,27
751,92	1230,83
752,10	1204,21
752,28	1308,65
752,46	1277,93
752,64	1312,75
752,82	1368,04
753,00	1351,66
753,18	1325,04
753,35	1271,79
753,53	1267,69
753,71	1265,64
753,89	1177,58
754,07	1271,79
754,25	1300,46
754,43	1275,88
754,61	1286,12
754,79	1286,12
754,97	1224,69
755,14	1304,56
755,32	1243,12
755,50	1304,56
755,68	1239,02
755,86	1339,37
756,04	1236,97
756,22	1228,78
756,40	1228,78
756,57	1257,45
756,75	1298,41
756,93	1228,78
757,11	1308,65
757,29	1263,60
757,47	1277,93
757,65	1210,35
757,82	1306,60
758,00	1320,94
758,18	1257,45
758,36	1314,80
758,54	1290,22
758,72	1251,31
758,90	1294,32
759,07	1286,12
759,25	1200,11
759,43	1228,78
759,61	1322,99
759,79	1322,99
759,97	1218,54
760,15	1282,03
760,32	1198,06
760,50	1286,12
760,68	1286,12
760,86	1218,54
761,04	1306,60
761,22	1277,93
761,39	1232,88
761,57	1318,89
761,75	1224,69
761,93	1212,40
762,11	1265,64
762,28	1202,16
762,46	1294,32
762,64	1243,12
762,82	1245,16
763,00	1288,17
763,18	1228,78
763,35	1218,54
763,53	1239,02
763,71	1292,27
763,89	1290,22
764,07	1294,32
764,24	1277,93
764,42	1267,69
764,60	1275,88
764,78	1322,99
764,96	1331,18
765,13	1253,36
765,31	1277,93
765,49	1214,45
765,67	1304,56
765,84	1200,11
766,02	1302,51
766,20	1253,36
766,38	1220,59
766,56	1275,88
766,73	1241,07
766,91	1191,92
767,09	1228,78
767,27	1191,92
767,44	1306,60
767,62	1279,98
767,80	1247,21
767,98	1210,35
768,15	1298,41
768,33	1230,83
768,51	1314,80
768,69	1261,55
768,87	1255,40
769,04	1320,94
769,22	1322,99
769,40	1345,52
769,58	1290,22
769,75	1277,93
769,93	1257,45
770,11	1228,78
770,28	1331,18
770,46	1300,46
770,64	1298,41
770,82	1282,03
770,99	1269,74
771,17	1216,49
771,35	1296,36
771,53	1236,97
771,70	1279,98
771,88	1308,65
772,06	1327,08
772,23	1353,71
772,41	1310,70
772,59	1275,88
772,77	1288,17
772,94	1251,31
773,12	1263,60
773,30	1243,12
773,47	1251,31
773,65	1333,23
773,83	1273,84
774,01	1208,30
774,18	1257,45
774,36	1290,22
774,54	1271,79
774,71	1275,88
774,89	1312,75
775,07	1329,13
775,24	1314,80
775,42	1218,54
775,60	1282,03
775,78	1247,21
775,95	1241,07
776,13	1232,88
776,31	1318,89
776,48	1212,40
776,66	1257,45
776,84	1234,93
777,01	1273,84
777,19	1230,83
777,37	1314,80
777,54	1310,70
777,72	1320,94
777,90	1263,60
778,07	1288,17
778,25	1228,78
778,43	1292,27
778,60	1245,16
778,78	1265,64
778,96	1191,92
779,13	1277,93
779,31	1279,98
779,49	1228,78
779,66	1202,16
779,84	1296,36
780,01	1218,54
780,19	1265,64
780,37	1247,21
780,54	1249,26
780,72	1273,84
780,90	1253,36
781,07	1318,89
781,25	1241,07
781,43	1271,79
781,60	1232,88
781,78	1269,74
781,95	1306,60
782,13	1226,73
782,31	1327,08
782,48	1294,32
782,66	1230,83
782,83	1255,40
783,01	1200,11
783,19	1286,12
783,36	1216,49
783,54	1259,50
783,72	1335,28
783,89	1198,06
784,07	1204,21
784,24	1345,52
784,42	1224,69
784,60	1275,88
784,77	1318,89
784,95	1273,84
785,12	1286,12
785,30	1322,99
785,47	1294,32
785,65	1331,18
785,83	1269,74
786,00	1314,80
786,18	1257,45
786,35	1261,55
786,53	1239,02
786,71	1310,70
786,88	1286,12
787,06	1249,26
787,23	1255,40
787,41	1333,23
787,58	1247,21
787,76	1288,17
787,94	1243,12
788,11	1273,84
788,29	1308,65
788,46	1292,27
788,64	1204,21
788,81	1306,60
788,99	1306,60
789,16	1218,54
789,34	1320,94
789,52	1232,88
789,69	1349,61
789,87	1234,93
790,04	1282,03
790,22	1298,41
790,39	1325,04
790,57	1245,16
790,74	1275,88
790,92	1239,02
791,09	1304,56
791,27	1290,22
791,44	1234,93
791,62	1275,88
791,79	1253,36
791,97	1294,32
792,15	1259,50
792,32	1245,16
792,50	1198,06
792,67	1312,75
792,85	1263,60
793,02	1351,66
793,20	1282,03
793,37	1251,31
793,55	1288,17
793,72	1325,04
793,90	1314,80
794,07	1339,37
794,25	1263,60
794,42	1193,97
794,60	1210,35
794,77	1290,22
794,95	1302,51
795,12	1173,49
795,30	1208,30
795,47	1261,55
795,65	1269,74
795,82	1359,85
796,00	1282,03
796,17	1271,79
796,34	1290,22
796,52	1249,26
796,69	1228,78
796,87	1275,88
797,04	1292,27
797,22	1251,31
797,39	1290,22
797,57	1196,01
797,74	1236,97
797,92	1314,80
798,09	1275,88
798,27	1302,51
798,44	1261,55
798,62	1236,97
798,79	1277,93
798,96	1255,40
799,14	1220,59
799,31	1279,98
799,49	1261,55
799,66	1275,88
799,84	1241,07
800,01	1284,08
800,19	1292,27
800,36	1271,79
800,53	1259,50
800,71	1277,93
800,88	1286,12
801,06	1261,55
801,23	1259,50
801,41	1298,41
801,58	1284,08
801,75	1265,64
801,93	1253,36
802,10	1316,84
802,28	1212,40
802,45	1306,60
802,63	1212,40
802,80	1322,99
802,97	1294,32
803,15	1308,65
803,32	1279,98
803,50	1220,59
803,67	1271,79
803,84	1282,03
804,02	1247,21
804,19	1288,17
804,37	1277,93
804,54	1202,16
804,71	1331,18
804,89	1261,55
805,06	1314,80
805,24	1236,97
805,41	1304,56
805,58	1265,64
805,76	1261,55
805,93	1232,88
806,10	1165,29
806,28	1200,11
806,45	1255,40
806,63	1263,60
806,80	1292,27
806,97	1282,03
807,15	1290,22
807,32	1269,74
807,49	1286,12
807,67	1337,32
807,84	1224,69
808,01	1269,74
808,19	1355,76
808,36	1261,55
808,54	1304,56
808,71	1314,80
808,88	1302,51
809,06	1263,60
809,23	1247,21
809,40	1277,93
809,58	1279,98
809,75	1329,13
809,92	1251,31
810,10	1294,32
810,27	1273,84
810,44	1253,36
810,62	1183,73
810,79	1279,98
810,96	1265,64
811,14	1267,69
811,31	1290,22
811,48	1277,93
811,66	1302,51
811,83	1239,02
812,00	1249,26
812,18	1341,42
812,35	1255,40
812,52	1216,49
812,69	1249,26
812,87	1288,17
813,04	1296,36
813,21	1314,80
813,39	1335,28
813,56	1253,36
813,73	1357,80
813,91	1257,45
814,08	1263,60
814,25	1339,37
814,42	1288,17
814,60	1308,65
814,77	1292,27
814,94	1249,26
815,12	1220,59
815,29	1226,73
815,46	1265,64
815,63	1251,31
815,81	1298,41
815,98	1239,02
816,15	1284,08
816,33	1296,36
816,50	1226,73
816,67	1300,46
816,84	1333,23
817,02	1155,05
817,19	1366,00
817,36	1318,89
817,53	1255,40
817,71	1212,40
817,88	1312,75
818,05	1294,32
818,22	1241,07
818,40	1257,45
818,57	1265,64
818,74	1269,74
818,91	1302,51
819,09	1271,79
819,26	1255,40
819,43	1335,28
819,60	1331,18
819,78	1257,45
819,95	1241,07
820,12	1220,59
820,29	1372,14
820,47	1255,40
820,64	1257,45
820,81	1228,78
820,98	1329,13
821,15	1255,40
821,33	1265,64
821,50	1271,79
821,67	1263,60
821,84	1296,36
822,02	1302,51
822,19	1333,23
822,36	1249,26
822,53	1322,99
822,70	1277,93
822,88	1230,83
823,05	1302,51
823,22	1271,79
823,39	1265,64
823,56	1239,02
823,74	1269,74
823,91	1232,88
824,08	1247,21
824,25	1204,21
824,42	1210,35
824,60	1239,02
824,77	1286,12
824,94	1269,74
825,11	1331,18
825,28	1275,88
825,45	1331,18
825,63	1271,79
825,80	1253,36
825,97	1257,45
826,14	1284,08
826,31	1224,69
826,48	1273,84
826,66	1245,16
826,83	1253,36
827,00	1224,69
827,17	1286,12
827,34	1243,12
827,51	1255,40
827,69	1286,12
827,86	1259,50
828,03	1374,19
828,20	1247,21
828,37	1253,36
828,54	1253,36
828,71	1230,83
828,89	1259,50
829,06	1304,56
829,23	1230,83
829,40	1204,21
829,57	1224,69
829,74	1241,07
829,91	1212,40
830,09	1232,88
830,26	1271,79
830,43	1282,03
830,60	1294,32
830,77	1279,98
830,94	1357,80
831,11	1337,32
831,28	1292,27
831,46	1275,88
831,63	1327,08
831,80	1306,60
831,97	1218,54
832,14	1271,79
832,31	1304,56
832,48	1277,93
832,65	1300,46
832,82	1320,94
832,99	1294,32
833,17	1255,40
833,34	1282,03
833,51	1288,17
833,68	1329,13
833,85	1318,89
834,02	1193,97
834,19	1308,65
834,36	1230,83
834,53	1329,13
834,70	1306,60
834,87	1236,97
835,04	1271,79
835,22	1361,90
835,39	1224,69
835,56	1255,40
835,73	1273,84
835,90	1257,45
836,07	1290,22
836,24	1298,41
836,41	1222,64
836,58	1318,89
836,75	1265,64
836,92	1230,83
837,09	1232,88
837,26	1290,22
837,43	1232,88
837,60	1230,83
837,77	1251,31
837,94	1249,26
838,12	1232,88
838,29	1296,36
838,46	1171,44
838,63	1212,40
838,80	1204,21
838,97	1277,93
839,14	1230,83
839,31	1322,99
839,48	1339,37
839,65	1259,50
839,82	1265,64
839,99	1300,46
840,16	1269,74
840,33	1304,56
840,50	1173,49
840,67	1337,32
840,84	1300,46
841,01	1218,54
841,18	1310,70
841,35	1191,92
841,52	1228,78
841,69	1316,84
841,86	1261,55
842,03	1189,87
842,20	1269,74
842,37	1204,21
842,54	1273,84
842,71	1204,21
842,88	1241,07
843,05	1271,79
843,22	1198,06
843,39	1200,11
843,56	1247,21
843,73	1322,99
843,90	1239,02
844,07	1265,64
844,24	1265,64
844,41	1253,36
844,58	1306,60
844,75	1331,18
844,92	1294,32
845,09	1306,60
845,26	1222,64
845,43	1353,71
845,60	1218,54
845,77	1320,94
845,94	1322,99
846,10	1263,60
846,27	1222,64
846,44	1271,79
846,61	1226,73
846,78	1304,56
846,95	1224,69
847,12	1310,70
847,29	1302,51
847,46	1320,94
847,63	1247,21
847,80	1245,16
847,97	1218,54
848,14	1288,17
848,31	1210,35
848,48	1249,26
848,65	1314,80
848,82	1245,16
848,98	1259,50
849,15	1241,07
849,32	1294,32
849,49	1228,78
849,66	1208,30
849,83	1290,22
850,00	1294,32
850,17	1228,78
850,34	1282,03
850,51	1234,93
850,68	1275,88
850,85	1271,79
851,01	1363,95
851,18	1282,03
851,35	1228,78
851,52	1327,08
851,69	1279,98
851,86	1243,12
852,03	1265,64
852,20	1392,62
852,37	1263,60
852,53	1275,88
852,70	1337,32
852,87	1345,52
853,04	1314,80
853,21	1269,74
853,38	1230,83
853,55	1236,97
853,72	1298,41
853,89	1288,17
854,05	1243,12
854,22	1314,80
854,39	1253,36
854,56	1259,50
854,73	1259,50
854,90	1376,24
855,07	1247,21
855,23	1300,46
855,40	1273,84
855,57	1249,26
855,74	1232,88
855,91	1275,88
856,08	1361,90
856,25	1245,16
856,41	1204,21
856,58	1331,18
856,75	1300,46
856,92	1259,50
857,09	1290,22
857,26	1277,93
857,42	1366,00
857,59	1218,54
857,76	1298,41
857,93	1286,12
858,10	1245,16
858,27	1245,16
858,43	1290,22
858,60	1296,36
858,77	1249,26
858,94	1243,12
859,11	1261,55
859,27	1282,03
859,44	1220,59
859,61	1329,13
859,78	1331,18
859,95	1230,83
860,12	1304,56
860,28	1265,64
860,45	1243,12
860,62	1277,93
860,79	1202,16
860,95	1216,49
861,12	1314,80
861,29	1251,31
861,46	1277,93
861,63	1316,84
861,79	1304,56
861,96	1220,59
862,13	1216,49
862,30	1290,22
862,47	1247,21
862,63	1265,64
862,80	1304,56
862,97	1267,69
863,14	1212,40
863,30	1255,40
863,47	1226,73
863,64	1271,79
863,81	1251,31
863,97	1288,17
864,14	1277,93
864,31	1257,45
864,48	1298,41
864,65	1279,98
864,81	1290,22
864,98	1257,45
865,15	1306,60
865,32	1277,93
865,48	1269,74
865,65	1343,47
865,82	1241,07
865,98	1173,49
866,15	1314,80
866,32	1245,16
866,49	1202,16
866,65	1353,71
866,82	1241,07
866,99	1273,84
867,16	1296,36
867,32	1253,36
867,49	1322,99
867,66	1261,55
867,83	1271,79
867,99	1331,18
868,16	1263,60
868,33	1306,60
868,49	1286,12
868,66	1220,59
868,83	1257,45
868,99	1267,69
869,16	1294,32
869,33	1288,17
869,50	1327,08
869,66	1290,22
869,83	1269,74
870,00	1271,79
870,16	1273,84
870,33	1257,45
870,50	1298,41
870,66	1171,44
870,83	1304,56
871,00	1318,89
871,17	1241,07
871,33	1273,84
871,50	1282,03
871,67	1271,79
871,83	1273,84
872,00	1236,97
872,17	1331,18
872,33	1273,84
872,50	1292,27
872,67	1263,60
872,83	1286,12
873,00	1236,97
873,17	1351,66
873,33	1292,27
873,50	1249,26
873,67	1273,84
873,83	1312,75
874,00	1290,22
874,16	1161,20
874,33	1257,45
874,50	1290,22
874,66	1245,16
874,83	1279,98
875,00	1257,45
875,16	1312,75
875,33	1265,64
875,50	1349,61
875,66	1245,16
875,83	1277,93
875,99	1220,59
876,16	1239,02
876,33	1286,12
876,49	1304,56
876,66	1267,69
876,83	1370,09
876,99	1359,85
877,16	1245,16
877,32	1282,03
877,49	1292,27
877,66	1353,71
877,82	1232,88
877,99	1204,21
878,15	1187,82
878,32	1277,93
878,49	1300,46
878,65	1300,46
878,82	1269,74
878,98	1302,51
879,15	1288,17
879,32	1249,26
879,48	1226,73
879,65	1230,83
879,81	1247,21
879,98	1288,17
880,15	1222,64
880,31	1249,26
880,48	1245,16
880,64	1226,73
880,81	1277,93
880,97	1269,74
881,14	1294,32
881,31	1232,88
881,47	1292,27
881,64	1318,89
881,80	1316,84
881,97	1191,92
882,13	1261,55
882,30	1224,69
882,47	1261,55
882,63	1216,49
882,80	1230,83
882,96	1257,45
883,13	1296,36
883,29	1265,64
883,46	1239,02
883,62	1279,98
883,79	1320,94
883,95	1236,97
884,12	1214,45
884,29	1232,88
884,45	1271,79
884,62	1277,93
884,78	1200,11
884,95	1327,08
885,11	1263,60
885,28	1196,01
885,44	1320,94
885,61	1261,55
885,77	1316,84
885,94	1353,71
886,10	1284,08
886,27	1312,75
886,43	1402,86
886,60	1267,69
886,76	1357,80
886,93	1300,46
887,09	1310,70
887,26	1218,54
887,42	1275,88
887,59	1273,84
887,75	1261,55
887,92	1318,89
888,08	1296,36
888,25	1263,60
888,41	1267,69
888,58	1243,12
888,74	1193,97
888,91	1298,41
>>>>>End Processed Spectral Data<<<<<
