SpectraSuite Data File
++++++++++++++++++++++++++++++++++++
Date: Sun Apr 03 18:00:04 CEST 2016
User: root
Dark Spectrum Present: No
Reference Spectrum Present: No
Number of Sampled Component Spectra: 1
Spectrometers: USB4C02835
Integration Time (usec): 10000 (USB4C02835)
Spectra Averaged: 1 (USB4C02835)
Boxcar Smoothing: 0 (USB4C02835)
Correct for Electrical Dark: No (USB4C02835)
Strobe/Lamp Enabled: No (USB4C02835)
Correct for Detector Non-linearity: No (USB4C02835)
Correct for Stray Light: No (USB4C02835)
Number of Pixels in Processed Spectrum: 3648
>>>>>Begin Processed Spectral Data<<<<<
177,47	1257,45
177,69	1257,45
177,91	1257,45
178,13	1257,45
178,36	1245,16
178,58	1214,45
178,80	1320,94
179,02	1239,02
179,24	1310,70
179,46	1316,84
179,68	1181,68
179,90	1234,93
180,13	1296,36
180,35	1292,27
180,57	1282,03
180,79	1236,97
181,01	1322,99
181,23	1263,60
181,45	1312,75
181,67	1282,03
181,90	1261,55
182,12	1236,97
182,34	1245,16
182,56	1212,40
182,78	1296,36
183,00	1243,12
183,22	1267,69
183,44	1286,12
183,66	1284,08
183,89	1308,65
184,11	1298,41
184,33	1308,65
184,55	1294,32
184,77	1275,88
184,99	1267,69
185,21	1257,45
185,43	1284,08
185,65	1263,60
185,87	1263,60
186,10	1255,40
186,32	1243,12
186,54	1243,12
186,76	1251,31
186,98	1296,36
187,20	1339,37
187,42	1261,55
187,64	1216,49
187,86	1234,93
188,08	1265,64
188,30	1243,12
188,52	1296,36
188,75	1257,45
188,97	1339,37
189,19	1310,70
189,41	1279,98
189,63	1296,36
189,85	1296,36
190,07	1255,40
190,29	1277,93
190,51	1226,73
190,73	1222,64
190,95	1247,21
191,17	1308,65
191,39	1282,03
191,61	1282,03
191,84	1253,36
192,06	1325,04
192,28	1329,13
192,50	1236,97
192,72	1245,16
192,94	1263,60
193,16	1253,36
193,38	1232,88
193,60	1228,78
193,82	1302,51
194,04	1298,41
194,26	1277,93
194,48	1245,16
194,70	1279,98
194,92	1232,88
195,14	1228,78
195,36	1288,17
195,58	1304,56
195,80	1296,36
196,02	1204,21
196,24	1232,88
196,46	1251,31
196,69	1245,16
196,91	1273,84
197,13	1298,41
197,35	1308,65
197,57	1239,02
197,79	1296,36
198,01	1224,69
198,23	1306,60
198,45	1263,60
198,67	1206,25
198,89	1282,03
199,11	1241,07
199,33	1228,78
199,55	1277,93
199,77	1333,23
199,99	1257,45
200,21	1193,97
200,43	1216,49
200,65	1273,84
200,87	1296,36
201,09	1265,64
201,31	1275,88
201,53	1259,50
201,75	1222,64
201,97	1226,73
202,19	1245,16
202,41	1249,26
202,63	1275,88
202,85	1247,21
203,07	1249,26
203,29	1222,64
203,51	1220,59
203,73	1353,71
203,95	1337,32
204,17	1251,31
204,39	1232,88
204,61	1312,75
204,83	1243,12
205,05	1269,74
205,27	1366,00
205,49	1314,80
205,71	1236,97
205,93	1282,03
206,15	1212,40
206,37	1259,50
206,59	1212,40
206,81	1282,03
207,03	1300,46
207,25	1253,36
207,47	1343,47
207,69	1304,56
207,91	1267,69
208,13	1249,26
208,34	1202,16
208,56	1257,45
208,78	1241,07
209,00	1290,22
209,22	1296,36
209,44	1218,54
209,66	1304,56
209,88	1329,13
210,10	1169,39
210,32	1279,98
210,54	1271,79
210,76	1267,69
210,98	1261,55
211,20	1218,54
211,42	1316,84
211,64	1290,22
211,86	1239,02
212,08	1294,32
212,30	1271,79
212,52	1275,88
212,74	1312,75
212,96	1294,32
213,17	1259,50
213,39	1288,17
213,61	1232,88
213,83	1261,55
214,05	1304,56
214,27	1228,78
214,49	1253,36
214,71	1218,54
214,93	1189,87
215,15	1316,84
215,37	1234,93
215,59	1241,07
215,81	1333,23
216,03	1361,90
216,24	1271,79
216,46	1279,98
216,68	1249,26
216,90	1331,18
217,12	1198,06
217,34	1259,50
217,56	1279,98
217,78	1253,36
218,00	1247,21
218,22	1312,75
218,44	1298,41
218,66	1273,84
218,87	1327,08
219,09	1216,49
219,31	1247,21
219,53	1294,32
219,75	1214,45
219,97	1251,31
220,19	1277,93
220,41	1222,64
220,63	1335,28
220,85	1300,46
221,06	1239,02
221,28	1261,55
221,50	1316,84
221,72	1204,21
221,94	1255,40
222,16	1290,22
222,38	1279,98
222,60	1216,49
222,82	1290,22
223,03	1259,50
223,25	1265,64
223,47	1218,54
223,69	1255,40
223,91	1275,88
224,13	1214,45
224,35	1236,97
224,57	1251,31
224,78	1249,26
225,00	1249,26
225,22	1345,52
225,44	1253,36
225,66	1300,46
225,88	1200,11
226,10	1335,28
226,32	1232,88
226,53	1226,73
226,75	1245,16
226,97	1261,55
227,19	1282,03
227,41	1282,03
227,63	1339,37
227,85	1306,60
228,06	1368,04
228,28	1257,45
228,50	1314,80
228,72	1255,40
228,94	1255,40
229,16	1325,04
229,37	1363,95
229,59	1249,26
229,81	1271,79
230,03	1241,07
230,25	1239,02
230,47	1290,22
230,69	1318,89
230,90	1273,84
231,12	1236,97
231,34	1216,49
231,56	1282,03
231,78	1273,84
232,00	1284,08
232,21	1294,32
232,43	1251,31
232,65	1347,56
232,87	1234,93
233,09	1310,70
233,30	1239,02
233,52	1167,34
233,74	1288,17
233,96	1271,79
234,18	1214,45
234,40	1292,27
234,61	1261,55
234,83	1204,21
235,05	1267,69
235,27	1329,13
235,49	1261,55
235,70	1298,41
235,92	1263,60
236,14	1288,17
236,36	1288,17
236,58	1208,30
236,79	1294,32
237,01	1302,51
237,23	1267,69
237,45	1218,54
237,67	1277,93
237,88	1277,93
238,10	1251,31
238,32	1261,55
238,54	1253,36
238,76	1241,07
238,97	1175,53
239,19	1282,03
239,41	1251,31
239,63	1322,99
239,85	1204,21
240,06	1269,74
240,28	1322,99
240,50	1277,93
240,72	1241,07
240,93	1314,80
241,15	1325,04
241,37	1257,45
241,59	1282,03
241,81	1302,51
242,02	1306,60
242,24	1327,08
242,46	1212,40
242,68	1202,16
242,89	1273,84
243,11	1279,98
243,33	1218,54
243,55	1308,65
243,76	1243,12
243,98	1249,26
244,20	1253,36
244,42	1282,03
244,64	1271,79
244,85	1263,60
245,07	1335,28
245,29	1292,27
245,51	1290,22
245,72	1247,21
245,94	1277,93
246,16	1290,22
246,38	1282,03
246,59	1273,84
246,81	1298,41
247,03	1306,60
247,24	1261,55
247,46	1286,12
247,68	1230,83
247,90	1241,07
248,11	1296,36
248,33	1386,47
248,55	1269,74
248,77	1232,88
248,98	1298,41
249,20	1263,60
249,42	1294,32
249,64	1347,56
249,85	1308,65
250,07	1153,01
250,29	1290,22
250,50	1257,45
250,72	1267,69
250,94	1300,46
251,16	1269,74
251,37	1284,08
251,59	1318,89
251,81	1288,17
252,02	1271,79
252,24	1298,41
252,46	1263,60
252,68	1288,17
252,89	1259,50
253,11	1279,98
253,33	1216,49
253,54	1269,74
253,76	1263,60
253,98	1275,88
254,20	1290,22
254,41	1282,03
254,63	1282,03
254,85	1277,93
255,06	1271,79
255,28	1220,59
255,50	1269,74
255,71	1296,36
255,93	1288,17
256,15	1312,75
256,36	1222,64
256,58	1286,12
256,80	1310,70
257,02	1316,84
257,23	1302,51
257,45	1253,36
257,67	1214,45
257,88	1251,31
258,10	1271,79
258,32	1275,88
258,53	1279,98
258,75	1275,88
258,97	1327,08
259,18	1144,81
259,40	1273,84
259,62	1284,08
259,83	1232,88
260,05	1347,56
260,27	1288,17
260,48	1228,78
260,70	1200,11
260,92	1286,12
261,13	1298,41
261,35	1210,35
261,57	1241,07
261,78	1296,36
262,00	1298,41
262,22	1245,16
262,43	1294,32
262,65	1265,64
262,86	1230,83
263,08	1245,16
263,30	1322,99
263,51	1302,51
263,73	1288,17
263,95	1284,08
264,16	1216,49
264,38	1271,79
264,60	1263,60
264,81	1298,41
265,03	1216,49
265,25	1239,02
265,46	1249,26
265,68	1282,03
265,89	1282,03
266,11	1273,84
266,33	1314,80
266,54	1265,64
266,76	1277,93
266,98	1265,64
267,19	1243,12
267,41	1273,84
267,62	1316,84
267,84	1290,22
268,06	1361,90
268,27	1290,22
268,49	1253,36
268,70	1306,60
268,92	1279,98
269,14	1288,17
269,35	1298,41
269,57	1312,75
269,79	1294,32
270,00	1189,87
270,22	1253,36
270,43	1318,89
270,65	1241,07
270,87	1204,21
271,08	1255,40
271,30	1294,32
271,51	1224,69
271,73	1284,08
271,95	1239,02
272,16	1210,35
272,38	1322,99
272,59	1251,31
272,81	1247,21
273,02	1245,16
273,24	1241,07
273,46	1257,45
273,67	1226,73
273,89	1243,12
274,10	1228,78
274,32	1241,07
274,54	1181,68
274,75	1296,36
274,97	1288,17
275,18	1349,61
275,40	1288,17
275,61	1263,60
275,83	1241,07
276,05	1273,84
276,26	1304,56
276,48	1253,36
276,69	1306,60
276,91	1275,88
277,12	1275,88
277,34	1304,56
277,55	1181,68
277,77	1245,16
277,99	1304,56
278,20	1261,55
278,42	1239,02
278,63	1226,73
278,85	1261,55
279,06	1271,79
279,28	1232,88
279,49	1327,08
279,71	1249,26
279,93	1267,69
280,14	1290,22
280,36	1259,50
280,57	1286,12
280,79	1255,40
281,00	1273,84
281,22	1269,74
281,43	1259,50
281,65	1277,93
281,86	1261,55
282,08	1249,26
282,29	1224,69
282,51	1216,49
282,73	1245,16
282,94	1290,22
283,16	1245,16
283,37	1232,88
283,59	1204,21
283,80	1222,64
284,02	1236,97
284,23	1339,37
284,45	1249,26
284,66	1290,22
284,88	1310,70
285,09	1243,12
285,31	1310,70
285,52	1249,26
285,74	1335,28
285,95	1232,88
286,17	1255,40
286,38	1222,64
286,60	1257,45
286,81	1279,98
287,03	1241,07
287,24	1253,36
287,46	1202,16
287,67	1327,08
287,89	1273,84
288,10	1239,02
288,32	1267,69
288,53	1265,64
288,75	1249,26
288,96	1249,26
289,18	1343,47
289,39	1308,65
289,61	1284,08
289,82	1204,21
290,04	1257,45
290,25	1290,22
290,47	1353,71
290,68	1263,60
290,90	1265,64
291,11	1224,69
291,33	1191,92
291,54	1277,93
291,76	1253,36
291,97	1294,32
292,18	1259,50
292,40	1322,99
292,61	1243,12
292,83	1267,69
293,04	1331,18
293,26	1277,93
293,47	1304,56
293,69	1261,55
293,90	1216,49
294,12	1210,35
294,33	1187,82
294,55	1269,74
294,76	1320,94
294,97	1234,93
295,19	1275,88
295,40	1277,93
295,62	1257,45
295,83	1265,64
296,05	1253,36
296,26	1269,74
296,48	1269,74
296,69	1296,36
296,90	1277,93
297,12	1275,88
297,33	1232,88
297,55	1300,46
297,76	1257,45
297,98	1279,98
298,19	1290,22
298,41	1247,21
298,62	1294,32
298,83	1312,75
299,05	1249,26
299,26	1249,26
299,48	1247,21
299,69	1241,07
299,90	1279,98
300,12	1185,77
300,33	1253,36
300,55	1255,40
300,76	1265,64
300,98	1239,02
301,19	1310,70
301,40	1220,59
301,62	1304,56
301,83	1318,89
302,05	1290,22
302,26	1277,93
302,47	1239,02
302,69	1306,60
302,90	1320,94
303,12	1302,51
303,33	1206,25
303,54	1288,17
303,76	1273,84
303,97	1275,88
304,19	1325,04
304,40	1263,60
304,61	1329,13
304,83	1251,31
305,04	1216,49
305,26	1224,69
305,47	1265,64
305,68	1267,69
305,90	1222,64
306,11	1288,17
306,33	1265,64
306,54	1327,08
306,75	1277,93
306,97	1314,80
307,18	1296,36
307,39	1257,45
307,61	1259,50
307,82	1318,89
308,04	1290,22
308,25	1286,12
308,46	1282,03
308,68	1226,73
308,89	1304,56
309,10	1241,07
309,32	1220,59
309,53	1308,65
309,74	1249,26
309,96	1251,31
310,17	1308,65
310,39	1255,40
310,60	1318,89
310,81	1322,99
311,03	1269,74
311,24	1255,40
311,45	1292,27
311,67	1249,26
311,88	1271,79
312,09	1316,84
312,31	1288,17
312,52	1265,64
312,73	1282,03
312,95	1267,69
313,16	1230,83
313,37	1255,40
313,59	1218,54
313,80	1337,32
314,01	1271,79
314,23	1351,66
314,44	1230,83
314,65	1239,02
314,87	1255,40
315,08	1239,02
315,29	1222,64
315,51	1265,64
315,72	1271,79
315,93	1314,80
316,15	1173,49
316,36	1232,88
316,57	1310,70
316,79	1191,92
317,00	1304,56
317,21	1234,93
317,43	1239,02
317,64	1226,73
317,85	1210,35
318,07	1284,08
318,28	1284,08
318,49	1202,16
318,70	1265,64
318,92	1183,73
319,13	1312,75
319,34	1253,36
319,56	1279,98
319,77	1286,12
319,98	1273,84
320,20	1282,03
320,41	1269,74
320,62	1320,94
320,83	1232,88
321,05	1251,31
321,26	1357,80
321,47	1275,88
321,69	1261,55
321,90	1228,78
322,11	1302,51
322,32	1232,88
322,54	1322,99
322,75	1292,27
322,96	1296,36
323,18	1220,59
323,39	1247,21
323,60	1183,73
323,81	1337,32
324,03	1171,44
324,24	1288,17
324,45	1253,36
324,66	1236,97
324,88	1249,26
325,09	1275,88
325,30	1271,79
325,52	1261,55
325,73	1241,07
325,94	1306,60
326,15	1273,84
326,37	1259,50
326,58	1230,83
326,79	1331,18
327,00	1232,88
327,22	1306,60
327,43	1271,79
327,64	1282,03
327,85	1257,45
328,07	1277,93
328,28	1290,22
328,49	1269,74
328,70	1193,97
328,92	1378,28
329,13	1212,40
329,34	1282,03
329,55	1282,03
329,76	1255,40
329,98	1271,79
330,19	1298,41
330,40	1239,02
330,61	1277,93
330,83	1271,79
331,04	1243,12
331,25	1234,93
331,46	1298,41
331,68	1302,51
331,89	1257,45
332,10	1232,88
332,31	1271,79
332,52	1294,32
332,74	1284,08
332,95	1257,45
333,16	1308,65
333,37	1290,22
333,58	1279,98
333,80	1185,77
334,01	1308,65
334,22	1269,74
334,43	1304,56
334,64	1273,84
334,86	1273,84
335,07	1296,36
335,28	1296,36
335,49	1255,40
335,70	1388,52
335,92	1218,54
336,13	1302,51
336,34	1333,23
336,55	1361,90
336,76	1210,35
336,98	1273,84
337,19	1257,45
337,40	1296,36
337,61	1241,07
337,82	1279,98
338,04	1341,42
338,25	1257,45
338,46	1357,80
338,67	1312,75
338,88	1230,83
339,09	1273,84
339,31	1296,36
339,52	1308,65
339,73	1216,49
339,94	1298,41
340,15	1298,41
340,36	1214,45
340,58	1220,59
340,79	1314,80
341,00	1331,18
341,21	1312,75
341,42	1247,21
341,63	1273,84
341,85	1284,08
342,06	1304,56
342,27	1224,69
342,48	1251,31
342,69	1212,40
342,90	1288,17
343,12	1236,97
343,33	1284,08
343,54	1232,88
343,75	1306,60
343,96	1269,74
344,17	1265,64
344,38	1269,74
344,60	1277,93
344,81	1290,22
345,02	1239,02
345,23	1282,03
345,44	1294,32
345,65	1239,02
345,86	1277,93
346,07	1245,16
346,29	1243,12
346,50	1279,98
346,71	1282,03
346,92	1318,89
347,13	1251,31
347,34	1183,73
347,55	1277,93
347,76	1275,88
347,98	1312,75
348,19	1251,31
348,40	1249,26
348,61	1185,77
348,82	1234,93
349,03	1273,84
349,24	1282,03
349,45	1316,84
349,66	1212,40
349,88	1259,50
350,09	1204,21
350,30	1259,50
350,51	1259,50
350,72	1398,76
350,93	1331,18
351,14	1320,94
351,35	1284,08
351,56	1253,36
351,77	1325,04
351,99	1347,56
352,20	1296,36
352,41	1247,21
352,62	1298,41
352,83	1222,64
353,04	1279,98
353,25	1257,45
353,46	1316,84
353,67	1267,69
353,88	1337,32
354,09	1259,50
354,30	1232,88
354,52	1275,88
354,73	1271,79
354,94	1308,65
355,15	1320,94
355,36	1259,50
355,57	1259,50
355,78	1279,98
355,99	1202,16
356,20	1355,76
356,41	1253,36
356,62	1286,12
356,83	1200,11
357,04	1277,93
357,25	1300,46
357,46	1275,88
357,68	1314,80
357,89	1290,22
358,10	1261,55
358,31	1273,84
358,52	1257,45
358,73	1263,60
358,94	1314,80
359,15	1226,73
359,36	1294,32
359,57	1271,79
359,78	1228,78
359,99	1255,40
360,20	1275,88
360,41	1277,93
360,62	1277,93
360,83	1232,88
361,04	1255,40
361,25	1169,39
361,46	1298,41
361,67	1263,60
361,88	1200,11
362,09	1271,79
362,30	1239,02
362,51	1189,87
362,72	1251,31
362,93	1284,08
363,14	1265,64
363,35	1216,49
363,56	1269,74
363,78	1290,22
363,99	1249,26
364,20	1306,60
364,41	1290,22
364,62	1300,46
364,83	1296,36
365,04	1261,55
365,25	1222,64
365,46	1249,26
365,67	1337,32
365,88	1220,59
366,09	1247,21
366,30	1200,11
366,51	1318,89
366,72	1306,60
366,93	1232,88
367,14	1247,21
367,35	1234,93
367,56	1214,45
367,77	1277,93
367,98	1214,45
368,18	1292,27
368,39	1236,97
368,60	1173,49
368,81	1261,55
369,02	1282,03
369,23	1304,56
369,44	1282,03
369,65	1263,60
369,86	1257,45
370,07	1251,31
370,28	1249,26
370,49	1290,22
370,70	1320,94
370,91	1322,99
371,12	1286,12
371,33	1200,11
371,54	1232,88
371,75	1273,84
371,96	1318,89
372,17	1206,25
372,38	1339,37
372,59	1271,79
372,80	1255,40
373,01	1314,80
373,22	1269,74
373,43	1255,40
373,64	1177,58
373,85	1304,56
374,06	1247,21
374,26	1193,97
374,47	1247,21
374,68	1294,32
374,89	1243,12
375,10	1241,07
375,31	1349,61
375,52	1306,60
375,73	1236,97
375,94	1163,25
376,15	1265,64
376,36	1212,40
376,57	1310,70
376,78	1304,56
376,99	1259,50
377,20	1261,55
377,40	1286,12
377,61	1181,68
377,82	1228,78
378,03	1243,12
378,24	1255,40
378,45	1255,40
378,66	1255,40
378,87	1179,63
379,08	1183,73
379,29	1294,32
379,50	1275,88
379,71	1234,93
379,91	1257,45
380,12	1271,79
380,33	1259,50
380,54	1277,93
380,75	1288,17
380,96	1249,26
381,17	1300,46
381,38	1290,22
381,59	1243,12
381,80	1251,31
382,00	1333,23
382,21	1191,92
382,42	1271,79
382,63	1304,56
382,84	1329,13
383,05	1269,74
383,26	1269,74
383,47	1294,32
383,68	1239,02
383,88	1245,16
384,09	1214,45
384,30	1341,42
384,51	1257,45
384,72	1185,77
384,93	1302,51
385,14	1277,93
385,35	1255,40
385,55	1196,01
385,76	1255,40
385,97	1320,94
386,18	1191,92
386,39	1286,12
386,60	1292,27
386,81	1294,32
387,02	1267,69
387,22	1265,64
387,43	1245,16
387,64	1308,65
387,85	1320,94
388,06	1241,07
388,27	1286,12
388,48	1273,84
388,68	1236,97
388,89	1288,17
389,10	1257,45
389,31	1290,22
389,52	1243,12
389,73	1329,13
389,93	1296,36
390,14	1222,64
390,35	1210,35
390,56	1267,69
390,77	1263,60
390,98	1325,04
391,18	1284,08
391,39	1245,16
391,60	1267,69
391,81	1263,60
392,02	1247,21
392,23	1228,78
392,43	1337,32
392,64	1279,98
392,85	1191,92
393,06	1271,79
393,27	1232,88
393,47	1198,06
393,68	1257,45
393,89	1292,27
394,10	1345,52
394,31	1269,74
394,52	1259,50
394,72	1234,93
394,93	1232,88
395,14	1241,07
395,35	1230,83
395,56	1249,26
395,76	1265,64
395,97	1327,08
396,18	1318,89
396,39	1286,12
396,60	1298,41
396,80	1296,36
397,01	1322,99
397,22	1269,74
397,43	1320,94
397,64	1261,55
397,84	1282,03
398,05	1245,16
398,26	1228,78
398,47	1271,79
398,67	1239,02
398,88	1277,93
399,09	1345,52
399,30	1298,41
399,51	1226,73
399,71	1275,88
399,92	1245,16
400,13	1288,17
400,34	1204,21
400,54	1257,45
400,75	1273,84
400,96	1236,97
401,17	1286,12
401,37	1279,98
401,58	1263,60
401,79	1239,02
402,00	1288,17
402,21	1202,16
402,41	1316,84
402,62	1239,02
402,83	1261,55
403,04	1263,60
403,24	1204,21
403,45	1327,08
403,66	1273,84
403,87	1269,74
404,07	1267,69
404,28	1347,56
404,49	1263,60
404,70	1245,16
404,90	1220,59
405,11	1226,73
405,32	1267,69
405,52	1265,64
405,73	1296,36
405,94	1224,69
406,15	1259,50
406,35	1282,03
406,56	1259,50
406,77	1275,88
406,98	1257,45
407,18	1208,30
407,39	1333,23
407,60	1279,98
407,80	1191,92
408,01	1251,31
408,22	1277,93
408,43	1218,54
408,63	1216,49
408,84	1265,64
409,05	1286,12
409,25	1220,59
409,46	1275,88
409,67	1196,01
409,88	1243,12
410,08	1269,74
410,29	1306,60
410,50	1355,76
410,70	1288,17
410,91	1265,64
411,12	1329,13
411,32	1284,08
411,53	1257,45
411,74	1275,88
411,95	1255,40
412,15	1273,84
412,36	1292,27
412,57	1245,16
412,77	1236,97
412,98	1257,45
413,19	1298,41
413,39	1241,07
413,60	1259,50
413,81	1322,99
414,01	1204,21
414,22	1304,56
414,43	1263,60
414,63	1171,44
414,84	1255,40
415,05	1384,43
415,25	1271,79
415,46	1261,55
415,67	1325,04
415,87	1259,50
416,08	1241,07
416,29	1257,45
416,49	1304,56
416,70	1255,40
416,91	1273,84
417,11	1249,26
417,32	1325,04
417,53	1239,02
417,73	1267,69
417,94	1232,88
418,15	1255,40
418,35	1216,49
418,56	1232,88
418,77	1187,82
418,97	1265,64
419,18	1255,40
419,38	1257,45
419,59	1261,55
419,80	1294,32
420,00	1257,45
420,21	1224,69
420,42	1232,88
420,62	1302,51
420,83	1247,21
421,04	1306,60
421,24	1228,78
421,45	1267,69
421,65	1243,12
421,86	1241,07
422,07	1259,50
422,27	1265,64
422,48	1267,69
422,69	1249,26
422,89	1300,46
423,10	1298,41
423,30	1234,93
423,51	1255,40
423,72	1265,64
423,92	1249,26
424,13	1341,42
424,33	1304,56
424,54	1277,93
424,75	1222,64
424,95	1300,46
425,16	1247,21
425,36	1277,93
425,57	1277,93
425,78	1249,26
425,98	1259,50
426,19	1310,70
426,39	1241,07
426,60	1263,60
426,81	1298,41
427,01	1243,12
427,22	1249,26
427,42	1273,84
427,63	1300,46
427,83	1251,31
428,04	1335,28
428,25	1220,59
428,45	1290,22
428,66	1316,84
428,86	1282,03
429,07	1232,88
429,28	1261,55
429,48	1322,99
429,69	1224,69
429,89	1214,45
430,10	1222,64
430,30	1306,60
430,51	1353,71
430,71	1269,74
430,92	1228,78
431,13	1279,98
431,33	1312,75
431,54	1263,60
431,74	1259,50
431,95	1232,88
432,15	1265,64
432,36	1265,64
432,56	1269,74
432,77	1241,07
432,98	1302,51
433,18	1275,88
433,39	1312,75
433,59	1271,79
433,80	1263,60
434,00	1269,74
434,21	1226,73
434,41	1214,45
434,62	1304,56
434,82	1226,73
435,03	1255,40
435,23	1249,26
435,44	1286,12
435,64	1257,45
435,85	1251,31
436,06	1210,35
436,26	1191,92
436,47	1265,64
436,67	1239,02
436,88	1406,95
437,08	1236,97
437,29	1267,69
437,49	1265,64
437,70	1243,12
437,90	1273,84
438,11	1243,12
438,31	1277,93
438,52	1202,16
438,72	1329,13
438,93	1271,79
439,13	1286,12
439,34	1294,32
439,54	1314,80
439,75	1279,98
439,95	1228,78
440,16	1251,31
440,36	1265,64
440,57	1269,74
440,77	1282,03
440,98	1298,41
441,18	1224,69
441,39	1232,88
441,59	1222,64
441,80	1269,74
442,00	1232,88
442,21	1261,55
442,41	1247,21
442,62	1249,26
442,82	1212,40
443,02	1275,88
443,23	1232,88
443,43	1191,92
443,64	1349,61
443,84	1290,22
444,05	1327,08
444,25	1279,98
444,46	1212,40
444,66	1222,64
444,87	1202,16
445,07	1185,77
445,28	1282,03
445,48	1204,21
445,69	1314,80
445,89	1261,55
446,09	1263,60
446,30	1239,02
446,50	1286,12
446,71	1357,80
446,91	1243,12
447,12	1282,03
447,32	1236,97
447,53	1275,88
447,73	1230,83
447,93	1263,60
448,14	1212,40
448,34	1277,93
448,55	1279,98
448,75	1310,70
448,96	1257,45
449,16	1304,56
449,36	1232,88
449,57	1251,31
449,77	1279,98
449,98	1230,83
450,18	1261,55
450,39	1290,22
450,59	1284,08
450,79	1206,25
451,00	1298,41
451,20	1322,99
451,41	1304,56
451,61	1273,84
451,81	1310,70
452,02	1263,60
452,22	1300,46
452,43	1306,60
452,63	1331,18
452,84	1267,69
453,04	1292,27
453,24	1261,55
453,45	1290,22
453,65	1214,45
453,86	1312,75
454,06	1417,19
454,26	1333,23
454,47	1175,53
454,67	1282,03
454,87	1308,65
455,08	1314,80
455,28	1308,65
455,49	1228,78
455,69	1263,60
455,89	1212,40
456,10	1286,12
456,30	1243,12
456,51	1279,98
456,71	1288,17
456,91	1247,21
457,12	1320,94
457,32	1314,80
457,52	1214,45
457,73	1327,08
457,93	1359,85
458,14	1349,61
458,34	1312,75
458,54	1267,69
458,75	1257,45
458,95	1267,69
459,15	1200,11
459,36	1263,60
459,56	1294,32
459,76	1265,64
459,97	1320,94
460,17	1343,47
460,37	1257,45
460,58	1267,69
460,78	1282,03
460,99	1212,40
461,19	1279,98
461,39	1277,93
461,60	1257,45
461,80	1210,35
462,00	1279,98
462,21	1255,40
462,41	1232,88
462,61	1220,59
462,82	1210,35
463,02	1259,50
463,22	1277,93
463,43	1337,32
463,63	1245,16
463,83	1142,77
464,04	1271,79
464,24	1263,60
464,44	1247,21
464,64	1294,32
464,85	1230,83
465,05	1290,22
465,25	1265,64
465,46	1214,45
465,66	1216,49
465,86	1282,03
466,07	1304,56
466,27	1335,28
466,47	1222,64
466,68	1189,87
466,88	1284,08
467,08	1222,64
467,29	1310,70
467,49	1327,08
467,69	1216,49
467,89	1224,69
468,10	1304,56
468,30	1208,30
468,50	1232,88
468,71	1218,54
468,91	1230,83
469,11	1255,40
469,31	1245,16
469,52	1234,93
469,72	1298,41
469,92	1230,83
470,13	1282,03
470,33	1222,64
470,53	1241,07
470,73	1261,55
470,94	1273,84
471,14	1286,12
471,34	1259,50
471,54	1257,45
471,75	1251,31
471,95	1302,51
472,15	1179,63
472,36	1239,02
472,56	1206,25
472,76	1232,88
472,96	1306,60
473,17	1347,56
473,37	1226,73
473,57	1257,45
473,77	1175,53
473,98	1214,45
474,18	1261,55
474,38	1247,21
474,58	1183,73
474,79	1312,75
474,99	1263,60
475,19	1228,78
475,39	1259,50
475,60	1282,03
475,80	1247,21
476,00	1271,79
476,20	1310,70
476,41	1273,84
476,61	1300,46
476,81	1320,94
477,01	1230,83
477,21	1245,16
477,42	1247,21
477,62	1286,12
477,82	1288,17
478,02	1333,23
478,23	1286,12
478,43	1304,56
478,63	1230,83
478,83	1204,21
479,03	1247,21
479,24	1261,55
479,44	1279,98
479,64	1251,31
479,84	1353,71
480,04	1322,99
480,25	1290,22
480,45	1269,74
480,65	1243,12
480,85	1208,30
481,06	1228,78
481,26	1243,12
481,46	1222,64
481,66	1249,26
481,86	1277,93
482,06	1269,74
482,27	1247,21
482,47	1271,79
482,67	1320,94
482,87	1304,56
483,07	1316,84
483,28	1271,79
483,48	1222,64
483,68	1226,73
483,88	1239,02
484,08	1247,21
484,29	1265,64
484,49	1284,08
484,69	1216,49
484,89	1265,64
485,09	1294,32
485,29	1253,36
485,50	1339,37
485,70	1230,83
485,90	1310,70
486,10	1259,50
486,30	1241,07
486,50	1314,80
486,71	1263,60
486,91	1245,16
487,11	1267,69
487,31	1259,50
487,51	1253,36
487,71	1220,59
487,91	1277,93
488,12	1234,93
488,32	1265,64
488,52	1296,36
488,72	1277,93
488,92	1277,93
489,12	1300,46
489,32	1320,94
489,53	1222,64
489,73	1261,55
489,93	1255,40
490,13	1290,22
490,33	1335,28
490,53	1245,16
490,73	1267,69
490,94	1296,36
491,14	1224,69
491,34	1257,45
491,54	1249,26
491,74	1304,56
491,94	1226,73
492,14	1236,97
492,34	1304,56
492,54	1255,40
492,75	1251,31
492,95	1226,73
493,15	1253,36
493,35	1265,64
493,55	1273,84
493,75	1230,83
493,95	1290,22
494,15	1302,51
494,35	1204,21
494,56	1216,49
494,76	1310,70
494,96	1257,45
495,16	1302,51
495,36	1269,74
495,56	1310,70
495,76	1263,60
495,96	1204,21
496,16	1316,84
496,36	1265,64
496,56	1259,50
496,77	1245,16
496,97	1265,64
497,17	1220,59
497,37	1288,17
497,57	1288,17
497,77	1294,32
497,97	1320,94
498,17	1253,36
498,37	1230,83
498,57	1218,54
498,77	1230,83
498,97	1306,60
499,17	1265,64
499,38	1282,03
499,58	1218,54
499,78	1263,60
499,98	1294,32
500,18	1310,70
500,38	1247,21
500,58	1275,88
500,78	1265,64
500,98	1234,93
501,18	1245,16
501,38	1234,93
501,58	1322,99
501,78	1232,88
501,98	1232,88
502,18	1310,70
502,38	1312,75
502,58	1239,02
502,78	1273,84
502,98	1279,98
503,18	1273,84
503,38	1322,99
503,59	1284,08
503,79	1316,84
503,99	1279,98
504,19	1257,45
504,39	1269,74
504,59	1214,45
504,79	1243,12
504,99	1253,36
505,19	1228,78
505,39	1200,11
505,59	1288,17
505,79	1267,69
505,99	1224,69
506,19	1312,75
506,39	1279,98
506,59	1251,31
506,79	1222,64
506,99	1296,36
507,19	1279,98
507,39	1273,84
507,59	1247,21
507,79	1263,60
507,99	1333,23
508,19	1222,64
508,39	1267,69
508,59	1322,99
508,79	1269,74
508,99	1304,56
509,19	1257,45
509,39	1255,40
509,59	1296,36
509,79	1247,21
509,99	1298,41
510,19	1308,65
510,39	1247,21
510,59	1300,46
510,79	1249,26
510,99	1267,69
511,19	1247,21
511,39	1304,56
511,59	1310,70
511,79	1202,16
511,99	1333,23
512,19	1239,02
512,38	1220,59
512,58	1232,88
512,78	1243,12
512,98	1253,36
513,18	1368,04
513,38	1345,52
513,58	1306,60
513,78	1282,03
513,98	1208,30
514,18	1341,42
514,38	1269,74
514,58	1275,88
514,78	1232,88
514,98	1255,40
515,18	1212,40
515,38	1331,18
515,58	1263,60
515,78	1261,55
515,98	1302,51
516,18	1257,45
516,38	1230,83
516,57	1275,88
516,77	1333,23
516,97	1269,74
517,17	1337,32
517,37	1234,93
517,57	1247,21
517,77	1230,83
517,97	1290,22
518,17	1265,64
518,37	1329,13
518,57	1282,03
518,77	1312,75
518,97	1257,45
519,16	1279,98
519,36	1282,03
519,56	1271,79
519,76	1277,93
519,96	1210,35
520,16	1224,69
520,36	1259,50
520,56	1263,60
520,76	1241,07
520,96	1243,12
521,16	1337,32
521,35	1253,36
521,55	1302,51
521,75	1300,46
521,95	1261,55
522,15	1273,84
522,35	1267,69
522,55	1294,32
522,75	1300,46
522,95	1253,36
523,14	1257,45
523,34	1249,26
523,54	1273,84
523,74	1298,41
523,94	1306,60
524,14	1263,60
524,34	1239,02
524,54	1337,32
524,73	1245,16
524,93	1249,26
525,13	1267,69
525,33	1243,12
525,53	1259,50
525,73	1241,07
525,93	1292,27
526,13	1288,17
526,32	1312,75
526,52	1234,93
526,72	1263,60
526,92	1271,79
527,12	1263,60
527,32	1239,02
527,52	1253,36
527,71	1200,11
527,91	1200,11
528,11	1232,88
528,31	1277,93
528,51	1263,60
528,71	1241,07
528,90	1277,93
529,10	1224,69
529,30	1251,31
529,50	1304,56
529,70	1220,59
529,90	1308,65
530,09	1263,60
530,29	1239,02
530,49	1343,47
530,69	1294,32
530,89	1294,32
531,09	1261,55
531,28	1226,73
531,48	1214,45
531,68	1228,78
531,88	1325,04
532,08	1232,88
532,28	1335,28
532,47	1261,55
532,67	1277,93
532,87	1200,11
533,07	1325,04
533,27	1284,08
533,46	1279,98
533,66	1316,84
533,86	1220,59
534,06	1279,98
534,26	1265,64
534,45	1288,17
534,65	1327,08
534,85	1331,18
535,05	1314,80
535,25	1370,09
535,44	1306,60
535,64	1271,79
535,84	1327,08
536,04	1277,93
536,24	1261,55
536,43	1202,16
536,63	1247,21
536,83	1284,08
537,03	1282,03
537,22	1236,97
537,42	1265,64
537,62	1257,45
537,82	1290,22
538,02	1249,26
538,21	1247,21
538,41	1273,84
538,61	1269,74
538,81	1306,60
539,00	1327,08
539,20	1306,60
539,40	1212,40
539,60	1259,50
539,79	1300,46
539,99	1230,83
540,19	1312,75
540,39	1279,98
540,58	1318,89
540,78	1273,84
540,98	1163,25
541,18	1249,26
541,37	1292,27
541,57	1257,45
541,77	1390,57
541,97	1277,93
542,16	1271,79
542,36	1234,93
542,56	1228,78
542,76	1314,80
542,95	1269,74
543,15	1228,78
543,35	1277,93
543,54	1239,02
543,74	1153,01
543,94	1349,61
544,14	1191,92
544,33	1341,42
544,53	1284,08
544,73	1249,26
544,93	1312,75
545,12	1282,03
545,32	1284,08
545,52	1257,45
545,71	1302,51
545,91	1259,50
546,11	1310,70
546,30	1253,36
546,50	1267,69
546,70	1273,84
546,90	1288,17
547,09	1257,45
547,29	1261,55
547,49	1306,60
547,68	1298,41
547,88	1247,21
548,08	1300,46
548,27	1282,03
548,47	1236,97
548,67	1228,78
548,87	1310,70
549,06	1279,98
549,26	1230,83
549,46	1284,08
549,65	1261,55
549,85	1263,60
550,05	1243,12
550,24	1263,60
550,44	1290,22
550,64	1257,45
550,83	1304,56
551,03	1288,17
551,23	1273,84
551,42	1267,69
551,62	1279,98
551,82	1337,32
552,01	1304,56
552,21	1290,22
552,41	1257,45
552,60	1259,50
552,80	1263,60
553,00	1322,99
553,19	1298,41
553,39	1329,13
553,59	1298,41
553,78	1247,21
553,98	1202,16
554,17	1333,23
554,37	1230,83
554,57	1212,40
554,76	1255,40
554,96	1267,69
555,16	1251,31
555,35	1286,12
555,55	1218,54
555,75	1218,54
555,94	1255,40
556,14	1269,74
556,33	1267,69
556,53	1279,98
556,73	1234,93
556,92	1253,36
557,12	1259,50
557,32	1226,73
557,51	1288,17
557,71	1228,78
557,90	1236,97
558,10	1247,21
558,30	1275,88
558,49	1247,21
558,69	1224,69
558,88	1241,07
559,08	1331,18
559,28	1290,22
559,47	1247,21
559,67	1284,08
559,86	1310,70
560,06	1314,80
560,26	1191,92
560,45	1228,78
560,65	1345,52
560,84	1333,23
561,04	1261,55
561,24	1259,50
561,43	1189,87
561,63	1220,59
561,82	1298,41
562,02	1239,02
562,22	1372,14
562,41	1228,78
562,61	1288,17
562,80	1247,21
563,00	1275,88
563,19	1218,54
563,39	1257,45
563,59	1269,74
563,78	1216,49
563,98	1253,36
564,17	1220,59
564,37	1411,05
564,56	1198,06
564,76	1290,22
564,96	1331,18
565,15	1228,78
565,35	1335,28
565,54	1261,55
565,74	1292,27
565,93	1265,64
566,13	1232,88
566,32	1284,08
566,52	1259,50
566,71	1245,16
566,91	1314,80
567,11	1298,41
567,30	1318,89
567,50	1204,21
567,69	1339,37
567,89	1220,59
568,08	1247,21
568,28	1310,70
568,47	1243,12
568,67	1245,16
568,86	1304,56
569,06	1290,22
569,25	1265,64
569,45	1191,92
569,64	1263,60
569,84	1236,97
570,04	1290,22
570,23	1210,35
570,43	1200,11
570,62	1239,02
570,82	1259,50
571,01	1298,41
571,21	1257,45
571,40	1224,69
571,60	1286,12
571,79	1212,40
571,99	1177,58
572,18	1232,88
572,38	1167,34
572,57	1290,22
572,77	1212,40
572,96	1310,70
573,16	1300,46
573,35	1191,92
573,55	1202,16
573,74	1300,46
573,94	1230,83
574,13	1300,46
574,33	1236,97
574,52	1282,03
574,71	1249,26
574,91	1210,35
575,10	1232,88
575,30	1189,87
575,49	1353,71
575,69	1345,52
575,88	1206,25
576,08	1314,80
576,27	1210,35
576,47	1243,12
576,66	1282,03
576,86	1253,36
577,05	1314,80
577,25	1273,84
577,44	1343,47
577,64	1249,26
577,83	1204,21
578,02	1286,12
578,22	1263,60
578,41	1339,37
578,61	1310,70
578,80	1177,58
579,00	1232,88
579,19	1196,01
579,39	1329,13
579,58	1294,32
579,77	1359,85
579,97	1161,20
580,16	1202,16
580,36	1253,36
580,55	1325,04
580,75	1298,41
580,94	1230,83
581,13	1257,45
581,33	1296,36
581,52	1245,16
581,72	1298,41
581,91	1220,59
582,11	1275,88
582,30	1189,87
582,49	1310,70
582,69	1275,88
582,88	1275,88
583,08	1228,78
583,27	1329,13
583,47	1310,70
583,66	1353,71
583,85	1245,16
584,05	1257,45
584,24	1292,27
584,44	1224,69
584,63	1286,12
584,82	1308,65
585,02	1257,45
585,21	1310,70
585,41	1298,41
585,60	1347,56
585,79	1331,18
585,99	1236,97
586,18	1306,60
586,37	1288,17
586,57	1286,12
586,76	1327,08
586,96	1181,68
587,15	1275,88
587,34	1196,01
587,54	1243,12
587,73	1282,03
587,93	1277,93
588,12	1310,70
588,31	1263,60
588,51	1298,41
588,70	1245,16
588,89	1290,22
589,09	1300,46
589,28	1277,93
589,47	1341,42
589,67	1269,74
589,86	1271,79
590,06	1247,21
590,25	1300,46
590,44	1343,47
590,64	1351,66
590,83	1253,36
591,02	1218,54
591,22	1269,74
591,41	1230,83
591,60	1251,31
591,80	1275,88
591,99	1245,16
592,18	1273,84
592,38	1218,54
592,57	1247,21
592,76	1277,93
592,96	1239,02
593,15	1320,94
593,34	1286,12
593,54	1161,20
593,73	1277,93
593,92	1320,94
594,12	1286,12
594,31	1339,37
594,50	1265,64
594,70	1232,88
594,89	1333,23
595,08	1265,64
595,28	1155,05
595,47	1263,60
595,66	1263,60
595,86	1267,69
596,05	1224,69
596,24	1228,78
596,43	1351,66
596,63	1251,31
596,82	1271,79
597,01	1302,51
597,21	1331,18
597,40	1255,40
597,59	1269,74
597,79	1255,40
597,98	1241,07
598,17	1236,97
598,36	1261,55
598,56	1243,12
598,75	1286,12
598,94	1263,60
599,14	1316,84
599,33	1261,55
599,52	1259,50
599,71	1275,88
599,91	1279,98
600,10	1265,64
600,29	1286,12
600,48	1243,12
600,68	1232,88
600,87	1247,21
601,06	1247,21
601,26	1284,08
601,45	1320,94
601,64	1257,45
601,83	1320,94
602,03	1236,97
602,22	1255,40
602,41	1320,94
602,60	1345,52
602,80	1253,36
602,99	1226,73
603,18	1228,78
603,37	1292,27
603,57	1257,45
603,76	1380,33
603,95	1316,84
604,14	1300,46
604,34	1257,45
604,53	1253,36
604,72	1230,83
604,91	1284,08
605,10	1357,80
605,30	1331,18
605,49	1234,93
605,68	1298,41
605,87	1341,42
606,07	1249,26
606,26	1265,64
606,45	1253,36
606,64	1265,64
606,84	1294,32
607,03	1226,73
607,22	1208,30
607,41	1294,32
607,60	1312,75
607,80	1245,16
607,99	1279,98
608,18	1298,41
608,37	1290,22
608,56	1236,97
608,76	1331,18
608,95	1271,79
609,14	1341,42
609,33	1353,71
609,52	1253,36
609,72	1216,49
609,91	1251,31
610,10	1282,03
610,29	1273,84
610,48	1288,17
610,68	1261,55
610,87	1253,36
611,06	1200,11
611,25	1249,26
611,44	1257,45
611,63	1253,36
611,83	1279,98
612,02	1333,23
612,21	1228,78
612,40	1245,16
612,59	1277,93
612,79	1286,12
612,98	1286,12
613,17	1267,69
613,36	1234,93
613,55	1284,08
613,74	1255,40
613,93	1279,98
614,13	1312,75
614,32	1200,11
614,51	1269,74
614,70	1347,56
614,89	1294,32
615,08	1214,45
615,28	1210,35
615,47	1241,07
615,66	1243,12
615,85	1251,31
616,04	1288,17
616,23	1302,51
616,42	1310,70
616,62	1333,23
616,81	1282,03
617,00	1247,21
617,19	1261,55
617,38	1322,99
617,57	1292,27
617,76	1185,77
617,95	1308,65
618,15	1314,80
618,34	1302,51
618,53	1290,22
618,72	1282,03
618,91	1300,46
619,10	1282,03
619,29	1286,12
619,48	1294,32
619,68	1247,21
619,87	1216,49
620,06	1226,73
620,25	1337,32
620,44	1288,17
620,63	1312,75
620,82	1267,69
621,01	1325,04
621,20	1224,69
621,39	1232,88
621,59	1228,78
621,78	1345,52
621,97	1339,37
622,16	1277,93
622,35	1298,41
622,54	1263,60
622,73	1296,36
622,92	1265,64
623,11	1337,32
623,30	1228,78
623,49	1284,08
623,68	1341,42
623,88	1304,56
624,07	1241,07
624,26	1255,40
624,45	1318,89
624,64	1271,79
624,83	1218,54
625,02	1318,89
625,21	1222,64
625,40	1320,94
625,59	1226,73
625,78	1204,21
625,97	1386,47
626,16	1310,70
626,35	1279,98
626,54	1273,84
626,74	1208,30
626,93	1277,93
627,12	1306,60
627,31	1357,80
627,50	1286,12
627,69	1318,89
627,88	1271,79
628,07	1331,18
628,26	1257,45
628,45	1243,12
628,64	1216,49
628,83	1271,79
629,02	1220,59
629,21	1333,23
629,40	1296,36
629,59	1189,87
629,78	1255,40
629,97	1279,98
630,16	1312,75
630,35	1259,50
630,54	1277,93
630,73	1241,07
630,92	1302,51
631,11	1331,18
631,30	1257,45
631,49	1327,08
631,68	1517,54
631,87	3067,86
632,06	8898,42
632,25	17186,55
632,44	18368,23
632,63	17370,87
632,82	9301,87
633,01	4106,18
633,20	3002,32
633,39	2414,56
633,58	2199,52
633,77	1912,80
633,96	1800,16
634,15	1755,11
634,34	1818,60
634,53	1644,52
634,72	1548,26
634,91	1603,56
635,10	1640,42
635,29	1525,74
635,48	1523,69
635,67	1507,30
635,86	1511,40
636,05	1445,87
636,24	1462,25
636,43	1339,37
636,62	1298,41
636,81	1267,69
637,00	1339,37
637,19	1370,09
637,38	1294,32
637,57	1361,90
637,76	1333,23
637,95	1308,65
638,14	1290,22
638,33	1294,32
638,52	1329,13
638,71	1308,65
638,89	1263,60
639,08	1322,99
639,27	1337,32
639,46	1279,98
639,65	1286,12
639,84	1337,32
640,03	1234,93
640,22	1322,99
640,41	1288,17
640,60	1300,46
640,79	1245,16
640,98	1300,46
641,17	1257,45
641,36	1292,27
641,55	1304,56
641,74	1282,03
641,92	1265,64
642,11	1282,03
642,30	1331,18
642,49	1273,84
642,68	1282,03
642,87	1296,36
643,06	1318,89
643,25	1290,22
643,44	1296,36
643,63	1333,23
643,82	1286,12
644,00	1243,12
644,19	1241,07
644,38	1322,99
644,57	1230,83
644,76	1222,64
644,95	1284,08
645,14	1265,64
645,33	1263,60
645,52	1239,02
645,71	1249,26
645,89	1214,45
646,08	1249,26
646,27	1249,26
646,46	1355,76
646,65	1228,78
646,84	1288,17
647,03	1257,45
647,22	1259,50
647,40	1212,40
647,59	1279,98
647,78	1282,03
647,97	1220,59
648,16	1296,36
648,35	1288,17
648,54	1269,74
648,73	1269,74
648,91	1273,84
649,10	1245,16
649,29	1204,21
649,48	1261,55
649,67	1271,79
649,86	1251,31
650,05	1230,83
650,23	1273,84
650,42	1224,69
650,61	1257,45
650,80	1292,27
650,99	1243,12
651,18	1232,88
651,36	1259,50
651,55	1290,22
651,74	1345,52
651,93	1294,32
652,12	1265,64
652,31	1290,22
652,49	1277,93
652,68	1243,12
652,87	1263,60
653,06	1279,98
653,25	1220,59
653,44	1327,08
653,62	1322,99
653,81	1282,03
654,00	1316,84
654,19	1208,30
654,38	1296,36
654,56	1337,32
654,75	1243,12
654,94	1277,93
655,13	1183,73
655,32	1298,41
655,51	1255,40
655,69	1273,84
655,88	1206,25
656,07	1259,50
656,26	1247,21
656,45	1249,26
656,63	1273,84
656,82	1331,18
657,01	1273,84
657,20	1230,83
657,38	1363,95
657,57	1255,40
657,76	1263,60
657,95	1314,80
658,14	1236,97
658,32	1220,59
658,51	1277,93
658,70	1251,31
658,89	1249,26
659,08	1351,66
659,26	1339,37
659,45	1284,08
659,64	1253,36
659,83	1247,21
660,01	1210,35
660,20	1220,59
660,39	1249,26
660,58	1249,26
660,76	1286,12
660,95	1232,88
661,14	1314,80
661,33	1251,31
661,51	1263,60
661,70	1187,82
661,89	1294,32
662,08	1236,97
662,26	1312,75
662,45	1198,06
662,64	1271,79
662,83	1357,80
663,01	1251,31
663,20	1220,59
663,39	1306,60
663,58	1292,27
663,76	1353,71
663,95	1206,25
664,14	1212,40
664,32	1241,07
664,51	1312,75
664,70	1257,45
664,89	1277,93
665,07	1228,78
665,26	1316,84
665,45	1241,07
665,64	1263,60
665,82	1241,07
666,01	1249,26
666,20	1241,07
666,38	1128,43
666,57	1273,84
666,76	1277,93
666,95	1269,74
667,13	1196,01
667,32	1302,51
667,51	1226,73
667,69	1288,17
667,88	1351,66
668,07	1294,32
668,25	1181,68
668,44	1232,88
668,63	1298,41
668,81	1269,74
669,00	1224,69
669,19	1271,79
669,38	1259,50
669,56	1226,73
669,75	1277,93
669,94	1212,40
670,12	1320,94
670,31	1271,79
670,50	1273,84
670,68	1304,56
670,87	1286,12
671,06	1263,60
671,24	1255,40
671,43	1294,32
671,62	1263,60
671,80	1226,73
671,99	1257,45
672,18	1286,12
672,36	1220,59
672,55	1277,93
672,74	1273,84
672,92	1320,94
673,11	1224,69
673,29	1265,64
673,48	1288,17
673,67	1259,50
673,85	1304,56
674,04	1243,12
674,23	1282,03
674,41	1306,60
674,60	1247,21
674,79	1286,12
674,97	1304,56
675,16	1314,80
675,34	1271,79
675,53	1259,50
675,72	1337,32
675,90	1284,08
676,09	1257,45
676,28	1187,82
676,46	1249,26
676,65	1271,79
676,83	1220,59
677,02	1310,70
677,21	1284,08
677,39	1230,83
677,58	1296,36
677,77	1224,69
677,95	1271,79
678,14	1210,35
678,32	1177,58
678,51	1224,69
678,70	1273,84
678,88	1267,69
679,07	1337,32
679,25	1232,88
679,44	1325,04
679,63	1343,47
679,81	1179,63
680,00	1261,55
680,18	1265,64
680,37	1265,64
680,55	1277,93
680,74	1267,69
680,93	1271,79
681,11	1361,90
681,30	1261,55
681,48	1249,26
681,67	1351,66
681,85	1288,17
682,04	1249,26
682,23	1275,88
682,41	1196,01
682,60	1267,69
682,78	1296,36
682,97	1232,88
683,15	1372,14
683,34	1279,98
683,53	1316,84
683,71	1255,40
683,90	1288,17
684,08	1288,17
684,27	1249,26
684,45	1261,55
684,64	1236,97
684,82	1368,04
685,01	1314,80
685,19	1300,46
685,38	1269,74
685,57	1210,35
685,75	1247,21
685,94	1261,55
686,12	1206,25
686,31	1308,65
686,49	1320,94
686,68	1255,40
686,86	1232,88
687,05	1183,73
687,23	1263,60
687,42	1253,36
687,60	1257,45
687,79	1212,40
687,97	1271,79
688,16	1320,94
688,34	1255,40
688,53	1265,64
688,71	1234,93
688,90	1294,32
689,08	1271,79
689,27	1277,93
689,45	1271,79
689,64	1288,17
689,82	1228,78
690,01	1316,84
690,19	1310,70
690,38	1208,30
690,56	1230,83
690,75	1243,12
690,93	1304,56
691,12	1288,17
691,30	1298,41
691,49	1228,78
691,67	1286,12
691,86	1265,64
692,04	1300,46
692,23	1253,36
692,41	1363,95
692,60	1277,93
692,78	1261,55
692,97	1288,17
693,15	1279,98
693,34	1300,46
693,52	1257,45
693,71	1257,45
693,89	1279,98
694,08	1204,21
694,26	1269,74
694,44	1202,16
694,63	1265,64
694,81	1253,36
695,00	1302,51
695,18	1218,54
695,37	1322,99
695,55	1277,93
695,74	1279,98
695,92	1294,32
696,10	1282,03
696,29	1257,45
696,47	1275,88
696,66	1290,22
696,84	1239,02
697,03	1171,44
697,21	1286,12
697,40	1239,02
697,58	1224,69
697,76	1224,69
697,95	1185,77
698,13	1286,12
698,32	1249,26
698,50	1288,17
698,68	1230,83
698,87	1220,59
699,05	1310,70
699,24	1290,22
699,42	1296,36
699,61	1345,52
699,79	1239,02
699,97	1257,45
700,16	1331,18
700,34	1312,75
700,53	1290,22
700,71	1275,88
700,89	1255,40
701,08	1257,45
701,26	1220,59
701,45	1296,36
701,63	1265,64
701,81	1275,88
702,00	1275,88
702,18	1310,70
702,37	1267,69
702,55	1257,45
702,73	1282,03
702,92	1263,60
703,10	1394,67
703,28	1294,32
703,47	1286,12
703,65	1230,83
703,84	1327,08
704,02	1253,36
704,20	1247,21
704,39	1236,97
704,57	1310,70
704,75	1286,12
704,94	1322,99
705,12	1253,36
705,30	1284,08
705,49	1331,18
705,67	1261,55
705,86	1222,64
706,04	1376,24
706,22	1255,40
706,41	1271,79
706,59	1230,83
706,77	1265,64
706,96	1202,16
707,14	1247,21
707,32	1261,55
707,51	1308,65
707,69	1277,93
707,87	1261,55
708,06	1226,73
708,24	1263,60
708,42	1284,08
708,61	1259,50
708,79	1273,84
708,97	1290,22
709,16	1177,58
709,34	1265,64
709,52	1294,32
709,71	1220,59
709,89	1271,79
710,07	1265,64
710,26	1230,83
710,44	1228,78
710,62	1310,70
710,80	1259,50
710,99	1314,80
711,17	1253,36
711,35	1318,89
711,54	1302,51
711,72	1200,11
711,90	1247,21
712,09	1386,47
712,27	1304,56
712,45	1290,22
712,63	1271,79
712,82	1243,12
713,00	1265,64
713,18	1294,32
713,37	1239,02
713,55	1273,84
713,73	1327,08
713,91	1224,69
714,10	1273,84
714,28	1261,55
714,46	1294,32
714,65	1333,23
714,83	1239,02
715,01	1286,12
715,19	1202,16
715,38	1279,98
715,56	1294,32
715,74	1320,94
715,92	1255,40
716,11	1239,02
716,29	1239,02
716,47	1263,60
716,65	1294,32
716,84	1257,45
717,02	1265,64
717,20	1275,88
717,38	1273,84
717,57	1269,74
717,75	1290,22
717,93	1267,69
718,11	1230,83
718,30	1267,69
718,48	1294,32
718,66	1288,17
718,84	1320,94
719,03	1193,97
719,21	1259,50
719,39	1257,45
719,57	1255,40
719,75	1284,08
719,94	1290,22
720,12	1265,64
720,30	1220,59
720,48	1232,88
720,67	1214,45
720,85	1298,41
721,03	1279,98
721,21	1320,94
721,39	1228,78
721,58	1284,08
721,76	1243,12
721,94	1290,22
722,12	1220,59
722,30	1193,97
722,49	1204,21
722,67	1292,27
722,85	1247,21
723,03	1288,17
723,21	1222,64
723,40	1251,31
723,58	1288,17
723,76	1232,88
723,94	1247,21
724,12	1345,52
724,30	1275,88
724,49	1290,22
724,67	1275,88
724,85	1239,02
725,03	1200,11
725,21	1230,83
725,40	1331,18
725,58	1210,35
725,76	1282,03
725,94	1265,64
726,12	1239,02
726,30	1325,04
726,49	1224,69
726,67	1273,84
726,85	1290,22
727,03	1306,60
727,21	1255,40
727,39	1282,03
727,57	1308,65
727,76	1279,98
727,94	1220,59
728,12	1228,78
728,30	1308,65
728,48	1269,74
728,66	1273,84
728,84	1306,60
729,03	1271,79
729,21	1249,26
729,39	1347,56
729,57	1273,84
729,75	1241,07
729,93	1314,80
730,11	1251,31
730,30	1257,45
730,48	1175,53
730,66	1284,08
730,84	1294,32
731,02	1269,74
731,20	1279,98
731,38	1296,36
731,56	1228,78
731,74	1277,93
731,93	1220,59
732,11	1212,40
732,29	1214,45
732,47	1288,17
732,65	1333,23
732,83	1259,50
733,01	1286,12
733,19	1282,03
733,37	1320,94
733,56	1253,36
733,74	1327,08
733,92	1290,22
734,10	1325,04
734,28	1279,98
734,46	1271,79
734,64	1234,93
734,82	1298,41
735,00	1306,60
735,18	1271,79
735,36	1226,73
735,54	1259,50
735,73	1236,97
735,91	1263,60
736,09	1277,93
736,27	1267,69
736,45	1296,36
736,63	1257,45
736,81	1320,94
736,99	1331,18
737,17	1310,70
737,35	1290,22
737,53	1294,32
737,71	1220,59
737,89	1245,16
738,07	1251,31
738,25	1271,79
738,43	1216,49
738,61	1230,83
738,80	1298,41
738,98	1247,21
739,16	1216,49
739,34	1271,79
739,52	1261,55
739,70	1241,07
739,88	1286,12
740,06	1282,03
740,24	1331,18
740,42	1212,40
740,60	1232,88
740,78	1232,88
740,96	1288,17
741,14	1269,74
741,32	1257,45
741,50	1327,08
741,68	1298,41
741,86	1167,34
742,04	1282,03
742,22	1284,08
742,40	1275,88
742,58	1239,02
742,76	1304,56
742,94	1196,01
743,12	1214,45
743,30	1282,03
743,48	1308,65
743,66	1236,97
743,84	1310,70
744,02	1198,06
744,20	1232,88
744,38	1171,44
744,56	1245,16
744,74	1265,64
744,92	1306,60
745,10	1263,60
745,28	1253,36
745,46	1251,31
745,64	1304,56
745,82	1232,88
746,00	1269,74
746,18	1355,76
746,36	1263,60
746,54	1236,97
746,72	1263,60
746,90	1251,31
747,08	1247,21
747,26	1277,93
747,44	1279,98
747,62	1243,12
747,80	1181,68
747,98	1241,07
748,15	1253,36
748,33	1304,56
748,51	1249,26
748,69	1236,97
748,87	1251,31
749,05	1191,92
749,23	1263,60
749,41	1253,36
749,59	1312,75
749,77	1206,25
749,95	1322,99
750,13	1306,60
750,31	1282,03
750,49	1267,69
750,67	1308,65
750,85	1288,17
751,03	1257,45
751,20	1218,54
751,38	1400,81
751,56	1265,64
751,74	1279,98
751,92	1257,45
752,10	1298,41
752,28	1269,74
752,46	1288,17
752,64	1296,36
752,82	1204,21
753,00	1265,64
753,18	1265,64
753,35	1263,60
753,53	1265,64
753,71	1271,79
753,89	1269,74
754,07	1263,60
754,25	1216,49
754,43	1269,74
754,61	1230,83
754,79	1271,79
754,97	1247,21
755,14	1253,36
755,32	1241,07
755,50	1236,97
755,68	1245,16
755,86	1263,60
756,04	1210,35
756,22	1261,55
756,40	1282,03
756,57	1239,02
756,75	1239,02
756,93	1306,60
757,11	1226,73
757,29	1286,12
757,47	1249,26
757,65	1218,54
757,82	1327,08
758,00	1308,65
758,18	1290,22
758,36	1253,36
758,54	1224,69
758,72	1294,32
758,90	1224,69
759,07	1243,12
759,25	1327,08
759,43	1204,21
759,61	1284,08
759,79	1357,80
759,97	1228,78
760,15	1277,93
760,32	1253,36
760,50	1204,21
760,68	1339,37
760,86	1300,46
761,04	1310,70
761,22	1245,16
761,39	1269,74
761,57	1279,98
761,75	1290,22
761,93	1243,12
762,11	1288,17
762,28	1245,16
762,46	1263,60
762,64	1351,66
762,82	1265,64
763,00	1232,88
763,18	1314,80
763,35	1232,88
763,53	1191,92
763,71	1220,59
763,89	1275,88
764,07	1249,26
764,24	1249,26
764,42	1282,03
764,60	1316,84
764,78	1290,22
764,96	1265,64
765,13	1329,13
765,31	1224,69
765,49	1241,07
765,67	1312,75
765,84	1273,84
766,02	1322,99
766,20	1222,64
766,38	1261,55
766,56	1243,12
766,73	1200,11
766,91	1249,26
767,09	1198,06
767,27	1208,30
767,44	1314,80
767,62	1277,93
767,80	1320,94
767,98	1337,32
768,15	1212,40
768,33	1239,02
768,51	1294,32
768,69	1308,65
768,87	1241,07
769,04	1282,03
769,22	1247,21
769,40	1304,56
769,58	1253,36
769,75	1228,78
769,93	1384,43
770,11	1247,21
770,28	1300,46
770,46	1306,60
770,64	1265,64
770,82	1273,84
770,99	1257,45
771,17	1236,97
771,35	1208,30
771,53	1320,94
771,70	1282,03
771,88	1314,80
772,06	1249,26
772,23	1306,60
772,41	1253,36
772,59	1247,21
772,77	1232,88
772,94	1275,88
773,12	1335,28
773,30	1279,98
773,47	1300,46
773,65	1216,49
773,83	1282,03
774,01	1193,97
774,18	1269,74
774,36	1251,31
774,54	1318,89
774,71	1304,56
774,89	1234,93
775,07	1341,42
775,24	1224,69
775,42	1208,30
775,60	1253,36
775,78	1302,51
775,95	1263,60
776,13	1241,07
776,31	1196,01
776,48	1320,94
776,66	1247,21
776,84	1269,74
777,01	1234,93
777,19	1296,36
777,37	1202,16
777,54	1312,75
777,72	1263,60
777,90	1333,23
778,07	1243,12
778,25	1259,50
778,43	1216,49
778,60	1282,03
778,78	1351,66
778,96	1247,21
779,13	1220,59
779,31	1366,00
779,49	1251,31
779,66	1333,23
779,84	1247,21
780,01	1257,45
780,19	1189,87
780,37	1200,11
780,54	1263,60
780,72	1202,16
780,90	1255,40
781,07	1257,45
781,25	1286,12
781,43	1200,11
781,60	1288,17
781,78	1296,36
781,95	1273,84
782,13	1232,88
782,31	1286,12
782,48	1273,84
782,66	1294,32
782,83	1271,79
783,01	1247,21
783,19	1204,21
783,36	1294,32
783,54	1284,08
783,72	1249,26
783,89	1273,84
784,07	1232,88
784,24	1236,97
784,42	1243,12
784,60	1232,88
784,77	1243,12
784,95	1239,02
785,12	1220,59
785,30	1167,34
785,47	1269,74
785,65	1290,22
785,83	1222,64
786,00	1318,89
786,18	1310,70
786,35	1298,41
786,53	1259,50
786,71	1308,65
786,88	1257,45
787,06	1216,49
787,23	1302,51
787,41	1236,97
787,58	1298,41
787,76	1296,36
787,94	1277,93
788,11	1265,64
788,29	1232,88
788,46	1249,26
788,64	1236,97
788,81	1327,08
788,99	1247,21
789,16	1245,16
789,34	1314,80
789,52	1241,07
789,69	1275,88
789,87	1259,50
790,04	1306,60
790,22	1273,84
790,39	1271,79
790,57	1265,64
790,74	1296,36
790,92	1304,56
791,09	1310,70
791,27	1177,58
791,44	1230,83
791,62	1277,93
791,79	1251,31
791,97	1294,32
792,15	1304,56
792,32	1228,78
792,50	1294,32
792,67	1245,16
792,85	1282,03
793,02	1277,93
793,20	1306,60
793,37	1304,56
793,55	1259,50
793,72	1363,95
793,90	1232,88
794,07	1298,41
794,25	1267,69
794,42	1279,98
794,60	1294,32
794,77	1239,02
794,95	1292,27
795,12	1253,36
795,30	1288,17
795,47	1239,02
795,65	1239,02
795,82	1370,09
796,00	1275,88
796,17	1220,59
796,34	1279,98
796,52	1234,93
796,69	1218,54
796,87	1271,79
797,04	1241,07
797,22	1304,56
797,39	1220,59
797,57	1230,83
797,74	1279,98
797,92	1224,69
798,09	1312,75
798,27	1335,28
798,44	1282,03
798,62	1183,73
798,79	1269,74
798,96	1304,56
799,14	1304,56
799,31	1273,84
799,49	1257,45
799,66	1230,83
799,84	1298,41
800,01	1169,39
800,19	1294,32
800,36	1279,98
800,53	1277,93
800,71	1271,79
800,88	1222,64
801,06	1257,45
801,23	1218,54
801,41	1212,40
801,58	1302,51
801,75	1306,60
801,93	1232,88
802,10	1310,70
802,28	1265,64
802,45	1296,36
802,63	1284,08
802,80	1310,70
802,97	1320,94
803,15	1331,18
803,32	1206,25
803,50	1304,56
803,67	1236,97
803,84	1306,60
804,02	1310,70
804,19	1220,59
804,37	1146,86
804,54	1312,75
804,71	1232,88
804,89	1236,97
805,06	1257,45
805,24	1335,28
805,41	1271,79
805,58	1337,32
805,76	1206,25
805,93	1269,74
806,10	1322,99
806,28	1284,08
806,45	1271,79
806,63	1292,27
806,80	1288,17
806,97	1243,12
807,15	1304,56
807,32	1300,46
807,49	1263,60
807,67	1261,55
807,84	1339,37
808,01	1253,36
808,19	1345,52
808,36	1234,93
808,54	1230,83
808,71	1181,68
808,88	1220,59
809,06	1269,74
809,23	1304,56
809,40	1222,64
809,58	1298,41
809,75	1247,21
809,92	1200,11
810,10	1294,32
810,27	1306,60
810,44	1277,93
810,62	1304,56
810,79	1269,74
810,96	1259,50
811,14	1220,59
811,31	1316,84
811,48	1243,12
811,66	1279,98
811,83	1222,64
812,00	1239,02
812,18	1300,46
812,35	1206,25
812,52	1249,26
812,69	1249,26
812,87	1292,27
813,04	1220,59
813,21	1232,88
813,39	1335,28
813,56	1290,22
813,73	1251,31
813,91	1296,36
814,08	1261,55
814,25	1241,07
814,42	1263,60
814,60	1306,60
814,77	1282,03
814,94	1267,69
815,12	1271,79
815,29	1239,02
815,46	1325,04
815,63	1284,08
815,81	1224,69
815,98	1279,98
816,15	1290,22
816,33	1277,93
816,50	1292,27
816,67	1243,12
816,84	1185,77
817,02	1265,64
817,19	1263,60
817,36	1282,03
817,53	1341,42
817,71	1267,69
817,88	1304,56
818,05	1234,93
818,22	1290,22
818,40	1322,99
818,57	1325,04
818,74	1255,40
818,91	1247,21
819,09	1234,93
819,26	1253,36
819,43	1251,31
819,60	1282,03
819,78	1245,16
819,95	1306,60
820,12	1263,60
820,29	1277,93
820,47	1298,41
820,64	1249,26
820,81	1259,50
820,98	1273,84
821,15	1312,75
821,33	1277,93
821,50	1200,11
821,67	1327,08
821,84	1200,11
822,02	1273,84
822,19	1245,16
822,36	1255,40
822,53	1259,50
822,70	1234,93
822,88	1234,93
823,05	1257,45
823,22	1220,59
823,39	1243,12
823,56	1284,08
823,74	1224,69
823,91	1232,88
824,08	1257,45
824,25	1292,27
824,42	1337,32
824,60	1226,73
824,77	1337,32
824,94	1224,69
825,11	1325,04
825,28	1325,04
825,45	1298,41
825,63	1265,64
825,80	1249,26
825,97	1263,60
826,14	1218,54
826,31	1210,35
826,48	1314,80
826,66	1279,98
826,83	1247,21
827,00	1206,25
827,17	1179,63
827,34	1286,12
827,51	1275,88
827,69	1318,89
827,86	1361,90
828,03	1282,03
828,20	1273,84
828,37	1245,16
828,54	1296,36
828,71	1271,79
828,89	1277,93
829,06	1320,94
829,23	1306,60
829,40	1220,59
829,57	1234,93
829,74	1228,78
829,91	1253,36
830,09	1241,07
830,26	1292,27
830,43	1306,60
830,60	1255,40
830,77	1312,75
830,94	1298,41
831,11	1271,79
831,28	1245,16
831,46	1196,01
831,63	1306,60
831,80	1228,78
831,97	1310,70
832,14	1282,03
832,31	1329,13
832,48	1279,98
832,65	1236,97
832,82	1241,07
832,99	1212,40
833,17	1251,31
833,34	1302,51
833,51	1224,69
833,68	1259,50
833,85	1271,79
834,02	1175,53
834,19	1265,64
834,36	1288,17
834,53	1263,60
834,70	1267,69
834,87	1224,69
835,04	1290,22
835,22	1292,27
835,39	1241,07
835,56	1271,79
835,73	1216,49
835,90	1282,03
836,07	1193,97
836,24	1263,60
836,41	1269,74
836,58	1200,11
836,75	1253,36
836,92	1224,69
837,09	1234,93
837,26	1236,97
837,43	1333,23
837,60	1251,31
837,77	1243,12
837,94	1279,98
838,12	1322,99
838,29	1241,07
838,46	1196,01
838,63	1267,69
838,80	1302,51
838,97	1230,83
839,14	1196,01
839,31	1282,03
839,48	1310,70
839,65	1282,03
839,82	1292,27
839,99	1212,40
840,16	1189,87
840,33	1206,25
840,50	1298,41
840,67	1269,74
840,84	1286,12
841,01	1241,07
841,18	1259,50
841,35	1279,98
841,52	1329,13
841,69	1220,59
841,86	1271,79
842,03	1208,30
842,20	1312,75
842,37	1286,12
842,54	1290,22
842,71	1288,17
842,88	1239,02
843,05	1300,46
843,22	1322,99
843,39	1175,53
843,56	1290,22
843,73	1267,69
843,90	1259,50
844,07	1316,84
844,24	1302,51
844,41	1339,37
844,58	1208,30
844,75	1265,64
844,92	1253,36
845,09	1210,35
845,26	1273,84
845,43	1187,82
845,60	1245,16
845,77	1239,02
845,94	1241,07
846,10	1232,88
846,27	1298,41
846,44	1265,64
846,61	1282,03
846,78	1290,22
846,95	1296,36
847,12	1193,97
847,29	1284,08
847,46	1292,27
847,63	1257,45
847,80	1294,32
847,97	1286,12
848,14	1265,64
848,31	1212,40
848,48	1222,64
848,65	1343,47
848,82	1314,80
848,98	1314,80
849,15	1191,92
849,32	1228,78
849,49	1269,74
849,66	1298,41
849,83	1327,08
850,00	1331,18
850,17	1216,49
850,34	1234,93
850,51	1232,88
850,68	1284,08
850,85	1239,02
851,01	1255,40
851,18	1243,12
851,35	1273,84
851,52	1351,66
851,69	1335,28
851,86	1220,59
852,03	1304,56
852,20	1269,74
852,37	1255,40
852,53	1232,88
852,70	1290,22
852,87	1253,36
853,04	1304,56
853,21	1263,60
853,38	1253,36
853,55	1253,36
853,72	1284,08
853,89	1259,50
854,05	1308,65
854,22	1261,55
854,39	1273,84
854,56	1294,32
854,73	1294,32
854,90	1310,70
855,07	1249,26
855,23	1292,27
855,40	1288,17
855,57	1286,12
855,74	1316,84
855,91	1302,51
856,08	1191,92
856,25	1273,84
856,41	1239,02
856,58	1245,16
856,75	1265,64
856,92	1261,55
857,09	1304,56
857,26	1253,36
857,42	1279,98
857,59	1234,93
857,76	1259,50
857,93	1228,78
858,10	1286,12
858,27	1325,04
858,43	1282,03
858,60	1247,21
858,77	1261,55
858,94	1251,31
859,11	1241,07
859,27	1251,31
859,44	1257,45
859,61	1282,03
859,78	1286,12
859,95	1243,12
860,12	1255,40
860,28	1308,65
860,45	1243,12
860,62	1261,55
860,79	1314,80
860,95	1232,88
861,12	1298,41
861,29	1210,35
861,46	1277,93
861,63	1273,84
861,79	1275,88
861,96	1212,40
862,13	1247,21
862,30	1290,22
862,47	1224,69
862,63	1257,45
862,80	1337,32
862,97	1249,26
863,14	1261,55
863,30	1292,27
863,47	1173,49
863,64	1265,64
863,81	1331,18
863,97	1265,64
864,14	1296,36
864,31	1210,35
864,48	1273,84
864,65	1232,88
864,81	1298,41
864,98	1286,12
865,15	1249,26
865,32	1296,36
865,48	1218,54
865,65	1325,04
865,82	1298,41
865,98	1222,64
866,15	1249,26
866,32	1228,78
866,49	1241,07
866,65	1259,50
866,82	1261,55
866,99	1224,69
867,16	1249,26
867,32	1259,50
867,49	1306,60
867,66	1290,22
867,83	1314,80
867,99	1257,45
868,16	1236,97
868,33	1241,07
868,49	1206,25
868,66	1269,74
868,83	1249,26
868,99	1261,55
869,16	1275,88
869,33	1243,12
869,50	1282,03
869,66	1269,74
869,83	1312,75
870,00	1232,88
870,16	1279,98
870,33	1236,97
870,50	1288,17
870,66	1335,28
870,83	1271,79
871,00	1243,12
871,17	1284,08
871,33	1269,74
871,50	1251,31
871,67	1300,46
871,83	1288,17
872,00	1220,59
872,17	1327,08
872,33	1230,83
872,50	1318,89
872,67	1269,74
872,83	1263,60
873,00	1284,08
873,17	1259,50
873,33	1378,28
873,50	1271,79
873,67	1298,41
873,83	1239,02
874,00	1273,84
874,16	1234,93
874,33	1310,70
874,50	1183,73
874,66	1261,55
874,83	1298,41
875,00	1204,21
875,16	1329,13
875,33	1302,51
875,50	1251,31
875,66	1218,54
875,83	1282,03
875,99	1239,02
876,16	1308,65
876,33	1286,12
876,49	1273,84
876,66	1130,48
876,83	1296,36
876,99	1263,60
877,16	1255,40
877,32	1214,45
877,49	1279,98
877,66	1228,78
877,82	1216,49
877,99	1314,80
878,15	1265,64
878,32	1261,55
878,49	1255,40
878,65	1202,16
878,82	1265,64
878,98	1245,16
879,15	1310,70
879,32	1226,73
879,48	1241,07
879,65	1284,08
879,81	1200,11
879,98	1306,60
880,15	1284,08
880,31	1261,55
880,48	1245,16
880,64	1196,01
880,81	1282,03
880,97	1265,64
881,14	1337,32
881,31	1187,82
881,47	1269,74
881,64	1257,45
881,80	1275,88
881,97	1212,40
882,13	1282,03
882,30	1208,30
882,47	1284,08
882,63	1206,25
882,80	1279,98
882,96	1271,79
883,13	1249,26
883,29	1249,26
883,46	1302,51
883,62	1290,22
883,79	1243,12
883,95	1253,36
884,12	1249,26
884,29	1232,88
884,45	1294,32
884,62	1224,69
884,78	1282,03
884,95	1249,26
885,11	1253,36
885,28	1318,89
885,44	1296,36
885,61	1277,93
885,77	1296,36
885,94	1259,50
886,10	1306,60
886,27	1296,36
886,43	1294,32
886,60	1286,12
886,76	1288,17
886,93	1290,22
887,09	1239,02
887,26	1288,17
887,42	1296,36
887,59	1286,12
887,75	1245,16
887,92	1294,32
888,08	1271,79
888,25	1286,12
888,41	1261,55
888,58	1255,40
888,74	1261,55
888,91	1290,22
>>>>>End Processed Spectral Data<<<<<
