SpectraSuite Data File
++++++++++++++++++++++++++++++++++++
Date: Sun Apr 03 17:11:04 CEST 2016
User: root
Dark Spectrum Present: No
Reference Spectrum Present: No
Number of Sampled Component Spectra: 1
Spectrometers: USB4C02835
Integration Time (usec): 10000 (USB4C02835)
Spectra Averaged: 1 (USB4C02835)
Boxcar Smoothing: 0 (USB4C02835)
Correct for Electrical Dark: No (USB4C02835)
Strobe/Lamp Enabled: No (USB4C02835)
Correct for Detector Non-linearity: No (USB4C02835)
Correct for Stray Light: No (USB4C02835)
Number of Pixels in Processed Spectrum: 3648
>>>>>Begin Processed Spectral Data<<<<<
177,47	1302,51
177,69	1302,51
177,91	1302,51
178,13	1304,56
178,36	1310,70
178,58	1325,04
178,80	1366,00
179,02	1232,88
179,24	1322,99
179,46	1327,08
179,68	1282,03
179,90	1290,22
180,13	1259,50
180,35	1241,07
180,57	1282,03
180,79	1284,08
181,01	1306,60
181,23	1329,13
181,45	1277,93
181,67	1329,13
181,90	1286,12
182,12	1261,55
182,34	1300,46
182,56	1234,93
182,78	1298,41
183,00	1241,07
183,22	1251,31
183,44	1263,60
183,66	1290,22
183,89	1357,80
184,11	1226,73
184,33	1267,69
184,55	1157,10
184,77	1241,07
184,99	1292,27
185,21	1296,36
185,43	1300,46
185,65	1236,97
185,87	1251,31
186,10	1279,98
186,32	1308,65
186,54	1263,60
186,76	1232,88
186,98	1214,45
187,20	1275,88
187,42	1277,93
187,64	1290,22
187,86	1257,45
188,08	1286,12
188,30	1327,08
188,52	1247,21
188,75	1286,12
188,97	1232,88
189,19	1304,56
189,41	1155,05
189,63	1239,02
189,85	1273,84
190,07	1220,59
190,29	1239,02
190,51	1187,82
190,73	1230,83
190,95	1329,13
191,17	1314,80
191,39	1259,50
191,61	1247,21
191,84	1249,26
192,06	1263,60
192,28	1191,92
192,50	1314,80
192,72	1249,26
192,94	1273,84
193,16	1322,99
193,38	1263,60
193,60	1224,69
193,82	1279,98
194,04	1312,75
194,26	1282,03
194,48	1292,27
194,70	1230,83
194,92	1255,40
195,14	1290,22
195,36	1298,41
195,58	1292,27
195,80	1343,47
196,02	1275,88
196,24	1265,64
196,46	1286,12
196,69	1275,88
196,91	1300,46
197,13	1271,79
197,35	1304,56
197,57	1279,98
197,79	1306,60
198,01	1255,40
198,23	1273,84
198,45	1314,80
198,67	1236,97
198,89	1224,69
199,11	1273,84
199,33	1228,78
199,55	1257,45
199,77	1255,40
199,99	1273,84
200,21	1249,26
200,43	1232,88
200,65	1310,70
200,87	1353,71
201,09	1265,64
201,31	1234,93
201,53	1308,65
201,75	1277,93
201,97	1333,23
202,19	1247,21
202,41	1290,22
202,63	1314,80
202,85	1331,18
203,07	1300,46
203,29	1255,40
203,51	1314,80
203,73	1230,83
203,95	1345,52
204,17	1230,83
204,39	1284,08
204,61	1220,59
204,83	1273,84
205,05	1304,56
205,27	1265,64
205,49	1245,16
205,71	1277,93
205,93	1259,50
206,15	1286,12
206,37	1232,88
206,59	1261,55
206,81	1337,32
207,03	1296,36
207,25	1263,60
207,47	1318,89
207,69	1259,50
207,91	1241,07
208,13	1298,41
208,34	1279,98
208,56	1234,93
208,78	1263,60
209,00	1263,60
209,22	1275,88
209,44	1277,93
209,66	1273,84
209,88	1329,13
210,10	1304,56
210,32	1220,59
210,54	1286,12
210,76	1300,46
210,98	1247,21
211,20	1282,03
211,42	1265,64
211,64	1206,25
211,86	1271,79
212,08	1232,88
212,30	1286,12
212,52	1269,74
212,74	1267,69
212,96	1236,97
213,17	1294,32
213,39	1290,22
213,61	1243,12
213,83	1263,60
214,05	1308,65
214,27	1269,74
214,49	1247,21
214,71	1308,65
214,93	1269,74
215,15	1277,93
215,37	1230,83
215,59	1292,27
215,81	1361,90
216,03	1267,69
216,24	1300,46
216,46	1259,50
216,68	1228,78
216,90	1269,74
217,12	1288,17
217,34	1306,60
217,56	1243,12
217,78	1218,54
218,00	1273,84
218,22	1298,41
218,44	1239,02
218,66	1271,79
218,87	1271,79
219,09	1267,69
219,31	1249,26
219,53	1241,07
219,75	1255,40
219,97	1265,64
220,19	1284,08
220,41	1306,60
220,63	1275,88
220,85	1247,21
221,06	1279,98
221,28	1290,22
221,50	1243,12
221,72	1226,73
221,94	1261,55
222,16	1292,27
222,38	1236,97
222,60	1290,22
222,82	1331,18
223,03	1290,22
223,25	1232,88
223,47	1306,60
223,69	1306,60
223,91	1232,88
224,13	1318,89
224,35	1261,55
224,57	1271,79
224,78	1265,64
225,00	1218,54
225,22	1308,65
225,44	1398,76
225,66	1257,45
225,88	1298,41
226,10	1327,08
226,32	1232,88
226,53	1181,68
226,75	1232,88
226,97	1298,41
227,19	1308,65
227,41	1275,88
227,63	1243,12
227,85	1226,73
228,06	1273,84
228,28	1300,46
228,50	1292,27
228,72	1292,27
228,94	1304,56
229,16	1329,13
229,37	1148,91
229,59	1232,88
229,81	1251,31
230,03	1277,93
230,25	1273,84
230,47	1298,41
230,69	1257,45
230,90	1265,64
231,12	1361,90
231,34	1267,69
231,56	1290,22
231,78	1239,02
232,00	1232,88
232,21	1351,66
232,43	1265,64
232,65	1222,64
232,87	1259,50
233,09	1243,12
233,30	1265,64
233,52	1275,88
233,74	1249,26
233,96	1279,98
234,18	1322,99
234,40	1267,69
234,61	1300,46
234,83	1269,74
235,05	1345,52
235,27	1249,26
235,49	1245,16
235,70	1308,65
235,92	1247,21
236,14	1290,22
236,36	1277,93
236,58	1239,02
236,79	1255,40
237,01	1200,11
237,23	1286,12
237,45	1251,31
237,67	1239,02
237,88	1247,21
238,10	1286,12
238,32	1314,80
238,54	1310,70
238,76	1236,97
238,97	1320,94
239,19	1230,83
239,41	1269,74
239,63	1284,08
239,85	1296,36
240,06	1290,22
240,28	1296,36
240,50	1290,22
240,72	1286,12
240,93	1284,08
241,15	1269,74
241,37	1296,36
241,59	1236,97
241,81	1210,35
242,02	1284,08
242,24	1263,60
242,46	1273,84
242,68	1247,21
242,89	1236,97
243,11	1333,23
243,33	1300,46
243,55	1275,88
243,76	1308,65
243,98	1284,08
244,20	1273,84
244,42	1263,60
244,64	1300,46
244,85	1173,49
245,07	1366,00
245,29	1247,21
245,51	1279,98
245,72	1257,45
245,94	1286,12
246,16	1294,32
246,38	1282,03
246,59	1300,46
246,81	1263,60
247,03	1357,80
247,24	1265,64
247,46	1228,78
247,68	1216,49
247,90	1251,31
248,11	1253,36
248,33	1263,60
248,55	1198,06
248,77	1232,88
248,98	1290,22
249,20	1314,80
249,42	1277,93
249,64	1261,55
249,85	1265,64
250,07	1271,79
250,29	1191,92
250,50	1284,08
250,72	1306,60
250,94	1271,79
251,16	1282,03
251,37	1271,79
251,59	1286,12
251,81	1224,69
252,02	1265,64
252,24	1193,97
252,46	1251,31
252,68	1204,21
252,89	1255,40
253,11	1277,93
253,33	1314,80
253,54	1255,40
253,76	1271,79
253,98	1302,51
254,20	1372,14
254,41	1169,39
254,63	1263,60
254,85	1275,88
255,06	1288,17
255,28	1241,07
255,50	1241,07
255,71	1232,88
255,93	1263,60
256,15	1271,79
256,36	1239,02
256,58	1236,97
256,80	1255,40
257,02	1214,45
257,23	1279,98
257,45	1214,45
257,67	1265,64
257,88	1282,03
258,10	1310,70
258,32	1232,88
258,53	1230,83
258,75	1216,49
258,97	1298,41
259,18	1277,93
259,40	1306,60
259,62	1226,73
259,83	1232,88
260,05	1251,31
260,27	1277,93
260,48	1224,69
260,70	1277,93
260,92	1263,60
261,13	1218,54
261,35	1314,80
261,57	1267,69
261,78	1312,75
262,00	1310,70
262,22	1374,19
262,43	1257,45
262,65	1269,74
262,86	1277,93
263,08	1236,97
263,30	1267,69
263,51	1255,40
263,73	1263,60
263,95	1218,54
264,16	1286,12
264,38	1345,52
264,60	1335,28
264,81	1290,22
265,03	1239,02
265,25	1220,59
265,46	1310,70
265,68	1294,32
265,89	1204,21
266,11	1337,32
266,33	1304,56
266,54	1306,60
266,76	1327,08
266,98	1267,69
267,19	1306,60
267,41	1300,46
267,62	1310,70
267,84	1284,08
268,06	1322,99
268,27	1288,17
268,49	1308,65
268,70	1286,12
268,92	1282,03
269,14	1257,45
269,35	1296,36
269,57	1294,32
269,79	1214,45
270,00	1259,50
270,22	1310,70
270,43	1279,98
270,65	1314,80
270,87	1247,21
271,08	1259,50
271,30	1296,36
271,51	1255,40
271,73	1273,84
271,95	1325,04
272,16	1236,97
272,38	1273,84
272,59	1261,55
272,81	1275,88
273,02	1314,80
273,24	1296,36
273,46	1232,88
273,67	1257,45
273,89	1304,56
274,10	1263,60
274,32	1302,51
274,54	1290,22
274,75	1294,32
274,97	1265,64
275,18	1224,69
275,40	1257,45
275,61	1210,35
275,83	1232,88
276,05	1249,26
276,26	1236,97
276,48	1187,82
276,69	1333,23
276,91	1294,32
277,12	1243,12
277,34	1269,74
277,55	1253,36
277,77	1259,50
277,99	1230,83
278,20	1279,98
278,42	1236,97
278,63	1279,98
278,85	1267,69
279,06	1286,12
279,28	1284,08
279,49	1298,41
279,71	1290,22
279,93	1286,12
280,14	1249,26
280,36	1275,88
280,57	1234,93
280,79	1284,08
281,00	1271,79
281,22	1253,36
281,43	1322,99
281,65	1232,88
281,86	1282,03
282,08	1239,02
282,29	1292,27
282,51	1220,59
282,73	1204,21
282,94	1318,89
283,16	1247,21
283,37	1273,84
283,59	1273,84
283,80	1294,32
284,02	1224,69
284,23	1189,87
284,45	1304,56
284,66	1312,75
284,88	1251,31
285,09	1271,79
285,31	1275,88
285,52	1267,69
285,74	1226,73
285,95	1263,60
286,17	1239,02
286,38	1255,40
286,60	1253,36
286,81	1271,79
287,03	1294,32
287,24	1228,78
287,46	1234,93
287,67	1298,41
287,89	1304,56
288,10	1290,22
288,32	1239,02
288,53	1257,45
288,75	1175,53
288,96	1290,22
289,18	1230,83
289,39	1275,88
289,61	1257,45
289,82	1259,50
290,04	1255,40
290,25	1290,22
290,47	1302,51
290,68	1232,88
290,90	1179,63
291,11	1255,40
291,33	1257,45
291,54	1322,99
291,76	1216,49
291,97	1284,08
292,18	1286,12
292,40	1306,60
292,61	1255,40
292,83	1263,60
293,04	1302,51
293,26	1269,74
293,47	1255,40
293,69	1304,56
293,90	1210,35
294,12	1314,80
294,33	1279,98
294,55	1210,35
294,76	1286,12
294,97	1304,56
295,19	1273,84
295,40	1277,93
295,62	1329,13
295,83	1292,27
296,05	1181,68
296,26	1271,79
296,48	1277,93
296,69	1329,13
296,90	1253,36
297,12	1353,71
297,33	1253,36
297,55	1300,46
297,76	1236,97
297,98	1204,21
298,19	1282,03
298,41	1193,97
298,62	1232,88
298,83	1286,12
299,05	1226,73
299,26	1261,55
299,48	1277,93
299,69	1249,26
299,90	1259,50
300,12	1230,83
300,33	1265,64
300,55	1296,36
300,76	1204,21
300,98	1329,13
301,19	1273,84
301,40	1277,93
301,62	1294,32
301,83	1271,79
302,05	1300,46
302,26	1271,79
302,47	1329,13
302,69	1288,17
302,90	1257,45
303,12	1232,88
303,33	1269,74
303,54	1269,74
303,76	1292,27
303,97	1236,97
304,19	1265,64
304,40	1296,36
304,61	1253,36
304,83	1210,35
305,04	1269,74
305,26	1193,97
305,47	1302,51
305,68	1271,79
305,90	1290,22
306,11	1239,02
306,33	1331,18
306,54	1241,07
306,75	1310,70
306,97	1241,07
307,18	1261,55
307,39	1251,31
307,61	1284,08
307,82	1263,60
308,04	1325,04
308,25	1241,07
308,46	1282,03
308,68	1161,20
308,89	1273,84
309,10	1220,59
309,32	1261,55
309,53	1277,93
309,74	1294,32
309,96	1290,22
310,17	1267,69
310,39	1230,83
310,60	1255,40
310,81	1263,60
311,03	1273,84
311,24	1304,56
311,45	1271,79
311,67	1347,56
311,88	1288,17
312,09	1228,78
312,31	1296,36
312,52	1224,69
312,73	1247,21
312,95	1255,40
313,16	1249,26
313,37	1292,27
313,59	1236,97
313,80	1279,98
314,01	1255,40
314,23	1200,11
314,44	1269,74
314,65	1216,49
314,87	1333,23
315,08	1290,22
315,29	1259,50
315,51	1247,21
315,72	1296,36
315,93	1247,21
316,15	1230,83
316,36	1286,12
316,57	1300,46
316,79	1286,12
317,00	1267,69
317,21	1214,45
317,43	1243,12
317,64	1271,79
317,85	1230,83
318,07	1292,27
318,28	1196,01
318,49	1298,41
318,70	1249,26
318,92	1224,69
319,13	1263,60
319,34	1261,55
319,56	1224,69
319,77	1376,24
319,98	1239,02
320,20	1296,36
320,41	1308,65
320,62	1257,45
320,83	1279,98
321,05	1337,32
321,26	1249,26
321,47	1202,16
321,69	1290,22
321,90	1218,54
322,11	1284,08
322,32	1269,74
322,54	1284,08
322,75	1273,84
322,96	1253,36
323,18	1288,17
323,39	1290,22
323,60	1224,69
323,81	1245,16
324,03	1339,37
324,24	1243,12
324,45	1255,40
324,66	1302,51
324,88	1355,76
325,09	1302,51
325,30	1296,36
325,52	1220,59
325,73	1273,84
325,94	1296,36
326,15	1279,98
326,37	1216,49
326,58	1208,30
326,79	1318,89
327,00	1292,27
327,22	1353,71
327,43	1288,17
327,64	1325,04
327,85	1222,64
328,07	1288,17
328,28	1271,79
328,49	1286,12
328,70	1216,49
328,92	1269,74
329,13	1243,12
329,34	1228,78
329,55	1292,27
329,76	1220,59
329,98	1310,70
330,19	1304,56
330,40	1312,75
330,61	1277,93
330,83	1296,36
331,04	1325,04
331,25	1322,99
331,46	1320,94
331,68	1273,84
331,89	1298,41
332,10	1212,40
332,31	1308,65
332,52	1282,03
332,74	1216,49
332,95	1292,27
333,16	1239,02
333,37	1288,17
333,58	1255,40
333,80	1290,22
334,01	1322,99
334,22	1269,74
334,43	1312,75
334,64	1298,41
334,86	1294,32
335,07	1304,56
335,28	1255,40
335,49	1216,49
335,70	1296,36
335,92	1179,63
336,13	1269,74
336,34	1251,31
336,55	1267,69
336,76	1298,41
336,98	1288,17
337,19	1294,32
337,40	1249,26
337,61	1341,42
337,82	1359,85
338,04	1322,99
338,25	1257,45
338,46	1263,60
338,67	1230,83
338,88	1282,03
339,09	1347,56
339,31	1226,73
339,52	1284,08
339,73	1269,74
339,94	1269,74
340,15	1224,69
340,36	1290,22
340,58	1269,74
340,79	1255,40
341,00	1251,31
341,21	1232,88
341,42	1294,32
341,63	1216,49
341,85	1245,16
342,06	1288,17
342,27	1257,45
342,48	1214,45
342,69	1222,64
342,90	1249,26
343,12	1312,75
343,33	1220,59
343,54	1318,89
343,75	1279,98
343,96	1271,79
344,17	1226,73
344,38	1355,76
344,60	1298,41
344,81	1292,27
345,02	1206,25
345,23	1218,54
345,44	1349,61
345,65	1255,40
345,86	1257,45
346,07	1226,73
346,29	1298,41
346,50	1341,42
346,71	1329,13
346,92	1327,08
347,13	1239,02
347,34	1239,02
347,55	1241,07
347,76	1255,40
347,98	1204,21
348,19	1247,21
348,40	1318,89
348,61	1269,74
348,82	1249,26
349,03	1284,08
349,24	1345,52
349,45	1212,40
349,66	1296,36
349,88	1343,47
350,09	1239,02
350,30	1298,41
350,51	1269,74
350,72	1347,56
350,93	1290,22
351,14	1173,49
351,35	1245,16
351,56	1263,60
351,77	1253,36
351,99	1308,65
352,20	1298,41
352,41	1241,07
352,62	1294,32
352,83	1193,97
353,04	1247,21
353,25	1275,88
353,46	1247,21
353,67	1261,55
353,88	1189,87
354,09	1200,11
354,30	1193,97
354,52	1230,83
354,73	1263,60
354,94	1273,84
355,15	1331,18
355,36	1263,60
355,57	1320,94
355,78	1257,45
355,99	1308,65
356,20	1232,88
356,41	1355,76
356,62	1318,89
356,83	1230,83
357,04	1245,16
357,25	1306,60
357,46	1218,54
357,68	1265,64
357,89	1200,11
358,10	1333,23
358,31	1267,69
358,52	1347,56
358,73	1279,98
358,94	1271,79
359,15	1177,58
359,36	1300,46
359,57	1241,07
359,78	1331,18
359,99	1263,60
360,20	1265,64
360,41	1269,74
360,62	1191,92
360,83	1271,79
361,04	1296,36
361,25	1300,46
361,46	1298,41
361,67	1275,88
361,88	1220,59
362,09	1298,41
362,30	1267,69
362,51	1288,17
362,72	1259,50
362,93	1222,64
363,14	1302,51
363,35	1239,02
363,56	1161,20
363,78	1239,02
363,99	1275,88
364,20	1288,17
364,41	1277,93
364,62	1341,42
364,83	1187,82
365,04	1279,98
365,25	1263,60
365,46	1312,75
365,67	1224,69
365,88	1267,69
366,09	1318,89
366,30	1218,54
366,51	1271,79
366,72	1304,56
366,93	1310,70
367,14	1257,45
367,35	1228,78
367,56	1228,78
367,77	1239,02
367,98	1298,41
368,18	1282,03
368,39	1226,73
368,60	1292,27
368,81	1296,36
369,02	1279,98
369,23	1267,69
369,44	1275,88
369,65	1275,88
369,86	1255,40
370,07	1263,60
370,28	1288,17
370,49	1263,60
370,70	1310,70
370,91	1288,17
371,12	1265,64
371,33	1284,08
371,54	1290,22
371,75	1267,69
371,96	1241,07
372,17	1277,93
372,38	1181,68
372,59	1259,50
372,80	1282,03
373,01	1257,45
373,22	1277,93
373,43	1275,88
373,64	1257,45
373,85	1290,22
374,06	1259,50
374,26	1265,64
374,47	1294,32
374,68	1345,52
374,89	1239,02
375,10	1269,74
375,31	1298,41
375,52	1230,83
375,73	1284,08
375,94	1234,93
376,15	1337,32
376,36	1239,02
376,57	1273,84
376,78	1279,98
376,99	1263,60
377,20	1275,88
377,40	1218,54
377,61	1230,83
377,82	1327,08
378,03	1314,80
378,24	1294,32
378,45	1320,94
378,66	1216,49
378,87	1230,83
379,08	1236,97
379,29	1331,18
379,50	1259,50
379,71	1198,06
379,91	1273,84
380,12	1296,36
380,33	1251,31
380,54	1302,51
380,75	1292,27
380,96	1257,45
381,17	1273,84
381,38	1316,84
381,59	1247,21
381,80	1253,36
382,00	1253,36
382,21	1298,41
382,42	1292,27
382,63	1331,18
382,84	1239,02
383,05	1249,26
383,26	1265,64
383,47	1286,12
383,68	1322,99
383,88	1245,16
384,09	1318,89
384,30	1232,88
384,51	1314,80
384,72	1294,32
384,93	1226,73
385,14	1193,97
385,35	1265,64
385,55	1214,45
385,76	1300,46
385,97	1234,93
386,18	1277,93
386,39	1249,26
386,60	1300,46
386,81	1220,59
387,02	1282,03
387,22	1230,83
387,43	1251,31
387,64	1345,52
387,85	1282,03
388,06	1200,11
388,27	1286,12
388,48	1263,60
388,68	1298,41
388,89	1282,03
389,10	1286,12
389,31	1224,69
389,52	1271,79
389,73	1191,92
389,93	1300,46
390,14	1284,08
390,35	1220,59
390,56	1216,49
390,77	1249,26
390,98	1304,56
391,18	1339,37
391,39	1300,46
391,60	1296,36
391,81	1216,49
392,02	1275,88
392,23	1163,25
392,43	1294,32
392,64	1259,50
392,85	1290,22
393,06	1282,03
393,27	1282,03
393,47	1198,06
393,68	1282,03
393,89	1236,97
394,10	1286,12
394,31	1232,88
394,52	1351,66
394,72	1290,22
394,93	1333,23
395,14	1257,45
395,35	1273,84
395,56	1247,21
395,76	1279,98
395,97	1312,75
396,18	1269,74
396,39	1249,26
396,60	1251,31
396,80	1249,26
397,01	1210,35
397,22	1310,70
397,43	1263,60
397,64	1259,50
397,84	1282,03
398,05	1228,78
398,26	1288,17
398,47	1349,61
398,67	1308,65
398,88	1263,60
399,09	1275,88
399,30	1316,84
399,51	1257,45
399,71	1302,51
399,92	1339,37
400,13	1220,59
400,34	1286,12
400,54	1286,12
400,75	1239,02
400,96	1359,85
401,17	1304,56
401,37	1236,97
401,58	1316,84
401,79	1298,41
402,00	1298,41
402,21	1267,69
402,41	1220,59
402,62	1271,79
402,83	1382,38
403,04	1384,43
403,24	1275,88
403,45	1296,36
403,66	1239,02
403,87	1343,47
404,07	1255,40
404,28	1239,02
404,49	1298,41
404,70	1273,84
404,90	1314,80
405,11	1257,45
405,32	1372,14
405,52	1304,56
405,73	1249,26
405,94	1228,78
406,15	1257,45
406,35	1157,10
406,56	1245,16
406,77	1204,21
406,98	1267,69
407,18	1247,21
407,39	1259,50
407,60	1314,80
407,80	1284,08
408,01	1239,02
408,22	1228,78
408,43	1286,12
408,63	1185,77
408,84	1255,40
409,05	1273,84
409,25	1286,12
409,46	1279,98
409,67	1277,93
409,88	1208,30
410,08	1304,56
410,29	1335,28
410,50	1312,75
410,70	1306,60
410,91	1251,31
411,12	1269,74
411,32	1288,17
411,53	1300,46
411,74	1273,84
411,95	1290,22
412,15	1335,28
412,36	1259,50
412,57	1259,50
412,77	1277,93
412,98	1267,69
413,19	1265,64
413,39	1236,97
413,60	1269,74
413,81	1257,45
414,01	1255,40
414,22	1298,41
414,43	1185,77
414,63	1232,88
414,84	1251,31
415,05	1273,84
415,25	1273,84
415,46	1253,36
415,67	1310,70
415,87	1277,93
416,08	1327,08
416,29	1222,64
416,49	1255,40
416,70	1232,88
416,91	1204,21
417,11	1150,96
417,32	1200,11
417,53	1290,22
417,73	1304,56
417,94	1267,69
418,15	1312,75
418,35	1351,66
418,56	1325,04
418,77	1253,36
418,97	1288,17
419,18	1236,97
419,38	1232,88
419,59	1290,22
419,80	1302,51
420,00	1251,31
420,21	1263,60
420,42	1159,15
420,62	1271,79
420,83	1257,45
421,04	1327,08
421,24	1261,55
421,45	1265,64
421,65	1259,50
421,86	1249,26
422,07	1306,60
422,27	1353,71
422,48	1349,61
422,69	1234,93
422,89	1234,93
423,10	1327,08
423,30	1241,07
423,51	1320,94
423,72	1210,35
423,92	1294,32
424,13	1292,27
424,33	1267,69
424,54	1290,22
424,75	1263,60
424,95	1198,06
425,16	1300,46
425,36	1236,97
425,57	1286,12
425,78	1277,93
425,98	1222,64
426,19	1337,32
426,39	1279,98
426,60	1267,69
426,81	1249,26
427,01	1265,64
427,22	1245,16
427,42	1210,35
427,63	1310,70
427,83	1288,17
428,04	1196,01
428,25	1275,88
428,45	1249,26
428,66	1257,45
428,86	1243,12
429,07	1245,16
429,28	1253,36
429,48	1267,69
429,69	1236,97
429,89	1306,60
430,10	1275,88
430,30	1269,74
430,51	1312,75
430,71	1236,97
430,92	1220,59
431,13	1263,60
431,33	1230,83
431,54	1236,97
431,74	1234,93
431,95	1290,22
432,15	1296,36
432,36	1245,16
432,56	1288,17
432,77	1216,49
432,98	1241,07
433,18	1247,21
433,39	1239,02
433,59	1282,03
433,80	1341,42
434,00	1243,12
434,21	1284,08
434,41	1265,64
434,62	1269,74
434,82	1308,65
435,03	1267,69
435,23	1204,21
435,44	1282,03
435,64	1271,79
435,85	1296,36
436,06	1200,11
436,26	1288,17
436,47	1239,02
436,67	1257,45
436,88	1243,12
437,08	1288,17
437,29	1249,26
437,49	1304,56
437,70	1261,55
437,90	1316,84
438,11	1198,06
438,31	1267,69
438,52	1277,93
438,72	1298,41
438,93	1251,31
439,13	1310,70
439,34	1282,03
439,54	1300,46
439,75	1251,31
439,95	1261,55
440,16	1267,69
440,36	1265,64
440,57	1279,98
440,77	1210,35
440,98	1282,03
441,18	1304,56
441,39	1255,40
441,59	1363,95
441,80	1257,45
442,00	1312,75
442,21	1196,01
442,41	1312,75
442,62	1277,93
442,82	1302,51
443,02	1290,22
443,23	1294,32
443,43	1282,03
443,64	1312,75
443,84	1224,69
444,05	1292,27
444,25	1335,28
444,46	1198,06
444,66	1232,88
444,87	1257,45
445,07	1214,45
445,28	1218,54
445,48	1228,78
445,69	1308,65
445,89	1331,18
446,09	1290,22
446,30	1288,17
446,50	1314,80
446,71	1122,29
446,91	1355,76
447,12	1259,50
447,32	1251,31
447,53	1269,74
447,73	1230,83
447,93	1302,51
448,14	1318,89
448,34	1267,69
448,55	1224,69
448,75	1191,92
448,96	1193,97
449,16	1361,90
449,36	1288,17
449,57	1255,40
449,77	1275,88
449,98	1255,40
450,18	1167,34
450,39	1239,02
450,59	1239,02
450,79	1202,16
451,00	1210,35
451,20	1306,60
451,41	1228,78
451,61	1263,60
451,81	1249,26
452,02	1247,21
452,22	1265,64
452,43	1214,45
452,63	1277,93
452,84	1261,55
453,04	1325,04
453,24	1320,94
453,45	1279,98
453,65	1243,12
453,86	1212,40
454,06	1343,47
454,26	1206,25
454,47	1241,07
454,67	1226,73
454,87	1298,41
455,08	1230,83
455,28	1300,46
455,49	1255,40
455,69	1306,60
455,89	1331,18
456,10	1243,12
456,30	1245,16
456,51	1275,88
456,71	1185,77
456,91	1265,64
457,12	1249,26
457,32	1263,60
457,52	1302,51
457,73	1245,16
457,93	1294,32
458,14	1208,30
458,34	1224,69
458,54	1196,01
458,75	1282,03
458,95	1312,75
459,15	1294,32
459,36	1325,04
459,56	1239,02
459,76	1343,47
459,97	1226,73
460,17	1349,61
460,37	1257,45
460,58	1232,88
460,78	1239,02
460,99	1269,74
461,19	1302,51
461,39	1169,39
461,60	1337,32
461,80	1251,31
462,00	1255,40
462,21	1290,22
462,41	1273,84
462,61	1241,07
462,82	1255,40
463,02	1286,12
463,22	1261,55
463,43	1234,93
463,63	1282,03
463,83	1236,97
464,04	1265,64
464,24	1234,93
464,44	1228,78
464,64	1271,79
464,85	1374,19
465,05	1304,56
465,25	1228,78
465,46	1228,78
465,66	1306,60
465,86	1286,12
466,07	1294,32
466,27	1265,64
466,47	1316,84
466,68	1257,45
466,88	1282,03
467,08	1267,69
467,29	1294,32
467,49	1161,20
467,69	1294,32
467,89	1206,25
468,10	1214,45
468,30	1234,93
468,50	1282,03
468,71	1300,46
468,91	1271,79
469,11	1322,99
469,31	1265,64
469,52	1247,21
469,72	1368,04
469,92	1210,35
470,13	1253,36
470,33	1208,30
470,53	1318,89
470,73	1288,17
470,94	1286,12
471,14	1226,73
471,34	1273,84
471,54	1294,32
471,75	1236,97
471,95	1277,93
472,15	1294,32
472,36	1327,08
472,56	1327,08
472,76	1208,30
472,96	1318,89
473,17	1288,17
473,37	1325,04
473,57	1392,62
473,77	1314,80
473,98	1296,36
474,18	1267,69
474,38	1265,64
474,58	1277,93
474,79	1277,93
474,99	1273,84
475,19	1181,68
475,39	1279,98
475,60	1290,22
475,80	1232,88
476,00	1236,97
476,20	1359,85
476,41	1230,83
476,61	1228,78
476,81	1259,50
477,01	1224,69
477,21	1310,70
477,42	1239,02
477,62	1175,53
477,82	1241,07
478,02	1216,49
478,23	1232,88
478,43	1288,17
478,63	1333,23
478,83	1290,22
479,03	1241,07
479,24	1298,41
479,44	1314,80
479,64	1286,12
479,84	1239,02
480,04	1302,51
480,25	1251,31
480,45	1232,88
480,65	1261,55
480,85	1239,02
481,06	1279,98
481,26	1249,26
481,46	1271,79
481,66	1312,75
481,86	1214,45
482,06	1306,60
482,27	1255,40
482,47	1230,83
482,67	1282,03
482,87	1249,26
483,07	1249,26
483,28	1263,60
483,48	1329,13
483,68	1232,88
483,88	1288,17
484,08	1284,08
484,29	1269,74
484,49	1277,93
484,69	1239,02
484,89	1327,08
485,09	1357,80
485,29	1230,83
485,50	1300,46
485,70	1263,60
485,90	1378,28
486,10	1179,63
486,30	1249,26
486,50	1265,64
486,71	1249,26
486,91	1232,88
487,11	1247,21
487,31	1314,80
487,51	1249,26
487,71	1296,36
487,91	1277,93
488,12	1261,55
488,32	1220,59
488,52	1327,08
488,72	1279,98
488,92	1302,51
489,12	1353,71
489,32	1267,69
489,53	1286,12
489,73	1247,21
489,93	1277,93
490,13	1292,27
490,33	1273,84
490,53	1300,46
490,73	1320,94
490,94	1277,93
491,14	1230,83
491,34	1302,51
491,54	1288,17
491,74	1288,17
491,94	1327,08
492,14	1269,74
492,34	1273,84
492,54	1236,97
492,75	1232,88
492,95	1255,40
493,15	1253,36
493,35	1296,36
493,55	1271,79
493,75	1251,31
493,95	1259,50
494,15	1263,60
494,35	1214,45
494,56	1300,46
494,76	1306,60
494,96	1198,06
495,16	1234,93
495,36	1241,07
495,56	1234,93
495,76	1296,36
495,96	1255,40
496,16	1232,88
496,36	1183,73
496,56	1275,88
496,77	1200,11
496,97	1267,69
497,17	1269,74
497,37	1241,07
497,57	1286,12
497,77	1290,22
497,97	1200,11
498,17	1269,74
498,37	1335,28
498,57	1265,64
498,77	1361,90
498,97	1267,69
499,17	1296,36
499,38	1275,88
499,58	1271,79
499,78	1286,12
499,98	1273,84
500,18	1218,54
500,38	1388,52
500,58	1196,01
500,78	1226,73
500,98	1325,04
501,18	1308,65
501,38	1269,74
501,58	1286,12
501,78	1261,55
501,98	1236,97
502,18	1304,56
502,38	1277,93
502,58	1265,64
502,78	1257,45
502,98	1230,83
503,18	1243,12
503,38	1265,64
503,59	1265,64
503,79	1220,59
503,99	1296,36
504,19	1300,46
504,39	1204,21
504,59	1257,45
504,79	1239,02
504,99	1331,18
505,19	1234,93
505,39	1220,59
505,59	1239,02
505,79	1214,45
505,99	1257,45
506,19	1327,08
506,39	1200,11
506,59	1230,83
506,79	1347,56
506,99	1239,02
507,19	1282,03
507,39	1273,84
507,59	1259,50
507,79	1251,31
507,99	1263,60
508,19	1271,79
508,39	1253,36
508,59	1275,88
508,79	1290,22
508,99	1304,56
509,19	1253,36
509,39	1282,03
509,59	1200,11
509,79	1239,02
509,99	1329,13
510,19	1341,42
510,39	1329,13
510,59	1241,07
510,79	1255,40
510,99	1245,16
511,19	1243,12
511,39	1255,40
511,59	1304,56
511,79	1337,32
511,99	1322,99
512,19	1265,64
512,38	1296,36
512,58	1224,69
512,78	1271,79
512,98	1306,60
513,18	1279,98
513,38	1210,35
513,58	1279,98
513,78	1216,49
513,98	1298,41
514,18	1277,93
514,38	1282,03
514,58	1312,75
514,78	1327,08
514,98	1222,64
515,18	1263,60
515,38	1253,36
515,58	1257,45
515,78	1253,36
515,98	1316,84
516,18	1302,51
516,38	1241,07
516,57	1241,07
516,77	1282,03
516,97	1271,79
517,17	1300,46
517,37	1304,56
517,57	1290,22
517,77	1269,74
517,97	1263,60
518,17	1304,56
518,37	1277,93
518,57	1271,79
518,77	1290,22
518,97	1277,93
519,16	1320,94
519,36	1249,26
519,56	1273,84
519,76	1236,97
519,96	1255,40
520,16	1267,69
520,36	1232,88
520,56	1308,65
520,76	1234,93
520,96	1257,45
521,16	1273,84
521,35	1302,51
521,55	1259,50
521,75	1220,59
521,95	1298,41
522,15	1308,65
522,35	1243,12
522,55	1253,36
522,75	1224,69
522,95	1218,54
523,14	1286,12
523,34	1271,79
523,54	1337,32
523,74	1288,17
523,94	1296,36
524,14	1245,16
524,34	1312,75
524,54	1241,07
524,73	1343,47
524,93	1251,31
525,13	1261,55
525,33	1286,12
525,53	1224,69
525,73	1204,21
525,93	1388,52
526,13	1261,55
526,32	1302,51
526,52	1245,16
526,72	1273,84
526,92	1304,56
527,12	1228,78
527,32	1267,69
527,52	1277,93
527,71	1339,37
527,91	1251,31
528,11	1273,84
528,31	1277,93
528,51	1292,27
528,71	1318,89
528,90	1292,27
529,10	1312,75
529,30	1290,22
529,50	1239,02
529,70	1255,40
529,90	1288,17
530,09	1333,23
530,29	1273,84
530,49	1142,77
530,69	1284,08
530,89	1286,12
531,09	1333,23
531,28	1255,40
531,48	1224,69
531,68	1263,60
531,88	1279,98
532,08	1335,28
532,28	1298,41
532,47	1212,40
532,67	1253,36
532,87	1263,60
533,07	1249,26
533,27	1273,84
533,46	1282,03
533,66	1288,17
533,86	1263,60
534,06	1265,64
534,26	1325,04
534,45	1277,93
534,65	1253,36
534,85	1165,29
535,05	1271,79
535,25	1331,18
535,44	1257,45
535,64	1312,75
535,84	1236,97
536,04	1255,40
536,24	1302,51
536,43	1226,73
536,63	1265,64
536,83	1318,89
537,03	1212,40
537,22	1294,32
537,42	1255,40
537,62	1314,80
537,82	1243,12
538,02	1253,36
538,21	1251,31
538,41	1353,71
538,61	1271,79
538,81	1230,83
539,00	1304,56
539,20	1265,64
539,40	1247,21
539,60	1236,97
539,79	1189,87
539,99	1247,21
540,19	1290,22
540,39	1200,11
540,58	1282,03
540,78	1290,22
540,98	1353,71
541,18	1261,55
541,37	1359,85
541,57	1275,88
541,77	1267,69
541,97	1292,27
542,16	1263,60
542,36	1269,74
542,56	1275,88
542,76	1181,68
542,95	1257,45
543,15	1331,18
543,35	1269,74
543,54	1163,25
543,74	1302,51
543,94	1271,79
544,14	1232,88
544,33	1269,74
544,53	1320,94
544,73	1247,21
544,93	1302,51
545,12	1259,50
545,32	1263,60
545,52	1191,92
545,71	1267,69
545,91	1243,12
546,11	1273,84
546,30	1279,98
546,50	1306,60
546,70	1214,45
546,90	1255,40
547,09	1320,94
547,29	1325,04
547,49	1257,45
547,68	1234,93
547,88	1279,98
548,08	1302,51
548,27	1322,99
548,47	1304,56
548,67	1298,41
548,87	1245,16
549,06	1259,50
549,26	1288,17
549,46	1304,56
549,65	1300,46
549,85	1234,93
550,05	1337,32
550,24	1212,40
550,44	1259,50
550,64	1228,78
550,83	1263,60
551,03	1290,22
551,23	1224,69
551,42	1314,80
551,62	1286,12
551,82	1224,69
552,01	1288,17
552,21	1263,60
552,41	1261,55
552,60	1271,79
552,80	1224,69
553,00	1212,40
553,19	1310,70
553,39	1306,60
553,59	1282,03
553,78	1261,55
553,98	1267,69
554,17	1206,25
554,37	1232,88
554,57	1241,07
554,76	1314,80
554,96	1273,84
555,16	1228,78
555,35	1263,60
555,55	1271,79
555,75	1343,47
555,94	1253,36
556,14	1306,60
556,33	1306,60
556,53	1306,60
556,73	1306,60
556,92	1273,84
557,12	1267,69
557,32	1282,03
557,51	1282,03
557,71	1310,70
557,90	1208,30
558,10	1298,41
558,30	1267,69
558,49	1224,69
558,69	1232,88
558,88	1308,65
559,08	1290,22
559,28	1269,74
559,47	1308,65
559,67	1257,45
559,86	1236,97
560,06	1249,26
560,26	1234,93
560,45	1189,87
560,65	1290,22
560,84	1275,88
561,04	1261,55
561,24	1236,97
561,43	1327,08
561,63	1290,22
561,82	1294,32
562,02	1300,46
562,22	1261,55
562,41	1243,12
562,61	1247,21
562,80	1239,02
563,00	1363,95
563,19	1232,88
563,39	1347,56
563,59	1322,99
563,78	1228,78
563,98	1251,31
564,17	1236,97
564,37	1216,49
564,56	1236,97
564,76	1234,93
564,96	1294,32
565,15	1253,36
565,35	1222,64
565,54	1228,78
565,74	1255,40
565,93	1296,36
566,13	1339,37
566,32	1292,27
566,52	1224,69
566,71	1241,07
566,91	1255,40
567,11	1253,36
567,30	1236,97
567,50	1288,17
567,69	1292,27
567,89	1263,60
568,08	1222,64
568,28	1277,93
568,47	1314,80
568,67	1214,45
568,86	1271,79
569,06	1206,25
569,25	1306,60
569,45	1329,13
569,64	1288,17
569,84	1224,69
570,04	1265,64
570,23	1304,56
570,43	1296,36
570,62	1251,31
570,82	1261,55
571,01	1290,22
571,21	1327,08
571,40	1312,75
571,60	1312,75
571,79	1345,52
571,99	1279,98
572,18	1173,49
572,38	1380,33
572,57	1282,03
572,77	1290,22
572,96	1265,64
573,16	1249,26
573,35	1333,23
573,55	1333,23
573,74	1284,08
573,94	1282,03
574,13	1255,40
574,33	1261,55
574,52	1282,03
574,71	1333,23
574,91	1232,88
575,10	1247,21
575,30	1241,07
575,49	1286,12
575,69	1277,93
575,88	1275,88
576,08	1187,82
576,27	1275,88
576,47	1325,04
576,66	1347,56
576,86	1228,78
577,05	1288,17
577,25	1222,64
577,44	1345,52
577,64	1277,93
577,83	1296,36
578,02	1306,60
578,22	1322,99
578,41	1234,93
578,61	1329,13
578,80	1302,51
579,00	1255,40
579,19	1218,54
579,39	1296,36
579,58	1253,36
579,77	1366,00
579,97	1298,41
580,16	1282,03
580,36	1271,79
580,55	1263,60
580,75	1216,49
580,94	1263,60
581,13	1304,56
581,33	1249,26
581,52	1228,78
581,72	1265,64
581,91	1320,94
582,11	1308,65
582,30	1198,06
582,49	1245,16
582,69	1224,69
582,88	1288,17
583,08	1232,88
583,27	1269,74
583,47	1304,56
583,66	1261,55
583,85	1322,99
584,05	1265,64
584,24	1284,08
584,44	1339,37
584,63	1239,02
584,82	1259,50
585,02	1271,79
585,21	1259,50
585,41	1290,22
585,60	1300,46
585,79	1275,88
585,99	1353,71
586,18	1263,60
586,37	1339,37
586,57	1222,64
586,76	1329,13
586,96	1224,69
587,15	1347,56
587,34	1363,95
587,54	1239,02
587,73	1267,69
587,93	1316,84
588,12	1236,97
588,31	1214,45
588,51	1318,89
588,70	1286,12
588,89	1239,02
589,09	1269,74
589,28	1228,78
589,47	1284,08
589,67	1228,78
589,86	1290,22
590,06	1226,73
590,25	1267,69
590,44	1257,45
590,64	1261,55
590,83	1300,46
591,02	1243,12
591,22	1234,93
591,41	1193,97
591,60	1273,84
591,80	1265,64
591,99	1183,73
592,18	1288,17
592,38	1212,40
592,57	1322,99
592,76	1255,40
592,96	1290,22
593,15	1167,34
593,34	1275,88
593,54	1279,98
593,73	1304,56
593,92	1236,97
594,12	1198,06
594,31	1302,51
594,50	1325,04
594,70	1345,52
594,89	1228,78
595,08	1308,65
595,28	1314,80
595,47	1251,31
595,66	1277,93
595,86	1232,88
596,05	1265,64
596,24	1208,30
596,43	1308,65
596,63	1286,12
596,82	1241,07
597,01	1277,93
597,21	1273,84
597,40	1200,11
597,59	1282,03
597,79	1279,98
597,98	1284,08
598,17	1409,00
598,36	1273,84
598,56	1286,12
598,75	1241,07
598,94	1277,93
599,14	1249,26
599,33	1310,70
599,52	1255,40
599,71	1263,60
599,91	1327,08
600,10	1230,83
600,29	1228,78
600,48	1245,16
600,68	1279,98
600,87	1320,94
601,06	1271,79
601,26	1271,79
601,45	1220,59
601,64	1275,88
601,83	1320,94
602,03	1208,30
602,22	1212,40
602,41	1316,84
602,60	1275,88
602,80	1253,36
602,99	1249,26
603,18	1196,01
603,37	1282,03
603,57	1282,03
603,76	1277,93
603,95	1202,16
604,14	1286,12
604,34	1294,32
604,53	1269,74
604,72	1325,04
604,91	1290,22
605,10	1290,22
605,30	1249,26
605,49	1273,84
605,68	1236,97
605,87	1310,70
606,07	1265,64
606,26	1312,75
606,45	1304,56
606,64	1333,23
606,84	1214,45
607,03	1232,88
607,22	1331,18
607,41	1282,03
607,60	1310,70
607,80	1277,93
607,99	1322,99
608,18	1241,07
608,37	1286,12
608,56	1325,04
608,76	1298,41
608,95	1198,06
609,14	1298,41
609,33	1318,89
609,52	1306,60
609,72	1222,64
609,91	1298,41
610,10	1259,50
610,29	1273,84
610,48	1198,06
610,68	1189,87
610,87	1275,88
611,06	1296,36
611,25	1251,31
611,44	1355,76
611,63	1255,40
611,83	1304,56
612,02	1196,01
612,21	1269,74
612,40	1232,88
612,59	1320,94
612,79	1304,56
612,98	1220,59
613,17	1271,79
613,36	1322,99
613,55	1212,40
613,74	1243,12
613,93	1261,55
614,13	1298,41
614,32	1308,65
614,51	1214,45
614,70	1325,04
614,89	1277,93
615,08	1234,93
615,28	1306,60
615,47	1318,89
615,66	1282,03
615,85	1333,23
616,04	1413,10
616,23	1296,36
616,42	1277,93
616,62	1294,32
616,81	1282,03
617,00	1300,46
617,19	1241,07
617,38	1247,21
617,57	1265,64
617,76	1355,76
617,95	1271,79
618,15	1343,47
618,34	1331,18
618,53	1269,74
618,72	1302,51
618,91	1329,13
619,10	1288,17
619,29	1302,51
619,48	1251,31
619,68	1232,88
619,87	1294,32
620,06	1251,31
620,25	1306,60
620,44	1325,04
620,63	1255,40
620,82	1320,94
621,01	1249,26
621,20	1308,65
621,39	1269,74
621,59	1302,51
621,78	1294,32
621,97	1236,97
622,16	1253,36
622,35	1296,36
622,54	1337,32
622,73	1243,12
622,92	1261,55
623,11	1284,08
623,30	1282,03
623,49	1394,67
623,68	1290,22
623,88	1269,74
624,07	1261,55
624,26	1232,88
624,45	1251,31
624,64	1320,94
624,83	1296,36
625,02	1284,08
625,21	1310,70
625,40	1259,50
625,59	1273,84
625,78	1370,09
625,97	1251,31
626,16	1292,27
626,35	1318,89
626,54	1300,46
626,74	1277,93
626,93	1327,08
627,12	1277,93
627,31	1361,90
627,50	1259,50
627,69	1372,14
627,88	1286,12
628,07	1341,42
628,26	1320,94
628,45	1312,75
628,64	1304,56
628,83	1316,84
629,02	1322,99
629,21	1290,22
629,40	1361,90
629,59	1363,95
629,78	1298,41
629,97	1308,65
630,16	1322,99
630,35	1271,79
630,54	1236,97
630,73	1388,52
630,92	1380,33
631,11	1333,23
631,30	1339,37
631,49	1308,65
631,68	1757,16
631,87	2627,54
632,06	5463,98
632,25	7692,17
632,44	14911,26
632,63	23252,64
632,82	39876,00
633,01	44588,38
633,20	20680,39
633,39	8085,38
633,58	4184,00
633,77	3497,93
633,96	3221,45
634,15	2258,91
634,34	1794,02
634,53	1828,84
634,72	1693,67
634,91	1597,42
635,10	1495,02
635,29	1519,59
635,48	1419,24
635,67	1519,59
635,86	1361,90
636,05	1398,76
636,24	1411,05
636,43	1363,95
636,62	1322,99
636,81	1351,66
637,00	1327,08
637,19	1296,36
637,38	1359,85
637,57	1320,94
637,76	1337,32
637,95	1318,89
638,14	1265,64
638,33	1236,97
638,52	1288,17
638,71	1316,84
638,89	1341,42
639,08	1292,27
639,27	1368,04
639,46	1269,74
639,65	1277,93
639,84	1183,73
640,03	1304,56
640,22	1294,32
640,41	1277,93
640,60	1267,69
640,79	1241,07
640,98	1236,97
641,17	1320,94
641,36	1372,14
641,55	1269,74
641,74	1222,64
641,92	1243,12
642,11	1216,49
642,30	1157,10
642,49	1222,64
642,68	1277,93
642,87	1206,25
643,06	1236,97
643,25	1243,12
643,44	1286,12
643,63	1329,13
643,82	1300,46
644,00	1226,73
644,19	1308,65
644,38	1259,50
644,57	1265,64
644,76	1290,22
644,95	1286,12
645,14	1216,49
645,33	1304,56
645,52	1286,12
645,71	1236,97
645,89	1241,07
646,08	1261,55
646,27	1243,12
646,46	1275,88
646,65	1208,30
646,84	1269,74
647,03	1279,98
647,22	1284,08
647,40	1206,25
647,59	1239,02
647,78	1239,02
647,97	1255,40
648,16	1271,79
648,35	1273,84
648,54	1265,64
648,73	1247,21
648,91	1298,41
649,10	1208,30
649,29	1306,60
649,48	1255,40
649,67	1247,21
649,86	1232,88
650,05	1273,84
650,23	1218,54
650,42	1273,84
650,61	1288,17
650,80	1273,84
650,99	1249,26
651,18	1318,89
651,36	1325,04
651,55	1304,56
651,74	1322,99
651,93	1363,95
652,12	1273,84
652,31	1269,74
652,49	1298,41
652,68	1277,93
652,87	1302,51
653,06	1251,31
653,25	1290,22
653,44	1306,60
653,62	1204,21
653,81	1339,37
654,00	1333,23
654,19	1300,46
654,38	1312,75
654,56	1341,42
654,75	1290,22
654,94	1288,17
655,13	1230,83
655,32	1320,94
655,51	1230,83
655,69	1322,99
655,88	1253,36
656,07	1263,60
656,26	1241,07
656,45	1271,79
656,63	1290,22
656,82	1292,27
657,01	1267,69
657,20	1282,03
657,38	1251,31
657,57	1226,73
657,76	1259,50
657,95	1277,93
658,14	1259,50
658,32	1222,64
658,51	1232,88
658,70	1312,75
658,89	1275,88
659,08	1239,02
659,26	1228,78
659,45	1304,56
659,64	1300,46
659,83	1210,35
660,01	1259,50
660,20	1247,21
660,39	1308,65
660,58	1300,46
660,76	1271,79
660,95	1269,74
661,14	1288,17
661,33	1322,99
661,51	1245,16
661,70	1230,83
661,89	1294,32
662,08	1183,73
662,26	1232,88
662,45	1279,98
662,64	1320,94
662,83	1269,74
663,01	1282,03
663,20	1275,88
663,39	1288,17
663,58	1277,93
663,76	1247,21
663,95	1263,60
664,14	1208,30
664,32	1239,02
664,51	1298,41
664,70	1275,88
664,89	1294,32
665,07	1265,64
665,26	1228,78
665,45	1224,69
665,64	1245,16
665,82	1232,88
666,01	1273,84
666,20	1288,17
666,38	1259,50
666,57	1249,26
666,76	1241,07
666,95	1300,46
667,13	1292,27
667,32	1257,45
667,51	1243,12
667,69	1251,31
667,88	1226,73
668,07	1300,46
668,25	1306,60
668,44	1298,41
668,63	1226,73
668,81	1275,88
669,00	1251,31
669,19	1187,82
669,38	1273,84
669,56	1224,69
669,75	1353,71
669,94	1304,56
670,12	1277,93
670,31	1294,32
670,50	1236,97
670,68	1290,22
670,87	1308,65
671,06	1286,12
671,24	1320,94
671,43	1243,12
671,62	1253,36
671,80	1267,69
671,99	1259,50
672,18	1329,13
672,36	1247,21
672,55	1304,56
672,74	1294,32
672,92	1212,40
673,11	1230,83
673,29	1206,25
673,48	1296,36
673,67	1275,88
673,85	1257,45
674,04	1228,78
674,23	1306,60
674,41	1292,27
674,60	1331,18
674,79	1284,08
674,97	1232,88
675,16	1228,78
675,34	1265,64
675,53	1273,84
675,72	1269,74
675,90	1284,08
676,09	1355,76
676,28	1232,88
676,46	1284,08
676,65	1312,75
676,83	1290,22
677,02	1247,21
677,21	1339,37
677,39	1255,40
677,58	1255,40
677,77	1282,03
677,95	1304,56
678,14	1296,36
678,32	1277,93
678,51	1329,13
678,70	1279,98
678,88	1177,58
679,07	1273,84
679,25	1337,32
679,44	1310,70
679,63	1253,36
679,81	1255,40
680,00	1320,94
680,18	1265,64
680,37	1245,16
680,55	1304,56
680,74	1267,69
680,93	1239,02
681,11	1394,67
681,30	1267,69
681,48	1191,92
681,67	1265,64
681,85	1198,06
682,04	1329,13
682,23	1210,35
682,41	1202,16
682,60	1228,78
682,78	1224,69
682,97	1355,76
683,15	1251,31
683,34	1292,27
683,53	1249,26
683,71	1200,11
683,90	1222,64
684,08	1337,32
684,27	1302,51
684,45	1277,93
684,64	1310,70
684,82	1282,03
685,01	1230,83
685,19	1271,79
685,38	1345,52
685,57	1290,22
685,75	1325,04
685,94	1257,45
686,12	1247,21
686,31	1253,36
686,49	1228,78
686,68	1253,36
686,86	1249,26
687,05	1279,98
687,23	1230,83
687,42	1232,88
687,60	1230,83
687,79	1263,60
687,97	1277,93
688,16	1273,84
688,34	1347,56
688,53	1306,60
688,71	1255,40
688,90	1286,12
689,08	1333,23
689,27	1368,04
689,45	1298,41
689,64	1267,69
689,82	1265,64
690,01	1257,45
690,19	1226,73
690,38	1290,22
690,56	1263,60
690,75	1308,65
690,93	1210,35
691,12	1212,40
691,30	1288,17
691,49	1267,69
691,67	1261,55
691,86	1284,08
692,04	1271,79
692,23	1279,98
692,41	1226,73
692,60	1271,79
692,78	1218,54
692,97	1212,40
693,15	1245,16
693,34	1310,70
693,52	1261,55
693,71	1193,97
693,89	1288,17
694,08	1273,84
694,26	1265,64
694,44	1292,27
694,63	1255,40
694,81	1275,88
695,00	1265,64
695,18	1298,41
695,37	1265,64
695,55	1247,21
695,74	1239,02
695,92	1220,59
696,10	1271,79
696,29	1269,74
696,47	1292,27
696,66	1271,79
696,84	1273,84
697,03	1302,51
697,21	1226,73
697,40	1347,56
697,58	1288,17
697,76	1243,12
697,95	1243,12
698,13	1304,56
698,32	1296,36
698,50	1329,13
698,68	1224,69
698,87	1224,69
699,05	1329,13
699,24	1204,21
699,42	1193,97
699,61	1269,74
699,79	1253,36
699,97	1228,78
700,16	1222,64
700,34	1243,12
700,53	1300,46
700,71	1269,74
700,89	1253,36
701,08	1269,74
701,26	1312,75
701,45	1232,88
701,63	1273,84
701,81	1277,93
702,00	1218,54
702,18	1245,16
702,37	1347,56
702,55	1189,87
702,73	1282,03
702,92	1292,27
703,10	1286,12
703,28	1224,69
703,47	1189,87
703,65	1275,88
703,84	1300,46
704,02	1296,36
704,20	1253,36
704,39	1239,02
704,57	1202,16
704,75	1296,36
704,94	1294,32
705,12	1191,92
705,30	1298,41
705,49	1261,55
705,67	1294,32
705,86	1271,79
706,04	1322,99
706,22	1255,40
706,41	1339,37
706,59	1290,22
706,77	1245,16
706,96	1251,31
707,14	1234,93
707,32	1259,50
707,51	1300,46
707,69	1245,16
707,87	1269,74
708,06	1322,99
708,24	1314,80
708,42	1318,89
708,61	1288,17
708,79	1304,56
708,97	1279,98
709,16	1232,88
709,34	1228,78
709,52	1267,69
709,71	1265,64
709,89	1224,69
710,07	1212,40
710,26	1251,31
710,44	1230,83
710,62	1300,46
710,80	1206,25
710,99	1310,70
711,17	1294,32
711,35	1322,99
711,54	1241,07
711,72	1224,69
711,90	1265,64
712,09	1337,32
712,27	1232,88
712,45	1304,56
712,63	1269,74
712,82	1251,31
713,00	1275,88
713,18	1275,88
713,37	1304,56
713,55	1298,41
713,73	1259,50
713,91	1267,69
714,10	1224,69
714,28	1286,12
714,46	1265,64
714,65	1331,18
714,83	1220,59
715,01	1314,80
715,19	1290,22
715,38	1327,08
715,56	1288,17
715,74	1224,69
715,92	1286,12
716,11	1271,79
716,29	1239,02
716,47	1286,12
716,65	1296,36
716,84	1245,16
717,02	1312,75
717,20	1243,12
717,38	1261,55
717,57	1263,60
717,75	1306,60
717,93	1196,01
718,11	1239,02
718,30	1261,55
718,48	1232,88
718,66	1273,84
718,84	1234,93
719,03	1279,98
719,21	1310,70
719,39	1271,79
719,57	1282,03
719,75	1257,45
719,94	1308,65
720,12	1232,88
720,30	1206,25
720,48	1241,07
720,67	1279,98
720,85	1224,69
721,03	1265,64
721,21	1255,40
721,39	1288,17
721,58	1325,04
721,76	1257,45
721,94	1241,07
722,12	1255,40
722,30	1204,21
722,49	1243,12
722,67	1279,98
722,85	1298,41
723,03	1210,35
723,21	1300,46
723,40	1263,60
723,58	1249,26
723,76	1314,80
723,94	1198,06
724,12	1329,13
724,30	1275,88
724,49	1333,23
724,67	1249,26
724,85	1277,93
725,03	1239,02
725,21	1296,36
725,40	1249,26
725,58	1230,83
725,76	1275,88
725,94	1300,46
726,12	1282,03
726,30	1214,45
726,49	1306,60
726,67	1261,55
726,85	1220,59
727,03	1341,42
727,21	1212,40
727,39	1220,59
727,57	1241,07
727,76	1247,21
727,94	1329,13
728,12	1224,69
728,30	1220,59
728,48	1208,30
728,66	1279,98
728,84	1269,74
729,03	1251,31
729,21	1331,18
729,39	1247,21
729,57	1267,69
729,75	1247,21
729,93	1257,45
730,11	1263,60
730,30	1284,08
730,48	1292,27
730,66	1267,69
730,84	1245,16
731,02	1294,32
731,20	1286,12
731,38	1251,31
731,56	1349,61
731,74	1282,03
731,93	1259,50
732,11	1355,76
732,29	1331,18
732,47	1333,23
732,65	1292,27
732,83	1277,93
733,01	1249,26
733,19	1318,89
733,37	1271,79
733,56	1279,98
733,74	1265,64
733,92	1267,69
734,10	1316,84
734,28	1271,79
734,46	1183,73
734,64	1290,22
734,82	1325,04
735,00	1316,84
735,18	1282,03
735,36	1277,93
735,54	1294,32
735,73	1294,32
735,91	1267,69
736,09	1296,36
736,27	1228,78
736,45	1288,17
736,63	1236,97
736,81	1259,50
736,99	1282,03
737,17	1267,69
737,35	1243,12
737,53	1243,12
737,71	1275,88
737,89	1183,73
738,07	1290,22
738,25	1314,80
738,43	1312,75
738,61	1329,13
738,80	1316,84
738,98	1267,69
739,16	1279,98
739,34	1284,08
739,52	1329,13
739,70	1288,17
739,88	1247,21
740,06	1343,47
740,24	1265,64
740,42	1228,78
740,60	1245,16
740,78	1275,88
740,96	1265,64
741,14	1370,09
741,32	1191,92
741,50	1286,12
741,68	1322,99
741,86	1249,26
742,04	1306,60
742,22	1275,88
742,40	1255,40
742,58	1325,04
742,76	1284,08
742,94	1267,69
743,12	1318,89
743,30	1384,43
743,48	1302,51
743,66	1327,08
743,84	1253,36
744,02	1316,84
744,20	1325,04
744,38	1191,92
744,56	1271,79
744,74	1302,51
744,92	1296,36
745,10	1279,98
745,28	1290,22
745,46	1249,26
745,64	1284,08
745,82	1335,28
746,00	1265,64
746,18	1286,12
746,36	1243,12
746,54	1267,69
746,72	1196,01
746,90	1279,98
747,08	1294,32
747,26	1302,51
747,44	1312,75
747,62	1212,40
747,80	1277,93
747,98	1345,52
748,15	1298,41
748,33	1247,21
748,51	1320,94
748,69	1222,64
748,87	1245,16
749,05	1255,40
749,23	1308,65
749,41	1310,70
749,59	1265,64
749,77	1206,25
749,95	1249,26
750,13	1210,35
750,31	1339,37
750,49	1294,32
750,67	1296,36
750,85	1314,80
751,03	1282,03
751,20	1249,26
751,38	1200,11
751,56	1230,83
751,74	1335,28
751,92	1273,84
752,10	1243,12
752,28	1277,93
752,46	1292,27
752,64	1247,21
752,82	1310,70
753,00	1249,26
753,18	1320,94
753,35	1257,45
753,53	1310,70
753,71	1322,99
753,89	1335,28
754,07	1230,83
754,25	1320,94
754,43	1279,98
754,61	1290,22
754,79	1302,51
754,97	1239,02
755,14	1353,71
755,32	1282,03
755,50	1286,12
755,68	1271,79
755,86	1257,45
756,04	1261,55
756,22	1226,73
756,40	1316,84
756,57	1267,69
756,75	1239,02
756,93	1302,51
757,11	1245,16
757,29	1239,02
757,47	1271,79
757,65	1345,52
757,82	1271,79
758,00	1251,31
758,18	1294,32
758,36	1241,07
758,54	1333,23
758,72	1236,97
758,90	1261,55
759,07	1271,79
759,25	1357,80
759,43	1251,31
759,61	1327,08
759,79	1279,98
759,97	1325,04
760,15	1185,77
760,32	1294,32
760,50	1144,81
760,68	1312,75
760,86	1173,49
761,04	1269,74
761,22	1282,03
761,39	1279,98
761,57	1277,93
761,75	1306,60
761,93	1255,40
762,11	1245,16
762,28	1253,36
762,46	1267,69
762,64	1226,73
762,82	1243,12
763,00	1286,12
763,18	1234,93
763,35	1236,97
763,53	1277,93
763,71	1286,12
763,89	1284,08
764,07	1257,45
764,24	1378,28
764,42	1273,84
764,60	1306,60
764,78	1318,89
764,96	1206,25
765,13	1300,46
765,31	1257,45
765,49	1255,40
765,67	1241,07
765,84	1290,22
766,02	1290,22
766,20	1275,88
766,38	1335,28
766,56	1322,99
766,73	1269,74
766,91	1263,60
767,09	1247,21
767,27	1265,64
767,44	1263,60
767,62	1308,65
767,80	1269,74
767,98	1288,17
768,15	1275,88
768,33	1288,17
768,51	1243,12
768,69	1224,69
768,87	1265,64
769,04	1316,84
769,22	1251,31
769,40	1265,64
769,58	1343,47
769,75	1331,18
769,93	1255,40
770,11	1302,51
770,28	1292,27
770,46	1325,04
770,64	1282,03
770,82	1269,74
770,99	1275,88
771,17	1200,11
771,35	1310,70
771,53	1368,04
771,70	1271,79
771,88	1243,12
772,06	1249,26
772,23	1169,39
772,41	1259,50
772,59	1290,22
772,77	1308,65
772,94	1265,64
773,12	1333,23
773,30	1202,16
773,47	1265,64
773,65	1245,16
773,83	1241,07
774,01	1308,65
774,18	1261,55
774,36	1253,36
774,54	1257,45
774,71	1288,17
774,89	1327,08
775,07	1257,45
775,24	1298,41
775,42	1302,51
775,60	1239,02
775,78	1241,07
775,95	1247,21
776,13	1298,41
776,31	1255,40
776,48	1296,36
776,66	1277,93
776,84	1318,89
777,01	1271,79
777,19	1279,98
777,37	1286,12
777,54	1232,88
777,72	1320,94
777,90	1325,04
778,07	1261,55
778,25	1234,93
778,43	1279,98
778,60	1241,07
778,78	1302,51
778,96	1257,45
779,13	1267,69
779,31	1257,45
779,49	1279,98
779,66	1306,60
779,84	1290,22
780,01	1200,11
780,19	1224,69
780,37	1253,36
780,54	1306,60
780,72	1279,98
780,90	1327,08
781,07	1261,55
781,25	1320,94
781,43	1271,79
781,60	1257,45
781,78	1263,60
781,95	1245,16
782,13	1247,21
782,31	1222,64
782,48	1263,60
782,66	1286,12
782,83	1241,07
783,01	1206,25
783,19	1224,69
783,36	1236,97
783,54	1261,55
783,72	1255,40
783,89	1306,60
784,07	1247,21
784,24	1230,83
784,42	1288,17
784,60	1263,60
784,77	1239,02
784,95	1275,88
785,12	1304,56
785,30	1327,08
785,47	1306,60
785,65	1241,07
785,83	1279,98
786,00	1282,03
786,18	1191,92
786,35	1273,84
786,53	1200,11
786,71	1300,46
786,88	1290,22
787,06	1263,60
787,23	1288,17
787,41	1267,69
787,58	1222,64
787,76	1288,17
787,94	1271,79
788,11	1308,65
788,29	1212,40
788,46	1290,22
788,64	1263,60
788,81	1259,50
788,99	1290,22
789,16	1157,10
789,34	1269,74
789,52	1236,97
789,69	1232,88
789,87	1290,22
790,04	1226,73
790,22	1232,88
790,39	1263,60
790,57	1269,74
790,74	1273,84
790,92	1249,26
791,09	1288,17
791,27	1298,41
791,44	1318,89
791,62	1282,03
791,79	1259,50
791,97	1343,47
792,15	1243,12
792,32	1292,27
792,50	1304,56
792,67	1294,32
792,85	1296,36
793,02	1251,31
793,20	1302,51
793,37	1241,07
793,55	1220,59
793,72	1230,83
793,90	1224,69
794,07	1226,73
794,25	1265,64
794,42	1230,83
794,60	1267,69
794,77	1277,93
794,95	1300,46
795,12	1236,97
795,30	1282,03
795,47	1292,27
795,65	1234,93
795,82	1275,88
796,00	1222,64
796,17	1284,08
796,34	1169,39
796,52	1226,73
796,69	1282,03
796,87	1265,64
797,04	1320,94
797,22	1189,87
797,39	1275,88
797,57	1271,79
797,74	1257,45
797,92	1241,07
798,09	1271,79
798,27	1228,78
798,44	1279,98
798,62	1298,41
798,79	1372,14
798,96	1288,17
799,14	1271,79
799,31	1349,61
799,49	1234,93
799,66	1302,51
799,84	1208,30
800,01	1327,08
800,19	1314,80
800,36	1236,97
800,53	1300,46
800,71	1282,03
800,88	1312,75
801,06	1329,13
801,23	1306,60
801,41	1267,69
801,58	1257,45
801,75	1290,22
801,93	1263,60
802,10	1247,21
802,28	1204,21
802,45	1267,69
802,63	1290,22
802,80	1286,12
802,97	1292,27
803,15	1253,36
803,32	1259,50
803,50	1265,64
803,67	1232,88
803,84	1271,79
804,02	1249,26
804,19	1284,08
804,37	1249,26
804,54	1232,88
804,71	1232,88
804,89	1191,92
805,06	1312,75
805,24	1204,21
805,41	1357,80
805,58	1243,12
805,76	1253,36
805,93	1245,16
806,10	1298,41
806,28	1284,08
806,45	1306,60
806,63	1183,73
806,80	1243,12
806,97	1267,69
807,15	1290,22
807,32	1279,98
807,49	1208,30
807,67	1222,64
807,84	1236,97
808,01	1189,87
808,19	1206,25
808,36	1208,30
808,54	1290,22
808,71	1314,80
808,88	1273,84
809,06	1247,21
809,23	1239,02
809,40	1273,84
809,58	1222,64
809,75	1288,17
809,92	1263,60
810,10	1271,79
810,27	1286,12
810,44	1269,74
810,62	1208,30
810,79	1282,03
810,96	1282,03
811,14	1282,03
811,31	1284,08
811,48	1273,84
811,66	1267,69
811,83	1232,88
812,00	1275,88
812,18	1298,41
812,35	1310,70
812,52	1253,36
812,69	1259,50
812,87	1247,21
813,04	1239,02
813,21	1298,41
813,39	1255,40
813,56	1316,84
813,73	1236,97
813,91	1271,79
814,08	1269,74
814,25	1241,07
814,42	1273,84
814,60	1378,28
814,77	1282,03
814,94	1232,88
815,12	1372,14
815,29	1249,26
815,46	1306,60
815,63	1251,31
815,81	1282,03
815,98	1239,02
816,15	1279,98
816,33	1222,64
816,50	1269,74
816,67	1247,21
816,84	1269,74
817,02	1294,32
817,19	1228,78
817,36	1288,17
817,53	1234,93
817,71	1249,26
817,88	1247,21
818,05	1208,30
818,22	1263,60
818,40	1265,64
818,57	1208,30
818,74	1216,49
818,91	1220,59
819,09	1279,98
819,26	1292,27
819,43	1282,03
819,60	1275,88
819,78	1320,94
819,95	1314,80
820,12	1327,08
820,29	1206,25
820,47	1292,27
820,64	1308,65
820,81	1216,49
820,98	1251,31
821,15	1265,64
821,33	1261,55
821,50	1232,88
821,67	1282,03
821,84	1230,83
822,02	1275,88
822,19	1300,46
822,36	1282,03
822,53	1183,73
822,70	1296,36
822,88	1251,31
823,05	1320,94
823,22	1306,60
823,39	1306,60
823,56	1282,03
823,74	1241,07
823,91	1288,17
824,08	1255,40
824,25	1263,60
824,42	1290,22
824,60	1226,73
824,77	1325,04
824,94	1214,45
825,11	1345,52
825,28	1241,07
825,45	1290,22
825,63	1302,51
825,80	1261,55
825,97	1224,69
826,14	1208,30
826,31	1269,74
826,48	1320,94
826,66	1255,40
826,83	1216,49
827,00	1243,12
827,17	1329,13
827,34	1243,12
827,51	1282,03
827,69	1277,93
827,86	1288,17
828,03	1300,46
828,20	1265,64
828,37	1357,80
828,54	1288,17
828,71	1216,49
828,89	1357,80
829,06	1288,17
829,23	1247,21
829,40	1333,23
829,57	1316,84
829,74	1261,55
829,91	1198,06
830,09	1257,45
830,26	1312,75
830,43	1263,60
830,60	1198,06
830,77	1279,98
830,94	1292,27
831,11	1251,31
831,28	1198,06
831,46	1294,32
831,63	1255,40
831,80	1239,02
831,97	1212,40
832,14	1290,22
832,31	1267,69
832,48	1275,88
832,65	1214,45
832,82	1300,46
832,99	1236,97
833,17	1304,56
833,34	1329,13
833,51	1251,31
833,68	1193,97
833,85	1335,28
834,02	1261,55
834,19	1253,36
834,36	1273,84
834,53	1243,12
834,70	1222,64
834,87	1282,03
835,04	1210,35
835,22	1286,12
835,39	1271,79
835,56	1249,26
835,73	1277,93
835,90	1314,80
836,07	1273,84
836,24	1265,64
836,41	1220,59
836,58	1279,98
836,75	1263,60
836,92	1236,97
837,09	1239,02
837,26	1294,32
837,43	1216,49
837,60	1320,94
837,77	1279,98
837,94	1265,64
838,12	1298,41
838,29	1290,22
838,46	1247,21
838,63	1322,99
838,80	1333,23
838,97	1247,21
839,14	1271,79
839,31	1267,69
839,48	1312,75
839,65	1298,41
839,82	1265,64
839,99	1327,08
840,16	1255,40
840,33	1259,50
840,50	1292,27
840,67	1228,78
840,84	1308,65
841,01	1255,40
841,18	1222,64
841,35	1277,93
841,52	1230,83
841,69	1236,97
841,86	1310,70
842,03	1337,32
842,20	1306,60
842,37	1284,08
842,54	1179,63
842,71	1282,03
842,88	1263,60
843,05	1234,93
843,22	1279,98
843,39	1271,79
843,56	1253,36
843,73	1245,16
843,90	1339,37
844,07	1310,70
844,24	1273,84
844,41	1243,12
844,58	1271,79
844,75	1265,64
844,92	1282,03
845,09	1218,54
845,26	1249,26
845,43	1222,64
845,60	1239,02
845,77	1308,65
845,94	1247,21
846,10	1230,83
846,27	1228,78
846,44	1292,27
846,61	1253,36
846,78	1275,88
846,95	1232,88
847,12	1232,88
847,29	1296,36
847,46	1357,80
847,63	1300,46
847,80	1232,88
847,97	1294,32
848,14	1245,16
848,31	1273,84
848,48	1245,16
848,65	1312,75
848,82	1265,64
848,98	1228,78
849,15	1277,93
849,32	1222,64
849,49	1290,22
849,66	1296,36
849,83	1259,50
850,00	1286,12
850,17	1337,32
850,34	1255,40
850,51	1234,93
850,68	1292,27
850,85	1298,41
851,01	1292,27
851,18	1316,84
851,35	1222,64
851,52	1236,97
851,69	1339,37
851,86	1191,92
852,03	1232,88
852,20	1206,25
852,37	1286,12
852,53	1243,12
852,70	1275,88
852,87	1218,54
853,04	1253,36
853,21	1204,21
853,38	1263,60
853,55	1253,36
853,72	1343,47
853,89	1175,53
854,05	1288,17
854,22	1189,87
854,39	1271,79
854,56	1255,40
854,73	1312,75
854,90	1208,30
855,07	1308,65
855,23	1204,21
855,40	1230,83
855,57	1253,36
855,74	1222,64
855,91	1306,60
856,08	1228,78
856,25	1204,21
856,41	1331,18
856,58	1257,45
856,75	1234,93
856,92	1259,50
857,09	1189,87
857,26	1257,45
857,42	1265,64
857,59	1314,80
857,76	1347,56
857,93	1273,84
858,10	1290,22
858,27	1316,84
858,43	1259,50
858,60	1259,50
858,77	1298,41
858,94	1259,50
859,11	1320,94
859,27	1279,98
859,44	1279,98
859,61	1241,07
859,78	1259,50
859,95	1257,45
860,12	1183,73
860,28	1263,60
860,45	1310,70
860,62	1249,26
860,79	1253,36
860,95	1261,55
861,12	1288,17
861,29	1228,78
861,46	1214,45
861,63	1228,78
861,79	1288,17
861,96	1230,83
862,13	1298,41
862,30	1275,88
862,47	1181,68
862,63	1306,60
862,80	1230,83
862,97	1396,71
863,14	1329,13
863,30	1335,28
863,47	1296,36
863,64	1327,08
863,81	1261,55
863,97	1265,64
864,14	1308,65
864,31	1202,16
864,48	1269,74
864,65	1214,45
864,81	1269,74
864,98	1322,99
865,15	1286,12
865,32	1251,31
865,48	1255,40
865,65	1294,32
865,82	1241,07
865,98	1273,84
866,15	1339,37
866,32	1279,98
866,49	1228,78
866,65	1298,41
866,82	1222,64
866,99	1284,08
867,16	1298,41
867,32	1277,93
867,49	1243,12
867,66	1206,25
867,83	1288,17
867,99	1269,74
868,16	1218,54
868,33	1296,36
868,49	1243,12
868,66	1290,22
868,83	1277,93
868,99	1329,13
869,16	1261,55
869,33	1273,84
869,50	1304,56
869,66	1273,84
869,83	1267,69
870,00	1267,69
870,16	1273,84
870,33	1261,55
870,50	1241,07
870,66	1265,64
870,83	1271,79
871,00	1177,58
871,17	1288,17
871,33	1277,93
871,50	1222,64
871,67	1236,97
871,83	1282,03
872,00	1306,60
872,17	1271,79
872,33	1304,56
872,50	1249,26
872,67	1216,49
872,83	1308,65
873,00	1296,36
873,17	1294,32
873,33	1247,21
873,50	1173,49
873,67	1200,11
873,83	1331,18
874,00	1263,60
874,16	1288,17
874,33	1277,93
874,50	1292,27
874,66	1282,03
874,83	1308,65
875,00	1288,17
875,16	1329,13
875,33	1282,03
875,50	1144,81
875,66	1318,89
875,83	1275,88
875,99	1261,55
876,16	1288,17
876,33	1216,49
876,49	1234,93
876,66	1257,45
876,83	1304,56
876,99	1308,65
877,16	1300,46
877,32	1298,41
877,49	1239,02
877,66	1234,93
877,82	1284,08
877,99	1271,79
878,15	1298,41
878,32	1384,43
878,49	1210,35
878,65	1277,93
878,82	1325,04
878,98	1271,79
879,15	1294,32
879,32	1212,40
879,48	1265,64
879,65	1245,16
879,81	1218,54
879,98	1200,11
880,15	1306,60
880,31	1306,60
880,48	1288,17
880,64	1294,32
880,81	1241,07
880,97	1216,49
881,14	1228,78
881,31	1275,88
881,47	1296,36
881,64	1212,40
881,80	1290,22
881,97	1298,41
882,13	1282,03
882,30	1185,77
882,47	1265,64
882,63	1187,82
882,80	1279,98
882,96	1204,21
883,13	1279,98
883,29	1273,84
883,46	1253,36
883,62	1265,64
883,79	1320,94
883,95	1259,50
884,12	1300,46
884,29	1263,60
884,45	1277,93
884,62	1257,45
884,78	1339,37
884,95	1271,79
885,11	1292,27
885,28	1292,27
885,44	1259,50
885,61	1290,22
885,77	1249,26
885,94	1249,26
886,10	1224,69
886,27	1269,74
886,43	1292,27
886,60	1247,21
886,76	1232,88
886,93	1308,65
887,09	1310,70
887,26	1232,88
887,42	1230,83
887,59	1261,55
887,75	1271,79
887,92	1253,36
888,08	1263,60
888,25	1263,60
888,41	1310,70
888,58	1271,79
888,74	1226,73
888,91	1351,66
>>>>>End Processed Spectral Data<<<<<
