SpectraSuite Data File
++++++++++++++++++++++++++++++++++++
Date: Sun Apr 03 19:41:34 CEST 2016
User: root
Dark Spectrum Present: No
Reference Spectrum Present: No
Number of Sampled Component Spectra: 1
Spectrometers: USB4C02835
Integration Time (usec): 10000 (USB4C02835)
Spectra Averaged: 1 (USB4C02835)
Boxcar Smoothing: 0 (USB4C02835)
Correct for Electrical Dark: No (USB4C02835)
Strobe/Lamp Enabled: No (USB4C02835)
Correct for Detector Non-linearity: No (USB4C02835)
Correct for Stray Light: No (USB4C02835)
Number of Pixels in Processed Spectrum: 3648
>>>>>Begin Processed Spectral Data<<<<<
177,47	1290,22
177,69	1290,22
177,91	1290,22
178,13	1249,26
178,36	1261,55
178,58	1261,55
178,80	1247,21
179,02	1249,26
179,24	1245,16
179,46	1265,64
179,68	1331,18
179,90	1327,08
180,13	1314,80
180,35	1372,14
180,57	1247,21
180,79	1265,64
181,01	1306,60
181,23	1253,36
181,45	1200,11
181,67	1241,07
181,90	1296,36
182,12	1290,22
182,34	1304,56
182,56	1159,15
182,78	1298,41
183,00	1271,79
183,22	1314,80
183,44	1230,83
183,66	1241,07
183,89	1304,56
184,11	1275,88
184,33	1271,79
184,55	1226,73
184,77	1294,32
184,99	1282,03
185,21	1204,21
185,43	1230,83
185,65	1253,36
185,87	1239,02
186,10	1255,40
186,32	1292,27
186,54	1257,45
186,76	1218,54
186,98	1298,41
187,20	1247,21
187,42	1200,11
187,64	1325,04
187,86	1269,74
188,08	1253,36
188,30	1302,51
188,52	1261,55
188,75	1263,60
188,97	1261,55
189,19	1265,64
189,41	1265,64
189,63	1314,80
189,85	1200,11
190,07	1232,88
190,29	1337,32
190,51	1241,07
190,73	1265,64
190,95	1275,88
191,17	1298,41
191,39	1257,45
191,61	1255,40
191,84	1222,64
192,06	1316,84
192,28	1269,74
192,50	1290,22
192,72	1245,16
192,94	1204,21
193,16	1277,93
193,38	1249,26
193,60	1212,40
193,82	1320,94
194,04	1247,21
194,26	1236,97
194,48	1241,07
194,70	1325,04
194,92	1308,65
195,14	1159,15
195,36	1335,28
195,58	1269,74
195,80	1236,97
196,02	1249,26
196,24	1236,97
196,46	1265,64
196,69	1275,88
196,91	1253,36
197,13	1239,02
197,35	1239,02
197,57	1290,22
197,79	1279,98
198,01	1308,65
198,23	1259,50
198,45	1277,93
198,67	1255,40
198,89	1286,12
199,11	1271,79
199,33	1224,69
199,55	1279,98
199,77	1322,99
199,99	1267,69
200,21	1296,36
200,43	1263,60
200,65	1294,32
200,87	1232,88
201,09	1253,36
201,31	1255,40
201,53	1298,41
201,75	1259,50
201,97	1279,98
202,19	1290,22
202,41	1234,93
202,63	1255,40
202,85	1277,93
203,07	1314,80
203,29	1222,64
203,51	1292,27
203,73	1216,49
203,95	1325,04
204,17	1236,97
204,39	1267,69
204,61	1292,27
204,83	1273,84
205,05	1249,26
205,27	1224,69
205,49	1245,16
205,71	1296,36
205,93	1200,11
206,15	1253,36
206,37	1271,79
206,59	1245,16
206,81	1267,69
207,03	1355,76
207,25	1193,97
207,47	1282,03
207,69	1269,74
207,91	1312,75
208,13	1294,32
208,34	1312,75
208,56	1286,12
208,78	1198,06
209,00	1290,22
209,22	1288,17
209,44	1269,74
209,66	1241,07
209,88	1228,78
210,10	1314,80
210,32	1290,22
210,54	1329,13
210,76	1279,98
210,98	1183,73
211,20	1318,89
211,42	1296,36
211,64	1249,26
211,86	1247,21
212,08	1335,28
212,30	1306,60
212,52	1245,16
212,74	1273,84
212,96	1277,93
213,17	1265,64
213,39	1261,55
213,61	1308,65
213,83	1241,07
214,05	1290,22
214,27	1282,03
214,49	1322,99
214,71	1224,69
214,93	1318,89
215,15	1257,45
215,37	1234,93
215,59	1247,21
215,81	1286,12
216,03	1279,98
216,24	1261,55
216,46	1277,93
216,68	1275,88
216,90	1277,93
217,12	1277,93
217,34	1232,88
217,56	1239,02
217,78	1294,32
218,00	1363,95
218,22	1210,35
218,44	1236,97
218,66	1239,02
218,87	1310,70
219,09	1275,88
219,31	1320,94
219,53	1230,83
219,75	1300,46
219,97	1247,21
220,19	1302,51
220,41	1228,78
220,63	1314,80
220,85	1249,26
221,06	1261,55
221,28	1251,31
221,50	1292,27
221,72	1247,21
221,94	1249,26
222,16	1292,27
222,38	1218,54
222,60	1271,79
222,82	1290,22
223,03	1322,99
223,25	1269,74
223,47	1234,93
223,69	1253,36
223,91	1214,45
224,13	1322,99
224,35	1337,32
224,57	1298,41
224,78	1294,32
225,00	1226,73
225,22	1304,56
225,44	1320,94
225,66	1222,64
225,88	1320,94
226,10	1259,50
226,32	1249,26
226,53	1302,51
226,75	1312,75
226,97	1189,87
227,19	1265,64
227,41	1230,83
227,63	1292,27
227,85	1255,40
228,06	1290,22
228,28	1288,17
228,50	1277,93
228,72	1341,42
228,94	1302,51
229,16	1253,36
229,37	1263,60
229,59	1218,54
229,81	1304,56
230,03	1279,98
230,25	1288,17
230,47	1224,69
230,69	1261,55
230,90	1210,35
231,12	1300,46
231,34	1310,70
231,56	1257,45
231,78	1261,55
232,00	1265,64
232,21	1288,17
232,43	1230,83
232,65	1216,49
232,87	1337,32
233,09	1273,84
233,30	1300,46
233,52	1327,08
233,74	1331,18
233,96	1243,12
234,18	1230,83
234,40	1275,88
234,61	1261,55
234,83	1196,01
235,05	1218,54
235,27	1249,26
235,49	1267,69
235,70	1339,37
235,92	1263,60
236,14	1265,64
236,36	1296,36
236,58	1302,51
236,79	1329,13
237,01	1277,93
237,23	1304,56
237,45	1236,97
237,67	1349,61
237,88	1249,26
238,10	1284,08
238,32	1255,40
238,54	1286,12
238,76	1251,31
238,97	1314,80
239,19	1198,06
239,41	1200,11
239,63	1245,16
239,85	1265,64
240,06	1210,35
240,28	1290,22
240,50	1271,79
240,72	1314,80
240,93	1228,78
241,15	1302,51
241,37	1243,12
241,59	1208,30
241,81	1273,84
242,02	1243,12
242,24	1265,64
242,46	1329,13
242,68	1292,27
242,89	1288,17
243,11	1286,12
243,33	1269,74
243,55	1308,65
243,76	1265,64
243,98	1187,82
244,20	1279,98
244,42	1247,21
244,64	1249,26
244,85	1218,54
245,07	1247,21
245,29	1255,40
245,51	1187,82
245,72	1261,55
245,94	1257,45
246,16	1288,17
246,38	1269,74
246,59	1269,74
246,81	1320,94
247,03	1228,78
247,24	1265,64
247,46	1224,69
247,68	1298,41
247,90	1220,59
248,11	1267,69
248,33	1310,70
248,55	1226,73
248,77	1300,46
248,98	1288,17
249,20	1212,40
249,42	1279,98
249,64	1249,26
249,85	1310,70
250,07	1220,59
250,29	1236,97
250,50	1282,03
250,72	1306,60
250,94	1226,73
251,16	1284,08
251,37	1304,56
251,59	1249,26
251,81	1236,97
252,02	1296,36
252,24	1200,11
252,46	1273,84
252,68	1253,36
252,89	1263,60
253,11	1255,40
253,33	1347,56
253,54	1286,12
253,76	1257,45
253,98	1320,94
254,20	1343,47
254,41	1271,79
254,63	1171,44
254,85	1232,88
255,06	1193,97
255,28	1263,60
255,50	1306,60
255,71	1241,07
255,93	1277,93
256,15	1294,32
256,36	1159,15
256,58	1318,89
256,80	1191,92
257,02	1226,73
257,23	1212,40
257,45	1257,45
257,67	1267,69
257,88	1314,80
258,10	1273,84
258,32	1300,46
258,53	1279,98
258,75	1239,02
258,97	1279,98
259,18	1271,79
259,40	1298,41
259,62	1208,30
259,83	1245,16
260,05	1269,74
260,27	1263,60
260,48	1232,88
260,70	1275,88
260,92	1253,36
261,13	1226,73
261,35	1322,99
261,57	1259,50
261,78	1259,50
262,00	1273,84
262,22	1191,92
262,43	1216,49
262,65	1239,02
262,86	1241,07
263,08	1288,17
263,30	1239,02
263,51	1253,36
263,73	1335,28
263,95	1275,88
264,16	1245,16
264,38	1263,60
264,60	1263,60
264,81	1296,36
265,03	1253,36
265,25	1275,88
265,46	1224,69
265,68	1308,65
265,89	1312,75
266,11	1249,26
266,33	1247,21
266,54	1251,31
266,76	1257,45
266,98	1327,08
267,19	1304,56
267,41	1310,70
267,62	1257,45
267,84	1202,16
268,06	1245,16
268,27	1269,74
268,49	1306,60
268,70	1339,37
268,92	1310,70
269,14	1245,16
269,35	1247,21
269,57	1277,93
269,79	1314,80
270,00	1220,59
270,22	1232,88
270,43	1257,45
270,65	1257,45
270,87	1259,50
271,08	1277,93
271,30	1292,27
271,51	1261,55
271,73	1189,87
271,95	1286,12
272,16	1286,12
272,38	1257,45
272,59	1308,65
272,81	1214,45
273,02	1222,64
273,24	1257,45
273,46	1245,16
273,67	1304,56
273,89	1257,45
274,10	1257,45
274,32	1296,36
274,54	1236,97
274,75	1265,64
274,97	1284,08
275,18	1363,95
275,40	1249,26
275,61	1232,88
275,83	1279,98
276,05	1226,73
276,26	1241,07
276,48	1224,69
276,69	1259,50
276,91	1351,66
277,12	1183,73
277,34	1271,79
277,55	1279,98
277,77	1253,36
277,99	1222,64
278,20	1325,04
278,42	1290,22
278,63	1304,56
278,85	1243,12
279,06	1239,02
279,28	1275,88
279,49	1236,97
279,71	1269,74
279,93	1263,60
280,14	1257,45
280,36	1236,97
280,57	1314,80
280,79	1298,41
281,00	1234,93
281,22	1187,82
281,43	1239,02
281,65	1292,27
281,86	1292,27
282,08	1306,60
282,29	1390,57
282,51	1212,40
282,73	1265,64
282,94	1333,23
283,16	1320,94
283,37	1245,16
283,59	1271,79
283,80	1282,03
284,02	1320,94
284,23	1341,42
284,45	1265,64
284,66	1271,79
284,88	1239,02
285,09	1296,36
285,31	1175,53
285,52	1191,92
285,74	1261,55
285,95	1310,70
286,17	1251,31
286,38	1202,16
286,60	1249,26
286,81	1255,40
287,03	1236,97
287,24	1282,03
287,46	1232,88
287,67	1288,17
287,89	1267,69
288,10	1296,36
288,32	1261,55
288,53	1290,22
288,75	1273,84
288,96	1331,18
289,18	1259,50
289,39	1249,26
289,61	1304,56
289,82	1251,31
290,04	1343,47
290,25	1337,32
290,47	1286,12
290,68	1210,35
290,90	1253,36
291,11	1370,09
291,33	1265,64
291,54	1337,32
291,76	1189,87
291,97	1249,26
292,18	1239,02
292,40	1241,07
292,61	1179,63
292,83	1282,03
293,04	1277,93
293,26	1290,22
293,47	1322,99
293,69	1286,12
293,90	1249,26
294,12	1273,84
294,33	1333,23
294,55	1298,41
294,76	1306,60
294,97	1208,30
295,19	1273,84
295,40	1314,80
295,62	1261,55
295,83	1290,22
296,05	1226,73
296,26	1271,79
296,48	1294,32
296,69	1300,46
296,90	1234,93
297,12	1228,78
297,33	1325,04
297,55	1300,46
297,76	1331,18
297,98	1257,45
298,19	1286,12
298,41	1282,03
298,62	1239,02
298,83	1269,74
299,05	1279,98
299,26	1228,78
299,48	1300,46
299,69	1306,60
299,90	1312,75
300,12	1259,50
300,33	1239,02
300,55	1294,32
300,76	1241,07
300,98	1275,88
301,19	1214,45
301,40	1320,94
301,62	1253,36
301,83	1277,93
302,05	1239,02
302,26	1206,25
302,47	1284,08
302,69	1257,45
302,90	1339,37
303,12	1245,16
303,33	1284,08
303,54	1269,74
303,76	1314,80
303,97	1288,17
304,19	1277,93
304,40	1269,74
304,61	1310,70
304,83	1265,64
305,04	1310,70
305,26	1265,64
305,47	1243,12
305,68	1329,13
305,90	1288,17
306,11	1261,55
306,33	1288,17
306,54	1220,59
306,75	1277,93
306,97	1314,80
307,18	1263,60
307,39	1234,93
307,61	1363,95
307,82	1298,41
308,04	1288,17
308,25	1322,99
308,46	1296,36
308,68	1247,21
308,89	1292,27
309,10	1208,30
309,32	1271,79
309,53	1257,45
309,74	1331,18
309,96	1232,88
310,17	1304,56
310,39	1351,66
310,60	1216,49
310,81	1337,32
311,03	1284,08
311,24	1200,11
311,45	1277,93
311,67	1302,51
311,88	1249,26
312,09	1298,41
312,31	1259,50
312,52	1245,16
312,73	1267,69
312,95	1273,84
313,16	1263,60
313,37	1249,26
313,59	1259,50
313,80	1327,08
314,01	1263,60
314,23	1232,88
314,44	1318,89
314,65	1247,21
314,87	1298,41
315,08	1232,88
315,29	1322,99
315,51	1200,11
315,72	1294,32
315,93	1322,99
316,15	1339,37
316,36	1187,82
316,57	1259,50
316,79	1243,12
317,00	1230,83
317,21	1263,60
317,43	1239,02
317,64	1257,45
317,85	1220,59
318,07	1239,02
318,28	1224,69
318,49	1267,69
318,70	1241,07
318,92	1316,84
319,13	1243,12
319,34	1271,79
319,56	1298,41
319,77	1327,08
319,98	1243,12
320,20	1294,32
320,41	1243,12
320,62	1333,23
320,83	1202,16
321,05	1265,64
321,26	1212,40
321,47	1222,64
321,69	1239,02
321,90	1277,93
322,11	1259,50
322,32	1308,65
322,54	1241,07
322,75	1257,45
322,96	1263,60
323,18	1273,84
323,39	1298,41
323,60	1282,03
323,81	1259,50
324,03	1245,16
324,24	1191,92
324,45	1302,51
324,66	1331,18
324,88	1236,97
325,09	1222,64
325,30	1257,45
325,52	1294,32
325,73	1294,32
325,94	1239,02
326,15	1196,01
326,37	1304,56
326,58	1318,89
326,79	1212,40
327,00	1224,69
327,22	1263,60
327,43	1282,03
327,64	1318,89
327,85	1273,84
328,07	1290,22
328,28	1279,98
328,49	1294,32
328,70	1210,35
328,92	1261,55
329,13	1212,40
329,34	1265,64
329,55	1279,98
329,76	1290,22
329,98	1263,60
330,19	1351,66
330,40	1251,31
330,61	1290,22
330,83	1245,16
331,04	1302,51
331,25	1286,12
331,46	1339,37
331,68	1239,02
331,89	1314,80
332,10	1245,16
332,31	1292,27
332,52	1333,23
332,74	1263,60
332,95	1333,23
333,16	1208,30
333,37	1269,74
333,58	1300,46
333,80	1226,73
334,01	1269,74
334,22	1275,88
334,43	1282,03
334,64	1286,12
334,86	1292,27
335,07	1230,83
335,28	1230,83
335,49	1218,54
335,70	1222,64
335,92	1253,36
336,13	1327,08
336,34	1200,11
336,55	1241,07
336,76	1275,88
336,98	1179,63
337,19	1277,93
337,40	1232,88
337,61	1257,45
337,82	1259,50
338,04	1261,55
338,25	1245,16
338,46	1325,04
338,67	1290,22
338,88	1286,12
339,09	1202,16
339,31	1222,64
339,52	1204,21
339,73	1275,88
339,94	1288,17
340,15	1318,89
340,36	1296,36
340,58	1290,22
340,79	1230,83
341,00	1312,75
341,21	1298,41
341,42	1329,13
341,63	1298,41
341,85	1351,66
342,06	1304,56
342,27	1232,88
342,48	1310,70
342,69	1282,03
342,90	1284,08
343,12	1282,03
343,33	1263,60
343,54	1214,45
343,75	1234,93
343,96	1267,69
344,17	1288,17
344,38	1277,93
344,60	1294,32
344,81	1232,88
345,02	1298,41
345,23	1314,80
345,44	1273,84
345,65	1277,93
345,86	1241,07
346,07	1241,07
346,29	1257,45
346,50	1245,16
346,71	1241,07
346,92	1327,08
347,13	1243,12
347,34	1230,83
347,55	1279,98
347,76	1247,21
347,98	1312,75
348,19	1228,78
348,40	1269,74
348,61	1320,94
348,82	1277,93
349,03	1208,30
349,24	1282,03
349,45	1251,31
349,66	1314,80
349,88	1257,45
350,09	1208,30
350,30	1253,36
350,51	1310,70
350,72	1226,73
350,93	1310,70
351,14	1263,60
351,35	1325,04
351,56	1310,70
351,77	1320,94
351,99	1202,16
352,20	1284,08
352,41	1284,08
352,62	1241,07
352,83	1230,83
353,04	1282,03
353,25	1349,61
353,46	1253,36
353,67	1314,80
353,88	1230,83
354,09	1275,88
354,30	1279,98
354,52	1224,69
354,73	1314,80
354,94	1286,12
355,15	1265,64
355,36	1279,98
355,57	1298,41
355,78	1376,24
355,99	1247,21
356,20	1202,16
356,41	1241,07
356,62	1212,40
356,83	1222,64
357,04	1220,59
357,25	1247,21
357,46	1290,22
357,68	1263,60
357,89	1189,87
358,10	1265,64
358,31	1282,03
358,52	1310,70
358,73	1269,74
358,94	1273,84
359,15	1318,89
359,36	1325,04
359,57	1290,22
359,78	1263,60
359,99	1286,12
360,20	1312,75
360,41	1263,60
360,62	1294,32
360,83	1314,80
361,04	1282,03
361,25	1243,12
361,46	1282,03
361,67	1241,07
361,88	1275,88
362,09	1320,94
362,30	1306,60
362,51	1308,65
362,72	1265,64
362,93	1269,74
363,14	1212,40
363,35	1294,32
363,56	1259,50
363,78	1275,88
363,99	1279,98
364,20	1292,27
364,41	1325,04
364,62	1236,97
364,83	1206,25
365,04	1320,94
365,25	1232,88
365,46	1277,93
365,67	1204,21
365,88	1218,54
366,09	1261,55
366,30	1318,89
366,51	1265,64
366,72	1204,21
366,93	1257,45
367,14	1302,51
367,35	1257,45
367,56	1312,75
367,77	1253,36
367,98	1208,30
368,18	1228,78
368,39	1253,36
368,60	1310,70
368,81	1193,97
369,02	1212,40
369,23	1216,49
369,44	1247,21
369,65	1239,02
369,86	1236,97
370,07	1232,88
370,28	1234,93
370,49	1226,73
370,70	1255,40
370,91	1275,88
371,12	1267,69
371,33	1269,74
371,54	1224,69
371,75	1253,36
371,96	1218,54
372,17	1325,04
372,38	1273,84
372,59	1312,75
372,80	1316,84
373,01	1271,79
373,22	1277,93
373,43	1243,12
373,64	1230,83
373,85	1253,36
374,06	1216,49
374,26	1298,41
374,47	1282,03
374,68	1290,22
374,89	1239,02
375,10	1279,98
375,31	1261,55
375,52	1234,93
375,73	1255,40
375,94	1218,54
376,15	1310,70
376,36	1251,31
376,57	1314,80
376,78	1239,02
376,99	1255,40
377,20	1304,56
377,40	1169,39
377,61	1191,92
377,82	1236,97
378,03	1275,88
378,24	1245,16
378,45	1234,93
378,66	1296,36
378,87	1236,97
379,08	1314,80
379,29	1216,49
379,50	1316,84
379,71	1171,44
379,91	1216,49
380,12	1296,36
380,33	1298,41
380,54	1251,31
380,75	1275,88
380,96	1222,64
381,17	1282,03
381,38	1286,12
381,59	1232,88
381,80	1282,03
382,00	1228,78
382,21	1261,55
382,42	1347,56
382,63	1304,56
382,84	1269,74
383,05	1279,98
383,26	1306,60
383,47	1277,93
383,68	1279,98
383,88	1257,45
384,09	1302,51
384,30	1214,45
384,51	1302,51
384,72	1345,52
384,93	1267,69
385,14	1288,17
385,35	1255,40
385,55	1234,93
385,76	1308,65
385,97	1329,13
386,18	1271,79
386,39	1282,03
386,60	1236,97
386,81	1204,21
387,02	1249,26
387,22	1290,22
387,43	1236,97
387,64	1290,22
387,85	1265,64
388,06	1253,36
388,27	1273,84
388,48	1275,88
388,68	1249,26
388,89	1212,40
389,10	1331,18
389,31	1271,79
389,52	1191,92
389,73	1253,36
389,93	1259,50
390,14	1333,23
390,35	1247,21
390,56	1316,84
390,77	1269,74
390,98	1277,93
391,18	1171,44
391,39	1269,74
391,60	1322,99
391,81	1286,12
392,02	1347,56
392,23	1259,50
392,43	1189,87
392,64	1228,78
392,85	1300,46
393,06	1249,26
393,27	1247,21
393,47	1292,27
393,68	1308,65
393,89	1304,56
394,10	1312,75
394,31	1249,26
394,52	1245,16
394,72	1245,16
394,93	1251,31
395,14	1130,48
395,35	1312,75
395,56	1243,12
395,76	1196,01
395,97	1214,45
396,18	1212,40
396,39	1275,88
396,60	1286,12
396,80	1269,74
397,01	1370,09
397,22	1226,73
397,43	1290,22
397,64	1208,30
397,84	1288,17
398,05	1269,74
398,26	1279,98
398,47	1202,16
398,67	1271,79
398,88	1288,17
399,09	1222,64
399,30	1257,45
399,51	1224,69
399,71	1253,36
399,92	1290,22
400,13	1325,04
400,34	1271,79
400,54	1341,42
400,75	1318,89
400,96	1282,03
401,17	1290,22
401,37	1222,64
401,58	1288,17
401,79	1265,64
402,00	1228,78
402,21	1167,34
402,41	1202,16
402,62	1230,83
402,83	1292,27
403,04	1222,64
403,24	1253,36
403,45	1279,98
403,66	1284,08
403,87	1241,07
404,07	1312,75
404,28	1247,21
404,49	1187,82
404,70	1249,26
404,90	1251,31
405,11	1220,59
405,32	1306,60
405,52	1345,52
405,73	1331,18
405,94	1224,69
406,15	1275,88
406,35	1253,36
406,56	1216,49
406,77	1304,56
406,98	1255,40
407,18	1335,28
407,39	1261,55
407,60	1294,32
407,80	1212,40
408,01	1370,09
408,22	1255,40
408,43	1286,12
408,63	1247,21
408,84	1277,93
409,05	1251,31
409,25	1284,08
409,46	1204,21
409,67	1294,32
409,88	1290,22
410,08	1298,41
410,29	1282,03
410,50	1232,88
410,70	1234,93
410,91	1157,10
411,12	1292,27
411,32	1206,25
411,53	1296,36
411,74	1249,26
411,95	1169,39
412,15	1267,69
412,36	1198,06
412,57	1224,69
412,77	1273,84
412,98	1249,26
413,19	1282,03
413,39	1279,98
413,60	1247,21
413,81	1255,40
414,01	1202,16
414,22	1261,55
414,43	1263,60
414,63	1243,12
414,84	1279,98
415,05	1249,26
415,25	1302,51
415,46	1257,45
415,67	1236,97
415,87	1263,60
416,08	1253,36
416,29	1196,01
416,49	1290,22
416,70	1210,35
416,91	1247,21
417,11	1216,49
417,32	1230,83
417,53	1331,18
417,73	1290,22
417,94	1277,93
418,15	1267,69
418,35	1206,25
418,56	1200,11
418,77	1245,16
418,97	1273,84
419,18	1255,40
419,38	1245,16
419,59	1230,83
419,80	1251,31
420,00	1236,97
420,21	1263,60
420,42	1234,93
420,62	1269,74
420,83	1335,28
421,04	1314,80
421,24	1314,80
421,45	1212,40
421,65	1224,69
421,86	1312,75
422,07	1259,50
422,27	1288,17
422,48	1241,07
422,69	1265,64
422,89	1318,89
423,10	1193,97
423,30	1196,01
423,51	1253,36
423,72	1304,56
423,92	1286,12
424,13	1327,08
424,33	1236,97
424,54	1273,84
424,75	1175,53
424,95	1355,76
425,16	1247,21
425,36	1341,42
425,57	1316,84
425,78	1191,92
425,98	1302,51
426,19	1243,12
426,39	1216,49
426,60	1251,31
426,81	1222,64
427,01	1189,87
427,22	1228,78
427,42	1271,79
427,63	1292,27
427,83	1288,17
428,04	1290,22
428,25	1282,03
428,45	1247,21
428,66	1202,16
428,86	1191,92
429,07	1275,88
429,28	1304,56
429,48	1214,45
429,69	1275,88
429,89	1191,92
430,10	1230,83
430,30	1230,83
430,51	1296,36
430,71	1314,80
430,92	1224,69
431,13	1277,93
431,33	1273,84
431,54	1214,45
431,74	1247,21
431,95	1241,07
432,15	1206,25
432,36	1269,74
432,56	1216,49
432,77	1273,84
432,98	1312,75
433,18	1247,21
433,39	1275,88
433,59	1304,56
433,80	1253,36
434,00	1249,26
434,21	1241,07
434,41	1241,07
434,62	1292,27
434,82	1277,93
435,03	1261,55
435,23	1282,03
435,44	1228,78
435,64	1290,22
435,85	1314,80
436,06	1282,03
436,26	1245,16
436,47	1222,64
436,67	1288,17
436,88	1232,88
437,08	1298,41
437,29	1273,84
437,49	1265,64
437,70	1282,03
437,90	1243,12
438,11	1259,50
438,31	1239,02
438,52	1279,98
438,72	1269,74
438,93	1322,99
439,13	1251,31
439,34	1347,56
439,54	1261,55
439,75	1279,98
439,95	1257,45
440,16	1263,60
440,36	1277,93
440,57	1269,74
440,77	1267,69
440,98	1271,79
441,18	1288,17
441,39	1288,17
441,59	1333,23
441,80	1259,50
442,00	1267,69
442,21	1273,84
442,41	1265,64
442,62	1216,49
442,82	1241,07
443,02	1261,55
443,23	1263,60
443,43	1294,32
443,64	1282,03
443,84	1241,07
444,05	1306,60
444,25	1243,12
444,46	1259,50
444,66	1255,40
444,87	1220,59
445,07	1296,36
445,28	1249,26
445,48	1245,16
445,69	1282,03
445,89	1314,80
446,09	1241,07
446,30	1269,74
446,50	1306,60
446,71	1251,31
446,91	1296,36
447,12	1279,98
447,32	1255,40
447,53	1243,12
447,73	1290,22
447,93	1243,12
448,14	1339,37
448,34	1296,36
448,55	1273,84
448,75	1282,03
448,96	1286,12
449,16	1243,12
449,36	1243,12
449,57	1308,65
449,77	1277,93
449,98	1259,50
450,18	1198,06
450,39	1292,27
450,59	1271,79
450,79	1286,12
451,00	1265,64
451,20	1288,17
451,41	1331,18
451,61	1333,23
451,81	1304,56
452,02	1255,40
452,22	1368,04
452,43	1294,32
452,63	1253,36
452,84	1286,12
453,04	1167,34
453,24	1302,51
453,45	1255,40
453,65	1239,02
453,86	1263,60
454,06	1279,98
454,26	1298,41
454,47	1138,67
454,67	1322,99
454,87	1306,60
455,08	1269,74
455,28	1290,22
455,49	1271,79
455,69	1239,02
455,89	1228,78
456,10	1277,93
456,30	1279,98
456,51	1271,79
456,71	1263,60
456,91	1316,84
457,12	1269,74
457,32	1251,31
457,52	1329,13
457,73	1263,60
457,93	1245,16
458,14	1228,78
458,34	1288,17
458,54	1335,28
458,75	1288,17
458,95	1236,97
459,15	1234,93
459,36	1234,93
459,56	1269,74
459,76	1298,41
459,97	1314,80
460,17	1253,36
460,37	1318,89
460,58	1267,69
460,78	1290,22
460,99	1222,64
461,19	1298,41
461,39	1204,21
461,60	1282,03
461,80	1216,49
462,00	1282,03
462,21	1204,21
462,41	1277,93
462,61	1239,02
462,82	1241,07
463,02	1230,83
463,22	1325,04
463,43	1279,98
463,63	1239,02
463,83	1236,97
464,04	1300,46
464,24	1351,66
464,44	1212,40
464,64	1236,97
464,85	1271,79
465,05	1314,80
465,25	1329,13
465,46	1187,82
465,66	1273,84
465,86	1220,59
466,07	1259,50
466,27	1314,80
466,47	1284,08
466,68	1177,58
466,88	1316,84
467,08	1302,51
467,29	1298,41
467,49	1284,08
467,69	1282,03
467,89	1296,36
468,10	1216,49
468,30	1224,69
468,50	1337,32
468,71	1253,36
468,91	1284,08
469,11	1208,30
469,31	1247,21
469,52	1204,21
469,72	1206,25
469,92	1286,12
470,13	1267,69
470,33	1148,91
470,53	1245,16
470,73	1322,99
470,94	1312,75
471,14	1257,45
471,34	1261,55
471,54	1300,46
471,75	1343,47
471,95	1226,73
472,15	1292,27
472,36	1241,07
472,56	1249,26
472,76	1298,41
472,96	1286,12
473,17	1204,21
473,37	1226,73
473,57	1271,79
473,77	1249,26
473,98	1306,60
474,18	1230,83
474,38	1224,69
474,58	1265,64
474,79	1222,64
474,99	1243,12
475,19	1241,07
475,39	1247,21
475,60	1296,36
475,80	1259,50
476,00	1249,26
476,20	1265,64
476,41	1314,80
476,61	1300,46
476,81	1265,64
477,01	1267,69
477,21	1222,64
477,42	1239,02
477,62	1275,88
477,82	1224,69
478,02	1273,84
478,23	1294,32
478,43	1253,36
478,63	1271,79
478,83	1243,12
479,03	1265,64
479,24	1234,93
479,44	1241,07
479,64	1253,36
479,84	1253,36
480,04	1310,70
480,25	1277,93
480,45	1257,45
480,65	1333,23
480,85	1261,55
481,06	1224,69
481,26	1226,73
481,46	1335,28
481,66	1279,98
481,86	1273,84
482,06	1269,74
482,27	1255,40
482,47	1304,56
482,67	1251,31
482,87	1282,03
483,07	1189,87
483,28	1239,02
483,48	1277,93
483,68	1255,40
483,88	1322,99
484,08	1226,73
484,29	1249,26
484,49	1261,55
484,69	1339,37
484,89	1263,60
485,09	1288,17
485,29	1269,74
485,50	1236,97
485,70	1247,21
485,90	1271,79
486,10	1230,83
486,30	1265,64
486,50	1181,68
486,71	1310,70
486,91	1282,03
487,11	1339,37
487,31	1284,08
487,51	1224,69
487,71	1261,55
487,91	1249,26
488,12	1247,21
488,32	1263,60
488,52	1353,71
488,72	1202,16
488,92	1290,22
489,12	1259,50
489,32	1220,59
489,53	1247,21
489,73	1306,60
489,93	1288,17
490,13	1239,02
490,33	1282,03
490,53	1261,55
490,73	1359,85
490,94	1193,97
491,14	1277,93
491,34	1275,88
491,54	1253,36
491,74	1251,31
491,94	1265,64
492,14	1337,32
492,34	1271,79
492,54	1316,84
492,75	1247,21
492,95	1294,32
493,15	1232,88
493,35	1267,69
493,55	1198,06
493,75	1320,94
493,95	1214,45
494,15	1290,22
494,35	1329,13
494,56	1327,08
494,76	1277,93
494,96	1265,64
495,16	1306,60
495,36	1212,40
495,56	1286,12
495,76	1236,97
495,96	1249,26
496,16	1247,21
496,36	1271,79
496,56	1177,58
496,77	1210,35
496,97	1251,31
497,17	1298,41
497,37	1206,25
497,57	1251,31
497,77	1300,46
497,97	1249,26
498,17	1267,69
498,37	1275,88
498,57	1284,08
498,77	1253,36
498,97	1277,93
499,17	1234,93
499,38	1208,30
499,58	1214,45
499,78	1259,50
499,98	1243,12
500,18	1220,59
500,38	1329,13
500,58	1224,69
500,78	1288,17
500,98	1288,17
501,18	1257,45
501,38	1257,45
501,58	1312,75
501,78	1173,49
501,98	1224,69
502,18	1249,26
502,38	1394,67
502,58	1206,25
502,78	1259,50
502,98	1257,45
503,18	1335,28
503,38	1296,36
503,59	1273,84
503,79	1193,97
503,99	1306,60
504,19	1263,60
504,39	1267,69
504,59	1353,71
504,79	1247,21
504,99	1298,41
505,19	1251,31
505,39	1196,01
505,59	1241,07
505,79	1247,21
505,99	1294,32
506,19	1306,60
506,39	1234,93
506,59	1257,45
506,79	1279,98
506,99	1236,97
507,19	1322,99
507,39	1263,60
507,59	1224,69
507,79	1247,21
507,99	1243,12
508,19	1187,82
508,39	1282,03
508,59	1216,49
508,79	1269,74
508,99	1204,21
509,19	1265,64
509,39	1320,94
509,59	1265,64
509,79	1243,12
509,99	1271,79
510,19	1236,97
510,39	1228,78
510,59	1275,88
510,79	1261,55
510,99	1320,94
511,19	1224,69
511,39	1341,42
511,59	1265,64
511,79	1271,79
511,99	1267,69
512,19	1284,08
512,38	1335,28
512,58	1347,56
512,78	1279,98
512,98	1284,08
513,18	1257,45
513,38	1314,80
513,58	1284,08
513,78	1282,03
513,98	1300,46
514,18	1263,60
514,38	1265,64
514,58	1181,68
514,78	1257,45
514,98	1259,50
515,18	1282,03
515,38	1206,25
515,58	1302,51
515,78	1335,28
515,98	1306,60
516,18	1335,28
516,38	1216,49
516,57	1216,49
516,77	1241,07
516,97	1261,55
517,17	1230,83
517,37	1253,36
517,57	1273,84
517,77	1290,22
517,97	1327,08
518,17	1320,94
518,37	1257,45
518,57	1277,93
518,77	1234,93
518,97	1230,83
519,16	1257,45
519,36	1277,93
519,56	1224,69
519,76	1263,60
519,96	1236,97
520,16	1261,55
520,36	1216,49
520,56	1228,78
520,76	1275,88
520,96	1214,45
521,16	1214,45
521,35	1196,01
521,55	1327,08
521,75	1275,88
521,95	1249,26
522,15	1304,56
522,35	1224,69
522,55	1206,25
522,75	1325,04
522,95	1236,97
523,14	1292,27
523,34	1232,88
523,54	1239,02
523,74	1292,27
523,94	1353,71
524,14	1249,26
524,34	1288,17
524,54	1234,93
524,73	1239,02
524,93	1257,45
525,13	1298,41
525,33	1271,79
525,53	1329,13
525,73	1234,93
525,93	1339,37
526,13	1361,90
526,32	1273,84
526,52	1261,55
526,72	1275,88
526,92	1290,22
527,12	1282,03
527,32	1273,84
527,52	1212,40
527,71	1232,88
527,91	1282,03
528,11	1302,51
528,31	1230,83
528,51	1277,93
528,71	1302,51
528,90	1306,60
529,10	1251,31
529,30	1253,36
529,50	1210,35
529,70	1329,13
529,90	1220,59
530,09	1259,50
530,29	1228,78
530,49	1279,98
530,69	1279,98
530,89	1249,26
531,09	1261,55
531,28	1253,36
531,48	1255,40
531,68	1259,50
531,88	1329,13
532,08	1218,54
532,28	1286,12
532,47	1271,79
532,67	1279,98
532,87	1251,31
533,07	1327,08
533,27	1304,56
533,46	1251,31
533,66	1218,54
533,86	1247,21
534,06	1255,40
534,26	1247,21
534,45	1322,99
534,65	1224,69
534,85	1314,80
535,05	1345,52
535,25	1294,32
535,44	1245,16
535,64	1249,26
535,84	1239,02
536,04	1271,79
536,24	1277,93
536,43	1327,08
536,63	1257,45
536,83	1200,11
537,03	1255,40
537,22	1333,23
537,42	1290,22
537,62	1267,69
537,82	1257,45
538,02	1273,84
538,21	1314,80
538,41	1232,88
538,61	1277,93
538,81	1239,02
539,00	1249,26
539,20	1234,93
539,40	1306,60
539,60	1263,60
539,79	1300,46
539,99	1210,35
540,19	1290,22
540,39	1163,25
540,58	1202,16
540,78	1261,55
540,98	1249,26
541,18	1167,34
541,37	1304,56
541,57	1271,79
541,77	1294,32
541,97	1222,64
542,16	1243,12
542,36	1224,69
542,56	1253,36
542,76	1351,66
542,95	1226,73
543,15	1284,08
543,35	1331,18
543,54	1239,02
543,74	1226,73
543,94	1226,73
544,14	1279,98
544,33	1232,88
544,53	1286,12
544,73	1257,45
544,93	1253,36
545,12	1290,22
545,32	1269,74
545,52	1273,84
545,71	1212,40
545,91	1251,31
546,11	1269,74
546,30	1239,02
546,50	1325,04
546,70	1288,17
546,90	1243,12
547,09	1282,03
547,29	1286,12
547,49	1322,99
547,68	1349,61
547,88	1267,69
548,08	1253,36
548,27	1327,08
548,47	1279,98
548,67	1257,45
548,87	1214,45
549,06	1259,50
549,26	1267,69
549,46	1177,58
549,65	1173,49
549,85	1284,08
550,05	1322,99
550,24	1193,97
550,44	1255,40
550,64	1304,56
550,83	1200,11
551,03	1302,51
551,23	1275,88
551,42	1228,78
551,62	1265,64
551,82	1257,45
552,01	1271,79
552,21	1290,22
552,41	1241,07
552,60	1298,41
552,80	1222,64
553,00	1296,36
553,19	1273,84
553,39	1208,30
553,59	1306,60
553,78	1185,77
553,98	1226,73
554,17	1210,35
554,37	1216,49
554,57	1290,22
554,76	1310,70
554,96	1273,84
555,16	1183,73
555,35	1318,89
555,55	1222,64
555,75	1302,51
555,94	1255,40
556,14	1267,69
556,33	1265,64
556,53	1277,93
556,73	1322,99
556,92	1251,31
557,12	1271,79
557,32	1267,69
557,51	1261,55
557,71	1310,70
557,90	1290,22
558,10	1261,55
558,30	1290,22
558,49	1257,45
558,69	1251,31
558,88	1179,63
559,08	1290,22
559,28	1271,79
559,47	1269,74
559,67	1263,60
559,86	1318,89
560,06	1232,88
560,26	1298,41
560,45	1259,50
560,65	1386,47
560,84	1282,03
561,04	1265,64
561,24	1216,49
561,43	1277,93
561,63	1253,36
561,82	1245,16
562,02	1347,56
562,22	1224,69
562,41	1200,11
562,61	1265,64
562,80	1239,02
563,00	1226,73
563,19	1232,88
563,39	1220,59
563,59	1257,45
563,78	1310,70
563,98	1236,97
564,17	1277,93
564,37	1193,97
564,56	1232,88
564,76	1292,27
564,96	1257,45
565,15	1318,89
565,35	1206,25
565,54	1214,45
565,74	1318,89
565,93	1277,93
566,13	1257,45
566,32	1327,08
566,52	1308,65
566,71	1265,64
566,91	1212,40
567,11	1226,73
567,30	1331,18
567,50	1277,93
567,69	1271,79
567,89	1249,26
568,08	1290,22
568,28	1224,69
568,47	1255,40
568,67	1271,79
568,86	1290,22
569,06	1290,22
569,25	1230,83
569,45	1273,84
569,64	1247,21
569,84	1296,36
570,04	1298,41
570,23	1239,02
570,43	1241,07
570,62	1265,64
570,82	1322,99
571,01	1253,36
571,21	1263,60
571,40	1265,64
571,60	1181,68
571,79	1282,03
571,99	1212,40
572,18	1230,83
572,38	1255,40
572,57	1294,32
572,77	1337,32
572,96	1282,03
573,16	1228,78
573,35	1366,00
573,55	1222,64
573,74	1296,36
573,94	1148,91
574,13	1247,21
574,33	1279,98
574,52	1257,45
574,71	1366,00
574,91	1271,79
575,10	1290,22
575,30	1296,36
575,49	1239,02
575,69	1204,21
575,88	1220,59
576,08	1255,40
576,27	1322,99
576,47	1232,88
576,66	1241,07
576,86	1236,97
577,05	1302,51
577,25	1269,74
577,44	1288,17
577,64	1226,73
577,83	1322,99
578,02	1236,97
578,22	1210,35
578,41	1232,88
578,61	1255,40
578,80	1232,88
579,00	1263,60
579,19	1263,60
579,39	1247,21
579,58	1306,60
579,77	1300,46
579,97	1255,40
580,16	1234,93
580,36	1249,26
580,55	1208,30
580,75	1210,35
580,94	1263,60
581,13	1216,49
581,33	1263,60
581,52	1277,93
581,72	1247,21
581,91	1251,31
582,11	1230,83
582,30	1282,03
582,49	1193,97
582,69	1253,36
582,88	1277,93
583,08	1216,49
583,27	1273,84
583,47	1271,79
583,66	1308,65
583,85	1241,07
584,05	1200,11
584,24	1253,36
584,44	1271,79
584,63	1279,98
584,82	1245,16
585,02	1236,97
585,21	1251,31
585,41	1245,16
585,60	1308,65
585,79	1247,21
585,99	1212,40
586,18	1187,82
586,37	1292,27
586,57	1236,97
586,76	1249,26
586,96	1232,88
587,15	1232,88
587,34	1300,46
587,54	1255,40
587,73	1277,93
587,93	1239,02
588,12	1161,20
588,31	1282,03
588,51	1255,40
588,70	1247,21
588,89	1253,36
589,09	1251,31
589,28	1257,45
589,47	1230,83
589,67	1267,69
589,86	1267,69
590,06	1253,36
590,25	1286,12
590,44	1251,31
590,64	1294,32
590,83	1257,45
591,02	1310,70
591,22	1239,02
591,41	1249,26
591,60	1187,82
591,80	1255,40
591,99	1331,18
592,18	1204,21
592,38	1316,84
592,57	1249,26
592,76	1277,93
592,96	1202,16
593,15	1253,36
593,34	1253,36
593,54	1236,97
593,73	1234,93
593,92	1333,23
594,12	1163,25
594,31	1218,54
594,50	1222,64
594,70	1279,98
594,89	1286,12
595,08	1216,49
595,28	1277,93
595,47	1327,08
595,66	1337,32
595,86	1226,73
596,05	1222,64
596,24	1275,88
596,43	1247,21
596,63	1265,64
596,82	1298,41
597,01	1236,97
597,21	1230,83
597,40	1243,12
597,59	1284,08
597,79	1218,54
597,98	1273,84
598,17	1378,28
598,36	1294,32
598,56	1316,84
598,75	1271,79
598,94	1282,03
599,14	1273,84
599,33	1298,41
599,52	1183,73
599,71	1302,51
599,91	1261,55
600,10	1249,26
600,29	1212,40
600,48	1296,36
600,68	1300,46
600,87	1282,03
601,06	1265,64
601,26	1359,85
601,45	1282,03
601,64	1265,64
601,83	1241,07
602,03	1222,64
602,22	1269,74
602,41	1265,64
602,60	1335,28
602,80	1243,12
602,99	1261,55
603,18	1257,45
603,37	1189,87
603,57	1220,59
603,76	1230,83
603,95	1253,36
604,14	1265,64
604,34	1224,69
604,53	1212,40
604,72	1253,36
604,91	1304,56
605,10	1259,50
605,30	1222,64
605,49	1275,88
605,68	1308,65
605,87	1212,40
606,07	1302,51
606,26	1286,12
606,45	1347,56
606,64	1236,97
606,84	1191,92
607,03	1286,12
607,22	1275,88
607,41	1241,07
607,60	1261,55
607,80	1239,02
607,99	1296,36
608,18	1320,94
608,37	1312,75
608,56	1284,08
608,76	1275,88
608,95	1277,93
609,14	1320,94
609,33	1345,52
609,52	1277,93
609,72	1339,37
609,91	1239,02
610,10	1241,07
610,29	1325,04
610,48	1236,97
610,68	1257,45
610,87	1312,75
611,06	1191,92
611,25	1267,69
611,44	1255,40
611,63	1189,87
611,83	1298,41
612,02	1277,93
612,21	1327,08
612,40	1218,54
612,59	1218,54
612,79	1273,84
612,98	1265,64
613,17	1212,40
613,36	1257,45
613,55	1253,36
613,74	1300,46
613,93	1318,89
614,13	1312,75
614,32	1300,46
614,51	1310,70
614,70	1269,74
614,89	1239,02
615,08	1296,36
615,28	1310,70
615,47	1277,93
615,66	1304,56
615,85	1327,08
616,04	1335,28
616,23	1284,08
616,42	1288,17
616,62	1255,40
616,81	1220,59
617,00	1212,40
617,19	1257,45
617,38	1251,31
617,57	1249,26
617,76	1249,26
617,95	1282,03
618,15	1290,22
618,34	1308,65
618,53	1298,41
618,72	1275,88
618,91	1337,32
619,10	1243,12
619,29	1212,40
619,48	1239,02
619,68	1298,41
619,87	1277,93
620,06	1251,31
620,25	1228,78
620,44	1288,17
620,63	1243,12
620,82	1208,30
621,01	1273,84
621,20	1226,73
621,39	1257,45
621,59	1306,60
621,78	1282,03
621,97	1200,11
622,16	1277,93
622,35	1263,60
622,54	1290,22
622,73	1286,12
622,92	1302,51
623,11	1286,12
623,30	1310,70
623,49	1277,93
623,68	1236,97
623,88	1288,17
624,07	1263,60
624,26	1200,11
624,45	1306,60
624,64	1222,64
624,83	1271,79
625,02	1292,27
625,21	1222,64
625,40	1253,36
625,59	1273,84
625,78	1316,84
625,97	1292,27
626,16	1331,18
626,35	1333,23
626,54	1228,78
626,74	1284,08
626,93	1243,12
627,12	1308,65
627,31	1271,79
627,50	1263,60
627,69	1335,28
627,88	1279,98
628,07	1257,45
628,26	1331,18
628,45	1273,84
628,64	1304,56
628,83	1314,80
629,02	1286,12
629,21	1306,60
629,40	1353,71
629,59	1263,60
629,78	1251,31
629,97	1265,64
630,16	1349,61
630,35	1241,07
630,54	1310,70
630,73	1279,98
630,92	1300,46
631,11	1361,90
631,30	1423,34
631,49	1300,46
631,68	1449,96
631,87	1597,42
632,06	1980,39
632,25	1687,53
632,44	1771,49
632,63	1894,37
632,82	2254,81
633,01	3270,61
633,20	3299,28
633,39	3012,56
633,58	2437,08
633,77	2414,56
633,96	3061,71
634,15	3911,62
634,34	3876,80
634,53	3162,06
634,72	2486,23
634,91	2209,76
635,10	1929,19
635,29	1802,21
635,48	1773,54
635,67	1755,11
635,86	1660,90
636,05	1556,46
636,24	1538,02
636,43	1415,15
636,62	1366,00
636,81	1413,10
637,00	1380,33
637,19	1400,81
637,38	1394,67
637,57	1298,41
637,76	1363,95
637,95	1312,75
638,14	1329,13
638,33	1290,22
638,52	1349,61
638,71	1269,74
638,89	1304,56
639,08	1322,99
639,27	1249,26
639,46	1271,79
639,65	1288,17
639,84	1249,26
640,03	1333,23
640,22	1196,01
640,41	1310,70
640,60	1341,42
640,79	1298,41
640,98	1267,69
641,17	1218,54
641,36	1222,64
641,55	1339,37
641,74	1288,17
641,92	1296,36
642,11	1185,77
642,30	1263,60
642,49	1269,74
642,68	1286,12
642,87	1245,16
643,06	1259,50
643,25	1202,16
643,44	1288,17
643,63	1200,11
643,82	1236,97
644,00	1286,12
644,19	1312,75
644,38	1290,22
644,57	1265,64
644,76	1257,45
644,95	1255,40
645,14	1327,08
645,33	1269,74
645,52	1263,60
645,71	1267,69
645,89	1163,25
646,08	1322,99
646,27	1347,56
646,46	1284,08
646,65	1241,07
646,84	1284,08
647,03	1220,59
647,22	1263,60
647,40	1181,68
647,59	1222,64
647,78	1302,51
647,97	1261,55
648,16	1273,84
648,35	1290,22
648,54	1296,36
648,73	1255,40
648,91	1245,16
649,10	1312,75
649,29	1261,55
649,48	1273,84
649,67	1206,25
649,86	1286,12
650,05	1296,36
650,23	1290,22
650,42	1304,56
650,61	1279,98
650,80	1267,69
650,99	1343,47
651,18	1224,69
651,36	1236,97
651,55	1316,84
651,74	1314,80
651,93	1282,03
652,12	1261,55
652,31	1234,93
652,49	1279,98
652,68	1290,22
652,87	1251,31
653,06	1243,12
653,25	1241,07
653,44	1265,64
653,62	1245,16
653,81	1263,60
654,00	1288,17
654,19	1273,84
654,38	1296,36
654,56	1230,83
654,75	1331,18
654,94	1277,93
655,13	1249,26
655,32	1255,40
655,51	1302,51
655,69	1294,32
655,88	1282,03
656,07	1251,31
656,26	1292,27
656,45	1228,78
656,63	1259,50
656,82	1236,97
657,01	1275,88
657,20	1200,11
657,38	1236,97
657,57	1245,16
657,76	1249,26
657,95	1232,88
658,14	1224,69
658,32	1222,64
658,51	1331,18
658,70	1286,12
658,89	1286,12
659,08	1241,07
659,26	1312,75
659,45	1288,17
659,64	1308,65
659,83	1230,83
660,01	1277,93
660,20	1210,35
660,39	1269,74
660,58	1325,04
660,76	1265,64
660,95	1298,41
661,14	1216,49
661,33	1259,50
661,51	1251,31
661,70	1269,74
661,89	1296,36
662,08	1247,21
662,26	1230,83
662,45	1294,32
662,64	1331,18
662,83	1249,26
663,01	1271,79
663,20	1294,32
663,39	1296,36
663,58	1230,83
663,76	1273,84
663,95	1282,03
664,14	1204,21
664,32	1271,79
664,51	1279,98
664,70	1200,11
664,89	1220,59
665,07	1226,73
665,26	1222,64
665,45	1282,03
665,64	1251,31
665,82	1234,93
666,01	1296,36
666,20	1230,83
666,38	1253,36
666,57	1298,41
666,76	1206,25
666,95	1200,11
667,13	1271,79
667,32	1325,04
667,51	1236,97
667,69	1304,56
667,88	1249,26
668,07	1265,64
668,25	1286,12
668,44	1202,16
668,63	1273,84
668,81	1335,28
669,00	1275,88
669,19	1232,88
669,38	1234,93
669,56	1310,70
669,75	1247,21
669,94	1161,20
670,12	1271,79
670,31	1257,45
670,50	1222,64
670,68	1314,80
670,87	1261,55
671,06	1275,88
671,24	1284,08
671,43	1236,97
671,62	1292,27
671,80	1267,69
671,99	1214,45
672,18	1263,60
672,36	1249,26
672,55	1228,78
672,74	1226,73
672,92	1206,25
673,11	1300,46
673,29	1282,03
673,48	1265,64
673,67	1267,69
673,85	1292,27
674,04	1279,98
674,23	1247,21
674,41	1210,35
674,60	1218,54
674,79	1310,70
674,97	1224,69
675,16	1247,21
675,34	1241,07
675,53	1273,84
675,72	1261,55
675,90	1267,69
676,09	1230,83
676,28	1226,73
676,46	1290,22
676,65	1220,59
676,83	1277,93
677,02	1224,69
677,21	1257,45
677,39	1279,98
677,58	1253,36
677,77	1251,31
677,95	1228,78
678,14	1275,88
678,32	1265,64
678,51	1343,47
678,70	1300,46
678,88	1277,93
679,07	1273,84
679,25	1282,03
679,44	1179,63
679,63	1288,17
679,81	1249,26
680,00	1208,30
680,18	1216,49
680,37	1222,64
680,55	1279,98
680,74	1232,88
680,93	1273,84
681,11	1273,84
681,30	1269,74
681,48	1290,22
681,67	1243,12
681,85	1245,16
682,04	1206,25
682,23	1200,11
682,41	1202,16
682,60	1257,45
682,78	1310,70
682,97	1255,40
683,15	1282,03
683,34	1267,69
683,53	1314,80
683,71	1290,22
683,90	1286,12
684,08	1310,70
684,27	1239,02
684,45	1198,06
684,64	1275,88
684,82	1206,25
685,01	1343,47
685,19	1171,44
685,38	1239,02
685,57	1277,93
685,75	1355,76
685,94	1247,21
686,12	1279,98
686,31	1239,02
686,49	1304,56
686,68	1284,08
686,86	1249,26
687,05	1279,98
687,23	1345,52
687,42	1222,64
687,60	1230,83
687,79	1292,27
687,97	1239,02
688,16	1269,74
688,34	1173,49
688,53	1263,60
688,71	1239,02
688,90	1306,60
689,08	1257,45
689,27	1251,31
689,45	1271,79
689,64	1300,46
689,82	1288,17
690,01	1292,27
690,19	1325,04
690,38	1325,04
690,56	1290,22
690,75	1269,74
690,93	1271,79
691,12	1193,97
691,30	1193,97
691,49	1290,22
691,67	1329,13
691,86	1308,65
692,04	1204,21
692,23	1234,93
692,41	1247,21
692,60	1222,64
692,78	1232,88
692,97	1259,50
693,15	1331,18
693,34	1265,64
693,52	1277,93
693,71	1206,25
693,89	1228,78
694,08	1259,50
694,26	1236,97
694,44	1251,31
694,63	1257,45
694,81	1306,60
695,00	1251,31
695,18	1239,02
695,37	1249,26
695,55	1230,83
695,74	1271,79
695,92	1202,16
696,10	1241,07
696,29	1286,12
696,47	1302,51
696,66	1236,97
696,84	1220,59
697,03	1204,21
697,21	1228,78
697,40	1345,52
697,58	1228,78
697,76	1312,75
697,95	1363,95
698,13	1273,84
698,32	1187,82
698,50	1316,84
698,68	1273,84
698,87	1312,75
699,05	1257,45
699,24	1210,35
699,42	1247,21
699,61	1257,45
699,79	1304,56
699,97	1245,16
700,16	1255,40
700,34	1286,12
700,53	1282,03
700,71	1193,97
700,89	1284,08
701,08	1204,21
701,26	1230,83
701,45	1271,79
701,63	1208,30
701,81	1294,32
702,00	1245,16
702,18	1277,93
702,37	1322,99
702,55	1245,16
702,73	1247,21
702,92	1296,36
703,10	1282,03
703,28	1273,84
703,47	1232,88
703,65	1374,19
703,84	1320,94
704,02	1224,69
704,20	1226,73
704,39	1261,55
704,57	1232,88
704,75	1271,79
704,94	1257,45
705,12	1298,41
705,30	1179,63
705,49	1318,89
705,67	1282,03
705,86	1290,22
706,04	1263,60
706,22	1245,16
706,41	1279,98
706,59	1212,40
706,77	1310,70
706,96	1243,12
707,14	1226,73
707,32	1261,55
707,51	1347,56
707,69	1243,12
707,87	1271,79
708,06	1232,88
708,24	1263,60
708,42	1218,54
708,61	1331,18
708,79	1267,69
708,97	1275,88
709,16	1249,26
709,34	1224,69
709,52	1257,45
709,71	1286,12
709,89	1304,56
710,07	1228,78
710,26	1290,22
710,44	1265,64
710,62	1255,40
710,80	1253,36
710,99	1273,84
711,17	1230,83
711,35	1253,36
711,54	1294,32
711,72	1327,08
711,90	1210,35
712,09	1273,84
712,27	1318,89
712,45	1263,60
712,63	1290,22
712,82	1261,55
713,00	1355,76
713,18	1265,64
713,37	1265,64
713,55	1255,40
713,73	1232,88
713,91	1234,93
714,10	1308,65
714,28	1226,73
714,46	1245,16
714,65	1269,74
714,83	1273,84
715,01	1322,99
715,19	1247,21
715,38	1273,84
715,56	1216,49
715,74	1284,08
715,92	1228,78
716,11	1306,60
716,29	1320,94
716,47	1267,69
716,65	1255,40
716,84	1298,41
717,02	1290,22
717,20	1275,88
717,38	1273,84
717,57	1202,16
717,75	1218,54
717,93	1282,03
718,11	1288,17
718,30	1236,97
718,48	1275,88
718,66	1226,73
718,84	1304,56
719,03	1300,46
719,21	1202,16
719,39	1306,60
719,57	1271,79
719,75	1284,08
719,94	1306,60
720,12	1261,55
720,30	1366,00
720,48	1296,36
720,67	1216,49
720,85	1335,28
721,03	1292,27
721,21	1202,16
721,39	1208,30
721,58	1269,74
721,76	1245,16
721,94	1230,83
722,12	1210,35
722,30	1271,79
722,49	1269,74
722,67	1212,40
722,85	1255,40
723,03	1271,79
723,21	1267,69
723,40	1275,88
723,58	1261,55
723,76	1312,75
723,94	1187,82
724,12	1249,26
724,30	1273,84
724,49	1208,30
724,67	1263,60
724,85	1396,71
725,03	1279,98
725,21	1290,22
725,40	1304,56
725,58	1286,12
725,76	1249,26
725,94	1173,49
726,12	1273,84
726,30	1314,80
726,49	1236,97
726,67	1300,46
726,85	1245,16
727,03	1347,56
727,21	1220,59
727,39	1191,92
727,57	1284,08
727,76	1236,97
727,94	1245,16
728,12	1279,98
728,30	1241,07
728,48	1284,08
728,66	1251,31
728,84	1337,32
729,03	1236,97
729,21	1247,21
729,39	1314,80
729,57	1277,93
729,75	1353,71
729,93	1310,70
730,11	1232,88
730,30	1290,22
730,48	1261,55
730,66	1163,25
730,84	1298,41
731,02	1253,36
731,20	1249,26
731,38	1298,41
731,56	1261,55
731,74	1261,55
731,93	1239,02
732,11	1271,79
732,29	1226,73
732,47	1279,98
732,65	1337,32
732,83	1286,12
733,01	1318,89
733,19	1351,66
733,37	1271,79
733,56	1277,93
733,74	1249,26
733,92	1290,22
734,10	1185,77
734,28	1277,93
734,46	1257,45
734,64	1265,64
734,82	1288,17
735,00	1169,39
735,18	1286,12
735,36	1269,74
735,54	1312,75
735,73	1222,64
735,91	1183,73
736,09	1245,16
736,27	1312,75
736,45	1288,17
736,63	1261,55
736,81	1284,08
736,99	1245,16
737,17	1355,76
737,35	1220,59
737,53	1247,21
737,71	1296,36
737,89	1292,27
738,07	1271,79
738,25	1316,84
738,43	1212,40
738,61	1298,41
738,80	1257,45
738,98	1286,12
739,16	1214,45
739,34	1277,93
739,52	1277,93
739,70	1212,40
739,88	1224,69
740,06	1265,64
740,24	1302,51
740,42	1292,27
740,60	1265,64
740,78	1206,25
740,96	1191,92
741,14	1290,22
741,32	1310,70
741,50	1224,69
741,68	1306,60
741,86	1222,64
742,04	1253,36
742,22	1294,32
742,40	1290,22
742,58	1204,21
742,76	1271,79
742,94	1269,74
743,12	1275,88
743,30	1284,08
743,48	1310,70
743,66	1284,08
743,84	1247,21
744,02	1286,12
744,20	1222,64
744,38	1173,49
744,56	1273,84
744,74	1257,45
744,92	1191,92
745,10	1218,54
745,28	1363,95
745,46	1288,17
745,64	1257,45
745,82	1265,64
746,00	1273,84
746,18	1290,22
746,36	1314,80
746,54	1308,65
746,72	1298,41
746,90	1257,45
747,08	1345,52
747,26	1288,17
747,44	1277,93
747,62	1273,84
747,80	1243,12
747,98	1279,98
748,15	1253,36
748,33	1255,40
748,51	1302,51
748,69	1271,79
748,87	1245,16
749,05	1341,42
749,23	1251,31
749,41	1310,70
749,59	1322,99
749,77	1224,69
749,95	1263,60
750,13	1232,88
750,31	1298,41
750,49	1339,37
750,67	1249,26
750,85	1284,08
751,03	1302,51
751,20	1290,22
751,38	1286,12
751,56	1296,36
751,74	1265,64
751,92	1273,84
752,10	1279,98
752,28	1271,79
752,46	1279,98
752,64	1269,74
752,82	1183,73
753,00	1288,17
753,18	1257,45
753,35	1273,84
753,53	1247,21
753,71	1351,66
753,89	1230,83
754,07	1253,36
754,25	1298,41
754,43	1267,69
754,61	1263,60
754,79	1241,07
754,97	1245,16
755,14	1275,88
755,32	1265,64
755,50	1259,50
755,68	1292,27
755,86	1257,45
756,04	1261,55
756,22	1214,45
756,40	1269,74
756,57	1243,12
756,75	1243,12
756,93	1298,41
757,11	1277,93
757,29	1259,50
757,47	1251,31
757,65	1206,25
757,82	1304,56
758,00	1236,97
758,18	1251,31
758,36	1288,17
758,54	1253,36
758,72	1230,83
758,90	1298,41
759,07	1259,50
759,25	1312,75
759,43	1300,46
759,61	1234,93
759,79	1294,32
759,97	1312,75
760,15	1300,46
760,32	1337,32
760,50	1253,36
760,68	1345,52
760,86	1292,27
761,04	1357,80
761,22	1275,88
761,39	1232,88
761,57	1333,23
761,75	1296,36
761,93	1255,40
762,11	1230,83
762,28	1257,45
762,46	1220,59
762,64	1245,16
762,82	1282,03
763,00	1255,40
763,18	1206,25
763,35	1302,51
763,53	1232,88
763,71	1314,80
763,89	1253,36
764,07	1286,12
764,24	1296,36
764,42	1230,83
764,60	1279,98
764,78	1255,40
764,96	1312,75
765,13	1198,06
765,31	1310,70
765,49	1234,93
765,67	1271,79
765,84	1294,32
766,02	1275,88
766,20	1230,83
766,38	1249,26
766,56	1253,36
766,73	1222,64
766,91	1198,06
767,09	1157,10
767,27	1329,13
767,44	1263,60
767,62	1236,97
767,80	1320,94
767,98	1224,69
768,15	1236,97
768,33	1222,64
768,51	1212,40
768,69	1220,59
768,87	1255,40
769,04	1329,13
769,22	1277,93
769,40	1218,54
769,58	1239,02
769,75	1261,55
769,93	1232,88
770,11	1239,02
770,28	1316,84
770,46	1257,45
770,64	1322,99
770,82	1216,49
770,99	1226,73
771,17	1267,69
771,35	1265,64
771,53	1257,45
771,70	1298,41
771,88	1290,22
772,06	1249,26
772,23	1202,16
772,41	1286,12
772,59	1351,66
772,77	1300,46
772,94	1224,69
773,12	1292,27
773,30	1277,93
773,47	1329,13
773,65	1241,07
773,83	1232,88
774,01	1216,49
774,18	1306,60
774,36	1249,26
774,54	1206,25
774,71	1247,21
774,89	1298,41
775,07	1257,45
775,24	1286,12
775,42	1241,07
775,60	1292,27
775,78	1298,41
775,95	1273,84
776,13	1261,55
776,31	1228,78
776,48	1267,69
776,66	1286,12
776,84	1230,83
777,01	1273,84
777,19	1292,27
777,37	1314,80
777,54	1249,26
777,72	1304,56
777,90	1271,79
778,07	1253,36
778,25	1249,26
778,43	1234,93
778,60	1269,74
778,78	1146,86
778,96	1310,70
779,13	1243,12
779,31	1300,46
779,49	1273,84
779,66	1234,93
779,84	1282,03
780,01	1208,30
780,19	1220,59
780,37	1345,52
780,54	1275,88
780,72	1271,79
780,90	1314,80
781,07	1349,61
781,25	1282,03
781,43	1263,60
781,60	1282,03
781,78	1282,03
781,95	1255,40
782,13	1279,98
782,31	1196,01
782,48	1267,69
782,66	1255,40
782,83	1251,31
783,01	1198,06
783,19	1306,60
783,36	1284,08
783,54	1322,99
783,72	1189,87
783,89	1284,08
784,07	1286,12
784,24	1257,45
784,42	1279,98
784,60	1243,12
784,77	1304,56
784,95	1271,79
785,12	1275,88
785,30	1249,26
785,47	1251,31
785,65	1277,93
785,83	1247,21
786,00	1253,36
786,18	1230,83
786,35	1173,49
786,53	1306,60
786,71	1232,88
786,88	1212,40
787,06	1304,56
787,23	1214,45
787,41	1189,87
787,58	1261,55
787,76	1286,12
787,94	1286,12
788,11	1234,93
788,29	1300,46
788,46	1232,88
788,64	1253,36
788,81	1247,21
788,99	1282,03
789,16	1263,60
789,34	1255,40
789,52	1193,97
789,69	1290,22
789,87	1288,17
790,04	1253,36
790,22	1239,02
790,39	1273,84
790,57	1298,41
790,74	1273,84
790,92	1234,93
791,09	1261,55
791,27	1200,11
791,44	1279,98
791,62	1198,06
791,79	1249,26
791,97	1230,83
792,15	1245,16
792,32	1273,84
792,50	1294,32
792,67	1316,84
792,85	1298,41
793,02	1265,64
793,20	1322,99
793,37	1243,12
793,55	1275,88
793,72	1249,26
793,90	1302,51
794,07	1226,73
794,25	1241,07
794,42	1181,68
794,60	1300,46
794,77	1273,84
794,95	1251,31
795,12	1243,12
795,30	1314,80
795,47	1273,84
795,65	1294,32
795,82	1277,93
796,00	1206,25
796,17	1277,93
796,34	1253,36
796,52	1312,75
796,69	1263,60
796,87	1230,83
797,04	1249,26
797,22	1245,16
797,39	1316,84
797,57	1255,40
797,74	1234,93
797,92	1275,88
798,09	1265,64
798,27	1253,36
798,44	1312,75
798,62	1290,22
798,79	1298,41
798,96	1279,98
799,14	1232,88
799,31	1282,03
799,49	1236,97
799,66	1286,12
799,84	1282,03
800,01	1279,98
800,19	1282,03
800,36	1245,16
800,53	1314,80
800,71	1206,25
800,88	1234,93
801,06	1316,84
801,23	1210,35
801,41	1247,21
801,58	1189,87
801,75	1200,11
801,93	1232,88
802,10	1286,12
802,28	1296,36
802,45	1251,31
802,63	1273,84
802,80	1226,73
802,97	1286,12
803,15	1259,50
803,32	1267,69
803,50	1236,97
803,67	1247,21
803,84	1249,26
804,02	1247,21
804,19	1267,69
804,37	1288,17
804,54	1228,78
804,71	1363,95
804,89	1263,60
805,06	1200,11
805,24	1214,45
805,41	1273,84
805,58	1271,79
805,76	1245,16
805,93	1259,50
806,10	1331,18
806,28	1249,26
806,45	1279,98
806,63	1257,45
806,80	1275,88
806,97	1255,40
807,15	1271,79
807,32	1247,21
807,49	1277,93
807,67	1306,60
807,84	1333,23
808,01	1239,02
808,19	1271,79
808,36	1275,88
808,54	1325,04
808,71	1185,77
808,88	1351,66
809,06	1226,73
809,23	1261,55
809,40	1239,02
809,58	1284,08
809,75	1304,56
809,92	1269,74
810,10	1304,56
810,27	1269,74
810,44	1286,12
810,62	1298,41
810,79	1277,93
810,96	1234,93
811,14	1351,66
811,31	1183,73
811,48	1253,36
811,66	1243,12
811,83	1208,30
812,00	1302,51
812,18	1294,32
812,35	1265,64
812,52	1247,21
812,69	1267,69
812,87	1245,16
813,04	1257,45
813,21	1302,51
813,39	1314,80
813,56	1261,55
813,73	1251,31
813,91	1243,12
814,08	1239,02
814,25	1220,59
814,42	1247,21
814,60	1296,36
814,77	1218,54
814,94	1294,32
815,12	1253,36
815,29	1267,69
815,46	1220,59
815,63	1273,84
815,81	1282,03
815,98	1263,60
816,15	1282,03
816,33	1263,60
816,50	1259,50
816,67	1286,12
816,84	1241,07
817,02	1251,31
817,19	1335,28
817,36	1261,55
817,53	1236,97
817,71	1214,45
817,88	1271,79
818,05	1267,69
818,22	1196,01
818,40	1314,80
818,57	1220,59
818,74	1226,73
818,91	1239,02
819,09	1224,69
819,26	1318,89
819,43	1257,45
819,60	1212,40
819,78	1302,51
819,95	1279,98
820,12	1298,41
820,29	1304,56
820,47	1298,41
820,64	1286,12
820,81	1290,22
820,98	1243,12
821,15	1265,64
821,33	1265,64
821,50	1177,58
821,67	1255,40
821,84	1263,60
822,02	1286,12
822,19	1263,60
822,36	1271,79
822,53	1257,45
822,70	1296,36
822,88	1220,59
823,05	1277,93
823,22	1310,70
823,39	1312,75
823,56	1282,03
823,74	1253,36
823,91	1251,31
824,08	1249,26
824,25	1241,07
824,42	1269,74
824,60	1253,36
824,77	1241,07
824,94	1224,69
825,11	1333,23
825,28	1224,69
825,45	1269,74
825,63	1253,36
825,80	1304,56
825,97	1286,12
826,14	1279,98
826,31	1257,45
826,48	1224,69
826,66	1241,07
826,83	1247,21
827,00	1261,55
827,17	1214,45
827,34	1277,93
827,51	1253,36
827,69	1249,26
827,86	1275,88
828,03	1234,93
828,20	1298,41
828,37	1208,30
828,54	1288,17
828,71	1257,45
828,89	1261,55
829,06	1196,01
829,23	1306,60
829,40	1296,36
829,57	1337,32
829,74	1204,21
829,91	1269,74
830,09	1335,28
830,26	1236,97
830,43	1314,80
830,60	1267,69
830,77	1304,56
830,94	1247,21
831,11	1310,70
831,28	1353,71
831,46	1232,88
831,63	1243,12
831,80	1271,79
831,97	1212,40
832,14	1261,55
832,31	1339,37
832,48	1200,11
832,65	1277,93
832,82	1253,36
832,99	1335,28
833,17	1339,37
833,34	1275,88
833,51	1228,78
833,68	1261,55
833,85	1245,16
834,02	1294,32
834,19	1226,73
834,36	1193,97
834,53	1239,02
834,70	1284,08
834,87	1236,97
835,04	1230,83
835,22	1169,39
835,39	1275,88
835,56	1312,75
835,73	1304,56
835,90	1251,31
836,07	1302,51
836,24	1263,60
836,41	1263,60
836,58	1286,12
836,75	1277,93
836,92	1322,99
837,09	1294,32
837,26	1239,02
837,43	1263,60
837,60	1273,84
837,77	1267,69
837,94	1277,93
838,12	1286,12
838,29	1239,02
838,46	1277,93
838,63	1155,05
838,80	1273,84
838,97	1300,46
839,14	1314,80
839,31	1263,60
839,48	1222,64
839,65	1232,88
839,82	1279,98
839,99	1216,49
840,16	1257,45
840,33	1200,11
840,50	1288,17
840,67	1253,36
840,84	1230,83
841,01	1245,16
841,18	1298,41
841,35	1286,12
841,52	1257,45
841,69	1265,64
841,86	1337,32
842,03	1255,40
842,20	1322,99
842,37	1210,35
842,54	1277,93
842,71	1267,69
842,88	1282,03
843,05	1212,40
843,22	1239,02
843,39	1277,93
843,56	1273,84
843,73	1284,08
843,90	1251,31
844,07	1306,60
844,24	1284,08
844,41	1247,21
844,58	1277,93
844,75	1263,60
844,92	1290,22
845,09	1245,16
845,26	1236,97
845,43	1337,32
845,60	1312,75
845,77	1208,30
845,94	1196,01
846,10	1294,32
846,27	1232,88
846,44	1220,59
846,61	1273,84
846,78	1239,02
846,95	1259,50
847,12	1236,97
847,29	1265,64
847,46	1257,45
847,63	1255,40
847,80	1261,55
847,97	1343,47
848,14	1208,30
848,31	1255,40
848,48	1216,49
848,65	1247,21
848,82	1265,64
848,98	1320,94
849,15	1275,88
849,32	1261,55
849,49	1320,94
849,66	1382,38
849,83	1257,45
850,00	1257,45
850,17	1230,83
850,34	1245,16
850,51	1253,36
850,68	1239,02
850,85	1204,21
851,01	1239,02
851,18	1259,50
851,35	1251,31
851,52	1241,07
851,69	1224,69
851,86	1189,87
852,03	1269,74
852,20	1251,31
852,37	1239,02
852,53	1251,31
852,70	1267,69
852,87	1306,60
853,04	1292,27
853,21	1267,69
853,38	1296,36
853,55	1224,69
853,72	1325,04
853,89	1284,08
854,05	1245,16
854,22	1265,64
854,39	1249,26
854,56	1196,01
854,73	1284,08
854,90	1236,97
855,07	1275,88
855,23	1267,69
855,40	1273,84
855,57	1308,65
855,74	1159,15
855,91	1183,73
856,08	1208,30
856,25	1294,32
856,41	1239,02
856,58	1290,22
856,75	1236,97
856,92	1320,94
857,09	1245,16
857,26	1245,16
857,42	1286,12
857,59	1253,36
857,76	1333,23
857,93	1234,93
858,10	1331,18
858,27	1271,79
858,43	1239,02
858,60	1300,46
858,77	1304,56
858,94	1253,36
859,11	1294,32
859,27	1179,63
859,44	1271,79
859,61	1279,98
859,78	1320,94
859,95	1329,13
860,12	1236,97
860,28	1245,16
860,45	1247,21
860,62	1277,93
860,79	1247,21
860,95	1232,88
861,12	1298,41
861,29	1200,11
861,46	1257,45
861,63	1257,45
861,79	1247,21
861,96	1224,69
862,13	1335,28
862,30	1253,36
862,47	1216,49
862,63	1232,88
862,80	1198,06
862,97	1273,84
863,14	1327,08
863,30	1200,11
863,47	1327,08
863,64	1214,45
863,81	1218,54
863,97	1230,83
864,14	1247,21
864,31	1255,40
864,48	1302,51
864,65	1290,22
864,81	1314,80
864,98	1284,08
865,15	1306,60
865,32	1208,30
865,48	1222,64
865,65	1224,69
865,82	1261,55
865,98	1306,60
866,15	1337,32
866,32	1189,87
866,49	1224,69
866,65	1214,45
866,82	1265,64
866,99	1331,18
867,16	1296,36
867,32	1257,45
867,49	1255,40
867,66	1204,21
867,83	1171,44
867,99	1267,69
868,16	1267,69
868,33	1191,92
868,49	1284,08
868,66	1202,16
868,83	1247,21
868,99	1218,54
869,16	1193,97
869,33	1308,65
869,50	1249,26
869,66	1282,03
869,83	1273,84
870,00	1214,45
870,16	1308,65
870,33	1284,08
870,50	1314,80
870,66	1329,13
870,83	1320,94
871,00	1279,98
871,17	1327,08
871,33	1310,70
871,50	1183,73
871,67	1277,93
871,83	1282,03
872,00	1273,84
872,17	1271,79
872,33	1210,35
872,50	1181,68
872,67	1220,59
872,83	1216,49
873,00	1243,12
873,17	1343,47
873,33	1275,88
873,50	1275,88
873,67	1249,26
873,83	1230,83
874,00	1255,40
874,16	1216,49
874,33	1286,12
874,50	1273,84
874,66	1224,69
874,83	1279,98
875,00	1247,21
875,16	1333,23
875,33	1226,73
875,50	1304,56
875,66	1257,45
875,83	1294,32
875,99	1230,83
876,16	1300,46
876,33	1241,07
876,49	1243,12
876,66	1255,40
876,83	1234,93
876,99	1265,64
877,16	1212,40
877,32	1249,26
877,49	1271,79
877,66	1232,88
877,82	1247,21
877,99	1202,16
878,15	1230,83
878,32	1226,73
878,49	1292,27
878,65	1288,17
878,82	1267,69
878,98	1249,26
879,15	1286,12
879,32	1243,12
879,48	1290,22
879,65	1210,35
879,81	1251,31
879,98	1236,97
880,15	1187,82
880,31	1288,17
880,48	1239,02
880,64	1267,69
880,81	1241,07
880,97	1273,84
881,14	1241,07
881,31	1269,74
881,47	1232,88
881,64	1312,75
881,80	1232,88
881,97	1261,55
882,13	1294,32
882,30	1263,60
882,47	1241,07
882,63	1271,79
882,80	1273,84
882,96	1241,07
883,13	1329,13
883,29	1267,69
883,46	1243,12
883,62	1249,26
883,79	1202,16
883,95	1298,41
884,12	1312,75
884,29	1251,31
884,45	1277,93
884,62	1257,45
884,78	1263,60
884,95	1263,60
885,11	1343,47
885,28	1253,36
885,44	1263,60
885,61	1327,08
885,77	1247,21
885,94	1255,40
886,10	1257,45
886,27	1318,89
886,43	1306,60
886,60	1351,66
886,76	1189,87
886,93	1216,49
887,09	1239,02
887,26	1265,64
887,42	1294,32
887,59	1269,74
887,75	1316,84
887,92	1259,50
888,08	1273,84
888,25	1318,89
888,41	1282,03
888,58	1228,78
888,74	1288,17
888,91	1261,55
>>>>>End Processed Spectral Data<<<<<
