SpectraSuite Data File
++++++++++++++++++++++++++++++++++++
Date: Sun Apr 03 14:11:34 CEST 2016
User: root
Dark Spectrum Present: No
Reference Spectrum Present: No
Number of Sampled Component Spectra: 1
Spectrometers: USB4C02835
Integration Time (usec): 10000 (USB4C02835)
Spectra Averaged: 1 (USB4C02835)
Boxcar Smoothing: 0 (USB4C02835)
Correct for Electrical Dark: No (USB4C02835)
Strobe/Lamp Enabled: No (USB4C02835)
Correct for Detector Non-linearity: No (USB4C02835)
Correct for Stray Light: No (USB4C02835)
Number of Pixels in Processed Spectrum: 3648
>>>>>Begin Processed Spectral Data<<<<<
177,47	1261,55
177,69	1261,55
177,91	1261,55
178,13	1232,88
178,36	1249,26
178,58	1282,03
178,80	1167,34
179,02	1206,25
179,24	1220,59
179,46	1290,22
179,68	1247,21
179,90	1265,64
180,13	1249,26
180,35	1239,02
180,57	1273,84
180,79	1265,64
181,01	1263,60
181,23	1251,31
181,45	1257,45
181,67	1288,17
181,90	1359,85
182,12	1257,45
182,34	1239,02
182,56	1202,16
182,78	1267,69
183,00	1284,08
183,22	1322,99
183,44	1282,03
183,66	1337,32
183,89	1267,69
184,11	1282,03
184,33	1292,27
184,55	1220,59
184,77	1345,52
184,99	1292,27
185,21	1230,83
185,43	1286,12
185,65	1296,36
185,87	1222,64
186,10	1255,40
186,32	1265,64
186,54	1228,78
186,76	1298,41
186,98	1294,32
187,20	1230,83
187,42	1284,08
187,64	1257,45
187,86	1275,88
188,08	1234,93
188,30	1275,88
188,52	1224,69
188,75	1288,17
188,97	1179,63
189,19	1198,06
189,41	1210,35
189,63	1271,79
189,85	1345,52
190,07	1236,97
190,29	1222,64
190,51	1306,60
190,73	1359,85
190,95	1288,17
191,17	1290,22
191,39	1277,93
191,61	1302,51
191,84	1286,12
192,06	1265,64
192,28	1245,16
192,50	1267,69
192,72	1273,84
192,94	1245,16
193,16	1290,22
193,38	1275,88
193,60	1212,40
193,82	1343,47
194,04	1296,36
194,26	1277,93
194,48	1265,64
194,70	1343,47
194,92	1286,12
195,14	1294,32
195,36	1290,22
195,58	1329,13
195,80	1282,03
196,02	1279,98
196,24	1228,78
196,46	1308,65
196,69	1247,21
196,91	1314,80
197,13	1290,22
197,35	1275,88
197,57	1239,02
197,79	1382,38
198,01	1241,07
198,23	1355,76
198,45	1304,56
198,67	1198,06
198,89	1210,35
199,11	1247,21
199,33	1306,60
199,55	1331,18
199,77	1335,28
199,99	1273,84
200,21	1286,12
200,43	1222,64
200,65	1304,56
200,87	1304,56
201,09	1279,98
201,31	1259,50
201,53	1249,26
201,75	1230,83
201,97	1271,79
202,19	1245,16
202,41	1271,79
202,63	1216,49
202,85	1320,94
203,07	1312,75
203,29	1325,04
203,51	1273,84
203,73	1198,06
203,95	1216,49
204,17	1273,84
204,39	1349,61
204,61	1351,66
204,83	1325,04
205,05	1267,69
205,27	1318,89
205,49	1304,56
205,71	1282,03
205,93	1275,88
206,15	1310,70
206,37	1253,36
206,59	1200,11
206,81	1204,21
207,03	1261,55
207,25	1310,70
207,47	1271,79
207,69	1308,65
207,91	1263,60
208,13	1275,88
208,34	1314,80
208,56	1279,98
208,78	1298,41
209,00	1310,70
209,22	1327,08
209,44	1282,03
209,66	1290,22
209,88	1236,97
210,10	1300,46
210,32	1300,46
210,54	1277,93
210,76	1314,80
210,98	1236,97
211,20	1257,45
211,42	1304,56
211,64	1282,03
211,86	1279,98
212,08	1327,08
212,30	1378,28
212,52	1337,32
212,74	1318,89
212,96	1284,08
213,17	1279,98
213,39	1322,99
213,61	1306,60
213,83	1294,32
214,05	1269,74
214,27	1249,26
214,49	1267,69
214,71	1216,49
214,93	1284,08
215,15	1200,11
215,37	1204,21
215,59	1292,27
215,81	1286,12
216,03	1282,03
216,24	1277,93
216,46	1273,84
216,68	1279,98
216,90	1284,08
217,12	1347,56
217,34	1320,94
217,56	1228,78
217,78	1210,35
218,00	1282,03
218,22	1257,45
218,44	1259,50
218,66	1363,95
218,87	1279,98
219,09	1273,84
219,31	1253,36
219,53	1269,74
219,75	1236,97
219,97	1296,36
220,19	1282,03
220,41	1353,71
220,63	1263,60
220,85	1335,28
221,06	1273,84
221,28	1310,70
221,50	1306,60
221,72	1271,79
221,94	1339,37
222,16	1314,80
222,38	1269,74
222,60	1329,13
222,82	1310,70
223,03	1314,80
223,25	1222,64
223,47	1277,93
223,69	1288,17
223,91	1314,80
224,13	1265,64
224,35	1273,84
224,57	1271,79
224,78	1288,17
225,00	1261,55
225,22	1275,88
225,44	1279,98
225,66	1267,69
225,88	1267,69
226,10	1337,32
226,32	1292,27
226,53	1275,88
226,75	1275,88
226,97	1300,46
227,19	1290,22
227,41	1310,70
227,63	1232,88
227,85	1269,74
228,06	1296,36
228,28	1271,79
228,50	1329,13
228,72	1263,60
228,94	1241,07
229,16	1257,45
229,37	1259,50
229,59	1337,32
229,81	1347,56
230,03	1253,36
230,25	1241,07
230,47	1277,93
230,69	1290,22
230,90	1230,83
231,12	1294,32
231,34	1294,32
231,56	1282,03
231,78	1253,36
232,00	1337,32
232,21	1273,84
232,43	1329,13
232,65	1294,32
232,87	1234,93
233,09	1216,49
233,30	1275,88
233,52	1282,03
233,74	1273,84
233,96	1253,36
234,18	1267,69
234,40	1245,16
234,61	1347,56
234,83	1236,97
235,05	1239,02
235,27	1257,45
235,49	1200,11
235,70	1179,63
235,92	1255,40
236,14	1294,32
236,36	1279,98
236,58	1193,97
236,79	1249,26
237,01	1234,93
237,23	1296,36
237,45	1302,51
237,67	1265,64
237,88	1212,40
238,10	1204,21
238,32	1216,49
238,54	1247,21
238,76	1306,60
238,97	1294,32
239,19	1214,45
239,41	1292,27
239,63	1298,41
239,85	1325,04
240,06	1279,98
240,28	1322,99
240,50	1353,71
240,72	1236,97
240,93	1181,68
241,15	1282,03
241,37	1271,79
241,59	1273,84
241,81	1220,59
242,02	1263,60
242,24	1355,76
242,46	1275,88
242,68	1236,97
242,89	1296,36
243,11	1234,93
243,33	1320,94
243,55	1292,27
243,76	1294,32
243,98	1239,02
244,20	1239,02
244,42	1284,08
244,64	1210,35
244,85	1271,79
245,07	1222,64
245,29	1212,40
245,51	1337,32
245,72	1339,37
245,94	1267,69
246,16	1308,65
246,38	1193,97
246,59	1269,74
246,81	1282,03
247,03	1316,84
247,24	1257,45
247,46	1241,07
247,68	1249,26
247,90	1314,80
248,11	1282,03
248,33	1239,02
248,55	1263,60
248,77	1306,60
248,98	1275,88
249,20	1329,13
249,42	1331,18
249,64	1310,70
249,85	1263,60
250,07	1249,26
250,29	1279,98
250,50	1382,38
250,72	1312,75
250,94	1218,54
251,16	1275,88
251,37	1292,27
251,59	1298,41
251,81	1308,65
252,02	1312,75
252,24	1241,07
252,46	1298,41
252,68	1304,56
252,89	1333,23
253,11	1345,52
253,33	1273,84
253,54	1232,88
253,76	1206,25
253,98	1210,35
254,20	1279,98
254,41	1265,64
254,63	1277,93
254,85	1181,68
255,06	1355,76
255,28	1298,41
255,50	1269,74
255,71	1304,56
255,93	1208,30
256,15	1314,80
256,36	1318,89
256,58	1241,07
256,80	1339,37
257,02	1296,36
257,23	1265,64
257,45	1222,64
257,67	1318,89
257,88	1298,41
258,10	1310,70
258,32	1320,94
258,53	1263,60
258,75	1241,07
258,97	1335,28
259,18	1253,36
259,40	1290,22
259,62	1277,93
259,83	1232,88
260,05	1269,74
260,27	1288,17
260,48	1296,36
260,70	1255,40
260,92	1230,83
261,13	1251,31
261,35	1314,80
261,57	1220,59
261,78	1282,03
262,00	1265,64
262,22	1290,22
262,43	1312,75
262,65	1261,55
262,86	1310,70
263,08	1234,93
263,30	1292,27
263,51	1341,42
263,73	1376,24
263,95	1239,02
264,16	1271,79
264,38	1220,59
264,60	1308,65
264,81	1302,51
265,03	1302,51
265,25	1318,89
265,46	1234,93
265,68	1308,65
265,89	1282,03
266,11	1290,22
266,33	1306,60
266,54	1232,88
266,76	1251,31
266,98	1279,98
267,19	1290,22
267,41	1308,65
267,62	1261,55
267,84	1251,31
268,06	1331,18
268,27	1318,89
268,49	1292,27
268,70	1275,88
268,92	1314,80
269,14	1310,70
269,35	1216,49
269,57	1236,97
269,79	1302,51
270,00	1218,54
270,22	1277,93
270,43	1267,69
270,65	1304,56
270,87	1290,22
271,08	1247,21
271,30	1351,66
271,51	1210,35
271,73	1183,73
271,95	1232,88
272,16	1331,18
272,38	1294,32
272,59	1292,27
272,81	1286,12
273,02	1282,03
273,24	1275,88
273,46	1306,60
273,67	1296,36
273,89	1263,60
274,10	1249,26
274,32	1298,41
274,54	1310,70
274,75	1269,74
274,97	1284,08
275,18	1267,69
275,40	1288,17
275,61	1363,95
275,83	1271,79
276,05	1322,99
276,26	1306,60
276,48	1271,79
276,69	1269,74
276,91	1257,45
277,12	1249,26
277,34	1245,16
277,55	1288,17
277,77	1239,02
277,99	1304,56
278,20	1259,50
278,42	1279,98
278,63	1284,08
278,85	1308,65
279,06	1267,69
279,28	1333,23
279,49	1296,36
279,71	1320,94
279,93	1290,22
280,14	1267,69
280,36	1208,30
280,57	1333,23
280,79	1198,06
281,00	1165,29
281,22	1267,69
281,43	1265,64
281,65	1247,21
281,86	1228,78
282,08	1208,30
282,29	1306,60
282,51	1284,08
282,73	1331,18
282,94	1288,17
283,16	1327,08
283,37	1261,55
283,59	1290,22
283,80	1228,78
284,02	1255,40
284,23	1271,79
284,45	1214,45
284,66	1236,97
284,88	1290,22
285,09	1243,12
285,31	1316,84
285,52	1329,13
285,74	1245,16
285,95	1343,47
286,17	1230,83
286,38	1198,06
286,60	1279,98
286,81	1275,88
287,03	1333,23
287,24	1308,65
287,46	1357,80
287,67	1261,55
287,89	1253,36
288,10	1325,04
288,32	1175,53
288,53	1273,84
288,75	1239,02
288,96	1277,93
289,18	1296,36
289,39	1273,84
289,61	1273,84
289,82	1288,17
290,04	1322,99
290,25	1265,64
290,47	1169,39
290,68	1265,64
290,90	1232,88
291,11	1306,60
291,33	1261,55
291,54	1269,74
291,76	1228,78
291,97	1269,74
292,18	1273,84
292,40	1187,82
292,61	1232,88
292,83	1245,16
293,04	1239,02
293,26	1292,27
293,47	1273,84
293,69	1279,98
293,90	1265,64
294,12	1318,89
294,33	1251,31
294,55	1314,80
294,76	1198,06
294,97	1294,32
295,19	1318,89
295,40	1255,40
295,62	1366,00
295,83	1251,31
296,05	1161,20
296,26	1171,44
296,48	1279,98
296,69	1271,79
296,90	1300,46
297,12	1247,21
297,33	1232,88
297,55	1208,30
297,76	1296,36
297,98	1200,11
298,19	1304,56
298,41	1245,16
298,62	1304,56
298,83	1261,55
299,05	1245,16
299,26	1284,08
299,48	1277,93
299,69	1271,79
299,90	1284,08
300,12	1224,69
300,33	1320,94
300,55	1150,96
300,76	1290,22
300,98	1316,84
301,19	1259,50
301,40	1257,45
301,62	1298,41
301,83	1290,22
302,05	1241,07
302,26	1286,12
302,47	1216,49
302,69	1259,50
302,90	1292,27
303,12	1267,69
303,33	1269,74
303,54	1294,32
303,76	1251,31
303,97	1288,17
304,19	1261,55
304,40	1265,64
304,61	1277,93
304,83	1257,45
305,04	1249,26
305,26	1267,69
305,47	1331,18
305,68	1357,80
305,90	1273,84
306,11	1331,18
306,33	1277,93
306,54	1306,60
306,75	1259,50
306,97	1306,60
307,18	1331,18
307,39	1214,45
307,61	1300,46
307,82	1288,17
308,04	1214,45
308,25	1261,55
308,46	1296,36
308,68	1277,93
308,89	1236,97
309,10	1308,65
309,32	1189,87
309,53	1239,02
309,74	1273,84
309,96	1251,31
310,17	1275,88
310,39	1265,64
310,60	1308,65
310,81	1232,88
311,03	1331,18
311,24	1300,46
311,45	1273,84
311,67	1292,27
311,88	1325,04
312,09	1198,06
312,31	1247,21
312,52	1282,03
312,73	1251,31
312,95	1288,17
313,16	1251,31
313,37	1335,28
313,59	1294,32
313,80	1277,93
314,01	1245,16
314,23	1325,04
314,44	1269,74
314,65	1265,64
314,87	1232,88
315,08	1335,28
315,29	1296,36
315,51	1259,50
315,72	1265,64
315,93	1273,84
316,15	1261,55
316,36	1304,56
316,57	1263,60
316,79	1245,16
317,00	1286,12
317,21	1267,69
317,43	1282,03
317,64	1228,78
317,85	1249,26
318,07	1253,36
318,28	1343,47
318,49	1273,84
318,70	1241,07
318,92	1271,79
319,13	1320,94
319,34	1239,02
319,56	1261,55
319,77	1249,26
319,98	1316,84
320,20	1279,98
320,41	1253,36
320,62	1267,69
320,83	1257,45
321,05	1277,93
321,26	1286,12
321,47	1185,77
321,69	1282,03
321,90	1214,45
322,11	1310,70
322,32	1263,60
322,54	1277,93
322,75	1245,16
322,96	1239,02
323,18	1196,01
323,39	1265,64
323,60	1335,28
323,81	1269,74
324,03	1302,51
324,24	1294,32
324,45	1292,27
324,66	1265,64
324,88	1363,95
325,09	1339,37
325,30	1191,92
325,52	1255,40
325,73	1277,93
325,94	1253,36
326,15	1298,41
326,37	1310,70
326,58	1253,36
326,79	1355,76
327,00	1257,45
327,22	1298,41
327,43	1284,08
327,64	1204,21
327,85	1259,50
328,07	1282,03
328,28	1216,49
328,49	1265,64
328,70	1316,84
328,92	1275,88
329,13	1239,02
329,34	1337,32
329,55	1312,75
329,76	1241,07
329,98	1263,60
330,19	1294,32
330,40	1277,93
330,61	1275,88
330,83	1193,97
331,04	1263,60
331,25	1316,84
331,46	1239,02
331,68	1277,93
331,89	1339,37
332,10	1310,70
332,31	1222,64
332,52	1349,61
332,74	1265,64
332,95	1282,03
333,16	1296,36
333,37	1251,31
333,58	1261,55
333,80	1310,70
334,01	1275,88
334,22	1290,22
334,43	1312,75
334,64	1257,45
334,86	1331,18
335,07	1271,79
335,28	1290,22
335,49	1282,03
335,70	1251,31
335,92	1226,73
336,13	1279,98
336,34	1304,56
336,55	1284,08
336,76	1253,36
336,98	1306,60
337,19	1310,70
337,40	1306,60
337,61	1343,47
337,82	1294,32
338,04	1216,49
338,25	1216,49
338,46	1243,12
338,67	1249,26
338,88	1245,16
339,09	1312,75
339,31	1177,58
339,52	1249,26
339,73	1216,49
339,94	1200,11
340,15	1263,60
340,36	1368,04
340,58	1216,49
340,79	1228,78
341,00	1226,73
341,21	1191,92
341,42	1271,79
341,63	1282,03
341,85	1343,47
342,06	1325,04
342,27	1245,16
342,48	1286,12
342,69	1218,54
342,90	1234,93
343,12	1232,88
343,33	1292,27
343,54	1230,83
343,75	1236,97
343,96	1261,55
344,17	1288,17
344,38	1226,73
344,60	1265,64
344,81	1208,30
345,02	1243,12
345,23	1298,41
345,44	1279,98
345,65	1224,69
345,86	1267,69
346,07	1255,40
346,29	1320,94
346,50	1273,84
346,71	1261,55
346,92	1239,02
347,13	1271,79
347,34	1241,07
347,55	1269,74
347,76	1294,32
347,98	1245,16
348,19	1318,89
348,40	1325,04
348,61	1232,88
348,82	1325,04
349,03	1322,99
349,24	1265,64
349,45	1271,79
349,66	1284,08
349,88	1355,76
350,09	1253,36
350,30	1249,26
350,51	1302,51
350,72	1265,64
350,93	1273,84
351,14	1286,12
351,35	1271,79
351,56	1236,97
351,77	1251,31
351,99	1286,12
352,20	1306,60
352,41	1300,46
352,62	1286,12
352,83	1271,79
353,04	1214,45
353,25	1279,98
353,46	1263,60
353,67	1265,64
353,88	1218,54
354,09	1253,36
354,30	1171,44
354,52	1265,64
354,73	1249,26
354,94	1257,45
355,15	1298,41
355,36	1310,70
355,57	1269,74
355,78	1249,26
355,99	1263,60
356,20	1282,03
356,41	1308,65
356,62	1279,98
356,83	1204,21
357,04	1304,56
357,25	1259,50
357,46	1308,65
357,68	1282,03
357,89	1306,60
358,10	1325,04
358,31	1269,74
358,52	1198,06
358,73	1300,46
358,94	1216,49
359,15	1247,21
359,36	1241,07
359,57	1226,73
359,78	1263,60
359,99	1275,88
360,20	1279,98
360,41	1200,11
360,62	1247,21
360,83	1251,31
361,04	1255,40
361,25	1273,84
361,46	1288,17
361,67	1284,08
361,88	1259,50
362,09	1314,80
362,30	1255,40
362,51	1269,74
362,72	1290,22
362,93	1226,73
363,14	1239,02
363,35	1236,97
363,56	1292,27
363,78	1275,88
363,99	1284,08
364,20	1294,32
364,41	1208,30
364,62	1271,79
364,83	1259,50
365,04	1308,65
365,25	1325,04
365,46	1214,45
365,67	1245,16
365,88	1259,50
366,09	1232,88
366,30	1181,68
366,51	1234,93
366,72	1318,89
366,93	1351,66
367,14	1243,12
367,35	1222,64
367,56	1265,64
367,77	1230,83
367,98	1202,16
368,18	1234,93
368,39	1265,64
368,60	1232,88
368,81	1263,60
369,02	1279,98
369,23	1296,36
369,44	1216,49
369,65	1308,65
369,86	1300,46
370,07	1218,54
370,28	1329,13
370,49	1329,13
370,70	1249,26
370,91	1253,36
371,12	1298,41
371,33	1230,83
371,54	1279,98
371,75	1335,28
371,96	1232,88
372,17	1314,80
372,38	1247,21
372,59	1273,84
372,80	1216,49
373,01	1257,45
373,22	1304,56
373,43	1251,31
373,64	1337,32
373,85	1282,03
374,06	1275,88
374,26	1316,84
374,47	1275,88
374,68	1224,69
374,89	1273,84
375,10	1320,94
375,31	1269,74
375,52	1286,12
375,73	1234,93
375,94	1251,31
376,15	1290,22
376,36	1282,03
376,57	1208,30
376,78	1251,31
376,99	1212,40
377,20	1347,56
377,40	1310,70
377,61	1279,98
377,82	1318,89
378,03	1296,36
378,24	1304,56
378,45	1288,17
378,66	1312,75
378,87	1298,41
379,08	1179,63
379,29	1329,13
379,50	1331,18
379,71	1251,31
379,91	1339,37
380,12	1277,93
380,33	1226,73
380,54	1273,84
380,75	1304,56
380,96	1308,65
381,17	1306,60
381,38	1236,97
381,59	1290,22
381,80	1302,51
382,00	1224,69
382,21	1249,26
382,42	1210,35
382,63	1296,36
382,84	1224,69
383,05	1337,32
383,26	1218,54
383,47	1329,13
383,68	1314,80
383,88	1275,88
384,09	1306,60
384,30	1269,74
384,51	1218,54
384,72	1249,26
384,93	1282,03
385,14	1279,98
385,35	1249,26
385,55	1308,65
385,76	1263,60
385,97	1243,12
386,18	1296,36
386,39	1243,12
386,60	1314,80
386,81	1230,83
387,02	1232,88
387,22	1288,17
387,43	1249,26
387,64	1290,22
387,85	1286,12
388,06	1286,12
388,27	1271,79
388,48	1318,89
388,68	1257,45
388,89	1189,87
389,10	1239,02
389,31	1243,12
389,52	1212,40
389,73	1224,69
389,93	1271,79
390,14	1322,99
390,35	1284,08
390,56	1279,98
390,77	1198,06
390,98	1292,27
391,18	1245,16
391,39	1263,60
391,60	1241,07
391,81	1292,27
392,02	1269,74
392,23	1255,40
392,43	1261,55
392,64	1232,88
392,85	1279,98
393,06	1243,12
393,27	1257,45
393,47	1247,21
393,68	1275,88
393,89	1269,74
394,10	1265,64
394,31	1298,41
394,52	1230,83
394,72	1290,22
394,93	1251,31
395,14	1249,26
395,35	1251,31
395,56	1288,17
395,76	1228,78
395,97	1157,10
396,18	1273,84
396,39	1236,97
396,60	1339,37
396,80	1251,31
397,01	1370,09
397,22	1196,01
397,43	1273,84
397,64	1265,64
397,84	1316,84
398,05	1304,56
398,26	1267,69
398,47	1267,69
398,67	1255,40
398,88	1275,88
399,09	1261,55
399,30	1282,03
399,51	1282,03
399,71	1306,60
399,92	1308,65
400,13	1259,50
400,34	1279,98
400,54	1312,75
400,75	1322,99
400,96	1277,93
401,17	1259,50
401,37	1322,99
401,58	1312,75
401,79	1308,65
402,00	1300,46
402,21	1189,87
402,41	1312,75
402,62	1253,36
402,83	1265,64
403,04	1261,55
403,24	1312,75
403,45	1294,32
403,66	1318,89
403,87	1306,60
404,07	1277,93
404,28	1267,69
404,49	1316,84
404,70	1247,21
404,90	1302,51
405,11	1220,59
405,32	1325,04
405,52	1208,30
405,73	1302,51
405,94	1275,88
406,15	1245,16
406,35	1259,50
406,56	1196,01
406,77	1251,31
406,98	1292,27
407,18	1292,27
407,39	1300,46
407,60	1208,30
407,80	1206,25
408,01	1298,41
408,22	1269,74
408,43	1327,08
408,63	1222,64
408,84	1294,32
409,05	1216,49
409,25	1255,40
409,46	1273,84
409,67	1267,69
409,88	1339,37
410,08	1277,93
410,29	1296,36
410,50	1282,03
410,70	1337,32
410,91	1265,64
411,12	1300,46
411,32	1269,74
411,53	1292,27
411,74	1253,36
411,95	1314,80
412,15	1294,32
412,36	1337,32
412,57	1339,37
412,77	1259,50
412,98	1269,74
413,19	1312,75
413,39	1204,21
413,60	1267,69
413,81	1306,60
414,01	1249,26
414,22	1300,46
414,43	1259,50
414,63	1277,93
414,84	1279,98
415,05	1224,69
415,25	1294,32
415,46	1245,16
415,67	1259,50
415,87	1249,26
416,08	1206,25
416,29	1335,28
416,49	1282,03
416,70	1251,31
416,91	1279,98
417,11	1322,99
417,32	1290,22
417,53	1218,54
417,73	1357,80
417,94	1322,99
418,15	1304,56
418,35	1269,74
418,56	1282,03
418,77	1318,89
418,97	1335,28
419,18	1259,50
419,38	1245,16
419,59	1277,93
419,80	1257,45
420,00	1308,65
420,21	1257,45
420,42	1257,45
420,62	1247,21
420,83	1275,88
421,04	1247,21
421,24	1288,17
421,45	1232,88
421,65	1284,08
421,86	1325,04
422,07	1277,93
422,27	1347,56
422,48	1284,08
422,69	1308,65
422,89	1296,36
423,10	1306,60
423,30	1259,50
423,51	1306,60
423,72	1314,80
423,92	1259,50
424,13	1249,26
424,33	1265,64
424,54	1191,92
424,75	1277,93
424,95	1206,25
425,16	1296,36
425,36	1290,22
425,57	1277,93
425,78	1279,98
425,98	1275,88
426,19	1277,93
426,39	1275,88
426,60	1279,98
426,81	1325,04
427,01	1271,79
427,22	1257,45
427,42	1302,51
427,63	1212,40
427,83	1290,22
428,04	1247,21
428,25	1271,79
428,45	1314,80
428,66	1265,64
428,86	1259,50
429,07	1257,45
429,28	1337,32
429,48	1308,65
429,69	1312,75
429,89	1265,64
430,10	1279,98
430,30	1271,79
430,51	1279,98
430,71	1245,16
430,92	1251,31
431,13	1314,80
431,33	1286,12
431,54	1302,51
431,74	1208,30
431,95	1298,41
432,15	1282,03
432,36	1216,49
432,56	1318,89
432,77	1259,50
432,98	1298,41
433,18	1253,36
433,39	1329,13
433,59	1331,18
433,80	1232,88
434,00	1368,04
434,21	1273,84
434,41	1269,74
434,62	1218,54
434,82	1294,32
435,03	1318,89
435,23	1249,26
435,44	1341,42
435,64	1314,80
435,85	1329,13
436,06	1335,28
436,26	1226,73
436,47	1286,12
436,67	1284,08
436,88	1230,83
437,08	1249,26
437,29	1320,94
437,49	1247,21
437,70	1288,17
437,90	1353,71
438,11	1263,60
438,31	1243,12
438,52	1245,16
438,72	1296,36
438,93	1337,32
439,13	1292,27
439,34	1282,03
439,54	1265,64
439,75	1298,41
439,95	1284,08
440,16	1265,64
440,36	1255,40
440,57	1263,60
440,77	1208,30
440,98	1322,99
441,18	1259,50
441,39	1214,45
441,59	1263,60
441,80	1228,78
442,00	1196,01
442,21	1253,36
442,41	1279,98
442,62	1302,51
442,82	1318,89
443,02	1298,41
443,23	1249,26
443,43	1247,21
443,64	1236,97
443,84	1271,79
444,05	1304,56
444,25	1265,64
444,46	1286,12
444,66	1251,31
444,87	1257,45
445,07	1298,41
445,28	1308,65
445,48	1329,13
445,69	1273,84
445,89	1320,94
446,09	1300,46
446,30	1282,03
446,50	1257,45
446,71	1247,21
446,91	1239,02
447,12	1282,03
447,32	1236,97
447,53	1292,27
447,73	1196,01
447,93	1261,55
448,14	1302,51
448,34	1341,42
448,55	1200,11
448,75	1296,36
448,96	1220,59
449,16	1308,65
449,36	1372,14
449,57	1234,93
449,77	1286,12
449,98	1322,99
450,18	1251,31
450,39	1232,88
450,59	1306,60
450,79	1316,84
451,00	1318,89
451,20	1232,88
451,41	1230,83
451,61	1347,56
451,81	1257,45
452,02	1257,45
452,22	1279,98
452,43	1294,32
452,63	1265,64
452,84	1286,12
453,04	1239,02
453,24	1206,25
453,45	1286,12
453,65	1284,08
453,86	1310,70
454,06	1275,88
454,26	1267,69
454,47	1296,36
454,67	1304,56
454,87	1212,40
455,08	1335,28
455,28	1331,18
455,49	1302,51
455,69	1265,64
455,89	1243,12
456,10	1261,55
456,30	1314,80
456,51	1306,60
456,71	1325,04
456,91	1333,23
457,12	1294,32
457,32	1275,88
457,52	1290,22
457,73	1308,65
457,93	1261,55
458,14	1249,26
458,34	1239,02
458,54	1294,32
458,75	1222,64
458,95	1269,74
459,15	1312,75
459,36	1357,80
459,56	1345,52
459,76	1265,64
459,97	1251,31
460,17	1257,45
460,37	1273,84
460,58	1232,88
460,78	1249,26
460,99	1259,50
461,19	1343,47
461,39	1304,56
461,60	1249,26
461,80	1306,60
462,00	1288,17
462,21	1296,36
462,41	1245,16
462,61	1290,22
462,82	1241,07
463,02	1325,04
463,22	1208,30
463,43	1261,55
463,63	1302,51
463,83	1282,03
464,04	1277,93
464,24	1304,56
464,44	1286,12
464,64	1249,26
464,85	1241,07
465,05	1288,17
465,25	1216,49
465,46	1216,49
465,66	1263,60
465,86	1267,69
466,07	1296,36
466,27	1273,84
466,47	1253,36
466,68	1273,84
466,88	1273,84
467,08	1239,02
467,29	1306,60
467,49	1318,89
467,69	1271,79
467,89	1284,08
468,10	1236,97
468,30	1181,68
468,50	1263,60
468,71	1200,11
468,91	1228,78
469,11	1220,59
469,31	1361,90
469,52	1245,16
469,72	1271,79
469,92	1265,64
470,13	1306,60
470,33	1279,98
470,53	1322,99
470,73	1200,11
470,94	1286,12
471,14	1261,55
471,34	1263,60
471,54	1210,35
471,75	1191,92
471,95	1279,98
472,15	1296,36
472,36	1259,50
472,56	1273,84
472,76	1198,06
472,96	1277,93
473,17	1292,27
473,37	1271,79
473,57	1355,76
473,77	1257,45
473,98	1310,70
474,18	1296,36
474,38	1308,65
474,58	1273,84
474,79	1290,22
474,99	1359,85
475,19	1292,27
475,39	1236,97
475,60	1232,88
475,80	1282,03
476,00	1294,32
476,20	1333,23
476,41	1267,69
476,61	1275,88
476,81	1251,31
477,01	1335,28
477,21	1357,80
477,42	1310,70
477,62	1288,17
477,82	1335,28
478,02	1232,88
478,23	1177,58
478,43	1279,98
478,63	1200,11
478,83	1335,28
479,03	1265,64
479,24	1261,55
479,44	1261,55
479,64	1306,60
479,84	1304,56
480,04	1196,01
480,25	1222,64
480,45	1355,76
480,65	1259,50
480,85	1243,12
481,06	1267,69
481,26	1265,64
481,46	1296,36
481,66	1269,74
481,86	1263,60
482,06	1294,32
482,27	1353,71
482,47	1216,49
482,67	1271,79
482,87	1261,55
483,07	1259,50
483,28	1329,13
483,48	1243,12
483,68	1253,36
483,88	1306,60
484,08	1347,56
484,29	1308,65
484,49	1220,59
484,69	1298,41
484,89	1239,02
485,09	1277,93
485,29	1320,94
485,50	1259,50
485,70	1290,22
485,90	1273,84
486,10	1212,40
486,30	1273,84
486,50	1263,60
486,71	1241,07
486,91	1232,88
487,11	1290,22
487,31	1269,74
487,51	1363,95
487,71	1255,40
487,91	1302,51
488,12	1353,71
488,32	1279,98
488,52	1275,88
488,72	1312,75
488,92	1302,51
489,12	1206,25
489,32	1273,84
489,53	1329,13
489,73	1255,40
489,93	1243,12
490,13	1245,16
490,33	1271,79
490,53	1245,16
490,73	1282,03
490,94	1282,03
491,14	1273,84
491,34	1245,16
491,54	1275,88
491,74	1220,59
491,94	1271,79
492,14	1282,03
492,34	1239,02
492,54	1314,80
492,75	1269,74
492,95	1296,36
493,15	1288,17
493,35	1279,98
493,55	1306,60
493,75	1257,45
493,95	1282,03
494,15	1251,31
494,35	1316,84
494,56	1177,58
494,76	1220,59
494,96	1234,93
495,16	1282,03
495,36	1284,08
495,56	1257,45
495,76	1298,41
495,96	1273,84
496,16	1318,89
496,36	1312,75
496,56	1327,08
496,77	1290,22
496,97	1282,03
497,17	1347,56
497,37	1279,98
497,57	1296,36
497,77	1316,84
497,97	1304,56
498,17	1249,26
498,37	1257,45
498,57	1232,88
498,77	1232,88
498,97	1187,82
499,17	1308,65
499,38	1306,60
499,58	1200,11
499,78	1277,93
499,98	1306,60
500,18	1210,35
500,38	1234,93
500,58	1279,98
500,78	1308,65
500,98	1277,93
501,18	1304,56
501,38	1202,16
501,58	1273,84
501,78	1245,16
501,98	1267,69
502,18	1261,55
502,38	1259,50
502,58	1257,45
502,78	1241,07
502,98	1279,98
503,18	1294,32
503,38	1310,70
503,59	1284,08
503,79	1265,64
503,99	1226,73
504,19	1251,31
504,39	1245,16
504,59	1286,12
504,79	1239,02
504,99	1349,61
505,19	1255,40
505,39	1302,51
505,59	1337,32
505,79	1243,12
505,99	1290,22
506,19	1232,88
506,39	1337,32
506,59	1214,45
506,79	1310,70
506,99	1241,07
507,19	1200,11
507,39	1204,21
507,59	1220,59
507,79	1302,51
507,99	1253,36
508,19	1167,34
508,39	1288,17
508,59	1249,26
508,79	1304,56
508,99	1359,85
509,19	1316,84
509,39	1243,12
509,59	1181,68
509,79	1298,41
509,99	1282,03
510,19	1273,84
510,39	1275,88
510,59	1234,93
510,79	1259,50
510,99	1239,02
511,19	1279,98
511,39	1214,45
511,59	1390,57
511,79	1269,74
511,99	1222,64
512,19	1294,32
512,38	1353,71
512,58	1234,93
512,78	1275,88
512,98	1310,70
513,18	1249,26
513,38	1271,79
513,58	1331,18
513,78	1236,97
513,98	1298,41
514,18	1222,64
514,38	1245,16
514,58	1263,60
514,78	1251,31
514,98	1239,02
515,18	1290,22
515,38	1259,50
515,58	1286,12
515,78	1249,26
515,98	1263,60
516,18	1220,59
516,38	1257,45
516,57	1206,25
516,77	1331,18
516,97	1312,75
517,17	1355,76
517,37	1279,98
517,57	1380,33
517,77	1261,55
517,97	1288,17
518,17	1325,04
518,37	1249,26
518,57	1257,45
518,77	1271,79
518,97	1269,74
519,16	1302,51
519,36	1302,51
519,56	1284,08
519,76	1271,79
519,96	1257,45
520,16	1322,99
520,36	1226,73
520,56	1290,22
520,76	1271,79
520,96	1277,93
521,16	1255,40
521,35	1255,40
521,55	1302,51
521,75	1331,18
521,95	1314,80
522,15	1243,12
522,35	1275,88
522,55	1261,55
522,75	1286,12
522,95	1261,55
523,14	1341,42
523,34	1212,40
523,54	1308,65
523,74	1355,76
523,94	1255,40
524,14	1290,22
524,34	1279,98
524,54	1286,12
524,73	1294,32
524,93	1247,21
525,13	1277,93
525,33	1257,45
525,53	1275,88
525,73	1263,60
525,93	1288,17
526,13	1343,47
526,32	1320,94
526,52	1325,04
526,72	1259,50
526,92	1294,32
527,12	1243,12
527,32	1298,41
527,52	1312,75
527,71	1282,03
527,91	1286,12
528,11	1357,80
528,31	1247,21
528,51	1241,07
528,71	1372,14
528,90	1241,07
529,10	1232,88
529,30	1337,32
529,50	1193,97
529,70	1255,40
529,90	1259,50
530,09	1341,42
530,29	1312,75
530,49	1292,27
530,69	1279,98
530,89	1277,93
531,09	1265,64
531,28	1376,24
531,48	1273,84
531,68	1245,16
531,88	1273,84
532,08	1288,17
532,28	1212,40
532,47	1286,12
532,67	1243,12
532,87	1214,45
533,07	1259,50
533,27	1214,45
533,46	1284,08
533,66	1218,54
533,86	1245,16
534,06	1273,84
534,26	1249,26
534,45	1275,88
534,65	1318,89
534,85	1257,45
535,05	1314,80
535,25	1275,88
535,44	1363,95
535,64	1290,22
535,84	1216,49
536,04	1255,40
536,24	1273,84
536,43	1306,60
536,63	1298,41
536,83	1329,13
537,03	1308,65
537,22	1269,74
537,42	1247,21
537,62	1277,93
537,82	1216,49
538,02	1286,12
538,21	1284,08
538,41	1314,80
538,61	1257,45
538,81	1288,17
539,00	1292,27
539,20	1177,58
539,40	1306,60
539,60	1286,12
539,79	1304,56
539,99	1329,13
540,19	1216,49
540,39	1257,45
540,58	1210,35
540,78	1339,37
540,98	1277,93
541,18	1198,06
541,37	1214,45
541,57	1308,65
541,77	1302,51
541,97	1239,02
542,16	1259,50
542,36	1306,60
542,56	1277,93
542,76	1263,60
542,95	1279,98
543,15	1177,58
543,35	1243,12
543,54	1286,12
543,74	1249,26
543,94	1310,70
544,14	1376,24
544,33	1251,31
544,53	1247,21
544,73	1232,88
544,93	1322,99
545,12	1261,55
545,32	1302,51
545,52	1271,79
545,71	1245,16
545,91	1322,99
546,11	1269,74
546,30	1259,50
546,50	1241,07
546,70	1279,98
546,90	1249,26
547,09	1241,07
547,29	1390,57
547,49	1269,74
547,68	1288,17
547,88	1253,36
548,08	1241,07
548,27	1282,03
548,47	1245,16
548,67	1368,04
548,87	1273,84
549,06	1279,98
549,26	1228,78
549,46	1286,12
549,65	1241,07
549,85	1271,79
550,05	1282,03
550,24	1261,55
550,44	1314,80
550,64	1214,45
550,83	1269,74
551,03	1261,55
551,23	1308,65
551,42	1263,60
551,62	1273,84
551,82	1247,21
552,01	1312,75
552,21	1300,46
552,41	1318,89
552,60	1314,80
552,80	1202,16
553,00	1230,83
553,19	1253,36
553,39	1251,31
553,59	1337,32
553,78	1251,31
553,98	1353,71
554,17	1277,93
554,37	1335,28
554,57	1204,21
554,76	1245,16
554,96	1251,31
555,16	1243,12
555,35	1251,31
555,55	1282,03
555,75	1257,45
555,94	1239,02
556,14	1284,08
556,33	1288,17
556,53	1236,97
556,73	1241,07
556,92	1296,36
557,12	1273,84
557,32	1267,69
557,51	1343,47
557,71	1267,69
557,90	1359,85
558,10	1286,12
558,30	1288,17
558,49	1208,30
558,69	1245,16
558,88	1236,97
559,08	1275,88
559,28	1214,45
559,47	1239,02
559,67	1298,41
559,86	1263,60
560,06	1245,16
560,26	1253,36
560,45	1267,69
560,65	1302,51
560,84	1298,41
561,04	1282,03
561,24	1251,31
561,43	1325,04
561,63	1265,64
561,82	1316,84
562,02	1343,47
562,22	1288,17
562,41	1212,40
562,61	1200,11
562,80	1308,65
563,00	1292,27
563,19	1322,99
563,39	1290,22
563,59	1302,51
563,78	1329,13
563,98	1183,73
564,17	1214,45
564,37	1320,94
564,56	1306,60
564,76	1202,16
564,96	1277,93
565,15	1302,51
565,35	1298,41
565,54	1300,46
565,74	1288,17
565,93	1251,31
566,13	1265,64
566,32	1279,98
566,52	1310,70
566,71	1269,74
566,91	1271,79
567,11	1294,32
567,30	1339,37
567,50	1306,60
567,69	1243,12
567,89	1296,36
568,08	1261,55
568,28	1234,93
568,47	1230,83
568,67	1337,32
568,86	1269,74
569,06	1230,83
569,25	1267,69
569,45	1284,08
569,64	1290,22
569,84	1279,98
570,04	1259,50
570,23	1253,36
570,43	1263,60
570,62	1275,88
570,82	1277,93
571,01	1249,26
571,21	1298,41
571,40	1261,55
571,60	1263,60
571,79	1372,14
571,99	1247,21
572,18	1239,02
572,38	1208,30
572,57	1298,41
572,77	1169,39
572,96	1298,41
573,16	1257,45
573,35	1236,97
573,55	1322,99
573,74	1284,08
573,94	1271,79
574,13	1232,88
574,33	1279,98
574,52	1284,08
574,71	1298,41
574,91	1177,58
575,10	1257,45
575,30	1308,65
575,49	1267,69
575,69	1212,40
575,88	1308,65
576,08	1314,80
576,27	1267,69
576,47	1236,97
576,66	1329,13
576,86	1312,75
577,05	1329,13
577,25	1245,16
577,44	1308,65
577,64	1273,84
577,83	1255,40
578,02	1232,88
578,22	1259,50
578,41	1259,50
578,61	1302,51
578,80	1232,88
579,00	1255,40
579,19	1245,16
579,39	1292,27
579,58	1239,02
579,77	1331,18
579,97	1253,36
580,16	1226,73
580,36	1288,17
580,55	1288,17
580,75	1269,74
580,94	1286,12
581,13	1359,85
581,33	1261,55
581,52	1357,80
581,72	1230,83
581,91	1249,26
582,11	1290,22
582,30	1218,54
582,49	1282,03
582,69	1257,45
582,88	1273,84
583,08	1257,45
583,27	1243,12
583,47	1298,41
583,66	1292,27
583,85	1292,27
584,05	1249,26
584,24	1255,40
584,44	1363,95
584,63	1304,56
584,82	1286,12
585,02	1329,13
585,21	1306,60
585,41	1200,11
585,60	1273,84
585,79	1282,03
585,99	1273,84
586,18	1241,07
586,37	1245,16
586,57	1316,84
586,76	1335,28
586,96	1306,60
587,15	1290,22
587,34	1259,50
587,54	1249,26
587,73	1314,80
587,93	1228,78
588,12	1279,98
588,31	1198,06
588,51	1271,79
588,70	1333,23
588,89	1279,98
589,09	1316,84
589,28	1202,16
589,47	1247,21
589,67	1218,54
589,86	1234,93
590,06	1236,97
590,25	1353,71
590,44	1193,97
590,64	1322,99
590,83	1347,56
591,02	1288,17
591,22	1312,75
591,41	1273,84
591,60	1239,02
591,80	1255,40
591,99	1282,03
592,18	1282,03
592,38	1245,16
592,57	1271,79
592,76	1333,23
592,96	1255,40
593,15	1189,87
593,34	1288,17
593,54	1261,55
593,73	1241,07
593,92	1312,75
594,12	1279,98
594,31	1257,45
594,50	1271,79
594,70	1263,60
594,89	1253,36
595,08	1245,16
595,28	1374,19
595,47	1249,26
595,66	1265,64
595,86	1310,70
596,05	1241,07
596,24	1271,79
596,43	1294,32
596,63	1298,41
596,82	1325,04
597,01	1212,40
597,21	1255,40
597,40	1306,60
597,59	1296,36
597,79	1290,22
597,98	1318,89
598,17	1202,16
598,36	1263,60
598,56	1306,60
598,75	1234,93
598,94	1236,97
599,14	1306,60
599,33	1202,16
599,52	1267,69
599,71	1282,03
599,91	1306,60
600,10	1218,54
600,29	1277,93
600,48	1318,89
600,68	1310,70
600,87	1247,21
601,06	1259,50
601,26	1259,50
601,45	1265,64
601,64	1306,60
601,83	1296,36
602,03	1228,78
602,22	1318,89
602,41	1304,56
602,60	1286,12
602,80	1312,75
602,99	1273,84
603,18	1314,80
603,37	1298,41
603,57	1282,03
603,76	1325,04
603,95	1331,18
604,14	1298,41
604,34	1255,40
604,53	1300,46
604,72	1245,16
604,91	1210,35
605,10	1306,60
605,30	1230,83
605,49	1300,46
605,68	1329,13
605,87	1296,36
606,07	1236,97
606,26	1261,55
606,45	1255,40
606,64	1355,76
606,84	1316,84
607,03	1214,45
607,22	1243,12
607,41	1312,75
607,60	1335,28
607,80	1263,60
607,99	1292,27
608,18	1288,17
608,37	1257,45
608,56	1198,06
608,76	1249,26
608,95	1267,69
609,14	1271,79
609,33	1255,40
609,52	1206,25
609,72	1263,60
609,91	1251,31
610,10	1286,12
610,29	1335,28
610,48	1265,64
610,68	1279,98
610,87	1337,32
611,06	1284,08
611,25	1294,32
611,44	1255,40
611,63	1294,32
611,83	1210,35
612,02	1322,99
612,21	1314,80
612,40	1269,74
612,59	1361,90
612,79	1253,36
612,98	1288,17
613,17	1239,02
613,36	1265,64
613,55	1271,79
613,74	1339,37
613,93	1343,47
614,13	1263,60
614,32	1304,56
614,51	1351,66
614,70	1253,36
614,89	1271,79
615,08	1300,46
615,28	1232,88
615,47	1271,79
615,66	1251,31
615,85	1322,99
616,04	1243,12
616,23	1216,49
616,42	1271,79
616,62	1249,26
616,81	1300,46
617,00	1282,03
617,19	1228,78
617,38	1247,21
617,57	1208,30
617,76	1286,12
617,95	1243,12
618,15	1232,88
618,34	1294,32
618,53	1306,60
618,72	1208,30
618,91	1255,40
619,10	1304,56
619,29	1251,31
619,48	1253,36
619,68	1210,35
619,87	1333,23
620,06	1353,71
620,25	1411,05
620,44	1314,80
620,63	1257,45
620,82	1267,69
621,01	1320,94
621,20	1316,84
621,39	1208,30
621,59	1314,80
621,78	1290,22
621,97	1296,36
622,16	1302,51
622,35	1292,27
622,54	1243,12
622,73	1245,16
622,92	1290,22
623,11	1279,98
623,30	1259,50
623,49	1296,36
623,68	1300,46
623,88	1286,12
624,07	1282,03
624,26	1333,23
624,45	1253,36
624,64	1230,83
624,83	1298,41
625,02	1263,60
625,21	1327,08
625,40	1273,84
625,59	1273,84
625,78	1249,26
625,97	1273,84
626,16	1341,42
626,35	1314,80
626,54	1310,70
626,74	1288,17
626,93	1341,42
627,12	1341,42
627,31	1370,09
627,50	1392,62
627,69	1312,75
627,88	1335,28
628,07	1279,98
628,26	1306,60
628,45	1282,03
628,64	1263,60
628,83	1322,99
629,02	1288,17
629,21	1339,37
629,40	1312,75
629,59	1296,36
629,78	1275,88
629,97	1312,75
630,16	1226,73
630,35	1343,47
630,54	1347,56
630,73	1384,43
630,92	1282,03
631,11	1265,64
631,30	1290,22
631,49	1304,56
631,68	1845,22
631,87	2512,86
632,06	4485,05
632,25	6678,43
632,44	12203,85
632,63	19566,29
632,82	27481,69
633,01	17592,05
633,20	6506,40
633,39	4028,35
633,58	2959,31
633,77	2295,77
633,96	2062,30
634,15	1970,15
634,34	1830,88
634,53	1722,34
634,72	1681,38
634,91	1509,35
635,10	1538,02
635,29	1548,26
635,48	1486,83
635,67	1499,11
635,86	1390,57
636,05	1445,87
636,24	1439,72
636,43	1329,13
636,62	1378,28
636,81	1267,69
637,00	1361,90
637,19	1398,76
637,38	1380,33
637,57	1314,80
637,76	1304,56
637,95	1288,17
638,14	1282,03
638,33	1292,27
638,52	1288,17
638,71	1263,60
638,89	1316,84
639,08	1310,70
639,27	1245,16
639,46	1327,08
639,65	1284,08
639,84	1249,26
640,03	1239,02
640,22	1312,75
640,41	1322,99
640,60	1228,78
640,79	1282,03
640,98	1220,59
641,17	1282,03
641,36	1243,12
641,55	1241,07
641,74	1210,35
641,92	1308,65
642,11	1337,32
642,30	1284,08
642,49	1325,04
642,68	1165,29
642,87	1277,93
643,06	1298,41
643,25	1282,03
643,44	1273,84
643,63	1290,22
643,82	1312,75
644,00	1298,41
644,19	1257,45
644,38	1261,55
644,57	1320,94
644,76	1193,97
644,95	1232,88
645,14	1320,94
645,33	1265,64
645,52	1282,03
645,71	1314,80
645,89	1230,83
646,08	1329,13
646,27	1196,01
646,46	1329,13
646,65	1202,16
646,84	1259,50
647,03	1284,08
647,22	1298,41
647,40	1232,88
647,59	1249,26
647,78	1249,26
647,97	1251,31
648,16	1279,98
648,35	1306,60
648,54	1273,84
648,73	1263,60
648,91	1241,07
649,10	1224,69
649,29	1304,56
649,48	1312,75
649,67	1239,02
649,86	1292,27
650,05	1290,22
650,23	1306,60
650,42	1234,93
650,61	1318,89
650,80	1312,75
650,99	1329,13
651,18	1216,49
651,36	1351,66
651,55	1222,64
651,74	1282,03
651,93	1255,40
652,12	1310,70
652,31	1296,36
652,49	1290,22
652,68	1271,79
652,87	1273,84
653,06	1269,74
653,25	1290,22
653,44	1247,21
653,62	1314,80
653,81	1269,74
654,00	1298,41
654,19	1345,52
654,38	1255,40
654,56	1279,98
654,75	1247,21
654,94	1255,40
655,13	1257,45
655,32	1286,12
655,51	1269,74
655,69	1218,54
655,88	1251,31
656,07	1189,87
656,26	1318,89
656,45	1255,40
656,63	1294,32
656,82	1232,88
657,01	1292,27
657,20	1318,89
657,38	1329,13
657,57	1224,69
657,76	1282,03
657,95	1255,40
658,14	1202,16
658,32	1261,55
658,51	1257,45
658,70	1294,32
658,89	1204,21
659,08	1294,32
659,26	1318,89
659,45	1314,80
659,64	1236,97
659,83	1298,41
660,01	1239,02
660,20	1316,84
660,39	1282,03
660,58	1224,69
660,76	1259,50
660,95	1273,84
661,14	1279,98
661,33	1320,94
661,51	1247,21
661,70	1230,83
661,89	1292,27
662,08	1279,98
662,26	1333,23
662,45	1290,22
662,64	1224,69
662,83	1204,21
663,01	1275,88
663,20	1316,84
663,39	1310,70
663,58	1232,88
663,76	1282,03
663,95	1322,99
664,14	1290,22
664,32	1296,36
664,51	1236,97
664,70	1290,22
664,89	1308,65
665,07	1302,51
665,26	1382,38
665,45	1224,69
665,64	1316,84
665,82	1255,40
666,01	1261,55
666,20	1329,13
666,38	1363,95
666,57	1251,31
666,76	1275,88
666,95	1343,47
667,13	1288,17
667,32	1294,32
667,51	1298,41
667,69	1257,45
667,88	1279,98
668,07	1269,74
668,25	1284,08
668,44	1275,88
668,63	1294,32
668,81	1279,98
669,00	1302,51
669,19	1279,98
669,38	1316,84
669,56	1220,59
669,75	1320,94
669,94	1308,65
670,12	1298,41
670,31	1239,02
670,50	1269,74
670,68	1228,78
670,87	1255,40
671,06	1263,60
671,24	1363,95
671,43	1239,02
671,62	1267,69
671,80	1294,32
671,99	1292,27
672,18	1255,40
672,36	1265,64
672,55	1300,46
672,74	1196,01
672,92	1255,40
673,11	1341,42
673,29	1271,79
673,48	1296,36
673,67	1275,88
673,85	1243,12
674,04	1249,26
674,23	1200,11
674,41	1236,97
674,60	1329,13
674,79	1247,21
674,97	1284,08
675,16	1267,69
675,34	1265,64
675,53	1282,03
675,72	1271,79
675,90	1267,69
676,09	1224,69
676,28	1275,88
676,46	1290,22
676,65	1292,27
676,83	1339,37
677,02	1282,03
677,21	1290,22
677,39	1234,93
677,58	1273,84
677,77	1267,69
677,95	1298,41
678,14	1196,01
678,32	1275,88
678,51	1253,36
678,70	1249,26
678,88	1259,50
679,07	1236,97
679,25	1288,17
679,44	1265,64
679,63	1273,84
679,81	1310,70
680,00	1239,02
680,18	1337,32
680,37	1255,40
680,55	1304,56
680,74	1273,84
680,93	1234,93
681,11	1300,46
681,30	1230,83
681,48	1259,50
681,67	1325,04
681,85	1302,51
682,04	1290,22
682,23	1273,84
682,41	1275,88
682,60	1273,84
682,78	1333,23
682,97	1296,36
683,15	1253,36
683,34	1273,84
683,53	1308,65
683,71	1308,65
683,90	1279,98
684,08	1310,70
684,27	1265,64
684,45	1263,60
684,64	1304,56
684,82	1185,77
685,01	1300,46
685,19	1343,47
685,38	1245,16
685,57	1304,56
685,75	1339,37
685,94	1269,74
686,12	1214,45
686,31	1232,88
686,49	1234,93
686,68	1255,40
686,86	1282,03
687,05	1257,45
687,23	1337,32
687,42	1218,54
687,60	1271,79
687,79	1329,13
687,97	1241,07
688,16	1308,65
688,34	1230,83
688,53	1224,69
688,71	1214,45
688,90	1216,49
689,08	1255,40
689,27	1277,93
689,45	1341,42
689,64	1245,16
689,82	1331,18
690,01	1265,64
690,19	1183,73
690,38	1275,88
690,56	1247,21
690,75	1218,54
690,93	1302,51
691,12	1282,03
691,30	1271,79
691,49	1314,80
691,67	1216,49
691,86	1322,99
692,04	1284,08
692,23	1218,54
692,41	1273,84
692,60	1296,36
692,78	1198,06
692,97	1337,32
693,15	1267,69
693,34	1294,32
693,52	1273,84
693,71	1267,69
693,89	1325,04
694,08	1255,40
694,26	1335,28
694,44	1277,93
694,63	1325,04
694,81	1239,02
695,00	1253,36
695,18	1271,79
695,37	1257,45
695,55	1220,59
695,74	1228,78
695,92	1273,84
696,10	1257,45
696,29	1310,70
696,47	1257,45
696,66	1269,74
696,84	1263,60
697,03	1294,32
697,21	1318,89
697,40	1284,08
697,58	1259,50
697,76	1239,02
697,95	1234,93
698,13	1265,64
698,32	1245,16
698,50	1322,99
698,68	1290,22
698,87	1306,60
699,05	1222,64
699,24	1241,07
699,42	1298,41
699,61	1236,97
699,79	1255,40
699,97	1247,21
700,16	1198,06
700,34	1282,03
700,53	1320,94
700,71	1337,32
700,89	1255,40
701,08	1300,46
701,26	1259,50
701,45	1298,41
701,63	1351,66
701,81	1251,31
702,00	1347,56
702,18	1325,04
702,37	1306,60
702,55	1277,93
702,73	1339,37
702,92	1234,93
703,10	1273,84
703,28	1284,08
703,47	1298,41
703,65	1267,69
703,84	1234,93
704,02	1349,61
704,20	1316,84
704,39	1290,22
704,57	1275,88
704,75	1241,07
704,94	1273,84
705,12	1241,07
705,30	1288,17
705,49	1325,04
705,67	1325,04
705,86	1241,07
706,04	1263,60
706,22	1284,08
706,41	1292,27
706,59	1198,06
706,77	1312,75
706,96	1314,80
707,14	1261,55
707,32	1302,51
707,51	1253,36
707,69	1212,40
707,87	1339,37
708,06	1302,51
708,24	1308,65
708,42	1218,54
708,61	1322,99
708,79	1269,74
708,97	1294,32
709,16	1322,99
709,34	1361,90
709,52	1257,45
709,71	1306,60
709,89	1296,36
710,07	1331,18
710,26	1208,30
710,44	1239,02
710,62	1347,56
710,80	1251,31
710,99	1308,65
711,17	1255,40
711,35	1253,36
711,54	1292,27
711,72	1290,22
711,90	1245,16
712,09	1212,40
712,27	1304,56
712,45	1325,04
712,63	1284,08
712,82	1265,64
713,00	1265,64
713,18	1355,76
713,37	1290,22
713,55	1249,26
713,73	1255,40
713,91	1236,97
714,10	1300,46
714,28	1282,03
714,46	1353,71
714,65	1269,74
714,83	1275,88
715,01	1269,74
715,19	1329,13
715,38	1239,02
715,56	1271,79
715,74	1288,17
715,92	1251,31
716,11	1292,27
716,29	1290,22
716,47	1243,12
716,65	1314,80
716,84	1247,21
717,02	1298,41
717,20	1228,78
717,38	1271,79
717,57	1304,56
717,75	1228,78
717,93	1234,93
718,11	1279,98
718,30	1234,93
718,48	1296,36
718,66	1265,64
718,84	1314,80
719,03	1314,80
719,21	1296,36
719,39	1239,02
719,57	1261,55
719,75	1279,98
719,94	1277,93
720,12	1298,41
720,30	1230,83
720,48	1249,26
720,67	1271,79
720,85	1284,08
721,03	1290,22
721,21	1302,51
721,39	1312,75
721,58	1269,74
721,76	1282,03
721,94	1226,73
722,12	1298,41
722,30	1312,75
722,49	1277,93
722,67	1261,55
722,85	1259,50
723,03	1232,88
723,21	1273,84
723,40	1245,16
723,58	1290,22
723,76	1318,89
723,94	1298,41
724,12	1236,97
724,30	1296,36
724,49	1310,70
724,67	1245,16
724,85	1286,12
725,03	1271,79
725,21	1259,50
725,40	1269,74
725,58	1214,45
725,76	1286,12
725,94	1267,69
726,12	1239,02
726,30	1351,66
726,49	1249,26
726,67	1290,22
726,85	1331,18
727,03	1208,30
727,21	1310,70
727,39	1335,28
727,57	1255,40
727,76	1241,07
727,94	1265,64
728,12	1329,13
728,30	1224,69
728,48	1236,97
728,66	1226,73
728,84	1343,47
729,03	1292,27
729,21	1296,36
729,39	1355,76
729,57	1271,79
729,75	1279,98
729,93	1282,03
730,11	1259,50
730,30	1286,12
730,48	1300,46
730,66	1234,93
730,84	1294,32
731,02	1179,63
731,20	1292,27
731,38	1314,80
731,56	1304,56
731,74	1196,01
731,93	1286,12
732,11	1214,45
732,29	1232,88
732,47	1320,94
732,65	1257,45
732,83	1243,12
733,01	1304,56
733,19	1298,41
733,37	1263,60
733,56	1181,68
733,74	1298,41
733,92	1316,84
734,10	1286,12
734,28	1263,60
734,46	1265,64
734,64	1284,08
734,82	1245,16
735,00	1220,59
735,18	1310,70
735,36	1232,88
735,54	1288,17
735,73	1261,55
735,91	1300,46
736,09	1279,98
736,27	1216,49
736,45	1275,88
736,63	1241,07
736,81	1208,30
736,99	1253,36
737,17	1300,46
737,35	1374,19
737,53	1196,01
737,71	1282,03
737,89	1267,69
738,07	1298,41
738,25	1214,45
738,43	1300,46
738,61	1253,36
738,80	1273,84
738,98	1331,18
739,16	1282,03
739,34	1224,69
739,52	1247,21
739,70	1253,36
739,88	1212,40
740,06	1322,99
740,24	1265,64
740,42	1312,75
740,60	1310,70
740,78	1257,45
740,96	1273,84
741,14	1245,16
741,32	1249,26
741,50	1267,69
741,68	1353,71
741,86	1247,21
742,04	1339,37
742,22	1218,54
742,40	1331,18
742,58	1257,45
742,76	1296,36
742,94	1220,59
743,12	1265,64
743,30	1271,79
743,48	1228,78
743,66	1232,88
743,84	1265,64
744,02	1191,92
744,20	1298,41
744,38	1284,08
744,56	1212,40
744,74	1318,89
744,92	1253,36
745,10	1286,12
745,28	1320,94
745,46	1306,60
745,64	1269,74
745,82	1247,21
746,00	1288,17
746,18	1302,51
746,36	1282,03
746,54	1314,80
746,72	1290,22
746,90	1265,64
747,08	1312,75
747,26	1220,59
747,44	1214,45
747,62	1241,07
747,80	1214,45
747,98	1288,17
748,15	1325,04
748,33	1257,45
748,51	1241,07
748,69	1331,18
748,87	1206,25
749,05	1263,60
749,23	1265,64
749,41	1218,54
749,59	1288,17
749,77	1243,12
749,95	1341,42
750,13	1277,93
750,31	1269,74
750,49	1208,30
750,67	1261,55
750,85	1267,69
751,03	1279,98
751,20	1304,56
751,38	1255,40
751,56	1282,03
751,74	1251,31
751,92	1257,45
752,10	1230,83
752,28	1243,12
752,46	1288,17
752,64	1302,51
752,82	1294,32
753,00	1320,94
753,18	1351,66
753,35	1269,74
753,53	1308,65
753,71	1259,50
753,89	1241,07
754,07	1298,41
754,25	1277,93
754,43	1257,45
754,61	1322,99
754,79	1275,88
754,97	1251,31
755,14	1288,17
755,32	1325,04
755,50	1279,98
755,68	1241,07
755,86	1247,21
756,04	1359,85
756,22	1261,55
756,40	1263,60
756,57	1327,08
756,75	1282,03
756,93	1302,51
757,11	1282,03
757,29	1290,22
757,47	1329,13
757,65	1269,74
757,82	1251,31
758,00	1329,13
758,18	1222,64
758,36	1239,02
758,54	1306,60
758,72	1216,49
758,90	1298,41
759,07	1302,51
759,25	1200,11
759,43	1259,50
759,61	1271,79
759,79	1288,17
759,97	1279,98
760,15	1189,87
760,32	1247,21
760,50	1304,56
760,68	1232,88
760,86	1290,22
761,04	1314,80
761,22	1331,18
761,39	1245,16
761,57	1253,36
761,75	1329,13
761,93	1329,13
762,11	1234,93
762,28	1267,69
762,46	1265,64
762,64	1214,45
762,82	1253,36
763,00	1286,12
763,18	1320,94
763,35	1249,26
763,53	1279,98
763,71	1279,98
763,89	1343,47
764,07	1345,52
764,24	1267,69
764,42	1282,03
764,60	1193,97
764,78	1249,26
764,96	1284,08
765,13	1234,93
765,31	1304,56
765,49	1273,84
765,67	1279,98
765,84	1247,21
766,02	1294,32
766,20	1243,12
766,38	1312,75
766,56	1292,27
766,73	1255,40
766,91	1243,12
767,09	1288,17
767,27	1277,93
767,44	1277,93
767,62	1277,93
767,80	1243,12
767,98	1245,16
768,15	1292,27
768,33	1206,25
768,51	1273,84
768,69	1234,93
768,87	1288,17
769,04	1200,11
769,22	1261,55
769,40	1224,69
769,58	1361,90
769,75	1255,40
769,93	1249,26
770,11	1288,17
770,28	1306,60
770,46	1265,64
770,64	1239,02
770,82	1294,32
770,99	1204,21
771,17	1298,41
771,35	1292,27
771,53	1284,08
771,70	1234,93
771,88	1298,41
772,06	1345,52
772,23	1230,83
772,41	1279,98
772,59	1325,04
772,77	1234,93
772,94	1322,99
773,12	1331,18
773,30	1290,22
773,47	1288,17
773,65	1273,84
773,83	1271,79
774,01	1337,32
774,18	1198,06
774,36	1257,45
774,54	1251,31
774,71	1226,73
774,89	1218,54
775,07	1279,98
775,24	1279,98
775,42	1290,22
775,60	1290,22
775,78	1261,55
775,95	1267,69
776,13	1288,17
776,31	1263,60
776,48	1298,41
776,66	1228,78
776,84	1259,50
777,01	1284,08
777,19	1263,60
777,37	1265,64
777,54	1277,93
777,72	1243,12
777,90	1327,08
778,07	1257,45
778,25	1226,73
778,43	1282,03
778,60	1257,45
778,78	1265,64
778,96	1257,45
779,13	1253,36
779,31	1271,79
779,49	1249,26
779,66	1294,32
779,84	1333,23
780,01	1294,32
780,19	1347,56
780,37	1263,60
780,54	1329,13
780,72	1259,50
780,90	1247,21
781,07	1261,55
781,25	1247,21
781,43	1232,88
781,60	1269,74
781,78	1275,88
781,95	1296,36
782,13	1245,16
782,31	1265,64
782,48	1236,97
782,66	1306,60
782,83	1247,21
783,01	1247,21
783,19	1304,56
783,36	1236,97
783,54	1249,26
783,72	1265,64
783,89	1298,41
784,07	1249,26
784,24	1310,70
784,42	1253,36
784,60	1275,88
784,77	1263,60
784,95	1368,04
785,12	1267,69
785,30	1214,45
785,47	1265,64
785,65	1230,83
785,83	1327,08
786,00	1320,94
786,18	1259,50
786,35	1275,88
786,53	1333,23
786,71	1273,84
786,88	1232,88
787,06	1368,04
787,23	1239,02
787,41	1253,36
787,58	1306,60
787,76	1277,93
787,94	1251,31
788,11	1361,90
788,29	1232,88
788,46	1249,26
788,64	1304,56
788,81	1306,60
788,99	1290,22
789,16	1314,80
789,34	1255,40
789,52	1294,32
789,69	1263,60
789,87	1216,49
790,04	1232,88
790,22	1308,65
790,39	1218,54
790,57	1191,92
790,74	1245,16
790,92	1325,04
791,09	1353,71
791,27	1212,40
791,44	1329,13
791,62	1310,70
791,79	1331,18
791,97	1271,79
792,15	1226,73
792,32	1236,97
792,50	1304,56
792,67	1257,45
792,85	1263,60
793,02	1296,36
793,20	1271,79
793,37	1273,84
793,55	1288,17
793,72	1267,69
793,90	1271,79
794,07	1189,87
794,25	1341,42
794,42	1290,22
794,60	1171,44
794,77	1329,13
794,95	1265,64
795,12	1239,02
795,30	1245,16
795,47	1206,25
795,65	1279,98
795,82	1259,50
796,00	1253,36
796,17	1220,59
796,34	1333,23
796,52	1269,74
796,69	1347,56
796,87	1290,22
797,04	1304,56
797,22	1259,50
797,39	1236,97
797,57	1282,03
797,74	1314,80
797,92	1345,52
798,09	1265,64
798,27	1314,80
798,44	1290,22
798,62	1271,79
798,79	1249,26
798,96	1322,99
799,14	1316,84
799,31	1279,98
799,49	1247,21
799,66	1232,88
799,84	1318,89
800,01	1308,65
800,19	1304,56
800,36	1175,53
800,53	1290,22
800,71	1302,51
800,88	1290,22
801,06	1279,98
801,23	1247,21
801,41	1292,27
801,58	1282,03
801,75	1353,71
801,93	1251,31
802,10	1257,45
802,28	1243,12
802,45	1306,60
802,63	1288,17
802,80	1333,23
802,97	1249,26
803,15	1228,78
803,32	1228,78
803,50	1263,60
803,67	1247,21
803,84	1320,94
804,02	1363,95
804,19	1236,97
804,37	1255,40
804,54	1263,60
804,71	1249,26
804,89	1273,84
805,06	1239,02
805,24	1220,59
805,41	1271,79
805,58	1327,08
805,76	1226,73
805,93	1228,78
806,10	1263,60
806,28	1263,60
806,45	1279,98
806,63	1318,89
806,80	1277,93
806,97	1302,51
807,15	1271,79
807,32	1251,31
807,49	1306,60
807,67	1331,18
807,84	1282,03
808,01	1234,93
808,19	1310,70
808,36	1243,12
808,54	1267,69
808,71	1277,93
808,88	1216,49
809,06	1259,50
809,23	1345,52
809,40	1249,26
809,58	1245,16
809,75	1333,23
809,92	1249,26
810,10	1275,88
810,27	1228,78
810,44	1284,08
810,62	1216,49
810,79	1216,49
810,96	1275,88
811,14	1298,41
811,31	1341,42
811,48	1265,64
811,66	1273,84
811,83	1302,51
812,00	1292,27
812,18	1257,45
812,35	1292,27
812,52	1249,26
812,69	1249,26
812,87	1275,88
813,04	1320,94
813,21	1228,78
813,39	1366,00
813,56	1304,56
813,73	1355,76
813,91	1228,78
814,08	1325,04
814,25	1259,50
814,42	1243,12
814,60	1257,45
814,77	1286,12
814,94	1339,37
815,12	1286,12
815,29	1275,88
815,46	1232,88
815,63	1302,51
815,81	1302,51
815,98	1273,84
816,15	1255,40
816,33	1304,56
816,50	1269,74
816,67	1247,21
816,84	1310,70
817,02	1261,55
817,19	1241,07
817,36	1220,59
817,53	1314,80
817,71	1322,99
817,88	1249,26
818,05	1351,66
818,22	1298,41
818,40	1282,03
818,57	1279,98
818,74	1277,93
818,91	1292,27
819,09	1277,93
819,26	1279,98
819,43	1273,84
819,60	1226,73
819,78	1265,64
819,95	1329,13
820,12	1234,93
820,29	1314,80
820,47	1341,42
820,64	1230,83
820,81	1290,22
820,98	1286,12
821,15	1333,23
821,33	1253,36
821,50	1284,08
821,67	1288,17
821,84	1345,52
822,02	1329,13
822,19	1282,03
822,36	1241,07
822,53	1292,27
822,70	1288,17
822,88	1249,26
823,05	1230,83
823,22	1245,16
823,39	1314,80
823,56	1294,32
823,74	1236,97
823,91	1230,83
824,08	1302,51
824,25	1310,70
824,42	1216,49
824,60	1208,30
824,77	1282,03
824,94	1228,78
825,11	1275,88
825,28	1296,36
825,45	1234,93
825,63	1210,35
825,80	1249,26
825,97	1241,07
826,14	1239,02
826,31	1232,88
826,48	1247,21
826,66	1243,12
826,83	1296,36
827,00	1253,36
827,17	1279,98
827,34	1292,27
827,51	1327,08
827,69	1247,21
827,86	1241,07
828,03	1345,52
828,20	1241,07
828,37	1216,49
828,54	1247,21
828,71	1296,36
828,89	1282,03
829,06	1232,88
829,23	1273,84
829,40	1282,03
829,57	1296,36
829,74	1224,69
829,91	1304,56
830,09	1257,45
830,26	1257,45
830,43	1232,88
830,60	1273,84
830,77	1247,21
830,94	1320,94
831,11	1253,36
831,28	1263,60
831,46	1261,55
831,63	1298,41
831,80	1325,04
831,97	1191,92
832,14	1357,80
832,31	1314,80
832,48	1310,70
832,65	1257,45
832,82	1271,79
832,99	1296,36
833,17	1335,28
833,34	1257,45
833,51	1288,17
833,68	1214,45
833,85	1333,23
834,02	1228,78
834,19	1300,46
834,36	1232,88
834,53	1288,17
834,70	1222,64
834,87	1230,83
835,04	1333,23
835,22	1226,73
835,39	1290,22
835,56	1290,22
835,73	1351,66
835,90	1267,69
836,07	1292,27
836,24	1273,84
836,41	1294,32
836,58	1216,49
836,75	1236,97
836,92	1279,98
837,09	1286,12
837,26	1245,16
837,43	1259,50
837,60	1239,02
837,77	1304,56
837,94	1290,22
838,12	1273,84
838,29	1286,12
838,46	1279,98
838,63	1300,46
838,80	1245,16
838,97	1288,17
839,14	1226,73
839,31	1320,94
839,48	1306,60
839,65	1296,36
839,82	1247,21
839,99	1290,22
840,16	1263,60
840,33	1314,80
840,50	1327,08
840,67	1318,89
840,84	1230,83
841,01	1310,70
841,18	1269,74
841,35	1275,88
841,52	1263,60
841,69	1261,55
841,86	1288,17
842,03	1255,40
842,20	1243,12
842,37	1310,70
842,54	1234,93
842,71	1331,18
842,88	1279,98
843,05	1279,98
843,22	1251,31
843,39	1325,04
843,56	1331,18
843,73	1267,69
843,90	1263,60
844,07	1273,84
844,24	1284,08
844,41	1279,98
844,58	1277,93
844,75	1261,55
844,92	1261,55
845,09	1232,88
845,26	1290,22
845,43	1243,12
845,60	1204,21
845,77	1282,03
845,94	1261,55
846,10	1275,88
846,27	1247,21
846,44	1343,47
846,61	1171,44
846,78	1234,93
846,95	1226,73
847,12	1228,78
847,29	1212,40
847,46	1400,81
847,63	1232,88
847,80	1202,16
847,97	1265,64
848,14	1282,03
848,31	1251,31
848,48	1279,98
848,65	1253,36
848,82	1249,26
848,98	1279,98
849,15	1263,60
849,32	1271,79
849,49	1269,74
849,66	1279,98
849,83	1247,21
850,00	1263,60
850,17	1226,73
850,34	1296,36
850,51	1193,97
850,68	1206,25
850,85	1232,88
851,01	1320,94
851,18	1236,97
851,35	1296,36
851,52	1322,99
851,69	1265,64
851,86	1257,45
852,03	1263,60
852,20	1306,60
852,37	1210,35
852,53	1232,88
852,70	1325,04
852,87	1255,40
853,04	1296,36
853,21	1322,99
853,38	1241,07
853,55	1286,12
853,72	1202,16
853,89	1273,84
854,05	1269,74
854,22	1214,45
854,39	1271,79
854,56	1288,17
854,73	1271,79
854,90	1255,40
855,07	1259,50
855,23	1183,73
855,40	1349,61
855,57	1312,75
855,74	1214,45
855,91	1269,74
856,08	1273,84
856,25	1239,02
856,41	1279,98
856,58	1304,56
856,75	1290,22
856,92	1249,26
857,09	1249,26
857,26	1292,27
857,42	1290,22
857,59	1284,08
857,76	1273,84
857,93	1228,78
858,10	1175,53
858,27	1210,35
858,43	1228,78
858,60	1253,36
858,77	1288,17
858,94	1302,51
859,11	1310,70
859,27	1294,32
859,44	1273,84
859,61	1279,98
859,78	1339,37
859,95	1275,88
860,12	1271,79
860,28	1230,83
860,45	1282,03
860,62	1241,07
860,79	1284,08
860,95	1329,13
861,12	1279,98
861,29	1263,60
861,46	1308,65
861,63	1286,12
861,79	1218,54
861,96	1269,74
862,13	1257,45
862,30	1314,80
862,47	1255,40
862,63	1228,78
862,80	1325,04
862,97	1306,60
863,14	1282,03
863,30	1241,07
863,47	1296,36
863,64	1273,84
863,81	1259,50
863,97	1273,84
864,14	1320,94
864,31	1220,59
864,48	1271,79
864,65	1249,26
864,81	1322,99
864,98	1206,25
865,15	1263,60
865,32	1265,64
865,48	1273,84
865,65	1275,88
865,82	1282,03
865,98	1320,94
866,15	1267,69
866,32	1277,93
866,49	1183,73
866,65	1239,02
866,82	1355,76
866,99	1269,74
867,16	1230,83
867,32	1200,11
867,49	1249,26
867,66	1320,94
867,83	1329,13
867,99	1267,69
868,16	1208,30
868,33	1239,02
868,49	1261,55
868,66	1193,97
868,83	1310,70
868,99	1294,32
869,16	1216,49
869,33	1220,59
869,50	1275,88
869,66	1263,60
869,83	1353,71
870,00	1310,70
870,16	1255,40
870,33	1320,94
870,50	1349,61
870,66	1234,93
870,83	1271,79
871,00	1220,59
871,17	1312,75
871,33	1282,03
871,50	1300,46
871,67	1257,45
871,83	1232,88
872,00	1275,88
872,17	1284,08
872,33	1267,69
872,50	1345,52
872,67	1269,74
872,83	1306,60
873,00	1286,12
873,17	1247,21
873,33	1236,97
873,50	1290,22
873,67	1257,45
873,83	1288,17
874,00	1310,70
874,16	1253,36
874,33	1247,21
874,50	1253,36
874,66	1318,89
874,83	1230,83
875,00	1316,84
875,16	1232,88
875,33	1220,59
875,50	1288,17
875,66	1261,55
875,83	1261,55
875,99	1286,12
876,16	1245,16
876,33	1267,69
876,49	1232,88
876,66	1263,60
876,83	1318,89
876,99	1239,02
877,16	1255,40
877,32	1275,88
877,49	1282,03
877,66	1269,74
877,82	1247,21
877,99	1277,93
878,15	1265,64
878,32	1257,45
878,49	1214,45
878,65	1263,60
878,82	1292,27
878,98	1335,28
879,15	1236,97
879,32	1253,36
879,48	1310,70
879,65	1300,46
879,81	1282,03
879,98	1286,12
880,15	1261,55
880,31	1288,17
880,48	1318,89
880,64	1257,45
880,81	1243,12
880,97	1298,41
881,14	1218,54
881,31	1273,84
881,47	1351,66
881,64	1181,68
881,80	1302,51
881,97	1259,50
882,13	1325,04
882,30	1249,26
882,47	1189,87
882,63	1304,56
882,80	1273,84
882,96	1263,60
883,13	1296,36
883,29	1236,97
883,46	1282,03
883,62	1220,59
883,79	1245,16
883,95	1304,56
884,12	1267,69
884,29	1226,73
884,45	1212,40
884,62	1267,69
884,78	1275,88
884,95	1249,26
885,11	1345,52
885,28	1286,12
885,44	1255,40
885,61	1191,92
885,77	1325,04
885,94	1271,79
886,10	1351,66
886,27	1257,45
886,43	1275,88
886,60	1333,23
886,76	1239,02
886,93	1306,60
887,09	1241,07
887,26	1228,78
887,42	1333,23
887,59	1320,94
887,75	1355,76
887,92	1310,70
888,08	1279,98
888,25	1312,75
888,41	1193,97
888,58	1343,47
888,74	1220,59
888,91	1251,31
>>>>>End Processed Spectral Data<<<<<
