SpectraSuite Data File
++++++++++++++++++++++++++++++++++++
Date: Sun Apr 03 14:03:34 CEST 2016
User: root
Dark Spectrum Present: No
Reference Spectrum Present: No
Number of Sampled Component Spectra: 1
Spectrometers: USB4C02835
Integration Time (usec): 10000 (USB4C02835)
Spectra Averaged: 1 (USB4C02835)
Boxcar Smoothing: 0 (USB4C02835)
Correct for Electrical Dark: No (USB4C02835)
Strobe/Lamp Enabled: No (USB4C02835)
Correct for Detector Non-linearity: No (USB4C02835)
Correct for Stray Light: No (USB4C02835)
Number of Pixels in Processed Spectrum: 3648
>>>>>Begin Processed Spectral Data<<<<<
177,47	1198,06
177,69	1198,06
177,91	1198,06
178,13	1304,56
178,36	1193,97
178,58	1284,08
178,80	1222,64
179,02	1308,65
179,24	1267,69
179,46	1224,69
179,68	1241,07
179,90	1257,45
180,13	1288,17
180,35	1251,31
180,57	1284,08
180,79	1282,03
181,01	1302,51
181,23	1325,04
181,45	1298,41
181,67	1261,55
181,90	1265,64
182,12	1243,12
182,34	1208,30
182,56	1224,69
182,78	1294,32
183,00	1296,36
183,22	1304,56
183,44	1228,78
183,66	1267,69
183,89	1290,22
184,11	1241,07
184,33	1249,26
184,55	1251,31
184,77	1329,13
184,99	1292,27
185,21	1337,32
185,43	1322,99
185,65	1241,07
185,87	1312,75
186,10	1318,89
186,32	1368,04
186,54	1243,12
186,76	1290,22
186,98	1259,50
187,20	1255,40
187,42	1298,41
187,64	1269,74
187,86	1277,93
188,08	1259,50
188,30	1277,93
188,52	1255,40
188,75	1251,31
188,97	1265,64
189,19	1265,64
189,41	1261,55
189,63	1314,80
189,85	1306,60
190,07	1226,73
190,29	1261,55
190,51	1263,60
190,73	1239,02
190,95	1245,16
191,17	1212,40
191,39	1232,88
191,61	1318,89
191,84	1267,69
192,06	1273,84
192,28	1322,99
192,50	1296,36
192,72	1331,18
192,94	1327,08
193,16	1273,84
193,38	1222,64
193,60	1228,78
193,82	1343,47
194,04	1292,27
194,26	1247,21
194,48	1282,03
194,70	1265,64
194,92	1261,55
195,14	1224,69
195,36	1214,45
195,58	1245,16
195,80	1267,69
196,02	1230,83
196,24	1300,46
196,46	1230,83
196,69	1261,55
196,91	1290,22
197,13	1253,36
197,35	1271,79
197,57	1249,26
197,79	1312,75
198,01	1306,60
198,23	1263,60
198,45	1298,41
198,67	1255,40
198,89	1245,16
199,11	1292,27
199,33	1310,70
199,55	1271,79
199,77	1318,89
199,99	1302,51
200,21	1277,93
200,43	1239,02
200,65	1302,51
200,87	1204,21
201,09	1265,64
201,31	1230,83
201,53	1294,32
201,75	1286,12
201,97	1247,21
202,19	1241,07
202,41	1241,07
202,63	1277,93
202,85	1273,84
203,07	1279,98
203,29	1269,74
203,51	1318,89
203,73	1232,88
203,95	1265,64
204,17	1286,12
204,39	1236,97
204,61	1306,60
204,83	1269,74
205,05	1314,80
205,27	1265,64
205,49	1251,31
205,71	1302,51
205,93	1277,93
206,15	1206,25
206,37	1269,74
206,59	1282,03
206,81	1249,26
207,03	1294,32
207,25	1296,36
207,47	1359,85
207,69	1245,16
207,91	1261,55
208,13	1243,12
208,34	1282,03
208,56	1206,25
208,78	1239,02
209,00	1298,41
209,22	1247,21
209,44	1277,93
209,66	1300,46
209,88	1220,59
210,10	1282,03
210,32	1284,08
210,54	1339,37
210,76	1234,93
210,98	1257,45
211,20	1261,55
211,42	1249,26
211,64	1204,21
211,86	1339,37
212,08	1292,27
212,30	1208,30
212,52	1308,65
212,74	1230,83
212,96	1314,80
213,17	1222,64
213,39	1222,64
213,61	1255,40
213,83	1304,56
214,05	1222,64
214,27	1257,45
214,49	1261,55
214,71	1374,19
214,93	1261,55
215,15	1318,89
215,37	1294,32
215,59	1322,99
215,81	1232,88
216,03	1214,45
216,24	1251,31
216,46	1320,94
216,68	1269,74
216,90	1308,65
217,12	1286,12
217,34	1269,74
217,56	1200,11
217,78	1239,02
218,00	1279,98
218,22	1353,71
218,44	1226,73
218,66	1331,18
218,87	1263,60
219,09	1249,26
219,31	1212,40
219,53	1269,74
219,75	1314,80
219,97	1271,79
220,19	1380,33
220,41	1247,21
220,63	1265,64
220,85	1253,36
221,06	1273,84
221,28	1251,31
221,50	1267,69
221,72	1271,79
221,94	1282,03
222,16	1292,27
222,38	1220,59
222,60	1230,83
222,82	1279,98
223,03	1325,04
223,25	1265,64
223,47	1216,49
223,69	1314,80
223,91	1255,40
224,13	1296,36
224,35	1302,51
224,57	1316,84
224,78	1306,60
225,00	1288,17
225,22	1220,59
225,44	1316,84
225,66	1271,79
225,88	1251,31
226,10	1263,60
226,32	1392,62
226,53	1282,03
226,75	1277,93
226,97	1331,18
227,19	1236,97
227,41	1255,40
227,63	1234,93
227,85	1273,84
228,06	1292,27
228,28	1347,56
228,50	1329,13
228,72	1265,64
228,94	1216,49
229,16	1212,40
229,37	1255,40
229,59	1263,60
229,81	1241,07
230,03	1267,69
230,25	1263,60
230,47	1312,75
230,69	1222,64
230,90	1318,89
231,12	1279,98
231,34	1265,64
231,56	1218,54
231,78	1294,32
232,00	1282,03
232,21	1314,80
232,43	1353,71
232,65	1335,28
232,87	1251,31
233,09	1271,79
233,30	1265,64
233,52	1296,36
233,74	1314,80
233,96	1253,36
234,18	1310,70
234,40	1294,32
234,61	1292,27
234,83	1261,55
235,05	1288,17
235,27	1263,60
235,49	1257,45
235,70	1288,17
235,92	1249,26
236,14	1304,56
236,36	1249,26
236,58	1322,99
236,79	1257,45
237,01	1226,73
237,23	1253,36
237,45	1261,55
237,67	1265,64
237,88	1249,26
238,10	1327,08
238,32	1271,79
238,54	1349,61
238,76	1310,70
238,97	1228,78
239,19	1310,70
239,41	1284,08
239,63	1251,31
239,85	1388,52
240,06	1269,74
240,28	1247,21
240,50	1277,93
240,72	1290,22
240,93	1271,79
241,15	1290,22
241,37	1224,69
241,59	1230,83
241,81	1308,65
242,02	1279,98
242,24	1249,26
242,46	1232,88
242,68	1204,21
242,89	1271,79
243,11	1298,41
243,33	1306,60
243,55	1259,50
243,76	1269,74
243,98	1288,17
244,20	1304,56
244,42	1214,45
244,64	1292,27
244,85	1249,26
245,07	1318,89
245,29	1341,42
245,51	1232,88
245,72	1257,45
245,94	1294,32
246,16	1337,32
246,38	1198,06
246,59	1271,79
246,81	1292,27
247,03	1282,03
247,24	1335,28
247,46	1286,12
247,68	1249,26
247,90	1279,98
248,11	1284,08
248,33	1234,93
248,55	1241,07
248,77	1296,36
248,98	1296,36
249,20	1241,07
249,42	1269,74
249,64	1214,45
249,85	1257,45
250,07	1333,23
250,29	1292,27
250,50	1232,88
250,72	1255,40
250,94	1304,56
251,16	1361,90
251,37	1249,26
251,59	1212,40
251,81	1251,31
252,02	1288,17
252,24	1232,88
252,46	1271,79
252,68	1214,45
252,89	1267,69
253,11	1314,80
253,33	1232,88
253,54	1271,79
253,76	1314,80
253,98	1292,27
254,20	1249,26
254,41	1304,56
254,63	1243,12
254,85	1372,14
255,06	1302,51
255,28	1282,03
255,50	1298,41
255,71	1210,35
255,93	1282,03
256,15	1353,71
256,36	1232,88
256,58	1218,54
256,80	1290,22
257,02	1290,22
257,23	1273,84
257,45	1247,21
257,67	1267,69
257,88	1259,50
258,10	1257,45
258,32	1331,18
258,53	1279,98
258,75	1234,93
258,97	1224,69
259,18	1380,33
259,40	1230,83
259,62	1306,60
259,83	1265,64
260,05	1275,88
260,27	1247,21
260,48	1304,56
260,70	1265,64
260,92	1282,03
261,13	1322,99
261,35	1335,28
261,57	1279,98
261,78	1200,11
262,00	1277,93
262,22	1232,88
262,43	1294,32
262,65	1269,74
262,86	1259,50
263,08	1249,26
263,30	1298,41
263,51	1322,99
263,73	1269,74
263,95	1232,88
264,16	1206,25
264,38	1224,69
264,60	1224,69
264,81	1222,64
265,03	1286,12
265,25	1241,07
265,46	1290,22
265,68	1257,45
265,89	1290,22
266,11	1290,22
266,33	1230,83
266,54	1275,88
266,76	1296,36
266,98	1275,88
267,19	1222,64
267,41	1208,30
267,62	1204,21
267,84	1222,64
268,06	1304,56
268,27	1257,45
268,49	1345,52
268,70	1257,45
268,92	1298,41
269,14	1181,68
269,35	1255,40
269,57	1286,12
269,79	1198,06
270,00	1296,36
270,22	1243,12
270,43	1331,18
270,65	1234,93
270,87	1300,46
271,08	1282,03
271,30	1318,89
271,51	1304,56
271,73	1243,12
271,95	1288,17
272,16	1261,55
272,38	1232,88
272,59	1337,32
272,81	1234,93
273,02	1302,51
273,24	1306,60
273,46	1327,08
273,67	1325,04
273,89	1279,98
274,10	1191,92
274,32	1331,18
274,54	1251,31
274,75	1257,45
274,97	1290,22
275,18	1308,65
275,40	1243,12
275,61	1228,78
275,83	1275,88
276,05	1263,60
276,26	1355,76
276,48	1292,27
276,69	1255,40
276,91	1255,40
277,12	1302,51
277,34	1347,56
277,55	1306,60
277,77	1241,07
277,99	1247,21
278,20	1269,74
278,42	1259,50
278,63	1312,75
278,85	1220,59
279,06	1224,69
279,28	1236,97
279,49	1273,84
279,71	1269,74
279,93	1290,22
280,14	1298,41
280,36	1279,98
280,57	1255,40
280,79	1275,88
281,00	1224,69
281,22	1247,21
281,43	1282,03
281,65	1288,17
281,86	1212,40
282,08	1320,94
282,29	1222,64
282,51	1275,88
282,73	1259,50
282,94	1296,36
283,16	1267,69
283,37	1302,51
283,59	1355,76
283,80	1269,74
284,02	1249,26
284,23	1339,37
284,45	1337,32
284,66	1236,97
284,88	1279,98
285,09	1275,88
285,31	1245,16
285,52	1234,93
285,74	1271,79
285,95	1288,17
286,17	1239,02
286,38	1241,07
286,60	1273,84
286,81	1292,27
287,03	1273,84
287,24	1249,26
287,46	1308,65
287,67	1284,08
287,89	1249,26
288,10	1269,74
288,32	1236,97
288,53	1228,78
288,75	1243,12
288,96	1273,84
289,18	1286,12
289,39	1284,08
289,61	1304,56
289,82	1269,74
290,04	1279,98
290,25	1312,75
290,47	1214,45
290,68	1318,89
290,90	1277,93
291,11	1243,12
291,33	1325,04
291,54	1292,27
291,76	1271,79
291,97	1267,69
292,18	1212,40
292,40	1316,84
292,61	1263,60
292,83	1308,65
293,04	1310,70
293,26	1210,35
293,47	1341,42
293,69	1265,64
293,90	1257,45
294,12	1333,23
294,33	1257,45
294,55	1288,17
294,76	1236,97
294,97	1271,79
295,19	1296,36
295,40	1296,36
295,62	1255,40
295,83	1296,36
296,05	1310,70
296,26	1255,40
296,48	1308,65
296,69	1308,65
296,90	1314,80
297,12	1241,07
297,33	1249,26
297,55	1290,22
297,76	1282,03
297,98	1239,02
298,19	1290,22
298,41	1288,17
298,62	1318,89
298,83	1232,88
299,05	1279,98
299,26	1269,74
299,48	1267,69
299,69	1232,88
299,90	1314,80
300,12	1257,45
300,33	1249,26
300,55	1234,93
300,76	1269,74
300,98	1228,78
301,19	1322,99
301,40	1298,41
301,62	1212,40
301,83	1279,98
302,05	1290,22
302,26	1349,61
302,47	1312,75
302,69	1255,40
302,90	1284,08
303,12	1292,27
303,33	1314,80
303,54	1234,93
303,76	1243,12
303,97	1249,26
304,19	1251,31
304,40	1318,89
304,61	1361,90
304,83	1292,27
305,04	1316,84
305,26	1267,69
305,47	1284,08
305,68	1284,08
305,90	1294,32
306,11	1251,31
306,33	1329,13
306,54	1306,60
306,75	1282,03
306,97	1271,79
307,18	1206,25
307,39	1224,69
307,61	1259,50
307,82	1294,32
308,04	1249,26
308,25	1241,07
308,46	1230,83
308,68	1300,46
308,89	1220,59
309,10	1275,88
309,32	1308,65
309,53	1296,36
309,74	1335,28
309,96	1267,69
310,17	1279,98
310,39	1279,98
310,60	1204,21
310,81	1306,60
311,03	1216,49
311,24	1302,51
311,45	1226,73
311,67	1359,85
311,88	1277,93
312,09	1288,17
312,31	1247,21
312,52	1247,21
312,73	1204,21
312,95	1339,37
313,16	1257,45
313,37	1302,51
313,59	1261,55
313,80	1277,93
314,01	1208,30
314,23	1271,79
314,44	1253,36
314,65	1265,64
314,87	1322,99
315,08	1128,43
315,29	1304,56
315,51	1288,17
315,72	1236,97
315,93	1298,41
316,15	1257,45
316,36	1275,88
316,57	1253,36
316,79	1284,08
317,00	1247,21
317,21	1282,03
317,43	1271,79
317,64	1306,60
317,85	1279,98
318,07	1290,22
318,28	1275,88
318,49	1286,12
318,70	1282,03
318,92	1357,80
319,13	1294,32
319,34	1257,45
319,56	1314,80
319,77	1245,16
319,98	1218,54
320,20	1290,22
320,41	1220,59
320,62	1255,40
320,83	1331,18
321,05	1282,03
321,26	1267,69
321,47	1251,31
321,69	1245,16
321,90	1257,45
322,11	1220,59
322,32	1275,88
322,54	1343,47
322,75	1271,79
322,96	1273,84
323,18	1212,40
323,39	1261,55
323,60	1232,88
323,81	1310,70
324,03	1292,27
324,24	1318,89
324,45	1298,41
324,66	1277,93
324,88	1296,36
325,09	1351,66
325,30	1189,87
325,52	1236,97
325,73	1286,12
325,94	1288,17
326,15	1210,35
326,37	1228,78
326,58	1245,16
326,79	1294,32
327,00	1298,41
327,22	1279,98
327,43	1277,93
327,64	1232,88
327,85	1220,59
328,07	1314,80
328,28	1284,08
328,49	1255,40
328,70	1263,60
328,92	1290,22
329,13	1304,56
329,34	1320,94
329,55	1376,24
329,76	1232,88
329,98	1234,93
330,19	1228,78
330,40	1318,89
330,61	1286,12
330,83	1316,84
331,04	1234,93
331,25	1288,17
331,46	1193,97
331,68	1355,76
331,89	1277,93
332,10	1329,13
332,31	1273,84
332,52	1288,17
332,74	1341,42
332,95	1224,69
333,16	1241,07
333,37	1204,21
333,58	1245,16
333,80	1232,88
334,01	1198,06
334,22	1249,26
334,43	1265,64
334,64	1265,64
334,86	1253,36
335,07	1253,36
335,28	1284,08
335,49	1220,59
335,70	1347,56
335,92	1236,97
336,13	1263,60
336,34	1216,49
336,55	1224,69
336,76	1302,51
336,98	1269,74
337,19	1302,51
337,40	1277,93
337,61	1341,42
337,82	1267,69
338,04	1337,32
338,25	1210,35
338,46	1277,93
338,67	1284,08
338,88	1218,54
339,09	1310,70
339,31	1261,55
339,52	1302,51
339,73	1239,02
339,94	1232,88
340,15	1257,45
340,36	1222,64
340,58	1189,87
340,79	1341,42
341,00	1271,79
341,21	1261,55
341,42	1316,84
341,63	1232,88
341,85	1275,88
342,06	1173,49
342,27	1204,21
342,48	1314,80
342,69	1314,80
342,90	1290,22
343,12	1333,23
343,33	1267,69
343,54	1196,01
343,75	1282,03
343,96	1275,88
344,17	1282,03
344,38	1282,03
344,60	1269,74
344,81	1251,31
345,02	1259,50
345,23	1298,41
345,44	1279,98
345,65	1243,12
345,86	1271,79
346,07	1298,41
346,29	1282,03
346,50	1271,79
346,71	1259,50
346,92	1236,97
347,13	1292,27
347,34	1251,31
347,55	1361,90
347,76	1267,69
347,98	1259,50
348,19	1247,21
348,40	1286,12
348,61	1288,17
348,82	1251,31
349,03	1218,54
349,24	1263,60
349,45	1200,11
349,66	1294,32
349,88	1310,70
350,09	1288,17
350,30	1308,65
350,51	1279,98
350,72	1302,51
350,93	1292,27
351,14	1212,40
351,35	1259,50
351,56	1261,55
351,77	1236,97
351,99	1288,17
352,20	1267,69
352,41	1273,84
352,62	1308,65
352,83	1183,73
353,04	1228,78
353,25	1181,68
353,46	1257,45
353,67	1368,04
353,88	1257,45
354,09	1345,52
354,30	1222,64
354,52	1241,07
354,73	1269,74
354,94	1302,51
355,15	1271,79
355,36	1204,21
355,57	1286,12
355,78	1296,36
355,99	1333,23
356,20	1302,51
356,41	1255,40
356,62	1239,02
356,83	1275,88
357,04	1216,49
357,25	1265,64
357,46	1314,80
357,68	1310,70
357,89	1267,69
358,10	1298,41
358,31	1273,84
358,52	1249,26
358,73	1241,07
358,94	1286,12
359,15	1265,64
359,36	1329,13
359,57	1249,26
359,78	1282,03
359,99	1290,22
360,20	1230,83
360,41	1220,59
360,62	1245,16
360,83	1196,01
361,04	1206,25
361,25	1314,80
361,46	1318,89
361,67	1245,16
361,88	1312,75
362,09	1236,97
362,30	1230,83
362,51	1282,03
362,72	1263,60
362,93	1167,34
363,14	1288,17
363,35	1302,51
363,56	1251,31
363,78	1308,65
363,99	1257,45
364,20	1325,04
364,41	1269,74
364,62	1247,21
364,83	1322,99
365,04	1282,03
365,25	1249,26
365,46	1302,51
365,67	1308,65
365,88	1351,66
366,09	1247,21
366,30	1304,56
366,51	1236,97
366,72	1296,36
366,93	1290,22
367,14	1284,08
367,35	1343,47
367,56	1325,04
367,77	1306,60
367,98	1296,36
368,18	1212,40
368,39	1234,93
368,60	1279,98
368,81	1261,55
369,02	1200,11
369,23	1220,59
369,44	1349,61
369,65	1296,36
369,86	1325,04
370,07	1251,31
370,28	1294,32
370,49	1259,50
370,70	1314,80
370,91	1257,45
371,12	1294,32
371,33	1226,73
371,54	1269,74
371,75	1341,42
371,96	1234,93
372,17	1210,35
372,38	1220,59
372,59	1284,08
372,80	1314,80
373,01	1234,93
373,22	1320,94
373,43	1304,56
373,64	1232,88
373,85	1279,98
374,06	1306,60
374,26	1226,73
374,47	1286,12
374,68	1257,45
374,89	1263,60
375,10	1230,83
375,31	1271,79
375,52	1224,69
375,73	1351,66
375,94	1288,17
376,15	1296,36
376,36	1259,50
376,57	1282,03
376,78	1282,03
376,99	1208,30
377,20	1228,78
377,40	1269,74
377,61	1271,79
377,82	1228,78
378,03	1331,18
378,24	1345,52
378,45	1269,74
378,66	1325,04
378,87	1234,93
379,08	1232,88
379,29	1284,08
379,50	1306,60
379,71	1247,21
379,91	1267,69
380,12	1290,22
380,33	1236,97
380,54	1239,02
380,75	1226,73
380,96	1298,41
381,17	1306,60
381,38	1279,98
381,59	1284,08
381,80	1269,74
382,00	1243,12
382,21	1296,36
382,42	1255,40
382,63	1257,45
382,84	1279,98
383,05	1277,93
383,26	1234,93
383,47	1232,88
383,68	1277,93
383,88	1286,12
384,09	1269,74
384,30	1271,79
384,51	1269,74
384,72	1230,83
384,93	1247,21
385,14	1304,56
385,35	1263,60
385,55	1267,69
385,76	1302,51
385,97	1310,70
386,18	1290,22
386,39	1236,97
386,60	1196,01
386,81	1230,83
387,02	1222,64
387,22	1267,69
387,43	1284,08
387,64	1325,04
387,85	1273,84
388,06	1263,60
388,27	1271,79
388,48	1267,69
388,68	1306,60
388,89	1261,55
389,10	1220,59
389,31	1251,31
389,52	1329,13
389,73	1279,98
389,93	1232,88
390,14	1343,47
390,35	1275,88
390,56	1290,22
390,77	1208,30
390,98	1314,80
391,18	1282,03
391,39	1257,45
391,60	1275,88
391,81	1318,89
392,02	1298,41
392,23	1288,17
392,43	1304,56
392,64	1290,22
392,85	1288,17
393,06	1282,03
393,27	1300,46
393,47	1185,77
393,68	1279,98
393,89	1304,56
394,10	1380,33
394,31	1214,45
394,52	1271,79
394,72	1288,17
394,93	1226,73
395,14	1300,46
395,35	1259,50
395,56	1333,23
395,76	1286,12
395,97	1277,93
396,18	1271,79
396,39	1316,84
396,60	1273,84
396,80	1202,16
397,01	1210,35
397,22	1277,93
397,43	1214,45
397,64	1263,60
397,84	1284,08
398,05	1275,88
398,26	1271,79
398,47	1339,37
398,67	1204,21
398,88	1218,54
399,09	1253,36
399,30	1300,46
399,51	1279,98
399,71	1316,84
399,92	1243,12
400,13	1318,89
400,34	1247,21
400,54	1271,79
400,75	1320,94
400,96	1261,55
401,17	1327,08
401,37	1245,16
401,58	1198,06
401,79	1310,70
402,00	1310,70
402,21	1314,80
402,41	1279,98
402,62	1267,69
402,83	1298,41
403,04	1171,44
403,24	1243,12
403,45	1230,83
403,66	1312,75
403,87	1318,89
404,07	1312,75
404,28	1351,66
404,49	1376,24
404,70	1208,30
404,90	1322,99
405,11	1310,70
405,32	1298,41
405,52	1234,93
405,73	1259,50
405,94	1249,26
406,15	1337,32
406,35	1251,31
406,56	1269,74
406,77	1261,55
406,98	1196,01
407,18	1370,09
407,39	1300,46
407,60	1200,11
407,80	1312,75
408,01	1290,22
408,22	1251,31
408,43	1294,32
408,63	1286,12
408,84	1257,45
409,05	1288,17
409,25	1257,45
409,46	1314,80
409,67	1339,37
409,88	1243,12
410,08	1269,74
410,29	1386,47
410,50	1251,31
410,70	1255,40
410,91	1228,78
411,12	1249,26
411,32	1249,26
411,53	1261,55
411,74	1236,97
411,95	1335,28
412,15	1335,28
412,36	1279,98
412,57	1292,27
412,77	1228,78
412,98	1306,60
413,19	1181,68
413,39	1271,79
413,60	1257,45
413,81	1220,59
414,01	1236,97
414,22	1302,51
414,43	1271,79
414,63	1183,73
414,84	1288,17
415,05	1296,36
415,25	1327,08
415,46	1261,55
415,67	1261,55
415,87	1220,59
416,08	1251,31
416,29	1263,60
416,49	1300,46
416,70	1290,22
416,91	1304,56
417,11	1308,65
417,32	1247,21
417,53	1249,26
417,73	1206,25
417,94	1286,12
418,15	1224,69
418,35	1271,79
418,56	1271,79
418,77	1243,12
418,97	1247,21
419,18	1294,32
419,38	1193,97
419,59	1302,51
419,80	1318,89
420,00	1314,80
420,21	1226,73
420,42	1302,51
420,62	1298,41
420,83	1212,40
421,04	1288,17
421,24	1249,26
421,45	1247,21
421,65	1279,98
421,86	1261,55
422,07	1239,02
422,27	1310,70
422,48	1282,03
422,69	1306,60
422,89	1257,45
423,10	1329,13
423,30	1239,02
423,51	1275,88
423,72	1329,13
423,92	1337,32
424,13	1259,50
424,33	1286,12
424,54	1320,94
424,75	1234,93
424,95	1304,56
425,16	1288,17
425,36	1249,26
425,57	1304,56
425,78	1339,37
425,98	1257,45
426,19	1253,36
426,39	1327,08
426,60	1333,23
426,81	1257,45
427,01	1255,40
427,22	1198,06
427,42	1226,73
427,63	1257,45
427,83	1378,28
428,04	1312,75
428,25	1316,84
428,45	1245,16
428,66	1236,97
428,86	1310,70
429,07	1245,16
429,28	1288,17
429,48	1234,93
429,69	1335,28
429,89	1306,60
430,10	1282,03
430,30	1277,93
430,51	1241,07
430,71	1271,79
430,92	1312,75
431,13	1243,12
431,33	1288,17
431,54	1261,55
431,74	1277,93
431,95	1322,99
432,15	1316,84
432,36	1253,36
432,56	1271,79
432,77	1316,84
432,98	1189,87
433,18	1284,08
433,39	1318,89
433,59	1251,31
433,80	1284,08
434,00	1234,93
434,21	1282,03
434,41	1253,36
434,62	1286,12
434,82	1263,60
435,03	1243,12
435,23	1196,01
435,44	1247,21
435,64	1347,56
435,85	1259,50
436,06	1284,08
436,26	1288,17
436,47	1263,60
436,67	1271,79
436,88	1228,78
437,08	1294,32
437,29	1243,12
437,49	1325,04
437,70	1339,37
437,90	1292,27
438,11	1247,21
438,31	1296,36
438,52	1302,51
438,72	1218,54
438,93	1243,12
439,13	1296,36
439,34	1202,16
439,54	1251,31
439,75	1206,25
439,95	1298,41
440,16	1245,16
440,36	1241,07
440,57	1273,84
440,77	1255,40
440,98	1236,97
441,18	1308,65
441,39	1275,88
441,59	1341,42
441,80	1279,98
442,00	1265,64
442,21	1247,21
442,41	1277,93
442,62	1314,80
442,82	1257,45
443,02	1294,32
443,23	1214,45
443,43	1275,88
443,64	1255,40
443,84	1220,59
444,05	1286,12
444,25	1306,60
444,46	1232,88
444,66	1273,84
444,87	1290,22
445,07	1216,49
445,28	1349,61
445,48	1245,16
445,69	1304,56
445,89	1261,55
446,09	1398,76
446,30	1265,64
446,50	1306,60
446,71	1228,78
446,91	1302,51
447,12	1261,55
447,32	1327,08
447,53	1253,36
447,73	1247,21
447,93	1257,45
448,14	1273,84
448,34	1230,83
448,55	1253,36
448,75	1245,16
448,96	1279,98
449,16	1331,18
449,36	1300,46
449,57	1294,32
449,77	1243,12
449,98	1279,98
450,18	1257,45
450,39	1308,65
450,59	1337,32
450,79	1255,40
451,00	1316,84
451,20	1232,88
451,41	1392,62
451,61	1292,27
451,81	1255,40
452,02	1312,75
452,22	1322,99
452,43	1241,07
452,63	1222,64
452,84	1284,08
453,04	1298,41
453,24	1236,97
453,45	1269,74
453,65	1224,69
453,86	1261,55
454,06	1300,46
454,26	1239,02
454,47	1265,64
454,67	1267,69
454,87	1290,22
455,08	1251,31
455,28	1288,17
455,49	1279,98
455,69	1239,02
455,89	1318,89
456,10	1294,32
456,30	1257,45
456,51	1230,83
456,71	1277,93
456,91	1224,69
457,12	1234,93
457,32	1284,08
457,52	1196,01
457,73	1222,64
457,93	1288,17
458,14	1249,26
458,34	1271,79
458,54	1161,20
458,75	1224,69
458,95	1329,13
459,15	1288,17
459,36	1337,32
459,56	1193,97
459,76	1230,83
459,97	1288,17
460,17	1259,50
460,37	1239,02
460,58	1228,78
460,78	1284,08
460,99	1218,54
461,19	1312,75
461,39	1247,21
461,60	1226,73
461,80	1357,80
462,00	1347,56
462,21	1292,27
462,41	1345,52
462,61	1345,52
462,82	1247,21
463,02	1294,32
463,22	1314,80
463,43	1341,42
463,63	1267,69
463,83	1251,31
464,04	1343,47
464,24	1273,84
464,44	1236,97
464,64	1271,79
464,85	1259,50
465,05	1331,18
465,25	1294,32
465,46	1294,32
465,66	1198,06
465,86	1196,01
466,07	1277,93
466,27	1261,55
466,47	1306,60
466,68	1286,12
466,88	1208,30
467,08	1245,16
467,29	1282,03
467,49	1308,65
467,69	1249,26
467,89	1241,07
468,10	1241,07
468,30	1263,60
468,50	1327,08
468,71	1257,45
468,91	1296,36
469,11	1234,93
469,31	1243,12
469,52	1306,60
469,72	1200,11
469,92	1253,36
470,13	1327,08
470,33	1232,88
470,53	1267,69
470,73	1300,46
470,94	1273,84
471,14	1259,50
471,34	1286,12
471,54	1206,25
471,75	1247,21
471,95	1306,60
472,15	1257,45
472,36	1378,28
472,56	1247,21
472,76	1263,60
472,96	1232,88
473,17	1247,21
473,37	1310,70
473,57	1290,22
473,77	1286,12
473,98	1318,89
474,18	1347,56
474,38	1279,98
474,58	1314,80
474,79	1306,60
474,99	1222,64
475,19	1230,83
475,39	1312,75
475,60	1314,80
475,80	1165,29
476,00	1310,70
476,20	1304,56
476,41	1241,07
476,61	1318,89
476,81	1314,80
477,01	1249,26
477,21	1300,46
477,42	1265,64
477,62	1204,21
477,82	1331,18
478,02	1251,31
478,23	1306,60
478,43	1249,26
478,63	1245,16
478,83	1267,69
479,03	1314,80
479,24	1284,08
479,44	1351,66
479,64	1196,01
479,84	1257,45
480,04	1304,56
480,25	1228,78
480,45	1239,02
480,65	1263,60
480,85	1339,37
481,06	1298,41
481,26	1288,17
481,46	1216,49
481,66	1243,12
481,86	1273,84
482,06	1255,40
482,27	1306,60
482,47	1241,07
482,67	1236,97
482,87	1210,35
483,07	1292,27
483,28	1249,26
483,48	1216,49
483,68	1304,56
483,88	1312,75
484,08	1288,17
484,29	1292,27
484,49	1296,36
484,69	1345,52
484,89	1271,79
485,09	1251,31
485,29	1273,84
485,50	1183,73
485,70	1351,66
485,90	1296,36
486,10	1251,31
486,30	1300,46
486,50	1232,88
486,71	1255,40
486,91	1282,03
487,11	1275,88
487,31	1359,85
487,51	1279,98
487,71	1224,69
487,91	1241,07
488,12	1234,93
488,32	1279,98
488,52	1286,12
488,72	1232,88
488,92	1286,12
489,12	1228,78
489,32	1210,35
489,53	1320,94
489,73	1234,93
489,93	1277,93
490,13	1239,02
490,33	1179,63
490,53	1294,32
490,73	1247,21
490,94	1191,92
491,14	1230,83
491,34	1187,82
491,54	1263,60
491,74	1220,59
491,94	1298,41
492,14	1337,32
492,34	1251,31
492,54	1329,13
492,75	1230,83
492,95	1251,31
493,15	1331,18
493,35	1320,94
493,55	1366,00
493,75	1267,69
493,95	1261,55
494,15	1265,64
494,35	1288,17
494,56	1288,17
494,76	1265,64
494,96	1279,98
495,16	1241,07
495,36	1308,65
495,56	1302,51
495,76	1279,98
495,96	1306,60
496,16	1259,50
496,36	1322,99
496,56	1253,36
496,77	1218,54
496,97	1294,32
497,17	1273,84
497,37	1282,03
497,57	1339,37
497,77	1314,80
497,97	1310,70
498,17	1234,93
498,37	1189,87
498,57	1347,56
498,77	1302,51
498,97	1243,12
499,17	1296,36
499,38	1263,60
499,58	1277,93
499,78	1247,21
499,98	1314,80
500,18	1282,03
500,38	1269,74
500,58	1245,16
500,78	1304,56
500,98	1308,65
501,18	1222,64
501,38	1300,46
501,58	1189,87
501,78	1286,12
501,98	1333,23
502,18	1282,03
502,38	1241,07
502,58	1261,55
502,78	1263,60
502,98	1257,45
503,18	1296,36
503,38	1279,98
503,59	1282,03
503,79	1243,12
503,99	1189,87
504,19	1331,18
504,39	1300,46
504,59	1196,01
504,79	1253,36
504,99	1308,65
505,19	1322,99
505,39	1208,30
505,59	1286,12
505,79	1222,64
505,99	1349,61
506,19	1286,12
506,39	1257,45
506,59	1259,50
506,79	1226,73
506,99	1267,69
507,19	1224,69
507,39	1247,21
507,59	1322,99
507,79	1306,60
507,99	1269,74
508,19	1239,02
508,39	1167,34
508,59	1286,12
508,79	1282,03
508,99	1226,73
509,19	1282,03
509,39	1269,74
509,59	1218,54
509,79	1241,07
509,99	1271,79
510,19	1286,12
510,39	1318,89
510,59	1308,65
510,79	1277,93
510,99	1255,40
511,19	1255,40
511,39	1255,40
511,59	1339,37
511,79	1226,73
511,99	1282,03
512,19	1275,88
512,38	1310,70
512,58	1226,73
512,78	1290,22
512,98	1273,84
513,18	1279,98
513,38	1288,17
513,58	1298,41
513,78	1228,78
513,98	1306,60
514,18	1230,83
514,38	1249,26
514,58	1245,16
514,78	1298,41
514,98	1294,32
515,18	1284,08
515,38	1284,08
515,58	1257,45
515,78	1243,12
515,98	1234,93
516,18	1296,36
516,38	1243,12
516,57	1355,76
516,77	1306,60
516,97	1230,83
517,17	1261,55
517,37	1308,65
517,57	1355,76
517,77	1234,93
517,97	1241,07
518,17	1294,32
518,37	1404,91
518,57	1216,49
518,77	1247,21
518,97	1234,93
519,16	1230,83
519,36	1224,69
519,56	1318,89
519,76	1296,36
519,96	1198,06
520,16	1284,08
520,36	1206,25
520,56	1261,55
520,76	1312,75
520,96	1296,36
521,16	1267,69
521,35	1329,13
521,55	1236,97
521,75	1337,32
521,95	1312,75
522,15	1288,17
522,35	1243,12
522,55	1253,36
522,75	1296,36
522,95	1257,45
523,14	1316,84
523,34	1286,12
523,54	1288,17
523,74	1263,60
523,94	1267,69
524,14	1193,97
524,34	1294,32
524,54	1271,79
524,73	1316,84
524,93	1271,79
525,13	1322,99
525,33	1185,77
525,53	1236,97
525,73	1255,40
525,93	1230,83
526,13	1314,80
526,32	1298,41
526,52	1234,93
526,72	1208,30
526,92	1269,74
527,12	1259,50
527,32	1294,32
527,52	1296,36
527,71	1318,89
527,91	1249,26
528,11	1228,78
528,31	1312,75
528,51	1255,40
528,71	1247,21
528,90	1331,18
529,10	1343,47
529,30	1251,31
529,50	1273,84
529,70	1284,08
529,90	1255,40
530,09	1316,84
530,29	1302,51
530,49	1220,59
530,69	1296,36
530,89	1308,65
531,09	1253,36
531,28	1298,41
531,48	1259,50
531,68	1218,54
531,88	1236,97
532,08	1228,78
532,28	1306,60
532,47	1310,70
532,67	1189,87
532,87	1294,32
533,07	1355,76
533,27	1243,12
533,46	1308,65
533,66	1255,40
533,86	1261,55
534,06	1263,60
534,26	1284,08
534,45	1359,85
534,65	1239,02
534,85	1308,65
535,05	1216,49
535,25	1292,27
535,44	1247,21
535,64	1224,69
535,84	1216,49
536,04	1347,56
536,24	1251,31
536,43	1236,97
536,63	1257,45
536,83	1357,80
537,03	1290,22
537,22	1200,11
537,42	1279,98
537,62	1304,56
537,82	1267,69
538,02	1302,51
538,21	1296,36
538,41	1310,70
538,61	1357,80
538,81	1239,02
539,00	1275,88
539,20	1243,12
539,40	1271,79
539,60	1284,08
539,79	1230,83
539,99	1222,64
540,19	1265,64
540,39	1314,80
540,58	1306,60
540,78	1286,12
540,98	1298,41
541,18	1239,02
541,37	1249,26
541,57	1275,88
541,77	1271,79
541,97	1253,36
542,16	1396,71
542,36	1236,97
542,56	1259,50
542,76	1316,84
542,95	1296,36
543,15	1245,16
543,35	1247,21
543,54	1288,17
543,74	1220,59
543,94	1273,84
544,14	1296,36
544,33	1263,60
544,53	1245,16
544,73	1300,46
544,93	1255,40
545,12	1251,31
545,32	1339,37
545,52	1310,70
545,71	1196,01
545,91	1277,93
546,11	1196,01
546,30	1288,17
546,50	1259,50
546,70	1351,66
546,90	1296,36
547,09	1306,60
547,29	1290,22
547,49	1204,21
547,68	1243,12
547,88	1247,21
548,08	1359,85
548,27	1296,36
548,47	1353,71
548,67	1202,16
548,87	1310,70
549,06	1243,12
549,26	1273,84
549,46	1228,78
549,65	1284,08
549,85	1241,07
550,05	1288,17
550,24	1263,60
550,44	1214,45
550,64	1261,55
550,83	1284,08
551,03	1275,88
551,23	1265,64
551,42	1263,60
551,62	1302,51
551,82	1267,69
552,01	1202,16
552,21	1257,45
552,41	1322,99
552,60	1300,46
552,80	1349,61
553,00	1343,47
553,19	1314,80
553,39	1314,80
553,59	1265,64
553,78	1251,31
553,98	1222,64
554,17	1271,79
554,37	1216,49
554,57	1290,22
554,76	1271,79
554,96	1253,36
555,16	1267,69
555,35	1253,36
555,55	1263,60
555,75	1253,36
555,94	1302,51
556,14	1236,97
556,33	1290,22
556,53	1277,93
556,73	1198,06
556,92	1232,88
557,12	1230,83
557,32	1265,64
557,51	1191,92
557,71	1318,89
557,90	1304,56
558,10	1316,84
558,30	1253,36
558,49	1273,84
558,69	1284,08
558,88	1263,60
559,08	1296,36
559,28	1232,88
559,47	1304,56
559,67	1286,12
559,86	1243,12
560,06	1286,12
560,26	1249,26
560,45	1277,93
560,65	1247,21
560,84	1298,41
561,04	1316,84
561,24	1277,93
561,43	1318,89
561,63	1273,84
561,82	1206,25
562,02	1206,25
562,22	1263,60
562,41	1275,88
562,61	1249,26
562,80	1224,69
563,00	1255,40
563,19	1241,07
563,39	1259,50
563,59	1304,56
563,78	1241,07
563,98	1300,46
564,17	1341,42
564,37	1247,21
564,56	1300,46
564,76	1353,71
564,96	1277,93
565,15	1286,12
565,35	1343,47
565,54	1261,55
565,74	1320,94
565,93	1314,80
566,13	1306,60
566,32	1304,56
566,52	1384,43
566,71	1269,74
566,91	1325,04
567,11	1226,73
567,30	1273,84
567,50	1241,07
567,69	1273,84
567,89	1236,97
568,08	1312,75
568,28	1308,65
568,47	1271,79
568,67	1273,84
568,86	1339,37
569,06	1265,64
569,25	1200,11
569,45	1282,03
569,64	1236,97
569,84	1304,56
570,04	1271,79
570,23	1298,41
570,43	1288,17
570,62	1216,49
570,82	1298,41
571,01	1247,21
571,21	1331,18
571,40	1302,51
571,60	1366,00
571,79	1351,66
571,99	1308,65
572,18	1245,16
572,38	1277,93
572,57	1241,07
572,77	1263,60
572,96	1359,85
573,16	1300,46
573,35	1302,51
573,55	1306,60
573,74	1259,50
573,94	1304,56
574,13	1261,55
574,33	1212,40
574,52	1234,93
574,71	1322,99
574,91	1271,79
575,10	1212,40
575,30	1220,59
575,49	1277,93
575,69	1208,30
575,88	1279,98
576,08	1304,56
576,27	1308,65
576,47	1308,65
576,66	1298,41
576,86	1269,74
577,05	1232,88
577,25	1325,04
577,44	1300,46
577,64	1239,02
577,83	1318,89
578,02	1243,12
578,22	1277,93
578,41	1249,26
578,61	1263,60
578,80	1208,30
579,00	1271,79
579,19	1236,97
579,39	1277,93
579,58	1368,04
579,77	1314,80
579,97	1312,75
580,16	1275,88
580,36	1261,55
580,55	1288,17
580,75	1241,07
580,94	1300,46
581,13	1220,59
581,33	1282,03
581,52	1267,69
581,72	1259,50
581,91	1277,93
582,11	1212,40
582,30	1302,51
582,49	1265,64
582,69	1218,54
582,88	1273,84
583,08	1279,98
583,27	1259,50
583,47	1243,12
583,66	1241,07
583,85	1333,23
584,05	1261,55
584,24	1255,40
584,44	1286,12
584,63	1220,59
584,82	1269,74
585,02	1345,52
585,21	1257,45
585,41	1312,75
585,60	1249,26
585,79	1269,74
585,99	1366,00
586,18	1267,69
586,37	1212,40
586,57	1222,64
586,76	1316,84
586,96	1226,73
587,15	1232,88
587,34	1277,93
587,54	1253,36
587,73	1224,69
587,93	1306,60
588,12	1273,84
588,31	1261,55
588,51	1267,69
588,70	1314,80
588,89	1306,60
589,09	1304,56
589,28	1230,83
589,47	1216,49
589,67	1296,36
589,86	1296,36
590,06	1277,93
590,25	1255,40
590,44	1279,98
590,64	1236,97
590,83	1347,56
591,02	1247,21
591,22	1337,32
591,41	1329,13
591,60	1279,98
591,80	1284,08
591,99	1236,97
592,18	1273,84
592,38	1322,99
592,57	1300,46
592,76	1288,17
592,96	1282,03
593,15	1290,22
593,34	1339,37
593,54	1251,31
593,73	1361,90
593,92	1316,84
594,12	1216,49
594,31	1236,97
594,50	1257,45
594,70	1296,36
594,89	1218,54
595,08	1259,50
595,28	1294,32
595,47	1253,36
595,66	1239,02
595,86	1265,64
596,05	1210,35
596,24	1263,60
596,43	1275,88
596,63	1355,76
596,82	1275,88
597,01	1200,11
597,21	1255,40
597,40	1331,18
597,59	1183,73
597,79	1212,40
597,98	1269,74
598,17	1308,65
598,36	1282,03
598,56	1234,93
598,75	1265,64
598,94	1241,07
599,14	1220,59
599,33	1306,60
599,52	1290,22
599,71	1273,84
599,91	1241,07
600,10	1271,79
600,29	1230,83
600,48	1273,84
600,68	1257,45
600,87	1236,97
601,06	1359,85
601,26	1251,31
601,45	1267,69
601,64	1322,99
601,83	1286,12
602,03	1282,03
602,22	1210,35
602,41	1294,32
602,60	1329,13
602,80	1241,07
602,99	1239,02
603,18	1284,08
603,37	1261,55
603,57	1302,51
603,76	1284,08
603,95	1241,07
604,14	1308,65
604,34	1265,64
604,53	1224,69
604,72	1273,84
604,91	1204,21
605,10	1288,17
605,30	1304,56
605,49	1271,79
605,68	1263,60
605,87	1249,26
606,07	1241,07
606,26	1298,41
606,45	1279,98
606,64	1247,21
606,84	1241,07
607,03	1247,21
607,22	1343,47
607,41	1175,53
607,60	1200,11
607,80	1318,89
607,99	1239,02
608,18	1288,17
608,37	1300,46
608,56	1269,74
608,76	1308,65
608,95	1220,59
609,14	1257,45
609,33	1359,85
609,52	1288,17
609,72	1247,21
609,91	1294,32
610,10	1267,69
610,29	1359,85
610,48	1310,70
610,68	1253,36
610,87	1228,78
611,06	1265,64
611,25	1304,56
611,44	1345,52
611,63	1253,36
611,83	1349,61
612,02	1279,98
612,21	1318,89
612,40	1267,69
612,59	1277,93
612,79	1310,70
612,98	1249,26
613,17	1259,50
613,36	1179,63
613,55	1277,93
613,74	1228,78
613,93	1239,02
614,13	1341,42
614,32	1253,36
614,51	1265,64
614,70	1279,98
614,89	1329,13
615,08	1306,60
615,28	1329,13
615,47	1236,97
615,66	1296,36
615,85	1273,84
616,04	1273,84
616,23	1310,70
616,42	1183,73
616,62	1239,02
616,81	1236,97
617,00	1234,93
617,19	1210,35
617,38	1275,88
617,57	1304,56
617,76	1255,40
617,95	1236,97
618,15	1308,65
618,34	1286,12
618,53	1304,56
618,72	1267,69
618,91	1273,84
619,10	1210,35
619,29	1212,40
619,48	1294,32
619,68	1216,49
619,87	1279,98
620,06	1286,12
620,25	1259,50
620,44	1269,74
620,63	1339,37
620,82	1251,31
621,01	1279,98
621,20	1259,50
621,39	1198,06
621,59	1288,17
621,78	1296,36
621,97	1312,75
622,16	1239,02
622,35	1284,08
622,54	1224,69
622,73	1284,08
622,92	1271,79
623,11	1271,79
623,30	1198,06
623,49	1288,17
623,68	1263,60
623,88	1339,37
624,07	1255,40
624,26	1366,00
624,45	1353,71
624,64	1296,36
624,83	1288,17
625,02	1193,97
625,21	1218,54
625,40	1290,22
625,59	1286,12
625,78	1302,51
625,97	1398,76
626,16	1314,80
626,35	1318,89
626,54	1316,84
626,74	1310,70
626,93	1318,89
627,12	1222,64
627,31	1265,64
627,50	1333,23
627,69	1249,26
627,88	1320,94
628,07	1249,26
628,26	1335,28
628,45	1253,36
628,64	1329,13
628,83	1288,17
629,02	1216,49
629,21	1245,16
629,40	1232,88
629,59	1241,07
629,78	1306,60
629,97	1322,99
630,16	1273,84
630,35	1261,55
630,54	1312,75
630,73	1363,95
630,92	1337,32
631,11	1320,94
631,30	1282,03
631,49	1392,62
631,68	1368,04
631,87	1499,11
632,06	1746,92
632,25	1531,88
632,44	1593,32
632,63	1759,21
632,82	1941,47
633,01	2082,78
633,20	1955,81
633,39	1933,28
633,58	1970,15
633,77	1968,10
633,96	1978,34
634,15	1990,63
634,34	2052,06
634,53	2031,58
634,72	1949,67
634,91	1736,68
635,10	1640,42
635,29	1509,35
635,48	1527,78
635,67	1497,07
635,86	1443,82
636,05	1452,01
636,24	1382,38
636,43	1384,43
636,62	1347,56
636,81	1310,70
637,00	1314,80
637,19	1312,75
637,38	1347,56
637,57	1277,93
637,76	1310,70
637,95	1310,70
638,14	1288,17
638,33	1304,56
638,52	1249,26
638,71	1257,45
638,89	1239,02
639,08	1308,65
639,27	1294,32
639,46	1269,74
639,65	1284,08
639,84	1263,60
640,03	1300,46
640,22	1288,17
640,41	1222,64
640,60	1284,08
640,79	1275,88
640,98	1253,36
641,17	1230,83
641,36	1275,88
641,55	1284,08
641,74	1259,50
641,92	1314,80
642,11	1312,75
642,30	1298,41
642,49	1310,70
642,68	1282,03
642,87	1284,08
643,06	1288,17
643,25	1247,21
643,44	1257,45
643,63	1239,02
643,82	1265,64
644,00	1210,35
644,19	1347,56
644,38	1304,56
644,57	1284,08
644,76	1253,36
644,95	1218,54
645,14	1255,40
645,33	1288,17
645,52	1259,50
645,71	1241,07
645,89	1239,02
646,08	1263,60
646,27	1263,60
646,46	1322,99
646,65	1306,60
646,84	1282,03
647,03	1261,55
647,22	1343,47
647,40	1253,36
647,59	1284,08
647,78	1210,35
647,97	1282,03
648,16	1273,84
648,35	1241,07
648,54	1284,08
648,73	1306,60
648,91	1226,73
649,10	1277,93
649,29	1314,80
649,48	1208,30
649,67	1284,08
649,86	1212,40
650,05	1302,51
650,23	1232,88
650,42	1273,84
650,61	1236,97
650,80	1343,47
650,99	1234,93
651,18	1325,04
651,36	1322,99
651,55	1304,56
651,74	1239,02
651,93	1187,82
652,12	1247,21
652,31	1314,80
652,49	1216,49
652,68	1347,56
652,87	1284,08
653,06	1271,79
653,25	1306,60
653,44	1337,32
653,62	1249,26
653,81	1218,54
654,00	1224,69
654,19	1339,37
654,38	1286,12
654,56	1275,88
654,75	1279,98
654,94	1255,40
655,13	1288,17
655,32	1290,22
655,51	1333,23
655,69	1273,84
655,88	1267,69
656,07	1275,88
656,26	1275,88
656,45	1261,55
656,63	1277,93
656,82	1294,32
657,01	1271,79
657,20	1298,41
657,38	1302,51
657,57	1208,30
657,76	1271,79
657,95	1275,88
658,14	1228,78
658,32	1380,33
658,51	1253,36
658,70	1253,36
658,89	1263,60
659,08	1226,73
659,26	1286,12
659,45	1304,56
659,64	1345,52
659,83	1232,88
660,01	1327,08
660,20	1286,12
660,39	1249,26
660,58	1269,74
660,76	1232,88
660,95	1306,60
661,14	1279,98
661,33	1241,07
661,51	1255,40
661,70	1206,25
661,89	1306,60
662,08	1284,08
662,26	1271,79
662,45	1239,02
662,64	1298,41
662,83	1251,31
663,01	1251,31
663,20	1259,50
663,39	1286,12
663,58	1277,93
663,76	1271,79
663,95	1288,17
664,14	1255,40
664,32	1271,79
664,51	1208,30
664,70	1288,17
664,89	1320,94
665,07	1327,08
665,26	1191,92
665,45	1273,84
665,64	1208,30
665,82	1277,93
666,01	1257,45
666,20	1236,97
666,38	1271,79
666,57	1249,26
666,76	1234,93
666,95	1220,59
667,13	1222,64
667,32	1269,74
667,51	1271,79
667,69	1208,30
667,88	1286,12
668,07	1228,78
668,25	1310,70
668,44	1286,12
668,63	1261,55
668,81	1259,50
669,00	1333,23
669,19	1273,84
669,38	1191,92
669,56	1253,36
669,75	1232,88
669,94	1331,18
670,12	1279,98
670,31	1249,26
670,50	1183,73
670,68	1222,64
670,87	1230,83
671,06	1306,60
671,24	1331,18
671,43	1267,69
671,62	1279,98
671,80	1261,55
671,99	1200,11
672,18	1302,51
672,36	1347,56
672,55	1327,08
672,74	1271,79
672,92	1314,80
673,11	1361,90
673,29	1239,02
673,48	1320,94
673,67	1298,41
673,85	1314,80
674,04	1236,97
674,23	1325,04
674,41	1249,26
674,60	1236,97
674,79	1257,45
674,97	1265,64
675,16	1345,52
675,34	1234,93
675,53	1226,73
675,72	1263,60
675,90	1251,31
676,09	1249,26
676,28	1253,36
676,46	1314,80
676,65	1306,60
676,83	1255,40
677,02	1284,08
677,21	1294,32
677,39	1279,98
677,58	1310,70
677,77	1212,40
677,95	1255,40
678,14	1333,23
678,32	1247,21
678,51	1284,08
678,70	1331,18
678,88	1226,73
679,07	1302,51
679,25	1210,35
679,44	1228,78
679,63	1249,26
679,81	1247,21
680,00	1257,45
680,18	1269,74
680,37	1282,03
680,55	1298,41
680,74	1275,88
680,93	1208,30
681,11	1286,12
681,30	1288,17
681,48	1247,21
681,67	1312,75
681,85	1339,37
682,04	1308,65
682,23	1212,40
682,41	1306,60
682,60	1310,70
682,78	1263,60
682,97	1294,32
683,15	1265,64
683,34	1257,45
683,53	1220,59
683,71	1331,18
683,90	1325,04
684,08	1257,45
684,27	1304,56
684,45	1255,40
684,64	1273,84
684,82	1331,18
685,01	1318,89
685,19	1329,13
685,38	1320,94
685,57	1282,03
685,75	1314,80
685,94	1247,21
686,12	1243,12
686,31	1222,64
686,49	1349,61
686,68	1208,30
686,86	1282,03
687,05	1294,32
687,23	1347,56
687,42	1234,93
687,60	1288,17
687,79	1257,45
687,97	1290,22
688,16	1296,36
688,34	1265,64
688,53	1212,40
688,71	1292,27
688,90	1294,32
689,08	1298,41
689,27	1257,45
689,45	1277,93
689,64	1384,43
689,82	1267,69
690,01	1261,55
690,19	1267,69
690,38	1212,40
690,56	1302,51
690,75	1259,50
690,93	1245,16
691,12	1243,12
691,30	1241,07
691,49	1277,93
691,67	1214,45
691,86	1271,79
692,04	1304,56
692,23	1302,51
692,41	1292,27
692,60	1236,97
692,78	1329,13
692,97	1255,40
693,15	1306,60
693,34	1288,17
693,52	1312,75
693,71	1355,76
693,89	1337,32
694,08	1302,51
694,26	1265,64
694,44	1304,56
694,63	1279,98
694,81	1329,13
695,00	1253,36
695,18	1271,79
695,37	1200,11
695,55	1314,80
695,74	1331,18
695,92	1222,64
696,10	1298,41
696,29	1253,36
696,47	1255,40
696,66	1216,49
696,84	1284,08
697,03	1271,79
697,21	1249,26
697,40	1312,75
697,58	1234,93
697,76	1275,88
697,95	1232,88
698,13	1226,73
698,32	1265,64
698,50	1308,65
698,68	1265,64
698,87	1306,60
699,05	1253,36
699,24	1224,69
699,42	1294,32
699,61	1218,54
699,79	1249,26
699,97	1359,85
700,16	1255,40
700,34	1263,60
700,53	1263,60
700,71	1265,64
700,89	1273,84
701,08	1273,84
701,26	1290,22
701,45	1267,69
701,63	1271,79
701,81	1284,08
702,00	1234,93
702,18	1228,78
702,37	1277,93
702,55	1269,74
702,73	1247,21
702,92	1288,17
703,10	1228,78
703,28	1322,99
703,47	1206,25
703,65	1230,83
703,84	1239,02
704,02	1302,51
704,20	1267,69
704,39	1298,41
704,57	1259,50
704,75	1259,50
704,94	1239,02
705,12	1191,92
705,30	1230,83
705,49	1234,93
705,67	1255,40
705,86	1232,88
706,04	1296,36
706,22	1236,97
706,41	1230,83
706,59	1275,88
706,77	1302,51
706,96	1263,60
707,14	1236,97
707,32	1210,35
707,51	1273,84
707,69	1314,80
707,87	1269,74
708,06	1304,56
708,24	1257,45
708,42	1251,31
708,61	1290,22
708,79	1374,19
708,97	1308,65
709,16	1312,75
709,34	1331,18
709,52	1239,02
709,71	1279,98
709,89	1300,46
710,07	1312,75
710,26	1269,74
710,44	1251,31
710,62	1312,75
710,80	1349,61
710,99	1286,12
711,17	1257,45
711,35	1228,78
711,54	1327,08
711,72	1257,45
711,90	1251,31
712,09	1355,76
712,27	1261,55
712,45	1228,78
712,63	1347,56
712,82	1241,07
713,00	1236,97
713,18	1284,08
713,37	1298,41
713,55	1230,83
713,73	1290,22
713,91	1249,26
714,10	1243,12
714,28	1236,97
714,46	1316,84
714,65	1286,12
714,83	1320,94
715,01	1290,22
715,19	1304,56
715,38	1282,03
715,56	1359,85
715,74	1220,59
715,92	1302,51
716,11	1302,51
716,29	1347,56
716,47	1294,32
716,65	1271,79
716,84	1247,21
717,02	1288,17
717,20	1314,80
717,38	1261,55
717,57	1212,40
717,75	1263,60
717,93	1253,36
718,11	1370,09
718,30	1294,32
718,48	1314,80
718,66	1361,90
718,84	1232,88
719,03	1243,12
719,21	1345,52
719,39	1372,14
719,57	1284,08
719,75	1368,04
719,94	1292,27
720,12	1249,26
720,30	1277,93
720,48	1257,45
720,67	1378,28
720,85	1234,93
721,03	1337,32
721,21	1216,49
721,39	1273,84
721,58	1253,36
721,76	1257,45
721,94	1251,31
722,12	1286,12
722,30	1271,79
722,49	1277,93
722,67	1286,12
722,85	1245,16
723,03	1247,21
723,21	1325,04
723,40	1175,53
723,58	1279,98
723,76	1243,12
723,94	1335,28
724,12	1234,93
724,30	1273,84
724,49	1322,99
724,67	1298,41
724,85	1347,56
725,03	1312,75
725,21	1347,56
725,40	1236,97
725,58	1224,69
725,76	1335,28
725,94	1294,32
726,12	1325,04
726,30	1241,07
726,49	1271,79
726,67	1236,97
726,85	1259,50
727,03	1234,93
727,21	1275,88
727,39	1304,56
727,57	1249,26
727,76	1275,88
727,94	1300,46
728,12	1251,31
728,30	1265,64
728,48	1245,16
728,66	1361,90
728,84	1282,03
729,03	1288,17
729,21	1288,17
729,39	1226,73
729,57	1261,55
729,75	1251,31
729,93	1228,78
730,11	1249,26
730,30	1308,65
730,48	1308,65
730,66	1224,69
730,84	1267,69
731,02	1288,17
731,20	1279,98
731,38	1304,56
731,56	1210,35
731,74	1304,56
731,93	1202,16
732,11	1261,55
732,29	1208,30
732,47	1290,22
732,65	1261,55
732,83	1247,21
733,01	1288,17
733,19	1312,75
733,37	1302,51
733,56	1314,80
733,74	1325,04
733,92	1241,07
734,10	1265,64
734,28	1327,08
734,46	1294,32
734,64	1236,97
734,82	1341,42
735,00	1306,60
735,18	1210,35
735,36	1249,26
735,54	1273,84
735,73	1265,64
735,91	1239,02
736,09	1259,50
736,27	1239,02
736,45	1239,02
736,63	1329,13
736,81	1259,50
736,99	1304,56
737,17	1290,22
737,35	1288,17
737,53	1316,84
737,71	1357,80
737,89	1306,60
738,07	1325,04
738,25	1261,55
738,43	1214,45
738,61	1259,50
738,80	1263,60
738,98	1286,12
739,16	1271,79
739,34	1284,08
739,52	1232,88
739,70	1275,88
739,88	1259,50
740,06	1271,79
740,24	1273,84
740,42	1241,07
740,60	1245,16
740,78	1257,45
740,96	1284,08
741,14	1232,88
741,32	1236,97
741,50	1271,79
741,68	1241,07
741,86	1265,64
742,04	1320,94
742,22	1368,04
742,40	1257,45
742,58	1232,88
742,76	1218,54
742,94	1286,12
743,12	1263,60
743,30	1265,64
743,48	1232,88
743,66	1257,45
743,84	1232,88
744,02	1290,22
744,20	1290,22
744,38	1230,83
744,56	1245,16
744,74	1255,40
744,92	1200,11
745,10	1329,13
745,28	1312,75
745,46	1175,53
745,64	1243,12
745,82	1273,84
746,00	1351,66
746,18	1314,80
746,36	1277,93
746,54	1312,75
746,72	1298,41
746,90	1245,16
747,08	1249,26
747,26	1230,83
747,44	1226,73
747,62	1290,22
747,80	1314,80
747,98	1224,69
748,15	1306,60
748,33	1277,93
748,51	1282,03
748,69	1232,88
748,87	1288,17
749,05	1269,74
749,23	1304,56
749,41	1337,32
749,59	1304,56
749,77	1298,41
749,95	1271,79
750,13	1275,88
750,31	1294,32
750,49	1310,70
750,67	1275,88
750,85	1259,50
751,03	1236,97
751,20	1296,36
751,38	1267,69
751,56	1292,27
751,74	1277,93
751,92	1349,61
752,10	1294,32
752,28	1273,84
752,46	1290,22
752,64	1261,55
752,82	1347,56
753,00	1310,70
753,18	1206,25
753,35	1236,97
753,53	1298,41
753,71	1257,45
753,89	1222,64
754,07	1257,45
754,25	1275,88
754,43	1253,36
754,61	1294,32
754,79	1236,97
754,97	1216,49
755,14	1218,54
755,32	1239,02
755,50	1263,60
755,68	1282,03
755,86	1290,22
756,04	1255,40
756,22	1253,36
756,40	1288,17
756,57	1267,69
756,75	1351,66
756,93	1314,80
757,11	1249,26
757,29	1265,64
757,47	1294,32
757,65	1185,77
757,82	1331,18
758,00	1322,99
758,18	1247,21
758,36	1232,88
758,54	1269,74
758,72	1269,74
758,90	1290,22
759,07	1275,88
759,25	1177,58
759,43	1277,93
759,61	1277,93
759,79	1308,65
759,97	1265,64
760,15	1214,45
760,32	1284,08
760,50	1271,79
760,68	1212,40
760,86	1314,80
761,04	1322,99
761,22	1277,93
761,39	1279,98
761,57	1216,49
761,75	1210,35
761,93	1249,26
762,11	1271,79
762,28	1286,12
762,46	1288,17
762,64	1335,28
762,82	1322,99
763,00	1273,84
763,18	1267,69
763,35	1239,02
763,53	1239,02
763,71	1261,55
763,89	1271,79
764,07	1249,26
764,24	1339,37
764,42	1269,74
764,60	1286,12
764,78	1243,12
764,96	1241,07
765,13	1282,03
765,31	1290,22
765,49	1269,74
765,67	1267,69
765,84	1353,71
766,02	1257,45
766,20	1275,88
766,38	1251,31
766,56	1273,84
766,73	1298,41
766,91	1277,93
767,09	1267,69
767,27	1239,02
767,44	1345,52
767,62	1269,74
767,80	1277,93
767,98	1294,32
768,15	1210,35
768,33	1271,79
768,51	1253,36
768,69	1251,31
768,87	1277,93
769,04	1290,22
769,22	1263,60
769,40	1265,64
769,58	1269,74
769,75	1296,36
769,93	1232,88
770,11	1273,84
770,28	1241,07
770,46	1249,26
770,64	1284,08
770,82	1257,45
770,99	1273,84
771,17	1267,69
771,35	1189,87
771,53	1314,80
771,70	1187,82
771,88	1277,93
772,06	1271,79
772,23	1265,64
772,41	1275,88
772,59	1169,39
772,77	1275,88
772,94	1257,45
773,12	1249,26
773,30	1189,87
773,47	1296,36
773,65	1255,40
773,83	1294,32
774,01	1257,45
774,18	1226,73
774,36	1333,23
774,54	1329,13
774,71	1300,46
774,89	1263,60
775,07	1314,80
775,24	1257,45
775,42	1269,74
775,60	1216,49
775,78	1290,22
775,95	1228,78
776,13	1247,21
776,31	1277,93
776,48	1216,49
776,66	1306,60
776,84	1269,74
777,01	1286,12
777,19	1269,74
777,37	1230,83
777,54	1255,40
777,72	1304,56
777,90	1302,51
778,07	1226,73
778,25	1277,93
778,43	1259,50
778,60	1273,84
778,78	1241,07
778,96	1331,18
779,13	1222,64
779,31	1331,18
779,49	1279,98
779,66	1353,71
779,84	1251,31
780,01	1300,46
780,19	1298,41
780,37	1265,64
780,54	1298,41
780,72	1267,69
780,90	1302,51
781,07	1282,03
781,25	1331,18
781,43	1226,73
781,60	1210,35
781,78	1243,12
781,95	1255,40
782,13	1263,60
782,31	1198,06
782,48	1171,44
782,66	1245,16
782,83	1282,03
783,01	1294,32
783,19	1304,56
783,36	1253,36
783,54	1298,41
783,72	1288,17
783,89	1271,79
784,07	1310,70
784,24	1257,45
784,42	1284,08
784,60	1218,54
784,77	1251,31
784,95	1302,51
785,12	1298,41
785,30	1302,51
785,47	1341,42
785,65	1275,88
785,83	1220,59
786,00	1239,02
786,18	1292,27
786,35	1284,08
786,53	1292,27
786,71	1236,97
786,88	1236,97
787,06	1208,30
787,23	1329,13
787,41	1245,16
787,58	1302,51
787,76	1251,31
787,94	1296,36
788,11	1333,23
788,29	1279,98
788,46	1294,32
788,64	1316,84
788,81	1220,59
788,99	1304,56
789,16	1277,93
789,34	1329,13
789,52	1277,93
789,69	1296,36
789,87	1196,01
790,04	1239,02
790,22	1249,26
790,39	1322,99
790,57	1300,46
790,74	1273,84
790,92	1259,50
791,09	1263,60
791,27	1261,55
791,44	1171,44
791,62	1312,75
791,79	1239,02
791,97	1247,21
792,15	1286,12
792,32	1253,36
792,50	1265,64
792,67	1220,59
792,85	1175,53
793,02	1249,26
793,20	1249,26
793,37	1292,27
793,55	1310,70
793,72	1277,93
793,90	1308,65
794,07	1243,12
794,25	1275,88
794,42	1331,18
794,60	1265,64
794,77	1304,56
794,95	1245,16
795,12	1275,88
795,30	1300,46
795,47	1314,80
795,65	1273,84
795,82	1294,32
796,00	1216,49
796,17	1255,40
796,34	1273,84
796,52	1304,56
796,69	1257,45
796,87	1302,51
797,04	1267,69
797,22	1312,75
797,39	1249,26
797,57	1224,69
797,74	1329,13
797,92	1230,83
798,09	1243,12
798,27	1185,77
798,44	1224,69
798,62	1290,22
798,79	1251,31
798,96	1259,50
799,14	1314,80
799,31	1255,40
799,49	1243,12
799,66	1251,31
799,84	1239,02
800,01	1243,12
800,19	1208,30
800,36	1320,94
800,53	1257,45
800,71	1228,78
800,88	1232,88
801,06	1228,78
801,23	1320,94
801,41	1263,60
801,58	1202,16
801,75	1251,31
801,93	1236,97
802,10	1255,40
802,28	1271,79
802,45	1290,22
802,63	1292,27
802,80	1282,03
802,97	1263,60
803,15	1249,26
803,32	1220,59
803,50	1290,22
803,67	1241,07
803,84	1320,94
804,02	1322,99
804,19	1277,93
804,37	1308,65
804,54	1294,32
804,71	1337,32
804,89	1247,21
805,06	1310,70
805,24	1261,55
805,41	1196,01
805,58	1251,31
805,76	1296,36
805,93	1368,04
806,10	1269,74
806,28	1298,41
806,45	1230,83
806,63	1327,08
806,80	1296,36
806,97	1359,85
807,15	1290,22
807,32	1234,93
807,49	1351,66
807,67	1308,65
807,84	1318,89
808,01	1257,45
808,19	1230,83
808,36	1300,46
808,54	1263,60
808,71	1230,83
808,88	1230,83
809,06	1277,93
809,23	1310,70
809,40	1267,69
809,58	1325,04
809,75	1343,47
809,92	1351,66
810,10	1200,11
810,27	1333,23
810,44	1249,26
810,62	1259,50
810,79	1322,99
810,96	1306,60
811,14	1308,65
811,31	1222,64
811,48	1255,40
811,66	1292,27
811,83	1243,12
812,00	1222,64
812,18	1232,88
812,35	1269,74
812,52	1198,06
812,69	1314,80
812,87	1224,69
813,04	1259,50
813,21	1302,51
813,39	1355,76
813,56	1298,41
813,73	1265,64
813,91	1261,55
814,08	1236,97
814,25	1232,88
814,42	1241,07
814,60	1247,21
814,77	1269,74
814,94	1222,64
815,12	1241,07
815,29	1236,97
815,46	1282,03
815,63	1296,36
815,81	1239,02
815,98	1284,08
816,15	1306,60
816,33	1261,55
816,50	1298,41
816,67	1322,99
816,84	1286,12
817,02	1239,02
817,19	1275,88
817,36	1275,88
817,53	1245,16
817,71	1288,17
817,88	1216,49
818,05	1284,08
818,22	1247,21
818,40	1222,64
818,57	1320,94
818,74	1269,74
818,91	1234,93
819,09	1318,89
819,26	1284,08
819,43	1277,93
819,60	1255,40
819,78	1230,83
819,95	1294,32
820,12	1245,16
820,29	1271,79
820,47	1304,56
820,64	1341,42
820,81	1292,27
820,98	1273,84
821,15	1294,32
821,33	1327,08
821,50	1239,02
821,67	1232,88
821,84	1263,60
822,02	1306,60
822,19	1310,70
822,36	1279,98
822,53	1363,95
822,70	1282,03
822,88	1284,08
823,05	1218,54
823,22	1230,83
823,39	1212,40
823,56	1241,07
823,74	1249,26
823,91	1308,65
824,08	1222,64
824,25	1269,74
824,42	1239,02
824,60	1206,25
824,77	1251,31
824,94	1257,45
825,11	1216,49
825,28	1198,06
825,45	1216,49
825,63	1292,27
825,80	1296,36
825,97	1288,17
826,14	1200,11
826,31	1251,31
826,48	1189,87
826,66	1310,70
826,83	1353,71
827,00	1212,40
827,17	1245,16
827,34	1269,74
827,51	1263,60
827,69	1257,45
827,86	1300,46
828,03	1296,36
828,20	1263,60
828,37	1331,18
828,54	1257,45
828,71	1304,56
828,89	1251,31
829,06	1288,17
829,23	1275,88
829,40	1331,18
829,57	1234,93
829,74	1306,60
829,91	1234,93
830,09	1304,56
830,26	1363,95
830,43	1236,97
830,60	1267,69
830,77	1224,69
830,94	1200,11
831,11	1322,99
831,28	1267,69
831,46	1236,97
831,63	1372,14
831,80	1294,32
831,97	1290,22
832,14	1247,21
832,31	1259,50
832,48	1220,59
832,65	1265,64
832,82	1251,31
832,99	1288,17
833,17	1267,69
833,34	1284,08
833,51	1294,32
833,68	1302,51
833,85	1335,28
834,02	1261,55
834,19	1245,16
834,36	1284,08
834,53	1277,93
834,70	1230,83
834,87	1255,40
835,04	1265,64
835,22	1335,28
835,39	1298,41
835,56	1286,12
835,73	1144,81
835,90	1267,69
836,07	1216,49
836,24	1290,22
836,41	1298,41
836,58	1279,98
836,75	1265,64
836,92	1220,59
837,09	1314,80
837,26	1249,26
837,43	1224,69
837,60	1255,40
837,77	1210,35
837,94	1357,80
838,12	1314,80
838,29	1236,97
838,46	1224,69
838,63	1253,36
838,80	1331,18
838,97	1255,40
839,14	1247,21
839,31	1273,84
839,48	1253,36
839,65	1204,21
839,82	1290,22
839,99	1196,01
840,16	1263,60
840,33	1241,07
840,50	1261,55
840,67	1261,55
840,84	1261,55
841,01	1253,36
841,18	1353,71
841,35	1206,25
841,52	1247,21
841,69	1236,97
841,86	1288,17
842,03	1251,31
842,20	1247,21
842,37	1327,08
842,54	1253,36
842,71	1292,27
842,88	1296,36
843,05	1243,12
843,22	1300,46
843,39	1279,98
843,56	1284,08
843,73	1257,45
843,90	1265,64
844,07	1255,40
844,24	1343,47
844,41	1300,46
844,58	1288,17
844,75	1322,99
844,92	1312,75
845,09	1265,64
845,26	1329,13
845,43	1247,21
845,60	1267,69
845,77	1265,64
845,94	1312,75
846,10	1312,75
846,27	1339,37
846,44	1294,32
846,61	1292,27
846,78	1179,63
846,95	1359,85
847,12	1316,84
847,29	1355,76
847,46	1159,15
847,63	1306,60
847,80	1249,26
847,97	1333,23
848,14	1253,36
848,31	1275,88
848,48	1243,12
848,65	1310,70
848,82	1222,64
848,98	1335,28
849,15	1300,46
849,32	1200,11
849,49	1220,59
849,66	1271,79
849,83	1308,65
850,00	1255,40
850,17	1202,16
850,34	1275,88
850,51	1271,79
850,68	1271,79
850,85	1171,44
851,01	1275,88
851,18	1290,22
851,35	1288,17
851,52	1304,56
851,69	1245,16
851,86	1269,74
852,03	1310,70
852,20	1253,36
852,37	1249,26
852,53	1224,69
852,70	1251,31
852,87	1290,22
853,04	1314,80
853,21	1284,08
853,38	1243,12
853,55	1245,16
853,72	1247,21
853,89	1306,60
854,05	1255,40
854,22	1300,46
854,39	1241,07
854,56	1271,79
854,73	1275,88
854,90	1331,18
855,07	1251,31
855,23	1318,89
855,40	1269,74
855,57	1327,08
855,74	1308,65
855,91	1257,45
856,08	1279,98
856,25	1265,64
856,41	1257,45
856,58	1286,12
856,75	1249,26
856,92	1318,89
857,09	1279,98
857,26	1220,59
857,42	1202,16
857,59	1277,93
857,76	1279,98
857,93	1310,70
858,10	1290,22
858,27	1245,16
858,43	1296,36
858,60	1329,13
858,77	1376,24
858,94	1247,21
859,11	1298,41
859,27	1261,55
859,44	1282,03
859,61	1325,04
859,78	1339,37
859,95	1212,40
860,12	1273,84
860,28	1257,45
860,45	1249,26
860,62	1279,98
860,79	1306,60
860,95	1191,92
861,12	1255,40
861,29	1316,84
861,46	1198,06
861,63	1226,73
861,79	1363,95
861,96	1331,18
862,13	1288,17
862,30	1294,32
862,47	1261,55
862,63	1249,26
862,80	1271,79
862,97	1288,17
863,14	1286,12
863,30	1206,25
863,47	1265,64
863,64	1294,32
863,81	1273,84
863,97	1241,07
864,14	1279,98
864,31	1259,50
864,48	1308,65
864,65	1275,88
864,81	1355,76
864,98	1294,32
865,15	1239,02
865,32	1245,16
865,48	1306,60
865,65	1279,98
865,82	1277,93
865,98	1267,69
866,15	1269,74
866,32	1243,12
866,49	1300,46
866,65	1267,69
866,82	1222,64
866,99	1253,36
867,16	1234,93
867,32	1337,32
867,49	1300,46
867,66	1327,08
867,83	1204,21
867,99	1288,17
868,16	1378,28
868,33	1275,88
868,49	1265,64
868,66	1327,08
868,83	1284,08
868,99	1267,69
869,16	1218,54
869,33	1261,55
869,50	1312,75
869,66	1220,59
869,83	1171,44
870,00	1236,97
870,16	1288,17
870,33	1253,36
870,50	1243,12
870,66	1308,65
870,83	1271,79
871,00	1322,99
871,17	1269,74
871,33	1249,26
871,50	1212,40
871,67	1284,08
871,83	1257,45
872,00	1277,93
872,17	1294,32
872,33	1294,32
872,50	1255,40
872,67	1275,88
872,83	1241,07
873,00	1232,88
873,17	1247,21
873,33	1239,02
873,50	1314,80
873,67	1329,13
873,83	1222,64
874,00	1263,60
874,16	1337,32
874,33	1222,64
874,50	1261,55
874,66	1247,21
874,83	1290,22
875,00	1271,79
875,16	1294,32
875,33	1210,35
875,50	1325,04
875,66	1214,45
875,83	1251,31
875,99	1226,73
876,16	1296,36
876,33	1325,04
876,49	1234,93
876,66	1312,75
876,83	1343,47
876,99	1228,78
877,16	1339,37
877,32	1234,93
877,49	1173,49
877,66	1255,40
877,82	1310,70
877,99	1308,65
878,15	1282,03
878,32	1292,27
878,49	1318,89
878,65	1271,79
878,82	1249,26
878,98	1351,66
879,15	1290,22
879,32	1284,08
879,48	1361,90
879,65	1314,80
879,81	1284,08
879,98	1290,22
880,15	1341,42
880,31	1327,08
880,48	1345,52
880,64	1236,97
880,81	1304,56
880,97	1306,60
881,14	1286,12
881,31	1263,60
881,47	1198,06
881,64	1337,32
881,80	1335,28
881,97	1157,10
882,13	1308,65
882,30	1251,31
882,47	1318,89
882,63	1216,49
882,80	1255,40
882,96	1286,12
883,13	1284,08
883,29	1284,08
883,46	1325,04
883,62	1288,17
883,79	1320,94
883,95	1286,12
884,12	1239,02
884,29	1257,45
884,45	1304,56
884,62	1347,56
884,78	1249,26
884,95	1265,64
885,11	1265,64
885,28	1290,22
885,44	1310,70
885,61	1339,37
885,77	1228,78
885,94	1265,64
886,10	1228,78
886,27	1183,73
886,43	1216,49
886,60	1306,60
886,76	1286,12
886,93	1261,55
887,09	1259,50
887,26	1224,69
887,42	1304,56
887,59	1288,17
887,75	1275,88
887,92	1282,03
888,08	1304,56
888,25	1298,41
888,41	1292,27
888,58	1306,60
888,74	1232,88
888,91	1347,56
>>>>>End Processed Spectral Data<<<<<
