SpectraSuite Data File
++++++++++++++++++++++++++++++++++++
Date: Sun Apr 03 16:38:04 CEST 2016
User: root
Dark Spectrum Present: No
Reference Spectrum Present: No
Number of Sampled Component Spectra: 1
Spectrometers: USB4C02835
Integration Time (usec): 10000 (USB4C02835)
Spectra Averaged: 1 (USB4C02835)
Boxcar Smoothing: 0 (USB4C02835)
Correct for Electrical Dark: No (USB4C02835)
Strobe/Lamp Enabled: No (USB4C02835)
Correct for Detector Non-linearity: No (USB4C02835)
Correct for Stray Light: No (USB4C02835)
Number of Pixels in Processed Spectrum: 3648
>>>>>Begin Processed Spectral Data<<<<<
177,47	1214,45
177,69	1214,45
177,91	1214,45
178,13	1185,77
178,36	1202,16
178,58	1277,93
178,80	1265,64
179,02	1208,30
179,24	1200,11
179,46	1275,88
179,68	1306,60
179,90	1290,22
180,13	1234,93
180,35	1316,84
180,57	1296,36
180,79	1275,88
181,01	1255,40
181,23	1282,03
181,45	1275,88
181,67	1329,13
181,90	1189,87
182,12	1185,77
182,34	1282,03
182,56	1222,64
182,78	1327,08
183,00	1249,26
183,22	1273,84
183,44	1241,07
183,66	1230,83
183,89	1302,51
184,11	1216,49
184,33	1181,68
184,55	1292,27
184,77	1257,45
184,99	1310,70
185,21	1306,60
185,43	1253,36
185,65	1224,69
185,87	1282,03
186,10	1320,94
186,32	1282,03
186,54	1271,79
186,76	1277,93
186,98	1161,20
187,20	1292,27
187,42	1296,36
187,64	1239,02
187,86	1234,93
188,08	1249,26
188,30	1273,84
188,52	1316,84
188,75	1208,30
188,97	1298,41
189,19	1284,08
189,41	1308,65
189,63	1257,45
189,85	1222,64
190,07	1226,73
190,29	1298,41
190,51	1224,69
190,73	1282,03
190,95	1290,22
191,17	1271,79
191,39	1263,60
191,61	1288,17
191,84	1271,79
192,06	1239,02
192,28	1228,78
192,50	1259,50
192,72	1218,54
192,94	1265,64
193,16	1218,54
193,38	1259,50
193,60	1249,26
193,82	1214,45
194,04	1286,12
194,26	1255,40
194,48	1263,60
194,70	1310,70
194,92	1300,46
195,14	1282,03
195,36	1277,93
195,58	1253,36
195,80	1279,98
196,02	1259,50
196,24	1312,75
196,46	1243,12
196,69	1318,89
196,91	1234,93
197,13	1169,39
197,35	1263,60
197,57	1185,77
197,79	1302,51
198,01	1304,56
198,23	1284,08
198,45	1239,02
198,67	1230,83
198,89	1257,45
199,11	1282,03
199,33	1222,64
199,55	1290,22
199,77	1210,35
199,99	1357,80
200,21	1273,84
200,43	1271,79
200,65	1249,26
200,87	1286,12
201,09	1239,02
201,31	1251,31
201,53	1294,32
201,75	1253,36
201,97	1255,40
202,19	1337,32
202,41	1300,46
202,63	1318,89
202,85	1296,36
203,07	1265,64
203,29	1263,60
203,51	1331,18
203,73	1249,26
203,95	1257,45
204,17	1271,79
204,39	1255,40
204,61	1232,88
204,83	1277,93
205,05	1290,22
205,27	1249,26
205,49	1267,69
205,71	1241,07
205,93	1294,32
206,15	1298,41
206,37	1257,45
206,59	1261,55
206,81	1263,60
207,03	1269,74
207,25	1286,12
207,47	1290,22
207,69	1251,31
207,91	1273,84
208,13	1241,07
208,34	1304,56
208,56	1206,25
208,78	1292,27
209,00	1253,36
209,22	1279,98
209,44	1251,31
209,66	1296,36
209,88	1269,74
210,10	1228,78
210,32	1249,26
210,54	1267,69
210,76	1263,60
210,98	1288,17
211,20	1292,27
211,42	1269,74
211,64	1275,88
211,86	1322,99
212,08	1247,21
212,30	1325,04
212,52	1255,40
212,74	1275,88
212,96	1210,35
213,17	1273,84
213,39	1304,56
213,61	1304,56
213,83	1220,59
214,05	1259,50
214,27	1316,84
214,49	1263,60
214,71	1282,03
214,93	1224,69
215,15	1327,08
215,37	1269,74
215,59	1310,70
215,81	1273,84
216,03	1302,51
216,24	1232,88
216,46	1228,78
216,68	1253,36
216,90	1277,93
217,12	1193,97
217,34	1279,98
217,56	1251,31
217,78	1339,37
218,00	1314,80
218,22	1300,46
218,44	1236,97
218,66	1228,78
218,87	1302,51
219,09	1263,60
219,31	1312,75
219,53	1245,16
219,75	1304,56
219,97	1292,27
220,19	1261,55
220,41	1265,64
220,63	1269,74
220,85	1361,90
221,06	1230,83
221,28	1288,17
221,50	1251,31
221,72	1269,74
221,94	1224,69
222,16	1271,79
222,38	1288,17
222,60	1206,25
222,82	1202,16
223,03	1275,88
223,25	1271,79
223,47	1286,12
223,69	1294,32
223,91	1212,40
224,13	1228,78
224,35	1247,21
224,57	1273,84
224,78	1251,31
225,00	1263,60
225,22	1257,45
225,44	1273,84
225,66	1234,93
225,88	1249,26
226,10	1296,36
226,32	1294,32
226,53	1230,83
226,75	1263,60
226,97	1286,12
227,19	1318,89
227,41	1218,54
227,63	1298,41
227,85	1193,97
228,06	1325,04
228,28	1286,12
228,50	1337,32
228,72	1263,60
228,94	1255,40
229,16	1232,88
229,37	1198,06
229,59	1271,79
229,81	1202,16
230,03	1249,26
230,25	1261,55
230,47	1314,80
230,69	1282,03
230,90	1263,60
231,12	1294,32
231,34	1241,07
231,56	1232,88
231,78	1339,37
232,00	1304,56
232,21	1271,79
232,43	1267,69
232,65	1173,49
232,87	1253,36
233,09	1259,50
233,30	1306,60
233,52	1228,78
233,74	1259,50
233,96	1275,88
234,18	1232,88
234,40	1320,94
234,61	1290,22
234,83	1247,21
235,05	1269,74
235,27	1343,47
235,49	1251,31
235,70	1200,11
235,92	1318,89
236,14	1234,93
236,36	1204,21
236,58	1312,75
236,79	1284,08
237,01	1286,12
237,23	1249,26
237,45	1286,12
237,67	1273,84
237,88	1298,41
238,10	1216,49
238,32	1316,84
238,54	1220,59
238,76	1265,64
238,97	1259,50
239,19	1214,45
239,41	1261,55
239,63	1234,93
239,85	1292,27
240,06	1234,93
240,28	1263,60
240,50	1253,36
240,72	1331,18
240,93	1261,55
241,15	1298,41
241,37	1314,80
241,59	1269,74
241,81	1255,40
242,02	1273,84
242,24	1224,69
242,46	1249,26
242,68	1294,32
242,89	1257,45
243,11	1296,36
243,33	1320,94
243,55	1177,58
243,76	1306,60
243,98	1304,56
244,20	1292,27
244,42	1271,79
244,64	1318,89
244,85	1304,56
245,07	1251,31
245,29	1271,79
245,51	1183,73
245,72	1228,78
245,94	1286,12
246,16	1196,01
246,38	1306,60
246,59	1284,08
246,81	1257,45
247,03	1294,32
247,24	1212,40
247,46	1253,36
247,68	1259,50
247,90	1277,93
248,11	1245,16
248,33	1241,07
248,55	1273,84
248,77	1232,88
248,98	1255,40
249,20	1292,27
249,42	1257,45
249,64	1245,16
249,85	1271,79
250,07	1300,46
250,29	1304,56
250,50	1265,64
250,72	1245,16
250,94	1279,98
251,16	1296,36
251,37	1249,26
251,59	1271,79
251,81	1318,89
252,02	1304,56
252,24	1296,36
252,46	1312,75
252,68	1310,70
252,89	1253,36
253,11	1265,64
253,33	1345,52
253,54	1341,42
253,76	1359,85
253,98	1261,55
254,20	1320,94
254,41	1267,69
254,63	1277,93
254,85	1310,70
255,06	1288,17
255,28	1220,59
255,50	1261,55
255,71	1279,98
255,93	1286,12
256,15	1257,45
256,36	1271,79
256,58	1206,25
256,80	1273,84
257,02	1255,40
257,23	1249,26
257,45	1226,73
257,67	1284,08
257,88	1320,94
258,10	1228,78
258,32	1284,08
258,53	1228,78
258,75	1282,03
258,97	1304,56
259,18	1273,84
259,40	1298,41
259,62	1298,41
259,83	1275,88
260,05	1325,04
260,27	1314,80
260,48	1310,70
260,70	1224,69
260,92	1261,55
261,13	1314,80
261,35	1255,40
261,57	1243,12
261,78	1282,03
262,00	1286,12
262,22	1230,83
262,43	1265,64
262,65	1247,21
262,86	1267,69
263,08	1257,45
263,30	1271,79
263,51	1304,56
263,73	1257,45
263,95	1273,84
264,16	1214,45
264,38	1282,03
264,60	1284,08
264,81	1241,07
265,03	1298,41
265,25	1282,03
265,46	1284,08
265,68	1304,56
265,89	1279,98
266,11	1249,26
266,33	1208,30
266,54	1234,93
266,76	1282,03
266,98	1265,64
267,19	1257,45
267,41	1253,36
267,62	1308,65
267,84	1212,40
268,06	1267,69
268,27	1273,84
268,49	1329,13
268,70	1257,45
268,92	1345,52
269,14	1290,22
269,35	1288,17
269,57	1249,26
269,79	1290,22
270,00	1220,59
270,22	1189,87
270,43	1228,78
270,65	1302,51
270,87	1239,02
271,08	1202,16
271,30	1245,16
271,51	1294,32
271,73	1288,17
271,95	1239,02
272,16	1269,74
272,38	1294,32
272,59	1298,41
272,81	1253,36
273,02	1308,65
273,24	1306,60
273,46	1239,02
273,67	1239,02
273,89	1230,83
274,10	1226,73
274,32	1202,16
274,54	1245,16
274,75	1216,49
274,97	1253,36
275,18	1337,32
275,40	1243,12
275,61	1241,07
275,83	1284,08
276,05	1226,73
276,26	1261,55
276,48	1316,84
276,69	1265,64
276,91	1255,40
277,12	1257,45
277,34	1300,46
277,55	1261,55
277,77	1236,97
277,99	1312,75
278,20	1316,84
278,42	1247,21
278,63	1245,16
278,85	1347,56
279,06	1292,27
279,28	1216,49
279,49	1228,78
279,71	1261,55
279,93	1296,36
280,14	1236,97
280,36	1294,32
280,57	1218,54
280,79	1275,88
281,00	1257,45
281,22	1259,50
281,43	1251,31
281,65	1177,58
281,86	1279,98
282,08	1284,08
282,29	1257,45
282,51	1247,21
282,73	1333,23
282,94	1316,84
283,16	1300,46
283,37	1208,30
283,59	1245,16
283,80	1351,66
284,02	1259,50
284,23	1277,93
284,45	1218,54
284,66	1314,80
284,88	1277,93
285,09	1277,93
285,31	1249,26
285,52	1230,83
285,74	1177,58
285,95	1312,75
286,17	1269,74
286,38	1304,56
286,60	1296,36
286,81	1247,21
287,03	1259,50
287,24	1196,01
287,46	1282,03
287,67	1306,60
287,89	1241,07
288,10	1239,02
288,32	1265,64
288,53	1314,80
288,75	1220,59
288,96	1284,08
289,18	1318,89
289,39	1243,12
289,61	1251,31
289,82	1314,80
290,04	1277,93
290,25	1300,46
290,47	1314,80
290,68	1310,70
290,90	1159,15
291,11	1333,23
291,33	1189,87
291,54	1374,19
291,76	1296,36
291,97	1265,64
292,18	1327,08
292,40	1196,01
292,61	1226,73
292,83	1322,99
293,04	1282,03
293,26	1279,98
293,47	1345,52
293,69	1308,65
293,90	1275,88
294,12	1261,55
294,33	1279,98
294,55	1296,36
294,76	1277,93
294,97	1257,45
295,19	1226,73
295,40	1234,93
295,62	1253,36
295,83	1259,50
296,05	1261,55
296,26	1261,55
296,48	1236,97
296,69	1294,32
296,90	1286,12
297,12	1284,08
297,33	1263,60
297,55	1251,31
297,76	1296,36
297,98	1304,56
298,19	1251,31
298,41	1277,93
298,62	1290,22
298,83	1267,69
299,05	1304,56
299,26	1224,69
299,48	1320,94
299,69	1269,74
299,90	1279,98
300,12	1261,55
300,33	1226,73
300,55	1247,21
300,76	1245,16
300,98	1185,77
301,19	1253,36
301,40	1239,02
301,62	1216,49
301,83	1296,36
302,05	1249,26
302,26	1320,94
302,47	1224,69
302,69	1249,26
302,90	1282,03
303,12	1282,03
303,33	1290,22
303,54	1275,88
303,76	1212,40
303,97	1271,79
304,19	1232,88
304,40	1312,75
304,61	1284,08
304,83	1253,36
305,04	1261,55
305,26	1247,21
305,47	1279,98
305,68	1282,03
305,90	1271,79
306,11	1296,36
306,33	1308,65
306,54	1241,07
306,75	1308,65
306,97	1275,88
307,18	1265,64
307,39	1316,84
307,61	1345,52
307,82	1183,73
308,04	1275,88
308,25	1189,87
308,46	1208,30
308,68	1249,26
308,89	1273,84
309,10	1320,94
309,32	1165,29
309,53	1247,21
309,74	1265,64
309,96	1249,26
310,17	1259,50
310,39	1224,69
310,60	1345,52
310,81	1290,22
311,03	1241,07
311,24	1261,55
311,45	1245,16
311,67	1290,22
311,88	1263,60
312,09	1261,55
312,31	1232,88
312,52	1290,22
312,73	1314,80
312,95	1214,45
313,16	1275,88
313,37	1259,50
313,59	1255,40
313,80	1261,55
314,01	1245,16
314,23	1224,69
314,44	1212,40
314,65	1333,23
314,87	1187,82
315,08	1259,50
315,29	1247,21
315,51	1290,22
315,72	1257,45
315,93	1249,26
316,15	1234,93
316,36	1275,88
316,57	1271,79
316,79	1200,11
317,00	1245,16
317,21	1249,26
317,43	1284,08
317,64	1325,04
317,85	1294,32
318,07	1220,59
318,28	1277,93
318,49	1202,16
318,70	1228,78
318,92	1298,41
319,13	1298,41
319,34	1232,88
319,56	1273,84
319,77	1259,50
319,98	1277,93
320,20	1329,13
320,41	1220,59
320,62	1269,74
320,83	1282,03
321,05	1325,04
321,26	1196,01
321,47	1300,46
321,69	1267,69
321,90	1290,22
322,11	1279,98
322,32	1302,51
322,54	1273,84
322,75	1298,41
322,96	1279,98
323,18	1224,69
323,39	1273,84
323,60	1325,04
323,81	1286,12
324,03	1267,69
324,24	1312,75
324,45	1279,98
324,66	1331,18
324,88	1230,83
325,09	1263,60
325,30	1308,65
325,52	1312,75
325,73	1241,07
325,94	1277,93
326,15	1306,60
326,37	1245,16
326,58	1261,55
326,79	1279,98
327,00	1255,40
327,22	1310,70
327,43	1327,08
327,64	1331,18
327,85	1331,18
328,07	1282,03
328,28	1304,56
328,49	1234,93
328,70	1247,21
328,92	1318,89
329,13	1245,16
329,34	1304,56
329,55	1277,93
329,76	1267,69
329,98	1265,64
330,19	1257,45
330,40	1279,98
330,61	1269,74
330,83	1255,40
331,04	1302,51
331,25	1363,95
331,46	1265,64
331,68	1232,88
331,89	1312,75
332,10	1378,28
332,31	1337,32
332,52	1214,45
332,74	1265,64
332,95	1286,12
333,16	1245,16
333,37	1267,69
333,58	1277,93
333,80	1228,78
334,01	1189,87
334,22	1245,16
334,43	1265,64
334,64	1265,64
334,86	1265,64
335,07	1249,26
335,28	1247,21
335,49	1251,31
335,70	1257,45
335,92	1279,98
336,13	1312,75
336,34	1234,93
336,55	1255,40
336,76	1230,83
336,98	1288,17
337,19	1292,27
337,40	1253,36
337,61	1288,17
337,82	1247,21
338,04	1230,83
338,25	1253,36
338,46	1265,64
338,67	1249,26
338,88	1228,78
339,09	1310,70
339,31	1347,56
339,52	1257,45
339,73	1261,55
339,94	1312,75
340,15	1306,60
340,36	1259,50
340,58	1353,71
340,79	1232,88
341,00	1269,74
341,21	1251,31
341,42	1271,79
341,63	1255,40
341,85	1298,41
342,06	1245,16
342,27	1359,85
342,48	1236,97
342,69	1312,75
342,90	1226,73
343,12	1273,84
343,33	1302,51
343,54	1267,69
343,75	1279,98
343,96	1216,49
344,17	1232,88
344,38	1302,51
344,60	1206,25
344,81	1255,40
345,02	1249,26
345,23	1288,17
345,44	1302,51
345,65	1269,74
345,86	1222,64
346,07	1236,97
346,29	1306,60
346,50	1300,46
346,71	1239,02
346,92	1241,07
347,13	1255,40
347,34	1347,56
347,55	1284,08
347,76	1222,64
347,98	1208,30
348,19	1308,65
348,40	1314,80
348,61	1232,88
348,82	1236,97
349,03	1329,13
349,24	1267,69
349,45	1290,22
349,66	1282,03
349,88	1228,78
350,09	1267,69
350,30	1290,22
350,51	1204,21
350,72	1322,99
350,93	1230,83
351,14	1296,36
351,35	1314,80
351,56	1253,36
351,77	1239,02
351,99	1220,59
352,20	1282,03
352,41	1269,74
352,62	1263,60
352,83	1208,30
353,04	1214,45
353,25	1286,12
353,46	1253,36
353,67	1218,54
353,88	1177,58
354,09	1216,49
354,30	1273,84
354,52	1255,40
354,73	1304,56
354,94	1282,03
355,15	1245,16
355,36	1288,17
355,57	1251,31
355,78	1333,23
355,99	1210,35
356,20	1247,21
356,41	1263,60
356,62	1259,50
356,83	1298,41
357,04	1329,13
357,25	1236,97
357,46	1325,04
357,68	1282,03
357,89	1286,12
358,10	1247,21
358,31	1226,73
358,52	1273,84
358,73	1288,17
358,94	1298,41
359,15	1239,02
359,36	1273,84
359,57	1294,32
359,78	1210,35
359,99	1277,93
360,20	1296,36
360,41	1189,87
360,62	1282,03
360,83	1351,66
361,04	1282,03
361,25	1247,21
361,46	1263,60
361,67	1284,08
361,88	1314,80
362,09	1230,83
362,30	1279,98
362,51	1275,88
362,72	1273,84
362,93	1265,64
363,14	1265,64
363,35	1316,84
363,56	1284,08
363,78	1185,77
363,99	1261,55
364,20	1226,73
364,41	1331,18
364,62	1329,13
364,83	1312,75
365,04	1343,47
365,25	1251,31
365,46	1239,02
365,67	1288,17
365,88	1275,88
366,09	1239,02
366,30	1300,46
366,51	1304,56
366,72	1302,51
366,93	1294,32
367,14	1265,64
367,35	1302,51
367,56	1253,36
367,77	1204,21
367,98	1275,88
368,18	1253,36
368,39	1273,84
368,60	1282,03
368,81	1224,69
369,02	1290,22
369,23	1206,25
369,44	1245,16
369,65	1331,18
369,86	1347,56
370,07	1224,69
370,28	1284,08
370,49	1279,98
370,70	1273,84
370,91	1253,36
371,12	1282,03
371,33	1279,98
371,54	1236,97
371,75	1282,03
371,96	1263,60
372,17	1349,61
372,38	1239,02
372,59	1263,60
372,80	1337,32
373,01	1220,59
373,22	1275,88
373,43	1327,08
373,64	1302,51
373,85	1288,17
374,06	1269,74
374,26	1222,64
374,47	1249,26
374,68	1179,63
374,89	1263,60
375,10	1189,87
375,31	1259,50
375,52	1179,63
375,73	1243,12
375,94	1241,07
376,15	1269,74
376,36	1183,73
376,57	1300,46
376,78	1236,97
376,99	1316,84
377,20	1220,59
377,40	1208,30
377,61	1279,98
377,82	1296,36
378,03	1239,02
378,24	1288,17
378,45	1273,84
378,66	1284,08
378,87	1253,36
379,08	1298,41
379,29	1204,21
379,50	1253,36
379,71	1265,64
379,91	1288,17
380,12	1261,55
380,33	1261,55
380,54	1273,84
380,75	1247,21
380,96	1224,69
381,17	1300,46
381,38	1236,97
381,59	1236,97
381,80	1185,77
382,00	1320,94
382,21	1296,36
382,42	1275,88
382,63	1263,60
382,84	1302,51
383,05	1290,22
383,26	1318,89
383,47	1259,50
383,68	1320,94
383,88	1273,84
384,09	1200,11
384,30	1277,93
384,51	1298,41
384,72	1277,93
384,93	1294,32
385,14	1243,12
385,35	1298,41
385,55	1251,31
385,76	1232,88
385,97	1298,41
386,18	1288,17
386,39	1236,97
386,60	1302,51
386,81	1298,41
387,02	1302,51
387,22	1206,25
387,43	1288,17
387,64	1236,97
387,85	1298,41
388,06	1292,27
388,27	1279,98
388,48	1286,12
388,68	1245,16
388,89	1288,17
389,10	1284,08
389,31	1251,31
389,52	1259,50
389,73	1269,74
389,93	1267,69
390,14	1245,16
390,35	1335,28
390,56	1341,42
390,77	1214,45
390,98	1267,69
391,18	1271,79
391,39	1353,71
391,60	1292,27
391,81	1298,41
392,02	1343,47
392,23	1277,93
392,43	1253,36
392,64	1259,50
392,85	1232,88
393,06	1189,87
393,27	1267,69
393,47	1312,75
393,68	1247,21
393,89	1228,78
394,10	1245,16
394,31	1290,22
394,52	1214,45
394,72	1243,12
394,93	1325,04
395,14	1288,17
395,35	1257,45
395,56	1300,46
395,76	1232,88
395,97	1286,12
396,18	1187,82
396,39	1220,59
396,60	1273,84
396,80	1267,69
397,01	1255,40
397,22	1257,45
397,43	1253,36
397,64	1316,84
397,84	1282,03
398,05	1204,21
398,26	1267,69
398,47	1241,07
398,67	1271,79
398,88	1228,78
399,09	1236,97
399,30	1308,65
399,51	1257,45
399,71	1257,45
399,92	1327,08
400,13	1284,08
400,34	1302,51
400,54	1275,88
400,75	1282,03
400,96	1224,69
401,17	1308,65
401,37	1279,98
401,58	1320,94
401,79	1222,64
402,00	1286,12
402,21	1277,93
402,41	1239,02
402,62	1302,51
402,83	1308,65
403,04	1251,31
403,24	1243,12
403,45	1202,16
403,66	1284,08
403,87	1251,31
404,07	1288,17
404,28	1265,64
404,49	1206,25
404,70	1339,37
404,90	1265,64
405,11	1327,08
405,32	1267,69
405,52	1306,60
405,73	1279,98
405,94	1247,21
406,15	1292,27
406,35	1310,70
406,56	1327,08
406,77	1232,88
406,98	1253,36
407,18	1308,65
407,39	1286,12
407,60	1273,84
407,80	1275,88
408,01	1165,29
408,22	1298,41
408,43	1294,32
408,63	1253,36
408,84	1241,07
409,05	1255,40
409,25	1210,35
409,46	1232,88
409,67	1296,36
409,88	1331,18
410,08	1277,93
410,29	1267,69
410,50	1290,22
410,70	1267,69
410,91	1216,49
411,12	1249,26
411,32	1267,69
411,53	1224,69
411,74	1306,60
411,95	1304,56
412,15	1236,97
412,36	1253,36
412,57	1306,60
412,77	1355,76
412,98	1236,97
413,19	1247,21
413,39	1288,17
413,60	1222,64
413,81	1300,46
414,01	1290,22
414,22	1304,56
414,43	1245,16
414,63	1220,59
414,84	1198,06
415,05	1284,08
415,25	1292,27
415,46	1232,88
415,67	1265,64
415,87	1271,79
416,08	1277,93
416,29	1249,26
416,49	1298,41
416,70	1282,03
416,91	1275,88
417,11	1243,12
417,32	1304,56
417,53	1224,69
417,73	1259,50
417,94	1308,65
418,15	1273,84
418,35	1271,79
418,56	1224,69
418,77	1298,41
418,97	1269,74
419,18	1247,21
419,38	1284,08
419,59	1345,52
419,80	1218,54
420,00	1267,69
420,21	1249,26
420,42	1249,26
420,62	1239,02
420,83	1189,87
421,04	1267,69
421,24	1263,60
421,45	1290,22
421,65	1257,45
421,86	1279,98
422,07	1296,36
422,27	1224,69
422,48	1265,64
422,69	1251,31
422,89	1318,89
423,10	1267,69
423,30	1241,07
423,51	1269,74
423,72	1241,07
423,92	1312,75
424,13	1318,89
424,33	1222,64
424,54	1257,45
424,75	1255,40
424,95	1335,28
425,16	1245,16
425,36	1230,83
425,57	1273,84
425,78	1273,84
425,98	1222,64
426,19	1236,97
426,39	1284,08
426,60	1253,36
426,81	1316,84
427,01	1251,31
427,22	1185,77
427,42	1273,84
427,63	1236,97
427,83	1300,46
428,04	1243,12
428,25	1255,40
428,45	1300,46
428,66	1337,32
428,86	1298,41
429,07	1310,70
429,28	1230,83
429,48	1314,80
429,69	1302,51
429,89	1202,16
430,10	1226,73
430,30	1282,03
430,51	1245,16
430,71	1275,88
430,92	1245,16
431,13	1255,40
431,33	1269,74
431,54	1288,17
431,74	1234,93
431,95	1245,16
432,15	1314,80
432,36	1304,56
432,56	1327,08
432,77	1265,64
432,98	1290,22
433,18	1247,21
433,39	1259,50
433,59	1271,79
433,80	1282,03
434,00	1290,22
434,21	1271,79
434,41	1251,31
434,62	1366,00
434,82	1271,79
435,03	1263,60
435,23	1286,12
435,44	1312,75
435,64	1269,74
435,85	1232,88
436,06	1306,60
436,26	1318,89
436,47	1247,21
436,67	1249,26
436,88	1271,79
437,08	1269,74
437,29	1273,84
437,49	1271,79
437,70	1253,36
437,90	1290,22
438,11	1216,49
438,31	1273,84
438,52	1239,02
438,72	1232,88
438,93	1261,55
439,13	1232,88
439,34	1292,27
439,54	1271,79
439,75	1335,28
439,95	1277,93
440,16	1253,36
440,36	1298,41
440,57	1243,12
440,77	1265,64
440,98	1302,51
441,18	1316,84
441,39	1282,03
441,59	1212,40
441,80	1343,47
442,00	1234,93
442,21	1243,12
442,41	1306,60
442,62	1245,16
442,82	1243,12
443,02	1288,17
443,23	1253,36
443,43	1202,16
443,64	1234,93
443,84	1253,36
444,05	1277,93
444,25	1277,93
444,46	1267,69
444,66	1306,60
444,87	1204,21
445,07	1273,84
445,28	1220,59
445,48	1275,88
445,69	1220,59
445,89	1282,03
446,09	1357,80
446,30	1224,69
446,50	1257,45
446,71	1224,69
446,91	1282,03
447,12	1302,51
447,32	1241,07
447,53	1243,12
447,73	1267,69
447,93	1259,50
448,14	1279,98
448,34	1249,26
448,55	1300,46
448,75	1265,64
448,96	1308,65
449,16	1222,64
449,36	1304,56
449,57	1257,45
449,77	1290,22
449,98	1249,26
450,18	1290,22
450,39	1310,70
450,59	1325,04
450,79	1261,55
451,00	1273,84
451,20	1302,51
451,41	1224,69
451,61	1255,40
451,81	1236,97
452,02	1279,98
452,22	1302,51
452,43	1267,69
452,63	1249,26
452,84	1320,94
453,04	1288,17
453,24	1216,49
453,45	1292,27
453,65	1284,08
453,86	1265,64
454,06	1288,17
454,26	1261,55
454,47	1230,83
454,67	1245,16
454,87	1294,32
455,08	1282,03
455,28	1193,97
455,49	1230,83
455,69	1249,26
455,89	1282,03
456,10	1234,93
456,30	1261,55
456,51	1282,03
456,71	1265,64
456,91	1304,56
457,12	1269,74
457,32	1298,41
457,52	1298,41
457,73	1267,69
457,93	1325,04
458,14	1245,16
458,34	1279,98
458,54	1325,04
458,75	1341,42
458,95	1255,40
459,15	1308,65
459,36	1232,88
459,56	1249,26
459,76	1275,88
459,97	1183,73
460,17	1263,60
460,37	1290,22
460,58	1282,03
460,78	1269,74
460,99	1232,88
461,19	1327,08
461,39	1257,45
461,60	1230,83
461,80	1314,80
462,00	1259,50
462,21	1243,12
462,41	1224,69
462,61	1236,97
462,82	1353,71
463,02	1275,88
463,22	1310,70
463,43	1300,46
463,63	1273,84
463,83	1241,07
464,04	1241,07
464,24	1308,65
464,44	1255,40
464,64	1349,61
464,85	1271,79
465,05	1255,40
465,25	1331,18
465,46	1245,16
465,66	1241,07
465,86	1265,64
466,07	1318,89
466,27	1251,31
466,47	1261,55
466,68	1249,26
466,88	1239,02
467,08	1249,26
467,29	1263,60
467,49	1290,22
467,69	1222,64
467,89	1245,16
468,10	1273,84
468,30	1298,41
468,50	1304,56
468,71	1282,03
468,91	1241,07
469,11	1198,06
469,31	1249,26
469,52	1185,77
469,72	1325,04
469,92	1241,07
470,13	1312,75
470,33	1300,46
470,53	1374,19
470,73	1374,19
470,94	1273,84
471,14	1253,36
471,34	1288,17
471,54	1318,89
471,75	1271,79
471,95	1214,45
472,15	1245,16
472,36	1206,25
472,56	1230,83
472,76	1284,08
472,96	1296,36
473,17	1288,17
473,37	1284,08
473,57	1277,93
473,77	1263,60
473,98	1277,93
474,18	1239,02
474,38	1224,69
474,58	1314,80
474,79	1273,84
474,99	1239,02
475,19	1251,31
475,39	1245,16
475,60	1298,41
475,80	1265,64
476,00	1271,79
476,20	1255,40
476,41	1302,51
476,61	1282,03
476,81	1286,12
477,01	1267,69
477,21	1290,22
477,42	1339,37
477,62	1245,16
477,82	1255,40
478,02	1265,64
478,23	1306,60
478,43	1267,69
478,63	1228,78
478,83	1271,79
479,03	1198,06
479,24	1265,64
479,44	1294,32
479,64	1230,83
479,84	1275,88
480,04	1357,80
480,25	1294,32
480,45	1218,54
480,65	1298,41
480,85	1243,12
481,06	1343,47
481,26	1257,45
481,46	1269,74
481,66	1241,07
481,86	1286,12
482,06	1267,69
482,27	1277,93
482,47	1208,30
482,67	1206,25
482,87	1253,36
483,07	1271,79
483,28	1329,13
483,48	1306,60
483,68	1247,21
483,88	1304,56
484,08	1189,87
484,29	1183,73
484,49	1290,22
484,69	1296,36
484,89	1267,69
485,09	1282,03
485,29	1273,84
485,50	1263,60
485,70	1210,35
485,90	1279,98
486,10	1296,36
486,30	1310,70
486,50	1275,88
486,71	1325,04
486,91	1224,69
487,11	1273,84
487,31	1236,97
487,51	1228,78
487,71	1290,22
487,91	1320,94
488,12	1275,88
488,32	1296,36
488,52	1212,40
488,72	1206,25
488,92	1249,26
489,12	1220,59
489,32	1300,46
489,53	1306,60
489,73	1236,97
489,93	1251,31
490,13	1224,69
490,33	1267,69
490,53	1247,21
490,73	1292,27
490,94	1257,45
491,14	1261,55
491,34	1341,42
491,54	1273,84
491,74	1255,40
491,94	1232,88
492,14	1353,71
492,34	1296,36
492,54	1208,30
492,75	1304,56
492,95	1239,02
493,15	1263,60
493,35	1241,07
493,55	1263,60
493,75	1247,21
493,95	1322,99
494,15	1232,88
494,35	1304,56
494,56	1212,40
494,76	1310,70
494,96	1306,60
495,16	1257,45
495,36	1298,41
495,56	1271,79
495,76	1255,40
495,96	1220,59
496,16	1226,73
496,36	1271,79
496,56	1253,36
496,77	1316,84
496,97	1288,17
497,17	1347,56
497,37	1294,32
497,57	1251,31
497,77	1232,88
497,97	1247,21
498,17	1273,84
498,37	1265,64
498,57	1277,93
498,77	1335,28
498,97	1318,89
499,17	1279,98
499,38	1267,69
499,58	1325,04
499,78	1269,74
499,98	1236,97
500,18	1236,97
500,38	1304,56
500,58	1245,16
500,78	1241,07
500,98	1282,03
501,18	1306,60
501,38	1302,51
501,58	1372,14
501,78	1259,50
501,98	1234,93
502,18	1243,12
502,38	1316,84
502,58	1322,99
502,78	1257,45
502,98	1263,60
503,18	1191,92
503,38	1290,22
503,59	1312,75
503,79	1304,56
503,99	1286,12
504,19	1294,32
504,39	1265,64
504,59	1218,54
504,79	1279,98
504,99	1284,08
505,19	1318,89
505,39	1255,40
505,59	1308,65
505,79	1245,16
505,99	1298,41
506,19	1282,03
506,39	1239,02
506,59	1275,88
506,79	1228,78
506,99	1294,32
507,19	1286,12
507,39	1265,64
507,59	1333,23
507,79	1314,80
507,99	1320,94
508,19	1249,26
508,39	1259,50
508,59	1224,69
508,79	1308,65
508,99	1300,46
509,19	1304,56
509,39	1198,06
509,59	1282,03
509,79	1232,88
509,99	1279,98
510,19	1236,97
510,39	1333,23
510,59	1249,26
510,79	1306,60
510,99	1257,45
511,19	1310,70
511,39	1243,12
511,59	1288,17
511,79	1259,50
511,99	1310,70
512,19	1314,80
512,38	1288,17
512,58	1253,36
512,78	1239,02
512,98	1284,08
513,18	1286,12
513,38	1327,08
513,58	1316,84
513,78	1220,59
513,98	1298,41
514,18	1355,76
514,38	1216,49
514,58	1208,30
514,78	1284,08
514,98	1273,84
515,18	1251,31
515,38	1255,40
515,58	1288,17
515,78	1288,17
515,98	1345,52
516,18	1290,22
516,38	1320,94
516,57	1206,25
516,77	1273,84
516,97	1279,98
517,17	1189,87
517,37	1302,51
517,57	1275,88
517,77	1298,41
517,97	1181,68
518,17	1222,64
518,37	1331,18
518,57	1294,32
518,77	1200,11
518,97	1275,88
519,16	1271,79
519,36	1261,55
519,56	1265,64
519,76	1261,55
519,96	1226,73
520,16	1247,21
520,36	1232,88
520,56	1234,93
520,76	1247,21
520,96	1216,49
521,16	1325,04
521,35	1306,60
521,55	1339,37
521,75	1249,26
521,95	1290,22
522,15	1351,66
522,35	1269,74
522,55	1265,64
522,75	1275,88
522,95	1267,69
523,14	1241,07
523,34	1265,64
523,54	1249,26
523,74	1327,08
523,94	1329,13
524,14	1318,89
524,34	1310,70
524,54	1249,26
524,73	1214,45
524,93	1224,69
525,13	1243,12
525,33	1251,31
525,53	1255,40
525,73	1271,79
525,93	1218,54
526,13	1228,78
526,32	1257,45
526,52	1286,12
526,72	1277,93
526,92	1257,45
527,12	1310,70
527,32	1265,64
527,52	1298,41
527,71	1228,78
527,91	1318,89
528,11	1241,07
528,31	1261,55
528,51	1322,99
528,71	1236,97
528,90	1265,64
529,10	1320,94
529,30	1298,41
529,50	1251,31
529,70	1271,79
529,90	1245,16
530,09	1265,64
530,29	1261,55
530,49	1253,36
530,69	1312,75
530,89	1277,93
531,09	1275,88
531,28	1263,60
531,48	1292,27
531,68	1286,12
531,88	1269,74
532,08	1208,30
532,28	1239,02
532,47	1253,36
532,67	1263,60
532,87	1275,88
533,07	1282,03
533,27	1306,60
533,46	1189,87
533,66	1284,08
533,86	1255,40
534,06	1185,77
534,26	1304,56
534,45	1261,55
534,65	1255,40
534,85	1202,16
535,05	1263,60
535,25	1335,28
535,44	1204,21
535,64	1294,32
535,84	1294,32
536,04	1273,84
536,24	1288,17
536,43	1290,22
536,63	1253,36
536,83	1304,56
537,03	1253,36
537,22	1247,21
537,42	1306,60
537,62	1284,08
537,82	1275,88
538,02	1320,94
538,21	1245,16
538,41	1236,97
538,61	1322,99
538,81	1259,50
539,00	1294,32
539,20	1318,89
539,40	1245,16
539,60	1308,65
539,79	1302,51
539,99	1257,45
540,19	1239,02
540,39	1310,70
540,58	1310,70
540,78	1241,07
540,98	1247,21
541,18	1228,78
541,37	1243,12
541,57	1249,26
541,77	1263,60
541,97	1306,60
542,16	1329,13
542,36	1253,36
542,56	1232,88
542,76	1230,83
542,95	1327,08
543,15	1275,88
543,35	1269,74
543,54	1273,84
543,74	1339,37
543,94	1312,75
544,14	1302,51
544,33	1249,26
544,53	1304,56
544,73	1189,87
544,93	1265,64
545,12	1234,93
545,32	1265,64
545,52	1273,84
545,71	1286,12
545,91	1320,94
546,11	1275,88
546,30	1257,45
546,50	1208,30
546,70	1234,93
546,90	1259,50
547,09	1249,26
547,29	1224,69
547,49	1273,84
547,68	1241,07
547,88	1206,25
548,08	1353,71
548,27	1257,45
548,47	1277,93
548,67	1314,80
548,87	1257,45
549,06	1255,40
549,26	1320,94
549,46	1277,93
549,65	1218,54
549,85	1263,60
550,05	1261,55
550,24	1265,64
550,44	1275,88
550,64	1263,60
550,83	1322,99
551,03	1265,64
551,23	1292,27
551,42	1239,02
551,62	1269,74
551,82	1261,55
552,01	1263,60
552,21	1298,41
552,41	1288,17
552,60	1294,32
552,80	1208,30
553,00	1269,74
553,19	1234,93
553,39	1345,52
553,59	1251,31
553,78	1261,55
553,98	1298,41
554,17	1214,45
554,37	1325,04
554,57	1288,17
554,76	1298,41
554,96	1249,26
555,16	1216,49
555,35	1267,69
555,55	1239,02
555,75	1296,36
555,94	1288,17
556,14	1245,16
556,33	1228,78
556,53	1267,69
556,73	1322,99
556,92	1265,64
557,12	1304,56
557,32	1255,40
557,51	1296,36
557,71	1206,25
557,90	1325,04
558,10	1239,02
558,30	1306,60
558,49	1378,28
558,69	1294,32
558,88	1282,03
559,08	1236,97
559,28	1316,84
559,47	1273,84
559,67	1322,99
559,86	1263,60
560,06	1320,94
560,26	1290,22
560,45	1279,98
560,65	1306,60
560,84	1241,07
561,04	1302,51
561,24	1228,78
561,43	1257,45
561,63	1241,07
561,82	1306,60
562,02	1275,88
562,22	1304,56
562,41	1361,90
562,61	1312,75
562,80	1243,12
563,00	1259,50
563,19	1290,22
563,39	1255,40
563,59	1263,60
563,78	1304,56
563,98	1255,40
564,17	1191,92
564,37	1208,30
564,56	1234,93
564,76	1329,13
564,96	1296,36
565,15	1282,03
565,35	1279,98
565,54	1261,55
565,74	1277,93
565,93	1257,45
566,13	1298,41
566,32	1288,17
566,52	1271,79
566,71	1298,41
566,91	1316,84
567,11	1275,88
567,30	1288,17
567,50	1236,97
567,69	1288,17
567,89	1286,12
568,08	1294,32
568,28	1155,05
568,47	1247,21
568,67	1318,89
568,86	1298,41
569,06	1232,88
569,25	1239,02
569,45	1380,33
569,64	1230,83
569,84	1230,83
570,04	1300,46
570,23	1226,73
570,43	1269,74
570,62	1312,75
570,82	1312,75
571,01	1257,45
571,21	1202,16
571,40	1189,87
571,60	1230,83
571,79	1290,22
571,99	1290,22
572,18	1269,74
572,38	1228,78
572,57	1232,88
572,77	1318,89
572,96	1255,40
573,16	1202,16
573,35	1279,98
573,55	1355,76
573,74	1247,21
573,94	1234,93
574,13	1279,98
574,33	1228,78
574,52	1277,93
574,71	1288,17
574,91	1271,79
575,10	1271,79
575,30	1271,79
575,49	1239,02
575,69	1249,26
575,88	1333,23
576,08	1322,99
576,27	1271,79
576,47	1224,69
576,66	1288,17
576,86	1261,55
577,05	1314,80
577,25	1257,45
577,44	1318,89
577,64	1239,02
577,83	1255,40
578,02	1282,03
578,22	1296,36
578,41	1234,93
578,61	1290,22
578,80	1269,74
579,00	1273,84
579,19	1306,60
579,39	1247,21
579,58	1243,12
579,77	1243,12
579,97	1222,64
580,16	1267,69
580,36	1257,45
580,55	1236,97
580,75	1222,64
580,94	1275,88
581,13	1290,22
581,33	1249,26
581,52	1204,21
581,72	1202,16
581,91	1230,83
582,11	1234,93
582,30	1290,22
582,49	1249,26
582,69	1265,64
582,88	1212,40
583,08	1247,21
583,27	1261,55
583,47	1400,81
583,66	1214,45
583,85	1230,83
584,05	1292,27
584,24	1296,36
584,44	1243,12
584,63	1245,16
584,82	1290,22
585,02	1279,98
585,21	1286,12
585,41	1251,31
585,60	1261,55
585,79	1261,55
585,99	1290,22
586,18	1185,77
586,37	1282,03
586,57	1349,61
586,76	1191,92
586,96	1298,41
587,15	1304,56
587,34	1325,04
587,54	1255,40
587,73	1269,74
587,93	1269,74
588,12	1277,93
588,31	1259,50
588,51	1343,47
588,70	1322,99
588,89	1216,49
589,09	1263,60
589,28	1232,88
589,47	1288,17
589,67	1341,42
589,86	1288,17
590,06	1249,26
590,25	1288,17
590,44	1241,07
590,64	1331,18
590,83	1232,88
591,02	1241,07
591,22	1296,36
591,41	1304,56
591,60	1284,08
591,80	1232,88
591,99	1288,17
592,18	1273,84
592,38	1316,84
592,57	1269,74
592,76	1251,31
592,96	1290,22
593,15	1269,74
593,34	1279,98
593,54	1294,32
593,73	1230,83
593,92	1286,12
594,12	1357,80
594,31	1146,86
594,50	1282,03
594,70	1273,84
594,89	1259,50
595,08	1259,50
595,28	1261,55
595,47	1257,45
595,66	1259,50
595,86	1275,88
596,05	1333,23
596,24	1263,60
596,43	1271,79
596,63	1271,79
596,82	1249,26
597,01	1249,26
597,21	1245,16
597,40	1308,65
597,59	1347,56
597,79	1239,02
597,98	1345,52
598,17	1316,84
598,36	1292,27
598,56	1247,21
598,75	1396,71
598,94	1306,60
599,14	1245,16
599,33	1269,74
599,52	1279,98
599,71	1282,03
599,91	1298,41
600,10	1222,64
600,29	1292,27
600,48	1271,79
600,68	1249,26
600,87	1273,84
601,06	1296,36
601,26	1277,93
601,45	1304,56
601,64	1241,07
601,83	1300,46
602,03	1159,15
602,22	1247,21
602,41	1288,17
602,60	1234,93
602,80	1277,93
602,99	1263,60
603,18	1322,99
603,37	1255,40
603,57	1304,56
603,76	1269,74
603,95	1228,78
604,14	1273,84
604,34	1257,45
604,53	1230,83
604,72	1286,12
604,91	1249,26
605,10	1261,55
605,30	1241,07
605,49	1312,75
605,68	1327,08
605,87	1269,74
606,07	1329,13
606,26	1294,32
606,45	1288,17
606,64	1220,59
606,84	1247,21
607,03	1263,60
607,22	1284,08
607,41	1220,59
607,60	1263,60
607,80	1249,26
607,99	1239,02
608,18	1288,17
608,37	1259,50
608,56	1279,98
608,76	1277,93
608,95	1269,74
609,14	1249,26
609,33	1337,32
609,52	1279,98
609,72	1318,89
609,91	1267,69
610,10	1277,93
610,29	1269,74
610,48	1314,80
610,68	1273,84
610,87	1290,22
611,06	1349,61
611,25	1327,08
611,44	1239,02
611,63	1224,69
611,83	1267,69
612,02	1294,32
612,21	1370,09
612,40	1224,69
612,59	1359,85
612,79	1286,12
612,98	1228,78
613,17	1288,17
613,36	1234,93
613,55	1286,12
613,74	1298,41
613,93	1255,40
614,13	1253,36
614,32	1234,93
614,51	1290,22
614,70	1292,27
614,89	1366,00
615,08	1335,28
615,28	1359,85
615,47	1247,21
615,66	1275,88
615,85	1249,26
616,04	1282,03
616,23	1243,12
616,42	1232,88
616,62	1208,30
616,81	1273,84
617,00	1247,21
617,19	1331,18
617,38	1339,37
617,57	1259,50
617,76	1226,73
617,95	1251,31
618,15	1312,75
618,34	1263,60
618,53	1226,73
618,72	1267,69
618,91	1259,50
619,10	1249,26
619,29	1329,13
619,48	1325,04
619,68	1249,26
619,87	1267,69
620,06	1302,51
620,25	1269,74
620,44	1325,04
620,63	1222,64
620,82	1296,36
621,01	1314,80
621,20	1294,32
621,39	1241,07
621,59	1263,60
621,78	1316,84
621,97	1318,89
622,16	1261,55
622,35	1300,46
622,54	1245,16
622,73	1337,32
622,92	1232,88
623,11	1273,84
623,30	1251,31
623,49	1257,45
623,68	1304,56
623,88	1310,70
624,07	1306,60
624,26	1353,71
624,45	1288,17
624,64	1247,21
624,83	1302,51
625,02	1234,93
625,21	1331,18
625,40	1247,21
625,59	1331,18
625,78	1245,16
625,97	1259,50
626,16	1366,00
626,35	1339,37
626,54	1325,04
626,74	1288,17
626,93	1222,64
627,12	1325,04
627,31	1288,17
627,50	1296,36
627,69	1331,18
627,88	1335,28
628,07	1204,21
628,26	1259,50
628,45	1230,83
628,64	1265,64
628,83	1224,69
629,02	1329,13
629,21	1279,98
629,40	1259,50
629,59	1257,45
629,78	1241,07
629,97	1241,07
630,16	1331,18
630,35	1296,36
630,54	1288,17
630,73	1269,74
630,92	1335,28
631,11	1277,93
631,30	1353,71
631,49	1406,95
631,68	1621,99
631,87	2007,01
632,06	2662,36
632,25	3090,38
632,44	4548,54
632,63	7192,47
632,82	12445,51
633,01	13446,96
633,20	7726,99
633,39	5001,14
633,58	3069,91
633,77	2125,79
633,96	1847,27
634,15	1832,93
634,34	1570,79
634,53	1595,37
634,72	1519,59
634,91	1474,54
635,10	1452,01
635,29	1335,28
635,48	1445,87
635,67	1476,59
635,86	1388,52
636,05	1388,52
636,24	1437,67
636,43	1347,56
636,62	1341,42
636,81	1306,60
637,00	1329,13
637,19	1345,52
637,38	1413,10
637,57	1316,84
637,76	1249,26
637,95	1398,76
638,14	1349,61
638,33	1402,86
638,52	1204,21
638,71	1314,80
638,89	1290,22
639,08	1269,74
639,27	1224,69
639,46	1298,41
639,65	1288,17
639,84	1302,51
640,03	1284,08
640,22	1243,12
640,41	1298,41
640,60	1196,01
640,79	1181,68
640,98	1308,65
641,17	1318,89
641,36	1329,13
641,55	1292,27
641,74	1208,30
641,92	1277,93
642,11	1275,88
642,30	1263,60
642,49	1245,16
642,68	1300,46
642,87	1329,13
643,06	1290,22
643,25	1292,27
643,44	1265,64
643,63	1325,04
643,82	1251,31
644,00	1241,07
644,19	1284,08
644,38	1267,69
644,57	1279,98
644,76	1257,45
644,95	1273,84
645,14	1341,42
645,33	1339,37
645,52	1277,93
645,71	1275,88
645,89	1269,74
646,08	1388,52
646,27	1312,75
646,46	1294,32
646,65	1316,84
646,84	1253,36
647,03	1261,55
647,22	1312,75
647,40	1288,17
647,59	1261,55
647,78	1267,69
647,97	1298,41
648,16	1236,97
648,35	1282,03
648,54	1220,59
648,73	1335,28
648,91	1239,02
649,10	1255,40
649,29	1269,74
649,48	1296,36
649,67	1292,27
649,86	1277,93
650,05	1189,87
650,23	1253,36
650,42	1277,93
650,61	1222,64
650,80	1339,37
650,99	1279,98
651,18	1218,54
651,36	1302,51
651,55	1282,03
651,74	1255,40
651,93	1325,04
652,12	1294,32
652,31	1304,56
652,49	1232,88
652,68	1314,80
652,87	1312,75
653,06	1329,13
653,25	1271,79
653,44	1265,64
653,62	1198,06
653,81	1253,36
654,00	1249,26
654,19	1251,31
654,38	1310,70
654,56	1261,55
654,75	1298,41
654,94	1310,70
655,13	1374,19
655,32	1228,78
655,51	1282,03
655,69	1312,75
655,88	1257,45
656,07	1267,69
656,26	1267,69
656,45	1331,18
656,63	1230,83
656,82	1296,36
657,01	1304,56
657,20	1279,98
657,38	1273,84
657,57	1247,21
657,76	1257,45
657,95	1249,26
658,14	1329,13
658,32	1257,45
658,51	1277,93
658,70	1255,40
658,89	1300,46
659,08	1257,45
659,26	1290,22
659,45	1191,92
659,64	1294,32
659,83	1318,89
660,01	1298,41
660,20	1277,93
660,39	1298,41
660,58	1290,22
660,76	1247,21
660,95	1318,89
661,14	1294,32
661,33	1214,45
661,51	1310,70
661,70	1282,03
661,89	1224,69
662,08	1306,60
662,26	1279,98
662,45	1271,79
662,64	1294,32
662,83	1282,03
663,01	1259,50
663,20	1251,31
663,39	1259,50
663,58	1300,46
663,76	1234,93
663,95	1304,56
664,14	1333,23
664,32	1286,12
664,51	1271,79
664,70	1259,50
664,89	1304,56
665,07	1218,54
665,26	1191,92
665,45	1196,01
665,64	1216,49
665,82	1318,89
666,01	1275,88
666,20	1316,84
666,38	1228,78
666,57	1220,59
666,76	1310,70
666,95	1304,56
667,13	1224,69
667,32	1296,36
667,51	1306,60
667,69	1296,36
667,88	1296,36
668,07	1241,07
668,25	1142,77
668,44	1241,07
668,63	1304,56
668,81	1257,45
669,00	1267,69
669,19	1261,55
669,38	1306,60
669,56	1224,69
669,75	1216,49
669,94	1296,36
670,12	1253,36
670,31	1366,00
670,50	1239,02
670,68	1273,84
670,87	1255,40
671,06	1187,82
671,24	1329,13
671,43	1269,74
671,62	1226,73
671,80	1249,26
671,99	1290,22
672,18	1228,78
672,36	1333,23
672,55	1265,64
672,74	1243,12
672,92	1279,98
673,11	1279,98
673,29	1314,80
673,48	1257,45
673,67	1257,45
673,85	1310,70
674,04	1312,75
674,23	1257,45
674,41	1271,79
674,60	1302,51
674,79	1216,49
674,97	1333,23
675,16	1267,69
675,34	1292,27
675,53	1314,80
675,72	1292,27
675,90	1200,11
676,09	1261,55
676,28	1318,89
676,46	1226,73
676,65	1265,64
676,83	1273,84
677,02	1298,41
677,21	1234,93
677,39	1181,68
677,58	1279,98
677,77	1343,47
677,95	1331,18
678,14	1241,07
678,32	1335,28
678,51	1263,60
678,70	1214,45
678,88	1288,17
679,07	1267,69
679,25	1259,50
679,44	1284,08
679,63	1257,45
679,81	1224,69
680,00	1279,98
680,18	1214,45
680,37	1347,56
680,55	1306,60
680,74	1325,04
680,93	1230,83
681,11	1210,35
681,30	1257,45
681,48	1241,07
681,67	1243,12
681,85	1282,03
682,04	1224,69
682,23	1286,12
682,41	1304,56
682,60	1255,40
682,78	1243,12
682,97	1241,07
683,15	1271,79
683,34	1257,45
683,53	1277,93
683,71	1236,97
683,90	1257,45
684,08	1216,49
684,27	1196,01
684,45	1290,22
684,64	1236,97
684,82	1187,82
685,01	1298,41
685,19	1302,51
685,38	1279,98
685,57	1230,83
685,75	1273,84
685,94	1224,69
686,12	1275,88
686,31	1245,16
686,49	1245,16
686,68	1333,23
686,86	1224,69
687,05	1306,60
687,23	1345,52
687,42	1314,80
687,60	1282,03
687,79	1327,08
687,97	1243,12
688,16	1196,01
688,34	1261,55
688,53	1255,40
688,71	1239,02
688,90	1236,97
689,08	1320,94
689,27	1261,55
689,45	1265,64
689,64	1239,02
689,82	1247,21
690,01	1300,46
690,19	1222,64
690,38	1286,12
690,56	1247,21
690,75	1294,32
690,93	1318,89
691,12	1257,45
691,30	1327,08
691,49	1296,36
691,67	1196,01
691,86	1322,99
692,04	1261,55
692,23	1292,27
692,41	1208,30
692,60	1232,88
692,78	1222,64
692,97	1204,21
693,15	1337,32
693,34	1210,35
693,52	1298,41
693,71	1232,88
693,89	1314,80
694,08	1212,40
694,26	1333,23
694,44	1312,75
694,63	1290,22
694,81	1239,02
695,00	1292,27
695,18	1259,50
695,37	1374,19
695,55	1312,75
695,74	1277,93
695,92	1220,59
696,10	1167,34
696,29	1306,60
696,47	1269,74
696,66	1314,80
696,84	1228,78
697,03	1277,93
697,21	1228,78
697,40	1353,71
697,58	1290,22
697,76	1198,06
697,95	1308,65
698,13	1298,41
698,32	1198,06
698,50	1286,12
698,68	1337,32
698,87	1318,89
699,05	1286,12
699,24	1253,36
699,42	1284,08
699,61	1306,60
699,79	1241,07
699,97	1329,13
700,16	1251,31
700,34	1269,74
700,53	1222,64
700,71	1337,32
700,89	1306,60
701,08	1253,36
701,26	1232,88
701,45	1284,08
701,63	1247,21
701,81	1171,44
702,00	1251,31
702,18	1239,02
702,37	1294,32
702,55	1325,04
702,73	1224,69
702,92	1290,22
703,10	1302,51
703,28	1261,55
703,47	1288,17
703,65	1257,45
703,84	1286,12
704,02	1267,69
704,20	1257,45
704,39	1269,74
704,57	1263,60
704,75	1312,75
704,94	1249,26
705,12	1253,36
705,30	1286,12
705,49	1253,36
705,67	1241,07
705,86	1267,69
706,04	1282,03
706,22	1316,84
706,41	1308,65
706,59	1271,79
706,77	1200,11
706,96	1251,31
707,14	1241,07
707,32	1318,89
707,51	1271,79
707,69	1251,31
707,87	1234,93
708,06	1214,45
708,24	1273,84
708,42	1300,46
708,61	1249,26
708,79	1259,50
708,97	1232,88
709,16	1257,45
709,34	1257,45
709,52	1265,64
709,71	1302,51
709,89	1306,60
710,07	1290,22
710,26	1234,93
710,44	1288,17
710,62	1314,80
710,80	1263,60
710,99	1347,56
711,17	1277,93
711,35	1216,49
711,54	1318,89
711,72	1296,36
711,90	1290,22
712,09	1271,79
712,27	1265,64
712,45	1306,60
712,63	1218,54
712,82	1247,21
713,00	1300,46
713,18	1214,45
713,37	1261,55
713,55	1255,40
713,73	1306,60
713,91	1273,84
714,10	1277,93
714,28	1239,02
714,46	1294,32
714,65	1251,31
714,83	1327,08
715,01	1284,08
715,19	1267,69
715,38	1259,50
715,56	1257,45
715,74	1251,31
715,92	1298,41
716,11	1282,03
716,29	1282,03
716,47	1284,08
716,65	1239,02
716,84	1222,64
717,02	1275,88
717,20	1239,02
717,38	1282,03
717,57	1343,47
717,75	1304,56
717,93	1241,07
718,11	1345,52
718,30	1228,78
718,48	1202,16
718,66	1318,89
718,84	1347,56
719,03	1271,79
719,21	1204,21
719,39	1284,08
719,57	1294,32
719,75	1314,80
719,94	1341,42
720,12	1261,55
720,30	1333,23
720,48	1339,37
720,67	1273,84
720,85	1304,56
721,03	1247,21
721,21	1279,98
721,39	1253,36
721,58	1308,65
721,76	1247,21
721,94	1228,78
722,12	1277,93
722,30	1198,06
722,49	1286,12
722,67	1261,55
722,85	1288,17
723,03	1269,74
723,21	1247,21
723,40	1243,12
723,58	1331,18
723,76	1282,03
723,94	1241,07
724,12	1284,08
724,30	1288,17
724,49	1263,60
724,67	1282,03
724,85	1308,65
725,03	1253,36
725,21	1277,93
725,40	1241,07
725,58	1263,60
725,76	1361,90
725,94	1284,08
726,12	1257,45
726,30	1292,27
726,49	1255,40
726,67	1241,07
726,85	1370,09
727,03	1251,31
727,21	1290,22
727,39	1255,40
727,57	1208,30
727,76	1216,49
727,94	1275,88
728,12	1245,16
728,30	1282,03
728,48	1288,17
728,66	1261,55
728,84	1216,49
729,03	1331,18
729,21	1322,99
729,39	1296,36
729,57	1224,69
729,75	1284,08
729,93	1310,70
730,11	1306,60
730,30	1263,60
730,48	1232,88
730,66	1273,84
730,84	1239,02
731,02	1300,46
731,20	1339,37
731,38	1234,93
731,56	1304,56
731,74	1302,51
731,93	1259,50
732,11	1230,83
732,29	1193,97
732,47	1312,75
732,65	1290,22
732,83	1191,92
733,01	1249,26
733,19	1351,66
733,37	1277,93
733,56	1304,56
733,74	1306,60
733,92	1302,51
734,10	1335,28
734,28	1236,97
734,46	1249,26
734,64	1312,75
734,82	1243,12
735,00	1257,45
735,18	1284,08
735,36	1269,74
735,54	1257,45
735,73	1267,69
735,91	1318,89
736,09	1263,60
736,27	1263,60
736,45	1288,17
736,63	1269,74
736,81	1284,08
736,99	1310,70
737,17	1243,12
737,35	1296,36
737,53	1314,80
737,71	1241,07
737,89	1298,41
738,07	1269,74
738,25	1236,97
738,43	1257,45
738,61	1271,79
738,80	1275,88
738,98	1300,46
739,16	1265,64
739,34	1304,56
739,52	1249,26
739,70	1224,69
739,88	1273,84
740,06	1224,69
740,24	1247,21
740,42	1337,32
740,60	1247,21
740,78	1232,88
740,96	1273,84
741,14	1279,98
741,32	1224,69
741,50	1216,49
741,68	1239,02
741,86	1286,12
742,04	1239,02
742,22	1234,93
742,40	1232,88
742,58	1277,93
742,76	1288,17
742,94	1298,41
743,12	1290,22
743,30	1288,17
743,48	1337,32
743,66	1277,93
743,84	1255,40
744,02	1286,12
744,20	1241,07
744,38	1267,69
744,56	1300,46
744,74	1269,74
744,92	1239,02
745,10	1310,70
745,28	1290,22
745,46	1357,80
745,64	1261,55
745,82	1282,03
746,00	1290,22
746,18	1206,25
746,36	1286,12
746,54	1245,16
746,72	1316,84
746,90	1322,99
747,08	1298,41
747,26	1275,88
747,44	1277,93
747,62	1312,75
747,80	1304,56
747,98	1298,41
748,15	1249,26
748,33	1312,75
748,51	1239,02
748,69	1181,68
748,87	1259,50
749,05	1267,69
749,23	1265,64
749,41	1208,30
749,59	1263,60
749,77	1230,83
749,95	1277,93
750,13	1298,41
750,31	1230,83
750,49	1282,03
750,67	1296,36
750,85	1302,51
751,03	1216,49
751,20	1296,36
751,38	1282,03
751,56	1232,88
751,74	1226,73
751,92	1257,45
752,10	1312,75
752,28	1241,07
752,46	1271,79
752,64	1298,41
752,82	1290,22
753,00	1241,07
753,18	1306,60
753,35	1261,55
753,53	1230,83
753,71	1316,84
753,89	1255,40
754,07	1290,22
754,25	1294,32
754,43	1253,36
754,61	1259,50
754,79	1245,16
754,97	1228,78
755,14	1333,23
755,32	1216,49
755,50	1222,64
755,68	1292,27
755,86	1222,64
756,04	1220,59
756,22	1222,64
756,40	1355,76
756,57	1322,99
756,75	1241,07
756,93	1292,27
757,11	1316,84
757,29	1347,56
757,47	1286,12
757,65	1249,26
757,82	1318,89
758,00	1312,75
758,18	1300,46
758,36	1232,88
758,54	1327,08
758,72	1259,50
758,90	1228,78
759,07	1236,97
759,25	1271,79
759,43	1279,98
759,61	1363,95
759,79	1314,80
759,97	1286,12
760,15	1212,40
760,32	1232,88
760,50	1267,69
760,68	1228,78
760,86	1269,74
761,04	1304,56
761,22	1275,88
761,39	1261,55
761,57	1271,79
761,75	1222,64
761,93	1263,60
762,11	1228,78
762,28	1247,21
762,46	1181,68
762,64	1257,45
762,82	1249,26
763,00	1257,45
763,18	1220,59
763,35	1306,60
763,53	1308,65
763,71	1310,70
763,89	1275,88
764,07	1255,40
764,24	1327,08
764,42	1282,03
764,60	1255,40
764,78	1206,25
764,96	1214,45
765,13	1314,80
765,31	1284,08
765,49	1230,83
765,67	1263,60
765,84	1214,45
766,02	1261,55
766,20	1306,60
766,38	1255,40
766,56	1290,22
766,73	1277,93
766,91	1267,69
767,09	1335,28
767,27	1306,60
767,44	1273,84
767,62	1294,32
767,80	1290,22
767,98	1286,12
768,15	1214,45
768,33	1232,88
768,51	1279,98
768,69	1239,02
768,87	1292,27
769,04	1298,41
769,22	1298,41
769,40	1288,17
769,58	1255,40
769,75	1245,16
769,93	1265,64
770,11	1286,12
770,28	1288,17
770,46	1292,27
770,64	1298,41
770,82	1267,69
770,99	1271,79
771,17	1329,13
771,35	1247,21
771,53	1214,45
771,70	1284,08
771,88	1230,83
772,06	1275,88
772,23	1261,55
772,41	1232,88
772,59	1318,89
772,77	1275,88
772,94	1224,69
773,12	1300,46
773,30	1261,55
773,47	1370,09
773,65	1284,08
773,83	1265,64
774,01	1226,73
774,18	1339,37
774,36	1224,69
774,54	1333,23
774,71	1275,88
774,89	1271,79
775,07	1296,36
775,24	1265,64
775,42	1351,66
775,60	1183,73
775,78	1243,12
775,95	1304,56
776,13	1208,30
776,31	1232,88
776,48	1222,64
776,66	1214,45
776,84	1249,26
777,01	1275,88
777,19	1296,36
777,37	1259,50
777,54	1226,73
777,72	1320,94
777,90	1331,18
778,07	1331,18
778,25	1216,49
778,43	1253,36
778,60	1204,21
778,78	1269,74
778,96	1404,91
779,13	1273,84
779,31	1267,69
779,49	1212,40
779,66	1228,78
779,84	1216,49
780,01	1232,88
780,19	1273,84
780,37	1247,21
780,54	1206,25
780,72	1263,60
780,90	1247,21
781,07	1269,74
781,25	1288,17
781,43	1302,51
781,60	1267,69
781,78	1341,42
781,95	1220,59
782,13	1331,18
782,31	1265,64
782,48	1232,88
782,66	1230,83
782,83	1290,22
783,01	1261,55
783,19	1255,40
783,36	1200,11
783,54	1206,25
783,72	1249,26
783,89	1239,02
784,07	1284,08
784,24	1259,50
784,42	1308,65
784,60	1179,63
784,77	1296,36
784,95	1236,97
785,12	1239,02
785,30	1230,83
785,47	1314,80
785,65	1247,21
785,83	1224,69
786,00	1253,36
786,18	1259,50
786,35	1259,50
786,53	1189,87
786,71	1208,30
786,88	1310,70
787,06	1277,93
787,23	1220,59
787,41	1263,60
787,58	1290,22
787,76	1282,03
787,94	1288,17
788,11	1279,98
788,29	1294,32
788,46	1239,02
788,64	1251,31
788,81	1275,88
788,99	1271,79
789,16	1312,75
789,34	1290,22
789,52	1322,99
789,69	1306,60
789,87	1243,12
790,04	1284,08
790,22	1255,40
790,39	1236,97
790,57	1296,36
790,74	1224,69
790,92	1269,74
791,09	1261,55
791,27	1259,50
791,44	1253,36
791,62	1247,21
791,79	1314,80
791,97	1331,18
792,15	1376,24
792,32	1249,26
792,50	1296,36
792,67	1187,82
792,85	1298,41
793,02	1318,89
793,20	1257,45
793,37	1288,17
793,55	1243,12
793,72	1277,93
793,90	1265,64
794,07	1216,49
794,25	1241,07
794,42	1290,22
794,60	1302,51
794,77	1286,12
794,95	1245,16
795,12	1232,88
795,30	1304,56
795,47	1253,36
795,65	1271,79
795,82	1241,07
796,00	1241,07
796,17	1286,12
796,34	1284,08
796,52	1249,26
796,69	1271,79
796,87	1224,69
797,04	1249,26
797,22	1294,32
797,39	1232,88
797,57	1267,69
797,74	1306,60
797,92	1236,97
798,09	1265,64
798,27	1284,08
798,44	1286,12
798,62	1308,65
798,79	1312,75
798,96	1273,84
799,14	1279,98
799,31	1282,03
799,49	1304,56
799,66	1257,45
799,84	1224,69
800,01	1267,69
800,19	1269,74
800,36	1210,35
800,53	1255,40
800,71	1210,35
800,88	1294,32
801,06	1196,01
801,23	1341,42
801,41	1261,55
801,58	1204,21
801,75	1296,36
801,93	1277,93
802,10	1292,27
802,28	1265,64
802,45	1236,97
802,63	1290,22
802,80	1216,49
802,97	1261,55
803,15	1294,32
803,32	1312,75
803,50	1261,55
803,67	1318,89
803,84	1210,35
804,02	1220,59
804,19	1239,02
804,37	1265,64
804,54	1261,55
804,71	1243,12
804,89	1253,36
805,06	1228,78
805,24	1171,44
805,41	1255,40
805,58	1298,41
805,76	1286,12
805,93	1296,36
806,10	1335,28
806,28	1322,99
806,45	1259,50
806,63	1288,17
806,80	1263,60
806,97	1255,40
807,15	1282,03
807,32	1265,64
807,49	1249,26
807,67	1251,31
807,84	1302,51
808,01	1226,73
808,19	1347,56
808,36	1277,93
808,54	1263,60
808,71	1288,17
808,88	1290,22
809,06	1275,88
809,23	1294,32
809,40	1271,79
809,58	1277,93
809,75	1263,60
809,92	1277,93
810,10	1292,27
810,27	1245,16
810,44	1284,08
810,62	1245,16
810,79	1288,17
810,96	1265,64
811,14	1222,64
811,31	1253,36
811,48	1185,77
811,66	1304,56
811,83	1253,36
812,00	1224,69
812,18	1257,45
812,35	1247,21
812,52	1282,03
812,69	1284,08
812,87	1196,01
813,04	1279,98
813,21	1261,55
813,39	1263,60
813,56	1347,56
813,73	1265,64
813,91	1200,11
814,08	1292,27
814,25	1294,32
814,42	1298,41
814,60	1288,17
814,77	1290,22
814,94	1325,04
815,12	1265,64
815,29	1234,93
815,46	1273,84
815,63	1286,12
815,81	1228,78
815,98	1292,27
816,15	1308,65
816,33	1298,41
816,50	1251,31
816,67	1290,22
816,84	1265,64
817,02	1239,02
817,19	1325,04
817,36	1255,40
817,53	1257,45
817,71	1249,26
817,88	1306,60
818,05	1251,31
818,22	1277,93
818,40	1316,84
818,57	1277,93
818,74	1310,70
818,91	1267,69
819,09	1282,03
819,26	1222,64
819,43	1327,08
819,60	1220,59
819,78	1257,45
819,95	1269,74
820,12	1247,21
820,29	1253,36
820,47	1226,73
820,64	1169,39
820,81	1279,98
820,98	1255,40
821,15	1245,16
821,33	1298,41
821,50	1302,51
821,67	1288,17
821,84	1304,56
822,02	1279,98
822,19	1257,45
822,36	1273,84
822,53	1257,45
822,70	1253,36
822,88	1236,97
823,05	1279,98
823,22	1241,07
823,39	1288,17
823,56	1210,35
823,74	1327,08
823,91	1222,64
824,08	1249,26
824,25	1220,59
824,42	1298,41
824,60	1292,27
824,77	1228,78
824,94	1263,60
825,11	1267,69
825,28	1245,16
825,45	1202,16
825,63	1312,75
825,80	1241,07
825,97	1316,84
826,14	1286,12
826,31	1210,35
826,48	1269,74
826,66	1286,12
826,83	1279,98
827,00	1304,56
827,17	1282,03
827,34	1191,92
827,51	1224,69
827,69	1196,01
827,86	1230,83
828,03	1312,75
828,20	1306,60
828,37	1226,73
828,54	1333,23
828,71	1247,21
828,89	1236,97
829,06	1259,50
829,23	1245,16
829,40	1202,16
829,57	1282,03
829,74	1236,97
829,91	1265,64
830,09	1275,88
830,26	1325,04
830,43	1296,36
830,60	1320,94
830,77	1310,70
830,94	1265,64
831,11	1224,69
831,28	1269,74
831,46	1284,08
831,63	1310,70
831,80	1257,45
831,97	1327,08
832,14	1286,12
832,31	1257,45
832,48	1318,89
832,65	1361,90
832,82	1218,54
832,99	1269,74
833,17	1282,03
833,34	1216,49
833,51	1210,35
833,68	1214,45
833,85	1236,97
834,02	1222,64
834,19	1255,40
834,36	1288,17
834,53	1292,27
834,70	1257,45
834,87	1347,56
835,04	1320,94
835,22	1191,92
835,39	1282,03
835,56	1282,03
835,73	1253,36
835,90	1320,94
836,07	1224,69
836,24	1259,50
836,41	1232,88
836,58	1214,45
836,75	1267,69
836,92	1189,87
837,09	1267,69
837,26	1275,88
837,43	1337,32
837,60	1185,77
837,77	1271,79
837,94	1257,45
838,12	1257,45
838,29	1290,22
838,46	1249,26
838,63	1288,17
838,80	1335,28
838,97	1286,12
839,14	1265,64
839,31	1257,45
839,48	1249,26
839,65	1341,42
839,82	1261,55
839,99	1318,89
840,16	1236,97
840,33	1304,56
840,50	1279,98
840,67	1249,26
840,84	1255,40
841,01	1269,74
841,18	1236,97
841,35	1271,79
841,52	1263,60
841,69	1165,29
841,86	1288,17
842,03	1226,73
842,20	1298,41
842,37	1310,70
842,54	1286,12
842,71	1239,02
842,88	1251,31
843,05	1247,21
843,22	1247,21
843,39	1261,55
843,56	1308,65
843,73	1253,36
843,90	1255,40
844,07	1271,79
844,24	1296,36
844,41	1302,51
844,58	1320,94
844,75	1273,84
844,92	1263,60
845,09	1267,69
845,26	1189,87
845,43	1228,78
845,60	1247,21
845,77	1181,68
845,94	1286,12
846,10	1253,36
846,27	1224,69
846,44	1288,17
846,61	1284,08
846,78	1288,17
846,95	1304,56
847,12	1304,56
847,29	1341,42
847,46	1226,73
847,63	1265,64
847,80	1284,08
847,97	1284,08
848,14	1304,56
848,31	1269,74
848,48	1226,73
848,65	1339,37
848,82	1187,82
848,98	1277,93
849,15	1234,93
849,32	1224,69
849,49	1327,08
849,66	1339,37
849,83	1288,17
850,00	1247,21
850,17	1329,13
850,34	1265,64
850,51	1228,78
850,68	1271,79
850,85	1234,93
851,01	1247,21
851,18	1284,08
851,35	1249,26
851,52	1282,03
851,69	1212,40
851,86	1200,11
852,03	1193,97
852,20	1290,22
852,37	1263,60
852,53	1290,22
852,70	1226,73
852,87	1257,45
853,04	1259,50
853,21	1296,36
853,38	1175,53
853,55	1306,60
853,72	1208,30
853,89	1261,55
854,05	1273,84
854,22	1259,50
854,39	1265,64
854,56	1306,60
854,73	1243,12
854,90	1318,89
855,07	1306,60
855,23	1273,84
855,40	1208,30
855,57	1216,49
855,74	1212,40
855,91	1361,90
856,08	1267,69
856,25	1228,78
856,41	1259,50
856,58	1241,07
856,75	1275,88
856,92	1288,17
857,09	1269,74
857,26	1200,11
857,42	1300,46
857,59	1279,98
857,76	1267,69
857,93	1308,65
858,10	1226,73
858,27	1310,70
858,43	1312,75
858,60	1257,45
858,77	1284,08
858,94	1245,16
859,11	1279,98
859,27	1304,56
859,44	1308,65
859,61	1347,56
859,78	1200,11
859,95	1277,93
860,12	1193,97
860,28	1277,93
860,45	1337,32
860,62	1329,13
860,79	1343,47
860,95	1224,69
861,12	1239,02
861,29	1273,84
861,46	1331,18
861,63	1320,94
861,79	1349,61
861,96	1198,06
862,13	1335,28
862,30	1269,74
862,47	1255,40
862,63	1265,64
862,80	1230,83
862,97	1339,37
863,14	1265,64
863,30	1267,69
863,47	1261,55
863,64	1271,79
863,81	1302,51
863,97	1314,80
864,14	1312,75
864,31	1247,21
864,48	1271,79
864,65	1236,97
864,81	1288,17
864,98	1220,59
865,15	1239,02
865,32	1304,56
865,48	1255,40
865,65	1316,84
865,82	1282,03
865,98	1339,37
866,15	1222,64
866,32	1228,78
866,49	1302,51
866,65	1282,03
866,82	1232,88
866,99	1263,60
867,16	1259,50
867,32	1282,03
867,49	1282,03
867,66	1232,88
867,83	1265,64
867,99	1306,60
868,16	1259,50
868,33	1179,63
868,49	1269,74
868,66	1290,22
868,83	1253,36
868,99	1310,70
869,16	1284,08
869,33	1257,45
869,50	1316,84
869,66	1234,93
869,83	1220,59
870,00	1298,41
870,16	1300,46
870,33	1232,88
870,50	1288,17
870,66	1275,88
870,83	1267,69
871,00	1277,93
871,17	1269,74
871,33	1228,78
871,50	1265,64
871,67	1257,45
871,83	1302,51
872,00	1253,36
872,17	1234,93
872,33	1298,41
872,50	1277,93
872,67	1253,36
872,83	1247,21
873,00	1239,02
873,17	1263,60
873,33	1245,16
873,50	1253,36
873,67	1275,88
873,83	1302,51
874,00	1198,06
874,16	1322,99
874,33	1202,16
874,50	1298,41
874,66	1318,89
874,83	1290,22
875,00	1349,61
875,16	1239,02
875,33	1322,99
875,50	1243,12
875,66	1269,74
875,83	1310,70
875,99	1261,55
876,16	1290,22
876,33	1208,30
876,49	1312,75
876,66	1282,03
876,83	1282,03
876,99	1243,12
877,16	1230,83
877,32	1243,12
877,49	1181,68
877,66	1239,02
877,82	1345,52
877,99	1284,08
878,15	1337,32
878,32	1214,45
878,49	1155,05
878,65	1224,69
878,82	1271,79
878,98	1282,03
879,15	1273,84
879,32	1308,65
879,48	1232,88
879,65	1224,69
879,81	1273,84
879,98	1218,54
880,15	1322,99
880,31	1247,21
880,48	1267,69
880,64	1279,98
880,81	1251,31
880,97	1220,59
881,14	1314,80
881,31	1259,50
881,47	1220,59
881,64	1226,73
881,80	1304,56
881,97	1257,45
882,13	1214,45
882,30	1204,21
882,47	1212,40
882,63	1318,89
882,80	1253,36
882,96	1198,06
883,13	1267,69
883,29	1239,02
883,46	1275,88
883,62	1243,12
883,79	1263,60
883,95	1273,84
884,12	1261,55
884,29	1269,74
884,45	1269,74
884,62	1267,69
884,78	1294,32
884,95	1261,55
885,11	1296,36
885,28	1372,14
885,44	1279,98
885,61	1230,83
885,77	1230,83
885,94	1339,37
886,10	1294,32
886,27	1245,16
886,43	1263,60
886,60	1316,84
886,76	1253,36
886,93	1220,59
887,09	1265,64
887,26	1306,60
887,42	1339,37
887,59	1306,60
887,75	1226,73
887,92	1243,12
888,08	1255,40
888,25	1271,79
888,41	1372,14
888,58	1290,22
888,74	1212,40
888,91	1232,88
>>>>>End Processed Spectral Data<<<<<
