SpectraSuite Data File
++++++++++++++++++++++++++++++++++++
Date: Sun Apr 03 19:29:34 CEST 2016
User: root
Dark Spectrum Present: No
Reference Spectrum Present: No
Number of Sampled Component Spectra: 1
Spectrometers: USB4C02835
Integration Time (usec): 10000 (USB4C02835)
Spectra Averaged: 1 (USB4C02835)
Boxcar Smoothing: 0 (USB4C02835)
Correct for Electrical Dark: No (USB4C02835)
Strobe/Lamp Enabled: No (USB4C02835)
Correct for Detector Non-linearity: No (USB4C02835)
Correct for Stray Light: No (USB4C02835)
Number of Pixels in Processed Spectrum: 3648
>>>>>Begin Processed Spectral Data<<<<<
177,47	1251,31
177,69	1251,31
177,91	1251,31
178,13	1245,16
178,36	1241,07
178,58	1224,69
178,80	1339,37
179,02	1243,12
179,24	1185,77
179,46	1316,84
179,68	1257,45
179,90	1300,46
180,13	1286,12
180,35	1288,17
180,57	1220,59
180,79	1353,71
181,01	1351,66
181,23	1361,90
181,45	1331,18
181,67	1245,16
181,90	1275,88
182,12	1290,22
182,34	1345,52
182,56	1239,02
182,78	1345,52
183,00	1253,36
183,22	1249,26
183,44	1210,35
183,66	1275,88
183,89	1300,46
184,11	1257,45
184,33	1333,23
184,55	1310,70
184,77	1236,97
184,99	1292,27
185,21	1249,26
185,43	1265,64
185,65	1327,08
185,87	1255,40
186,10	1247,21
186,32	1234,93
186,54	1263,60
186,76	1241,07
186,98	1230,83
187,20	1267,69
187,42	1308,65
187,64	1261,55
187,86	1290,22
188,08	1269,74
188,30	1245,16
188,52	1267,69
188,75	1247,21
188,97	1282,03
189,19	1302,51
189,41	1228,78
189,63	1273,84
189,85	1236,97
190,07	1241,07
190,29	1220,59
190,51	1306,60
190,73	1249,26
190,95	1279,98
191,17	1226,73
191,39	1257,45
191,61	1294,32
191,84	1325,04
192,06	1320,94
192,28	1300,46
192,50	1277,93
192,72	1282,03
192,94	1312,75
193,16	1245,16
193,38	1273,84
193,60	1284,08
193,82	1261,55
194,04	1234,93
194,26	1316,84
194,48	1253,36
194,70	1224,69
194,92	1271,79
195,14	1322,99
195,36	1269,74
195,58	1269,74
195,80	1214,45
196,02	1265,64
196,24	1298,41
196,46	1179,63
196,69	1275,88
196,91	1251,31
197,13	1277,93
197,35	1253,36
197,57	1288,17
197,79	1230,83
198,01	1279,98
198,23	1273,84
198,45	1239,02
198,67	1279,98
198,89	1290,22
199,11	1300,46
199,33	1253,36
199,55	1296,36
199,77	1312,75
199,99	1241,07
200,21	1341,42
200,43	1322,99
200,65	1218,54
200,87	1247,21
201,09	1222,64
201,31	1320,94
201,53	1275,88
201,75	1239,02
201,97	1279,98
202,19	1249,26
202,41	1247,21
202,63	1296,36
202,85	1247,21
203,07	1214,45
203,29	1273,84
203,51	1273,84
203,73	1251,31
203,95	1271,79
204,17	1277,93
204,39	1255,40
204,61	1267,69
204,83	1253,36
205,05	1259,50
205,27	1208,30
205,49	1257,45
205,71	1286,12
205,93	1302,51
206,15	1284,08
206,37	1253,36
206,59	1212,40
206,81	1202,16
207,03	1255,40
207,25	1363,95
207,47	1308,65
207,69	1224,69
207,91	1232,88
208,13	1200,11
208,34	1296,36
208,56	1286,12
208,78	1247,21
209,00	1224,69
209,22	1284,08
209,44	1271,79
209,66	1314,80
209,88	1243,12
210,10	1271,79
210,32	1269,74
210,54	1263,60
210,76	1245,16
210,98	1273,84
211,20	1255,40
211,42	1239,02
211,64	1251,31
211,86	1275,88
212,08	1267,69
212,30	1327,08
212,52	1202,16
212,74	1279,98
212,96	1337,32
213,17	1277,93
213,39	1271,79
213,61	1265,64
213,83	1275,88
214,05	1208,30
214,27	1245,16
214,49	1288,17
214,71	1202,16
214,93	1345,52
215,15	1216,49
215,37	1279,98
215,59	1290,22
215,81	1257,45
216,03	1241,07
216,24	1163,25
216,46	1224,69
216,68	1279,98
216,90	1298,41
217,12	1286,12
217,34	1316,84
217,56	1282,03
217,78	1257,45
218,00	1312,75
218,22	1251,31
218,44	1312,75
218,66	1294,32
218,87	1282,03
219,09	1257,45
219,31	1261,55
219,53	1179,63
219,75	1245,16
219,97	1284,08
220,19	1335,28
220,41	1249,26
220,63	1322,99
220,85	1275,88
221,06	1239,02
221,28	1206,25
221,50	1298,41
221,72	1196,01
221,94	1312,75
222,16	1267,69
222,38	1253,36
222,60	1331,18
222,82	1247,21
223,03	1232,88
223,25	1298,41
223,47	1259,50
223,69	1314,80
223,91	1226,73
224,13	1257,45
224,35	1232,88
224,57	1320,94
224,78	1304,56
225,00	1236,97
225,22	1304,56
225,44	1271,79
225,66	1259,50
225,88	1259,50
226,10	1265,64
226,32	1282,03
226,53	1234,93
226,75	1226,73
226,97	1271,79
227,19	1353,71
227,41	1243,12
227,63	1167,34
227,85	1212,40
228,06	1331,18
228,28	1263,60
228,50	1282,03
228,72	1296,36
228,94	1259,50
229,16	1263,60
229,37	1259,50
229,59	1273,84
229,81	1298,41
230,03	1249,26
230,25	1224,69
230,47	1288,17
230,69	1257,45
230,90	1255,40
231,12	1253,36
231,34	1314,80
231,56	1224,69
231,78	1243,12
232,00	1314,80
232,21	1310,70
232,43	1222,64
232,65	1173,49
232,87	1251,31
233,09	1208,30
233,30	1243,12
233,52	1263,60
233,74	1335,28
233,96	1251,31
234,18	1263,60
234,40	1271,79
234,61	1318,89
234,83	1251,31
235,05	1247,21
235,27	1263,60
235,49	1345,52
235,70	1279,98
235,92	1288,17
236,14	1198,06
236,36	1263,60
236,58	1257,45
236,79	1308,65
237,01	1226,73
237,23	1261,55
237,45	1261,55
237,67	1232,88
237,88	1228,78
238,10	1349,61
238,32	1255,40
238,54	1279,98
238,76	1239,02
238,97	1247,21
239,19	1284,08
239,41	1263,60
239,63	1204,21
239,85	1255,40
240,06	1314,80
240,28	1255,40
240,50	1230,83
240,72	1232,88
240,93	1374,19
241,15	1298,41
241,37	1204,21
241,59	1306,60
241,81	1298,41
242,02	1345,52
242,24	1249,26
242,46	1269,74
242,68	1222,64
242,89	1333,23
243,11	1263,60
243,33	1294,32
243,55	1335,28
243,76	1249,26
243,98	1302,51
244,20	1261,55
244,42	1353,71
244,64	1239,02
244,85	1296,36
245,07	1259,50
245,29	1208,30
245,51	1196,01
245,72	1247,21
245,94	1239,02
246,16	1286,12
246,38	1282,03
246,59	1263,60
246,81	1296,36
247,03	1257,45
247,24	1187,82
247,46	1267,69
247,68	1325,04
247,90	1267,69
248,11	1239,02
248,33	1196,01
248,55	1236,97
248,77	1245,16
248,98	1312,75
249,20	1320,94
249,42	1341,42
249,64	1236,97
249,85	1284,08
250,07	1191,92
250,29	1306,60
250,50	1239,02
250,72	1282,03
250,94	1333,23
251,16	1228,78
251,37	1314,80
251,59	1245,16
251,81	1376,24
252,02	1249,26
252,24	1220,59
252,46	1224,69
252,68	1261,55
252,89	1322,99
253,11	1226,73
253,33	1304,56
253,54	1224,69
253,76	1314,80
253,98	1312,75
254,20	1259,50
254,41	1259,50
254,63	1212,40
254,85	1200,11
255,06	1341,42
255,28	1263,60
255,50	1306,60
255,71	1322,99
255,93	1206,25
256,15	1343,47
256,36	1243,12
256,58	1212,40
256,80	1191,92
257,02	1335,28
257,23	1290,22
257,45	1249,26
257,67	1259,50
257,88	1243,12
258,10	1302,51
258,32	1312,75
258,53	1288,17
258,75	1286,12
258,97	1308,65
259,18	1300,46
259,40	1212,40
259,62	1271,79
259,83	1277,93
260,05	1279,98
260,27	1347,56
260,48	1279,98
260,70	1265,64
260,92	1189,87
261,13	1282,03
261,35	1253,36
261,57	1331,18
261,78	1282,03
262,00	1314,80
262,22	1312,75
262,43	1327,08
262,65	1380,33
262,86	1241,07
263,08	1298,41
263,30	1257,45
263,51	1355,76
263,73	1255,40
263,95	1226,73
264,16	1282,03
264,38	1249,26
264,60	1279,98
264,81	1226,73
265,03	1282,03
265,25	1306,60
265,46	1230,83
265,68	1288,17
265,89	1339,37
266,11	1294,32
266,33	1282,03
266,54	1277,93
266,76	1234,93
266,98	1193,97
267,19	1306,60
267,41	1314,80
267,62	1277,93
267,84	1282,03
268,06	1302,51
268,27	1306,60
268,49	1243,12
268,70	1200,11
268,92	1327,08
269,14	1220,59
269,35	1220,59
269,57	1271,79
269,79	1292,27
270,00	1226,73
270,22	1241,07
270,43	1345,52
270,65	1196,01
270,87	1294,32
271,08	1232,88
271,30	1355,76
271,51	1288,17
271,73	1370,09
271,95	1263,60
272,16	1302,51
272,38	1306,60
272,59	1302,51
272,81	1306,60
273,02	1245,16
273,24	1341,42
273,46	1236,97
273,67	1251,31
273,89	1255,40
274,10	1206,25
274,32	1339,37
274,54	1222,64
274,75	1290,22
274,97	1249,26
275,18	1355,76
275,40	1275,88
275,61	1253,36
275,83	1282,03
276,05	1179,63
276,26	1206,25
276,48	1257,45
276,69	1243,12
276,91	1191,92
277,12	1245,16
277,34	1228,78
277,55	1302,51
277,77	1218,54
277,99	1241,07
278,20	1269,74
278,42	1200,11
278,63	1259,50
278,85	1282,03
279,06	1253,36
279,28	1300,46
279,49	1298,41
279,71	1292,27
279,93	1267,69
280,14	1327,08
280,36	1230,83
280,57	1306,60
280,79	1316,84
281,00	1187,82
281,22	1267,69
281,43	1259,50
281,65	1241,07
281,86	1312,75
282,08	1265,64
282,29	1288,17
282,51	1288,17
282,73	1265,64
282,94	1214,45
283,16	1277,93
283,37	1282,03
283,59	1228,78
283,80	1314,80
284,02	1282,03
284,23	1226,73
284,45	1222,64
284,66	1265,64
284,88	1294,32
285,09	1239,02
285,31	1265,64
285,52	1320,94
285,74	1251,31
285,95	1290,22
286,17	1279,98
286,38	1263,60
286,60	1284,08
286,81	1275,88
287,03	1304,56
287,24	1247,21
287,46	1302,51
287,67	1327,08
287,89	1306,60
288,10	1271,79
288,32	1198,06
288,53	1325,04
288,75	1298,41
288,96	1267,69
289,18	1265,64
289,39	1380,33
289,61	1282,03
289,82	1265,64
290,04	1349,61
290,25	1243,12
290,47	1249,26
290,68	1318,89
290,90	1249,26
291,11	1259,50
291,33	1290,22
291,54	1271,79
291,76	1263,60
291,97	1245,16
292,18	1173,49
292,40	1243,12
292,61	1290,22
292,83	1230,83
293,04	1255,40
293,26	1279,98
293,47	1247,21
293,69	1159,15
293,90	1232,88
294,12	1177,58
294,33	1247,21
294,55	1345,52
294,76	1288,17
294,97	1275,88
295,19	1265,64
295,40	1294,32
295,62	1298,41
295,83	1284,08
296,05	1339,37
296,26	1337,32
296,48	1357,80
296,69	1251,31
296,90	1271,79
297,12	1200,11
297,33	1249,26
297,55	1282,03
297,76	1212,40
297,98	1261,55
298,19	1298,41
298,41	1263,60
298,62	1314,80
298,83	1183,73
299,05	1232,88
299,26	1353,71
299,48	1294,32
299,69	1228,78
299,90	1226,73
300,12	1267,69
300,33	1284,08
300,55	1279,98
300,76	1251,31
300,98	1279,98
301,19	1288,17
301,40	1288,17
301,62	1275,88
301,83	1322,99
302,05	1204,21
302,26	1302,51
302,47	1298,41
302,69	1241,07
302,90	1202,16
303,12	1316,84
303,33	1320,94
303,54	1253,36
303,76	1320,94
303,97	1253,36
304,19	1296,36
304,40	1220,59
304,61	1277,93
304,83	1257,45
305,04	1302,51
305,26	1300,46
305,47	1282,03
305,68	1210,35
305,90	1286,12
306,11	1282,03
306,33	1241,07
306,54	1271,79
306,75	1298,41
306,97	1210,35
307,18	1316,84
307,39	1292,27
307,61	1259,50
307,82	1296,36
308,04	1259,50
308,25	1337,32
308,46	1298,41
308,68	1286,12
308,89	1265,64
309,10	1263,60
309,32	1232,88
309,53	1284,08
309,74	1259,50
309,96	1267,69
310,17	1304,56
310,39	1241,07
310,60	1249,26
310,81	1179,63
311,03	1236,97
311,24	1214,45
311,45	1290,22
311,67	1308,65
311,88	1251,31
312,09	1282,03
312,31	1265,64
312,52	1265,64
312,73	1290,22
312,95	1255,40
313,16	1265,64
313,37	1331,18
313,59	1171,44
313,80	1284,08
314,01	1329,13
314,23	1277,93
314,44	1314,80
314,65	1269,74
314,87	1304,56
315,08	1253,36
315,29	1247,21
315,51	1253,36
315,72	1277,93
315,93	1304,56
316,15	1282,03
316,36	1265,64
316,57	1226,73
316,79	1234,93
317,00	1263,60
317,21	1286,12
317,43	1263,60
317,64	1249,26
317,85	1261,55
318,07	1189,87
318,28	1329,13
318,49	1222,64
318,70	1277,93
318,92	1279,98
319,13	1292,27
319,34	1216,49
319,56	1384,43
319,77	1339,37
319,98	1361,90
320,20	1198,06
320,41	1177,58
320,62	1185,77
320,83	1310,70
321,05	1253,36
321,26	1259,50
321,47	1333,23
321,69	1284,08
321,90	1255,40
322,11	1284,08
322,32	1247,21
322,54	1288,17
322,75	1271,79
322,96	1386,47
323,18	1279,98
323,39	1257,45
323,60	1261,55
323,81	1298,41
324,03	1247,21
324,24	1247,21
324,45	1312,75
324,66	1218,54
324,88	1376,24
325,09	1320,94
325,30	1226,73
325,52	1286,12
325,73	1337,32
325,94	1253,36
326,15	1230,83
326,37	1259,50
326,58	1234,93
326,79	1282,03
327,00	1275,88
327,22	1275,88
327,43	1263,60
327,64	1193,97
327,85	1273,84
328,07	1187,82
328,28	1224,69
328,49	1290,22
328,70	1273,84
328,92	1271,79
329,13	1275,88
329,34	1249,26
329,55	1282,03
329,76	1271,79
329,98	1222,64
330,19	1279,98
330,40	1263,60
330,61	1275,88
330,83	1294,32
331,04	1279,98
331,25	1294,32
331,46	1335,28
331,68	1269,74
331,89	1282,03
332,10	1171,44
332,31	1331,18
332,52	1222,64
332,74	1327,08
332,95	1208,30
333,16	1284,08
333,37	1294,32
333,58	1224,69
333,80	1259,50
334,01	1306,60
334,22	1216,49
334,43	1263,60
334,64	1269,74
334,86	1329,13
335,07	1232,88
335,28	1284,08
335,49	1271,79
335,70	1322,99
335,92	1273,84
336,13	1228,78
336,34	1290,22
336,55	1314,80
336,76	1241,07
336,98	1224,69
337,19	1306,60
337,40	1284,08
337,61	1314,80
337,82	1284,08
338,04	1288,17
338,25	1329,13
338,46	1308,65
338,67	1296,36
338,88	1271,79
339,09	1251,31
339,31	1224,69
339,52	1359,85
339,73	1314,80
339,94	1230,83
340,15	1267,69
340,36	1224,69
340,58	1249,26
340,79	1370,09
341,00	1259,50
341,21	1239,02
341,42	1277,93
341,63	1286,12
341,85	1296,36
342,06	1302,51
342,27	1267,69
342,48	1271,79
342,69	1271,79
342,90	1275,88
343,12	1261,55
343,33	1253,36
343,54	1224,69
343,75	1322,99
343,96	1247,21
344,17	1331,18
344,38	1277,93
344,60	1271,79
344,81	1255,40
345,02	1314,80
345,23	1269,74
345,44	1298,41
345,65	1322,99
345,86	1275,88
346,07	1275,88
346,29	1239,02
346,50	1263,60
346,71	1310,70
346,92	1267,69
347,13	1247,21
347,34	1366,00
347,55	1286,12
347,76	1200,11
347,98	1296,36
348,19	1263,60
348,40	1318,89
348,61	1247,21
348,82	1241,07
349,03	1208,30
349,24	1263,60
349,45	1314,80
349,66	1290,22
349,88	1314,80
350,09	1304,56
350,30	1329,13
350,51	1284,08
350,72	1253,36
350,93	1273,84
351,14	1318,89
351,35	1288,17
351,56	1282,03
351,77	1363,95
351,99	1210,35
352,20	1290,22
352,41	1245,16
352,62	1257,45
352,83	1259,50
353,04	1255,40
353,25	1294,32
353,46	1288,17
353,67	1247,21
353,88	1363,95
354,09	1245,16
354,30	1247,21
354,52	1294,32
354,73	1208,30
354,94	1261,55
355,15	1204,21
355,36	1251,31
355,57	1271,79
355,78	1277,93
355,99	1257,45
356,20	1282,03
356,41	1284,08
356,62	1234,93
356,83	1302,51
357,04	1339,37
357,25	1288,17
357,46	1277,93
357,68	1325,04
357,89	1312,75
358,10	1226,73
358,31	1228,78
358,52	1304,56
358,73	1243,12
358,94	1271,79
359,15	1247,21
359,36	1298,41
359,57	1255,40
359,78	1243,12
359,99	1366,00
360,20	1290,22
360,41	1279,98
360,62	1284,08
360,83	1214,45
361,04	1329,13
361,25	1261,55
361,46	1275,88
361,67	1302,51
361,88	1284,08
362,09	1243,12
362,30	1234,93
362,51	1277,93
362,72	1245,16
362,93	1214,45
363,14	1200,11
363,35	1304,56
363,56	1277,93
363,78	1284,08
363,99	1286,12
364,20	1251,31
364,41	1269,74
364,62	1310,70
364,83	1234,93
365,04	1245,16
365,25	1173,49
365,46	1247,21
365,67	1253,36
365,88	1259,50
366,09	1335,28
366,30	1300,46
366,51	1173,49
366,72	1261,55
366,93	1296,36
367,14	1245,16
367,35	1257,45
367,56	1249,26
367,77	1300,46
367,98	1257,45
368,18	1273,84
368,39	1255,40
368,60	1314,80
368,81	1263,60
369,02	1345,52
369,23	1241,07
369,44	1296,36
369,65	1263,60
369,86	1232,88
370,07	1288,17
370,28	1243,12
370,49	1288,17
370,70	1273,84
370,91	1288,17
371,12	1296,36
371,33	1275,88
371,54	1314,80
371,75	1318,89
371,96	1247,21
372,17	1263,60
372,38	1298,41
372,59	1259,50
372,80	1214,45
373,01	1273,84
373,22	1247,21
373,43	1269,74
373,64	1261,55
373,85	1296,36
374,06	1290,22
374,26	1277,93
374,47	1230,83
374,68	1304,56
374,89	1290,22
375,10	1292,27
375,31	1249,26
375,52	1337,32
375,73	1265,64
375,94	1236,97
376,15	1257,45
376,36	1288,17
376,57	1322,99
376,78	1310,70
376,99	1239,02
377,20	1282,03
377,40	1222,64
377,61	1222,64
377,82	1243,12
378,03	1308,65
378,24	1253,36
378,45	1249,26
378,66	1273,84
378,87	1224,69
379,08	1249,26
379,29	1288,17
379,50	1306,60
379,71	1269,74
379,91	1331,18
380,12	1230,83
380,33	1236,97
380,54	1255,40
380,75	1329,13
380,96	1294,32
381,17	1255,40
381,38	1277,93
381,59	1300,46
381,80	1300,46
382,00	1253,36
382,21	1288,17
382,42	1265,64
382,63	1279,98
382,84	1314,80
383,05	1241,07
383,26	1232,88
383,47	1286,12
383,68	1247,21
383,88	1361,90
384,09	1226,73
384,30	1230,83
384,51	1216,49
384,72	1294,32
384,93	1306,60
385,14	1191,92
385,35	1259,50
385,55	1241,07
385,76	1241,07
385,97	1234,93
386,18	1290,22
386,39	1230,83
386,60	1294,32
386,81	1263,60
387,02	1320,94
387,22	1204,21
387,43	1224,69
387,64	1282,03
387,85	1226,73
388,06	1327,08
388,27	1253,36
388,48	1290,22
388,68	1288,17
388,89	1224,69
389,10	1271,79
389,31	1230,83
389,52	1232,88
389,73	1243,12
389,93	1271,79
390,14	1279,98
390,35	1247,21
390,56	1214,45
390,77	1288,17
390,98	1304,56
391,18	1257,45
391,39	1249,26
391,60	1226,73
391,81	1298,41
392,02	1214,45
392,23	1271,79
392,43	1265,64
392,64	1212,40
392,85	1247,21
393,06	1277,93
393,27	1239,02
393,47	1263,60
393,68	1247,21
393,89	1320,94
394,10	1245,16
394,31	1265,64
394,52	1236,97
394,72	1263,60
394,93	1273,84
395,14	1224,69
395,35	1228,78
395,56	1318,89
395,76	1282,03
395,97	1267,69
396,18	1294,32
396,39	1279,98
396,60	1210,35
396,80	1296,36
397,01	1261,55
397,22	1300,46
397,43	1282,03
397,64	1267,69
397,84	1232,88
398,05	1333,23
398,26	1308,65
398,47	1306,60
398,67	1277,93
398,88	1333,23
399,09	1259,50
399,30	1273,84
399,51	1241,07
399,71	1243,12
399,92	1282,03
400,13	1234,93
400,34	1239,02
400,54	1282,03
400,75	1314,80
400,96	1339,37
401,17	1300,46
401,37	1196,01
401,58	1380,33
401,79	1214,45
402,00	1243,12
402,21	1267,69
402,41	1208,30
402,62	1282,03
402,83	1318,89
403,04	1230,83
403,24	1175,53
403,45	1294,32
403,66	1308,65
403,87	1312,75
404,07	1243,12
404,28	1257,45
404,49	1253,36
404,70	1245,16
404,90	1222,64
405,11	1253,36
405,32	1208,30
405,52	1327,08
405,73	1241,07
405,94	1271,79
406,15	1304,56
406,35	1312,75
406,56	1314,80
406,77	1284,08
406,98	1241,07
407,18	1249,26
407,39	1290,22
407,60	1302,51
407,80	1294,32
408,01	1245,16
408,22	1255,40
408,43	1245,16
408,63	1331,18
408,84	1269,74
409,05	1243,12
409,25	1269,74
409,46	1204,21
409,67	1210,35
409,88	1214,45
410,08	1255,40
410,29	1306,60
410,50	1294,32
410,70	1234,93
410,91	1312,75
411,12	1255,40
411,32	1263,60
411,53	1259,50
411,74	1314,80
411,95	1249,26
412,15	1320,94
412,36	1222,64
412,57	1259,50
412,77	1253,36
412,98	1196,01
413,19	1212,40
413,39	1269,74
413,60	1220,59
413,81	1294,32
414,01	1249,26
414,22	1232,88
414,43	1265,64
414,63	1230,83
414,84	1304,56
415,05	1288,17
415,25	1265,64
415,46	1236,97
415,67	1232,88
415,87	1253,36
416,08	1335,28
416,29	1257,45
416,49	1189,87
416,70	1341,42
416,91	1243,12
417,11	1316,84
417,32	1306,60
417,53	1261,55
417,73	1279,98
417,94	1220,59
418,15	1374,19
418,35	1302,51
418,56	1257,45
418,77	1269,74
418,97	1247,21
419,18	1265,64
419,38	1218,54
419,59	1241,07
419,80	1210,35
420,00	1306,60
420,21	1232,88
420,42	1275,88
420,62	1322,99
420,83	1247,21
421,04	1232,88
421,24	1327,08
421,45	1239,02
421,65	1236,97
421,86	1279,98
422,07	1335,28
422,27	1347,56
422,48	1353,71
422,69	1269,74
422,89	1228,78
423,10	1255,40
423,30	1251,31
423,51	1247,21
423,72	1269,74
423,92	1306,60
424,13	1226,73
424,33	1230,83
424,54	1259,50
424,75	1318,89
424,95	1249,26
425,16	1241,07
425,36	1337,32
425,57	1310,70
425,78	1212,40
425,98	1292,27
426,19	1222,64
426,39	1284,08
426,60	1251,31
426,81	1277,93
427,01	1257,45
427,22	1263,60
427,42	1298,41
427,63	1275,88
427,83	1310,70
428,04	1277,93
428,25	1271,79
428,45	1222,64
428,66	1249,26
428,86	1282,03
429,07	1279,98
429,28	1286,12
429,48	1279,98
429,69	1241,07
429,89	1241,07
430,10	1312,75
430,30	1267,69
430,51	1253,36
430,71	1271,79
430,92	1218,54
431,13	1290,22
431,33	1275,88
431,54	1243,12
431,74	1290,22
431,95	1271,79
432,15	1224,69
432,36	1257,45
432,56	1253,36
432,77	1282,03
432,98	1306,60
433,18	1245,16
433,39	1222,64
433,59	1273,84
433,80	1228,78
434,00	1204,21
434,21	1357,80
434,41	1306,60
434,62	1193,97
434,82	1255,40
435,03	1337,32
435,23	1347,56
435,44	1267,69
435,64	1259,50
435,85	1265,64
436,06	1308,65
436,26	1230,83
436,47	1249,26
436,67	1230,83
436,88	1298,41
437,08	1259,50
437,29	1273,84
437,49	1249,26
437,70	1200,11
437,90	1236,97
438,11	1271,79
438,31	1302,51
438,52	1271,79
438,72	1284,08
438,93	1294,32
439,13	1230,83
439,34	1298,41
439,54	1275,88
439,75	1275,88
439,95	1292,27
440,16	1255,40
440,36	1202,16
440,57	1208,30
440,77	1255,40
440,98	1312,75
441,18	1234,93
441,39	1245,16
441,59	1173,49
441,80	1257,45
442,00	1325,04
442,21	1306,60
442,41	1245,16
442,62	1222,64
442,82	1249,26
443,02	1269,74
443,23	1273,84
443,43	1318,89
443,64	1282,03
443,84	1198,06
444,05	1249,26
444,25	1353,71
444,46	1171,44
444,66	1236,97
444,87	1296,36
445,07	1339,37
445,28	1189,87
445,48	1226,73
445,69	1216,49
445,89	1378,28
446,09	1271,79
446,30	1202,16
446,50	1312,75
446,71	1290,22
446,91	1304,56
447,12	1288,17
447,32	1333,23
447,53	1265,64
447,73	1245,16
447,93	1198,06
448,14	1312,75
448,34	1345,52
448,55	1296,36
448,75	1310,70
448,96	1304,56
449,16	1279,98
449,36	1253,36
449,57	1279,98
449,77	1298,41
449,98	1331,18
450,18	1296,36
450,39	1228,78
450,59	1255,40
450,79	1261,55
451,00	1310,70
451,20	1273,84
451,41	1302,51
451,61	1253,36
451,81	1239,02
452,02	1302,51
452,22	1302,51
452,43	1300,46
452,63	1310,70
452,84	1214,45
453,04	1275,88
453,24	1273,84
453,45	1308,65
453,65	1222,64
453,86	1212,40
454,06	1296,36
454,26	1273,84
454,47	1220,59
454,67	1277,93
454,87	1265,64
455,08	1282,03
455,28	1245,16
455,49	1267,69
455,69	1247,21
455,89	1265,64
456,10	1298,41
456,30	1339,37
456,51	1257,45
456,71	1298,41
456,91	1302,51
457,12	1241,07
457,32	1290,22
457,52	1247,21
457,73	1329,13
457,93	1247,21
458,14	1286,12
458,34	1300,46
458,54	1282,03
458,75	1298,41
458,95	1218,54
459,15	1265,64
459,36	1161,20
459,56	1279,98
459,76	1298,41
459,97	1196,01
460,17	1263,60
460,37	1249,26
460,58	1271,79
460,78	1296,36
460,99	1277,93
461,19	1257,45
461,39	1273,84
461,60	1261,55
461,80	1200,11
462,00	1245,16
462,21	1294,32
462,41	1292,27
462,61	1245,16
462,82	1245,16
463,02	1183,73
463,22	1273,84
463,43	1267,69
463,63	1239,02
463,83	1249,26
464,04	1218,54
464,24	1187,82
464,44	1271,79
464,64	1257,45
464,85	1212,40
465,05	1265,64
465,25	1294,32
465,46	1255,40
465,66	1230,83
465,86	1247,21
466,07	1310,70
466,27	1314,80
466,47	1314,80
466,68	1304,56
466,88	1339,37
467,08	1261,55
467,29	1249,26
467,49	1257,45
467,69	1290,22
467,89	1216,49
468,10	1257,45
468,30	1300,46
468,50	1298,41
468,71	1234,93
468,91	1251,31
469,11	1279,98
469,31	1241,07
469,52	1208,30
469,72	1282,03
469,92	1273,84
470,13	1273,84
470,33	1216,49
470,53	1277,93
470,73	1282,03
470,94	1300,46
471,14	1196,01
471,34	1251,31
471,54	1253,36
471,75	1241,07
471,95	1263,60
472,15	1288,17
472,36	1306,60
472,56	1226,73
472,76	1259,50
472,96	1251,31
473,17	1263,60
473,37	1255,40
473,57	1316,84
473,77	1296,36
473,98	1212,40
474,18	1181,68
474,38	1261,55
474,58	1302,51
474,79	1239,02
474,99	1239,02
475,19	1239,02
475,39	1220,59
475,60	1302,51
475,80	1251,31
476,00	1300,46
476,20	1271,79
476,41	1265,64
476,61	1306,60
476,81	1265,64
477,01	1263,60
477,21	1257,45
477,42	1271,79
477,62	1212,40
477,82	1265,64
478,02	1282,03
478,23	1204,21
478,43	1208,30
478,63	1325,04
478,83	1261,55
479,03	1253,36
479,24	1325,04
479,44	1167,34
479,64	1277,93
479,84	1243,12
480,04	1226,73
480,25	1282,03
480,45	1290,22
480,65	1349,61
480,85	1294,32
481,06	1322,99
481,26	1282,03
481,46	1234,93
481,66	1392,62
481,86	1241,07
482,06	1288,17
482,27	1220,59
482,47	1353,71
482,67	1222,64
482,87	1277,93
483,07	1318,89
483,28	1173,49
483,48	1296,36
483,68	1239,02
483,88	1302,51
484,08	1234,93
484,29	1259,50
484,49	1208,30
484,69	1263,60
484,89	1241,07
485,09	1282,03
485,29	1234,93
485,50	1273,84
485,70	1255,40
485,90	1255,40
486,10	1257,45
486,30	1251,31
486,50	1220,59
486,71	1234,93
486,91	1288,17
487,11	1224,69
487,31	1255,40
487,51	1273,84
487,71	1228,78
487,91	1294,32
488,12	1320,94
488,32	1234,93
488,52	1273,84
488,72	1251,31
488,92	1279,98
489,12	1202,16
489,32	1294,32
489,53	1253,36
489,73	1312,75
489,93	1234,93
490,13	1359,85
490,33	1265,64
490,53	1253,36
490,73	1247,21
490,94	1257,45
491,14	1218,54
491,34	1308,65
491,54	1284,08
491,74	1296,36
491,94	1216,49
492,14	1300,46
492,34	1234,93
492,54	1298,41
492,75	1183,73
492,95	1294,32
493,15	1275,88
493,35	1210,35
493,55	1259,50
493,75	1232,88
493,95	1302,51
494,15	1275,88
494,35	1304,56
494,56	1294,32
494,76	1292,27
494,96	1265,64
495,16	1304,56
495,36	1339,37
495,56	1228,78
495,76	1269,74
495,96	1298,41
496,16	1304,56
496,36	1302,51
496,56	1288,17
496,77	1265,64
496,97	1216,49
497,17	1298,41
497,37	1322,99
497,57	1216,49
497,77	1206,25
497,97	1243,12
498,17	1230,83
498,37	1282,03
498,57	1257,45
498,77	1284,08
498,97	1261,55
499,17	1308,65
499,38	1288,17
499,58	1290,22
499,78	1257,45
499,98	1232,88
500,18	1286,12
500,38	1249,26
500,58	1271,79
500,78	1333,23
500,98	1290,22
501,18	1345,52
501,38	1263,60
501,58	1220,59
501,78	1230,83
501,98	1259,50
502,18	1325,04
502,38	1273,84
502,58	1247,21
502,78	1222,64
502,98	1185,77
503,18	1249,26
503,38	1286,12
503,59	1269,74
503,79	1288,17
503,99	1329,13
504,19	1275,88
504,39	1230,83
504,59	1220,59
504,79	1249,26
504,99	1261,55
505,19	1298,41
505,39	1169,39
505,59	1265,64
505,79	1310,70
505,99	1206,25
506,19	1288,17
506,39	1290,22
506,59	1208,30
506,79	1257,45
506,99	1245,16
507,19	1304,56
507,39	1236,97
507,59	1214,45
507,79	1298,41
507,99	1232,88
508,19	1269,74
508,39	1261,55
508,59	1286,12
508,79	1292,27
508,99	1214,45
509,19	1325,04
509,39	1249,26
509,59	1241,07
509,79	1228,78
509,99	1320,94
510,19	1290,22
510,39	1306,60
510,59	1234,93
510,79	1343,47
510,99	1261,55
511,19	1351,66
511,39	1353,71
511,59	1222,64
511,79	1251,31
511,99	1249,26
512,19	1273,84
512,38	1236,97
512,58	1257,45
512,78	1206,25
512,98	1263,60
513,18	1265,64
513,38	1155,05
513,58	1271,79
513,78	1298,41
513,98	1183,73
514,18	1257,45
514,38	1208,30
514,58	1290,22
514,78	1290,22
514,98	1230,83
515,18	1259,50
515,38	1322,99
515,58	1267,69
515,78	1232,88
515,98	1236,97
516,18	1257,45
516,38	1273,84
516,57	1234,93
516,77	1282,03
516,97	1308,65
517,17	1329,13
517,37	1259,50
517,57	1345,52
517,77	1296,36
517,97	1247,21
518,17	1343,47
518,37	1243,12
518,57	1220,59
518,77	1232,88
518,97	1310,70
519,16	1216,49
519,36	1239,02
519,56	1275,88
519,76	1216,49
519,96	1290,22
520,16	1279,98
520,36	1230,83
520,56	1253,36
520,76	1290,22
520,96	1257,45
521,16	1271,79
521,35	1300,46
521,55	1243,12
521,75	1302,51
521,95	1183,73
522,15	1245,16
522,35	1247,21
522,55	1279,98
522,75	1255,40
522,95	1200,11
523,14	1255,40
523,34	1265,64
523,54	1241,07
523,74	1206,25
523,94	1243,12
524,14	1212,40
524,34	1255,40
524,54	1298,41
524,73	1259,50
524,93	1224,69
525,13	1263,60
525,33	1282,03
525,53	1273,84
525,73	1312,75
525,93	1249,26
526,13	1208,30
526,32	1302,51
526,52	1265,64
526,72	1181,68
526,92	1282,03
527,12	1226,73
527,32	1259,50
527,52	1290,22
527,71	1241,07
527,91	1296,36
528,11	1261,55
528,31	1255,40
528,51	1163,25
528,71	1253,36
528,90	1294,32
529,10	1230,83
529,30	1327,08
529,50	1271,79
529,70	1236,97
529,90	1218,54
530,09	1243,12
530,29	1183,73
530,49	1251,31
530,69	1243,12
530,89	1220,59
531,09	1361,90
531,28	1273,84
531,48	1220,59
531,68	1210,35
531,88	1286,12
532,08	1202,16
532,28	1257,45
532,47	1259,50
532,67	1288,17
532,87	1269,74
533,07	1363,95
533,27	1263,60
533,46	1232,88
533,66	1290,22
533,86	1169,39
534,06	1204,21
534,26	1271,79
534,45	1263,60
534,65	1259,50
534,85	1331,18
535,05	1261,55
535,25	1296,36
535,44	1269,74
535,64	1294,32
535,84	1296,36
536,04	1236,97
536,24	1236,97
536,43	1255,40
536,63	1275,88
536,83	1359,85
537,03	1245,16
537,22	1271,79
537,42	1337,32
537,62	1251,31
537,82	1290,22
538,02	1290,22
538,21	1257,45
538,41	1224,69
538,61	1253,36
538,81	1286,12
539,00	1218,54
539,20	1191,92
539,40	1269,74
539,60	1349,61
539,79	1298,41
539,99	1271,79
540,19	1249,26
540,39	1206,25
540,58	1302,51
540,78	1312,75
540,98	1265,64
541,18	1308,65
541,37	1259,50
541,57	1226,73
541,77	1257,45
541,97	1286,12
542,16	1302,51
542,36	1243,12
542,56	1327,08
542,76	1292,27
542,95	1327,08
543,15	1347,56
543,35	1263,60
543,54	1325,04
543,74	1306,60
543,94	1263,60
544,14	1277,93
544,33	1249,26
544,53	1302,51
544,73	1249,26
544,93	1263,60
545,12	1251,31
545,32	1257,45
545,52	1239,02
545,71	1249,26
545,91	1245,16
546,11	1273,84
546,30	1183,73
546,50	1163,25
546,70	1226,73
546,90	1245,16
547,09	1263,60
547,29	1267,69
547,49	1286,12
547,68	1261,55
547,88	1241,07
548,08	1208,30
548,27	1331,18
548,47	1218,54
548,67	1239,02
548,87	1294,32
549,06	1318,89
549,26	1269,74
549,46	1226,73
549,65	1265,64
549,85	1343,47
550,05	1241,07
550,24	1290,22
550,44	1218,54
550,64	1341,42
550,83	1273,84
551,03	1261,55
551,23	1265,64
551,42	1357,80
551,62	1230,83
551,82	1253,36
552,01	1183,73
552,21	1257,45
552,41	1286,12
552,60	1224,69
552,80	1282,03
553,00	1288,17
553,19	1343,47
553,39	1232,88
553,59	1257,45
553,78	1263,60
553,98	1304,56
554,17	1247,21
554,37	1271,79
554,57	1232,88
554,76	1259,50
554,96	1277,93
555,16	1228,78
555,35	1263,60
555,55	1142,77
555,75	1265,64
555,94	1310,70
556,14	1269,74
556,33	1327,08
556,53	1265,64
556,73	1279,98
556,92	1290,22
557,12	1265,64
557,32	1327,08
557,51	1249,26
557,71	1239,02
557,90	1273,84
558,10	1286,12
558,30	1236,97
558,49	1331,18
558,69	1314,80
558,88	1243,12
559,08	1226,73
559,28	1265,64
559,47	1216,49
559,67	1302,51
559,86	1294,32
560,06	1284,08
560,26	1277,93
560,45	1220,59
560,65	1288,17
560,84	1257,45
561,04	1298,41
561,24	1210,35
561,43	1294,32
561,63	1269,74
561,82	1251,31
562,02	1159,15
562,22	1224,69
562,41	1265,64
562,61	1279,98
562,80	1263,60
563,00	1251,31
563,19	1253,36
563,39	1277,93
563,59	1273,84
563,78	1239,02
563,98	1349,61
564,17	1294,32
564,37	1318,89
564,56	1214,45
564,76	1261,55
564,96	1304,56
565,15	1331,18
565,35	1275,88
565,54	1300,46
565,74	1290,22
565,93	1300,46
566,13	1218,54
566,32	1236,97
566,52	1261,55
566,71	1284,08
566,91	1298,41
567,11	1279,98
567,30	1234,93
567,50	1214,45
567,69	1306,60
567,89	1196,01
568,08	1302,51
568,28	1277,93
568,47	1263,60
568,67	1222,64
568,86	1308,65
569,06	1296,36
569,25	1214,45
569,45	1290,22
569,64	1255,40
569,84	1275,88
570,04	1273,84
570,23	1277,93
570,43	1245,16
570,62	1198,06
570,82	1345,52
571,01	1236,97
571,21	1224,69
571,40	1259,50
571,60	1251,31
571,79	1265,64
571,99	1263,60
572,18	1243,12
572,38	1247,21
572,57	1269,74
572,77	1255,40
572,96	1298,41
573,16	1294,32
573,35	1234,93
573,55	1290,22
573,74	1239,02
573,94	1200,11
574,13	1191,92
574,33	1259,50
574,52	1239,02
574,71	1269,74
574,91	1234,93
575,10	1241,07
575,30	1286,12
575,49	1224,69
575,69	1232,88
575,88	1241,07
576,08	1193,97
576,27	1259,50
576,47	1298,41
576,66	1230,83
576,86	1298,41
577,05	1257,45
577,25	1263,60
577,44	1279,98
577,64	1224,69
577,83	1263,60
578,02	1298,41
578,22	1320,94
578,41	1234,93
578,61	1245,16
578,80	1282,03
579,00	1273,84
579,19	1259,50
579,39	1304,56
579,58	1300,46
579,77	1265,64
579,97	1269,74
580,16	1175,53
580,36	1257,45
580,55	1224,69
580,75	1308,65
580,94	1249,26
581,13	1271,79
581,33	1255,40
581,52	1308,65
581,72	1251,31
581,91	1335,28
582,11	1226,73
582,30	1273,84
582,49	1187,82
582,69	1314,80
582,88	1269,74
583,08	1282,03
583,27	1294,32
583,47	1214,45
583,66	1243,12
583,85	1312,75
584,05	1282,03
584,24	1294,32
584,44	1271,79
584,63	1284,08
584,82	1269,74
585,02	1320,94
585,21	1304,56
585,41	1212,40
585,60	1208,30
585,79	1257,45
585,99	1236,97
586,18	1288,17
586,37	1271,79
586,57	1294,32
586,76	1275,88
586,96	1316,84
587,15	1298,41
587,34	1306,60
587,54	1273,84
587,73	1279,98
587,93	1327,08
588,12	1294,32
588,31	1259,50
588,51	1355,76
588,70	1296,36
588,89	1269,74
589,09	1306,60
589,28	1187,82
589,47	1269,74
589,67	1208,30
589,86	1288,17
590,06	1312,75
590,25	1251,31
590,44	1327,08
590,64	1271,79
590,83	1298,41
591,02	1288,17
591,22	1296,36
591,41	1290,22
591,60	1288,17
591,80	1218,54
591,99	1292,27
592,18	1210,35
592,38	1234,93
592,57	1224,69
592,76	1322,99
592,96	1253,36
593,15	1343,47
593,34	1296,36
593,54	1253,36
593,73	1292,27
593,92	1310,70
594,12	1327,08
594,31	1257,45
594,50	1249,26
594,70	1191,92
594,89	1232,88
595,08	1271,79
595,28	1294,32
595,47	1277,93
595,66	1210,35
595,86	1257,45
596,05	1273,84
596,24	1200,11
596,43	1257,45
596,63	1245,16
596,82	1339,37
597,01	1208,30
597,21	1304,56
597,40	1286,12
597,59	1257,45
597,79	1241,07
597,98	1257,45
598,17	1263,60
598,36	1198,06
598,56	1261,55
598,75	1216,49
598,94	1259,50
599,14	1314,80
599,33	1302,51
599,52	1298,41
599,71	1228,78
599,91	1210,35
600,10	1302,51
600,29	1314,80
600,48	1263,60
600,68	1353,71
600,87	1183,73
601,06	1282,03
601,26	1259,50
601,45	1241,07
601,64	1216,49
601,83	1306,60
602,03	1265,64
602,22	1255,40
602,41	1302,51
602,60	1282,03
602,80	1282,03
602,99	1296,36
603,18	1320,94
603,37	1265,64
603,57	1290,22
603,76	1263,60
603,95	1247,21
604,14	1236,97
604,34	1310,70
604,53	1308,65
604,72	1327,08
604,91	1267,69
605,10	1286,12
605,30	1230,83
605,49	1263,60
605,68	1347,56
605,87	1230,83
606,07	1243,12
606,26	1318,89
606,45	1257,45
606,64	1302,51
606,84	1226,73
607,03	1265,64
607,22	1322,99
607,41	1200,11
607,60	1298,41
607,80	1366,00
607,99	1382,38
608,18	1255,40
608,37	1296,36
608,56	1232,88
608,76	1230,83
608,95	1302,51
609,14	1337,32
609,33	1251,31
609,52	1298,41
609,72	1249,26
609,91	1253,36
610,10	1288,17
610,29	1286,12
610,48	1239,02
610,68	1218,54
610,87	1239,02
611,06	1263,60
611,25	1269,74
611,44	1298,41
611,63	1220,59
611,83	1279,98
612,02	1282,03
612,21	1269,74
612,40	1290,22
612,59	1304,56
612,79	1206,25
612,98	1331,18
613,17	1253,36
613,36	1259,50
613,55	1304,56
613,74	1314,80
613,93	1337,32
614,13	1331,18
614,32	1302,51
614,51	1257,45
614,70	1296,36
614,89	1294,32
615,08	1222,64
615,28	1292,27
615,47	1251,31
615,66	1245,16
615,85	1304,56
616,04	1255,40
616,23	1275,88
616,42	1355,76
616,62	1249,26
616,81	1218,54
617,00	1216,49
617,19	1292,27
617,38	1267,69
617,57	1273,84
617,76	1333,23
617,95	1261,55
618,15	1316,84
618,34	1300,46
618,53	1257,45
618,72	1267,69
618,91	1241,07
619,10	1302,51
619,29	1155,05
619,48	1198,06
619,68	1259,50
619,87	1220,59
620,06	1318,89
620,25	1232,88
620,44	1304,56
620,63	1273,84
620,82	1210,35
621,01	1296,36
621,20	1300,46
621,39	1277,93
621,59	1275,88
621,78	1216,49
621,97	1306,60
622,16	1232,88
622,35	1224,69
622,54	1257,45
622,73	1218,54
622,92	1325,04
623,11	1226,73
623,30	1273,84
623,49	1292,27
623,68	1296,36
623,88	1275,88
624,07	1255,40
624,26	1241,07
624,45	1320,94
624,64	1329,13
624,83	1318,89
625,02	1273,84
625,21	1279,98
625,40	1251,31
625,59	1202,16
625,78	1286,12
625,97	1331,18
626,16	1216,49
626,35	1255,40
626,54	1267,69
626,74	1210,35
626,93	1249,26
627,12	1304,56
627,31	1271,79
627,50	1275,88
627,69	1290,22
627,88	1243,12
628,07	1288,17
628,26	1290,22
628,45	1300,46
628,64	1232,88
628,83	1239,02
629,02	1294,32
629,21	1212,40
629,40	1314,80
629,59	1292,27
629,78	1198,06
629,97	1322,99
630,16	1298,41
630,35	1390,57
630,54	1335,28
630,73	1337,32
630,92	1316,84
631,11	1318,89
631,30	1249,26
631,49	1253,36
631,68	1355,76
631,87	1386,47
632,06	1417,19
632,25	1384,43
632,44	1478,63
632,63	1366,00
632,82	1400,81
633,01	1384,43
633,20	1394,67
633,39	1402,86
633,58	1419,24
633,77	1339,37
633,96	1464,30
634,15	1517,54
634,34	1810,40
634,53	2213,85
634,72	1734,63
634,91	1482,73
635,10	1562,60
635,29	1970,15
635,48	2279,39
635,67	2361,31
635,86	2060,26
636,05	1869,80
636,24	1628,14
636,43	1509,35
636,62	1460,20
636,81	1363,95
637,00	1423,34
637,19	1384,43
637,38	1282,03
637,57	1331,18
637,76	1241,07
637,95	1312,75
638,14	1337,32
638,33	1320,94
638,52	1298,41
638,71	1269,74
638,89	1267,69
639,08	1316,84
639,27	1290,22
639,46	1275,88
639,65	1267,69
639,84	1304,56
640,03	1234,93
640,22	1314,80
640,41	1351,66
640,60	1275,88
640,79	1282,03
640,98	1282,03
641,17	1218,54
641,36	1292,27
641,55	1230,83
641,74	1253,36
641,92	1234,93
642,11	1267,69
642,30	1325,04
642,49	1259,50
642,68	1320,94
642,87	1257,45
643,06	1275,88
643,25	1306,60
643,44	1347,56
643,63	1265,64
643,82	1232,88
644,00	1327,08
644,19	1271,79
644,38	1320,94
644,57	1320,94
644,76	1204,21
644,95	1288,17
645,14	1312,75
645,33	1251,31
645,52	1341,42
645,71	1292,27
645,89	1327,08
646,08	1279,98
646,27	1232,88
646,46	1288,17
646,65	1196,01
646,84	1286,12
647,03	1257,45
647,22	1341,42
647,40	1267,69
647,59	1310,70
647,78	1322,99
647,97	1302,51
648,16	1232,88
648,35	1279,98
648,54	1263,60
648,73	1263,60
648,91	1257,45
649,10	1273,84
649,29	1275,88
649,48	1257,45
649,67	1261,55
649,86	1269,74
650,05	1273,84
650,23	1359,85
650,42	1253,36
650,61	1212,40
650,80	1261,55
650,99	1286,12
651,18	1216,49
651,36	1351,66
651,55	1261,55
651,74	1296,36
651,93	1253,36
652,12	1245,16
652,31	1312,75
652,49	1265,64
652,68	1212,40
652,87	1230,83
653,06	1282,03
653,25	1239,02
653,44	1306,60
653,62	1261,55
653,81	1267,69
654,00	1288,17
654,19	1327,08
654,38	1327,08
654,56	1271,79
654,75	1302,51
654,94	1253,36
655,13	1253,36
655,32	1249,26
655,51	1216,49
655,69	1282,03
655,88	1257,45
656,07	1257,45
656,26	1265,64
656,45	1314,80
656,63	1249,26
656,82	1310,70
657,01	1337,32
657,20	1290,22
657,38	1236,97
657,57	1245,16
657,76	1249,26
657,95	1265,64
658,14	1284,08
658,32	1261,55
658,51	1212,40
658,70	1232,88
658,89	1279,98
659,08	1331,18
659,26	1257,45
659,45	1232,88
659,64	1218,54
659,83	1234,93
660,01	1306,60
660,20	1214,45
660,39	1257,45
660,58	1357,80
660,76	1282,03
660,95	1269,74
661,14	1245,16
661,33	1302,51
661,51	1265,64
661,70	1261,55
661,89	1290,22
662,08	1222,64
662,26	1253,36
662,45	1312,75
662,64	1296,36
662,83	1322,99
663,01	1220,59
663,20	1249,26
663,39	1312,75
663,58	1294,32
663,76	1277,93
663,95	1337,32
664,14	1290,22
664,32	1173,49
664,51	1300,46
664,70	1320,94
664,89	1257,45
665,07	1288,17
665,26	1325,04
665,45	1222,64
665,64	1263,60
665,82	1234,93
666,01	1230,83
666,20	1236,97
666,38	1226,73
666,57	1308,65
666,76	1241,07
666,95	1316,84
667,13	1241,07
667,32	1284,08
667,51	1261,55
667,69	1292,27
667,88	1308,65
668,07	1214,45
668,25	1288,17
668,44	1296,36
668,63	1259,50
668,81	1290,22
669,00	1282,03
669,19	1265,64
669,38	1247,21
669,56	1288,17
669,75	1204,21
669,94	1300,46
670,12	1253,36
670,31	1296,36
670,50	1273,84
670,68	1193,97
670,87	1269,74
671,06	1222,64
671,24	1277,93
671,43	1286,12
671,62	1249,26
671,80	1200,11
671,99	1316,84
672,18	1265,64
672,36	1290,22
672,55	1265,64
672,74	1329,13
672,92	1241,07
673,11	1300,46
673,29	1247,21
673,48	1298,41
673,67	1202,16
673,85	1322,99
674,04	1202,16
674,23	1265,64
674,41	1222,64
674,60	1265,64
674,79	1273,84
674,97	1239,02
675,16	1226,73
675,34	1204,21
675,53	1269,74
675,72	1282,03
675,90	1226,73
676,09	1296,36
676,28	1226,73
676,46	1284,08
676,65	1249,26
676,83	1302,51
677,02	1257,45
677,21	1327,08
677,39	1269,74
677,58	1263,60
677,77	1327,08
677,95	1239,02
678,14	1218,54
678,32	1273,84
678,51	1288,17
678,70	1292,27
678,88	1255,40
679,07	1273,84
679,25	1306,60
679,44	1255,40
679,63	1282,03
679,81	1241,07
680,00	1261,55
680,18	1292,27
680,37	1273,84
680,55	1241,07
680,74	1273,84
680,93	1216,49
681,11	1275,88
681,30	1265,64
681,48	1202,16
681,67	1337,32
681,85	1228,78
682,04	1210,35
682,23	1370,09
682,41	1345,52
682,60	1247,21
682,78	1271,79
682,97	1267,69
683,15	1318,89
683,34	1224,69
683,53	1310,70
683,71	1366,00
683,90	1239,02
684,08	1320,94
684,27	1273,84
684,45	1220,59
684,64	1253,36
684,82	1294,32
685,01	1245,16
685,19	1257,45
685,38	1308,65
685,57	1288,17
685,75	1251,31
685,94	1224,69
686,12	1296,36
686,31	1232,88
686,49	1224,69
686,68	1284,08
686,86	1193,97
687,05	1286,12
687,23	1249,26
687,42	1224,69
687,60	1306,60
687,79	1261,55
687,97	1282,03
688,16	1206,25
688,34	1257,45
688,53	1337,32
688,71	1339,37
688,90	1263,60
689,08	1249,26
689,27	1327,08
689,45	1314,80
689,64	1247,21
689,82	1267,69
690,01	1210,35
690,19	1298,41
690,38	1279,98
690,56	1325,04
690,75	1282,03
690,93	1279,98
691,12	1255,40
691,30	1204,21
691,49	1193,97
691,67	1286,12
691,86	1316,84
692,04	1273,84
692,23	1325,04
692,41	1224,69
692,60	1249,26
692,78	1265,64
692,97	1325,04
693,15	1290,22
693,34	1304,56
693,52	1286,12
693,71	1236,97
693,89	1249,26
694,08	1269,74
694,26	1298,41
694,44	1146,86
694,63	1253,36
694,81	1286,12
695,00	1288,17
695,18	1241,07
695,37	1290,22
695,55	1312,75
695,74	1271,79
695,92	1267,69
696,10	1208,30
696,29	1222,64
696,47	1308,65
696,66	1265,64
696,84	1267,69
697,03	1265,64
697,21	1259,50
697,40	1261,55
697,58	1290,22
697,76	1159,15
697,95	1255,40
698,13	1288,17
698,32	1286,12
698,50	1277,93
698,68	1247,21
698,87	1261,55
699,05	1261,55
699,24	1200,11
699,42	1284,08
699,61	1253,36
699,79	1282,03
699,97	1296,36
700,16	1302,51
700,34	1282,03
700,53	1286,12
700,71	1290,22
700,89	1222,64
701,08	1255,40
701,26	1249,26
701,45	1282,03
701,63	1239,02
701,81	1265,64
702,00	1247,21
702,18	1220,59
702,37	1236,97
702,55	1314,80
702,73	1337,32
702,92	1265,64
703,10	1257,45
703,28	1288,17
703,47	1241,07
703,65	1257,45
703,84	1263,60
704,02	1222,64
704,20	1320,94
704,39	1224,69
704,57	1259,50
704,75	1224,69
704,94	1167,34
705,12	1279,98
705,30	1306,60
705,49	1306,60
705,67	1218,54
705,86	1236,97
706,04	1306,60
706,22	1306,60
706,41	1224,69
706,59	1269,74
706,77	1220,59
706,96	1247,21
707,14	1265,64
707,32	1349,61
707,51	1243,12
707,69	1296,36
707,87	1349,61
708,06	1255,40
708,24	1243,12
708,42	1300,46
708,61	1251,31
708,79	1224,69
708,97	1245,16
709,16	1261,55
709,34	1288,17
709,52	1294,32
709,71	1265,64
709,89	1286,12
710,07	1284,08
710,26	1325,04
710,44	1214,45
710,62	1247,21
710,80	1298,41
710,99	1263,60
711,17	1245,16
711,35	1269,74
711,54	1247,21
711,72	1279,98
711,90	1232,88
712,09	1273,84
712,27	1187,82
712,45	1345,52
712,63	1325,04
712,82	1222,64
713,00	1284,08
713,18	1271,79
713,37	1245,16
713,55	1263,60
713,73	1257,45
713,91	1198,06
714,10	1286,12
714,28	1247,21
714,46	1265,64
714,65	1218,54
714,83	1257,45
715,01	1351,66
715,19	1247,21
715,38	1298,41
715,56	1304,56
715,74	1306,60
715,92	1239,02
716,11	1269,74
716,29	1275,88
716,47	1212,40
716,65	1318,89
716,84	1279,98
717,02	1304,56
717,20	1333,23
717,38	1245,16
717,57	1234,93
717,75	1288,17
717,93	1228,78
718,11	1263,60
718,30	1169,39
718,48	1300,46
718,66	1214,45
718,84	1322,99
719,03	1253,36
719,21	1198,06
719,39	1269,74
719,57	1271,79
719,75	1298,41
719,94	1228,78
720,12	1265,64
720,30	1294,32
720,48	1277,93
720,67	1271,79
720,85	1282,03
721,03	1206,25
721,21	1228,78
721,39	1298,41
721,58	1306,60
721,76	1353,71
721,94	1257,45
722,12	1271,79
722,30	1263,60
722,49	1214,45
722,67	1327,08
722,85	1251,31
723,03	1259,50
723,21	1241,07
723,40	1366,00
723,58	1214,45
723,76	1294,32
723,94	1320,94
724,12	1279,98
724,30	1310,70
724,49	1220,59
724,67	1226,73
724,85	1239,02
725,03	1306,60
725,21	1222,64
725,40	1226,73
725,58	1302,51
725,76	1228,78
725,94	1263,60
726,12	1220,59
726,30	1325,04
726,49	1275,88
726,67	1290,22
726,85	1275,88
727,03	1263,60
727,21	1265,64
727,39	1249,26
727,57	1224,69
727,76	1232,88
727,94	1331,18
728,12	1277,93
728,30	1298,41
728,48	1347,56
728,66	1282,03
728,84	1263,60
729,03	1220,59
729,21	1249,26
729,39	1249,26
729,57	1298,41
729,75	1189,87
729,93	1198,06
730,11	1273,84
730,30	1247,21
730,48	1320,94
730,66	1316,84
730,84	1302,51
731,02	1218,54
731,20	1279,98
731,38	1296,36
731,56	1282,03
731,74	1241,07
731,93	1171,44
732,11	1212,40
732,29	1286,12
732,47	1286,12
732,65	1290,22
732,83	1273,84
733,01	1288,17
733,19	1249,26
733,37	1341,42
733,56	1245,16
733,74	1236,97
733,92	1302,51
734,10	1294,32
734,28	1234,93
734,46	1257,45
734,64	1257,45
734,82	1265,64
735,00	1259,50
735,18	1298,41
735,36	1288,17
735,54	1247,21
735,73	1286,12
735,91	1216,49
736,09	1267,69
736,27	1320,94
736,45	1300,46
736,63	1234,93
736,81	1304,56
736,99	1245,16
737,17	1284,08
737,35	1273,84
737,53	1304,56
737,71	1253,36
737,89	1263,60
738,07	1304,56
738,25	1298,41
738,43	1277,93
738,61	1282,03
738,80	1265,64
738,98	1249,26
739,16	1224,69
739,34	1269,74
739,52	1257,45
739,70	1263,60
739,88	1279,98
740,06	1286,12
740,24	1259,50
740,42	1296,36
740,60	1273,84
740,78	1253,36
740,96	1271,79
741,14	1329,13
741,32	1292,27
741,50	1345,52
741,68	1290,22
741,86	1249,26
742,04	1273,84
742,22	1337,32
742,40	1273,84
742,58	1286,12
742,76	1277,93
742,94	1245,16
743,12	1271,79
743,30	1290,22
743,48	1288,17
743,66	1222,64
743,84	1284,08
744,02	1183,73
744,20	1245,16
744,38	1265,64
744,56	1341,42
744,74	1245,16
744,92	1271,79
745,10	1320,94
745,28	1204,21
745,46	1273,84
745,64	1241,07
745,82	1265,64
746,00	1296,36
746,18	1306,60
746,36	1212,40
746,54	1331,18
746,72	1241,07
746,90	1265,64
747,08	1232,88
747,26	1239,02
747,44	1253,36
747,62	1179,63
747,80	1265,64
747,98	1284,08
748,15	1282,03
748,33	1261,55
748,51	1269,74
748,69	1255,40
748,87	1243,12
749,05	1263,60
749,23	1304,56
749,41	1232,88
749,59	1257,45
749,77	1267,69
749,95	1306,60
750,13	1302,51
750,31	1298,41
750,49	1202,16
750,67	1288,17
750,85	1267,69
751,03	1269,74
751,20	1282,03
751,38	1273,84
751,56	1273,84
751,74	1249,26
751,92	1290,22
752,10	1314,80
752,28	1249,26
752,46	1265,64
752,64	1224,69
752,82	1267,69
753,00	1275,88
753,18	1294,32
753,35	1253,36
753,53	1257,45
753,71	1286,12
753,89	1288,17
754,07	1226,73
754,25	1294,32
754,43	1267,69
754,61	1234,93
754,79	1314,80
754,97	1275,88
755,14	1212,40
755,32	1177,58
755,50	1308,65
755,68	1282,03
755,86	1312,75
756,04	1292,27
756,22	1249,26
756,40	1273,84
756,57	1318,89
756,75	1265,64
756,93	1261,55
757,11	1292,27
757,29	1292,27
757,47	1284,08
757,65	1198,06
757,82	1224,69
758,00	1228,78
758,18	1347,56
758,36	1243,12
758,54	1329,13
758,72	1187,82
758,90	1232,88
759,07	1200,11
759,25	1308,65
759,43	1292,27
759,61	1306,60
759,79	1363,95
759,97	1196,01
760,15	1394,67
760,32	1253,36
760,50	1261,55
760,68	1290,22
760,86	1335,28
761,04	1269,74
761,22	1341,42
761,39	1292,27
761,57	1249,26
761,75	1253,36
761,93	1269,74
762,11	1298,41
762,28	1277,93
762,46	1257,45
762,64	1261,55
762,82	1255,40
763,00	1294,32
763,18	1210,35
763,35	1294,32
763,53	1298,41
763,71	1247,21
763,89	1265,64
764,07	1181,68
764,24	1214,45
764,42	1298,41
764,60	1296,36
764,78	1245,16
764,96	1300,46
765,13	1261,55
765,31	1339,37
765,49	1249,26
765,67	1224,69
765,84	1189,87
766,02	1232,88
766,20	1239,02
766,38	1218,54
766,56	1257,45
766,73	1337,32
766,91	1325,04
767,09	1271,79
767,27	1292,27
767,44	1269,74
767,62	1306,60
767,80	1208,30
767,98	1286,12
768,15	1282,03
768,33	1296,36
768,51	1243,12
768,69	1325,04
768,87	1300,46
769,04	1267,69
769,22	1288,17
769,40	1310,70
769,58	1269,74
769,75	1310,70
769,93	1269,74
770,11	1200,11
770,28	1316,84
770,46	1259,50
770,64	1204,21
770,82	1236,97
770,99	1271,79
771,17	1265,64
771,35	1310,70
771,53	1243,12
771,70	1245,16
771,88	1296,36
772,06	1230,83
772,23	1269,74
772,41	1212,40
772,59	1300,46
772,77	1177,58
772,94	1284,08
773,12	1341,42
773,30	1265,64
773,47	1247,21
773,65	1249,26
773,83	1282,03
774,01	1204,21
774,18	1261,55
774,36	1277,93
774,54	1290,22
774,71	1249,26
774,89	1300,46
775,07	1277,93
775,24	1310,70
775,42	1282,03
775,60	1288,17
775,78	1259,50
775,95	1271,79
776,13	1222,64
776,31	1288,17
776,48	1241,07
776,66	1310,70
776,84	1304,56
777,01	1273,84
777,19	1210,35
777,37	1331,18
777,54	1275,88
777,72	1206,25
777,90	1310,70
778,07	1265,64
778,25	1286,12
778,43	1249,26
778,60	1212,40
778,78	1273,84
778,96	1114,10
779,13	1279,98
779,31	1212,40
779,49	1341,42
779,66	1259,50
779,84	1267,69
780,01	1259,50
780,19	1261,55
780,37	1288,17
780,54	1306,60
780,72	1249,26
780,90	1265,64
781,07	1288,17
781,25	1304,56
781,43	1204,21
781,60	1302,51
781,78	1255,40
781,95	1241,07
782,13	1261,55
782,31	1284,08
782,48	1255,40
782,66	1370,09
782,83	1318,89
783,01	1294,32
783,19	1239,02
783,36	1265,64
783,54	1306,60
783,72	1296,36
783,89	1294,32
784,07	1288,17
784,24	1271,79
784,42	1296,36
784,60	1239,02
784,77	1282,03
784,95	1312,75
785,12	1206,25
785,30	1275,88
785,47	1363,95
785,65	1261,55
785,83	1241,07
786,00	1296,36
786,18	1230,83
786,35	1232,88
786,53	1273,84
786,71	1257,45
786,88	1200,11
787,06	1329,13
787,23	1224,69
787,41	1314,80
787,58	1306,60
787,76	1290,22
787,94	1271,79
788,11	1232,88
788,29	1249,26
788,46	1220,59
788,64	1267,69
788,81	1286,12
788,99	1230,83
789,16	1245,16
789,34	1255,40
789,52	1232,88
789,69	1241,07
789,87	1314,80
790,04	1282,03
790,22	1216,49
790,39	1243,12
790,57	1239,02
790,74	1290,22
790,92	1249,26
791,09	1251,31
791,27	1290,22
791,44	1314,80
791,62	1282,03
791,79	1314,80
791,97	1273,84
792,15	1261,55
792,32	1265,64
792,50	1222,64
792,67	1286,12
792,85	1253,36
793,02	1335,28
793,20	1302,51
793,37	1222,64
793,55	1290,22
793,72	1286,12
793,90	1210,35
794,07	1208,30
794,25	1298,41
794,42	1302,51
794,60	1263,60
794,77	1312,75
794,95	1232,88
795,12	1216,49
795,30	1214,45
795,47	1257,45
795,65	1298,41
795,82	1296,36
796,00	1292,27
796,17	1251,31
796,34	1253,36
796,52	1241,07
796,69	1290,22
796,87	1271,79
797,04	1261,55
797,22	1245,16
797,39	1263,60
797,57	1325,04
797,74	1208,30
797,92	1226,73
798,09	1304,56
798,27	1212,40
798,44	1198,06
798,62	1279,98
798,79	1239,02
798,96	1214,45
799,14	1284,08
799,31	1288,17
799,49	1273,84
799,66	1302,51
799,84	1251,31
800,01	1275,88
800,19	1259,50
800,36	1259,50
800,53	1257,45
800,71	1288,17
800,88	1214,45
801,06	1234,93
801,23	1253,36
801,41	1355,76
801,58	1212,40
801,75	1355,76
801,93	1302,51
802,10	1265,64
802,28	1245,16
802,45	1191,92
802,63	1296,36
802,80	1253,36
802,97	1286,12
803,15	1218,54
803,32	1259,50
803,50	1261,55
803,67	1226,73
803,84	1218,54
804,02	1212,40
804,19	1284,08
804,37	1245,16
804,54	1247,21
804,71	1234,93
804,89	1234,93
805,06	1247,21
805,24	1257,45
805,41	1179,63
805,58	1222,64
805,76	1202,16
805,93	1322,99
806,10	1298,41
806,28	1224,69
806,45	1282,03
806,63	1234,93
806,80	1271,79
806,97	1279,98
807,15	1267,69
807,32	1265,64
807,49	1343,47
807,67	1204,21
807,84	1279,98
808,01	1222,64
808,19	1249,26
808,36	1277,93
808,54	1177,58
808,71	1218,54
808,88	1271,79
809,06	1216,49
809,23	1265,64
809,40	1271,79
809,58	1255,40
809,75	1300,46
809,92	1304,56
810,10	1196,01
810,27	1306,60
810,44	1279,98
810,62	1286,12
810,79	1279,98
810,96	1302,51
811,14	1253,36
811,31	1327,08
811,48	1159,15
811,66	1325,04
811,83	1253,36
812,00	1224,69
812,18	1249,26
812,35	1269,74
812,52	1253,36
812,69	1286,12
812,87	1222,64
813,04	1292,27
813,21	1239,02
813,39	1241,07
813,56	1204,21
813,73	1230,83
813,91	1271,79
814,08	1210,35
814,25	1312,75
814,42	1316,84
814,60	1159,15
814,77	1329,13
814,94	1249,26
815,12	1247,21
815,29	1337,32
815,46	1288,17
815,63	1314,80
815,81	1337,32
815,98	1286,12
816,15	1263,60
816,33	1290,22
816,50	1263,60
816,67	1298,41
816,84	1277,93
817,02	1249,26
817,19	1320,94
817,36	1263,60
817,53	1259,50
817,71	1286,12
817,88	1286,12
818,05	1183,73
818,22	1286,12
818,40	1296,36
818,57	1277,93
818,74	1253,36
818,91	1230,83
819,09	1368,04
819,26	1312,75
819,43	1259,50
819,60	1241,07
819,78	1312,75
819,95	1298,41
820,12	1202,16
820,29	1277,93
820,47	1271,79
820,64	1296,36
820,81	1220,59
820,98	1253,36
821,15	1249,26
821,33	1286,12
821,50	1298,41
821,67	1271,79
821,84	1300,46
822,02	1327,08
822,19	1271,79
822,36	1204,21
822,53	1214,45
822,70	1290,22
822,88	1218,54
823,05	1302,51
823,22	1224,69
823,39	1273,84
823,56	1212,40
823,74	1241,07
823,91	1335,28
824,08	1288,17
824,25	1314,80
824,42	1314,80
824,60	1251,31
824,77	1279,98
824,94	1363,95
825,11	1257,45
825,28	1327,08
825,45	1304,56
825,63	1224,69
825,80	1175,53
825,97	1288,17
826,14	1259,50
826,31	1228,78
826,48	1277,93
826,66	1284,08
826,83	1220,59
827,00	1239,02
827,17	1306,60
827,34	1312,75
827,51	1253,36
827,69	1300,46
827,86	1239,02
828,03	1153,01
828,20	1339,37
828,37	1304,56
828,54	1269,74
828,71	1275,88
828,89	1267,69
829,06	1253,36
829,23	1187,82
829,40	1259,50
829,57	1325,04
829,74	1259,50
829,91	1269,74
830,09	1251,31
830,26	1310,70
830,43	1243,12
830,60	1288,17
830,77	1286,12
830,94	1296,36
831,11	1218,54
831,28	1279,98
831,46	1294,32
831,63	1206,25
831,80	1290,22
831,97	1273,84
832,14	1277,93
832,31	1312,75
832,48	1216,49
832,65	1292,27
832,82	1228,78
832,99	1308,65
833,17	1308,65
833,34	1380,33
833,51	1279,98
833,68	1296,36
833,85	1265,64
834,02	1245,16
834,19	1279,98
834,36	1220,59
834,53	1271,79
834,70	1308,65
834,87	1310,70
835,04	1263,60
835,22	1214,45
835,39	1282,03
835,56	1290,22
835,73	1331,18
835,90	1196,01
836,07	1226,73
836,24	1286,12
836,41	1265,64
836,58	1263,60
836,75	1226,73
836,92	1253,36
837,09	1298,41
837,26	1339,37
837,43	1239,02
837,60	1325,04
837,77	1255,40
837,94	1224,69
838,12	1210,35
838,29	1261,55
838,46	1261,55
838,63	1259,50
838,80	1306,60
838,97	1255,40
839,14	1273,84
839,31	1300,46
839,48	1339,37
839,65	1255,40
839,82	1298,41
839,99	1318,89
840,16	1241,07
840,33	1191,92
840,50	1279,98
840,67	1236,97
840,84	1228,78
841,01	1253,36
841,18	1210,35
841,35	1269,74
841,52	1294,32
841,69	1329,13
841,86	1292,27
842,03	1275,88
842,20	1351,66
842,37	1265,64
842,54	1331,18
842,71	1263,60
842,88	1271,79
843,05	1255,40
843,22	1269,74
843,39	1253,36
843,56	1253,36
843,73	1218,54
843,90	1275,88
844,07	1212,40
844,24	1296,36
844,41	1191,92
844,58	1314,80
844,75	1288,17
844,92	1212,40
845,09	1263,60
845,26	1294,32
845,43	1216,49
845,60	1228,78
845,77	1271,79
845,94	1320,94
846,10	1302,51
846,27	1294,32
846,44	1294,32
846,61	1310,70
846,78	1327,08
846,95	1318,89
847,12	1253,36
847,29	1298,41
847,46	1245,16
847,63	1249,26
847,80	1306,60
847,97	1271,79
848,14	1312,75
848,31	1292,27
848,48	1314,80
848,65	1314,80
848,82	1269,74
848,98	1300,46
849,15	1222,64
849,32	1320,94
849,49	1273,84
849,66	1310,70
849,83	1239,02
850,00	1218,54
850,17	1263,60
850,34	1232,88
850,51	1224,69
850,68	1271,79
850,85	1269,74
851,01	1249,26
851,18	1271,79
851,35	1251,31
851,52	1304,56
851,69	1308,65
851,86	1218,54
852,03	1243,12
852,20	1322,99
852,37	1282,03
852,53	1306,60
852,70	1316,84
852,87	1275,88
853,04	1288,17
853,21	1279,98
853,38	1304,56
853,55	1359,85
853,72	1220,59
853,89	1232,88
854,05	1329,13
854,22	1341,42
854,39	1234,93
854,56	1234,93
854,73	1193,97
854,90	1210,35
855,07	1279,98
855,23	1282,03
855,40	1173,49
855,57	1337,32
855,74	1247,21
855,91	1263,60
856,08	1312,75
856,25	1290,22
856,41	1310,70
856,58	1349,61
856,75	1202,16
856,92	1355,76
857,09	1329,13
857,26	1294,32
857,42	1290,22
857,59	1265,64
857,76	1318,89
857,93	1335,28
858,10	1259,50
858,27	1251,31
858,43	1247,21
858,60	1259,50
858,77	1267,69
858,94	1253,36
859,11	1302,51
859,27	1277,93
859,44	1277,93
859,61	1234,93
859,78	1263,60
859,95	1212,40
860,12	1247,21
860,28	1245,16
860,45	1271,79
860,62	1267,69
860,79	1259,50
860,95	1335,28
861,12	1226,73
861,29	1259,50
861,46	1216,49
861,63	1228,78
861,79	1304,56
861,96	1304,56
862,13	1224,69
862,30	1269,74
862,47	1275,88
862,63	1232,88
862,80	1318,89
862,97	1239,02
863,14	1245,16
863,30	1284,08
863,47	1230,83
863,64	1282,03
863,81	1273,84
863,97	1245,16
864,14	1290,22
864,31	1312,75
864,48	1232,88
864,65	1191,92
864,81	1290,22
864,98	1335,28
865,15	1296,36
865,32	1245,16
865,48	1251,31
865,65	1255,40
865,82	1277,93
865,98	1298,41
866,15	1247,21
866,32	1277,93
866,49	1224,69
866,65	1230,83
866,82	1253,36
866,99	1273,84
867,16	1316,84
867,32	1277,93
867,49	1253,36
867,66	1279,98
867,83	1247,21
867,99	1239,02
868,16	1222,64
868,33	1232,88
868,49	1232,88
868,66	1294,32
868,83	1308,65
868,99	1275,88
869,16	1257,45
869,33	1290,22
869,50	1222,64
869,66	1257,45
869,83	1253,36
870,00	1265,64
870,16	1296,36
870,33	1312,75
870,50	1245,16
870,66	1247,21
870,83	1273,84
871,00	1290,22
871,17	1314,80
871,33	1296,36
871,50	1312,75
871,67	1271,79
871,83	1220,59
872,00	1327,08
872,17	1214,45
872,33	1239,02
872,50	1333,23
872,67	1208,30
872,83	1273,84
873,00	1267,69
873,17	1273,84
873,33	1327,08
873,50	1265,64
873,67	1243,12
873,83	1279,98
874,00	1232,88
874,16	1339,37
874,33	1325,04
874,50	1331,18
874,66	1263,60
874,83	1290,22
875,00	1247,21
875,16	1167,34
875,33	1259,50
875,50	1226,73
875,66	1216,49
875,83	1239,02
875,99	1363,95
876,16	1267,69
876,33	1234,93
876,49	1314,80
876,66	1271,79
876,83	1310,70
876,99	1224,69
877,16	1325,04
877,32	1279,98
877,49	1263,60
877,66	1245,16
877,82	1241,07
877,99	1257,45
878,15	1269,74
878,32	1255,40
878,49	1257,45
878,65	1232,88
878,82	1351,66
878,98	1261,55
879,15	1279,98
879,32	1226,73
879,48	1282,03
879,65	1163,25
879,81	1273,84
879,98	1239,02
880,15	1275,88
880,31	1294,32
880,48	1275,88
880,64	1173,49
880,81	1206,25
880,97	1232,88
881,14	1187,82
881,31	1189,87
881,47	1269,74
881,64	1226,73
881,80	1243,12
881,97	1224,69
882,13	1329,13
882,30	1327,08
882,47	1282,03
882,63	1259,50
882,80	1275,88
882,96	1253,36
883,13	1275,88
883,29	1279,98
883,46	1236,97
883,62	1269,74
883,79	1304,56
883,95	1200,11
884,12	1290,22
884,29	1202,16
884,45	1236,97
884,62	1193,97
884,78	1265,64
884,95	1288,17
885,11	1273,84
885,28	1314,80
885,44	1251,31
885,61	1290,22
885,77	1228,78
885,94	1200,11
886,10	1298,41
886,27	1255,40
886,43	1366,00
886,60	1265,64
886,76	1239,02
886,93	1337,32
887,09	1255,40
887,26	1271,79
887,42	1214,45
887,59	1341,42
887,75	1232,88
887,92	1263,60
888,08	1279,98
888,25	1241,07
888,41	1279,98
888,58	1286,12
888,74	1284,08
888,91	1243,12
>>>>>End Processed Spectral Data<<<<<
