SpectraSuite Data File
++++++++++++++++++++++++++++++++++++
Date: Sun Apr 03 16:58:34 CEST 2016
User: root
Dark Spectrum Present: No
Reference Spectrum Present: No
Number of Sampled Component Spectra: 1
Spectrometers: USB4C02835
Integration Time (usec): 10000 (USB4C02835)
Spectra Averaged: 1 (USB4C02835)
Boxcar Smoothing: 0 (USB4C02835)
Correct for Electrical Dark: No (USB4C02835)
Strobe/Lamp Enabled: No (USB4C02835)
Correct for Detector Non-linearity: No (USB4C02835)
Correct for Stray Light: No (USB4C02835)
Number of Pixels in Processed Spectrum: 3648
>>>>>Begin Processed Spectral Data<<<<<
177,47	1228,78
177,69	1228,78
177,91	1228,78
178,13	1312,75
178,36	1222,64
178,58	1273,84
178,80	1249,26
179,02	1333,23
179,24	1261,55
179,46	1189,87
179,68	1284,08
179,90	1306,60
180,13	1273,84
180,35	1259,50
180,57	1279,98
180,79	1322,99
181,01	1284,08
181,23	1187,82
181,45	1308,65
181,67	1322,99
181,90	1267,69
182,12	1228,78
182,34	1277,93
182,56	1275,88
182,78	1316,84
183,00	1239,02
183,22	1239,02
183,44	1292,27
183,66	1279,98
183,89	1269,74
184,11	1300,46
184,33	1222,64
184,55	1279,98
184,77	1253,36
184,99	1243,12
185,21	1220,59
185,43	1314,80
185,65	1277,93
185,87	1359,85
186,10	1273,84
186,32	1296,36
186,54	1316,84
186,76	1230,83
186,98	1257,45
187,20	1230,83
187,42	1214,45
187,64	1282,03
187,86	1331,18
188,08	1271,79
188,30	1265,64
188,52	1314,80
188,75	1308,65
188,97	1273,84
189,19	1243,12
189,41	1265,64
189,63	1255,40
189,85	1181,68
190,07	1279,98
190,29	1294,32
190,51	1249,26
190,73	1316,84
190,95	1292,27
191,17	1277,93
191,39	1181,68
191,61	1339,37
191,84	1339,37
192,06	1304,56
192,28	1284,08
192,50	1294,32
192,72	1239,02
192,94	1249,26
193,16	1284,08
193,38	1333,23
193,60	1241,07
193,82	1228,78
194,04	1343,47
194,26	1296,36
194,48	1279,98
194,70	1298,41
194,92	1198,06
195,14	1282,03
195,36	1325,04
195,58	1249,26
195,80	1298,41
196,02	1273,84
196,24	1292,27
196,46	1249,26
196,69	1193,97
196,91	1288,17
197,13	1247,21
197,35	1210,35
197,57	1290,22
197,79	1255,40
198,01	1202,16
198,23	1290,22
198,45	1337,32
198,67	1228,78
198,89	1269,74
199,11	1304,56
199,33	1314,80
199,55	1269,74
199,77	1275,88
199,99	1210,35
200,21	1251,31
200,43	1304,56
200,65	1228,78
200,87	1296,36
201,09	1282,03
201,31	1212,40
201,53	1355,76
201,75	1318,89
201,97	1224,69
202,19	1236,97
202,41	1327,08
202,63	1296,36
202,85	1206,25
203,07	1259,50
203,29	1279,98
203,51	1241,07
203,73	1337,32
203,95	1245,16
204,17	1314,80
204,39	1288,17
204,61	1230,83
204,83	1224,69
205,05	1269,74
205,27	1249,26
205,49	1206,25
205,71	1284,08
205,93	1187,82
206,15	1298,41
206,37	1304,56
206,59	1318,89
206,81	1312,75
207,03	1271,79
207,25	1277,93
207,47	1263,60
207,69	1290,22
207,91	1216,49
208,13	1318,89
208,34	1255,40
208,56	1296,36
208,78	1327,08
209,00	1251,31
209,22	1308,65
209,44	1308,65
209,66	1284,08
209,88	1296,36
210,10	1308,65
210,32	1251,31
210,54	1228,78
210,76	1271,79
210,98	1316,84
211,20	1251,31
211,42	1216,49
211,64	1232,88
211,86	1263,60
212,08	1300,46
212,30	1251,31
212,52	1269,74
212,74	1296,36
212,96	1253,36
213,17	1261,55
213,39	1257,45
213,61	1257,45
213,83	1257,45
214,05	1302,51
214,27	1267,69
214,49	1282,03
214,71	1341,42
214,93	1257,45
215,15	1267,69
215,37	1251,31
215,59	1263,60
215,81	1249,26
216,03	1298,41
216,24	1284,08
216,46	1212,40
216,68	1273,84
216,90	1214,45
217,12	1282,03
217,34	1236,97
217,56	1322,99
217,78	1198,06
218,00	1239,02
218,22	1306,60
218,44	1292,27
218,66	1253,36
218,87	1282,03
219,09	1226,73
219,31	1224,69
219,53	1286,12
219,75	1298,41
219,97	1273,84
220,19	1257,45
220,41	1271,79
220,63	1290,22
220,85	1288,17
221,06	1271,79
221,28	1251,31
221,50	1249,26
221,72	1267,69
221,94	1265,64
222,16	1271,79
222,38	1279,98
222,60	1239,02
222,82	1218,54
223,03	1257,45
223,25	1232,88
223,47	1288,17
223,69	1290,22
223,91	1247,21
224,13	1257,45
224,35	1314,80
224,57	1255,40
224,78	1253,36
225,00	1318,89
225,22	1222,64
225,44	1253,36
225,66	1298,41
225,88	1318,89
226,10	1257,45
226,32	1345,52
226,53	1230,83
226,75	1241,07
226,97	1245,16
227,19	1384,43
227,41	1247,21
227,63	1226,73
227,85	1296,36
228,06	1314,80
228,28	1343,47
228,50	1322,99
228,72	1277,93
228,94	1257,45
229,16	1267,69
229,37	1275,88
229,59	1253,36
229,81	1251,31
230,03	1249,26
230,25	1263,60
230,47	1370,09
230,69	1261,55
230,90	1314,80
231,12	1345,52
231,34	1286,12
231,56	1273,84
231,78	1267,69
232,00	1216,49
232,21	1245,16
232,43	1343,47
232,65	1243,12
232,87	1282,03
233,09	1253,36
233,30	1279,98
233,52	1165,29
233,74	1212,40
233,96	1277,93
234,18	1310,70
234,40	1245,16
234,61	1294,32
234,83	1296,36
235,05	1327,08
235,27	1253,36
235,49	1349,61
235,70	1279,98
235,92	1269,74
236,14	1200,11
236,36	1325,04
236,58	1277,93
236,79	1259,50
237,01	1249,26
237,23	1239,02
237,45	1275,88
237,67	1189,87
237,88	1273,84
238,10	1366,00
238,32	1286,12
238,54	1200,11
238,76	1292,27
238,97	1292,27
239,19	1249,26
239,41	1290,22
239,63	1273,84
239,85	1302,51
240,06	1277,93
240,28	1263,60
240,50	1282,03
240,72	1277,93
240,93	1288,17
241,15	1206,25
241,37	1257,45
241,59	1314,80
241,81	1196,01
242,02	1259,50
242,24	1337,32
242,46	1284,08
242,68	1253,36
242,89	1294,32
243,11	1290,22
243,33	1273,84
243,55	1214,45
243,76	1249,26
243,98	1241,07
244,20	1189,87
244,42	1310,70
244,64	1286,12
244,85	1312,75
245,07	1306,60
245,29	1304,56
245,51	1361,90
245,72	1320,94
245,94	1269,74
246,16	1269,74
246,38	1370,09
246,59	1265,64
246,81	1265,64
247,03	1296,36
247,24	1249,26
247,46	1200,11
247,68	1320,94
247,90	1228,78
248,11	1282,03
248,33	1241,07
248,55	1339,37
248,77	1228,78
248,98	1300,46
249,20	1320,94
249,42	1253,36
249,64	1302,51
249,85	1218,54
250,07	1257,45
250,29	1263,60
250,50	1296,36
250,72	1263,60
250,94	1322,99
251,16	1304,56
251,37	1347,56
251,59	1247,21
251,81	1257,45
252,02	1292,27
252,24	1279,98
252,46	1277,93
252,68	1290,22
252,89	1331,18
253,11	1239,02
253,33	1259,50
253,54	1306,60
253,76	1257,45
253,98	1267,69
254,20	1349,61
254,41	1234,93
254,63	1259,50
254,85	1273,84
255,06	1312,75
255,28	1292,27
255,50	1239,02
255,71	1224,69
255,93	1257,45
256,15	1212,40
256,36	1286,12
256,58	1251,31
256,80	1222,64
257,02	1218,54
257,23	1243,12
257,45	1277,93
257,67	1294,32
257,88	1284,08
258,10	1234,93
258,32	1232,88
258,53	1304,56
258,75	1282,03
258,97	1236,97
259,18	1175,53
259,40	1286,12
259,62	1206,25
259,83	1277,93
260,05	1271,79
260,27	1271,79
260,48	1302,51
260,70	1249,26
260,92	1241,07
261,13	1296,36
261,35	1247,21
261,57	1255,40
261,78	1349,61
262,00	1292,27
262,22	1337,32
262,43	1282,03
262,65	1279,98
262,86	1193,97
263,08	1292,27
263,30	1298,41
263,51	1206,25
263,73	1325,04
263,95	1247,21
264,16	1224,69
264,38	1239,02
264,60	1251,31
264,81	1275,88
265,03	1277,93
265,25	1212,40
265,46	1322,99
265,68	1269,74
265,89	1261,55
266,11	1226,73
266,33	1271,79
266,54	1226,73
266,76	1249,26
266,98	1220,59
267,19	1255,40
267,41	1331,18
267,62	1312,75
267,84	1355,76
268,06	1316,84
268,27	1253,36
268,49	1245,16
268,70	1255,40
268,92	1271,79
269,14	1175,53
269,35	1337,32
269,57	1320,94
269,79	1239,02
270,00	1183,73
270,22	1255,40
270,43	1200,11
270,65	1179,63
270,87	1261,55
271,08	1212,40
271,30	1361,90
271,51	1320,94
271,73	1253,36
271,95	1279,98
272,16	1294,32
272,38	1273,84
272,59	1269,74
272,81	1234,93
273,02	1206,25
273,24	1290,22
273,46	1263,60
273,67	1210,35
273,89	1243,12
274,10	1271,79
274,32	1263,60
274,54	1249,26
274,75	1282,03
274,97	1284,08
275,18	1290,22
275,40	1181,68
275,61	1282,03
275,83	1308,65
276,05	1308,65
276,26	1292,27
276,48	1251,31
276,69	1282,03
276,91	1279,98
277,12	1355,76
277,34	1275,88
277,55	1304,56
277,77	1302,51
277,99	1347,56
278,20	1304,56
278,42	1298,41
278,63	1269,74
278,85	1310,70
279,06	1312,75
279,28	1314,80
279,49	1220,59
279,71	1282,03
279,93	1263,60
280,14	1271,79
280,36	1245,16
280,57	1353,71
280,79	1234,93
281,00	1306,60
281,22	1241,07
281,43	1230,83
281,65	1212,40
281,86	1279,98
282,08	1282,03
282,29	1308,65
282,51	1302,51
282,73	1310,70
282,94	1304,56
283,16	1273,84
283,37	1257,45
283,59	1253,36
283,80	1216,49
284,02	1300,46
284,23	1245,16
284,45	1290,22
284,66	1245,16
284,88	1314,80
285,09	1339,37
285,31	1286,12
285,52	1292,27
285,74	1249,26
285,95	1292,27
286,17	1226,73
286,38	1261,55
286,60	1234,93
286,81	1234,93
287,03	1265,64
287,24	1236,97
287,46	1286,12
287,67	1267,69
287,89	1279,98
288,10	1241,07
288,32	1214,45
288,53	1265,64
288,75	1271,79
288,96	1312,75
289,18	1273,84
289,39	1306,60
289,61	1232,88
289,82	1312,75
290,04	1343,47
290,25	1288,17
290,47	1353,71
290,68	1329,13
290,90	1302,51
291,11	1273,84
291,33	1339,37
291,54	1327,08
291,76	1284,08
291,97	1290,22
292,18	1249,26
292,40	1212,40
292,61	1253,36
292,83	1292,27
293,04	1243,12
293,26	1245,16
293,47	1245,16
293,69	1218,54
293,90	1239,02
294,12	1335,28
294,33	1298,41
294,55	1322,99
294,76	1271,79
294,97	1236,97
295,19	1267,69
295,40	1245,16
295,62	1282,03
295,83	1345,52
296,05	1232,88
296,26	1204,21
296,48	1353,71
296,69	1187,82
296,90	1241,07
297,12	1245,16
297,33	1243,12
297,55	1273,84
297,76	1271,79
297,98	1263,60
298,19	1292,27
298,41	1232,88
298,62	1306,60
298,83	1269,74
299,05	1282,03
299,26	1312,75
299,48	1269,74
299,69	1193,97
299,90	1210,35
300,12	1292,27
300,33	1265,64
300,55	1261,55
300,76	1249,26
300,98	1251,31
301,19	1224,69
301,40	1255,40
301,62	1286,12
301,83	1316,84
302,05	1253,36
302,26	1239,02
302,47	1279,98
302,69	1218,54
302,90	1335,28
303,12	1257,45
303,33	1228,78
303,54	1196,01
303,76	1288,17
303,97	1251,31
304,19	1191,92
304,40	1212,40
304,61	1296,36
304,83	1298,41
305,04	1267,69
305,26	1331,18
305,47	1206,25
305,68	1249,26
305,90	1290,22
306,11	1263,60
306,33	1296,36
306,54	1267,69
306,75	1282,03
306,97	1300,46
307,18	1314,80
307,39	1257,45
307,61	1261,55
307,82	1236,97
308,04	1249,26
308,25	1206,25
308,46	1288,17
308,68	1306,60
308,89	1245,16
309,10	1183,73
309,32	1298,41
309,53	1247,21
309,74	1251,31
309,96	1208,30
310,17	1253,36
310,39	1337,32
310,60	1290,22
310,81	1234,93
311,03	1298,41
311,24	1282,03
311,45	1267,69
311,67	1232,88
311,88	1343,47
312,09	1220,59
312,31	1245,16
312,52	1214,45
312,73	1341,42
312,95	1273,84
313,16	1243,12
313,37	1253,36
313,59	1302,51
313,80	1296,36
314,01	1271,79
314,23	1222,64
314,44	1183,73
314,65	1261,55
314,87	1251,31
315,08	1275,88
315,29	1206,25
315,51	1255,40
315,72	1263,60
315,93	1216,49
316,15	1308,65
316,36	1288,17
316,57	1290,22
316,79	1310,70
317,00	1288,17
317,21	1269,74
317,43	1279,98
317,64	1200,11
317,85	1249,26
318,07	1292,27
318,28	1318,89
318,49	1288,17
318,70	1267,69
318,92	1222,64
319,13	1322,99
319,34	1341,42
319,56	1183,73
319,77	1249,26
319,98	1243,12
320,20	1282,03
320,41	1230,83
320,62	1228,78
320,83	1251,31
321,05	1284,08
321,26	1216,49
321,47	1228,78
321,69	1243,12
321,90	1300,46
322,11	1298,41
322,32	1196,01
322,54	1300,46
322,75	1288,17
322,96	1236,97
323,18	1279,98
323,39	1282,03
323,60	1265,64
323,81	1269,74
324,03	1263,60
324,24	1275,88
324,45	1300,46
324,66	1296,36
324,88	1234,93
325,09	1245,16
325,30	1263,60
325,52	1255,40
325,73	1286,12
325,94	1275,88
326,15	1214,45
326,37	1279,98
326,58	1325,04
326,79	1255,40
327,00	1263,60
327,22	1255,40
327,43	1290,22
327,64	1210,35
327,85	1222,64
328,07	1277,93
328,28	1302,51
328,49	1269,74
328,70	1279,98
328,92	1386,47
329,13	1216,49
329,34	1226,73
329,55	1259,50
329,76	1329,13
329,98	1292,27
330,19	1310,70
330,40	1257,45
330,61	1298,41
330,83	1255,40
331,04	1269,74
331,25	1263,60
331,46	1228,78
331,68	1286,12
331,89	1290,22
332,10	1294,32
332,31	1306,60
332,52	1183,73
332,74	1294,32
332,95	1277,93
333,16	1239,02
333,37	1177,58
333,58	1290,22
333,80	1261,55
334,01	1226,73
334,22	1286,12
334,43	1230,83
334,64	1298,41
334,86	1327,08
335,07	1310,70
335,28	1265,64
335,49	1241,07
335,70	1253,36
335,92	1271,79
336,13	1296,36
336,34	1271,79
336,55	1282,03
336,76	1239,02
336,98	1279,98
337,19	1290,22
337,40	1232,88
337,61	1288,17
337,82	1263,60
338,04	1300,46
338,25	1331,18
338,46	1216,49
338,67	1183,73
338,88	1257,45
339,09	1167,34
339,31	1259,50
339,52	1249,26
339,73	1316,84
339,94	1216,49
340,15	1224,69
340,36	1310,70
340,58	1298,41
340,79	1290,22
341,00	1277,93
341,21	1302,51
341,42	1259,50
341,63	1279,98
341,85	1331,18
342,06	1243,12
342,27	1218,54
342,48	1318,89
342,69	1234,93
342,90	1247,21
343,12	1296,36
343,33	1279,98
343,54	1261,55
343,75	1282,03
343,96	1220,59
344,17	1255,40
344,38	1267,69
344,60	1208,30
344,81	1261,55
345,02	1304,56
345,23	1214,45
345,44	1251,31
345,65	1302,51
345,86	1261,55
346,07	1218,54
346,29	1312,75
346,50	1267,69
346,71	1306,60
346,92	1273,84
347,13	1296,36
347,34	1261,55
347,55	1265,64
347,76	1271,79
347,98	1191,92
348,19	1265,64
348,40	1363,95
348,61	1273,84
348,82	1292,27
349,03	1261,55
349,24	1234,93
349,45	1261,55
349,66	1320,94
349,88	1232,88
350,09	1249,26
350,30	1228,78
350,51	1314,80
350,72	1216,49
350,93	1298,41
351,14	1269,74
351,35	1234,93
351,56	1159,15
351,77	1327,08
351,99	1271,79
352,20	1308,65
352,41	1325,04
352,62	1282,03
352,83	1220,59
353,04	1265,64
353,25	1228,78
353,46	1282,03
353,67	1288,17
353,88	1208,30
354,09	1284,08
354,30	1261,55
354,52	1304,56
354,73	1298,41
354,94	1267,69
355,15	1259,50
355,36	1255,40
355,57	1239,02
355,78	1292,27
355,99	1329,13
356,20	1257,45
356,41	1273,84
356,62	1257,45
356,83	1294,32
357,04	1208,30
357,25	1290,22
357,46	1253,36
357,68	1292,27
357,89	1314,80
358,10	1308,65
358,31	1279,98
358,52	1304,56
358,73	1243,12
358,94	1306,60
359,15	1165,29
359,36	1275,88
359,57	1167,34
359,78	1331,18
359,99	1300,46
360,20	1312,75
360,41	1279,98
360,62	1304,56
360,83	1312,75
361,04	1263,60
361,25	1275,88
361,46	1253,36
361,67	1241,07
361,88	1249,26
362,09	1284,08
362,30	1232,88
362,51	1279,98
362,72	1310,70
362,93	1257,45
363,14	1290,22
363,35	1296,36
363,56	1290,22
363,78	1206,25
363,99	1198,06
364,20	1294,32
364,41	1339,37
364,62	1222,64
364,83	1304,56
365,04	1214,45
365,25	1269,74
365,46	1275,88
365,67	1241,07
365,88	1228,78
366,09	1255,40
366,30	1228,78
366,51	1306,60
366,72	1318,89
366,93	1314,80
367,14	1298,41
367,35	1239,02
367,56	1325,04
367,77	1265,64
367,98	1253,36
368,18	1277,93
368,39	1273,84
368,60	1284,08
368,81	1220,59
369,02	1361,90
369,23	1298,41
369,44	1228,78
369,65	1300,46
369,86	1245,16
370,07	1277,93
370,28	1300,46
370,49	1253,36
370,70	1290,22
370,91	1269,74
371,12	1298,41
371,33	1251,31
371,54	1333,23
371,75	1290,22
371,96	1282,03
372,17	1255,40
372,38	1327,08
372,59	1241,07
372,80	1288,17
373,01	1286,12
373,22	1284,08
373,43	1302,51
373,64	1288,17
373,85	1290,22
374,06	1302,51
374,26	1284,08
374,47	1241,07
374,68	1265,64
374,89	1257,45
375,10	1255,40
375,31	1249,26
375,52	1310,70
375,73	1310,70
375,94	1239,02
376,15	1294,32
376,36	1220,59
376,57	1204,21
376,78	1234,93
376,99	1245,16
377,20	1259,50
377,40	1304,56
377,61	1275,88
377,82	1204,21
378,03	1279,98
378,24	1296,36
378,45	1249,26
378,66	1298,41
378,87	1284,08
379,08	1253,36
379,29	1290,22
379,50	1265,64
379,71	1265,64
379,91	1232,88
380,12	1220,59
380,33	1216,49
380,54	1290,22
380,75	1249,26
380,96	1191,92
381,17	1226,73
381,38	1296,36
381,59	1208,30
381,80	1206,25
382,00	1204,21
382,21	1216,49
382,42	1282,03
382,63	1294,32
382,84	1245,16
383,05	1167,34
383,26	1273,84
383,47	1253,36
383,68	1308,65
383,88	1306,60
384,09	1304,56
384,30	1259,50
384,51	1261,55
384,72	1239,02
384,93	1239,02
385,14	1236,97
385,35	1322,99
385,55	1275,88
385,76	1320,94
385,97	1241,07
386,18	1316,84
386,39	1339,37
386,60	1284,08
386,81	1286,12
387,02	1302,51
387,22	1239,02
387,43	1310,70
387,64	1341,42
387,85	1273,84
388,06	1259,50
388,27	1290,22
388,48	1193,97
388,68	1400,81
388,89	1230,83
389,10	1243,12
389,31	1265,64
389,52	1245,16
389,73	1302,51
389,93	1181,68
390,14	1277,93
390,35	1261,55
390,56	1284,08
390,77	1282,03
390,98	1253,36
391,18	1232,88
391,39	1220,59
391,60	1202,16
391,81	1318,89
392,02	1255,40
392,23	1284,08
392,43	1241,07
392,64	1300,46
392,85	1306,60
393,06	1277,93
393,27	1267,69
393,47	1257,45
393,68	1296,36
393,89	1253,36
394,10	1282,03
394,31	1220,59
394,52	1310,70
394,72	1302,51
394,93	1310,70
395,14	1232,88
395,35	1302,51
395,56	1263,60
395,76	1251,31
395,97	1210,35
396,18	1275,88
396,39	1247,21
396,60	1234,93
396,80	1239,02
397,01	1253,36
397,22	1335,28
397,43	1255,40
397,64	1277,93
397,84	1255,40
398,05	1259,50
398,26	1273,84
398,47	1282,03
398,67	1220,59
398,88	1265,64
399,09	1288,17
399,30	1255,40
399,51	1316,84
399,71	1279,98
399,92	1245,16
400,13	1253,36
400,34	1249,26
400,54	1257,45
400,75	1279,98
400,96	1275,88
401,17	1296,36
401,37	1253,36
401,58	1202,16
401,79	1318,89
402,00	1316,84
402,21	1253,36
402,41	1236,97
402,62	1259,50
402,83	1273,84
403,04	1232,88
403,24	1310,70
403,45	1220,59
403,66	1212,40
403,87	1230,83
404,07	1269,74
404,28	1298,41
404,49	1251,31
404,70	1263,60
404,90	1259,50
405,11	1306,60
405,32	1257,45
405,52	1286,12
405,73	1249,26
405,94	1255,40
406,15	1247,21
406,35	1298,41
406,56	1290,22
406,77	1267,69
406,98	1292,27
407,18	1325,04
407,39	1216,49
407,60	1312,75
407,80	1304,56
408,01	1279,98
408,22	1245,16
408,43	1214,45
408,63	1275,88
408,84	1239,02
409,05	1261,55
409,25	1263,60
409,46	1284,08
409,67	1257,45
409,88	1282,03
410,08	1265,64
410,29	1259,50
410,50	1277,93
410,70	1226,73
410,91	1298,41
411,12	1331,18
411,32	1269,74
411,53	1290,22
411,74	1376,24
411,95	1173,49
412,15	1222,64
412,36	1302,51
412,57	1310,70
412,77	1247,21
412,98	1290,22
413,19	1304,56
413,39	1232,88
413,60	1277,93
413,81	1230,83
414,01	1314,80
414,22	1290,22
414,43	1259,50
414,63	1251,31
414,84	1286,12
415,05	1282,03
415,25	1275,88
415,46	1245,16
415,67	1228,78
415,87	1241,07
416,08	1294,32
416,29	1331,18
416,49	1329,13
416,70	1245,16
416,91	1267,69
417,11	1230,83
417,32	1239,02
417,53	1273,84
417,73	1306,60
417,94	1220,59
418,15	1359,85
418,35	1216,49
418,56	1228,78
418,77	1275,88
418,97	1196,01
419,18	1208,30
419,38	1286,12
419,59	1341,42
419,80	1296,36
420,00	1263,60
420,21	1298,41
420,42	1300,46
420,62	1290,22
420,83	1226,73
421,04	1263,60
421,24	1288,17
421,45	1314,80
421,65	1310,70
421,86	1236,97
422,07	1224,69
422,27	1261,55
422,48	1261,55
422,69	1327,08
422,89	1191,92
423,10	1257,45
423,30	1224,69
423,51	1298,41
423,72	1261,55
423,92	1322,99
424,13	1224,69
424,33	1406,95
424,54	1325,04
424,75	1310,70
424,95	1249,26
425,16	1275,88
425,36	1234,93
425,57	1279,98
425,78	1333,23
425,98	1304,56
426,19	1308,65
426,39	1337,32
426,60	1269,74
426,81	1247,21
427,01	1214,45
427,22	1275,88
427,42	1245,16
427,63	1220,59
427,83	1255,40
428,04	1335,28
428,25	1273,84
428,45	1339,37
428,66	1298,41
428,86	1308,65
429,07	1275,88
429,28	1255,40
429,48	1232,88
429,69	1290,22
429,89	1337,32
430,10	1259,50
430,30	1271,79
430,51	1282,03
430,71	1351,66
430,92	1247,21
431,13	1204,21
431,33	1271,79
431,54	1255,40
431,74	1224,69
431,95	1275,88
432,15	1236,97
432,36	1327,08
432,56	1236,97
432,77	1308,65
432,98	1296,36
433,18	1247,21
433,39	1279,98
433,59	1241,07
433,80	1279,98
434,00	1259,50
434,21	1402,86
434,41	1255,40
434,62	1269,74
434,82	1277,93
435,03	1302,51
435,23	1308,65
435,44	1247,21
435,64	1282,03
435,85	1290,22
436,06	1273,84
436,26	1288,17
436,47	1269,74
436,67	1232,88
436,88	1314,80
437,08	1249,26
437,29	1320,94
437,49	1245,16
437,70	1325,04
437,90	1241,07
438,11	1236,97
438,31	1273,84
438,52	1257,45
438,72	1263,60
438,93	1265,64
439,13	1204,21
439,34	1277,93
439,54	1273,84
439,75	1222,64
439,95	1261,55
440,16	1316,84
440,36	1251,31
440,57	1275,88
440,77	1228,78
440,98	1322,99
441,18	1247,21
441,39	1284,08
441,59	1202,16
441,80	1263,60
442,00	1269,74
442,21	1239,02
442,41	1308,65
442,62	1318,89
442,82	1327,08
443,02	1337,32
443,23	1222,64
443,43	1284,08
443,64	1253,36
443,84	1277,93
444,05	1241,07
444,25	1255,40
444,46	1294,32
444,66	1247,21
444,87	1220,59
445,07	1288,17
445,28	1232,88
445,48	1228,78
445,69	1320,94
445,89	1218,54
446,09	1341,42
446,30	1282,03
446,50	1247,21
446,71	1208,30
446,91	1273,84
447,12	1284,08
447,32	1212,40
447,53	1228,78
447,73	1353,71
447,93	1282,03
448,14	1181,68
448,34	1226,73
448,55	1314,80
448,75	1257,45
448,96	1304,56
449,16	1284,08
449,36	1279,98
449,57	1204,21
449,77	1306,60
449,98	1279,98
450,18	1294,32
450,39	1296,36
450,59	1279,98
450,79	1218,54
451,00	1329,13
451,20	1282,03
451,41	1286,12
451,61	1298,41
451,81	1279,98
452,02	1312,75
452,22	1214,45
452,43	1249,26
452,63	1255,40
452,84	1259,50
453,04	1259,50
453,24	1294,32
453,45	1220,59
453,65	1216,49
453,86	1343,47
454,06	1284,08
454,26	1372,14
454,47	1288,17
454,67	1296,36
454,87	1259,50
455,08	1249,26
455,28	1333,23
455,49	1183,73
455,69	1265,64
455,89	1363,95
456,10	1298,41
456,30	1275,88
456,51	1267,69
456,71	1210,35
456,91	1226,73
457,12	1284,08
457,32	1320,94
457,52	1265,64
457,73	1273,84
457,93	1232,88
458,14	1239,02
458,34	1277,93
458,54	1284,08
458,75	1230,83
458,95	1214,45
459,15	1273,84
459,36	1271,79
459,56	1345,52
459,76	1196,01
459,97	1265,64
460,17	1271,79
460,37	1320,94
460,58	1257,45
460,78	1259,50
460,99	1255,40
461,19	1310,70
461,39	1300,46
461,60	1286,12
461,80	1327,08
462,00	1261,55
462,21	1202,16
462,41	1253,36
462,61	1314,80
462,82	1257,45
463,02	1261,55
463,22	1304,56
463,43	1300,46
463,63	1273,84
463,83	1255,40
464,04	1265,64
464,24	1239,02
464,44	1198,06
464,64	1228,78
464,85	1265,64
465,05	1261,55
465,25	1294,32
465,46	1271,79
465,66	1296,36
465,86	1374,19
466,07	1234,93
466,27	1308,65
466,47	1290,22
466,68	1265,64
466,88	1284,08
467,08	1282,03
467,29	1167,34
467,49	1241,07
467,69	1308,65
467,89	1249,26
468,10	1261,55
468,30	1275,88
468,50	1277,93
468,71	1206,25
468,91	1298,41
469,11	1320,94
469,31	1257,45
469,52	1277,93
469,72	1263,60
469,92	1308,65
470,13	1198,06
470,33	1251,31
470,53	1298,41
470,73	1249,26
470,94	1298,41
471,14	1331,18
471,34	1277,93
471,54	1298,41
471,75	1335,28
471,95	1290,22
472,15	1236,97
472,36	1273,84
472,56	1187,82
472,76	1327,08
472,96	1292,27
473,17	1265,64
473,37	1236,97
473,57	1314,80
473,77	1265,64
473,98	1312,75
474,18	1257,45
474,38	1329,13
474,58	1226,73
474,79	1312,75
474,99	1218,54
475,19	1247,21
475,39	1286,12
475,60	1267,69
475,80	1222,64
476,00	1265,64
476,20	1277,93
476,41	1271,79
476,61	1255,40
476,81	1310,70
477,01	1292,27
477,21	1204,21
477,42	1310,70
477,62	1243,12
477,82	1277,93
478,02	1271,79
478,23	1269,74
478,43	1288,17
478,63	1288,17
478,83	1271,79
479,03	1255,40
479,24	1312,75
479,44	1236,97
479,64	1294,32
479,84	1226,73
480,04	1245,16
480,25	1292,27
480,45	1284,08
480,65	1261,55
480,85	1314,80
481,06	1257,45
481,26	1236,97
481,46	1255,40
481,66	1290,22
481,86	1277,93
482,06	1271,79
482,27	1284,08
482,47	1286,12
482,67	1304,56
482,87	1251,31
483,07	1277,93
483,28	1304,56
483,48	1308,65
483,68	1234,93
483,88	1247,21
484,08	1218,54
484,29	1216,49
484,49	1259,50
484,69	1277,93
484,89	1306,60
485,09	1294,32
485,29	1300,46
485,50	1230,83
485,70	1279,98
485,90	1267,69
486,10	1216,49
486,30	1271,79
486,50	1204,21
486,71	1224,69
486,91	1267,69
487,11	1265,64
487,31	1310,70
487,51	1220,59
487,71	1173,49
487,91	1269,74
488,12	1193,97
488,32	1241,07
488,52	1236,97
488,72	1261,55
488,92	1206,25
489,12	1239,02
489,32	1292,27
489,53	1257,45
489,73	1222,64
489,93	1351,66
490,13	1224,69
490,33	1277,93
490,53	1214,45
490,73	1335,28
490,94	1183,73
491,14	1300,46
491,34	1302,51
491,54	1222,64
491,74	1339,37
491,94	1273,84
492,14	1273,84
492,34	1200,11
492,54	1269,74
492,75	1239,02
492,95	1245,16
493,15	1300,46
493,35	1249,26
493,55	1288,17
493,75	1271,79
493,95	1294,32
494,15	1255,40
494,35	1282,03
494,56	1185,77
494,76	1312,75
494,96	1349,61
495,16	1271,79
495,36	1263,60
495,56	1284,08
495,76	1167,34
495,96	1275,88
496,16	1251,31
496,36	1277,93
496,56	1196,01
496,77	1294,32
496,97	1302,51
497,17	1312,75
497,37	1265,64
497,57	1298,41
497,77	1349,61
497,97	1279,98
498,17	1239,02
498,37	1239,02
498,57	1355,76
498,77	1296,36
498,97	1245,16
499,17	1279,98
499,38	1251,31
499,58	1206,25
499,78	1181,68
499,98	1249,26
500,18	1269,74
500,38	1253,36
500,58	1247,21
500,78	1224,69
500,98	1294,32
501,18	1351,66
501,38	1296,36
501,58	1275,88
501,78	1220,59
501,98	1234,93
502,18	1286,12
502,38	1314,80
502,58	1265,64
502,78	1288,17
502,98	1275,88
503,18	1226,73
503,38	1318,89
503,59	1255,40
503,79	1224,69
503,99	1322,99
504,19	1300,46
504,39	1296,36
504,59	1253,36
504,79	1259,50
504,99	1288,17
505,19	1298,41
505,39	1269,74
505,59	1216,49
505,79	1245,16
505,99	1253,36
506,19	1243,12
506,39	1327,08
506,59	1265,64
506,79	1265,64
506,99	1222,64
507,19	1306,60
507,39	1204,21
507,59	1236,97
507,79	1232,88
507,99	1279,98
508,19	1259,50
508,39	1355,76
508,59	1265,64
508,79	1204,21
508,99	1253,36
509,19	1269,74
509,39	1261,55
509,59	1218,54
509,79	1308,65
509,99	1286,12
510,19	1271,79
510,39	1249,26
510,59	1257,45
510,79	1220,59
510,99	1294,32
511,19	1232,88
511,39	1241,07
511,59	1216,49
511,79	1304,56
511,99	1318,89
512,19	1277,93
512,38	1282,03
512,58	1253,36
512,78	1288,17
512,98	1310,70
513,18	1228,78
513,38	1275,88
513,58	1290,22
513,78	1189,87
513,98	1298,41
514,18	1349,61
514,38	1263,60
514,58	1261,55
514,78	1251,31
514,98	1277,93
515,18	1263,60
515,38	1288,17
515,58	1288,17
515,78	1241,07
515,98	1228,78
516,18	1286,12
516,38	1325,04
516,57	1290,22
516,77	1282,03
516,97	1343,47
517,17	1261,55
517,37	1257,45
517,57	1286,12
517,77	1292,27
517,97	1245,16
518,17	1314,80
518,37	1292,27
518,57	1214,45
518,77	1306,60
518,97	1251,31
519,16	1306,60
519,36	1232,88
519,56	1345,52
519,76	1339,37
519,96	1263,60
520,16	1327,08
520,36	1245,16
520,56	1265,64
520,76	1320,94
520,96	1275,88
521,16	1261,55
521,35	1234,93
521,55	1316,84
521,75	1241,07
521,95	1312,75
522,15	1243,12
522,35	1275,88
522,55	1222,64
522,75	1214,45
522,95	1316,84
523,14	1271,79
523,34	1245,16
523,54	1322,99
523,74	1282,03
523,94	1331,18
524,14	1243,12
524,34	1206,25
524,54	1322,99
524,73	1224,69
524,93	1232,88
525,13	1249,26
525,33	1277,93
525,53	1259,50
525,73	1226,73
525,93	1279,98
526,13	1265,64
526,32	1306,60
526,52	1263,60
526,72	1298,41
526,92	1236,97
527,12	1241,07
527,32	1216,49
527,52	1302,51
527,71	1239,02
527,91	1204,21
528,11	1220,59
528,31	1206,25
528,51	1288,17
528,71	1310,70
528,90	1263,60
529,10	1173,49
529,30	1292,27
529,50	1279,98
529,70	1255,40
529,90	1253,36
530,09	1302,51
530,29	1249,26
530,49	1290,22
530,69	1322,99
530,89	1294,32
531,09	1298,41
531,28	1249,26
531,48	1206,25
531,68	1230,83
531,88	1255,40
532,08	1277,93
532,28	1247,21
532,47	1249,26
532,67	1292,27
532,87	1271,79
533,07	1372,14
533,27	1165,29
533,46	1306,60
533,66	1232,88
533,86	1257,45
534,06	1198,06
534,26	1247,21
534,45	1269,74
534,65	1228,78
534,85	1335,28
535,05	1327,08
535,25	1277,93
535,44	1282,03
535,64	1298,41
535,84	1232,88
536,04	1243,12
536,24	1263,60
536,43	1300,46
536,63	1243,12
536,83	1224,69
537,03	1187,82
537,22	1288,17
537,42	1282,03
537,62	1263,60
537,82	1265,64
538,02	1277,93
538,21	1347,56
538,41	1265,64
538,61	1257,45
538,81	1232,88
539,00	1273,84
539,20	1232,88
539,40	1271,79
539,60	1279,98
539,79	1271,79
539,99	1290,22
540,19	1204,21
540,39	1263,60
540,58	1222,64
540,78	1322,99
540,98	1214,45
541,18	1294,32
541,37	1273,84
541,57	1284,08
541,77	1171,44
541,97	1267,69
542,16	1296,36
542,36	1310,70
542,56	1189,87
542,76	1300,46
542,95	1325,04
543,15	1222,64
543,35	1374,19
543,54	1216,49
543,74	1339,37
543,94	1241,07
544,14	1224,69
544,33	1265,64
544,53	1263,60
544,73	1236,97
544,93	1325,04
545,12	1236,97
545,32	1314,80
545,52	1224,69
545,71	1296,36
545,91	1247,21
546,11	1251,31
546,30	1263,60
546,50	1273,84
546,70	1353,71
546,90	1294,32
547,09	1318,89
547,29	1304,56
547,49	1243,12
547,68	1245,16
547,88	1236,97
548,08	1282,03
548,27	1224,69
548,47	1249,26
548,67	1222,64
548,87	1271,79
549,06	1267,69
549,26	1251,31
549,46	1298,41
549,65	1249,26
549,85	1241,07
550,05	1331,18
550,24	1325,04
550,44	1269,74
550,64	1302,51
550,83	1298,41
551,03	1253,36
551,23	1265,64
551,42	1333,23
551,62	1267,69
551,82	1271,79
552,01	1189,87
552,21	1275,88
552,41	1304,56
552,60	1183,73
552,80	1286,12
553,00	1271,79
553,19	1271,79
553,39	1239,02
553,59	1232,88
553,78	1224,69
553,98	1222,64
554,17	1300,46
554,37	1249,26
554,57	1288,17
554,76	1259,50
554,96	1275,88
555,16	1228,78
555,35	1263,60
555,55	1267,69
555,75	1257,45
555,94	1257,45
556,14	1208,30
556,33	1251,31
556,53	1273,84
556,73	1249,26
556,92	1290,22
557,12	1286,12
557,32	1255,40
557,51	1253,36
557,71	1284,08
557,90	1331,18
558,10	1239,02
558,30	1253,36
558,49	1198,06
558,69	1304,56
558,88	1310,70
559,08	1243,12
559,28	1247,21
559,47	1269,74
559,67	1271,79
559,86	1345,52
560,06	1241,07
560,26	1333,23
560,45	1255,40
560,65	1292,27
560,84	1271,79
561,04	1284,08
561,24	1322,99
561,43	1273,84
561,63	1236,97
561,82	1286,12
562,02	1273,84
562,22	1296,36
562,41	1290,22
562,61	1249,26
562,80	1279,98
563,00	1314,80
563,19	1202,16
563,39	1288,17
563,59	1314,80
563,78	1286,12
563,98	1300,46
564,17	1251,31
564,37	1277,93
564,56	1284,08
564,76	1277,93
564,96	1249,26
565,15	1288,17
565,35	1310,70
565,54	1216,49
565,74	1263,60
565,93	1257,45
566,13	1294,32
566,32	1257,45
566,52	1288,17
566,71	1206,25
566,91	1314,80
567,11	1288,17
567,30	1257,45
567,50	1257,45
567,69	1288,17
567,89	1267,69
568,08	1243,12
568,28	1267,69
568,47	1261,55
568,67	1245,16
568,86	1232,88
569,06	1234,93
569,25	1224,69
569,45	1275,88
569,64	1322,99
569,84	1206,25
570,04	1284,08
570,23	1312,75
570,43	1224,69
570,62	1267,69
570,82	1216,49
571,01	1265,64
571,21	1249,26
571,40	1263,60
571,60	1247,21
571,79	1208,30
571,99	1300,46
572,18	1294,32
572,38	1189,87
572,57	1322,99
572,77	1245,16
572,96	1279,98
573,16	1261,55
573,35	1320,94
573,55	1249,26
573,74	1282,03
573,94	1288,17
574,13	1228,78
574,33	1257,45
574,52	1325,04
574,71	1292,27
574,91	1265,64
575,10	1308,65
575,30	1277,93
575,49	1202,16
575,69	1153,01
575,88	1247,21
576,08	1296,36
576,27	1245,16
576,47	1259,50
576,66	1273,84
576,86	1261,55
577,05	1296,36
577,25	1296,36
577,44	1247,21
577,64	1304,56
577,83	1232,88
578,02	1275,88
578,22	1253,36
578,41	1265,64
578,61	1267,69
578,80	1245,16
579,00	1255,40
579,19	1259,50
579,39	1273,84
579,58	1236,97
579,77	1253,36
579,97	1249,26
580,16	1206,25
580,36	1267,69
580,55	1269,74
580,75	1314,80
580,94	1288,17
581,13	1228,78
581,33	1234,93
581,52	1220,59
581,72	1314,80
581,91	1214,45
582,11	1255,40
582,30	1257,45
582,49	1249,26
582,69	1249,26
582,88	1241,07
583,08	1308,65
583,27	1208,30
583,47	1247,21
583,66	1286,12
583,85	1277,93
584,05	1300,46
584,24	1261,55
584,44	1282,03
584,63	1222,64
584,82	1292,27
585,02	1292,27
585,21	1253,36
585,41	1243,12
585,60	1312,75
585,79	1339,37
585,99	1191,92
586,18	1257,45
586,37	1247,21
586,57	1273,84
586,76	1316,84
586,96	1314,80
587,15	1269,74
587,34	1273,84
587,54	1232,88
587,73	1218,54
587,93	1304,56
588,12	1263,60
588,31	1265,64
588,51	1253,36
588,70	1288,17
588,89	1269,74
589,09	1294,32
589,28	1222,64
589,47	1257,45
589,67	1232,88
589,86	1259,50
590,06	1337,32
590,25	1239,02
590,44	1265,64
590,64	1200,11
590,83	1284,08
591,02	1251,31
591,22	1191,92
591,41	1290,22
591,60	1279,98
591,80	1212,40
591,99	1212,40
592,18	1216,49
592,38	1257,45
592,57	1265,64
592,76	1255,40
592,96	1275,88
593,15	1288,17
593,34	1267,69
593,54	1290,22
593,73	1288,17
593,92	1296,36
594,12	1230,83
594,31	1212,40
594,50	1312,75
594,70	1275,88
594,89	1322,99
595,08	1253,36
595,28	1269,74
595,47	1273,84
595,66	1292,27
595,86	1320,94
596,05	1308,65
596,24	1226,73
596,43	1265,64
596,63	1257,45
596,82	1214,45
597,01	1286,12
597,21	1222,64
597,40	1267,69
597,59	1271,79
597,79	1273,84
597,98	1290,22
598,17	1249,26
598,36	1255,40
598,56	1245,16
598,75	1267,69
598,94	1296,36
599,14	1331,18
599,33	1224,69
599,52	1263,60
599,71	1267,69
599,91	1277,93
600,10	1220,59
600,29	1265,64
600,48	1286,12
600,68	1261,55
600,87	1239,02
601,06	1247,21
601,26	1304,56
601,45	1341,42
601,64	1263,60
601,83	1216,49
602,03	1212,40
602,22	1265,64
602,41	1294,32
602,60	1269,74
602,80	1277,93
602,99	1310,70
603,18	1290,22
603,37	1296,36
603,57	1220,59
603,76	1220,59
603,95	1343,47
604,14	1322,99
604,34	1216,49
604,53	1259,50
604,72	1265,64
604,91	1275,88
605,10	1279,98
605,30	1265,64
605,49	1265,64
605,68	1226,73
605,87	1249,26
606,07	1290,22
606,26	1236,97
606,45	1257,45
606,64	1353,71
606,84	1277,93
607,03	1220,59
607,22	1306,60
607,41	1271,79
607,60	1216,49
607,80	1355,76
607,99	1351,66
608,18	1284,08
608,37	1241,07
608,56	1241,07
608,76	1257,45
608,95	1218,54
609,14	1259,50
609,33	1271,79
609,52	1230,83
609,72	1298,41
609,91	1355,76
610,10	1236,97
610,29	1288,17
610,48	1298,41
610,68	1212,40
610,87	1234,93
611,06	1279,98
611,25	1265,64
611,44	1288,17
611,63	1310,70
611,83	1312,75
612,02	1271,79
612,21	1236,97
612,40	1204,21
612,59	1261,55
612,79	1292,27
612,98	1253,36
613,17	1257,45
613,36	1290,22
613,55	1224,69
613,74	1241,07
613,93	1275,88
614,13	1230,83
614,32	1239,02
614,51	1265,64
614,70	1212,40
614,89	1286,12
615,08	1273,84
615,28	1290,22
615,47	1263,60
615,66	1239,02
615,85	1292,27
616,04	1316,84
616,23	1286,12
616,42	1290,22
616,62	1185,77
616,81	1300,46
617,00	1351,66
617,19	1241,07
617,38	1288,17
617,57	1273,84
617,76	1290,22
617,95	1232,88
618,15	1206,25
618,34	1282,03
618,53	1253,36
618,72	1306,60
618,91	1296,36
619,10	1236,97
619,29	1210,35
619,48	1312,75
619,68	1325,04
619,87	1296,36
620,06	1239,02
620,25	1253,36
620,44	1275,88
620,63	1312,75
620,82	1214,45
621,01	1226,73
621,20	1294,32
621,39	1282,03
621,59	1302,51
621,78	1245,16
621,97	1261,55
622,16	1279,98
622,35	1275,88
622,54	1243,12
622,73	1298,41
622,92	1232,88
623,11	1263,60
623,30	1228,78
623,49	1261,55
623,68	1267,69
623,88	1298,41
624,07	1241,07
624,26	1300,46
624,45	1345,52
624,64	1273,84
624,83	1253,36
625,02	1261,55
625,21	1263,60
625,40	1265,64
625,59	1329,13
625,78	1257,45
625,97	1363,95
626,16	1228,78
626,35	1261,55
626,54	1316,84
626,74	1347,56
626,93	1304,56
627,12	1312,75
627,31	1306,60
627,50	1232,88
627,69	1279,98
627,88	1275,88
628,07	1196,01
628,26	1282,03
628,45	1290,22
628,64	1312,75
628,83	1286,12
629,02	1279,98
629,21	1288,17
629,40	1265,64
629,59	1312,75
629,78	1335,28
629,97	1294,32
630,16	1277,93
630,35	1316,84
630,54	1206,25
630,73	1277,93
630,92	1370,09
631,11	1302,51
631,30	1355,76
631,49	1306,60
631,68	1366,00
631,87	1855,46
632,06	2955,22
632,25	2217,95
632,44	2572,25
632,63	2281,44
632,82	2367,45
633,01	3514,31
633,20	5324,72
633,39	6481,82
633,58	8701,82
633,77	17530,61
633,96	32509,46
634,15	47734,06
634,34	51139,83
634,53	41047,44
634,72	25132,67
634,91	13676,34
635,10	7745,42
635,29	4933,56
635,48	3704,78
635,67	2924,50
635,86	2424,80
636,05	2142,18
636,24	1970,15
636,43	1742,82
636,62	1714,15
636,81	1648,61
637,00	1509,35
637,19	1535,98
637,38	1439,72
637,57	1439,72
637,76	1447,91
637,95	1404,91
638,14	1361,90
638,33	1296,36
638,52	1318,89
638,71	1325,04
638,89	1308,65
639,08	1284,08
639,27	1261,55
639,46	1345,52
639,65	1298,41
639,84	1273,84
640,03	1302,51
640,22	1267,69
640,41	1308,65
640,60	1298,41
640,79	1304,56
640,98	1236,97
641,17	1263,60
641,36	1236,97
641,55	1306,60
641,74	1253,36
641,92	1230,83
642,11	1304,56
642,30	1304,56
642,49	1265,64
642,68	1302,51
642,87	1239,02
643,06	1320,94
643,25	1282,03
643,44	1247,21
643,63	1292,27
643,82	1292,27
644,00	1282,03
644,19	1292,27
644,38	1314,80
644,57	1298,41
644,76	1290,22
644,95	1255,40
645,14	1183,73
645,33	1216,49
645,52	1277,93
645,71	1247,21
645,89	1306,60
646,08	1304,56
646,27	1247,21
646,46	1337,32
646,65	1275,88
646,84	1239,02
647,03	1284,08
647,22	1271,79
647,40	1263,60
647,59	1290,22
647,78	1247,21
647,97	1282,03
648,16	1247,21
648,35	1312,75
648,54	1196,01
648,73	1267,69
648,91	1279,98
649,10	1247,21
649,29	1284,08
649,48	1286,12
649,67	1236,97
649,86	1298,41
650,05	1222,64
650,23	1200,11
650,42	1257,45
650,61	1277,93
650,80	1302,51
650,99	1204,21
651,18	1218,54
651,36	1292,27
651,55	1339,37
651,74	1296,36
651,93	1267,69
652,12	1296,36
652,31	1325,04
652,49	1300,46
652,68	1304,56
652,87	1247,21
653,06	1212,40
653,25	1214,45
653,44	1316,84
653,62	1245,16
653,81	1282,03
654,00	1363,95
654,19	1292,27
654,38	1245,16
654,56	1282,03
654,75	1282,03
654,94	1257,45
655,13	1325,04
655,32	1292,27
655,51	1212,40
655,69	1202,16
655,88	1284,08
656,07	1273,84
656,26	1298,41
656,45	1247,21
656,63	1269,74
656,82	1263,60
657,01	1271,79
657,20	1165,29
657,38	1282,03
657,57	1234,93
657,76	1265,64
657,95	1261,55
658,14	1286,12
658,32	1269,74
658,51	1267,69
658,70	1265,64
658,89	1273,84
659,08	1239,02
659,26	1257,45
659,45	1234,93
659,64	1220,59
659,83	1339,37
660,01	1302,51
660,20	1296,36
660,39	1277,93
660,58	1255,40
660,76	1318,89
660,95	1259,50
661,14	1265,64
661,33	1288,17
661,51	1292,27
661,70	1220,59
661,89	1249,26
662,08	1275,88
662,26	1271,79
662,45	1314,80
662,64	1200,11
662,83	1273,84
663,01	1300,46
663,20	1290,22
663,39	1263,60
663,58	1241,07
663,76	1241,07
663,95	1304,56
664,14	1210,35
664,32	1214,45
664,51	1335,28
664,70	1282,03
664,89	1257,45
665,07	1273,84
665,26	1265,64
665,45	1302,51
665,64	1263,60
665,82	1175,53
666,01	1298,41
666,20	1257,45
666,38	1243,12
666,57	1298,41
666,76	1292,27
666,95	1322,99
667,13	1296,36
667,32	1265,64
667,51	1230,83
667,69	1279,98
667,88	1253,36
668,07	1277,93
668,25	1284,08
668,44	1265,64
668,63	1261,55
668,81	1308,65
669,00	1236,97
669,19	1279,98
669,38	1239,02
669,56	1228,78
669,75	1269,74
669,94	1193,97
670,12	1306,60
670,31	1212,40
670,50	1253,36
670,68	1265,64
670,87	1251,31
671,06	1261,55
671,24	1294,32
671,43	1308,65
671,62	1322,99
671,80	1292,27
671,99	1265,64
672,18	1210,35
672,36	1224,69
672,55	1300,46
672,74	1337,32
672,92	1304,56
673,11	1337,32
673,29	1239,02
673,48	1290,22
673,67	1275,88
673,85	1241,07
674,04	1200,11
674,23	1249,26
674,41	1249,26
674,60	1300,46
674,79	1236,97
674,97	1259,50
675,16	1302,51
675,34	1277,93
675,53	1208,30
675,72	1273,84
675,90	1263,60
676,09	1255,40
676,28	1304,56
676,46	1322,99
676,65	1255,40
676,83	1224,69
677,02	1257,45
677,21	1234,93
677,39	1253,36
677,58	1304,56
677,77	1269,74
677,95	1288,17
678,14	1230,83
678,32	1296,36
678,51	1208,30
678,70	1279,98
678,88	1277,93
679,07	1241,07
679,25	1302,51
679,44	1339,37
679,63	1220,59
679,81	1267,69
680,00	1269,74
680,18	1206,25
680,37	1259,50
680,55	1322,99
680,74	1222,64
680,93	1290,22
681,11	1210,35
681,30	1290,22
681,48	1370,09
681,67	1243,12
681,85	1222,64
682,04	1265,64
682,23	1177,58
682,41	1261,55
682,60	1224,69
682,78	1220,59
682,97	1284,08
683,15	1312,75
683,34	1302,51
683,53	1251,31
683,71	1273,84
683,90	1245,16
684,08	1286,12
684,27	1257,45
684,45	1206,25
684,64	1292,27
684,82	1296,36
685,01	1265,64
685,19	1296,36
685,38	1286,12
685,57	1243,12
685,75	1296,36
685,94	1284,08
686,12	1204,21
686,31	1265,64
686,49	1310,70
686,68	1312,75
686,86	1228,78
687,05	1277,93
687,23	1259,50
687,42	1259,50
687,60	1196,01
687,79	1279,98
687,97	1232,88
688,16	1335,28
688,34	1314,80
688,53	1243,12
688,71	1202,16
688,90	1284,08
689,08	1271,79
689,27	1251,31
689,45	1265,64
689,64	1257,45
689,82	1253,36
690,01	1331,18
690,19	1257,45
690,38	1320,94
690,56	1271,79
690,75	1236,97
690,93	1230,83
691,12	1265,64
691,30	1245,16
691,49	1320,94
691,67	1286,12
691,86	1308,65
692,04	1296,36
692,23	1243,12
692,41	1325,04
692,60	1257,45
692,78	1279,98
692,97	1247,21
693,15	1206,25
693,34	1204,21
693,52	1282,03
693,71	1259,50
693,89	1275,88
694,08	1241,07
694,26	1282,03
694,44	1286,12
694,63	1306,60
694,81	1316,84
695,00	1193,97
695,18	1294,32
695,37	1206,25
695,55	1329,13
695,74	1335,28
695,92	1267,69
696,10	1255,40
696,29	1282,03
696,47	1331,18
696,66	1282,03
696,84	1282,03
697,03	1249,26
697,21	1234,93
697,40	1288,17
697,58	1300,46
697,76	1181,68
697,95	1339,37
698,13	1302,51
698,32	1216,49
698,50	1267,69
698,68	1222,64
698,87	1224,69
699,05	1271,79
699,24	1286,12
699,42	1284,08
699,61	1265,64
699,79	1327,08
699,97	1239,02
700,16	1259,50
700,34	1251,31
700,53	1279,98
700,71	1239,02
700,89	1208,30
701,08	1259,50
701,26	1265,64
701,45	1349,61
701,63	1286,12
701,81	1255,40
702,00	1187,82
702,18	1333,23
702,37	1296,36
702,55	1279,98
702,73	1267,69
702,92	1261,55
703,10	1265,64
703,28	1230,83
703,47	1279,98
703,65	1282,03
703,84	1306,60
704,02	1335,28
704,20	1265,64
704,39	1300,46
704,57	1269,74
704,75	1292,27
704,94	1204,21
705,12	1253,36
705,30	1267,69
705,49	1267,69
705,67	1298,41
705,86	1273,84
706,04	1189,87
706,22	1304,56
706,41	1312,75
706,59	1341,42
706,77	1279,98
706,96	1206,25
707,14	1296,36
707,32	1273,84
707,51	1251,31
707,69	1206,25
707,87	1239,02
708,06	1296,36
708,24	1255,40
708,42	1257,45
708,61	1175,53
708,79	1288,17
708,97	1282,03
709,16	1271,79
709,34	1271,79
709,52	1290,22
709,71	1279,98
709,89	1245,16
710,07	1271,79
710,26	1253,36
710,44	1306,60
710,62	1239,02
710,80	1331,18
710,99	1335,28
711,17	1322,99
711,35	1222,64
711,54	1222,64
711,72	1359,85
711,90	1286,12
712,09	1253,36
712,27	1290,22
712,45	1314,80
712,63	1304,56
712,82	1234,93
713,00	1247,21
713,18	1216,49
713,37	1318,89
713,55	1284,08
713,73	1279,98
713,91	1300,46
714,10	1327,08
714,28	1294,32
714,46	1345,52
714,65	1318,89
714,83	1286,12
715,01	1249,26
715,19	1273,84
715,38	1265,64
715,56	1337,32
715,74	1267,69
715,92	1267,69
716,11	1284,08
716,29	1239,02
716,47	1247,21
716,65	1337,32
716,84	1261,55
717,02	1273,84
717,20	1277,93
717,38	1290,22
717,57	1279,98
717,75	1261,55
717,93	1255,40
718,11	1304,56
718,30	1218,54
718,48	1259,50
718,66	1296,36
718,84	1271,79
719,03	1263,60
719,21	1263,60
719,39	1241,07
719,57	1300,46
719,75	1337,32
719,94	1292,27
720,12	1310,70
720,30	1312,75
720,48	1282,03
720,67	1249,26
720,85	1267,69
721,03	1239,02
721,21	1331,18
721,39	1302,51
721,58	1245,16
721,76	1286,12
721,94	1271,79
722,12	1269,74
722,30	1257,45
722,49	1251,31
722,67	1255,40
722,85	1286,12
723,03	1290,22
723,21	1261,55
723,40	1228,78
723,58	1300,46
723,76	1282,03
723,94	1282,03
724,12	1288,17
724,30	1251,31
724,49	1243,12
724,67	1259,50
724,85	1363,95
725,03	1267,69
725,21	1230,83
725,40	1318,89
725,58	1288,17
725,76	1282,03
725,94	1234,93
726,12	1181,68
726,30	1234,93
726,49	1220,59
726,67	1327,08
726,85	1263,60
727,03	1308,65
727,21	1269,74
727,39	1236,97
727,57	1273,84
727,76	1239,02
727,94	1302,51
728,12	1269,74
728,30	1263,60
728,48	1216,49
728,66	1255,40
728,84	1368,04
729,03	1216,49
729,21	1304,56
729,39	1339,37
729,57	1243,12
729,75	1288,17
729,93	1300,46
730,11	1306,60
730,30	1355,76
730,48	1294,32
730,66	1271,79
730,84	1300,46
731,02	1169,39
731,20	1251,31
731,38	1232,88
731,56	1241,07
731,74	1275,88
731,93	1253,36
732,11	1247,21
732,29	1228,78
732,47	1247,21
732,65	1271,79
732,83	1216,49
733,01	1294,32
733,19	1257,45
733,37	1222,64
733,56	1273,84
733,74	1277,93
733,92	1251,31
734,10	1169,39
734,28	1335,28
734,46	1279,98
734,64	1232,88
734,82	1271,79
735,00	1267,69
735,18	1306,60
735,36	1359,85
735,54	1306,60
735,73	1273,84
735,91	1314,80
736,09	1337,32
736,27	1249,26
736,45	1333,23
736,63	1312,75
736,81	1249,26
736,99	1247,21
737,17	1261,55
737,35	1294,32
737,53	1185,77
737,71	1357,80
737,89	1300,46
738,07	1204,21
738,25	1302,51
738,43	1290,22
738,61	1300,46
738,80	1189,87
738,98	1271,79
739,16	1288,17
739,34	1290,22
739,52	1267,69
739,70	1239,02
739,88	1255,40
740,06	1216,49
740,24	1230,83
740,42	1327,08
740,60	1306,60
740,78	1279,98
740,96	1249,26
741,14	1273,84
741,32	1245,16
741,50	1261,55
741,68	1275,88
741,86	1265,64
742,04	1259,50
742,22	1333,23
742,40	1279,98
742,58	1208,30
742,76	1230,83
742,94	1232,88
743,12	1279,98
743,30	1273,84
743,48	1306,60
743,66	1296,36
743,84	1193,97
744,02	1212,40
744,20	1339,37
744,38	1255,40
744,56	1236,97
744,74	1314,80
744,92	1265,64
745,10	1241,07
745,28	1282,03
745,46	1265,64
745,64	1214,45
745,82	1241,07
746,00	1277,93
746,18	1271,79
746,36	1261,55
746,54	1228,78
746,72	1296,36
746,90	1251,31
747,08	1263,60
747,26	1271,79
747,44	1286,12
747,62	1243,12
747,80	1193,97
747,98	1308,65
748,15	1259,50
748,33	1206,25
748,51	1284,08
748,69	1239,02
748,87	1253,36
749,05	1234,93
749,23	1282,03
749,41	1286,12
749,59	1288,17
749,77	1294,32
749,95	1230,83
750,13	1251,31
750,31	1310,70
750,49	1308,65
750,67	1241,07
750,85	1226,73
751,03	1273,84
751,20	1337,32
751,38	1210,35
751,56	1300,46
751,74	1267,69
751,92	1341,42
752,10	1279,98
752,28	1232,88
752,46	1226,73
752,64	1247,21
752,82	1282,03
753,00	1216,49
753,18	1241,07
753,35	1265,64
753,53	1265,64
753,71	1349,61
753,89	1257,45
754,07	1277,93
754,25	1198,06
754,43	1253,36
754,61	1257,45
754,79	1279,98
754,97	1314,80
755,14	1298,41
755,32	1302,51
755,50	1259,50
755,68	1294,32
755,86	1247,21
756,04	1253,36
756,22	1331,18
756,40	1224,69
756,57	1204,21
756,75	1292,27
756,93	1224,69
757,11	1302,51
757,29	1275,88
757,47	1341,42
757,65	1236,97
757,82	1245,16
758,00	1220,59
758,18	1204,21
758,36	1277,93
758,54	1261,55
758,72	1206,25
758,90	1239,02
759,07	1239,02
759,25	1249,26
759,43	1228,78
759,61	1257,45
759,79	1243,12
759,97	1185,77
760,15	1269,74
760,32	1177,58
760,50	1265,64
760,68	1267,69
760,86	1341,42
761,04	1241,07
761,22	1339,37
761,39	1284,08
761,57	1255,40
761,75	1255,40
761,93	1247,21
762,11	1322,99
762,28	1193,97
762,46	1228,78
762,64	1261,55
762,82	1263,60
763,00	1284,08
763,18	1296,36
763,35	1253,36
763,53	1234,93
763,71	1271,79
763,89	1232,88
764,07	1306,60
764,24	1249,26
764,42	1255,40
764,60	1345,52
764,78	1267,69
764,96	1267,69
765,13	1220,59
765,31	1251,31
765,49	1282,03
765,67	1286,12
765,84	1259,50
766,02	1341,42
766,20	1267,69
766,38	1263,60
766,56	1288,17
766,73	1189,87
766,91	1222,64
767,09	1224,69
767,27	1222,64
767,44	1314,80
767,62	1251,31
767,80	1263,60
767,98	1277,93
768,15	1251,31
768,33	1216,49
768,51	1298,41
768,69	1341,42
768,87	1325,04
769,04	1284,08
769,22	1282,03
769,40	1261,55
769,58	1298,41
769,75	1220,59
769,93	1267,69
770,11	1224,69
770,28	1204,21
770,46	1343,47
770,64	1282,03
770,82	1243,12
770,99	1298,41
771,17	1306,60
771,35	1224,69
771,53	1353,71
771,70	1247,21
771,88	1224,69
772,06	1343,47
772,23	1214,45
772,41	1241,07
772,59	1298,41
772,77	1279,98
772,94	1306,60
773,12	1236,97
773,30	1230,83
773,47	1296,36
773,65	1255,40
773,83	1286,12
774,01	1298,41
774,18	1271,79
774,36	1259,50
774,54	1222,64
774,71	1249,26
774,89	1286,12
775,07	1271,79
775,24	1331,18
775,42	1198,06
775,60	1269,74
775,78	1269,74
775,95	1148,91
776,13	1263,60
776,31	1148,91
776,48	1243,12
776,66	1271,79
776,84	1320,94
777,01	1327,08
777,19	1333,23
777,37	1198,06
777,54	1335,28
777,72	1302,51
777,90	1290,22
778,07	1288,17
778,25	1357,80
778,43	1292,27
778,60	1306,60
778,78	1298,41
778,96	1335,28
779,13	1249,26
779,31	1296,36
779,49	1327,08
779,66	1265,64
779,84	1271,79
780,01	1271,79
780,19	1294,32
780,37	1204,21
780,54	1243,12
780,72	1236,97
780,90	1292,27
781,07	1327,08
781,25	1257,45
781,43	1222,64
781,60	1269,74
781,78	1253,36
781,95	1204,21
782,13	1288,17
782,31	1263,60
782,48	1208,30
782,66	1263,60
782,83	1314,80
783,01	1314,80
783,19	1265,64
783,36	1245,16
783,54	1263,60
783,72	1218,54
783,89	1279,98
784,07	1290,22
784,24	1282,03
784,42	1259,50
784,60	1298,41
784,77	1200,11
784,95	1243,12
785,12	1247,21
785,30	1232,88
785,47	1200,11
785,65	1257,45
785,83	1239,02
786,00	1251,31
786,18	1208,30
786,35	1275,88
786,53	1261,55
786,71	1216,49
786,88	1277,93
787,06	1337,32
787,23	1273,84
787,41	1310,70
787,58	1224,69
787,76	1222,64
787,94	1251,31
788,11	1185,77
788,29	1337,32
788,46	1312,75
788,64	1296,36
788,81	1241,07
788,99	1261,55
789,16	1292,27
789,34	1259,50
789,52	1208,30
789,69	1269,74
789,87	1230,83
790,04	1222,64
790,22	1275,88
790,39	1353,71
790,57	1300,46
790,74	1255,40
790,92	1279,98
791,09	1232,88
791,27	1239,02
791,44	1208,30
791,62	1249,26
791,79	1286,12
791,97	1232,88
792,15	1333,23
792,32	1243,12
792,50	1306,60
792,67	1277,93
792,85	1286,12
793,02	1273,84
793,20	1312,75
793,37	1322,99
793,55	1279,98
793,72	1267,69
793,90	1226,73
794,07	1257,45
794,25	1265,64
794,42	1214,45
794,60	1241,07
794,77	1282,03
794,95	1247,21
795,12	1204,21
795,30	1267,69
795,47	1318,89
795,65	1298,41
795,82	1236,97
796,00	1216,49
796,17	1267,69
796,34	1230,83
796,52	1216,49
796,69	1273,84
796,87	1284,08
797,04	1259,50
797,22	1286,12
797,39	1224,69
797,57	1322,99
797,74	1245,16
797,92	1234,93
798,09	1159,15
798,27	1261,55
798,44	1267,69
798,62	1282,03
798,79	1273,84
798,96	1325,04
799,14	1329,13
799,31	1224,69
799,49	1271,79
799,66	1271,79
799,84	1196,01
800,01	1312,75
800,19	1257,45
800,36	1247,21
800,53	1314,80
800,71	1208,30
800,88	1294,32
801,06	1216,49
801,23	1200,11
801,41	1218,54
801,58	1355,76
801,75	1394,67
801,93	1271,79
802,10	1292,27
802,28	1279,98
802,45	1224,69
802,63	1337,32
802,80	1202,16
802,97	1273,84
803,15	1243,12
803,32	1296,36
803,50	1253,36
803,67	1200,11
803,84	1245,16
804,02	1273,84
804,19	1282,03
804,37	1251,31
804,54	1241,07
804,71	1273,84
804,89	1269,74
805,06	1306,60
805,24	1331,18
805,41	1320,94
805,58	1210,35
805,76	1314,80
805,93	1251,31
806,10	1243,12
806,28	1298,41
806,45	1304,56
806,63	1286,12
806,80	1343,47
806,97	1232,88
807,15	1193,97
807,32	1255,40
807,49	1245,16
807,67	1298,41
807,84	1316,84
808,01	1316,84
808,19	1312,75
808,36	1306,60
808,54	1273,84
808,71	1282,03
808,88	1245,16
809,06	1216,49
809,23	1249,26
809,40	1302,51
809,58	1263,60
809,75	1263,60
809,92	1269,74
810,10	1218,54
810,27	1208,30
810,44	1265,64
810,62	1282,03
810,79	1241,07
810,96	1275,88
811,14	1253,36
811,31	1228,78
811,48	1267,69
811,66	1355,76
811,83	1288,17
812,00	1300,46
812,18	1208,30
812,35	1331,18
812,52	1202,16
812,69	1265,64
812,87	1271,79
813,04	1216,49
813,21	1198,06
813,39	1273,84
813,56	1255,40
813,73	1275,88
813,91	1282,03
814,08	1183,73
814,25	1316,84
814,42	1247,21
814,60	1132,53
814,77	1314,80
814,94	1245,16
815,12	1259,50
815,29	1290,22
815,46	1378,28
815,63	1218,54
815,81	1239,02
815,98	1216,49
816,15	1236,97
816,33	1251,31
816,50	1267,69
816,67	1306,60
816,84	1234,93
817,02	1331,18
817,19	1257,45
817,36	1275,88
817,53	1234,93
817,71	1267,69
817,88	1290,22
818,05	1245,16
818,22	1259,50
818,40	1236,97
818,57	1263,60
818,74	1290,22
818,91	1224,69
819,09	1218,54
819,26	1249,26
819,43	1226,73
819,60	1296,36
819,78	1290,22
819,95	1282,03
820,12	1261,55
820,29	1353,71
820,47	1304,56
820,64	1271,79
820,81	1308,65
820,98	1296,36
821,15	1273,84
821,33	1322,99
821,50	1300,46
821,67	1325,04
821,84	1243,12
822,02	1294,32
822,19	1251,31
822,36	1210,35
822,53	1247,21
822,70	1232,88
822,88	1318,89
823,05	1294,32
823,22	1222,64
823,39	1288,17
823,56	1314,80
823,74	1277,93
823,91	1255,40
824,08	1253,36
824,25	1282,03
824,42	1210,35
824,60	1210,35
824,77	1232,88
824,94	1210,35
825,11	1288,17
825,28	1284,08
825,45	1239,02
825,63	1243,12
825,80	1382,38
825,97	1263,60
826,14	1269,74
826,31	1249,26
826,48	1232,88
826,66	1302,51
826,83	1249,26
827,00	1288,17
827,17	1306,60
827,34	1247,21
827,51	1247,21
827,69	1239,02
827,86	1271,79
828,03	1320,94
828,20	1277,93
828,37	1286,12
828,54	1210,35
828,71	1210,35
828,89	1251,31
829,06	1220,59
829,23	1273,84
829,40	1257,45
829,57	1261,55
829,74	1228,78
829,91	1243,12
830,09	1224,69
830,26	1236,97
830,43	1279,98
830,60	1269,74
830,77	1384,43
830,94	1263,60
831,11	1249,26
831,28	1353,71
831,46	1325,04
831,63	1271,79
831,80	1286,12
831,97	1345,52
832,14	1302,51
832,31	1271,79
832,48	1226,73
832,65	1247,21
832,82	1175,53
832,99	1267,69
833,17	1286,12
833,34	1269,74
833,51	1245,16
833,68	1277,93
833,85	1269,74
834,02	1232,88
834,19	1230,83
834,36	1306,60
834,53	1298,41
834,70	1173,49
834,87	1191,92
835,04	1282,03
835,22	1257,45
835,39	1286,12
835,56	1216,49
835,73	1265,64
835,90	1251,31
836,07	1304,56
836,24	1355,76
836,41	1296,36
836,58	1255,40
836,75	1296,36
836,92	1261,55
837,09	1314,80
837,26	1232,88
837,43	1277,93
837,60	1234,93
837,77	1386,47
837,94	1320,94
838,12	1322,99
838,29	1267,69
838,46	1308,65
838,63	1245,16
838,80	1314,80
838,97	1279,98
839,14	1298,41
839,31	1157,10
839,48	1245,16
839,65	1210,35
839,82	1298,41
839,99	1269,74
840,16	1308,65
840,33	1259,50
840,50	1271,79
840,67	1249,26
840,84	1290,22
841,01	1333,23
841,18	1255,40
841,35	1241,07
841,52	1253,36
841,69	1296,36
841,86	1312,75
842,03	1226,73
842,20	1279,98
842,37	1261,55
842,54	1279,98
842,71	1255,40
842,88	1316,84
843,05	1286,12
843,22	1347,56
843,39	1216,49
843,56	1304,56
843,73	1331,18
843,90	1204,21
844,07	1257,45
844,24	1322,99
844,41	1257,45
844,58	1230,83
844,75	1286,12
844,92	1288,17
845,09	1271,79
845,26	1322,99
845,43	1325,04
845,60	1298,41
845,77	1200,11
845,94	1384,43
846,10	1257,45
846,27	1261,55
846,44	1306,60
846,61	1304,56
846,78	1286,12
846,95	1304,56
847,12	1208,30
847,29	1302,51
847,46	1339,37
847,63	1243,12
847,80	1253,36
847,97	1243,12
848,14	1267,69
848,31	1318,89
848,48	1216,49
848,65	1290,22
848,82	1179,63
848,98	1357,80
849,15	1265,64
849,32	1298,41
849,49	1208,30
849,66	1269,74
849,83	1302,51
850,00	1296,36
850,17	1290,22
850,34	1306,60
850,51	1179,63
850,68	1232,88
850,85	1269,74
851,01	1249,26
851,18	1275,88
851,35	1236,97
851,52	1271,79
851,69	1259,50
851,86	1173,49
852,03	1224,69
852,20	1208,30
852,37	1255,40
852,53	1189,87
852,70	1265,64
852,87	1253,36
853,04	1345,52
853,21	1320,94
853,38	1218,54
853,55	1198,06
853,72	1259,50
853,89	1269,74
854,05	1316,84
854,22	1310,70
854,39	1241,07
854,56	1232,88
854,73	1232,88
854,90	1257,45
855,07	1200,11
855,23	1286,12
855,40	1306,60
855,57	1273,84
855,74	1210,35
855,91	1325,04
856,08	1314,80
856,25	1212,40
856,41	1198,06
856,58	1290,22
856,75	1290,22
856,92	1257,45
857,09	1265,64
857,26	1296,36
857,42	1263,60
857,59	1232,88
857,76	1275,88
857,93	1279,98
858,10	1271,79
858,27	1210,35
858,43	1220,59
858,60	1253,36
858,77	1310,70
858,94	1282,03
859,11	1234,93
859,27	1269,74
859,44	1339,37
859,61	1277,93
859,78	1286,12
859,95	1284,08
860,12	1337,32
860,28	1286,12
860,45	1265,64
860,62	1282,03
860,79	1204,21
860,95	1228,78
861,12	1243,12
861,29	1284,08
861,46	1234,93
861,63	1257,45
861,79	1265,64
861,96	1294,32
862,13	1279,98
862,30	1288,17
862,47	1175,53
862,63	1226,73
862,80	1273,84
862,97	1265,64
863,14	1273,84
863,30	1245,16
863,47	1306,60
863,64	1251,31
863,81	1320,94
863,97	1245,16
864,14	1224,69
864,31	1269,74
864,48	1288,17
864,65	1314,80
864,81	1273,84
864,98	1292,27
865,15	1175,53
865,32	1322,99
865,48	1232,88
865,65	1314,80
865,82	1239,02
865,98	1292,27
866,15	1296,36
866,32	1263,60
866,49	1210,35
866,65	1300,46
866,82	1331,18
866,99	1275,88
867,16	1286,12
867,32	1282,03
867,49	1366,00
867,66	1271,79
867,83	1234,93
867,99	1228,78
868,16	1230,83
868,33	1228,78
868,49	1271,79
868,66	1239,02
868,83	1241,07
868,99	1249,26
869,16	1331,18
869,33	1183,73
869,50	1279,98
869,66	1259,50
869,83	1347,56
870,00	1335,28
870,16	1239,02
870,33	1263,60
870,50	1306,60
870,66	1251,31
870,83	1189,87
871,00	1251,31
871,17	1333,23
871,33	1294,32
871,50	1241,07
871,67	1282,03
871,83	1222,64
872,00	1255,40
872,17	1282,03
872,33	1253,36
872,50	1200,11
872,67	1341,42
872,83	1282,03
873,00	1279,98
873,17	1267,69
873,33	1288,17
873,50	1325,04
873,67	1230,83
873,83	1306,60
874,00	1247,21
874,16	1263,60
874,33	1232,88
874,50	1271,79
874,66	1286,12
874,83	1282,03
875,00	1284,08
875,16	1331,18
875,33	1247,21
875,50	1241,07
875,66	1226,73
875,83	1202,16
875,99	1239,02
876,16	1239,02
876,33	1228,78
876,49	1253,36
876,66	1304,56
876,83	1271,79
876,99	1230,83
877,16	1226,73
877,32	1224,69
877,49	1232,88
877,66	1247,21
877,82	1314,80
877,99	1300,46
878,15	1247,21
878,32	1290,22
878,49	1331,18
878,65	1271,79
878,82	1271,79
878,98	1234,93
879,15	1302,51
879,32	1241,07
879,48	1310,70
879,65	1279,98
879,81	1216,49
879,98	1249,26
880,15	1241,07
880,31	1247,21
880,48	1173,49
880,64	1351,66
880,81	1298,41
880,97	1243,12
881,14	1273,84
881,31	1243,12
881,47	1284,08
881,64	1243,12
881,80	1269,74
881,97	1226,73
882,13	1273,84
882,30	1267,69
882,47	1228,78
882,63	1304,56
882,80	1271,79
882,96	1310,70
883,13	1210,35
883,29	1253,36
883,46	1312,75
883,62	1339,37
883,79	1200,11
883,95	1191,92
884,12	1296,36
884,29	1282,03
884,45	1288,17
884,62	1284,08
884,78	1271,79
884,95	1196,01
885,11	1294,32
885,28	1288,17
885,44	1312,75
885,61	1345,52
885,77	1286,12
885,94	1306,60
886,10	1288,17
886,27	1290,22
886,43	1259,50
886,60	1277,93
886,76	1269,74
886,93	1306,60
887,09	1298,41
887,26	1294,32
887,42	1288,17
887,59	1257,45
887,75	1275,88
887,92	1298,41
888,08	1286,12
888,25	1288,17
888,41	1265,64
888,58	1282,03
888,74	1234,93
888,91	1239,02
>>>>>End Processed Spectral Data<<<<<
