SpectraSuite Data File
++++++++++++++++++++++++++++++++++++
Date: Sun Apr 03 15:37:34 CEST 2016
User: root
Dark Spectrum Present: No
Reference Spectrum Present: No
Number of Sampled Component Spectra: 1
Spectrometers: USB4C02835
Integration Time (usec): 10000 (USB4C02835)
Spectra Averaged: 1 (USB4C02835)
Boxcar Smoothing: 0 (USB4C02835)
Correct for Electrical Dark: No (USB4C02835)
Strobe/Lamp Enabled: No (USB4C02835)
Correct for Detector Non-linearity: No (USB4C02835)
Correct for Stray Light: No (USB4C02835)
Number of Pixels in Processed Spectrum: 3648
>>>>>Begin Processed Spectral Data<<<<<
177,47	1247,21
177,69	1247,21
177,91	1247,21
178,13	1230,83
178,36	1271,79
178,58	1290,22
178,80	1202,16
179,02	1263,60
179,24	1331,18
179,46	1224,69
179,68	1290,22
179,90	1298,41
180,13	1306,60
180,35	1292,27
180,57	1304,56
180,79	1310,70
181,01	1355,76
181,23	1347,56
181,45	1306,60
181,67	1290,22
181,90	1312,75
182,12	1277,93
182,34	1298,41
182,56	1228,78
182,78	1234,93
183,00	1222,64
183,22	1271,79
183,44	1296,36
183,66	1304,56
183,89	1335,28
184,11	1325,04
184,33	1267,69
184,55	1277,93
184,77	1261,55
184,99	1249,26
185,21	1255,40
185,43	1292,27
185,65	1226,73
185,87	1316,84
186,10	1234,93
186,32	1202,16
186,54	1273,84
186,76	1288,17
186,98	1277,93
187,20	1320,94
187,42	1347,56
187,64	1294,32
187,86	1271,79
188,08	1243,12
188,30	1216,49
188,52	1353,71
188,75	1191,92
188,97	1263,60
189,19	1269,74
189,41	1249,26
189,63	1230,83
189,85	1331,18
190,07	1245,16
190,29	1230,83
190,51	1249,26
190,73	1228,78
190,95	1214,45
191,17	1265,64
191,39	1267,69
191,61	1273,84
191,84	1316,84
192,06	1263,60
192,28	1267,69
192,50	1292,27
192,72	1253,36
192,94	1314,80
193,16	1277,93
193,38	1214,45
193,60	1232,88
193,82	1165,29
194,04	1241,07
194,26	1228,78
194,48	1228,78
194,70	1208,30
194,92	1333,23
195,14	1282,03
195,36	1296,36
195,58	1234,93
195,80	1267,69
196,02	1273,84
196,24	1267,69
196,46	1292,27
196,69	1292,27
196,91	1257,45
197,13	1202,16
197,35	1355,76
197,57	1179,63
197,79	1292,27
198,01	1304,56
198,23	1267,69
198,45	1292,27
198,67	1347,56
198,89	1183,73
199,11	1325,04
199,33	1196,01
199,55	1267,69
199,77	1310,70
199,99	1255,40
200,21	1310,70
200,43	1282,03
200,65	1257,45
200,87	1243,12
201,09	1279,98
201,31	1269,74
201,53	1318,89
201,75	1288,17
201,97	1292,27
202,19	1249,26
202,41	1222,64
202,63	1343,47
202,85	1320,94
203,07	1282,03
203,29	1220,59
203,51	1271,79
203,73	1255,40
203,95	1273,84
204,17	1245,16
204,39	1353,71
204,61	1320,94
204,83	1288,17
205,05	1271,79
205,27	1279,98
205,49	1345,52
205,71	1296,36
205,93	1222,64
206,15	1320,94
206,37	1304,56
206,59	1259,50
206,81	1314,80
207,03	1314,80
207,25	1247,21
207,47	1284,08
207,69	1234,93
207,91	1327,08
208,13	1271,79
208,34	1239,02
208,56	1306,60
208,78	1290,22
209,00	1288,17
209,22	1257,45
209,44	1322,99
209,66	1273,84
209,88	1267,69
210,10	1255,40
210,32	1294,32
210,54	1263,60
210,76	1294,32
210,98	1220,59
211,20	1290,22
211,42	1290,22
211,64	1380,33
211,86	1269,74
212,08	1239,02
212,30	1298,41
212,52	1265,64
212,74	1318,89
212,96	1261,55
213,17	1282,03
213,39	1349,61
213,61	1353,71
213,83	1284,08
214,05	1257,45
214,27	1298,41
214,49	1216,49
214,71	1247,21
214,93	1263,60
215,15	1306,60
215,37	1277,93
215,59	1269,74
215,81	1300,46
216,03	1286,12
216,24	1308,65
216,46	1341,42
216,68	1234,93
216,90	1247,21
217,12	1294,32
217,34	1202,16
217,56	1320,94
217,78	1261,55
218,00	1189,87
218,22	1259,50
218,44	1239,02
218,66	1286,12
218,87	1304,56
219,09	1308,65
219,31	1273,84
219,53	1318,89
219,75	1302,51
219,97	1269,74
220,19	1282,03
220,41	1243,12
220,63	1263,60
220,85	1275,88
221,06	1310,70
221,28	1298,41
221,50	1273,84
221,72	1318,89
221,94	1341,42
222,16	1275,88
222,38	1269,74
222,60	1327,08
222,82	1284,08
223,03	1247,21
223,25	1239,02
223,47	1312,75
223,69	1347,56
223,91	1216,49
224,13	1279,98
224,35	1204,21
224,57	1345,52
224,78	1232,88
225,00	1337,32
225,22	1310,70
225,44	1236,97
225,66	1304,56
225,88	1220,59
226,10	1312,75
226,32	1253,36
226,53	1298,41
226,75	1347,56
226,97	1236,97
227,19	1263,60
227,41	1302,51
227,63	1290,22
227,85	1214,45
228,06	1314,80
228,28	1265,64
228,50	1310,70
228,72	1374,19
228,94	1327,08
229,16	1304,56
229,37	1255,40
229,59	1263,60
229,81	1251,31
230,03	1257,45
230,25	1255,40
230,47	1220,59
230,69	1277,93
230,90	1345,52
231,12	1210,35
231,34	1226,73
231,56	1241,07
231,78	1218,54
232,00	1257,45
232,21	1286,12
232,43	1290,22
232,65	1294,32
232,87	1310,70
233,09	1267,69
233,30	1234,93
233,52	1273,84
233,74	1267,69
233,96	1269,74
234,18	1294,32
234,40	1302,51
234,61	1308,65
234,83	1290,22
235,05	1241,07
235,27	1296,36
235,49	1333,23
235,70	1279,98
235,92	1243,12
236,14	1198,06
236,36	1363,95
236,58	1302,51
236,79	1226,73
237,01	1193,97
237,23	1288,17
237,45	1204,21
237,67	1310,70
237,88	1300,46
238,10	1320,94
238,32	1148,91
238,54	1300,46
238,76	1314,80
238,97	1284,08
239,19	1228,78
239,41	1296,36
239,63	1300,46
239,85	1290,22
240,06	1239,02
240,28	1208,30
240,50	1279,98
240,72	1255,40
240,93	1353,71
241,15	1271,79
241,37	1210,35
241,59	1261,55
241,81	1368,04
242,02	1271,79
242,24	1277,93
242,46	1253,36
242,68	1341,42
242,89	1259,50
243,11	1224,69
243,33	1234,93
243,55	1263,60
243,76	1298,41
243,98	1277,93
244,20	1282,03
244,42	1282,03
244,64	1345,52
244,85	1165,29
245,07	1271,79
245,29	1259,50
245,51	1249,26
245,72	1241,07
245,94	1185,77
246,16	1251,31
246,38	1298,41
246,59	1232,88
246,81	1259,50
247,03	1249,26
247,24	1275,88
247,46	1232,88
247,68	1251,31
247,90	1273,84
248,11	1228,78
248,33	1261,55
248,55	1318,89
248,77	1249,26
248,98	1302,51
249,20	1265,64
249,42	1267,69
249,64	1333,23
249,85	1306,60
250,07	1277,93
250,29	1290,22
250,50	1284,08
250,72	1320,94
250,94	1255,40
251,16	1267,69
251,37	1279,98
251,59	1228,78
251,81	1241,07
252,02	1249,26
252,24	1249,26
252,46	1220,59
252,68	1279,98
252,89	1282,03
253,11	1236,97
253,33	1249,26
253,54	1234,93
253,76	1294,32
253,98	1228,78
254,20	1198,06
254,41	1325,04
254,63	1316,84
254,85	1257,45
255,06	1329,13
255,28	1234,93
255,50	1341,42
255,71	1263,60
255,93	1333,23
256,15	1273,84
256,36	1296,36
256,58	1310,70
256,80	1312,75
257,02	1208,30
257,23	1290,22
257,45	1234,93
257,67	1243,12
257,88	1177,58
258,10	1239,02
258,32	1277,93
258,53	1273,84
258,75	1263,60
258,97	1353,71
259,18	1298,41
259,40	1302,51
259,62	1249,26
259,83	1239,02
260,05	1224,69
260,27	1304,56
260,48	1271,79
260,70	1245,16
260,92	1196,01
261,13	1269,74
261,35	1275,88
261,57	1224,69
261,78	1284,08
262,00	1247,21
262,22	1310,70
262,43	1226,73
262,65	1179,63
262,86	1277,93
263,08	1259,50
263,30	1314,80
263,51	1337,32
263,73	1247,21
263,95	1259,50
264,16	1204,21
264,38	1349,61
264,60	1263,60
264,81	1265,64
265,03	1314,80
265,25	1230,83
265,46	1212,40
265,68	1298,41
265,89	1294,32
266,11	1253,36
266,33	1290,22
266,54	1251,31
266,76	1241,07
266,98	1273,84
267,19	1255,40
267,41	1302,51
267,62	1261,55
267,84	1277,93
268,06	1325,04
268,27	1282,03
268,49	1167,34
268,70	1243,12
268,92	1341,42
269,14	1269,74
269,35	1173,49
269,57	1318,89
269,79	1263,60
270,00	1257,45
270,22	1298,41
270,43	1273,84
270,65	1241,07
270,87	1298,41
271,08	1218,54
271,30	1300,46
271,51	1298,41
271,73	1267,69
271,95	1261,55
272,16	1284,08
272,38	1286,12
272,59	1189,87
272,81	1290,22
273,02	1347,56
273,24	1249,26
273,46	1212,40
273,67	1239,02
273,89	1245,16
274,10	1239,02
274,32	1226,73
274,54	1286,12
274,75	1286,12
274,97	1288,17
275,18	1359,85
275,40	1312,75
275,61	1329,13
275,83	1232,88
276,05	1322,99
276,26	1271,79
276,48	1325,04
276,69	1273,84
276,91	1286,12
277,12	1232,88
277,34	1251,31
277,55	1259,50
277,77	1304,56
277,99	1320,94
278,20	1234,93
278,42	1253,36
278,63	1173,49
278,85	1279,98
279,06	1224,69
279,28	1263,60
279,49	1320,94
279,71	1249,26
279,93	1234,93
280,14	1308,65
280,36	1241,07
280,57	1343,47
280,79	1251,31
281,00	1249,26
281,22	1236,97
281,43	1329,13
281,65	1251,31
281,86	1300,46
282,08	1273,84
282,29	1277,93
282,51	1226,73
282,73	1288,17
282,94	1269,74
283,16	1290,22
283,37	1279,98
283,59	1363,95
283,80	1241,07
284,02	1239,02
284,23	1273,84
284,45	1210,35
284,66	1310,70
284,88	1253,36
285,09	1226,73
285,31	1282,03
285,52	1290,22
285,74	1247,21
285,95	1230,83
286,17	1265,64
286,38	1282,03
286,60	1298,41
286,81	1257,45
287,03	1290,22
287,24	1294,32
287,46	1294,32
287,67	1335,28
287,89	1279,98
288,10	1325,04
288,32	1249,26
288,53	1329,13
288,75	1265,64
288,96	1277,93
289,18	1279,98
289,39	1290,22
289,61	1263,60
289,82	1302,51
290,04	1249,26
290,25	1269,74
290,47	1308,65
290,68	1284,08
290,90	1294,32
291,11	1290,22
291,33	1265,64
291,54	1327,08
291,76	1251,31
291,97	1290,22
292,18	1366,00
292,40	1275,88
292,61	1271,79
292,83	1302,51
293,04	1236,97
293,26	1288,17
293,47	1304,56
293,69	1224,69
293,90	1288,17
294,12	1312,75
294,33	1253,36
294,55	1279,98
294,76	1239,02
294,97	1255,40
295,19	1249,26
295,40	1265,64
295,62	1304,56
295,83	1322,99
296,05	1232,88
296,26	1333,23
296,48	1241,07
296,69	1236,97
296,90	1286,12
297,12	1230,83
297,33	1243,12
297,55	1282,03
297,76	1318,89
297,98	1247,21
298,19	1298,41
298,41	1300,46
298,62	1210,35
298,83	1239,02
299,05	1251,31
299,26	1267,69
299,48	1304,56
299,69	1265,64
299,90	1263,60
300,12	1263,60
300,33	1279,98
300,55	1230,83
300,76	1320,94
300,98	1294,32
301,19	1200,11
301,40	1249,26
301,62	1380,33
301,83	1257,45
302,05	1245,16
302,26	1216,49
302,47	1247,21
302,69	1247,21
302,90	1284,08
303,12	1224,69
303,33	1284,08
303,54	1277,93
303,76	1320,94
303,97	1257,45
304,19	1263,60
304,40	1236,97
304,61	1253,36
304,83	1294,32
305,04	1232,88
305,26	1275,88
305,47	1255,40
305,68	1341,42
305,90	1310,70
306,11	1249,26
306,33	1245,16
306,54	1275,88
306,75	1304,56
306,97	1236,97
307,18	1261,55
307,39	1253,36
307,61	1183,73
307,82	1220,59
308,04	1191,92
308,25	1257,45
308,46	1331,18
308,68	1306,60
308,89	1337,32
309,10	1257,45
309,32	1179,63
309,53	1298,41
309,74	1284,08
309,96	1243,12
310,17	1296,36
310,39	1290,22
310,60	1208,30
310,81	1292,27
311,03	1206,25
311,24	1253,36
311,45	1167,34
311,67	1183,73
311,88	1239,02
312,09	1279,98
312,31	1263,60
312,52	1376,24
312,73	1163,25
312,95	1259,50
313,16	1318,89
313,37	1261,55
313,59	1255,40
313,80	1353,71
314,01	1255,40
314,23	1275,88
314,44	1312,75
314,65	1277,93
314,87	1310,70
315,08	1327,08
315,29	1271,79
315,51	1273,84
315,72	1290,22
315,93	1265,64
316,15	1370,09
316,36	1302,51
316,57	1294,32
316,79	1347,56
317,00	1224,69
317,21	1202,16
317,43	1204,21
317,64	1300,46
317,85	1228,78
318,07	1306,60
318,28	1275,88
318,49	1179,63
318,70	1349,61
318,92	1210,35
319,13	1269,74
319,34	1210,35
319,56	1198,06
319,77	1345,52
319,98	1261,55
320,20	1292,27
320,41	1286,12
320,62	1300,46
320,83	1314,80
321,05	1271,79
321,26	1261,55
321,47	1236,97
321,69	1255,40
321,90	1261,55
322,11	1290,22
322,32	1253,36
322,54	1306,60
322,75	1279,98
322,96	1263,60
323,18	1273,84
323,39	1196,01
323,60	1316,84
323,81	1279,98
324,03	1232,88
324,24	1277,93
324,45	1243,12
324,66	1302,51
324,88	1208,30
325,09	1249,26
325,30	1249,26
325,52	1247,21
325,73	1277,93
325,94	1265,64
326,15	1249,26
326,37	1265,64
326,58	1300,46
326,79	1292,27
327,00	1196,01
327,22	1286,12
327,43	1282,03
327,64	1177,58
327,85	1273,84
328,07	1277,93
328,28	1267,69
328,49	1284,08
328,70	1214,45
328,92	1239,02
329,13	1234,93
329,34	1316,84
329,55	1288,17
329,76	1269,74
329,98	1308,65
330,19	1290,22
330,40	1282,03
330,61	1230,83
330,83	1271,79
331,04	1304,56
331,25	1314,80
331,46	1308,65
331,68	1277,93
331,89	1249,26
332,10	1277,93
332,31	1302,51
332,52	1216,49
332,74	1288,17
332,95	1290,22
333,16	1294,32
333,37	1380,33
333,58	1259,50
333,80	1316,84
334,01	1253,36
334,22	1304,56
334,43	1247,21
334,64	1284,08
334,86	1230,83
335,07	1329,13
335,28	1347,56
335,49	1253,36
335,70	1310,70
335,92	1241,07
336,13	1236,97
336,34	1245,16
336,55	1282,03
336,76	1316,84
336,98	1257,45
337,19	1249,26
337,40	1286,12
337,61	1230,83
337,82	1212,40
338,04	1239,02
338,25	1216,49
338,46	1249,26
338,67	1275,88
338,88	1255,40
339,09	1292,27
339,31	1224,69
339,52	1269,74
339,73	1292,27
339,94	1218,54
340,15	1232,88
340,36	1236,97
340,58	1302,51
340,79	1234,93
341,00	1316,84
341,21	1286,12
341,42	1308,65
341,63	1300,46
341,85	1232,88
342,06	1288,17
342,27	1253,36
342,48	1179,63
342,69	1267,69
342,90	1245,16
343,12	1243,12
343,33	1290,22
343,54	1284,08
343,75	1277,93
343,96	1214,45
344,17	1236,97
344,38	1249,26
344,60	1310,70
344,81	1224,69
345,02	1269,74
345,23	1253,36
345,44	1294,32
345,65	1263,60
345,86	1261,55
346,07	1239,02
346,29	1249,26
346,50	1259,50
346,71	1232,88
346,92	1345,52
347,13	1308,65
347,34	1265,64
347,55	1282,03
347,76	1259,50
347,98	1259,50
348,19	1230,83
348,40	1310,70
348,61	1243,12
348,82	1273,84
349,03	1282,03
349,24	1200,11
349,45	1292,27
349,66	1239,02
349,88	1220,59
350,09	1316,84
350,30	1316,84
350,51	1322,99
350,72	1304,56
350,93	1183,73
351,14	1294,32
351,35	1251,31
351,56	1224,69
351,77	1271,79
351,99	1245,16
352,20	1279,98
352,41	1251,31
352,62	1226,73
352,83	1290,22
353,04	1265,64
353,25	1298,41
353,46	1355,76
353,67	1279,98
353,88	1249,26
354,09	1222,64
354,30	1245,16
354,52	1222,64
354,73	1255,40
354,94	1320,94
355,15	1273,84
355,36	1308,65
355,57	1368,04
355,78	1257,45
355,99	1310,70
356,20	1222,64
356,41	1265,64
356,62	1286,12
356,83	1247,21
357,04	1331,18
357,25	1218,54
357,46	1316,84
357,68	1339,37
357,89	1261,55
358,10	1228,78
358,31	1222,64
358,52	1259,50
358,73	1249,26
358,94	1210,35
359,15	1267,69
359,36	1239,02
359,57	1312,75
359,78	1247,21
359,99	1279,98
360,20	1277,93
360,41	1228,78
360,62	1234,93
360,83	1318,89
361,04	1298,41
361,25	1239,02
361,46	1320,94
361,67	1308,65
361,88	1226,73
362,09	1187,82
362,30	1300,46
362,51	1247,21
362,72	1333,23
362,93	1288,17
363,14	1294,32
363,35	1269,74
363,56	1273,84
363,78	1220,59
363,99	1243,12
364,20	1226,73
364,41	1220,59
364,62	1187,82
364,83	1206,25
365,04	1282,03
365,25	1208,30
365,46	1265,64
365,67	1329,13
365,88	1308,65
366,09	1267,69
366,30	1224,69
366,51	1202,16
366,72	1282,03
366,93	1259,50
367,14	1304,56
367,35	1255,40
367,56	1331,18
367,77	1322,99
367,98	1191,92
368,18	1314,80
368,39	1331,18
368,60	1224,69
368,81	1279,98
369,02	1306,60
369,23	1191,92
369,44	1245,16
369,65	1234,93
369,86	1310,70
370,07	1222,64
370,28	1239,02
370,49	1298,41
370,70	1286,12
370,91	1259,50
371,12	1306,60
371,33	1277,93
371,54	1267,69
371,75	1300,46
371,96	1310,70
372,17	1304,56
372,38	1257,45
372,59	1257,45
372,80	1370,09
373,01	1275,88
373,22	1296,36
373,43	1308,65
373,64	1230,83
373,85	1304,56
374,06	1222,64
374,26	1267,69
374,47	1335,28
374,68	1316,84
374,89	1187,82
375,10	1189,87
375,31	1296,36
375,52	1284,08
375,73	1173,49
375,94	1322,99
376,15	1322,99
376,36	1282,03
376,57	1294,32
376,78	1257,45
376,99	1279,98
377,20	1284,08
377,40	1245,16
377,61	1245,16
377,82	1339,37
378,03	1255,40
378,24	1284,08
378,45	1269,74
378,66	1312,75
378,87	1273,84
379,08	1257,45
379,29	1277,93
379,50	1306,60
379,71	1253,36
379,91	1257,45
380,12	1257,45
380,33	1314,80
380,54	1298,41
380,75	1247,21
380,96	1314,80
381,17	1298,41
381,38	1300,46
381,59	1271,79
381,80	1331,18
382,00	1296,36
382,21	1310,70
382,42	1302,51
382,63	1226,73
382,84	1183,73
383,05	1239,02
383,26	1294,32
383,47	1247,21
383,68	1241,07
383,88	1243,12
384,09	1200,11
384,30	1351,66
384,51	1314,80
384,72	1308,65
384,93	1183,73
385,14	1253,36
385,35	1312,75
385,55	1251,31
385,76	1245,16
385,97	1279,98
386,18	1279,98
386,39	1216,49
386,60	1208,30
386,81	1302,51
387,02	1282,03
387,22	1296,36
387,43	1294,32
387,64	1243,12
387,85	1339,37
388,06	1247,21
388,27	1257,45
388,48	1275,88
388,68	1261,55
388,89	1267,69
389,10	1241,07
389,31	1232,88
389,52	1292,27
389,73	1314,80
389,93	1263,60
390,14	1322,99
390,35	1288,17
390,56	1275,88
390,77	1304,56
390,98	1245,16
391,18	1212,40
391,39	1290,22
391,60	1339,37
391,81	1314,80
392,02	1241,07
392,23	1279,98
392,43	1259,50
392,64	1263,60
392,85	1196,01
393,06	1224,69
393,27	1228,78
393,47	1296,36
393,68	1157,10
393,89	1200,11
394,10	1288,17
394,31	1304,56
394,52	1265,64
394,72	1271,79
394,93	1335,28
395,14	1273,84
395,35	1294,32
395,56	1257,45
395,76	1214,45
395,97	1271,79
396,18	1243,12
396,39	1241,07
396,60	1376,24
396,80	1286,12
397,01	1255,40
397,22	1275,88
397,43	1286,12
397,64	1257,45
397,84	1226,73
398,05	1290,22
398,26	1267,69
398,47	1298,41
398,67	1331,18
398,88	1241,07
399,09	1298,41
399,30	1302,51
399,51	1286,12
399,71	1214,45
399,92	1208,30
400,13	1263,60
400,34	1279,98
400,54	1279,98
400,75	1222,64
400,96	1271,79
401,17	1251,31
401,37	1275,88
401,58	1286,12
401,79	1322,99
402,00	1312,75
402,21	1279,98
402,41	1218,54
402,62	1257,45
402,83	1284,08
403,04	1273,84
403,24	1335,28
403,45	1316,84
403,66	1241,07
403,87	1312,75
404,07	1234,93
404,28	1249,26
404,49	1355,76
404,70	1335,28
404,90	1273,84
405,11	1333,23
405,32	1286,12
405,52	1316,84
405,73	1263,60
405,94	1216,49
406,15	1259,50
406,35	1230,83
406,56	1273,84
406,77	1314,80
406,98	1179,63
407,18	1355,76
407,39	1288,17
407,60	1277,93
407,80	1290,22
408,01	1284,08
408,22	1310,70
408,43	1263,60
408,63	1241,07
408,84	1247,21
409,05	1245,16
409,25	1204,21
409,46	1296,36
409,67	1220,59
409,88	1314,80
410,08	1247,21
410,29	1355,76
410,50	1255,40
410,70	1249,26
410,91	1259,50
411,12	1337,32
411,32	1193,97
411,53	1236,97
411,74	1222,64
411,95	1292,27
412,15	1218,54
412,36	1329,13
412,57	1306,60
412,77	1265,64
412,98	1290,22
413,19	1312,75
413,39	1245,16
413,60	1257,45
413,81	1234,93
414,01	1185,77
414,22	1251,31
414,43	1290,22
414,63	1253,36
414,84	1226,73
415,05	1298,41
415,25	1273,84
415,46	1290,22
415,67	1279,98
415,87	1245,16
416,08	1265,64
416,29	1282,03
416,49	1241,07
416,70	1275,88
416,91	1304,56
417,11	1300,46
417,32	1282,03
417,53	1214,45
417,73	1222,64
417,94	1236,97
418,15	1224,69
418,35	1290,22
418,56	1245,16
418,77	1210,35
418,97	1275,88
419,18	1263,60
419,38	1255,40
419,59	1294,32
419,80	1193,97
420,00	1249,26
420,21	1314,80
420,42	1288,17
420,62	1251,31
420,83	1282,03
421,04	1331,18
421,24	1298,41
421,45	1247,21
421,65	1208,30
421,86	1310,70
422,07	1312,75
422,27	1279,98
422,48	1259,50
422,69	1239,02
422,89	1294,32
423,10	1339,37
423,30	1290,22
423,51	1208,30
423,72	1247,21
423,92	1239,02
424,13	1294,32
424,33	1216,49
424,54	1241,07
424,75	1226,73
424,95	1187,82
425,16	1304,56
425,36	1222,64
425,57	1273,84
425,78	1191,92
425,98	1300,46
426,19	1261,55
426,39	1333,23
426,60	1251,31
426,81	1257,45
427,01	1343,47
427,22	1290,22
427,42	1277,93
427,63	1308,65
427,83	1277,93
428,04	1296,36
428,25	1239,02
428,45	1331,18
428,66	1302,51
428,86	1208,30
429,07	1257,45
429,28	1294,32
429,48	1310,70
429,69	1245,16
429,89	1308,65
430,10	1220,59
430,30	1314,80
430,51	1316,84
430,71	1314,80
430,92	1220,59
431,13	1333,23
431,33	1265,64
431,54	1232,88
431,74	1245,16
431,95	1222,64
432,15	1249,26
432,36	1308,65
432,56	1284,08
432,77	1279,98
432,98	1245,16
433,18	1200,11
433,39	1214,45
433,59	1239,02
433,80	1284,08
434,00	1247,21
434,21	1257,45
434,41	1257,45
434,62	1288,17
434,82	1263,60
435,03	1341,42
435,23	1284,08
435,44	1288,17
435,64	1279,98
435,85	1224,69
436,06	1265,64
436,26	1234,93
436,47	1241,07
436,67	1290,22
436,88	1249,26
437,08	1296,36
437,29	1318,89
437,49	1343,47
437,70	1208,30
437,90	1314,80
438,11	1230,83
438,31	1331,18
438,52	1241,07
438,72	1210,35
438,93	1290,22
439,13	1243,12
439,34	1294,32
439,54	1269,74
439,75	1253,36
439,95	1277,93
440,16	1261,55
440,36	1275,88
440,57	1241,07
440,77	1300,46
440,98	1273,84
441,18	1247,21
441,39	1261,55
441,59	1279,98
441,80	1337,32
442,00	1288,17
442,21	1308,65
442,41	1284,08
442,62	1271,79
442,82	1208,30
443,02	1265,64
443,23	1282,03
443,43	1253,36
443,64	1282,03
443,84	1275,88
444,05	1257,45
444,25	1257,45
444,46	1277,93
444,66	1269,74
444,87	1269,74
445,07	1292,27
445,28	1265,64
445,48	1290,22
445,69	1298,41
445,89	1275,88
446,09	1320,94
446,30	1302,51
446,50	1306,60
446,71	1200,11
446,91	1275,88
447,12	1249,26
447,32	1263,60
447,53	1249,26
447,73	1322,99
447,93	1224,69
448,14	1198,06
448,34	1296,36
448,55	1331,18
448,75	1216,49
448,96	1259,50
449,16	1253,36
449,36	1241,07
449,57	1234,93
449,77	1226,73
449,98	1279,98
450,18	1234,93
450,39	1257,45
450,59	1271,79
450,79	1265,64
451,00	1286,12
451,20	1300,46
451,41	1241,07
451,61	1282,03
451,81	1308,65
452,02	1347,56
452,22	1302,51
452,43	1257,45
452,63	1353,71
452,84	1277,93
453,04	1259,50
453,24	1277,93
453,45	1284,08
453,65	1331,18
453,86	1277,93
454,06	1208,30
454,26	1298,41
454,47	1196,01
454,67	1302,51
454,87	1277,93
455,08	1279,98
455,28	1257,45
455,49	1228,78
455,69	1212,40
455,89	1304,56
456,10	1308,65
456,30	1193,97
456,51	1282,03
456,71	1302,51
456,91	1232,88
457,12	1304,56
457,32	1267,69
457,52	1251,31
457,73	1294,32
457,93	1302,51
458,14	1243,12
458,34	1261,55
458,54	1267,69
458,75	1255,40
458,95	1208,30
459,15	1318,89
459,36	1267,69
459,56	1226,73
459,76	1318,89
459,97	1275,88
460,17	1316,84
460,37	1286,12
460,58	1263,60
460,78	1251,31
460,99	1284,08
461,19	1257,45
461,39	1290,22
461,60	1189,87
461,80	1320,94
462,00	1302,51
462,21	1290,22
462,41	1216,49
462,61	1267,69
462,82	1153,01
463,02	1232,88
463,22	1306,60
463,43	1306,60
463,63	1308,65
463,83	1239,02
464,04	1224,69
464,24	1339,37
464,44	1241,07
464,64	1296,36
464,85	1216,49
465,05	1226,73
465,25	1267,69
465,46	1261,55
465,66	1241,07
465,86	1290,22
466,07	1265,64
466,27	1294,32
466,47	1159,15
466,68	1275,88
466,88	1300,46
467,08	1275,88
467,29	1230,83
467,49	1300,46
467,69	1300,46
467,89	1232,88
468,10	1284,08
468,30	1273,84
468,50	1282,03
468,71	1290,22
468,91	1284,08
469,11	1267,69
469,31	1298,41
469,52	1245,16
469,72	1224,69
469,92	1243,12
470,13	1290,22
470,33	1306,60
470,53	1316,84
470,73	1290,22
470,94	1345,52
471,14	1263,60
471,34	1282,03
471,54	1288,17
471,75	1286,12
471,95	1275,88
472,15	1314,80
472,36	1193,97
472,56	1206,25
472,76	1247,21
472,96	1265,64
473,17	1232,88
473,37	1239,02
473,57	1245,16
473,77	1234,93
473,98	1187,82
474,18	1228,78
474,38	1298,41
474,58	1243,12
474,79	1290,22
474,99	1296,36
475,19	1331,18
475,39	1282,03
475,60	1304,56
475,80	1169,39
476,00	1239,02
476,20	1257,45
476,41	1239,02
476,61	1310,70
476,81	1355,76
477,01	1279,98
477,21	1204,21
477,42	1265,64
477,62	1333,23
477,82	1263,60
478,02	1267,69
478,23	1226,73
478,43	1302,51
478,63	1269,74
478,83	1290,22
479,03	1234,93
479,24	1269,74
479,44	1222,64
479,64	1208,30
479,84	1284,08
480,04	1232,88
480,25	1296,36
480,45	1271,79
480,65	1331,18
480,85	1316,84
481,06	1296,36
481,26	1269,74
481,46	1296,36
481,66	1290,22
481,86	1273,84
482,06	1273,84
482,27	1357,80
482,47	1241,07
482,67	1279,98
482,87	1241,07
483,07	1310,70
483,28	1249,26
483,48	1253,36
483,68	1308,65
483,88	1333,23
484,08	1267,69
484,29	1263,60
484,49	1265,64
484,69	1249,26
484,89	1253,36
485,09	1290,22
485,29	1251,31
485,50	1277,93
485,70	1290,22
485,90	1331,18
486,10	1286,12
486,30	1257,45
486,50	1247,21
486,71	1220,59
486,91	1306,60
487,11	1288,17
487,31	1247,21
487,51	1216,49
487,71	1214,45
487,91	1296,36
488,12	1265,64
488,32	1239,02
488,52	1345,52
488,72	1275,88
488,92	1269,74
489,12	1173,49
489,32	1189,87
489,53	1314,80
489,73	1267,69
489,93	1296,36
490,13	1271,79
490,33	1241,07
490,53	1267,69
490,73	1300,46
490,94	1314,80
491,14	1265,64
491,34	1308,65
491,54	1316,84
491,74	1325,04
491,94	1275,88
492,14	1275,88
492,34	1275,88
492,54	1275,88
492,75	1312,75
492,95	1193,97
493,15	1267,69
493,35	1265,64
493,55	1386,47
493,75	1257,45
493,95	1292,27
494,15	1222,64
494,35	1329,13
494,56	1259,50
494,76	1333,23
494,96	1312,75
495,16	1279,98
495,36	1220,59
495,56	1279,98
495,76	1255,40
495,96	1286,12
496,16	1230,83
496,36	1292,27
496,56	1257,45
496,77	1304,56
496,97	1243,12
497,17	1302,51
497,37	1300,46
497,57	1202,16
497,77	1249,26
497,97	1224,69
498,17	1259,50
498,37	1277,93
498,57	1212,40
498,77	1290,22
498,97	1218,54
499,17	1267,69
499,38	1232,88
499,58	1271,79
499,78	1275,88
499,98	1298,41
500,18	1310,70
500,38	1308,65
500,58	1251,31
500,78	1202,16
500,98	1247,21
501,18	1249,26
501,38	1218,54
501,58	1286,12
501,78	1210,35
501,98	1300,46
502,18	1308,65
502,38	1261,55
502,58	1234,93
502,78	1284,08
502,98	1198,06
503,18	1374,19
503,38	1292,27
503,59	1241,07
503,79	1308,65
503,99	1245,16
504,19	1267,69
504,39	1249,26
504,59	1271,79
504,79	1310,70
504,99	1265,64
505,19	1284,08
505,39	1279,98
505,59	1214,45
505,79	1261,55
505,99	1247,21
506,19	1243,12
506,39	1193,97
506,59	1292,27
506,79	1255,40
506,99	1261,55
507,19	1269,74
507,39	1316,84
507,59	1288,17
507,79	1275,88
507,99	1310,70
508,19	1243,12
508,39	1226,73
508,59	1261,55
508,79	1304,56
508,99	1265,64
509,19	1304,56
509,39	1320,94
509,59	1222,64
509,79	1265,64
509,99	1265,64
510,19	1310,70
510,39	1329,13
510,59	1265,64
510,79	1355,76
510,99	1222,64
511,19	1271,79
511,39	1253,36
511,59	1255,40
511,79	1331,18
511,99	1304,56
512,19	1286,12
512,38	1288,17
512,58	1298,41
512,78	1204,21
512,98	1316,84
513,18	1353,71
513,38	1243,12
513,58	1327,08
513,78	1339,37
513,98	1253,36
514,18	1312,75
514,38	1253,36
514,58	1310,70
514,78	1257,45
514,98	1232,88
515,18	1255,40
515,38	1271,79
515,58	1239,02
515,78	1325,04
515,98	1230,83
516,18	1292,27
516,38	1208,30
516,57	1222,64
516,77	1204,21
516,97	1286,12
517,17	1216,49
517,37	1294,32
517,57	1310,70
517,77	1302,51
517,97	1228,78
518,17	1300,46
518,37	1236,97
518,57	1320,94
518,77	1208,30
518,97	1265,64
519,16	1282,03
519,36	1298,41
519,56	1286,12
519,76	1298,41
519,96	1318,89
520,16	1316,84
520,36	1216,49
520,56	1232,88
520,76	1249,26
520,96	1259,50
521,16	1292,27
521,35	1314,80
521,55	1241,07
521,75	1234,93
521,95	1228,78
522,15	1267,69
522,35	1193,97
522,55	1228,78
522,75	1224,69
522,95	1292,27
523,14	1308,65
523,34	1222,64
523,54	1210,35
523,74	1284,08
523,94	1294,32
524,14	1247,21
524,34	1218,54
524,54	1300,46
524,73	1224,69
524,93	1202,16
525,13	1232,88
525,33	1239,02
525,53	1208,30
525,73	1320,94
525,93	1269,74
526,13	1359,85
526,32	1322,99
526,52	1312,75
526,72	1257,45
526,92	1210,35
527,12	1296,36
527,32	1292,27
527,52	1284,08
527,71	1269,74
527,91	1267,69
528,11	1302,51
528,31	1263,60
528,51	1249,26
528,71	1247,21
528,90	1247,21
529,10	1210,35
529,30	1306,60
529,50	1198,06
529,70	1208,30
529,90	1286,12
530,09	1251,31
530,29	1259,50
530,49	1263,60
530,69	1255,40
530,89	1208,30
531,09	1251,31
531,28	1277,93
531,48	1263,60
531,68	1241,07
531,88	1298,41
532,08	1269,74
532,28	1216,49
532,47	1333,23
532,67	1261,55
532,87	1337,32
533,07	1267,69
533,27	1277,93
533,46	1267,69
533,66	1310,70
533,86	1329,13
534,06	1304,56
534,26	1339,37
534,45	1306,60
534,65	1279,98
534,85	1267,69
535,05	1339,37
535,25	1300,46
535,44	1312,75
535,64	1298,41
535,84	1312,75
536,04	1261,55
536,24	1216,49
536,43	1275,88
536,63	1214,45
536,83	1273,84
537,03	1265,64
537,22	1241,07
537,42	1341,42
537,62	1349,61
537,82	1230,83
538,02	1296,36
538,21	1337,32
538,41	1310,70
538,61	1198,06
538,81	1322,99
539,00	1191,92
539,20	1255,40
539,40	1206,25
539,60	1284,08
539,79	1271,79
539,99	1269,74
540,19	1261,55
540,39	1302,51
540,58	1306,60
540,78	1298,41
540,98	1259,50
541,18	1335,28
541,37	1247,21
541,57	1232,88
541,77	1337,32
541,97	1325,04
542,16	1296,36
542,36	1286,12
542,56	1277,93
542,76	1255,40
542,95	1329,13
543,15	1206,25
543,35	1300,46
543,54	1351,66
543,74	1290,22
543,94	1273,84
544,14	1279,98
544,33	1282,03
544,53	1241,07
544,73	1290,22
544,93	1230,83
545,12	1306,60
545,32	1282,03
545,52	1265,64
545,71	1318,89
545,91	1296,36
546,11	1249,26
546,30	1277,93
546,50	1290,22
546,70	1273,84
546,90	1273,84
547,09	1243,12
547,29	1261,55
547,49	1259,50
547,68	1249,26
547,88	1275,88
548,08	1288,17
548,27	1302,51
548,47	1277,93
548,67	1271,79
548,87	1239,02
549,06	1267,69
549,26	1265,64
549,46	1200,11
549,65	1261,55
549,85	1277,93
550,05	1308,65
550,24	1189,87
550,44	1222,64
550,64	1304,56
550,83	1271,79
551,03	1302,51
551,23	1312,75
551,42	1249,26
551,62	1234,93
551,82	1331,18
552,01	1175,53
552,21	1255,40
552,41	1314,80
552,60	1284,08
552,80	1304,56
553,00	1255,40
553,19	1220,59
553,39	1282,03
553,59	1265,64
553,78	1230,83
553,98	1265,64
554,17	1259,50
554,37	1275,88
554,57	1333,23
554,76	1282,03
554,96	1263,60
555,16	1318,89
555,35	1294,32
555,55	1355,76
555,75	1263,60
555,94	1220,59
556,14	1245,16
556,33	1253,36
556,53	1292,27
556,73	1257,45
556,92	1253,36
557,12	1314,80
557,32	1271,79
557,51	1257,45
557,71	1179,63
557,90	1261,55
558,10	1257,45
558,30	1290,22
558,49	1196,01
558,69	1214,45
558,88	1329,13
559,08	1294,32
559,28	1277,93
559,47	1275,88
559,67	1288,17
559,86	1259,50
560,06	1271,79
560,26	1232,88
560,45	1304,56
560,65	1241,07
560,84	1300,46
561,04	1261,55
561,24	1312,75
561,43	1261,55
561,63	1239,02
561,82	1269,74
562,02	1288,17
562,22	1251,31
562,41	1241,07
562,61	1245,16
562,80	1167,34
563,00	1347,56
563,19	1224,69
563,39	1327,08
563,59	1343,47
563,78	1310,70
563,98	1239,02
564,17	1306,60
564,37	1259,50
564,56	1230,83
564,76	1265,64
564,96	1239,02
565,15	1282,03
565,35	1267,69
565,54	1247,21
565,74	1230,83
565,93	1249,26
566,13	1288,17
566,32	1331,18
566,52	1282,03
566,71	1239,02
566,91	1282,03
567,11	1200,11
567,30	1318,89
567,50	1269,74
567,69	1366,00
567,89	1257,45
568,08	1263,60
568,28	1253,36
568,47	1230,83
568,67	1300,46
568,86	1290,22
569,06	1265,64
569,25	1224,69
569,45	1226,73
569,64	1187,82
569,84	1253,36
570,04	1273,84
570,23	1267,69
570,43	1275,88
570,62	1232,88
570,82	1239,02
571,01	1230,83
571,21	1257,45
571,40	1222,64
571,60	1224,69
571,79	1290,22
571,99	1247,21
572,18	1191,92
572,38	1298,41
572,57	1247,21
572,77	1277,93
572,96	1314,80
573,16	1179,63
573,35	1302,51
573,55	1241,07
573,74	1253,36
573,94	1265,64
574,13	1304,56
574,33	1310,70
574,52	1290,22
574,71	1288,17
574,91	1269,74
575,10	1198,06
575,30	1296,36
575,49	1206,25
575,69	1265,64
575,88	1320,94
576,08	1232,88
576,27	1322,99
576,47	1277,93
576,66	1284,08
576,86	1304,56
577,05	1253,36
577,25	1284,08
577,44	1222,64
577,64	1304,56
577,83	1259,50
578,02	1245,16
578,22	1282,03
578,41	1312,75
578,61	1329,13
578,80	1314,80
579,00	1310,70
579,19	1275,88
579,39	1310,70
579,58	1232,88
579,77	1261,55
579,97	1269,74
580,16	1269,74
580,36	1296,36
580,55	1255,40
580,75	1271,79
580,94	1247,21
581,13	1263,60
581,33	1267,69
581,52	1253,36
581,72	1294,32
581,91	1347,56
582,11	1269,74
582,30	1220,59
582,49	1239,02
582,69	1263,60
582,88	1259,50
583,08	1224,69
583,27	1206,25
583,47	1341,42
583,66	1257,45
583,85	1298,41
584,05	1204,21
584,24	1306,60
584,44	1263,60
584,63	1314,80
584,82	1220,59
585,02	1255,40
585,21	1314,80
585,41	1271,79
585,60	1304,56
585,79	1222,64
585,99	1257,45
586,18	1267,69
586,37	1277,93
586,57	1310,70
586,76	1322,99
586,96	1212,40
587,15	1265,64
587,34	1247,21
587,54	1255,40
587,73	1218,54
587,93	1343,47
588,12	1277,93
588,31	1294,32
588,51	1228,78
588,70	1314,80
588,89	1257,45
589,09	1316,84
589,28	1282,03
589,47	1314,80
589,67	1290,22
589,86	1251,31
590,06	1259,50
590,25	1271,79
590,44	1298,41
590,64	1271,79
590,83	1282,03
591,02	1273,84
591,22	1267,69
591,41	1302,51
591,60	1298,41
591,80	1239,02
591,99	1271,79
592,18	1261,55
592,38	1304,56
592,57	1341,42
592,76	1318,89
592,96	1243,12
593,15	1265,64
593,34	1267,69
593,54	1284,08
593,73	1329,13
593,92	1249,26
594,12	1327,08
594,31	1372,14
594,50	1243,12
594,70	1257,45
594,89	1228,78
595,08	1247,21
595,28	1271,79
595,47	1208,30
595,66	1288,17
595,86	1234,93
596,05	1251,31
596,24	1294,32
596,43	1224,69
596,63	1312,75
596,82	1222,64
597,01	1331,18
597,21	1284,08
597,40	1249,26
597,59	1243,12
597,79	1196,01
597,98	1288,17
598,17	1284,08
598,36	1234,93
598,56	1325,04
598,75	1273,84
598,94	1232,88
599,14	1343,47
599,33	1271,79
599,52	1261,55
599,71	1310,70
599,91	1251,31
600,10	1282,03
600,29	1282,03
600,48	1239,02
600,68	1296,36
600,87	1236,97
601,06	1288,17
601,26	1290,22
601,45	1282,03
601,64	1271,79
601,83	1308,65
602,03	1320,94
602,22	1331,18
602,41	1271,79
602,60	1320,94
602,80	1306,60
602,99	1261,55
603,18	1329,13
603,37	1294,32
603,57	1302,51
603,76	1220,59
603,95	1255,40
604,14	1325,04
604,34	1310,70
604,53	1243,12
604,72	1222,64
604,91	1325,04
605,10	1255,40
605,30	1232,88
605,49	1245,16
605,68	1273,84
605,87	1271,79
606,07	1277,93
606,26	1290,22
606,45	1249,26
606,64	1243,12
606,84	1290,22
607,03	1234,93
607,22	1259,50
607,41	1228,78
607,60	1263,60
607,80	1198,06
607,99	1337,32
608,18	1318,89
608,37	1179,63
608,56	1284,08
608,76	1282,03
608,95	1271,79
609,14	1271,79
609,33	1230,83
609,52	1286,12
609,72	1236,97
609,91	1265,64
610,10	1249,26
610,29	1292,27
610,48	1290,22
610,68	1304,56
610,87	1345,52
611,06	1314,80
611,25	1282,03
611,44	1277,93
611,63	1298,41
611,83	1298,41
612,02	1243,12
612,21	1265,64
612,40	1327,08
612,59	1314,80
612,79	1273,84
612,98	1288,17
613,17	1296,36
613,36	1259,50
613,55	1312,75
613,74	1351,66
613,93	1247,21
614,13	1296,36
614,32	1314,80
614,51	1251,31
614,70	1300,46
614,89	1220,59
615,08	1286,12
615,28	1320,94
615,47	1351,66
615,66	1308,65
615,85	1290,22
616,04	1236,97
616,23	1214,45
616,42	1255,40
616,62	1245,16
616,81	1292,27
617,00	1218,54
617,19	1263,60
617,38	1210,35
617,57	1327,08
617,76	1316,84
617,95	1279,98
618,15	1241,07
618,34	1247,21
618,53	1230,83
618,72	1261,55
618,91	1277,93
619,10	1273,84
619,29	1216,49
619,48	1327,08
619,68	1294,32
619,87	1241,07
620,06	1251,31
620,25	1282,03
620,44	1290,22
620,63	1269,74
620,82	1269,74
621,01	1294,32
621,20	1351,66
621,39	1312,75
621,59	1228,78
621,78	1294,32
621,97	1214,45
622,16	1284,08
622,35	1275,88
622,54	1271,79
622,73	1288,17
622,92	1222,64
623,11	1339,37
623,30	1308,65
623,49	1239,02
623,68	1290,22
623,88	1257,45
624,07	1327,08
624,26	1277,93
624,45	1337,32
624,64	1230,83
624,83	1286,12
625,02	1357,80
625,21	1310,70
625,40	1320,94
625,59	1322,99
625,78	1335,28
625,97	1331,18
626,16	1339,37
626,35	1404,91
626,54	1284,08
626,74	1318,89
626,93	1314,80
627,12	1236,97
627,31	1265,64
627,50	1339,37
627,69	1353,71
627,88	1322,99
628,07	1232,88
628,26	1271,79
628,45	1345,52
628,64	1251,31
628,83	1343,47
629,02	1234,93
629,21	1236,97
629,40	1243,12
629,59	1290,22
629,78	1253,36
629,97	1314,80
630,16	1277,93
630,35	1265,64
630,54	1366,00
630,73	1351,66
630,92	1290,22
631,11	1351,66
631,30	1347,56
631,49	1402,86
631,68	1679,33
631,87	2412,51
632,06	5640,11
632,25	10647,39
632,44	11853,64
632,63	12166,98
632,82	6932,37
633,01	3311,57
633,20	2490,33
633,39	2170,85
633,58	1933,28
633,77	1769,44
633,96	1617,90
634,15	1673,19
634,34	1705,96
634,53	1527,78
634,72	1540,07
634,91	1484,78
635,10	1400,81
635,29	1490,92
635,48	1511,40
635,67	1449,96
635,86	1515,50
636,05	1415,15
636,24	1404,91
636,43	1425,39
636,62	1294,32
636,81	1380,33
637,00	1366,00
637,19	1302,51
637,38	1359,85
637,57	1333,23
637,76	1335,28
637,95	1306,60
638,14	1349,61
638,33	1339,37
638,52	1241,07
638,71	1310,70
638,89	1310,70
639,08	1370,09
639,27	1279,98
639,46	1245,16
639,65	1275,88
639,84	1304,56
640,03	1255,40
640,22	1302,51
640,41	1298,41
640,60	1263,60
640,79	1292,27
640,98	1300,46
641,17	1286,12
641,36	1384,43
641,55	1243,12
641,74	1320,94
641,92	1300,46
642,11	1314,80
642,30	1275,88
642,49	1355,76
642,68	1253,36
642,87	1288,17
643,06	1271,79
643,25	1267,69
643,44	1282,03
643,63	1265,64
643,82	1263,60
644,00	1261,55
644,19	1277,93
644,38	1253,36
644,57	1292,27
644,76	1351,66
644,95	1292,27
645,14	1368,04
645,33	1226,73
645,52	1302,51
645,71	1212,40
645,89	1249,26
646,08	1335,28
646,27	1282,03
646,46	1290,22
646,65	1308,65
646,84	1314,80
647,03	1263,60
647,22	1239,02
647,40	1296,36
647,59	1304,56
647,78	1169,39
647,97	1249,26
648,16	1208,30
648,35	1302,51
648,54	1269,74
648,73	1249,26
648,91	1263,60
649,10	1288,17
649,29	1243,12
649,48	1314,80
649,67	1296,36
649,86	1279,98
650,05	1286,12
650,23	1310,70
650,42	1245,16
650,61	1234,93
650,80	1306,60
650,99	1331,18
651,18	1310,70
651,36	1232,88
651,55	1245,16
651,74	1181,68
651,93	1232,88
652,12	1243,12
652,31	1261,55
652,49	1335,28
652,68	1216,49
652,87	1224,69
653,06	1343,47
653,25	1230,83
653,44	1183,73
653,62	1294,32
653,81	1220,59
654,00	1318,89
654,19	1220,59
654,38	1193,97
654,56	1247,21
654,75	1292,27
654,94	1187,82
655,13	1226,73
655,32	1298,41
655,51	1243,12
655,69	1245,16
655,88	1245,16
656,07	1220,59
656,26	1189,87
656,45	1177,58
656,63	1318,89
656,82	1271,79
657,01	1183,73
657,20	1292,27
657,38	1282,03
657,57	1363,95
657,76	1245,16
657,95	1245,16
658,14	1288,17
658,32	1200,11
658,51	1220,59
658,70	1331,18
658,89	1275,88
659,08	1261,55
659,26	1310,70
659,45	1282,03
659,64	1226,73
659,83	1226,73
660,01	1277,93
660,20	1257,45
660,39	1335,28
660,58	1298,41
660,76	1292,27
660,95	1316,84
661,14	1234,93
661,33	1288,17
661,51	1300,46
661,70	1183,73
661,89	1310,70
662,08	1282,03
662,26	1230,83
662,45	1204,21
662,64	1214,45
662,83	1275,88
663,01	1273,84
663,20	1214,45
663,39	1279,98
663,58	1273,84
663,76	1269,74
663,95	1320,94
664,14	1253,36
664,32	1284,08
664,51	1249,26
664,70	1206,25
664,89	1290,22
665,07	1218,54
665,26	1241,07
665,45	1271,79
665,64	1263,60
665,82	1206,25
666,01	1294,32
666,20	1392,62
666,38	1198,06
666,57	1234,93
666,76	1277,93
666,95	1226,73
667,13	1275,88
667,32	1261,55
667,51	1296,36
667,69	1196,01
667,88	1288,17
668,07	1185,77
668,25	1290,22
668,44	1251,31
668,63	1226,73
668,81	1239,02
669,00	1331,18
669,19	1232,88
669,38	1304,56
669,56	1288,17
669,75	1265,64
669,94	1290,22
670,12	1261,55
670,31	1316,84
670,50	1216,49
670,68	1322,99
670,87	1345,52
671,06	1257,45
671,24	1232,88
671,43	1296,36
671,62	1345,52
671,80	1193,97
671,99	1290,22
672,18	1245,16
672,36	1259,50
672,55	1224,69
672,74	1245,16
672,92	1236,97
673,11	1245,16
673,29	1273,84
673,48	1304,56
673,67	1300,46
673,85	1312,75
674,04	1234,93
674,23	1239,02
674,41	1265,64
674,60	1298,41
674,79	1306,60
674,97	1175,53
675,16	1277,93
675,34	1302,51
675,53	1282,03
675,72	1304,56
675,90	1232,88
676,09	1345,52
676,28	1333,23
676,46	1331,18
676,65	1222,64
676,83	1288,17
677,02	1239,02
677,21	1212,40
677,39	1196,01
677,58	1294,32
677,77	1257,45
677,95	1279,98
678,14	1296,36
678,32	1245,16
678,51	1275,88
678,70	1253,36
678,88	1302,51
679,07	1222,64
679,25	1187,82
679,44	1226,73
679,63	1279,98
679,81	1241,07
680,00	1290,22
680,18	1263,60
680,37	1279,98
680,55	1314,80
680,74	1255,40
680,93	1153,01
681,11	1318,89
681,30	1222,64
681,48	1390,57
681,67	1198,06
681,85	1333,23
682,04	1232,88
682,23	1273,84
682,41	1251,31
682,60	1273,84
682,78	1224,69
682,97	1200,11
683,15	1325,04
683,34	1218,54
683,53	1255,40
683,71	1257,45
683,90	1257,45
684,08	1290,22
684,27	1325,04
684,45	1239,02
684,64	1314,80
684,82	1245,16
685,01	1279,98
685,19	1312,75
685,38	1269,74
685,57	1318,89
685,75	1349,61
685,94	1286,12
686,12	1282,03
686,31	1316,84
686,49	1214,45
686,68	1216,49
686,86	1320,94
687,05	1310,70
687,23	1255,40
687,42	1261,55
687,60	1327,08
687,79	1253,36
687,97	1331,18
688,16	1390,57
688,34	1269,74
688,53	1271,79
688,71	1253,36
688,90	1243,12
689,08	1255,40
689,27	1239,02
689,45	1210,35
689,64	1271,79
689,82	1230,83
690,01	1286,12
690,19	1234,93
690,38	1245,16
690,56	1320,94
690,75	1232,88
690,93	1247,21
691,12	1263,60
691,30	1290,22
691,49	1306,60
691,67	1292,27
691,86	1277,93
692,04	1173,49
692,23	1318,89
692,41	1198,06
692,60	1200,11
692,78	1273,84
692,97	1265,64
693,15	1298,41
693,34	1275,88
693,52	1290,22
693,71	1236,97
693,89	1265,64
694,08	1335,28
694,26	1265,64
694,44	1290,22
694,63	1279,98
694,81	1241,07
695,00	1212,40
695,18	1255,40
695,37	1263,60
695,55	1320,94
695,74	1222,64
695,92	1257,45
696,10	1241,07
696,29	1279,98
696,47	1255,40
696,66	1216,49
696,84	1157,10
697,03	1247,21
697,21	1284,08
697,40	1253,36
697,58	1310,70
697,76	1273,84
697,95	1255,40
698,13	1253,36
698,32	1265,64
698,50	1279,98
698,68	1247,21
698,87	1234,93
699,05	1232,88
699,24	1282,03
699,42	1259,50
699,61	1337,32
699,79	1267,69
699,97	1263,60
700,16	1288,17
700,34	1306,60
700,53	1292,27
700,71	1241,07
700,89	1222,64
701,08	1312,75
701,26	1325,04
701,45	1273,84
701,63	1261,55
701,81	1241,07
702,00	1275,88
702,18	1251,31
702,37	1253,36
702,55	1370,09
702,73	1249,26
702,92	1312,75
703,10	1292,27
703,28	1234,93
703,47	1275,88
703,65	1261,55
703,84	1322,99
704,02	1312,75
704,20	1298,41
704,39	1230,83
704,57	1212,40
704,75	1308,65
704,94	1296,36
705,12	1228,78
705,30	1253,36
705,49	1308,65
705,67	1241,07
705,86	1261,55
706,04	1189,87
706,22	1255,40
706,41	1312,75
706,59	1241,07
706,77	1198,06
706,96	1312,75
707,14	1228,78
707,32	1298,41
707,51	1212,40
707,69	1316,84
707,87	1284,08
708,06	1294,32
708,24	1222,64
708,42	1222,64
708,61	1361,90
708,79	1249,26
708,97	1265,64
709,16	1302,51
709,34	1255,40
709,52	1263,60
709,71	1331,18
709,89	1257,45
710,07	1284,08
710,26	1257,45
710,44	1228,78
710,62	1265,64
710,80	1265,64
710,99	1302,51
711,17	1253,36
711,35	1249,26
711,54	1234,93
711,72	1249,26
711,90	1322,99
712,09	1333,23
712,27	1247,21
712,45	1298,41
712,63	1243,12
712,82	1265,64
713,00	1292,27
713,18	1263,60
713,37	1228,78
713,55	1247,21
713,73	1288,17
713,91	1292,27
714,10	1261,55
714,28	1253,36
714,46	1269,74
714,65	1273,84
714,83	1228,78
715,01	1271,79
715,19	1298,41
715,38	1345,52
715,56	1191,92
715,74	1257,45
715,92	1286,12
716,11	1294,32
716,29	1275,88
716,47	1271,79
716,65	1292,27
716,84	1236,97
717,02	1236,97
717,20	1312,75
717,38	1259,50
717,57	1253,36
717,75	1241,07
717,93	1271,79
718,11	1294,32
718,30	1251,31
718,48	1249,26
718,66	1220,59
718,84	1255,40
719,03	1224,69
719,21	1239,02
719,39	1302,51
719,57	1269,74
719,75	1222,64
719,94	1374,19
720,12	1204,21
720,30	1210,35
720,48	1300,46
720,67	1216,49
720,85	1312,75
721,03	1253,36
721,21	1306,60
721,39	1347,56
721,58	1228,78
721,76	1298,41
721,94	1212,40
722,12	1222,64
722,30	1261,55
722,49	1271,79
722,67	1316,84
722,85	1189,87
723,03	1267,69
723,21	1259,50
723,40	1271,79
723,58	1267,69
723,76	1226,73
723,94	1347,56
724,12	1236,97
724,30	1302,51
724,49	1308,65
724,67	1279,98
724,85	1271,79
725,03	1316,84
725,21	1271,79
725,40	1273,84
725,58	1261,55
725,76	1249,26
725,94	1239,02
726,12	1263,60
726,30	1220,59
726,49	1259,50
726,67	1226,73
726,85	1230,83
727,03	1236,97
727,21	1265,64
727,39	1249,26
727,57	1253,36
727,76	1193,97
727,94	1294,32
728,12	1253,36
728,30	1261,55
728,48	1251,31
728,66	1216,49
728,84	1265,64
729,03	1210,35
729,21	1222,64
729,39	1300,46
729,57	1304,56
729,75	1249,26
729,93	1298,41
730,11	1318,89
730,30	1222,64
730,48	1353,71
730,66	1234,93
730,84	1216,49
731,02	1279,98
731,20	1320,94
731,38	1288,17
731,56	1312,75
731,74	1282,03
731,93	1339,37
732,11	1243,12
732,29	1339,37
732,47	1255,40
732,65	1265,64
732,83	1286,12
733,01	1241,07
733,19	1224,69
733,37	1282,03
733,56	1284,08
733,74	1261,55
733,92	1327,08
734,10	1277,93
734,28	1253,36
734,46	1253,36
734,64	1255,40
734,82	1265,64
735,00	1284,08
735,18	1253,36
735,36	1298,41
735,54	1218,54
735,73	1277,93
735,91	1263,60
736,09	1243,12
736,27	1310,70
736,45	1300,46
736,63	1275,88
736,81	1251,31
736,99	1253,36
737,17	1294,32
737,35	1337,32
737,53	1279,98
737,71	1249,26
737,89	1269,74
738,07	1277,93
738,25	1271,79
738,43	1208,30
738,61	1263,60
738,80	1255,40
738,98	1333,23
739,16	1282,03
739,34	1292,27
739,52	1271,79
739,70	1263,60
739,88	1255,40
740,06	1263,60
740,24	1298,41
740,42	1247,21
740,60	1310,70
740,78	1247,21
740,96	1269,74
741,14	1163,25
741,32	1265,64
741,50	1290,22
741,68	1271,79
741,86	1259,50
742,04	1241,07
742,22	1255,40
742,40	1245,16
742,58	1245,16
742,76	1318,89
742,94	1337,32
743,12	1267,69
743,30	1181,68
743,48	1296,36
743,66	1331,18
743,84	1261,55
744,02	1265,64
744,20	1279,98
744,38	1214,45
744,56	1269,74
744,74	1300,46
744,92	1245,16
745,10	1249,26
745,28	1273,84
745,46	1327,08
745,64	1306,60
745,82	1312,75
746,00	1243,12
746,18	1279,98
746,36	1255,40
746,54	1265,64
746,72	1261,55
746,90	1265,64
747,08	1288,17
747,26	1261,55
747,44	1247,21
747,62	1286,12
747,80	1222,64
747,98	1245,16
748,15	1245,16
748,33	1273,84
748,51	1304,56
748,69	1261,55
748,87	1290,22
749,05	1175,53
749,23	1279,98
749,41	1265,64
749,59	1298,41
749,77	1288,17
749,95	1257,45
750,13	1288,17
750,31	1210,35
750,49	1249,26
750,67	1273,84
750,85	1286,12
751,03	1249,26
751,20	1296,36
751,38	1349,61
751,56	1214,45
751,74	1292,27
751,92	1288,17
752,10	1249,26
752,28	1261,55
752,46	1284,08
752,64	1243,12
752,82	1314,80
753,00	1294,32
753,18	1251,31
753,35	1275,88
753,53	1249,26
753,71	1267,69
753,89	1189,87
754,07	1222,64
754,25	1257,45
754,43	1218,54
754,61	1267,69
754,79	1302,51
754,97	1271,79
755,14	1302,51
755,32	1234,93
755,50	1312,75
755,68	1269,74
755,86	1269,74
756,04	1257,45
756,22	1255,40
756,40	1241,07
756,57	1257,45
756,75	1282,03
756,93	1263,60
757,11	1327,08
757,29	1310,70
757,47	1312,75
757,65	1263,60
757,82	1263,60
758,00	1271,79
758,18	1279,98
758,36	1218,54
758,54	1269,74
758,72	1261,55
758,90	1241,07
759,07	1277,93
759,25	1273,84
759,43	1298,41
759,61	1370,09
759,79	1355,76
759,97	1378,28
760,15	1325,04
760,32	1282,03
760,50	1292,27
760,68	1255,40
760,86	1288,17
761,04	1214,45
761,22	1279,98
761,39	1286,12
761,57	1187,82
761,75	1331,18
761,93	1277,93
762,11	1320,94
762,28	1193,97
762,46	1296,36
762,64	1243,12
762,82	1239,02
763,00	1175,53
763,18	1230,83
763,35	1286,12
763,53	1200,11
763,71	1228,78
763,89	1282,03
764,07	1253,36
764,24	1255,40
764,42	1290,22
764,60	1298,41
764,78	1200,11
764,96	1265,64
765,13	1290,22
765,31	1265,64
765,49	1306,60
765,67	1265,64
765,84	1193,97
766,02	1239,02
766,20	1214,45
766,38	1218,54
766,56	1241,07
766,73	1230,83
766,91	1210,35
767,09	1345,52
767,27	1251,31
767,44	1247,21
767,62	1234,93
767,80	1222,64
767,98	1306,60
768,15	1245,16
768,33	1249,26
768,51	1245,16
768,69	1267,69
768,87	1298,41
769,04	1193,97
769,22	1249,26
769,40	1265,64
769,58	1243,12
769,75	1292,27
769,93	1271,79
770,11	1298,41
770,28	1271,79
770,46	1206,25
770,64	1351,66
770,82	1314,80
770,99	1384,43
771,17	1282,03
771,35	1241,07
771,53	1294,32
771,70	1271,79
771,88	1271,79
772,06	1269,74
772,23	1308,65
772,41	1288,17
772,59	1306,60
772,77	1333,23
772,94	1279,98
773,12	1220,59
773,30	1232,88
773,47	1308,65
773,65	1318,89
773,83	1341,42
774,01	1257,45
774,18	1327,08
774,36	1296,36
774,54	1273,84
774,71	1234,93
774,89	1222,64
775,07	1257,45
775,24	1370,09
775,42	1173,49
775,60	1259,50
775,78	1269,74
775,95	1202,16
776,13	1271,79
776,31	1226,73
776,48	1269,74
776,66	1304,56
776,84	1327,08
777,01	1269,74
777,19	1310,70
777,37	1263,60
777,54	1304,56
777,72	1222,64
777,90	1304,56
778,07	1230,83
778,25	1202,16
778,43	1347,56
778,60	1292,27
778,78	1261,55
778,96	1169,39
779,13	1247,21
779,31	1267,69
779,49	1261,55
779,66	1273,84
779,84	1230,83
780,01	1177,58
780,19	1234,93
780,37	1337,32
780,54	1320,94
780,72	1255,40
780,90	1257,45
781,07	1296,36
781,25	1269,74
781,43	1282,03
781,60	1210,35
781,78	1294,32
781,95	1208,30
782,13	1294,32
782,31	1310,70
782,48	1230,83
782,66	1267,69
782,83	1341,42
783,01	1263,60
783,19	1286,12
783,36	1306,60
783,54	1239,02
783,72	1345,52
783,89	1255,40
784,07	1302,51
784,24	1251,31
784,42	1288,17
784,60	1277,93
784,77	1314,80
784,95	1253,36
785,12	1269,74
785,30	1232,88
785,47	1282,03
785,65	1249,26
785,83	1265,64
786,00	1275,88
786,18	1306,60
786,35	1263,60
786,53	1322,99
786,71	1337,32
786,88	1245,16
787,06	1290,22
787,23	1257,45
787,41	1329,13
787,58	1179,63
787,76	1263,60
787,94	1286,12
788,11	1249,26
788,29	1234,93
788,46	1236,97
788,64	1304,56
788,81	1308,65
788,99	1210,35
789,16	1241,07
789,34	1353,71
789,52	1257,45
789,69	1257,45
789,87	1251,31
790,04	1200,11
790,22	1257,45
790,39	1271,79
790,57	1261,55
790,74	1245,16
790,92	1310,70
791,09	1282,03
791,27	1298,41
791,44	1288,17
791,62	1224,69
791,79	1247,21
791,97	1267,69
792,15	1333,23
792,32	1253,36
792,50	1277,93
792,67	1267,69
792,85	1269,74
793,02	1279,98
793,20	1263,60
793,37	1269,74
793,55	1304,56
793,72	1282,03
793,90	1271,79
794,07	1253,36
794,25	1306,60
794,42	1224,69
794,60	1265,64
794,77	1380,33
794,95	1349,61
795,12	1257,45
795,30	1243,12
795,47	1253,36
795,65	1239,02
795,82	1286,12
796,00	1232,88
796,17	1243,12
796,34	1296,36
796,52	1294,32
796,69	1284,08
796,87	1331,18
797,04	1271,79
797,22	1269,74
797,39	1236,97
797,57	1275,88
797,74	1296,36
797,92	1232,88
798,09	1241,07
798,27	1275,88
798,44	1239,02
798,62	1179,63
798,79	1271,79
798,96	1271,79
799,14	1183,73
799,31	1282,03
799,49	1261,55
799,66	1320,94
799,84	1259,50
800,01	1329,13
800,19	1269,74
800,36	1226,73
800,53	1325,04
800,71	1298,41
800,88	1343,47
801,06	1269,74
801,23	1273,84
801,41	1251,31
801,58	1253,36
801,75	1243,12
801,93	1318,89
802,10	1273,84
802,28	1343,47
802,45	1294,32
802,63	1269,74
802,80	1220,59
802,97	1286,12
803,15	1261,55
803,32	1273,84
803,50	1322,99
803,67	1245,16
803,84	1398,76
804,02	1349,61
804,19	1277,93
804,37	1230,83
804,54	1355,76
804,71	1320,94
804,89	1218,54
805,06	1279,98
805,24	1380,33
805,41	1322,99
805,58	1208,30
805,76	1216,49
805,93	1314,80
806,10	1337,32
806,28	1296,36
806,45	1294,32
806,63	1294,32
806,80	1249,26
806,97	1302,51
807,15	1234,93
807,32	1273,84
807,49	1249,26
807,67	1316,84
807,84	1239,02
808,01	1222,64
808,19	1290,22
808,36	1245,16
808,54	1286,12
808,71	1351,66
808,88	1222,64
809,06	1241,07
809,23	1347,56
809,40	1255,40
809,58	1292,27
809,75	1290,22
809,92	1239,02
810,10	1259,50
810,27	1288,17
810,44	1216,49
810,62	1316,84
810,79	1269,74
810,96	1216,49
811,14	1259,50
811,31	1206,25
811,48	1230,83
811,66	1290,22
811,83	1267,69
812,00	1290,22
812,18	1175,53
812,35	1271,79
812,52	1224,69
812,69	1277,93
812,87	1208,30
813,04	1310,70
813,21	1279,98
813,39	1298,41
813,56	1282,03
813,73	1255,40
813,91	1214,45
814,08	1296,36
814,25	1224,69
814,42	1284,08
814,60	1212,40
814,77	1243,12
814,94	1216,49
815,12	1263,60
815,29	1236,97
815,46	1255,40
815,63	1247,21
815,81	1247,21
815,98	1269,74
816,15	1249,26
816,33	1220,59
816,50	1214,45
816,67	1288,17
816,84	1230,83
817,02	1220,59
817,19	1253,36
817,36	1196,01
817,53	1255,40
817,71	1249,26
817,88	1277,93
818,05	1292,27
818,22	1361,90
818,40	1335,28
818,57	1306,60
818,74	1249,26
818,91	1308,65
819,09	1265,64
819,26	1300,46
819,43	1279,98
819,60	1249,26
819,78	1322,99
819,95	1288,17
820,12	1230,83
820,29	1222,64
820,47	1267,69
820,64	1232,88
820,81	1179,63
820,98	1216,49
821,15	1277,93
821,33	1306,60
821,50	1279,98
821,67	1329,13
821,84	1206,25
822,02	1277,93
822,19	1302,51
822,36	1265,64
822,53	1187,82
822,70	1298,41
822,88	1183,73
823,05	1191,92
823,22	1247,21
823,39	1247,21
823,56	1247,21
823,74	1273,84
823,91	1247,21
824,08	1265,64
824,25	1230,83
824,42	1269,74
824,60	1228,78
824,77	1337,32
824,94	1277,93
825,11	1294,32
825,28	1273,84
825,45	1265,64
825,63	1279,98
825,80	1224,69
825,97	1286,12
826,14	1357,80
826,31	1259,50
826,48	1320,94
826,66	1251,31
826,83	1275,88
827,00	1212,40
827,17	1259,50
827,34	1257,45
827,51	1396,71
827,69	1230,83
827,86	1267,69
828,03	1279,98
828,20	1279,98
828,37	1263,60
828,54	1214,45
828,71	1308,65
828,89	1253,36
829,06	1277,93
829,23	1228,78
829,40	1236,97
829,57	1341,42
829,74	1245,16
829,91	1290,22
830,09	1202,16
830,26	1284,08
830,43	1251,31
830,60	1206,25
830,77	1218,54
830,94	1279,98
831,11	1261,55
831,28	1247,21
831,46	1318,89
831,63	1255,40
831,80	1284,08
831,97	1239,02
832,14	1251,31
832,31	1312,75
832,48	1259,50
832,65	1288,17
832,82	1308,65
832,99	1212,40
833,17	1263,60
833,34	1286,12
833,51	1316,84
833,68	1357,80
833,85	1271,79
834,02	1288,17
834,19	1224,69
834,36	1277,93
834,53	1239,02
834,70	1298,41
834,87	1329,13
835,04	1228,78
835,22	1273,84
835,39	1232,88
835,56	1279,98
835,73	1277,93
835,90	1222,64
836,07	1277,93
836,24	1359,85
836,41	1257,45
836,58	1288,17
836,75	1226,73
836,92	1292,27
837,09	1322,99
837,26	1228,78
837,43	1253,36
837,60	1251,31
837,77	1167,34
837,94	1206,25
838,12	1257,45
838,29	1193,97
838,46	1279,98
838,63	1314,80
838,80	1320,94
838,97	1296,36
839,14	1265,64
839,31	1204,21
839,48	1253,36
839,65	1282,03
839,82	1349,61
839,99	1288,17
840,16	1273,84
840,33	1294,32
840,50	1271,79
840,67	1241,07
840,84	1269,74
841,01	1259,50
841,18	1173,49
841,35	1345,52
841,52	1218,54
841,69	1277,93
841,86	1208,30
842,03	1302,51
842,20	1306,60
842,37	1292,27
842,54	1302,51
842,71	1257,45
842,88	1257,45
843,05	1251,31
843,22	1247,21
843,39	1329,13
843,56	1310,70
843,73	1277,93
843,90	1316,84
844,07	1296,36
844,24	1284,08
844,41	1298,41
844,58	1361,90
844,75	1290,22
844,92	1306,60
845,09	1296,36
845,26	1277,93
845,43	1218,54
845,60	1320,94
845,77	1302,51
845,94	1361,90
846,10	1245,16
846,27	1247,21
846,44	1290,22
846,61	1228,78
846,78	1257,45
846,95	1175,53
847,12	1257,45
847,29	1310,70
847,46	1275,88
847,63	1288,17
847,80	1245,16
847,97	1222,64
848,14	1288,17
848,31	1214,45
848,48	1271,79
848,65	1216,49
848,82	1236,97
848,98	1288,17
849,15	1255,40
849,32	1347,56
849,49	1255,40
849,66	1263,60
849,83	1265,64
850,00	1249,26
850,17	1306,60
850,34	1275,88
850,51	1241,07
850,68	1255,40
850,85	1257,45
851,01	1265,64
851,18	1204,21
851,35	1228,78
851,52	1306,60
851,69	1298,41
851,86	1290,22
852,03	1257,45
852,20	1288,17
852,37	1265,64
852,53	1208,30
852,70	1249,26
852,87	1234,93
853,04	1310,70
853,21	1277,93
853,38	1263,60
853,55	1191,92
853,72	1261,55
853,89	1230,83
854,05	1314,80
854,22	1208,30
854,39	1279,98
854,56	1279,98
854,73	1325,04
854,90	1275,88
855,07	1247,21
855,23	1273,84
855,40	1290,22
855,57	1284,08
855,74	1298,41
855,91	1290,22
856,08	1243,12
856,25	1206,25
856,41	1253,36
856,58	1232,88
856,75	1259,50
856,92	1273,84
857,09	1296,36
857,26	1286,12
857,42	1265,64
857,59	1294,32
857,76	1265,64
857,93	1300,46
858,10	1306,60
858,27	1263,60
858,43	1320,94
858,60	1251,31
858,77	1265,64
858,94	1236,97
859,11	1275,88
859,27	1234,93
859,44	1265,64
859,61	1255,40
859,78	1286,12
859,95	1302,51
860,12	1331,18
860,28	1376,24
860,45	1279,98
860,62	1269,74
860,79	1333,23
860,95	1236,97
861,12	1251,31
861,29	1261,55
861,46	1282,03
861,63	1243,12
861,79	1241,07
861,96	1265,64
862,13	1259,50
862,30	1251,31
862,47	1339,37
862,63	1282,03
862,80	1275,88
862,97	1292,27
863,14	1302,51
863,30	1183,73
863,47	1210,35
863,64	1247,21
863,81	1304,56
863,97	1261,55
864,14	1310,70
864,31	1325,04
864,48	1318,89
864,65	1279,98
864,81	1214,45
864,98	1251,31
865,15	1298,41
865,32	1290,22
865,48	1224,69
865,65	1288,17
865,82	1269,74
865,98	1249,26
866,15	1310,70
866,32	1327,08
866,49	1267,69
866,65	1267,69
866,82	1282,03
866,99	1329,13
867,16	1306,60
867,32	1251,31
867,49	1374,19
867,66	1243,12
867,83	1255,40
867,99	1234,93
868,16	1302,51
868,33	1294,32
868,49	1163,25
868,66	1300,46
868,83	1320,94
868,99	1241,07
869,16	1234,93
869,33	1232,88
869,50	1341,42
869,66	1216,49
869,83	1259,50
870,00	1320,94
870,16	1234,93
870,33	1312,75
870,50	1247,21
870,66	1267,69
870,83	1277,93
871,00	1300,46
871,17	1249,26
871,33	1322,99
871,50	1304,56
871,67	1325,04
871,83	1228,78
872,00	1337,32
872,17	1267,69
872,33	1279,98
872,50	1265,64
872,67	1259,50
872,83	1214,45
873,00	1308,65
873,17	1198,06
873,33	1298,41
873,50	1282,03
873,67	1310,70
873,83	1273,84
874,00	1341,42
874,16	1290,22
874,33	1247,21
874,50	1298,41
874,66	1255,40
874,83	1269,74
875,00	1265,64
875,16	1236,97
875,33	1288,17
875,50	1230,83
875,66	1234,93
875,83	1290,22
875,99	1277,93
876,16	1288,17
876,33	1208,30
876,49	1294,32
876,66	1230,83
876,83	1253,36
876,99	1251,31
877,16	1226,73
877,32	1236,97
877,49	1259,50
877,66	1241,07
877,82	1275,88
877,99	1279,98
878,15	1335,28
878,32	1224,69
878,49	1253,36
878,65	1261,55
878,82	1257,45
878,98	1351,66
879,15	1236,97
879,32	1202,16
879,48	1267,69
879,65	1245,16
879,81	1222,64
879,98	1275,88
880,15	1296,36
880,31	1320,94
880,48	1198,06
880,64	1284,08
880,81	1214,45
880,97	1327,08
881,14	1343,47
881,31	1279,98
881,47	1255,40
881,64	1294,32
881,80	1253,36
881,97	1275,88
882,13	1263,60
882,30	1232,88
882,47	1286,12
882,63	1239,02
882,80	1290,22
882,96	1253,36
883,13	1255,40
883,29	1241,07
883,46	1331,18
883,62	1200,11
883,79	1275,88
883,95	1277,93
884,12	1339,37
884,29	1196,01
884,45	1257,45
884,62	1275,88
884,78	1255,40
884,95	1271,79
885,11	1314,80
885,28	1267,69
885,44	1279,98
885,61	1257,45
885,77	1220,59
885,94	1316,84
886,10	1265,64
886,27	1255,40
886,43	1228,78
886,60	1279,98
886,76	1249,26
886,93	1279,98
887,09	1347,56
887,26	1279,98
887,42	1288,17
887,59	1341,42
887,75	1322,99
887,92	1355,76
888,08	1222,64
888,25	1308,65
888,41	1253,36
888,58	1241,07
888,74	1245,16
888,91	1177,58
>>>>>End Processed Spectral Data<<<<<
