SpectraSuite Data File
++++++++++++++++++++++++++++++++++++
Date: Sun Apr 03 15:27:04 CEST 2016
User: root
Dark Spectrum Present: No
Reference Spectrum Present: No
Number of Sampled Component Spectra: 1
Spectrometers: USB4C02835
Integration Time (usec): 10000 (USB4C02835)
Spectra Averaged: 1 (USB4C02835)
Boxcar Smoothing: 0 (USB4C02835)
Correct for Electrical Dark: No (USB4C02835)
Strobe/Lamp Enabled: No (USB4C02835)
Correct for Detector Non-linearity: No (USB4C02835)
Correct for Stray Light: No (USB4C02835)
Number of Pixels in Processed Spectrum: 3648
>>>>>Begin Processed Spectral Data<<<<<
177,47	1239,02
177,69	1239,02
177,91	1239,02
178,13	1265,64
178,36	1304,56
178,58	1261,55
178,80	1239,02
179,02	1234,93
179,24	1312,75
179,46	1222,64
179,68	1312,75
179,90	1316,84
180,13	1241,07
180,35	1243,12
180,57	1269,74
180,79	1294,32
181,01	1255,40
181,23	1247,21
181,45	1308,65
181,67	1277,93
181,90	1265,64
182,12	1179,63
182,34	1288,17
182,56	1239,02
182,78	1290,22
183,00	1265,64
183,22	1265,64
183,44	1243,12
183,66	1308,65
183,89	1228,78
184,11	1279,98
184,33	1224,69
184,55	1247,21
184,77	1183,73
184,99	1304,56
185,21	1296,36
185,43	1222,64
185,65	1200,11
185,87	1325,04
186,10	1286,12
186,32	1271,79
186,54	1294,32
186,76	1310,70
186,98	1234,93
187,20	1253,36
187,42	1224,69
187,64	1249,26
187,86	1288,17
188,08	1234,93
188,30	1214,45
188,52	1253,36
188,75	1232,88
188,97	1282,03
189,19	1236,97
189,41	1308,65
189,63	1249,26
189,85	1204,21
190,07	1318,89
190,29	1247,21
190,51	1304,56
190,73	1232,88
190,95	1277,93
191,17	1243,12
191,39	1247,21
191,61	1249,26
191,84	1193,97
192,06	1304,56
192,28	1216,49
192,50	1255,40
192,72	1257,45
192,94	1224,69
193,16	1279,98
193,38	1224,69
193,60	1253,36
193,82	1265,64
194,04	1210,35
194,26	1282,03
194,48	1290,22
194,70	1275,88
194,92	1216,49
195,14	1267,69
195,36	1259,50
195,58	1267,69
195,80	1236,97
196,02	1245,16
196,24	1230,83
196,46	1282,03
196,69	1331,18
196,91	1234,93
197,13	1343,47
197,35	1239,02
197,57	1271,79
197,79	1320,94
198,01	1189,87
198,23	1296,36
198,45	1232,88
198,67	1312,75
198,89	1228,78
199,11	1302,51
199,33	1226,73
199,55	1257,45
199,77	1265,64
199,99	1204,21
200,21	1239,02
200,43	1257,45
200,65	1210,35
200,87	1239,02
201,09	1253,36
201,31	1292,27
201,53	1249,26
201,75	1218,54
201,97	1239,02
202,19	1253,36
202,41	1255,40
202,63	1302,51
202,85	1273,84
203,07	1310,70
203,29	1343,47
203,51	1259,50
203,73	1243,12
203,95	1337,32
204,17	1279,98
204,39	1298,41
204,61	1294,32
204,83	1312,75
205,05	1220,59
205,27	1302,51
205,49	1196,01
205,71	1298,41
205,93	1279,98
206,15	1290,22
206,37	1275,88
206,59	1308,65
206,81	1290,22
207,03	1279,98
207,25	1202,16
207,47	1232,88
207,69	1257,45
207,91	1245,16
208,13	1253,36
208,34	1263,60
208,56	1257,45
208,78	1296,36
209,00	1273,84
209,22	1284,08
209,44	1239,02
209,66	1318,89
209,88	1302,51
210,10	1232,88
210,32	1251,31
210,54	1298,41
210,76	1318,89
210,98	1282,03
211,20	1251,31
211,42	1269,74
211,64	1277,93
211,86	1257,45
212,08	1200,11
212,30	1325,04
212,52	1204,21
212,74	1298,41
212,96	1316,84
213,17	1329,13
213,39	1304,56
213,61	1290,22
213,83	1232,88
214,05	1339,37
214,27	1298,41
214,49	1230,83
214,71	1265,64
214,93	1241,07
215,15	1284,08
215,37	1308,65
215,59	1337,32
215,81	1161,20
216,03	1275,88
216,24	1318,89
216,46	1282,03
216,68	1286,12
216,90	1175,53
217,12	1267,69
217,34	1251,31
217,56	1259,50
217,78	1230,83
218,00	1288,17
218,22	1284,08
218,44	1236,97
218,66	1271,79
218,87	1249,26
219,09	1241,07
219,31	1292,27
219,53	1259,50
219,75	1271,79
219,97	1251,31
220,19	1208,30
220,41	1279,98
220,63	1232,88
220,85	1230,83
221,06	1261,55
221,28	1290,22
221,50	1241,07
221,72	1222,64
221,94	1282,03
222,16	1241,07
222,38	1265,64
222,60	1228,78
222,82	1300,46
223,03	1259,50
223,25	1255,40
223,47	1273,84
223,69	1341,42
223,91	1288,17
224,13	1327,08
224,35	1296,36
224,57	1257,45
224,78	1255,40
225,00	1228,78
225,22	1314,80
225,44	1282,03
225,66	1241,07
225,88	1241,07
226,10	1271,79
226,32	1304,56
226,53	1331,18
226,75	1306,60
226,97	1212,40
227,19	1316,84
227,41	1212,40
227,63	1222,64
227,85	1265,64
228,06	1312,75
228,28	1282,03
228,50	1206,25
228,72	1312,75
228,94	1222,64
229,16	1294,32
229,37	1249,26
229,59	1253,36
229,81	1316,84
230,03	1251,31
230,25	1263,60
230,47	1331,18
230,69	1241,07
230,90	1341,42
231,12	1308,65
231,34	1259,50
231,56	1269,74
231,78	1275,88
232,00	1220,59
232,21	1210,35
232,43	1267,69
232,65	1279,98
232,87	1314,80
233,09	1306,60
233,30	1234,93
233,52	1239,02
233,74	1286,12
233,96	1286,12
234,18	1275,88
234,40	1234,93
234,61	1312,75
234,83	1245,16
235,05	1269,74
235,27	1165,29
235,49	1292,27
235,70	1210,35
235,92	1288,17
236,14	1232,88
236,36	1265,64
236,58	1220,59
236,79	1241,07
237,01	1292,27
237,23	1265,64
237,45	1314,80
237,67	1288,17
237,88	1259,50
238,10	1284,08
238,32	1241,07
238,54	1236,97
238,76	1277,93
238,97	1208,30
239,19	1277,93
239,41	1267,69
239,63	1296,36
239,85	1259,50
240,06	1273,84
240,28	1247,21
240,50	1241,07
240,72	1200,11
240,93	1177,58
241,15	1298,41
241,37	1226,73
241,59	1189,87
241,81	1265,64
242,02	1251,31
242,24	1273,84
242,46	1224,69
242,68	1298,41
242,89	1247,21
243,11	1302,51
243,33	1257,45
243,55	1253,36
243,76	1333,23
243,98	1343,47
244,20	1370,09
244,42	1212,40
244,64	1341,42
244,85	1271,79
245,07	1255,40
245,29	1255,40
245,51	1273,84
245,72	1275,88
245,94	1306,60
246,16	1271,79
246,38	1241,07
246,59	1275,88
246,81	1243,12
247,03	1265,64
247,24	1286,12
247,46	1304,56
247,68	1261,55
247,90	1314,80
248,11	1275,88
248,33	1310,70
248,55	1249,26
248,77	1212,40
248,98	1294,32
249,20	1265,64
249,42	1253,36
249,64	1251,31
249,85	1241,07
250,07	1222,64
250,29	1222,64
250,50	1247,21
250,72	1220,59
250,94	1341,42
251,16	1236,97
251,37	1325,04
251,59	1322,99
251,81	1269,74
252,02	1279,98
252,24	1271,79
252,46	1300,46
252,68	1239,02
252,89	1337,32
253,11	1273,84
253,33	1298,41
253,54	1257,45
253,76	1288,17
253,98	1302,51
254,20	1269,74
254,41	1185,77
254,63	1265,64
254,85	1310,70
255,06	1263,60
255,28	1257,45
255,50	1320,94
255,71	1288,17
255,93	1290,22
256,15	1230,83
256,36	1284,08
256,58	1249,26
256,80	1314,80
257,02	1263,60
257,23	1220,59
257,45	1275,88
257,67	1249,26
257,88	1232,88
258,10	1183,73
258,32	1220,59
258,53	1263,60
258,75	1322,99
258,97	1312,75
259,18	1216,49
259,40	1320,94
259,62	1249,26
259,83	1257,45
260,05	1288,17
260,27	1312,75
260,48	1286,12
260,70	1335,28
260,92	1316,84
261,13	1253,36
261,35	1277,93
261,57	1241,07
261,78	1312,75
262,00	1251,31
262,22	1253,36
262,43	1279,98
262,65	1228,78
262,86	1247,21
263,08	1327,08
263,30	1292,27
263,51	1284,08
263,73	1290,22
263,95	1173,49
264,16	1253,36
264,38	1243,12
264,60	1267,69
264,81	1279,98
265,03	1263,60
265,25	1333,23
265,46	1318,89
265,68	1292,27
265,89	1273,84
266,11	1214,45
266,33	1329,13
266,54	1202,16
266,76	1263,60
266,98	1265,64
267,19	1339,37
267,41	1290,22
267,62	1290,22
267,84	1265,64
268,06	1261,55
268,27	1253,36
268,49	1241,07
268,70	1290,22
268,92	1302,51
269,14	1296,36
269,35	1290,22
269,57	1286,12
269,79	1249,26
270,00	1220,59
270,22	1288,17
270,43	1288,17
270,65	1241,07
270,87	1245,16
271,08	1265,64
271,30	1273,84
271,51	1339,37
271,73	1370,09
271,95	1310,70
272,16	1255,40
272,38	1214,45
272,59	1322,99
272,81	1327,08
273,02	1306,60
273,24	1247,21
273,46	1220,59
273,67	1298,41
273,89	1167,34
274,10	1320,94
274,32	1249,26
274,54	1296,36
274,75	1273,84
274,97	1296,36
275,18	1179,63
275,40	1347,56
275,61	1247,21
275,83	1314,80
276,05	1271,79
276,26	1222,64
276,48	1232,88
276,69	1253,36
276,91	1251,31
277,12	1241,07
277,34	1310,70
277,55	1263,60
277,77	1273,84
277,99	1243,12
278,20	1298,41
278,42	1249,26
278,63	1310,70
278,85	1222,64
279,06	1277,93
279,28	1294,32
279,49	1210,35
279,71	1308,65
279,93	1259,50
280,14	1288,17
280,36	1261,55
280,57	1241,07
280,79	1185,77
281,00	1279,98
281,22	1230,83
281,43	1388,52
281,65	1263,60
281,86	1263,60
282,08	1241,07
282,29	1269,74
282,51	1230,83
282,73	1216,49
282,94	1265,64
283,16	1247,21
283,37	1251,31
283,59	1259,50
283,80	1249,26
284,02	1279,98
284,23	1298,41
284,45	1290,22
284,66	1183,73
284,88	1247,21
285,09	1241,07
285,31	1345,52
285,52	1310,70
285,74	1236,97
285,95	1320,94
286,17	1261,55
286,38	1304,56
286,60	1271,79
286,81	1228,78
287,03	1265,64
287,24	1296,36
287,46	1282,03
287,67	1294,32
287,89	1298,41
288,10	1279,98
288,32	1288,17
288,53	1208,30
288,75	1318,89
288,96	1251,31
289,18	1259,50
289,39	1226,73
289,61	1273,84
289,82	1251,31
290,04	1298,41
290,25	1261,55
290,47	1314,80
290,68	1282,03
290,90	1251,31
291,11	1243,12
291,33	1261,55
291,54	1253,36
291,76	1261,55
291,97	1224,69
292,18	1255,40
292,40	1306,60
292,61	1288,17
292,83	1329,13
293,04	1286,12
293,26	1298,41
293,47	1267,69
293,69	1220,59
293,90	1263,60
294,12	1257,45
294,33	1320,94
294,55	1261,55
294,76	1253,36
294,97	1288,17
295,19	1355,76
295,40	1230,83
295,62	1322,99
295,83	1230,83
296,05	1230,83
296,26	1267,69
296,48	1349,61
296,69	1247,21
296,90	1249,26
297,12	1239,02
297,33	1298,41
297,55	1288,17
297,76	1185,77
297,98	1253,36
298,19	1251,31
298,41	1269,74
298,62	1224,69
298,83	1290,22
299,05	1277,93
299,26	1243,12
299,48	1290,22
299,69	1296,36
299,90	1329,13
300,12	1296,36
300,33	1196,01
300,55	1277,93
300,76	1298,41
300,98	1271,79
301,19	1310,70
301,40	1232,88
301,62	1265,64
301,83	1198,06
302,05	1261,55
302,26	1275,88
302,47	1241,07
302,69	1275,88
302,90	1198,06
303,12	1249,26
303,33	1284,08
303,54	1302,51
303,76	1300,46
303,97	1257,45
304,19	1230,83
304,40	1277,93
304,61	1230,83
304,83	1185,77
305,04	1292,27
305,26	1257,45
305,47	1241,07
305,68	1257,45
305,90	1277,93
306,11	1232,88
306,33	1171,44
306,54	1226,73
306,75	1308,65
306,97	1320,94
307,18	1314,80
307,39	1306,60
307,61	1308,65
307,82	1275,88
308,04	1269,74
308,25	1333,23
308,46	1267,69
308,68	1261,55
308,89	1196,01
309,10	1298,41
309,32	1320,94
309,53	1239,02
309,74	1247,21
309,96	1222,64
310,17	1243,12
310,39	1314,80
310,60	1249,26
310,81	1298,41
311,03	1239,02
311,24	1298,41
311,45	1300,46
311,67	1230,83
311,88	1239,02
312,09	1206,25
312,31	1208,30
312,52	1222,64
312,73	1300,46
312,95	1257,45
313,16	1185,77
313,37	1206,25
313,59	1284,08
313,80	1218,54
314,01	1292,27
314,23	1282,03
314,44	1304,56
314,65	1220,59
314,87	1345,52
315,08	1191,92
315,29	1286,12
315,51	1255,40
315,72	1200,11
315,93	1212,40
316,15	1249,26
316,36	1224,69
316,57	1296,36
316,79	1298,41
317,00	1290,22
317,21	1255,40
317,43	1286,12
317,64	1247,21
317,85	1329,13
318,07	1210,35
318,28	1308,65
318,49	1331,18
318,70	1257,45
318,92	1255,40
319,13	1261,55
319,34	1294,32
319,56	1273,84
319,77	1234,93
319,98	1310,70
320,20	1247,21
320,41	1196,01
320,62	1204,21
320,83	1269,74
321,05	1224,69
321,26	1214,45
321,47	1345,52
321,69	1259,50
321,90	1255,40
322,11	1320,94
322,32	1302,51
322,54	1292,27
322,75	1273,84
322,96	1269,74
323,18	1241,07
323,39	1236,97
323,60	1232,88
323,81	1339,37
324,03	1277,93
324,24	1288,17
324,45	1183,73
324,66	1312,75
324,88	1325,04
325,09	1325,04
325,30	1288,17
325,52	1275,88
325,73	1302,51
325,94	1187,82
326,15	1267,69
326,37	1255,40
326,58	1265,64
326,79	1269,74
327,00	1216,49
327,22	1282,03
327,43	1234,93
327,64	1271,79
327,85	1312,75
328,07	1181,68
328,28	1282,03
328,49	1236,97
328,70	1306,60
328,92	1224,69
329,13	1204,21
329,34	1290,22
329,55	1335,28
329,76	1333,23
329,98	1271,79
330,19	1277,93
330,40	1220,59
330,61	1298,41
330,83	1282,03
331,04	1304,56
331,25	1300,46
331,46	1249,26
331,68	1292,27
331,89	1339,37
332,10	1273,84
332,31	1249,26
332,52	1290,22
332,74	1271,79
332,95	1200,11
333,16	1290,22
333,37	1290,22
333,58	1247,21
333,80	1220,59
334,01	1267,69
334,22	1322,99
334,43	1296,36
334,64	1243,12
334,86	1314,80
335,07	1277,93
335,28	1298,41
335,49	1261,55
335,70	1339,37
335,92	1298,41
336,13	1312,75
336,34	1308,65
336,55	1243,12
336,76	1216,49
336,98	1273,84
337,19	1232,88
337,40	1273,84
337,61	1327,08
337,82	1228,78
338,04	1214,45
338,25	1247,21
338,46	1265,64
338,67	1306,60
338,88	1337,32
339,09	1243,12
339,31	1284,08
339,52	1226,73
339,73	1322,99
339,94	1224,69
340,15	1263,60
340,36	1304,56
340,58	1298,41
340,79	1290,22
341,00	1273,84
341,21	1265,64
341,42	1269,74
341,63	1279,98
341,85	1245,16
342,06	1302,51
342,27	1220,59
342,48	1255,40
342,69	1312,75
342,90	1290,22
343,12	1263,60
343,33	1249,26
343,54	1259,50
343,75	1322,99
343,96	1232,88
344,17	1214,45
344,38	1259,50
344,60	1247,21
344,81	1339,37
345,02	1288,17
345,23	1263,60
345,44	1318,89
345,65	1253,36
345,86	1331,18
346,07	1232,88
346,29	1288,17
346,50	1208,30
346,71	1353,71
346,92	1296,36
347,13	1257,45
347,34	1345,52
347,55	1259,50
347,76	1279,98
347,98	1277,93
348,19	1230,83
348,40	1241,07
348,61	1259,50
348,82	1239,02
349,03	1292,27
349,24	1230,83
349,45	1294,32
349,66	1314,80
349,88	1257,45
350,09	1298,41
350,30	1267,69
350,51	1318,89
350,72	1292,27
350,93	1255,40
351,14	1343,47
351,35	1282,03
351,56	1294,32
351,77	1224,69
351,99	1243,12
352,20	1253,36
352,41	1249,26
352,62	1333,23
352,83	1279,98
353,04	1294,32
353,25	1300,46
353,46	1249,26
353,67	1277,93
353,88	1312,75
354,09	1300,46
354,30	1232,88
354,52	1263,60
354,73	1222,64
354,94	1302,51
355,15	1318,89
355,36	1263,60
355,57	1253,36
355,78	1329,13
355,99	1312,75
356,20	1269,74
356,41	1337,32
356,62	1282,03
356,83	1265,64
357,04	1214,45
357,25	1267,69
357,46	1286,12
357,68	1271,79
357,89	1282,03
358,10	1314,80
358,31	1277,93
358,52	1294,32
358,73	1208,30
358,94	1353,71
359,15	1261,55
359,36	1302,51
359,57	1298,41
359,78	1269,74
359,99	1304,56
360,20	1202,16
360,41	1163,25
360,62	1275,88
360,83	1208,30
361,04	1249,26
361,25	1257,45
361,46	1257,45
361,67	1257,45
361,88	1314,80
362,09	1222,64
362,30	1337,32
362,51	1325,04
362,72	1183,73
362,93	1249,26
363,14	1277,93
363,35	1253,36
363,56	1275,88
363,78	1304,56
363,99	1228,78
364,20	1265,64
364,41	1249,26
364,62	1239,02
364,83	1224,69
365,04	1247,21
365,25	1265,64
365,46	1282,03
365,67	1167,34
365,88	1322,99
366,09	1253,36
366,30	1193,97
366,51	1279,98
366,72	1282,03
366,93	1224,69
367,14	1308,65
367,35	1296,36
367,56	1314,80
367,77	1286,12
367,98	1279,98
368,18	1247,21
368,39	1304,56
368,60	1206,25
368,81	1333,23
369,02	1236,97
369,23	1290,22
369,44	1222,64
369,65	1316,84
369,86	1296,36
370,07	1275,88
370,28	1212,40
370,49	1245,16
370,70	1277,93
370,91	1175,53
371,12	1300,46
371,33	1302,51
371,54	1296,36
371,75	1177,58
371,96	1251,31
372,17	1269,74
372,38	1267,69
372,59	1318,89
372,80	1300,46
373,01	1314,80
373,22	1255,40
373,43	1261,55
373,64	1329,13
373,85	1277,93
374,06	1355,76
374,26	1286,12
374,47	1329,13
374,68	1261,55
374,89	1316,84
375,10	1251,31
375,31	1212,40
375,52	1308,65
375,73	1222,64
375,94	1228,78
376,15	1302,51
376,36	1318,89
376,57	1341,42
376,78	1290,22
376,99	1191,92
377,20	1271,79
377,40	1232,88
377,61	1298,41
377,82	1241,07
378,03	1210,35
378,24	1255,40
378,45	1241,07
378,66	1275,88
378,87	1325,04
379,08	1273,84
379,29	1300,46
379,50	1216,49
379,71	1318,89
379,91	1255,40
380,12	1269,74
380,33	1232,88
380,54	1232,88
380,75	1337,32
380,96	1183,73
381,17	1318,89
381,38	1298,41
381,59	1378,28
381,80	1216,49
382,00	1308,65
382,21	1228,78
382,42	1247,21
382,63	1275,88
382,84	1245,16
383,05	1236,97
383,26	1292,27
383,47	1239,02
383,68	1312,75
383,88	1279,98
384,09	1308,65
384,30	1292,27
384,51	1302,51
384,72	1204,21
384,93	1337,32
385,14	1255,40
385,35	1290,22
385,55	1290,22
385,76	1273,84
385,97	1204,21
386,18	1261,55
386,39	1310,70
386,60	1245,16
386,81	1245,16
387,02	1286,12
387,22	1236,97
387,43	1306,60
387,64	1284,08
387,85	1232,88
388,06	1284,08
388,27	1204,21
388,48	1265,64
388,68	1230,83
388,89	1265,64
389,10	1249,26
389,31	1300,46
389,52	1210,35
389,73	1312,75
389,93	1286,12
390,14	1259,50
390,35	1277,93
390,56	1302,51
390,77	1204,21
390,98	1290,22
391,18	1282,03
391,39	1253,36
391,60	1267,69
391,81	1279,98
392,02	1290,22
392,23	1290,22
392,43	1222,64
392,64	1282,03
392,85	1333,23
393,06	1261,55
393,27	1282,03
393,47	1279,98
393,68	1306,60
393,89	1249,26
394,10	1251,31
394,31	1263,60
394,52	1142,77
394,72	1220,59
394,93	1261,55
395,14	1216,49
395,35	1193,97
395,56	1236,97
395,76	1286,12
395,97	1265,64
396,18	1269,74
396,39	1312,75
396,60	1271,79
396,80	1257,45
397,01	1277,93
397,22	1265,64
397,43	1312,75
397,64	1234,93
397,84	1206,25
398,05	1306,60
398,26	1259,50
398,47	1359,85
398,67	1208,30
398,88	1292,27
399,09	1282,03
399,30	1200,11
399,51	1232,88
399,71	1261,55
399,92	1282,03
400,13	1302,51
400,34	1198,06
400,54	1277,93
400,75	1368,04
400,96	1247,21
401,17	1312,75
401,37	1292,27
401,58	1310,70
401,79	1269,74
402,00	1236,97
402,21	1282,03
402,41	1247,21
402,62	1290,22
402,83	1251,31
403,04	1322,99
403,24	1316,84
403,45	1251,31
403,66	1279,98
403,87	1343,47
404,07	1296,36
404,28	1296,36
404,49	1314,80
404,70	1329,13
404,90	1245,16
405,11	1290,22
405,32	1253,36
405,52	1265,64
405,73	1249,26
405,94	1259,50
406,15	1273,84
406,35	1282,03
406,56	1347,56
406,77	1290,22
406,98	1312,75
407,18	1202,16
407,39	1275,88
407,60	1306,60
407,80	1253,36
408,01	1214,45
408,22	1304,56
408,43	1286,12
408,63	1282,03
408,84	1226,73
409,05	1269,74
409,25	1312,75
409,46	1249,26
409,67	1318,89
409,88	1255,40
410,08	1275,88
410,29	1331,18
410,50	1339,37
410,70	1302,51
410,91	1269,74
411,12	1304,56
411,32	1247,21
411,53	1269,74
411,74	1265,64
411,95	1257,45
412,15	1300,46
412,36	1265,64
412,57	1322,99
412,77	1294,32
412,98	1239,02
413,19	1269,74
413,39	1294,32
413,60	1304,56
413,81	1189,87
414,01	1200,11
414,22	1208,30
414,43	1259,50
414,63	1376,24
414,84	1286,12
415,05	1322,99
415,25	1296,36
415,46	1214,45
415,67	1290,22
415,87	1322,99
416,08	1282,03
416,29	1298,41
416,49	1214,45
416,70	1298,41
416,91	1273,84
417,11	1288,17
417,32	1361,90
417,53	1275,88
417,73	1327,08
417,94	1255,40
418,15	1300,46
418,35	1249,26
418,56	1275,88
418,77	1216,49
418,97	1329,13
419,18	1275,88
419,38	1294,32
419,59	1277,93
419,80	1202,16
420,00	1239,02
420,21	1269,74
420,42	1261,55
420,62	1300,46
420,83	1224,69
421,04	1245,16
421,24	1331,18
421,45	1318,89
421,65	1265,64
421,86	1284,08
422,07	1224,69
422,27	1257,45
422,48	1331,18
422,69	1220,59
422,89	1245,16
423,10	1314,80
423,30	1263,60
423,51	1239,02
423,72	1226,73
423,92	1312,75
424,13	1322,99
424,33	1273,84
424,54	1181,68
424,75	1271,79
424,95	1304,56
425,16	1249,26
425,36	1261,55
425,57	1257,45
425,78	1294,32
425,98	1275,88
426,19	1269,74
426,39	1269,74
426,60	1294,32
426,81	1286,12
427,01	1275,88
427,22	1314,80
427,42	1228,78
427,63	1282,03
427,83	1310,70
428,04	1329,13
428,25	1212,40
428,45	1249,26
428,66	1290,22
428,86	1290,22
429,07	1232,88
429,28	1259,50
429,48	1234,93
429,69	1208,30
429,89	1224,69
430,10	1236,97
430,30	1284,08
430,51	1308,65
430,71	1202,16
430,92	1306,60
431,13	1251,31
431,33	1261,55
431,54	1296,36
431,74	1288,17
431,95	1251,31
432,15	1245,16
432,36	1271,79
432,56	1308,65
432,77	1320,94
432,98	1265,64
433,18	1257,45
433,39	1261,55
433,59	1232,88
433,80	1302,51
434,00	1243,12
434,21	1271,79
434,41	1234,93
434,62	1183,73
434,82	1239,02
435,03	1247,21
435,23	1265,64
435,44	1292,27
435,64	1222,64
435,85	1277,93
436,06	1249,26
436,26	1249,26
436,47	1196,01
436,67	1320,94
436,88	1243,12
437,08	1224,69
437,29	1247,21
437,49	1300,46
437,70	1271,79
437,90	1259,50
438,11	1249,26
438,31	1335,28
438,52	1257,45
438,72	1339,37
438,93	1290,22
439,13	1312,75
439,34	1247,21
439,54	1263,60
439,75	1325,04
439,95	1292,27
440,16	1327,08
440,36	1298,41
440,57	1310,70
440,77	1220,59
440,98	1314,80
441,18	1234,93
441,39	1316,84
441,59	1306,60
441,80	1290,22
442,00	1222,64
442,21	1232,88
442,41	1216,49
442,62	1284,08
442,82	1196,01
443,02	1292,27
443,23	1200,11
443,43	1243,12
443,64	1343,47
443,84	1257,45
444,05	1279,98
444,25	1218,54
444,46	1304,56
444,66	1257,45
444,87	1306,60
445,07	1243,12
445,28	1279,98
445,48	1259,50
445,69	1312,75
445,89	1236,97
446,09	1271,79
446,30	1247,21
446,50	1277,93
446,71	1269,74
446,91	1259,50
447,12	1286,12
447,32	1204,21
447,53	1220,59
447,73	1239,02
447,93	1236,97
448,14	1282,03
448,34	1269,74
448,55	1247,21
448,75	1200,11
448,96	1351,66
449,16	1210,35
449,36	1261,55
449,57	1224,69
449,77	1259,50
449,98	1347,56
450,18	1216,49
450,39	1239,02
450,59	1245,16
450,79	1294,32
451,00	1259,50
451,20	1265,64
451,41	1312,75
451,61	1277,93
451,81	1306,60
452,02	1179,63
452,22	1261,55
452,43	1306,60
452,63	1257,45
452,84	1267,69
453,04	1239,02
453,24	1275,88
453,45	1286,12
453,65	1290,22
453,86	1265,64
454,06	1329,13
454,26	1239,02
454,47	1267,69
454,67	1257,45
454,87	1292,27
455,08	1286,12
455,28	1255,40
455,49	1265,64
455,69	1261,55
455,89	1275,88
456,10	1284,08
456,30	1253,36
456,51	1224,69
456,71	1273,84
456,91	1347,56
457,12	1263,60
457,32	1257,45
457,52	1210,35
457,73	1327,08
457,93	1228,78
458,14	1245,16
458,34	1226,73
458,54	1212,40
458,75	1273,84
458,95	1273,84
459,15	1236,97
459,36	1269,74
459,56	1245,16
459,76	1318,89
459,97	1234,93
460,17	1257,45
460,37	1257,45
460,58	1247,21
460,78	1308,65
460,99	1253,36
461,19	1232,88
461,39	1335,28
461,60	1255,40
461,80	1273,84
462,00	1265,64
462,21	1255,40
462,41	1288,17
462,61	1255,40
462,82	1312,75
463,02	1257,45
463,22	1243,12
463,43	1249,26
463,63	1251,31
463,83	1294,32
464,04	1257,45
464,24	1312,75
464,44	1253,36
464,64	1247,21
464,85	1294,32
465,05	1284,08
465,25	1247,21
465,46	1316,84
465,66	1322,99
465,86	1304,56
466,07	1302,51
466,27	1257,45
466,47	1239,02
466,68	1251,31
466,88	1263,60
467,08	1239,02
467,29	1282,03
467,49	1374,19
467,69	1271,79
467,89	1275,88
468,10	1282,03
468,30	1257,45
468,50	1263,60
468,71	1273,84
468,91	1263,60
469,11	1173,49
469,31	1245,16
469,52	1241,07
469,72	1335,28
469,92	1263,60
470,13	1226,73
470,33	1302,51
470,53	1286,12
470,73	1310,70
470,94	1198,06
471,14	1265,64
471,34	1304,56
471,54	1302,51
471,75	1259,50
471,95	1253,36
472,15	1261,55
472,36	1239,02
472,56	1247,21
472,76	1257,45
472,96	1290,22
473,17	1290,22
473,37	1282,03
473,57	1343,47
473,77	1329,13
473,98	1265,64
474,18	1312,75
474,38	1249,26
474,58	1198,06
474,79	1218,54
474,99	1236,97
475,19	1314,80
475,39	1335,28
475,60	1322,99
475,80	1216,49
476,00	1314,80
476,20	1318,89
476,41	1267,69
476,61	1282,03
476,81	1339,37
477,01	1241,07
477,21	1298,41
477,42	1273,84
477,62	1271,79
477,82	1351,66
478,02	1269,74
478,23	1245,16
478,43	1226,73
478,63	1279,98
478,83	1177,58
479,03	1292,27
479,24	1304,56
479,44	1277,93
479,64	1253,36
479,84	1216,49
480,04	1234,93
480,25	1282,03
480,45	1247,21
480,65	1316,84
480,85	1243,12
481,06	1245,16
481,26	1251,31
481,46	1239,02
481,66	1296,36
481,86	1347,56
482,06	1255,40
482,27	1370,09
482,47	1183,73
482,67	1294,32
482,87	1226,73
483,07	1251,31
483,28	1271,79
483,48	1257,45
483,68	1224,69
483,88	1206,25
484,08	1327,08
484,29	1261,55
484,49	1224,69
484,69	1282,03
484,89	1327,08
485,09	1261,55
485,29	1206,25
485,50	1267,69
485,70	1257,45
485,90	1286,12
486,10	1286,12
486,30	1355,76
486,50	1253,36
486,71	1202,16
486,91	1251,31
487,11	1265,64
487,31	1261,55
487,51	1234,93
487,71	1261,55
487,91	1208,30
488,12	1279,98
488,32	1288,17
488,52	1312,75
488,72	1284,08
488,92	1277,93
489,12	1277,93
489,32	1361,90
489,53	1277,93
489,73	1286,12
489,93	1292,27
490,13	1259,50
490,33	1247,21
490,53	1267,69
490,73	1306,60
490,94	1290,22
491,14	1290,22
491,34	1320,94
491,54	1259,50
491,74	1247,21
491,94	1325,04
492,14	1265,64
492,34	1263,60
492,54	1284,08
492,75	1296,36
492,95	1282,03
493,15	1249,26
493,35	1279,98
493,55	1247,21
493,75	1282,03
493,95	1275,88
494,15	1290,22
494,35	1241,07
494,56	1294,32
494,76	1224,69
494,96	1243,12
495,16	1335,28
495,36	1341,42
495,56	1208,30
495,76	1300,46
495,96	1277,93
496,16	1239,02
496,36	1308,65
496,56	1247,21
496,77	1296,36
496,97	1261,55
497,17	1331,18
497,37	1224,69
497,57	1335,28
497,77	1337,32
497,97	1282,03
498,17	1191,92
498,37	1239,02
498,57	1239,02
498,77	1228,78
498,97	1185,77
499,17	1277,93
499,38	1230,83
499,58	1269,74
499,78	1263,60
499,98	1191,92
500,18	1314,80
500,38	1200,11
500,58	1275,88
500,78	1292,27
500,98	1294,32
501,18	1204,21
501,38	1230,83
501,58	1310,70
501,78	1228,78
501,98	1269,74
502,18	1366,00
502,38	1286,12
502,58	1273,84
502,78	1292,27
502,98	1271,79
503,18	1245,16
503,38	1331,18
503,59	1294,32
503,79	1339,37
503,99	1320,94
504,19	1218,54
504,39	1232,88
504,59	1310,70
504,79	1224,69
504,99	1275,88
505,19	1263,60
505,39	1288,17
505,59	1267,69
505,79	1222,64
505,99	1241,07
506,19	1312,75
506,39	1236,97
506,59	1255,40
506,79	1249,26
506,99	1298,41
507,19	1212,40
507,39	1312,75
507,59	1187,82
507,79	1251,31
507,99	1255,40
508,19	1308,65
508,39	1279,98
508,59	1296,36
508,79	1298,41
508,99	1288,17
509,19	1290,22
509,39	1290,22
509,59	1251,31
509,79	1273,84
509,99	1331,18
510,19	1220,59
510,39	1277,93
510,59	1179,63
510,79	1232,88
510,99	1228,78
511,19	1316,84
511,39	1273,84
511,59	1257,45
511,79	1243,12
511,99	1259,50
512,19	1284,08
512,38	1232,88
512,58	1275,88
512,78	1200,11
512,98	1261,55
513,18	1339,37
513,38	1263,60
513,58	1322,99
513,78	1269,74
513,98	1259,50
514,18	1224,69
514,38	1298,41
514,58	1277,93
514,78	1210,35
514,98	1220,59
515,18	1312,75
515,38	1234,93
515,58	1226,73
515,78	1296,36
515,98	1316,84
516,18	1288,17
516,38	1222,64
516,57	1341,42
516,77	1236,97
516,97	1269,74
517,17	1273,84
517,37	1247,21
517,57	1271,79
517,77	1265,64
517,97	1279,98
518,17	1298,41
518,37	1232,88
518,57	1241,07
518,77	1359,85
518,97	1206,25
519,16	1312,75
519,36	1290,22
519,56	1239,02
519,76	1269,74
519,96	1271,79
520,16	1290,22
520,36	1286,12
520,56	1300,46
520,76	1322,99
520,96	1249,26
521,16	1257,45
521,35	1263,60
521,55	1314,80
521,75	1243,12
521,95	1259,50
522,15	1288,17
522,35	1294,32
522,55	1191,92
522,75	1224,69
522,95	1236,97
523,14	1279,98
523,34	1267,69
523,54	1216,49
523,74	1327,08
523,94	1292,27
524,14	1173,49
524,34	1245,16
524,54	1335,28
524,73	1284,08
524,93	1267,69
525,13	1316,84
525,33	1251,31
525,53	1247,21
525,73	1259,50
525,93	1290,22
526,13	1300,46
526,32	1335,28
526,52	1222,64
526,72	1241,07
526,92	1341,42
527,12	1269,74
527,32	1269,74
527,52	1263,60
527,71	1183,73
527,91	1255,40
528,11	1206,25
528,31	1286,12
528,51	1277,93
528,71	1279,98
528,90	1200,11
529,10	1216,49
529,30	1312,75
529,50	1249,26
529,70	1249,26
529,90	1257,45
530,09	1288,17
530,29	1302,51
530,49	1226,73
530,69	1247,21
530,89	1290,22
531,09	1294,32
531,28	1300,46
531,48	1241,07
531,68	1349,61
531,88	1277,93
532,08	1357,80
532,28	1249,26
532,47	1296,36
532,67	1255,40
532,87	1218,54
533,07	1298,41
533,27	1308,65
533,46	1230,83
533,66	1269,74
533,86	1269,74
534,06	1247,21
534,26	1263,60
534,45	1204,21
534,65	1306,60
534,85	1269,74
535,05	1282,03
535,25	1241,07
535,44	1339,37
535,64	1232,88
535,84	1255,40
536,04	1232,88
536,24	1353,71
536,43	1308,65
536,63	1261,55
536,83	1218,54
537,03	1265,64
537,22	1234,93
537,42	1292,27
537,62	1257,45
537,82	1318,89
538,02	1245,16
538,21	1320,94
538,41	1265,64
538,61	1175,53
538,81	1253,36
539,00	1241,07
539,20	1314,80
539,40	1234,93
539,60	1300,46
539,79	1218,54
539,99	1245,16
540,19	1253,36
540,39	1267,69
540,58	1296,36
540,78	1234,93
540,98	1320,94
541,18	1236,97
541,37	1243,12
541,57	1230,83
541,77	1257,45
541,97	1261,55
542,16	1245,16
542,36	1241,07
542,56	1257,45
542,76	1320,94
542,95	1216,49
543,15	1153,01
543,35	1245,16
543,54	1322,99
543,74	1222,64
543,94	1304,56
544,14	1300,46
544,33	1355,76
544,53	1257,45
544,73	1230,83
544,93	1282,03
545,12	1296,36
545,32	1222,64
545,52	1312,75
545,71	1216,49
545,91	1286,12
546,11	1210,35
546,30	1222,64
546,50	1347,56
546,70	1286,12
546,90	1261,55
547,09	1261,55
547,29	1277,93
547,49	1222,64
547,68	1277,93
547,88	1275,88
548,08	1234,93
548,27	1310,70
548,47	1314,80
548,67	1251,31
548,87	1288,17
549,06	1302,51
549,26	1277,93
549,46	1302,51
549,65	1318,89
549,85	1277,93
550,05	1257,45
550,24	1228,78
550,44	1271,79
550,64	1290,22
550,83	1255,40
551,03	1335,28
551,23	1294,32
551,42	1257,45
551,62	1265,64
551,82	1259,50
552,01	1249,26
552,21	1232,88
552,41	1339,37
552,60	1253,36
552,80	1263,60
553,00	1263,60
553,19	1312,75
553,39	1230,83
553,59	1263,60
553,78	1292,27
553,98	1271,79
554,17	1226,73
554,37	1310,70
554,57	1284,08
554,76	1290,22
554,96	1282,03
555,16	1277,93
555,35	1296,36
555,55	1241,07
555,75	1322,99
555,94	1218,54
556,14	1253,36
556,33	1279,98
556,53	1269,74
556,73	1267,69
556,92	1398,76
557,12	1236,97
557,32	1361,90
557,51	1255,40
557,71	1200,11
557,90	1220,59
558,10	1341,42
558,30	1314,80
558,49	1265,64
558,69	1267,69
558,88	1208,30
559,08	1275,88
559,28	1212,40
559,47	1228,78
559,67	1279,98
559,86	1312,75
560,06	1333,23
560,26	1249,26
560,45	1275,88
560,65	1208,30
560,84	1316,84
561,04	1306,60
561,24	1343,47
561,43	1314,80
561,63	1304,56
561,82	1263,60
562,02	1261,55
562,22	1232,88
562,41	1286,12
562,61	1255,40
562,80	1286,12
563,00	1310,70
563,19	1193,97
563,39	1279,98
563,59	1228,78
563,78	1234,93
563,98	1275,88
564,17	1241,07
564,37	1255,40
564,56	1300,46
564,76	1273,84
564,96	1251,31
565,15	1284,08
565,35	1294,32
565,54	1288,17
565,74	1298,41
565,93	1306,60
566,13	1267,69
566,32	1279,98
566,52	1298,41
566,71	1308,65
566,91	1267,69
567,11	1282,03
567,30	1263,60
567,50	1327,08
567,69	1243,12
567,89	1277,93
568,08	1247,21
568,28	1322,99
568,47	1253,36
568,67	1284,08
568,86	1212,40
569,06	1267,69
569,25	1265,64
569,45	1298,41
569,64	1310,70
569,84	1261,55
570,04	1341,42
570,23	1277,93
570,43	1259,50
570,62	1290,22
570,82	1312,75
571,01	1322,99
571,21	1224,69
571,40	1259,50
571,60	1327,08
571,79	1288,17
571,99	1300,46
572,18	1316,84
572,38	1298,41
572,57	1253,36
572,77	1232,88
572,96	1224,69
573,16	1253,36
573,35	1275,88
573,55	1253,36
573,74	1284,08
573,94	1292,27
574,13	1304,56
574,33	1355,76
574,52	1265,64
574,71	1273,84
574,91	1290,22
575,10	1212,40
575,30	1191,92
575,49	1222,64
575,69	1267,69
575,88	1263,60
576,08	1247,21
576,27	1292,27
576,47	1337,32
576,66	1304,56
576,86	1241,07
577,05	1257,45
577,25	1263,60
577,44	1273,84
577,64	1232,88
577,83	1241,07
578,02	1271,79
578,22	1277,93
578,41	1245,16
578,61	1282,03
578,80	1241,07
579,00	1263,60
579,19	1279,98
579,39	1200,11
579,58	1265,64
579,77	1232,88
579,97	1208,30
580,16	1349,61
580,36	1243,12
580,55	1277,93
580,75	1214,45
580,94	1245,16
581,13	1204,21
581,33	1241,07
581,52	1196,01
581,72	1187,82
581,91	1259,50
582,11	1290,22
582,30	1294,32
582,49	1296,36
582,69	1279,98
582,88	1261,55
583,08	1269,74
583,27	1300,46
583,47	1226,73
583,66	1249,26
583,85	1267,69
584,05	1284,08
584,24	1228,78
584,44	1298,41
584,63	1232,88
584,82	1304,56
585,02	1224,69
585,21	1269,74
585,41	1288,17
585,60	1298,41
585,79	1347,56
585,99	1298,41
586,18	1255,40
586,37	1279,98
586,57	1294,32
586,76	1275,88
586,96	1269,74
587,15	1267,69
587,34	1224,69
587,54	1288,17
587,73	1269,74
587,93	1300,46
588,12	1296,36
588,31	1335,28
588,51	1304,56
588,70	1343,47
588,89	1210,35
589,09	1261,55
589,28	1273,84
589,47	1247,21
589,67	1257,45
589,86	1239,02
590,06	1253,36
590,25	1236,97
590,44	1337,32
590,64	1253,36
590,83	1271,79
591,02	1228,78
591,22	1257,45
591,41	1243,12
591,60	1302,51
591,80	1259,50
591,99	1253,36
592,18	1259,50
592,38	1249,26
592,57	1261,55
592,76	1265,64
592,96	1267,69
593,15	1269,74
593,34	1304,56
593,54	1253,36
593,73	1257,45
593,92	1290,22
594,12	1267,69
594,31	1228,78
594,50	1290,22
594,70	1257,45
594,89	1325,04
595,08	1300,46
595,28	1333,23
595,47	1322,99
595,66	1249,26
595,86	1286,12
596,05	1247,21
596,24	1216,49
596,43	1216,49
596,63	1253,36
596,82	1282,03
597,01	1251,31
597,21	1249,26
597,40	1363,95
597,59	1314,80
597,79	1226,73
597,98	1271,79
598,17	1241,07
598,36	1273,84
598,56	1296,36
598,75	1247,21
598,94	1292,27
599,14	1273,84
599,33	1341,42
599,52	1214,45
599,71	1269,74
599,91	1282,03
600,10	1255,40
600,29	1294,32
600,48	1257,45
600,68	1239,02
600,87	1216,49
601,06	1279,98
601,26	1214,45
601,45	1322,99
601,64	1226,73
601,83	1294,32
602,03	1214,45
602,22	1279,98
602,41	1300,46
602,60	1292,27
602,80	1294,32
602,99	1249,26
603,18	1251,31
603,37	1226,73
603,57	1331,18
603,76	1298,41
603,95	1353,71
604,14	1263,60
604,34	1226,73
604,53	1271,79
604,72	1249,26
604,91	1329,13
605,10	1236,97
605,30	1243,12
605,49	1247,21
605,68	1273,84
605,87	1302,51
606,07	1288,17
606,26	1247,21
606,45	1331,18
606,64	1314,80
606,84	1175,53
607,03	1169,39
607,22	1325,04
607,41	1312,75
607,60	1288,17
607,80	1224,69
607,99	1284,08
608,18	1216,49
608,37	1357,80
608,56	1230,83
608,76	1265,64
608,95	1239,02
609,14	1304,56
609,33	1241,07
609,52	1216,49
609,72	1247,21
609,91	1216,49
610,10	1247,21
610,29	1269,74
610,48	1310,70
610,68	1245,16
610,87	1271,79
611,06	1290,22
611,25	1214,45
611,44	1314,80
611,63	1261,55
611,83	1286,12
612,02	1333,23
612,21	1249,26
612,40	1318,89
612,59	1343,47
612,79	1253,36
612,98	1206,25
613,17	1249,26
613,36	1312,75
613,55	1241,07
613,74	1275,88
613,93	1275,88
614,13	1226,73
614,32	1196,01
614,51	1288,17
614,70	1249,26
614,89	1241,07
615,08	1247,21
615,28	1241,07
615,47	1296,36
615,66	1241,07
615,85	1298,41
616,04	1253,36
616,23	1310,70
616,42	1300,46
616,62	1222,64
616,81	1269,74
617,00	1273,84
617,19	1355,76
617,38	1249,26
617,57	1335,28
617,76	1261,55
617,95	1226,73
618,15	1284,08
618,34	1275,88
618,53	1267,69
618,72	1263,60
618,91	1273,84
619,10	1271,79
619,29	1333,23
619,48	1284,08
619,68	1314,80
619,87	1288,17
620,06	1239,02
620,25	1294,32
620,44	1314,80
620,63	1257,45
620,82	1298,41
621,01	1339,37
621,20	1261,55
621,39	1290,22
621,59	1251,31
621,78	1247,21
621,97	1294,32
622,16	1282,03
622,35	1314,80
622,54	1304,56
622,73	1265,64
622,92	1294,32
623,11	1279,98
623,30	1253,36
623,49	1259,50
623,68	1277,93
623,88	1292,27
624,07	1224,69
624,26	1265,64
624,45	1335,28
624,64	1224,69
624,83	1277,93
625,02	1208,30
625,21	1331,18
625,40	1318,89
625,59	1314,80
625,78	1220,59
625,97	1306,60
626,16	1329,13
626,35	1288,17
626,54	1292,27
626,74	1271,79
626,93	1218,54
627,12	1294,32
627,31	1284,08
627,50	1306,60
627,69	1316,84
627,88	1320,94
628,07	1353,71
628,26	1236,97
628,45	1294,32
628,64	1239,02
628,83	1279,98
629,02	1212,40
629,21	1347,56
629,40	1343,47
629,59	1292,27
629,78	1329,13
629,97	1288,17
630,16	1300,46
630,35	1308,65
630,54	1304,56
630,73	1310,70
630,92	1257,45
631,11	1376,24
631,30	1363,95
631,49	1353,71
631,68	1871,84
631,87	6238,11
632,06	22597,29
632,25	43832,68
632,44	46134,59
632,63	45333,84
632,82	24653,45
633,01	11546,45
633,20	5509,04
633,39	2854,87
633,58	2453,47
633,77	2154,46
633,96	1957,86
634,15	1775,59
634,34	1767,40
634,53	1689,57
634,72	1595,37
634,91	1550,31
635,10	1509,35
635,29	1466,35
635,48	1527,78
635,67	1433,58
635,86	1478,63
636,05	1445,87
636,24	1386,47
636,43	1366,00
636,62	1294,32
636,81	1253,36
637,00	1359,85
637,19	1386,47
637,38	1286,12
637,57	1257,45
637,76	1402,86
637,95	1267,69
638,14	1290,22
638,33	1288,17
638,52	1314,80
638,71	1290,22
638,89	1234,93
639,08	1335,28
639,27	1355,76
639,46	1265,64
639,65	1269,74
639,84	1275,88
640,03	1314,80
640,22	1320,94
640,41	1331,18
640,60	1384,43
640,79	1241,07
640,98	1288,17
641,17	1206,25
641,36	1277,93
641,55	1306,60
641,74	1298,41
641,92	1282,03
642,11	1366,00
642,30	1302,51
642,49	1290,22
642,68	1327,08
642,87	1230,83
643,06	1257,45
643,25	1286,12
643,44	1259,50
643,63	1232,88
643,82	1316,84
644,00	1282,03
644,19	1284,08
644,38	1255,40
644,57	1298,41
644,76	1318,89
644,95	1253,36
645,14	1267,69
645,33	1234,93
645,52	1290,22
645,71	1259,50
645,89	1288,17
646,08	1243,12
646,27	1279,98
646,46	1265,64
646,65	1275,88
646,84	1296,36
647,03	1275,88
647,22	1300,46
647,40	1298,41
647,59	1249,26
647,78	1261,55
647,97	1282,03
648,16	1304,56
648,35	1271,79
648,54	1284,08
648,73	1306,60
648,91	1245,16
649,10	1277,93
649,29	1339,37
649,48	1294,32
649,67	1320,94
649,86	1353,71
650,05	1302,51
650,23	1294,32
650,42	1288,17
650,61	1282,03
650,80	1302,51
650,99	1329,13
651,18	1263,60
651,36	1302,51
651,55	1243,12
651,74	1296,36
651,93	1308,65
652,12	1279,98
652,31	1236,97
652,49	1241,07
652,68	1247,21
652,87	1265,64
653,06	1316,84
653,25	1282,03
653,44	1218,54
653,62	1212,40
653,81	1255,40
654,00	1304,56
654,19	1296,36
654,38	1230,83
654,56	1275,88
654,75	1230,83
654,94	1236,97
655,13	1370,09
655,32	1265,64
655,51	1259,50
655,69	1316,84
655,88	1341,42
656,07	1310,70
656,26	1220,59
656,45	1189,87
656,63	1259,50
656,82	1216,49
657,01	1226,73
657,20	1259,50
657,38	1173,49
657,57	1273,84
657,76	1251,31
657,95	1294,32
658,14	1210,35
658,32	1249,26
658,51	1271,79
658,70	1241,07
658,89	1220,59
659,08	1253,36
659,26	1318,89
659,45	1230,83
659,64	1273,84
659,83	1265,64
660,01	1357,80
660,20	1275,88
660,39	1267,69
660,58	1202,16
660,76	1245,16
660,95	1306,60
661,14	1265,64
661,33	1269,74
661,51	1222,64
661,70	1216,49
661,89	1259,50
662,08	1241,07
662,26	1257,45
662,45	1284,08
662,64	1339,37
662,83	1232,88
663,01	1298,41
663,20	1220,59
663,39	1310,70
663,58	1333,23
663,76	1351,66
663,95	1300,46
664,14	1312,75
664,32	1216,49
664,51	1304,56
664,70	1214,45
664,89	1298,41
665,07	1212,40
665,26	1277,93
665,45	1279,98
665,64	1282,03
665,82	1329,13
666,01	1267,69
666,20	1255,40
666,38	1298,41
666,57	1263,60
666,76	1245,16
666,95	1335,28
667,13	1277,93
667,32	1222,64
667,51	1259,50
667,69	1253,36
667,88	1273,84
668,07	1316,84
668,25	1296,36
668,44	1308,65
668,63	1263,60
668,81	1304,56
669,00	1263,60
669,19	1206,25
669,38	1282,03
669,56	1265,64
669,75	1322,99
669,94	1255,40
670,12	1241,07
670,31	1300,46
670,50	1269,74
670,68	1255,40
670,87	1288,17
671,06	1249,26
671,24	1337,32
671,43	1333,23
671,62	1290,22
671,80	1253,36
671,99	1257,45
672,18	1265,64
672,36	1204,21
672,55	1228,78
672,74	1292,27
672,92	1243,12
673,11	1255,40
673,29	1261,55
673,48	1208,30
673,67	1279,98
673,85	1259,50
674,04	1253,36
674,23	1288,17
674,41	1322,99
674,60	1259,50
674,79	1249,26
674,97	1257,45
675,16	1320,94
675,34	1384,43
675,53	1269,74
675,72	1241,07
675,90	1216,49
676,09	1380,33
676,28	1282,03
676,46	1282,03
676,65	1230,83
676,83	1261,55
677,02	1210,35
677,21	1314,80
677,39	1273,84
677,58	1273,84
677,77	1253,36
677,95	1378,28
678,14	1304,56
678,32	1306,60
678,51	1269,74
678,70	1296,36
678,88	1232,88
679,07	1265,64
679,25	1220,59
679,44	1302,51
679,63	1183,73
679,81	1282,03
680,00	1284,08
680,18	1294,32
680,37	1253,36
680,55	1249,26
680,74	1222,64
680,93	1298,41
681,11	1277,93
681,30	1191,92
681,48	1329,13
681,67	1226,73
681,85	1220,59
682,04	1296,36
682,23	1312,75
682,41	1230,83
682,60	1271,79
682,78	1257,45
682,97	1284,08
683,15	1314,80
683,34	1304,56
683,53	1292,27
683,71	1298,41
683,90	1308,65
684,08	1310,70
684,27	1333,23
684,45	1241,07
684,64	1286,12
684,82	1265,64
685,01	1232,88
685,19	1355,76
685,38	1224,69
685,57	1302,51
685,75	1322,99
685,94	1310,70
686,12	1222,64
686,31	1304,56
686,49	1255,40
686,68	1204,21
686,86	1232,88
687,05	1290,22
687,23	1263,60
687,42	1216,49
687,60	1202,16
687,79	1236,97
687,97	1259,50
688,16	1228,78
688,34	1300,46
688,53	1185,77
688,71	1224,69
688,90	1318,89
689,08	1286,12
689,27	1308,65
689,45	1284,08
689,64	1230,83
689,82	1267,69
690,01	1288,17
690,19	1337,32
690,38	1304,56
690,56	1234,93
690,75	1306,60
690,93	1275,88
691,12	1298,41
691,30	1288,17
691,49	1290,22
691,67	1318,89
691,86	1310,70
692,04	1224,69
692,23	1335,28
692,41	1218,54
692,60	1249,26
692,78	1263,60
692,97	1290,22
693,15	1310,70
693,34	1251,31
693,52	1312,75
693,71	1265,64
693,89	1165,29
694,08	1210,35
694,26	1302,51
694,44	1351,66
694,63	1255,40
694,81	1269,74
695,00	1218,54
695,18	1222,64
695,37	1279,98
695,55	1292,27
695,74	1294,32
695,92	1265,64
696,10	1257,45
696,29	1279,98
696,47	1290,22
696,66	1249,26
696,84	1247,21
697,03	1320,94
697,21	1265,64
697,40	1335,28
697,58	1286,12
697,76	1329,13
697,95	1185,77
698,13	1243,12
698,32	1222,64
698,50	1253,36
698,68	1318,89
698,87	1288,17
699,05	1300,46
699,24	1300,46
699,42	1275,88
699,61	1236,97
699,79	1273,84
699,97	1320,94
700,16	1173,49
700,34	1279,98
700,53	1271,79
700,71	1245,16
700,89	1304,56
701,08	1331,18
701,26	1279,98
701,45	1339,37
701,63	1259,50
701,81	1288,17
702,00	1267,69
702,18	1214,45
702,37	1265,64
702,55	1355,76
702,73	1306,60
702,92	1286,12
703,10	1300,46
703,28	1277,93
703,47	1355,76
703,65	1249,26
703,84	1347,56
704,02	1249,26
704,20	1265,64
704,39	1239,02
704,57	1296,36
704,75	1318,89
704,94	1275,88
705,12	1257,45
705,30	1239,02
705,49	1300,46
705,67	1275,88
705,86	1249,26
706,04	1298,41
706,22	1275,88
706,41	1314,80
706,59	1261,55
706,77	1239,02
706,96	1290,22
707,14	1249,26
707,32	1251,31
707,51	1163,25
707,69	1292,27
707,87	1318,89
708,06	1269,74
708,24	1296,36
708,42	1282,03
708,61	1261,55
708,79	1208,30
708,97	1257,45
709,16	1277,93
709,34	1288,17
709,52	1286,12
709,71	1253,36
709,89	1341,42
710,07	1243,12
710,26	1159,15
710,44	1218,54
710,62	1257,45
710,80	1298,41
710,99	1279,98
711,17	1337,32
711,35	1239,02
711,54	1306,60
711,72	1286,12
711,90	1251,31
712,09	1310,70
712,27	1228,78
712,45	1253,36
712,63	1230,83
712,82	1269,74
713,00	1331,18
713,18	1187,82
713,37	1298,41
713,55	1243,12
713,73	1200,11
713,91	1263,60
714,10	1265,64
714,28	1204,21
714,46	1288,17
714,65	1257,45
714,83	1271,79
715,01	1253,36
715,19	1257,45
715,38	1300,46
715,56	1247,21
715,74	1220,59
715,92	1226,73
716,11	1214,45
716,29	1314,80
716,47	1286,12
716,65	1224,69
716,84	1255,40
717,02	1271,79
717,20	1255,40
717,38	1314,80
717,57	1257,45
717,75	1265,64
717,93	1296,36
718,11	1261,55
718,30	1277,93
718,48	1363,95
718,66	1263,60
718,84	1302,51
719,03	1265,64
719,21	1255,40
719,39	1273,84
719,57	1271,79
719,75	1347,56
719,94	1263,60
720,12	1255,40
720,30	1273,84
720,48	1220,59
720,67	1263,60
720,85	1200,11
721,03	1269,74
721,21	1228,78
721,39	1222,64
721,58	1245,16
721,76	1259,50
721,94	1255,40
722,12	1294,32
722,30	1220,59
722,49	1232,88
722,67	1277,93
722,85	1220,59
723,03	1230,83
723,21	1177,58
723,40	1294,32
723,58	1265,64
723,76	1230,83
723,94	1222,64
724,12	1329,13
724,30	1312,75
724,49	1230,83
724,67	1302,51
724,85	1234,93
725,03	1374,19
725,21	1224,69
725,40	1271,79
725,58	1220,59
725,76	1210,35
725,94	1255,40
726,12	1255,40
726,30	1263,60
726,49	1259,50
726,67	1261,55
726,85	1261,55
727,03	1200,11
727,21	1310,70
727,39	1243,12
727,57	1247,21
727,76	1298,41
727,94	1177,58
728,12	1236,97
728,30	1267,69
728,48	1253,36
728,66	1349,61
728,84	1314,80
729,03	1284,08
729,21	1271,79
729,39	1271,79
729,57	1275,88
729,75	1322,99
729,93	1232,88
730,11	1273,84
730,30	1286,12
730,48	1216,49
730,66	1304,56
730,84	1202,16
731,02	1241,07
731,20	1234,93
731,38	1253,36
731,56	1282,03
731,74	1286,12
731,93	1239,02
732,11	1220,59
732,29	1226,73
732,47	1320,94
732,65	1286,12
732,83	1234,93
733,01	1224,69
733,19	1249,26
733,37	1333,23
733,56	1218,54
733,74	1271,79
733,92	1196,01
734,10	1230,83
734,28	1265,64
734,46	1277,93
734,64	1335,28
734,82	1257,45
735,00	1232,88
735,18	1273,84
735,36	1275,88
735,54	1284,08
735,73	1234,93
735,91	1222,64
736,09	1169,39
736,27	1247,21
736,45	1257,45
736,63	1277,93
736,81	1273,84
736,99	1284,08
737,17	1198,06
737,35	1282,03
737,53	1277,93
737,71	1157,10
737,89	1351,66
738,07	1279,98
738,25	1191,92
738,43	1269,74
738,61	1300,46
738,80	1335,28
738,98	1318,89
739,16	1288,17
739,34	1345,52
739,52	1341,42
739,70	1253,36
739,88	1181,68
740,06	1331,18
740,24	1245,16
740,42	1232,88
740,60	1243,12
740,78	1241,07
740,96	1308,65
741,14	1255,40
741,32	1249,26
741,50	1202,16
741,68	1296,36
741,86	1302,51
742,04	1230,83
742,22	1265,64
742,40	1241,07
742,58	1288,17
742,76	1218,54
742,94	1198,06
743,12	1208,30
743,30	1327,08
743,48	1308,65
743,66	1232,88
743,84	1193,97
744,02	1243,12
744,20	1234,93
744,38	1208,30
744,56	1257,45
744,74	1202,16
744,92	1277,93
745,10	1284,08
745,28	1298,41
745,46	1294,32
745,64	1230,83
745,82	1265,64
746,00	1288,17
746,18	1306,60
746,36	1214,45
746,54	1257,45
746,72	1273,84
746,90	1267,69
747,08	1292,27
747,26	1333,23
747,44	1337,32
747,62	1216,49
747,80	1249,26
747,98	1290,22
748,15	1243,12
748,33	1279,98
748,51	1228,78
748,69	1306,60
748,87	1257,45
749,05	1249,26
749,23	1290,22
749,41	1255,40
749,59	1308,65
749,77	1191,92
749,95	1206,25
750,13	1286,12
750,31	1275,88
750,49	1222,64
750,67	1286,12
750,85	1261,55
751,03	1306,60
751,20	1286,12
751,38	1267,69
751,56	1247,21
751,74	1245,16
751,92	1279,98
752,10	1279,98
752,28	1269,74
752,46	1296,36
752,64	1351,66
752,82	1314,80
753,00	1224,69
753,18	1200,11
753,35	1241,07
753,53	1253,36
753,71	1224,69
753,89	1243,12
754,07	1343,47
754,25	1228,78
754,43	1294,32
754,61	1249,26
754,79	1263,60
754,97	1337,32
755,14	1282,03
755,32	1300,46
755,50	1318,89
755,68	1298,41
755,86	1222,64
756,04	1269,74
756,22	1232,88
756,40	1277,93
756,57	1232,88
756,75	1216,49
756,93	1273,84
757,11	1279,98
757,29	1312,75
757,47	1325,04
757,65	1249,26
757,82	1265,64
758,00	1236,97
758,18	1224,69
758,36	1306,60
758,54	1208,30
758,72	1241,07
758,90	1202,16
759,07	1290,22
759,25	1353,71
759,43	1261,55
759,61	1318,89
759,79	1312,75
759,97	1294,32
760,15	1255,40
760,32	1288,17
760,50	1298,41
760,68	1255,40
760,86	1290,22
761,04	1325,04
761,22	1234,93
761,39	1243,12
761,57	1341,42
761,75	1146,86
761,93	1228,78
762,11	1230,83
762,28	1224,69
762,46	1306,60
762,64	1232,88
762,82	1312,75
763,00	1318,89
763,18	1304,56
763,35	1212,40
763,53	1265,64
763,71	1224,69
763,89	1329,13
764,07	1212,40
764,24	1247,21
764,42	1312,75
764,60	1257,45
764,78	1239,02
764,96	1265,64
765,13	1271,79
765,31	1193,97
765,49	1212,40
765,67	1306,60
765,84	1310,70
766,02	1234,93
766,20	1247,21
766,38	1212,40
766,56	1245,16
766,73	1232,88
766,91	1210,35
767,09	1249,26
767,27	1239,02
767,44	1255,40
767,62	1269,74
767,80	1294,32
767,98	1292,27
768,15	1333,23
768,33	1261,55
768,51	1292,27
768,69	1320,94
768,87	1329,13
769,04	1234,93
769,22	1335,28
769,40	1271,79
769,58	1361,90
769,75	1335,28
769,93	1247,21
770,11	1294,32
770,28	1259,50
770,46	1302,51
770,64	1265,64
770,82	1247,21
770,99	1327,08
771,17	1259,50
771,35	1296,36
771,53	1267,69
771,70	1308,65
771,88	1216,49
772,06	1228,78
772,23	1294,32
772,41	1271,79
772,59	1282,03
772,77	1308,65
772,94	1224,69
773,12	1271,79
773,30	1271,79
773,47	1255,40
773,65	1216,49
773,83	1265,64
774,01	1294,32
774,18	1277,93
774,36	1220,59
774,54	1322,99
774,71	1214,45
774,89	1282,03
775,07	1245,16
775,24	1314,80
775,42	1298,41
775,60	1329,13
775,78	1273,84
775,95	1275,88
776,13	1269,74
776,31	1265,64
776,48	1230,83
776,66	1261,55
776,84	1261,55
777,01	1275,88
777,19	1259,50
777,37	1249,26
777,54	1236,97
777,72	1284,08
777,90	1308,65
778,07	1292,27
778,25	1214,45
778,43	1275,88
778,60	1277,93
778,78	1239,02
778,96	1261,55
779,13	1236,97
779,31	1263,60
779,49	1288,17
779,66	1329,13
779,84	1187,82
780,01	1212,40
780,19	1247,21
780,37	1259,50
780,54	1306,60
780,72	1228,78
780,90	1294,32
781,07	1275,88
781,25	1232,88
781,43	1306,60
781,60	1314,80
781,78	1241,07
781,95	1284,08
782,13	1269,74
782,31	1302,51
782,48	1267,69
782,66	1273,84
782,83	1288,17
783,01	1277,93
783,19	1298,41
783,36	1222,64
783,54	1273,84
783,72	1255,40
783,89	1357,80
784,07	1333,23
784,24	1273,84
784,42	1267,69
784,60	1247,21
784,77	1304,56
784,95	1243,12
785,12	1241,07
785,30	1200,11
785,47	1322,99
785,65	1236,97
785,83	1300,46
786,00	1282,03
786,18	1308,65
786,35	1247,21
786,53	1259,50
786,71	1259,50
786,88	1269,74
787,06	1228,78
787,23	1316,84
787,41	1331,18
787,58	1292,27
787,76	1304,56
787,94	1222,64
788,11	1306,60
788,29	1255,40
788,46	1288,17
788,64	1273,84
788,81	1236,97
788,99	1370,09
789,16	1329,13
789,34	1279,98
789,52	1304,56
789,69	1259,50
789,87	1284,08
790,04	1302,51
790,22	1247,21
790,39	1255,40
790,57	1333,23
790,74	1228,78
790,92	1290,22
791,09	1339,37
791,27	1185,77
791,44	1171,44
791,62	1228,78
791,79	1224,69
791,97	1279,98
792,15	1277,93
792,32	1177,58
792,50	1265,64
792,67	1284,08
792,85	1320,94
793,02	1298,41
793,20	1282,03
793,37	1347,56
793,55	1304,56
793,72	1271,79
793,90	1267,69
794,07	1263,60
794,25	1181,68
794,42	1288,17
794,60	1335,28
794,77	1243,12
794,95	1265,64
795,12	1286,12
795,30	1249,26
795,47	1353,71
795,65	1286,12
795,82	1228,78
796,00	1314,80
796,17	1296,36
796,34	1294,32
796,52	1353,71
796,69	1337,32
796,87	1196,01
797,04	1316,84
797,22	1232,88
797,39	1279,98
797,57	1259,50
797,74	1273,84
797,92	1259,50
798,09	1273,84
798,27	1357,80
798,44	1216,49
798,62	1310,70
798,79	1249,26
798,96	1308,65
799,14	1359,85
799,31	1310,70
799,49	1265,64
799,66	1337,32
799,84	1275,88
800,01	1267,69
800,19	1279,98
800,36	1310,70
800,53	1267,69
800,71	1320,94
800,88	1337,32
801,06	1284,08
801,23	1271,79
801,41	1286,12
801,58	1206,25
801,75	1243,12
801,93	1288,17
802,10	1265,64
802,28	1304,56
802,45	1279,98
802,63	1286,12
802,80	1222,64
802,97	1282,03
803,15	1347,56
803,32	1220,59
803,50	1234,93
803,67	1310,70
803,84	1232,88
804,02	1198,06
804,19	1316,84
804,37	1353,71
804,54	1224,69
804,71	1224,69
804,89	1271,79
805,06	1249,26
805,24	1341,42
805,41	1259,50
805,58	1282,03
805,76	1245,16
805,93	1271,79
806,10	1284,08
806,28	1253,36
806,45	1329,13
806,63	1214,45
806,80	1189,87
806,97	1239,02
807,15	1259,50
807,32	1304,56
807,49	1257,45
807,67	1228,78
807,84	1234,93
808,01	1343,47
808,19	1273,84
808,36	1341,42
808,54	1222,64
808,71	1310,70
808,88	1284,08
809,06	1312,75
809,23	1290,22
809,40	1329,13
809,58	1327,08
809,75	1294,32
809,92	1243,12
810,10	1228,78
810,27	1325,04
810,44	1232,88
810,62	1261,55
810,79	1232,88
810,96	1241,07
811,14	1245,16
811,31	1259,50
811,48	1277,93
811,66	1292,27
811,83	1286,12
812,00	1247,21
812,18	1322,99
812,35	1249,26
812,52	1292,27
812,69	1282,03
812,87	1271,79
813,04	1214,45
813,21	1239,02
813,39	1247,21
813,56	1314,80
813,73	1224,69
813,91	1277,93
814,08	1333,23
814,25	1290,22
814,42	1226,73
814,60	1363,95
814,77	1232,88
814,94	1269,74
815,12	1294,32
815,29	1300,46
815,46	1204,21
815,63	1249,26
815,81	1191,92
815,98	1282,03
816,15	1275,88
816,33	1251,31
816,50	1200,11
816,67	1189,87
816,84	1234,93
817,02	1302,51
817,19	1298,41
817,36	1253,36
817,53	1320,94
817,71	1302,51
817,88	1286,12
818,05	1279,98
818,22	1208,30
818,40	1329,13
818,57	1310,70
818,74	1282,03
818,91	1284,08
819,09	1290,22
819,26	1290,22
819,43	1241,07
819,60	1335,28
819,78	1277,93
819,95	1351,66
820,12	1304,56
820,29	1282,03
820,47	1271,79
820,64	1331,18
820,81	1273,84
820,98	1286,12
821,15	1265,64
821,33	1208,30
821,50	1230,83
821,67	1284,08
821,84	1183,73
822,02	1318,89
822,19	1277,93
822,36	1245,16
822,53	1239,02
822,70	1288,17
822,88	1265,64
823,05	1290,22
823,22	1234,93
823,39	1302,51
823,56	1300,46
823,74	1282,03
823,91	1226,73
824,08	1292,27
824,25	1294,32
824,42	1224,69
824,60	1288,17
824,77	1337,32
824,94	1257,45
825,11	1300,46
825,28	1265,64
825,45	1216,49
825,63	1316,84
825,80	1243,12
825,97	1269,74
826,14	1294,32
826,31	1251,31
826,48	1279,98
826,66	1343,47
826,83	1347,56
827,00	1259,50
827,17	1263,60
827,34	1290,22
827,51	1282,03
827,69	1249,26
827,86	1290,22
828,03	1245,16
828,20	1241,07
828,37	1247,21
828,54	1288,17
828,71	1322,99
828,89	1304,56
829,06	1200,11
829,23	1294,32
829,40	1304,56
829,57	1275,88
829,74	1259,50
829,91	1204,21
830,09	1288,17
830,26	1325,04
830,43	1249,26
830,60	1306,60
830,77	1222,64
830,94	1265,64
831,11	1290,22
831,28	1273,84
831,46	1271,79
831,63	1263,60
831,80	1224,69
831,97	1310,70
832,14	1257,45
832,31	1296,36
832,48	1275,88
832,65	1230,83
832,82	1222,64
832,99	1232,88
833,17	1292,27
833,34	1208,30
833,51	1271,79
833,68	1265,64
833,85	1302,51
834,02	1288,17
834,19	1302,51
834,36	1218,54
834,53	1259,50
834,70	1296,36
834,87	1282,03
835,04	1265,64
835,22	1279,98
835,39	1277,93
835,56	1261,55
835,73	1306,60
835,90	1286,12
836,07	1206,25
836,24	1279,98
836,41	1265,64
836,58	1288,17
836,75	1284,08
836,92	1212,40
837,09	1263,60
837,26	1257,45
837,43	1304,56
837,60	1312,75
837,77	1245,16
837,94	1355,76
838,12	1286,12
838,29	1282,03
838,46	1288,17
838,63	1226,73
838,80	1329,13
838,97	1259,50
839,14	1241,07
839,31	1267,69
839,48	1239,02
839,65	1249,26
839,82	1249,26
839,99	1230,83
840,16	1279,98
840,33	1308,65
840,50	1331,18
840,67	1155,05
840,84	1286,12
841,01	1292,27
841,18	1218,54
841,35	1251,31
841,52	1306,60
841,69	1318,89
841,86	1249,26
842,03	1253,36
842,20	1292,27
842,37	1312,75
842,54	1296,36
842,71	1210,35
842,88	1255,40
843,05	1249,26
843,22	1208,30
843,39	1191,92
843,56	1300,46
843,73	1286,12
843,90	1222,64
844,07	1218,54
844,24	1216,49
844,41	1304,56
844,58	1263,60
844,75	1261,55
844,92	1304,56
845,09	1300,46
845,26	1325,04
845,43	1236,97
845,60	1345,52
845,77	1255,40
845,94	1308,65
846,10	1271,79
846,27	1243,12
846,44	1257,45
846,61	1286,12
846,78	1296,36
846,95	1214,45
847,12	1222,64
847,29	1277,93
847,46	1224,69
847,63	1335,28
847,80	1284,08
847,97	1249,26
848,14	1275,88
848,31	1206,25
848,48	1290,22
848,65	1343,47
848,82	1310,70
848,98	1318,89
849,15	1255,40
849,32	1290,22
849,49	1312,75
849,66	1253,36
849,83	1271,79
850,00	1302,51
850,17	1271,79
850,34	1279,98
850,51	1302,51
850,68	1310,70
850,85	1294,32
851,01	1298,41
851,18	1310,70
851,35	1253,36
851,52	1294,32
851,69	1212,40
851,86	1224,69
852,03	1298,41
852,20	1300,46
852,37	1345,52
852,53	1200,11
852,70	1241,07
852,87	1306,60
853,04	1308,65
853,21	1284,08
853,38	1159,15
853,55	1284,08
853,72	1263,60
853,89	1271,79
854,05	1310,70
854,22	1259,50
854,39	1241,07
854,56	1331,18
854,73	1247,21
854,90	1243,12
855,07	1230,83
855,23	1314,80
855,40	1253,36
855,57	1314,80
855,74	1257,45
855,91	1257,45
856,08	1275,88
856,25	1212,40
856,41	1296,36
856,58	1331,18
856,75	1208,30
856,92	1296,36
857,09	1249,26
857,26	1351,66
857,42	1284,08
857,59	1224,69
857,76	1282,03
857,93	1245,16
858,10	1196,01
858,27	1216,49
858,43	1171,44
858,60	1275,88
858,77	1247,21
858,94	1300,46
859,11	1312,75
859,27	1314,80
859,44	1298,41
859,61	1335,28
859,78	1275,88
859,95	1245,16
860,12	1245,16
860,28	1261,55
860,45	1245,16
860,62	1245,16
860,79	1243,12
860,95	1273,84
861,12	1257,45
861,29	1204,21
861,46	1269,74
861,63	1322,99
861,79	1208,30
861,96	1255,40
862,13	1232,88
862,30	1312,75
862,47	1243,12
862,63	1257,45
862,80	1234,93
862,97	1214,45
863,14	1310,70
863,30	1275,88
863,47	1275,88
863,64	1269,74
863,81	1177,58
863,97	1349,61
864,14	1286,12
864,31	1247,21
864,48	1222,64
864,65	1327,08
864,81	1253,36
864,98	1210,35
865,15	1314,80
865,32	1251,31
865,48	1212,40
865,65	1290,22
865,82	1329,13
865,98	1224,69
866,15	1249,26
866,32	1234,93
866,49	1257,45
866,65	1255,40
866,82	1232,88
866,99	1243,12
867,16	1228,78
867,32	1234,93
867,49	1228,78
867,66	1257,45
867,83	1208,30
867,99	1316,84
868,16	1224,69
868,33	1259,50
868,49	1234,93
868,66	1288,17
868,83	1265,64
868,99	1257,45
869,16	1296,36
869,33	1277,93
869,50	1300,46
869,66	1308,65
869,83	1286,12
870,00	1226,73
870,16	1232,88
870,33	1355,76
870,50	1275,88
870,66	1230,83
870,83	1257,45
871,00	1253,36
871,17	1277,93
871,33	1249,26
871,50	1220,59
871,67	1325,04
871,83	1296,36
872,00	1220,59
872,17	1318,89
872,33	1277,93
872,50	1208,30
872,67	1257,45
872,83	1306,60
873,00	1290,22
873,17	1282,03
873,33	1236,97
873,50	1296,36
873,67	1290,22
873,83	1175,53
874,00	1269,74
874,16	1286,12
874,33	1273,84
874,50	1253,36
874,66	1292,27
874,83	1302,51
875,00	1263,60
875,16	1279,98
875,33	1284,08
875,50	1265,64
875,66	1322,99
875,83	1261,55
875,99	1220,59
876,16	1277,93
876,33	1316,84
876,49	1226,73
876,66	1300,46
876,83	1210,35
876,99	1294,32
877,16	1208,30
877,32	1337,32
877,49	1239,02
877,66	1318,89
877,82	1251,31
877,99	1255,40
878,15	1314,80
878,32	1257,45
878,49	1224,69
878,65	1212,40
878,82	1288,17
878,98	1220,59
879,15	1325,04
879,32	1187,82
879,48	1304,56
879,65	1296,36
879,81	1241,07
879,98	1302,51
880,15	1314,80
880,31	1206,25
880,48	1202,16
880,64	1230,83
880,81	1333,23
880,97	1273,84
881,14	1290,22
881,31	1310,70
881,47	1279,98
881,64	1259,50
881,80	1220,59
881,97	1310,70
882,13	1310,70
882,30	1265,64
882,47	1236,97
882,63	1200,11
882,80	1300,46
882,96	1267,69
883,13	1226,73
883,29	1259,50
883,46	1259,50
883,62	1249,26
883,79	1286,12
883,95	1255,40
884,12	1273,84
884,29	1308,65
884,45	1343,47
884,62	1253,36
884,78	1230,83
884,95	1298,41
885,11	1279,98
885,28	1253,36
885,44	1222,64
885,61	1245,16
885,77	1277,93
885,94	1261,55
886,10	1337,32
886,27	1230,83
886,43	1249,26
886,60	1294,32
886,76	1271,79
886,93	1228,78
887,09	1286,12
887,26	1277,93
887,42	1241,07
887,59	1279,98
887,75	1277,93
887,92	1277,93
888,08	1239,02
888,25	1241,07
888,41	1320,94
888,58	1267,69
888,74	1263,60
888,91	1300,46
>>>>>End Processed Spectral Data<<<<<
