SpectraSuite Data File
++++++++++++++++++++++++++++++++++++
Date: Sun Apr 03 19:14:34 CEST 2016
User: root
Dark Spectrum Present: No
Reference Spectrum Present: No
Number of Sampled Component Spectra: 1
Spectrometers: USB4C02835
Integration Time (usec): 10000 (USB4C02835)
Spectra Averaged: 1 (USB4C02835)
Boxcar Smoothing: 0 (USB4C02835)
Correct for Electrical Dark: No (USB4C02835)
Strobe/Lamp Enabled: No (USB4C02835)
Correct for Detector Non-linearity: No (USB4C02835)
Correct for Stray Light: No (USB4C02835)
Number of Pixels in Processed Spectrum: 3648
>>>>>Begin Processed Spectral Data<<<<<
177,47	1282,03
177,69	1282,03
177,91	1282,03
178,13	1306,60
178,36	1257,45
178,58	1294,32
178,80	1236,97
179,02	1236,97
179,24	1263,60
179,46	1214,45
179,68	1288,17
179,90	1316,84
180,13	1269,74
180,35	1282,03
180,57	1257,45
180,79	1265,64
181,01	1234,93
181,23	1210,35
181,45	1290,22
181,67	1204,21
181,90	1302,51
182,12	1308,65
182,34	1310,70
182,56	1261,55
182,78	1282,03
183,00	1257,45
183,22	1322,99
183,44	1232,88
183,66	1236,97
183,89	1267,69
184,11	1279,98
184,33	1282,03
184,55	1288,17
184,77	1325,04
184,99	1210,35
185,21	1282,03
185,43	1263,60
185,65	1345,52
185,87	1275,88
186,10	1325,04
186,32	1265,64
186,54	1290,22
186,76	1241,07
186,98	1177,58
187,20	1277,93
187,42	1271,79
187,64	1320,94
187,86	1216,49
188,08	1337,32
188,30	1257,45
188,52	1243,12
188,75	1245,16
188,97	1335,28
189,19	1245,16
189,41	1279,98
189,63	1269,74
189,85	1259,50
190,07	1263,60
190,29	1310,70
190,51	1269,74
190,73	1271,79
190,95	1308,65
191,17	1255,40
191,39	1228,78
191,61	1312,75
191,84	1193,97
192,06	1265,64
192,28	1257,45
192,50	1312,75
192,72	1185,77
192,94	1296,36
193,16	1282,03
193,38	1263,60
193,60	1263,60
193,82	1255,40
194,04	1271,79
194,26	1265,64
194,48	1275,88
194,70	1236,97
194,92	1253,36
195,14	1245,16
195,36	1261,55
195,58	1261,55
195,80	1263,60
196,02	1288,17
196,24	1304,56
196,46	1216,49
196,69	1339,37
196,91	1236,97
197,13	1200,11
197,35	1267,69
197,57	1224,69
197,79	1239,02
198,01	1359,85
198,23	1327,08
198,45	1247,21
198,67	1304,56
198,89	1210,35
199,11	1259,50
199,33	1261,55
199,55	1314,80
199,77	1282,03
199,99	1171,44
200,21	1257,45
200,43	1304,56
200,65	1265,64
200,87	1259,50
201,09	1306,60
201,31	1210,35
201,53	1290,22
201,75	1302,51
201,97	1300,46
202,19	1241,07
202,41	1239,02
202,63	1263,60
202,85	1341,42
203,07	1316,84
203,29	1253,36
203,51	1322,99
203,73	1202,16
203,95	1318,89
204,17	1253,36
204,39	1247,21
204,61	1318,89
204,83	1277,93
205,05	1329,13
205,27	1269,74
205,49	1294,32
205,71	1234,93
205,93	1239,02
206,15	1234,93
206,37	1239,02
206,59	1296,36
206,81	1294,32
207,03	1220,59
207,25	1265,64
207,47	1322,99
207,69	1271,79
207,91	1368,04
208,13	1292,27
208,34	1275,88
208,56	1261,55
208,78	1236,97
209,00	1286,12
209,22	1236,97
209,44	1269,74
209,66	1226,73
209,88	1216,49
210,10	1308,65
210,32	1292,27
210,54	1212,40
210,76	1257,45
210,98	1259,50
211,20	1337,32
211,42	1284,08
211,64	1335,28
211,86	1222,64
212,08	1296,36
212,30	1286,12
212,52	1265,64
212,74	1279,98
212,96	1335,28
213,17	1343,47
213,39	1249,26
213,61	1282,03
213,83	1261,55
214,05	1200,11
214,27	1320,94
214,49	1273,84
214,71	1271,79
214,93	1312,75
215,15	1245,16
215,37	1296,36
215,59	1294,32
215,81	1206,25
216,03	1257,45
216,24	1359,85
216,46	1245,16
216,68	1370,09
216,90	1273,84
217,12	1310,70
217,34	1230,83
217,56	1322,99
217,78	1253,36
218,00	1234,93
218,22	1325,04
218,44	1275,88
218,66	1222,64
218,87	1245,16
219,09	1273,84
219,31	1232,88
219,53	1257,45
219,75	1214,45
219,97	1189,87
220,19	1282,03
220,41	1232,88
220,63	1271,79
220,85	1191,92
221,06	1257,45
221,28	1288,17
221,50	1298,41
221,72	1267,69
221,94	1282,03
222,16	1306,60
222,38	1232,88
222,60	1218,54
222,82	1236,97
223,03	1290,22
223,25	1232,88
223,47	1306,60
223,69	1322,99
223,91	1282,03
224,13	1243,12
224,35	1269,74
224,57	1271,79
224,78	1316,84
225,00	1263,60
225,22	1298,41
225,44	1255,40
225,66	1335,28
225,88	1296,36
226,10	1177,58
226,32	1259,50
226,53	1302,51
226,75	1234,93
226,97	1265,64
227,19	1310,70
227,41	1331,18
227,63	1290,22
227,85	1292,27
228,06	1273,84
228,28	1294,32
228,50	1277,93
228,72	1308,65
228,94	1245,16
229,16	1273,84
229,37	1263,60
229,59	1257,45
229,81	1359,85
230,03	1232,88
230,25	1251,31
230,47	1320,94
230,69	1232,88
230,90	1284,08
231,12	1243,12
231,34	1257,45
231,56	1286,12
231,78	1273,84
232,00	1279,98
232,21	1261,55
232,43	1175,53
232,65	1179,63
232,87	1275,88
233,09	1232,88
233,30	1284,08
233,52	1193,97
233,74	1269,74
233,96	1263,60
234,18	1302,51
234,40	1269,74
234,61	1277,93
234,83	1277,93
235,05	1282,03
235,27	1251,31
235,49	1234,93
235,70	1300,46
235,92	1257,45
236,14	1171,44
236,36	1316,84
236,58	1275,88
236,79	1304,56
237,01	1273,84
237,23	1222,64
237,45	1288,17
237,67	1263,60
237,88	1275,88
238,10	1271,79
238,32	1290,22
238,54	1245,16
238,76	1230,83
238,97	1308,65
239,19	1236,97
239,41	1253,36
239,63	1232,88
239,85	1263,60
240,06	1261,55
240,28	1292,27
240,50	1243,12
240,72	1245,16
240,93	1277,93
241,15	1249,26
241,37	1249,26
241,59	1236,97
241,81	1206,25
242,02	1232,88
242,24	1255,40
242,46	1277,93
242,68	1277,93
242,89	1361,90
243,11	1257,45
243,33	1224,69
243,55	1302,51
243,76	1249,26
243,98	1255,40
244,20	1245,16
244,42	1269,74
244,64	1284,08
244,85	1292,27
245,07	1216,49
245,29	1253,36
245,51	1275,88
245,72	1253,36
245,94	1204,21
246,16	1222,64
246,38	1279,98
246,59	1249,26
246,81	1343,47
247,03	1253,36
247,24	1257,45
247,46	1269,74
247,68	1206,25
247,90	1275,88
248,11	1290,22
248,33	1216,49
248,55	1179,63
248,77	1251,31
248,98	1273,84
249,20	1232,88
249,42	1298,41
249,64	1290,22
249,85	1318,89
250,07	1224,69
250,29	1343,47
250,50	1167,34
250,72	1241,07
250,94	1212,40
251,16	1282,03
251,37	1247,21
251,59	1314,80
251,81	1189,87
252,02	1286,12
252,24	1161,20
252,46	1304,56
252,68	1261,55
252,89	1239,02
253,11	1253,36
253,33	1249,26
253,54	1261,55
253,76	1247,21
253,98	1247,21
254,20	1200,11
254,41	1304,56
254,63	1300,46
254,85	1329,13
255,06	1271,79
255,28	1247,21
255,50	1234,93
255,71	1249,26
255,93	1277,93
256,15	1267,69
256,36	1241,07
256,58	1277,93
256,80	1345,52
257,02	1251,31
257,23	1275,88
257,45	1232,88
257,67	1230,83
257,88	1189,87
258,10	1191,92
258,32	1277,93
258,53	1322,99
258,75	1212,40
258,97	1230,83
259,18	1284,08
259,40	1253,36
259,62	1236,97
259,83	1263,60
260,05	1382,38
260,27	1249,26
260,48	1288,17
260,70	1245,16
260,92	1191,92
261,13	1249,26
261,35	1269,74
261,57	1308,65
261,78	1218,54
262,00	1302,51
262,22	1271,79
262,43	1282,03
262,65	1300,46
262,86	1294,32
263,08	1185,77
263,30	1288,17
263,51	1290,22
263,73	1259,50
263,95	1247,21
264,16	1253,36
264,38	1273,84
264,60	1298,41
264,81	1189,87
265,03	1200,11
265,25	1343,47
265,46	1339,37
265,68	1263,60
265,89	1249,26
266,11	1241,07
266,33	1310,70
266,54	1236,97
266,76	1245,16
266,98	1333,23
267,19	1269,74
267,41	1224,69
267,62	1265,64
267,84	1337,32
268,06	1302,51
268,27	1239,02
268,49	1290,22
268,70	1300,46
268,92	1290,22
269,14	1251,31
269,35	1275,88
269,57	1347,56
269,79	1273,84
270,00	1220,59
270,22	1257,45
270,43	1308,65
270,65	1296,36
270,87	1222,64
271,08	1322,99
271,30	1288,17
271,51	1296,36
271,73	1228,78
271,95	1255,40
272,16	1218,54
272,38	1208,30
272,59	1259,50
272,81	1273,84
273,02	1245,16
273,24	1241,07
273,46	1302,51
273,67	1292,27
273,89	1269,74
274,10	1284,08
274,32	1304,56
274,54	1255,40
274,75	1224,69
274,97	1306,60
275,18	1269,74
275,40	1253,36
275,61	1273,84
275,83	1249,26
276,05	1298,41
276,26	1275,88
276,48	1243,12
276,69	1331,18
276,91	1208,30
277,12	1239,02
277,34	1310,70
277,55	1253,36
277,77	1261,55
277,99	1265,64
278,20	1230,83
278,42	1214,45
278,63	1232,88
278,85	1204,21
279,06	1312,75
279,28	1257,45
279,49	1304,56
279,71	1239,02
279,93	1208,30
280,14	1279,98
280,36	1236,97
280,57	1247,21
280,79	1261,55
281,00	1279,98
281,22	1279,98
281,43	1202,16
281,65	1269,74
281,86	1206,25
282,08	1261,55
282,29	1300,46
282,51	1232,88
282,73	1318,89
282,94	1265,64
283,16	1310,70
283,37	1226,73
283,59	1288,17
283,80	1290,22
284,02	1255,40
284,23	1286,12
284,45	1279,98
284,66	1333,23
284,88	1261,55
285,09	1275,88
285,31	1300,46
285,52	1255,40
285,74	1224,69
285,95	1259,50
286,17	1245,16
286,38	1263,60
286,60	1286,12
286,81	1294,32
287,03	1249,26
287,24	1318,89
287,46	1316,84
287,67	1249,26
287,89	1310,70
288,10	1333,23
288,32	1339,37
288,53	1165,29
288,75	1273,84
288,96	1292,27
289,18	1275,88
289,39	1269,74
289,61	1290,22
289,82	1265,64
290,04	1296,36
290,25	1214,45
290,47	1314,80
290,68	1269,74
290,90	1273,84
291,11	1257,45
291,33	1191,92
291,54	1245,16
291,76	1304,56
291,97	1216,49
292,18	1310,70
292,40	1269,74
292,61	1288,17
292,83	1196,01
293,04	1322,99
293,26	1296,36
293,47	1214,45
293,69	1273,84
293,90	1320,94
294,12	1230,83
294,33	1273,84
294,55	1263,60
294,76	1228,78
294,97	1193,97
295,19	1304,56
295,40	1261,55
295,62	1288,17
295,83	1277,93
296,05	1298,41
296,26	1282,03
296,48	1288,17
296,69	1277,93
296,90	1263,60
297,12	1271,79
297,33	1239,02
297,55	1253,36
297,76	1204,21
297,98	1279,98
298,19	1273,84
298,41	1183,73
298,62	1214,45
298,83	1347,56
299,05	1308,65
299,26	1210,35
299,48	1290,22
299,69	1271,79
299,90	1265,64
300,12	1206,25
300,33	1191,92
300,55	1337,32
300,76	1284,08
300,98	1204,21
301,19	1279,98
301,40	1325,04
301,62	1308,65
301,83	1239,02
302,05	1271,79
302,26	1263,60
302,47	1271,79
302,69	1300,46
302,90	1265,64
303,12	1239,02
303,33	1241,07
303,54	1257,45
303,76	1241,07
303,97	1236,97
304,19	1333,23
304,40	1247,21
304,61	1173,49
304,83	1318,89
305,04	1243,12
305,26	1275,88
305,47	1241,07
305,68	1263,60
305,90	1245,16
306,11	1257,45
306,33	1236,97
306,54	1294,32
306,75	1271,79
306,97	1255,40
307,18	1259,50
307,39	1224,69
307,61	1253,36
307,82	1288,17
308,04	1241,07
308,25	1236,97
308,46	1304,56
308,68	1282,03
308,89	1247,21
309,10	1279,98
309,32	1230,83
309,53	1232,88
309,74	1275,88
309,96	1312,75
310,17	1232,88
310,39	1275,88
310,60	1265,64
310,81	1314,80
311,03	1263,60
311,24	1204,21
311,45	1247,21
311,67	1273,84
311,88	1302,51
312,09	1261,55
312,31	1269,74
312,52	1296,36
312,73	1277,93
312,95	1320,94
313,16	1208,30
313,37	1286,12
313,59	1234,93
313,80	1220,59
314,01	1228,78
314,23	1253,36
314,44	1265,64
314,65	1273,84
314,87	1286,12
315,08	1298,41
315,29	1310,70
315,51	1265,64
315,72	1253,36
315,93	1202,16
316,15	1310,70
316,36	1234,93
316,57	1292,27
316,79	1249,26
317,00	1257,45
317,21	1320,94
317,43	1277,93
317,64	1212,40
317,85	1355,76
318,07	1249,26
318,28	1257,45
318,49	1286,12
318,70	1226,73
318,92	1273,84
319,13	1245,16
319,34	1265,64
319,56	1347,56
319,77	1239,02
319,98	1249,26
320,20	1226,73
320,41	1265,64
320,62	1220,59
320,83	1304,56
321,05	1277,93
321,26	1304,56
321,47	1220,59
321,69	1306,60
321,90	1257,45
322,11	1310,70
322,32	1273,84
322,54	1327,08
322,75	1343,47
322,96	1263,60
323,18	1245,16
323,39	1284,08
323,60	1183,73
323,81	1265,64
324,03	1228,78
324,24	1228,78
324,45	1327,08
324,66	1234,93
324,88	1329,13
325,09	1234,93
325,30	1218,54
325,52	1294,32
325,73	1329,13
325,94	1277,93
326,15	1316,84
326,37	1284,08
326,58	1265,64
326,79	1327,08
327,00	1288,17
327,22	1290,22
327,43	1284,08
327,64	1241,07
327,85	1292,27
328,07	1273,84
328,28	1228,78
328,49	1247,21
328,70	1214,45
328,92	1314,80
329,13	1300,46
329,34	1251,31
329,55	1261,55
329,76	1249,26
329,98	1232,88
330,19	1318,89
330,40	1306,60
330,61	1245,16
330,83	1261,55
331,04	1263,60
331,25	1245,16
331,46	1284,08
331,68	1218,54
331,89	1288,17
332,10	1257,45
332,31	1208,30
332,52	1265,64
332,74	1245,16
332,95	1214,45
333,16	1263,60
333,37	1286,12
333,58	1279,98
333,80	1255,40
334,01	1263,60
334,22	1257,45
334,43	1265,64
334,64	1167,34
334,86	1236,97
335,07	1302,51
335,28	1202,16
335,49	1304,56
335,70	1216,49
335,92	1241,07
336,13	1222,64
336,34	1345,52
336,55	1325,04
336,76	1290,22
336,98	1271,79
337,19	1294,32
337,40	1267,69
337,61	1288,17
337,82	1288,17
338,04	1236,97
338,25	1286,12
338,46	1277,93
338,67	1220,59
338,88	1267,69
339,09	1236,97
339,31	1271,79
339,52	1288,17
339,73	1286,12
339,94	1284,08
340,15	1284,08
340,36	1292,27
340,58	1277,93
340,79	1271,79
341,00	1286,12
341,21	1249,26
341,42	1320,94
341,63	1331,18
341,85	1314,80
342,06	1284,08
342,27	1265,64
342,48	1263,60
342,69	1300,46
342,90	1271,79
343,12	1288,17
343,33	1351,66
343,54	1171,44
343,75	1312,75
343,96	1224,69
344,17	1251,31
344,38	1196,01
344,60	1234,93
344,81	1243,12
345,02	1273,84
345,23	1230,83
345,44	1286,12
345,65	1269,74
345,86	1259,50
346,07	1257,45
346,29	1218,54
346,50	1236,97
346,71	1292,27
346,92	1251,31
347,13	1243,12
347,34	1267,69
347,55	1220,59
347,76	1271,79
347,98	1222,64
348,19	1228,78
348,40	1247,21
348,61	1251,31
348,82	1271,79
349,03	1294,32
349,24	1277,93
349,45	1263,60
349,66	1277,93
349,88	1241,07
350,09	1239,02
350,30	1271,79
350,51	1249,26
350,72	1374,19
350,93	1298,41
351,14	1300,46
351,35	1218,54
351,56	1294,32
351,77	1269,74
351,99	1224,69
352,20	1312,75
352,41	1234,93
352,62	1257,45
352,83	1288,17
353,04	1267,69
353,25	1263,60
353,46	1316,84
353,67	1310,70
353,88	1320,94
354,09	1253,36
354,30	1263,60
354,52	1359,85
354,73	1208,30
354,94	1359,85
355,15	1224,69
355,36	1228,78
355,57	1288,17
355,78	1310,70
355,99	1275,88
356,20	1253,36
356,41	1273,84
356,62	1177,58
356,83	1302,51
357,04	1329,13
357,25	1206,25
357,46	1247,21
357,68	1284,08
357,89	1294,32
358,10	1249,26
358,31	1216,49
358,52	1284,08
358,73	1290,22
358,94	1325,04
359,15	1302,51
359,36	1239,02
359,57	1306,60
359,78	1196,01
359,99	1200,11
360,20	1267,69
360,41	1257,45
360,62	1165,29
360,83	1204,21
361,04	1314,80
361,25	1273,84
361,46	1255,40
361,67	1228,78
361,88	1345,52
362,09	1288,17
362,30	1306,60
362,51	1230,83
362,72	1353,71
362,93	1261,55
363,14	1271,79
363,35	1331,18
363,56	1269,74
363,78	1286,12
363,99	1296,36
364,20	1202,16
364,41	1325,04
364,62	1300,46
364,83	1255,40
365,04	1279,98
365,25	1206,25
365,46	1296,36
365,67	1318,89
365,88	1290,22
366,09	1230,83
366,30	1290,22
366,51	1304,56
366,72	1261,55
366,93	1288,17
367,14	1294,32
367,35	1175,53
367,56	1353,71
367,77	1265,64
367,98	1220,59
368,18	1241,07
368,39	1257,45
368,60	1251,31
368,81	1279,98
369,02	1275,88
369,23	1196,01
369,44	1300,46
369,65	1286,12
369,86	1216,49
370,07	1259,50
370,28	1206,25
370,49	1228,78
370,70	1243,12
370,91	1230,83
371,12	1220,59
371,33	1253,36
371,54	1261,55
371,75	1333,23
371,96	1179,63
372,17	1241,07
372,38	1236,97
372,59	1273,84
372,80	1247,21
373,01	1282,03
373,22	1290,22
373,43	1216,49
373,64	1296,36
373,85	1314,80
374,06	1320,94
374,26	1314,80
374,47	1284,08
374,68	1261,55
374,89	1290,22
375,10	1163,25
375,31	1325,04
375,52	1296,36
375,73	1228,78
375,94	1232,88
376,15	1224,69
376,36	1196,01
376,57	1253,36
376,78	1263,60
376,99	1236,97
377,20	1292,27
377,40	1308,65
377,61	1325,04
377,82	1247,21
378,03	1275,88
378,24	1320,94
378,45	1314,80
378,66	1331,18
378,87	1249,26
379,08	1214,45
379,29	1236,97
379,50	1277,93
379,71	1218,54
379,91	1220,59
380,12	1290,22
380,33	1318,89
380,54	1267,69
380,75	1277,93
380,96	1247,21
381,17	1212,40
381,38	1214,45
381,59	1271,79
381,80	1290,22
382,00	1306,60
382,21	1208,30
382,42	1273,84
382,63	1210,35
382,84	1308,65
383,05	1255,40
383,26	1288,17
383,47	1318,89
383,68	1308,65
383,88	1273,84
384,09	1247,21
384,30	1257,45
384,51	1220,59
384,72	1267,69
384,93	1292,27
385,14	1269,74
385,35	1146,86
385,55	1290,22
385,76	1345,52
385,97	1275,88
386,18	1329,13
386,39	1310,70
386,60	1255,40
386,81	1284,08
387,02	1269,74
387,22	1191,92
387,43	1273,84
387,64	1226,73
387,85	1296,36
388,06	1282,03
388,27	1329,13
388,48	1284,08
388,68	1284,08
388,89	1265,64
389,10	1304,56
389,31	1251,31
389,52	1249,26
389,73	1193,97
389,93	1282,03
390,14	1259,50
390,35	1279,98
390,56	1286,12
390,77	1269,74
390,98	1169,39
391,18	1255,40
391,39	1265,64
391,60	1353,71
391,81	1263,60
392,02	1255,40
392,23	1208,30
392,43	1218,54
392,64	1236,97
392,85	1288,17
393,06	1306,60
393,27	1271,79
393,47	1169,39
393,68	1269,74
393,89	1275,88
394,10	1320,94
394,31	1243,12
394,52	1261,55
394,72	1196,01
394,93	1259,50
395,14	1206,25
395,35	1247,21
395,56	1265,64
395,76	1341,42
395,97	1255,40
396,18	1308,65
396,39	1306,60
396,60	1245,16
396,80	1331,18
397,01	1271,79
397,22	1275,88
397,43	1286,12
397,64	1263,60
397,84	1294,32
398,05	1259,50
398,26	1312,75
398,47	1247,21
398,67	1253,36
398,88	1267,69
399,09	1271,79
399,30	1236,97
399,51	1329,13
399,71	1294,32
399,92	1308,65
400,13	1230,83
400,34	1239,02
400,54	1206,25
400,75	1292,27
400,96	1322,99
401,17	1273,84
401,37	1241,07
401,58	1292,27
401,79	1247,21
402,00	1241,07
402,21	1251,31
402,41	1222,64
402,62	1327,08
402,83	1267,69
403,04	1247,21
403,24	1243,12
403,45	1296,36
403,66	1243,12
403,87	1255,40
404,07	1263,60
404,28	1282,03
404,49	1290,22
404,70	1230,83
404,90	1329,13
405,11	1314,80
405,32	1249,26
405,52	1247,21
405,73	1275,88
405,94	1279,98
406,15	1302,51
406,35	1269,74
406,56	1347,56
406,77	1304,56
406,98	1249,26
407,18	1216,49
407,39	1261,55
407,60	1267,69
407,80	1304,56
408,01	1241,07
408,22	1247,21
408,43	1304,56
408,63	1214,45
408,84	1296,36
409,05	1273,84
409,25	1257,45
409,46	1253,36
409,67	1222,64
409,88	1277,93
410,08	1286,12
410,29	1273,84
410,50	1226,73
410,70	1286,12
410,91	1300,46
411,12	1224,69
411,32	1257,45
411,53	1263,60
411,74	1308,65
411,95	1302,51
412,15	1267,69
412,36	1253,36
412,57	1212,40
412,77	1234,93
412,98	1327,08
413,19	1210,35
413,39	1220,59
413,60	1300,46
413,81	1218,54
414,01	1216,49
414,22	1282,03
414,43	1282,03
414,63	1198,06
414,84	1292,27
415,05	1306,60
415,25	1279,98
415,46	1288,17
415,67	1245,16
415,87	1234,93
416,08	1290,22
416,29	1243,12
416,49	1165,29
416,70	1185,77
416,91	1241,07
417,11	1296,36
417,32	1212,40
417,53	1374,19
417,73	1267,69
417,94	1214,45
418,15	1224,69
418,35	1298,41
418,56	1282,03
418,77	1253,36
418,97	1269,74
419,18	1263,60
419,38	1357,80
419,59	1212,40
419,80	1320,94
420,00	1284,08
420,21	1232,88
420,42	1204,21
420,62	1241,07
420,83	1241,07
421,04	1245,16
421,24	1265,64
421,45	1279,98
421,65	1286,12
421,86	1310,70
422,07	1304,56
422,27	1351,66
422,48	1122,29
422,69	1263,60
422,89	1185,77
423,10	1269,74
423,30	1185,77
423,51	1300,46
423,72	1306,60
423,92	1333,23
424,13	1263,60
424,33	1284,08
424,54	1200,11
424,75	1271,79
424,95	1230,83
425,16	1169,39
425,36	1322,99
425,57	1265,64
425,78	1273,84
425,98	1247,21
426,19	1241,07
426,39	1325,04
426,60	1216,49
426,81	1224,69
427,01	1290,22
427,22	1286,12
427,42	1302,51
427,63	1267,69
427,83	1185,77
428,04	1279,98
428,25	1296,36
428,45	1298,41
428,66	1267,69
428,86	1265,64
429,07	1230,83
429,28	1210,35
429,48	1261,55
429,69	1222,64
429,89	1265,64
430,10	1183,73
430,30	1288,17
430,51	1282,03
430,71	1206,25
430,92	1298,41
431,13	1267,69
431,33	1304,56
431,54	1245,16
431,74	1226,73
431,95	1234,93
432,15	1200,11
432,36	1257,45
432,56	1230,83
432,77	1296,36
432,98	1345,52
433,18	1294,32
433,39	1251,31
433,59	1222,64
433,80	1337,32
434,00	1255,40
434,21	1247,21
434,41	1169,39
434,62	1302,51
434,82	1230,83
435,03	1222,64
435,23	1259,50
435,44	1257,45
435,64	1329,13
435,85	1284,08
436,06	1345,52
436,26	1265,64
436,47	1261,55
436,67	1329,13
436,88	1249,26
437,08	1232,88
437,29	1265,64
437,49	1222,64
437,70	1232,88
437,90	1249,26
438,11	1232,88
438,31	1339,37
438,52	1249,26
438,72	1273,84
438,93	1245,16
439,13	1247,21
439,34	1279,98
439,54	1269,74
439,75	1359,85
439,95	1290,22
440,16	1275,88
440,36	1273,84
440,57	1339,37
440,77	1316,84
440,98	1294,32
441,18	1265,64
441,39	1236,97
441,59	1247,21
441,80	1247,21
442,00	1275,88
442,21	1288,17
442,41	1277,93
442,62	1339,37
442,82	1290,22
443,02	1257,45
443,23	1298,41
443,43	1316,84
443,64	1267,69
443,84	1245,16
444,05	1300,46
444,25	1277,93
444,46	1245,16
444,66	1290,22
444,87	1343,47
445,07	1210,35
445,28	1282,03
445,48	1277,93
445,69	1320,94
445,89	1253,36
446,09	1267,69
446,30	1335,28
446,50	1282,03
446,71	1214,45
446,91	1302,51
447,12	1331,18
447,32	1241,07
447,53	1290,22
447,73	1193,97
447,93	1251,31
448,14	1275,88
448,34	1228,78
448,55	1196,01
448,75	1230,83
448,96	1302,51
449,16	1306,60
449,36	1310,70
449,57	1257,45
449,77	1308,65
449,98	1241,07
450,18	1236,97
450,39	1263,60
450,59	1224,69
450,79	1222,64
451,00	1273,84
451,20	1241,07
451,41	1259,50
451,61	1292,27
451,81	1363,95
452,02	1241,07
452,22	1269,74
452,43	1220,59
452,63	1304,56
452,84	1376,24
453,04	1228,78
453,24	1290,22
453,45	1351,66
453,65	1325,04
453,86	1249,26
454,06	1247,21
454,26	1294,32
454,47	1255,40
454,67	1220,59
454,87	1271,79
455,08	1249,26
455,28	1214,45
455,49	1318,89
455,69	1257,45
455,89	1249,26
456,10	1284,08
456,30	1304,56
456,51	1236,97
456,71	1202,16
456,91	1284,08
457,12	1288,17
457,32	1245,16
457,52	1308,65
457,73	1292,27
457,93	1304,56
458,14	1236,97
458,34	1282,03
458,54	1282,03
458,75	1284,08
458,95	1288,17
459,15	1208,30
459,36	1263,60
459,56	1277,93
459,76	1253,36
459,97	1322,99
460,17	1302,51
460,37	1224,69
460,58	1247,21
460,78	1249,26
460,99	1306,60
461,19	1224,69
461,39	1370,09
461,60	1249,26
461,80	1232,88
462,00	1298,41
462,21	1300,46
462,41	1296,36
462,61	1253,36
462,82	1210,35
463,02	1253,36
463,22	1232,88
463,43	1239,02
463,63	1331,18
463,83	1302,51
464,04	1269,74
464,24	1327,08
464,44	1236,97
464,64	1239,02
464,85	1255,40
465,05	1277,93
465,25	1296,36
465,46	1273,84
465,66	1234,93
465,86	1257,45
466,07	1241,07
466,27	1259,50
466,47	1318,89
466,68	1253,36
466,88	1279,98
467,08	1230,83
467,29	1314,80
467,49	1298,41
467,69	1239,02
467,89	1277,93
468,10	1245,16
468,30	1296,36
468,50	1304,56
468,71	1177,58
468,91	1267,69
469,11	1255,40
469,31	1273,84
469,52	1288,17
469,72	1259,50
469,92	1316,84
470,13	1306,60
470,33	1269,74
470,53	1269,74
470,73	1271,79
470,94	1282,03
471,14	1253,36
471,34	1275,88
471,54	1253,36
471,75	1366,00
471,95	1288,17
472,15	1308,65
472,36	1245,16
472,56	1269,74
472,76	1300,46
472,96	1214,45
473,17	1306,60
473,37	1200,11
473,57	1236,97
473,77	1251,31
473,98	1243,12
474,18	1282,03
474,38	1300,46
474,58	1234,93
474,79	1306,60
474,99	1222,64
475,19	1236,97
475,39	1150,96
475,60	1261,55
475,80	1245,16
476,00	1218,54
476,20	1290,22
476,41	1298,41
476,61	1202,16
476,81	1257,45
477,01	1261,55
477,21	1314,80
477,42	1296,36
477,62	1273,84
477,82	1222,64
478,02	1202,16
478,23	1232,88
478,43	1243,12
478,63	1279,98
478,83	1232,88
479,03	1269,74
479,24	1232,88
479,44	1298,41
479,64	1200,11
479,84	1210,35
480,04	1302,51
480,25	1353,71
480,45	1216,49
480,65	1210,35
480,85	1241,07
481,06	1265,64
481,26	1257,45
481,46	1355,76
481,66	1236,97
481,86	1255,40
482,06	1271,79
482,27	1226,73
482,47	1236,97
482,67	1288,17
482,87	1226,73
483,07	1249,26
483,28	1236,97
483,48	1175,53
483,68	1290,22
483,88	1259,50
484,08	1239,02
484,29	1282,03
484,49	1220,59
484,69	1314,80
484,89	1263,60
485,09	1277,93
485,29	1300,46
485,50	1306,60
485,70	1279,98
485,90	1333,23
486,10	1263,60
486,30	1259,50
486,50	1306,60
486,71	1265,64
486,91	1202,16
487,11	1157,10
487,31	1306,60
487,51	1277,93
487,71	1347,56
487,91	1236,97
488,12	1263,60
488,32	1222,64
488,52	1255,40
488,72	1243,12
488,92	1253,36
489,12	1273,84
489,32	1273,84
489,53	1304,56
489,73	1267,69
489,93	1234,93
490,13	1320,94
490,33	1163,25
490,53	1284,08
490,73	1206,25
490,94	1245,16
491,14	1265,64
491,34	1216,49
491,54	1236,97
491,74	1290,22
491,94	1320,94
492,14	1331,18
492,34	1290,22
492,54	1312,75
492,75	1212,40
492,95	1290,22
493,15	1232,88
493,35	1181,68
493,55	1292,27
493,75	1306,60
493,95	1247,21
494,15	1277,93
494,35	1269,74
494,56	1296,36
494,76	1308,65
494,96	1236,97
495,16	1300,46
495,36	1224,69
495,56	1239,02
495,76	1322,99
495,96	1253,36
496,16	1234,93
496,36	1320,94
496,56	1279,98
496,77	1273,84
496,97	1273,84
497,17	1300,46
497,37	1277,93
497,57	1290,22
497,77	1239,02
497,97	1232,88
498,17	1259,50
498,37	1306,60
498,57	1257,45
498,77	1267,69
498,97	1288,17
499,17	1294,32
499,38	1269,74
499,58	1314,80
499,78	1247,21
499,98	1300,46
500,18	1239,02
500,38	1232,88
500,58	1251,31
500,78	1292,27
500,98	1312,75
501,18	1294,32
501,38	1243,12
501,58	1261,55
501,78	1263,60
501,98	1341,42
502,18	1224,69
502,38	1269,74
502,58	1349,61
502,78	1228,78
502,98	1202,16
503,18	1263,60
503,38	1243,12
503,59	1327,08
503,79	1286,12
503,99	1243,12
504,19	1316,84
504,39	1275,88
504,59	1265,64
504,79	1267,69
504,99	1212,40
505,19	1279,98
505,39	1312,75
505,59	1290,22
505,79	1220,59
505,99	1251,31
506,19	1202,16
506,39	1226,73
506,59	1232,88
506,79	1245,16
506,99	1241,07
507,19	1273,84
507,39	1226,73
507,59	1241,07
507,79	1228,78
507,99	1261,55
508,19	1300,46
508,39	1198,06
508,59	1249,26
508,79	1263,60
508,99	1282,03
509,19	1325,04
509,39	1273,84
509,59	1198,06
509,79	1236,97
509,99	1232,88
510,19	1288,17
510,39	1269,74
510,59	1236,97
510,79	1279,98
510,99	1220,59
511,19	1294,32
511,39	1318,89
511,59	1263,60
511,79	1275,88
511,99	1314,80
512,19	1298,41
512,38	1263,60
512,58	1257,45
512,78	1249,26
512,98	1251,31
513,18	1267,69
513,38	1236,97
513,58	1292,27
513,78	1282,03
513,98	1322,99
514,18	1263,60
514,38	1236,97
514,58	1261,55
514,78	1245,16
514,98	1247,21
515,18	1243,12
515,38	1247,21
515,58	1255,40
515,78	1257,45
515,98	1245,16
516,18	1226,73
516,38	1322,99
516,57	1310,70
516,77	1222,64
516,97	1257,45
517,17	1234,93
517,37	1212,40
517,57	1247,21
517,77	1243,12
517,97	1282,03
518,17	1312,75
518,37	1320,94
518,57	1183,73
518,77	1247,21
518,97	1300,46
519,16	1245,16
519,36	1286,12
519,56	1226,73
519,76	1218,54
519,96	1349,61
520,16	1269,74
520,36	1177,58
520,56	1249,26
520,76	1292,27
520,96	1284,08
521,16	1298,41
521,35	1275,88
521,55	1249,26
521,75	1298,41
521,95	1245,16
522,15	1263,60
522,35	1337,32
522,55	1200,11
522,75	1265,64
522,95	1310,70
523,14	1271,79
523,34	1236,97
523,54	1249,26
523,74	1265,64
523,94	1241,07
524,14	1234,93
524,34	1214,45
524,54	1275,88
524,73	1300,46
524,93	1239,02
525,13	1185,77
525,33	1261,55
525,53	1226,73
525,73	1236,97
525,93	1265,64
526,13	1220,59
526,32	1273,84
526,52	1284,08
526,72	1230,83
526,92	1277,93
527,12	1275,88
527,32	1232,88
527,52	1325,04
527,71	1275,88
527,91	1173,49
528,11	1288,17
528,31	1347,56
528,51	1247,21
528,71	1277,93
528,90	1312,75
529,10	1245,16
529,30	1318,89
529,50	1251,31
529,70	1198,06
529,90	1273,84
530,09	1179,63
530,29	1292,27
530,49	1302,51
530,69	1292,27
530,89	1228,78
531,09	1255,40
531,28	1277,93
531,48	1314,80
531,68	1300,46
531,88	1212,40
532,08	1277,93
532,28	1312,75
532,47	1277,93
532,67	1366,00
532,87	1273,84
533,07	1302,51
533,27	1325,04
533,46	1239,02
533,66	1271,79
533,86	1300,46
534,06	1206,25
534,26	1318,89
534,45	1302,51
534,65	1325,04
534,85	1214,45
535,05	1228,78
535,25	1269,74
535,44	1224,69
535,64	1239,02
535,84	1271,79
536,04	1282,03
536,24	1308,65
536,43	1325,04
536,63	1331,18
536,83	1228,78
537,03	1224,69
537,22	1271,79
537,42	1259,50
537,62	1204,21
537,82	1222,64
538,02	1208,30
538,21	1255,40
538,41	1271,79
538,61	1288,17
538,81	1273,84
539,00	1249,26
539,20	1200,11
539,40	1263,60
539,60	1294,32
539,79	1265,64
539,99	1247,21
540,19	1298,41
540,39	1189,87
540,58	1294,32
540,78	1282,03
540,98	1284,08
541,18	1277,93
541,37	1279,98
541,57	1306,60
541,77	1245,16
541,97	1277,93
542,16	1318,89
542,36	1302,51
542,56	1282,03
542,76	1310,70
542,95	1349,61
543,15	1300,46
543,35	1267,69
543,54	1220,59
543,74	1249,26
543,94	1271,79
544,14	1216,49
544,33	1257,45
544,53	1191,92
544,73	1296,36
544,93	1255,40
545,12	1236,97
545,32	1288,17
545,52	1249,26
545,71	1234,93
545,91	1292,27
546,11	1191,92
546,30	1271,79
546,50	1257,45
546,70	1290,22
546,90	1210,35
547,09	1257,45
547,29	1222,64
547,49	1243,12
547,68	1255,40
547,88	1232,88
548,08	1263,60
548,27	1347,56
548,47	1247,21
548,67	1318,89
548,87	1294,32
549,06	1300,46
549,26	1243,12
549,46	1212,40
549,65	1286,12
549,85	1224,69
550,05	1253,36
550,24	1298,41
550,44	1300,46
550,64	1304,56
550,83	1230,83
551,03	1216,49
551,23	1251,31
551,42	1288,17
551,62	1290,22
551,82	1290,22
552,01	1294,32
552,21	1320,94
552,41	1327,08
552,60	1298,41
552,80	1222,64
553,00	1245,16
553,19	1269,74
553,39	1259,50
553,59	1298,41
553,78	1251,31
553,98	1275,88
554,17	1304,56
554,37	1241,07
554,57	1277,93
554,76	1259,50
554,96	1259,50
555,16	1298,41
555,35	1310,70
555,55	1269,74
555,75	1247,21
555,94	1292,27
556,14	1234,93
556,33	1308,65
556,53	1241,07
556,73	1232,88
556,92	1253,36
557,12	1288,17
557,32	1294,32
557,51	1316,84
557,71	1329,13
557,90	1249,26
558,10	1257,45
558,30	1337,32
558,49	1232,88
558,69	1263,60
558,88	1230,83
559,08	1306,60
559,28	1304,56
559,47	1269,74
559,67	1279,98
559,86	1255,40
560,06	1273,84
560,26	1259,50
560,45	1255,40
560,65	1267,69
560,84	1282,03
561,04	1312,75
561,24	1267,69
561,43	1251,31
561,63	1288,17
561,82	1255,40
562,02	1226,73
562,22	1290,22
562,41	1292,27
562,61	1345,52
562,80	1261,55
563,00	1306,60
563,19	1322,99
563,39	1286,12
563,59	1263,60
563,78	1292,27
563,98	1267,69
564,17	1175,53
564,37	1294,32
564,56	1214,45
564,76	1304,56
564,96	1269,74
565,15	1239,02
565,35	1263,60
565,54	1236,97
565,74	1275,88
565,93	1208,30
566,13	1296,36
566,32	1226,73
566,52	1265,64
566,71	1245,16
566,91	1282,03
567,11	1259,50
567,30	1216,49
567,50	1169,39
567,69	1325,04
567,89	1284,08
568,08	1239,02
568,28	1253,36
568,47	1191,92
568,67	1300,46
568,86	1261,55
569,06	1286,12
569,25	1255,40
569,45	1290,22
569,64	1292,27
569,84	1245,16
570,04	1232,88
570,23	1357,80
570,43	1261,55
570,62	1191,92
570,82	1206,25
571,01	1257,45
571,21	1191,92
571,40	1251,31
571,60	1355,76
571,79	1257,45
571,99	1214,45
572,18	1212,40
572,38	1304,56
572,57	1245,16
572,77	1302,51
572,96	1265,64
573,16	1259,50
573,35	1282,03
573,55	1257,45
573,74	1265,64
573,94	1271,79
574,13	1271,79
574,33	1304,56
574,52	1298,41
574,71	1279,98
574,91	1277,93
575,10	1208,30
575,30	1257,45
575,49	1210,35
575,69	1241,07
575,88	1261,55
576,08	1339,37
576,27	1343,47
576,47	1341,42
576,66	1310,70
576,86	1275,88
577,05	1187,82
577,25	1239,02
577,44	1327,08
577,64	1318,89
577,83	1253,36
578,02	1206,25
578,22	1271,79
578,41	1255,40
578,61	1345,52
578,80	1273,84
579,00	1267,69
579,19	1187,82
579,39	1288,17
579,58	1245,16
579,77	1312,75
579,97	1253,36
580,16	1239,02
580,36	1243,12
580,55	1247,21
580,75	1224,69
580,94	1251,31
581,13	1239,02
581,33	1282,03
581,52	1245,16
581,72	1284,08
581,91	1343,47
582,11	1179,63
582,30	1279,98
582,49	1214,45
582,69	1228,78
582,88	1279,98
583,08	1247,21
583,27	1236,97
583,47	1308,65
583,66	1228,78
583,85	1296,36
584,05	1318,89
584,24	1251,31
584,44	1245,16
584,63	1277,93
584,82	1322,99
585,02	1218,54
585,21	1314,80
585,41	1198,06
585,60	1284,08
585,79	1298,41
585,99	1259,50
586,18	1189,87
586,37	1298,41
586,57	1318,89
586,76	1249,26
586,96	1165,29
587,15	1286,12
587,34	1261,55
587,54	1245,16
587,73	1204,21
587,93	1279,98
588,12	1247,21
588,31	1243,12
588,51	1277,93
588,70	1271,79
588,89	1296,36
589,09	1245,16
589,28	1298,41
589,47	1220,59
589,67	1318,89
589,86	1341,42
590,06	1267,69
590,25	1269,74
590,44	1277,93
590,64	1263,60
590,83	1279,98
591,02	1277,93
591,22	1265,64
591,41	1251,31
591,60	1253,36
591,80	1288,17
591,99	1251,31
592,18	1257,45
592,38	1279,98
592,57	1271,79
592,76	1257,45
592,96	1277,93
593,15	1341,42
593,34	1310,70
593,54	1218,54
593,73	1251,31
593,92	1290,22
594,12	1302,51
594,31	1286,12
594,50	1241,07
594,70	1232,88
594,89	1230,83
595,08	1251,31
595,28	1310,70
595,47	1257,45
595,66	1269,74
595,86	1363,95
596,05	1216,49
596,24	1202,16
596,43	1288,17
596,63	1257,45
596,82	1265,64
597,01	1226,73
597,21	1320,94
597,40	1265,64
597,59	1314,80
597,79	1277,93
597,98	1275,88
598,17	1269,74
598,36	1282,03
598,56	1269,74
598,75	1322,99
598,94	1335,28
599,14	1337,32
599,33	1230,83
599,52	1296,36
599,71	1275,88
599,91	1226,73
600,10	1255,40
600,29	1271,79
600,48	1306,60
600,68	1236,97
600,87	1275,88
601,06	1253,36
601,26	1331,18
601,45	1331,18
601,64	1277,93
601,83	1232,88
602,03	1222,64
602,22	1366,00
602,41	1234,93
602,60	1288,17
602,80	1210,35
602,99	1279,98
603,18	1267,69
603,37	1275,88
603,57	1288,17
603,76	1265,64
603,95	1273,84
604,14	1243,12
604,34	1259,50
604,53	1279,98
604,72	1249,26
604,91	1255,40
605,10	1288,17
605,30	1331,18
605,49	1335,28
605,68	1222,64
605,87	1271,79
606,07	1243,12
606,26	1204,21
606,45	1290,22
606,64	1288,17
606,84	1275,88
607,03	1282,03
607,22	1325,04
607,41	1290,22
607,60	1253,36
607,80	1245,16
607,99	1208,30
608,18	1273,84
608,37	1236,97
608,56	1249,26
608,76	1267,69
608,95	1224,69
609,14	1277,93
609,33	1294,32
609,52	1236,97
609,72	1279,98
609,91	1265,64
610,10	1224,69
610,29	1341,42
610,48	1322,99
610,68	1228,78
610,87	1267,69
611,06	1294,32
611,25	1271,79
611,44	1216,49
611,63	1206,25
611,83	1314,80
612,02	1175,53
612,21	1310,70
612,40	1314,80
612,59	1226,73
612,79	1265,64
612,98	1282,03
613,17	1320,94
613,36	1241,07
613,55	1177,58
613,74	1279,98
613,93	1179,63
614,13	1267,69
614,32	1245,16
614,51	1265,64
614,70	1288,17
614,89	1265,64
615,08	1226,73
615,28	1271,79
615,47	1273,84
615,66	1296,36
615,85	1255,40
616,04	1249,26
616,23	1322,99
616,42	1265,64
616,62	1318,89
616,81	1314,80
617,00	1222,64
617,19	1329,13
617,38	1204,21
617,57	1304,56
617,76	1230,83
617,95	1277,93
618,15	1257,45
618,34	1249,26
618,53	1230,83
618,72	1224,69
618,91	1243,12
619,10	1279,98
619,29	1296,36
619,48	1241,07
619,68	1224,69
619,87	1232,88
620,06	1255,40
620,25	1232,88
620,44	1212,40
620,63	1318,89
620,82	1333,23
621,01	1275,88
621,20	1239,02
621,39	1290,22
621,59	1308,65
621,78	1257,45
621,97	1279,98
622,16	1261,55
622,35	1279,98
622,54	1310,70
622,73	1304,56
622,92	1325,04
623,11	1277,93
623,30	1322,99
623,49	1269,74
623,68	1208,30
623,88	1355,76
624,07	1320,94
624,26	1253,36
624,45	1284,08
624,64	1249,26
624,83	1241,07
625,02	1279,98
625,21	1269,74
625,40	1269,74
625,59	1279,98
625,78	1294,32
625,97	1239,02
626,16	1368,04
626,35	1239,02
626,54	1282,03
626,74	1322,99
626,93	1288,17
627,12	1271,79
627,31	1224,69
627,50	1337,32
627,69	1306,60
627,88	1331,18
628,07	1353,71
628,26	1353,71
628,45	1290,22
628,64	1339,37
628,83	1267,69
629,02	1243,12
629,21	1292,27
629,40	1239,02
629,59	1355,76
629,78	1327,08
629,97	1312,75
630,16	1279,98
630,35	1290,22
630,54	1269,74
630,73	1310,70
630,92	1378,28
631,11	1284,08
631,30	1275,88
631,49	1325,04
631,68	1265,64
631,87	1382,38
632,06	1830,88
632,25	1464,30
632,44	1552,36
632,63	1476,59
632,82	1576,94
633,01	1818,60
633,20	1437,67
633,39	1871,84
633,58	2338,78
633,77	1484,78
633,96	1578,98
634,15	3055,57
634,34	7303,06
634,53	6959,00
634,72	5588,91
634,91	9600,88
635,10	16451,33
635,29	21157,57
635,48	20365,00
635,67	16760,58
635,86	12488,51
636,05	9052,02
636,24	6016,93
636,43	4100,03
636,62	2650,07
636,81	1865,70
637,00	1576,94
637,19	1515,50
637,38	1486,83
637,57	1433,58
637,76	1439,72
637,95	1419,24
638,14	1413,10
638,33	1304,56
638,52	1267,69
638,71	1236,97
638,89	1343,47
639,08	1343,47
639,27	1310,70
639,46	1341,42
639,65	1298,41
639,84	1251,31
640,03	1304,56
640,22	1314,80
640,41	1220,59
640,60	1296,36
640,79	1306,60
640,98	1310,70
641,17	1282,03
641,36	1300,46
641,55	1273,84
641,74	1245,16
641,92	1271,79
642,11	1310,70
642,30	1210,35
642,49	1265,64
642,68	1271,79
642,87	1261,55
643,06	1304,56
643,25	1277,93
643,44	1191,92
643,63	1325,04
643,82	1271,79
644,00	1228,78
644,19	1290,22
644,38	1255,40
644,57	1265,64
644,76	1263,60
644,95	1282,03
645,14	1230,83
645,33	1298,41
645,52	1271,79
645,71	1282,03
645,89	1228,78
646,08	1318,89
646,27	1335,28
646,46	1222,64
646,65	1220,59
646,84	1271,79
647,03	1232,88
647,22	1251,31
647,40	1261,55
647,59	1329,13
647,78	1290,22
647,97	1292,27
648,16	1224,69
648,35	1292,27
648,54	1232,88
648,73	1247,21
648,91	1290,22
649,10	1273,84
649,29	1265,64
649,48	1226,73
649,67	1271,79
649,86	1251,31
650,05	1275,88
650,23	1265,64
650,42	1234,93
650,61	1259,50
650,80	1224,69
650,99	1302,51
651,18	1249,26
651,36	1296,36
651,55	1220,59
651,74	1296,36
651,93	1255,40
652,12	1275,88
652,31	1198,06
652,49	1249,26
652,68	1255,40
652,87	1339,37
653,06	1259,50
653,25	1253,36
653,44	1257,45
653,62	1318,89
653,81	1312,75
654,00	1241,07
654,19	1263,60
654,38	1296,36
654,56	1316,84
654,75	1290,22
654,94	1284,08
655,13	1302,51
655,32	1284,08
655,51	1292,27
655,69	1267,69
655,88	1286,12
656,07	1245,16
656,26	1265,64
656,45	1263,60
656,63	1331,18
656,82	1247,21
657,01	1249,26
657,20	1222,64
657,38	1306,60
657,57	1339,37
657,76	1306,60
657,95	1316,84
658,14	1333,23
658,32	1271,79
658,51	1224,69
658,70	1277,93
658,89	1284,08
659,08	1331,18
659,26	1204,21
659,45	1286,12
659,64	1247,21
659,83	1259,50
660,01	1249,26
660,20	1265,64
660,39	1263,60
660,58	1222,64
660,76	1261,55
660,95	1279,98
661,14	1239,02
661,33	1167,34
661,51	1222,64
661,70	1249,26
661,89	1275,88
662,08	1220,59
662,26	1288,17
662,45	1243,12
662,64	1261,55
662,83	1294,32
663,01	1247,21
663,20	1286,12
663,39	1337,32
663,58	1300,46
663,76	1241,07
663,95	1298,41
664,14	1267,69
664,32	1243,12
664,51	1337,32
664,70	1331,18
664,89	1282,03
665,07	1306,60
665,26	1212,40
665,45	1206,25
665,64	1282,03
665,82	1255,40
666,01	1241,07
666,20	1292,27
666,38	1312,75
666,57	1220,59
666,76	1288,17
666,95	1239,02
667,13	1204,21
667,32	1284,08
667,51	1277,93
667,69	1292,27
667,88	1333,23
668,07	1212,40
668,25	1257,45
668,44	1361,90
668,63	1181,68
668,81	1212,40
669,00	1298,41
669,19	1282,03
669,38	1257,45
669,56	1335,28
669,75	1234,93
669,94	1261,55
670,12	1259,50
670,31	1228,78
670,50	1327,08
670,68	1228,78
670,87	1302,51
671,06	1255,40
671,24	1267,69
671,43	1243,12
671,62	1300,46
671,80	1234,93
671,99	1290,22
672,18	1263,60
672,36	1339,37
672,55	1204,21
672,74	1265,64
672,92	1286,12
673,11	1247,21
673,29	1245,16
673,48	1322,99
673,67	1255,40
673,85	1234,93
674,04	1257,45
674,23	1200,11
674,41	1218,54
674,60	1220,59
674,79	1335,28
674,97	1298,41
675,16	1259,50
675,34	1277,93
675,53	1279,98
675,72	1210,35
675,90	1232,88
676,09	1296,36
676,28	1259,50
676,46	1253,36
676,65	1306,60
676,83	1269,74
677,02	1220,59
677,21	1222,64
677,39	1282,03
677,58	1341,42
677,77	1255,40
677,95	1284,08
678,14	1265,64
678,32	1257,45
678,51	1230,83
678,70	1279,98
678,88	1222,64
679,07	1241,07
679,25	1208,30
679,44	1241,07
679,63	1282,03
679,81	1327,08
680,00	1249,26
680,18	1255,40
680,37	1175,53
680,55	1279,98
680,74	1284,08
680,93	1232,88
681,11	1243,12
681,30	1239,02
681,48	1290,22
681,67	1263,60
681,85	1263,60
682,04	1263,60
682,23	1259,50
682,41	1275,88
682,60	1228,78
682,78	1290,22
682,97	1259,50
683,15	1236,97
683,34	1304,56
683,53	1249,26
683,71	1277,93
683,90	1308,65
684,08	1329,13
684,27	1279,98
684,45	1265,64
684,64	1230,83
684,82	1277,93
685,01	1208,30
685,19	1353,71
685,38	1296,36
685,57	1329,13
685,75	1261,55
685,94	1257,45
686,12	1302,51
686,31	1267,69
686,49	1228,78
686,68	1269,74
686,86	1339,37
687,05	1296,36
687,23	1273,84
687,42	1247,21
687,60	1273,84
687,79	1333,23
687,97	1279,98
688,16	1316,84
688,34	1269,74
688,53	1298,41
688,71	1269,74
688,90	1279,98
689,08	1226,73
689,27	1282,03
689,45	1310,70
689,64	1265,64
689,82	1193,97
690,01	1216,49
690,19	1181,68
690,38	1320,94
690,56	1282,03
690,75	1314,80
690,93	1300,46
691,12	1294,32
691,30	1284,08
691,49	1189,87
691,67	1249,26
691,86	1241,07
692,04	1271,79
692,23	1288,17
692,41	1325,04
692,60	1255,40
692,78	1247,21
692,97	1310,70
693,15	1236,97
693,34	1306,60
693,52	1314,80
693,71	1267,69
693,89	1224,69
694,08	1325,04
694,26	1210,35
694,44	1300,46
694,63	1257,45
694,81	1298,41
695,00	1259,50
695,18	1267,69
695,37	1288,17
695,55	1292,27
695,74	1234,93
695,92	1263,60
696,10	1271,79
696,29	1257,45
696,47	1230,83
696,66	1247,21
696,84	1310,70
697,03	1288,17
697,21	1230,83
697,40	1275,88
697,58	1208,30
697,76	1353,71
697,95	1187,82
698,13	1314,80
698,32	1292,27
698,50	1239,02
698,68	1255,40
698,87	1261,55
699,05	1261,55
699,24	1255,40
699,42	1239,02
699,61	1322,99
699,79	1241,07
699,97	1298,41
700,16	1269,74
700,34	1277,93
700,53	1361,90
700,71	1331,18
700,89	1322,99
701,08	1312,75
701,26	1298,41
701,45	1241,07
701,63	1337,32
701,81	1253,36
702,00	1292,27
702,18	1296,36
702,37	1275,88
702,55	1259,50
702,73	1255,40
702,92	1286,12
703,10	1308,65
703,28	1271,79
703,47	1263,60
703,65	1282,03
703,84	1275,88
704,02	1144,81
704,20	1265,64
704,39	1239,02
704,57	1288,17
704,75	1257,45
704,94	1284,08
705,12	1322,99
705,30	1232,88
705,49	1269,74
705,67	1265,64
705,86	1259,50
706,04	1253,36
706,22	1253,36
706,41	1296,36
706,59	1224,69
706,77	1241,07
706,96	1282,03
707,14	1210,35
707,32	1265,64
707,51	1329,13
707,69	1259,50
707,87	1304,56
708,06	1300,46
708,24	1275,88
708,42	1257,45
708,61	1337,32
708,79	1308,65
708,97	1310,70
709,16	1265,64
709,34	1236,97
709,52	1253,36
709,71	1269,74
709,89	1208,30
710,07	1236,97
710,26	1204,21
710,44	1220,59
710,62	1304,56
710,80	1243,12
710,99	1273,84
711,17	1279,98
711,35	1224,69
711,54	1265,64
711,72	1236,97
711,90	1288,17
712,09	1249,26
712,27	1327,08
712,45	1359,85
712,63	1263,60
712,82	1267,69
713,00	1263,60
713,18	1220,59
713,37	1255,40
713,55	1308,65
713,73	1267,69
713,91	1316,84
714,10	1255,40
714,28	1216,49
714,46	1239,02
714,65	1271,79
714,83	1286,12
715,01	1261,55
715,19	1298,41
715,38	1257,45
715,56	1249,26
715,74	1200,11
715,92	1322,99
716,11	1296,36
716,29	1257,45
716,47	1277,93
716,65	1257,45
716,84	1277,93
717,02	1284,08
717,20	1206,25
717,38	1310,70
717,57	1277,93
717,75	1331,18
717,93	1257,45
718,11	1304,56
718,30	1312,75
718,48	1200,11
718,66	1302,51
718,84	1257,45
719,03	1296,36
719,21	1265,64
719,39	1263,60
719,57	1228,78
719,75	1333,23
719,94	1236,97
720,12	1298,41
720,30	1212,40
720,48	1214,45
720,67	1257,45
720,85	1212,40
721,03	1259,50
721,21	1312,75
721,39	1296,36
721,58	1236,97
721,76	1275,88
721,94	1269,74
722,12	1271,79
722,30	1239,02
722,49	1202,16
722,67	1279,98
722,85	1288,17
723,03	1191,92
723,21	1259,50
723,40	1290,22
723,58	1331,18
723,76	1273,84
723,94	1308,65
724,12	1286,12
724,30	1288,17
724,49	1286,12
724,67	1306,60
724,85	1312,75
725,03	1271,79
725,21	1304,56
725,40	1241,07
725,58	1261,55
725,76	1241,07
725,94	1271,79
726,12	1255,40
726,30	1292,27
726,49	1292,27
726,67	1269,74
726,85	1273,84
727,03	1171,44
727,21	1230,83
727,39	1351,66
727,57	1206,25
727,76	1300,46
727,94	1251,31
728,12	1234,93
728,30	1284,08
728,48	1204,21
728,66	1263,60
728,84	1181,68
729,03	1312,75
729,21	1241,07
729,39	1218,54
729,57	1263,60
729,75	1212,40
729,93	1363,95
730,11	1267,69
730,30	1255,40
730,48	1245,16
730,66	1282,03
730,84	1286,12
731,02	1265,64
731,20	1271,79
731,38	1236,97
731,56	1265,64
731,74	1269,74
731,93	1273,84
732,11	1255,40
732,29	1261,55
732,47	1286,12
732,65	1286,12
732,83	1247,21
733,01	1251,31
733,19	1298,41
733,37	1275,88
733,56	1259,50
733,74	1253,36
733,92	1273,84
734,10	1159,15
734,28	1243,12
734,46	1247,21
734,64	1288,17
734,82	1298,41
735,00	1210,35
735,18	1312,75
735,36	1296,36
735,54	1282,03
735,73	1214,45
735,91	1230,83
736,09	1204,21
736,27	1239,02
736,45	1257,45
736,63	1259,50
736,81	1290,22
736,99	1277,93
737,17	1310,70
737,35	1327,08
737,53	1234,93
737,71	1257,45
737,89	1310,70
738,07	1200,11
738,25	1310,70
738,43	1292,27
738,61	1263,60
738,80	1304,56
738,98	1253,36
739,16	1320,94
739,34	1245,16
739,52	1216,49
739,70	1208,30
739,88	1312,75
740,06	1312,75
740,24	1255,40
740,42	1290,22
740,60	1232,88
740,78	1273,84
740,96	1200,11
741,14	1320,94
741,32	1292,27
741,50	1271,79
741,68	1310,70
741,86	1167,34
742,04	1212,40
742,22	1277,93
742,40	1263,60
742,58	1308,65
742,76	1300,46
742,94	1226,73
743,12	1247,21
743,30	1253,36
743,48	1288,17
743,66	1298,41
743,84	1196,01
744,02	1294,32
744,20	1327,08
744,38	1327,08
744,56	1206,25
744,74	1261,55
744,92	1232,88
745,10	1290,22
745,28	1333,23
745,46	1304,56
745,64	1259,50
745,82	1275,88
746,00	1331,18
746,18	1304,56
746,36	1292,27
746,54	1257,45
746,72	1230,83
746,90	1255,40
747,08	1259,50
747,26	1224,69
747,44	1212,40
747,62	1251,31
747,80	1259,50
747,98	1347,56
748,15	1265,64
748,33	1253,36
748,51	1279,98
748,69	1292,27
748,87	1222,64
749,05	1253,36
749,23	1273,84
749,41	1277,93
749,59	1247,21
749,77	1234,93
749,95	1345,52
750,13	1247,21
750,31	1267,69
750,49	1222,64
750,67	1316,84
750,85	1288,17
751,03	1288,17
751,20	1232,88
751,38	1249,26
751,56	1220,59
751,74	1224,69
751,92	1202,16
752,10	1230,83
752,28	1298,41
752,46	1277,93
752,64	1204,21
752,82	1239,02
753,00	1177,58
753,18	1224,69
753,35	1224,69
753,53	1288,17
753,71	1279,98
753,89	1271,79
754,07	1228,78
754,25	1275,88
754,43	1312,75
754,61	1169,39
754,79	1241,07
754,97	1353,71
755,14	1288,17
755,32	1306,60
755,50	1292,27
755,68	1284,08
755,86	1263,60
756,04	1198,06
756,22	1277,93
756,40	1296,36
756,57	1288,17
756,75	1300,46
756,93	1232,88
757,11	1259,50
757,29	1325,04
757,47	1298,41
757,65	1361,90
757,82	1271,79
758,00	1179,63
758,18	1333,23
758,36	1206,25
758,54	1204,21
758,72	1232,88
758,90	1294,32
759,07	1239,02
759,25	1279,98
759,43	1263,60
759,61	1247,21
759,79	1288,17
759,97	1300,46
760,15	1243,12
760,32	1251,31
760,50	1292,27
760,68	1341,42
760,86	1236,97
761,04	1267,69
761,22	1308,65
761,39	1255,40
761,57	1312,75
761,75	1226,73
761,93	1290,22
762,11	1296,36
762,28	1282,03
762,46	1263,60
762,64	1290,22
762,82	1245,16
763,00	1304,56
763,18	1253,36
763,35	1208,30
763,53	1290,22
763,71	1247,21
763,89	1245,16
764,07	1253,36
764,24	1249,26
764,42	1247,21
764,60	1302,51
764,78	1279,98
764,96	1290,22
765,13	1277,93
765,31	1294,32
765,49	1243,12
765,67	1265,64
765,84	1277,93
766,02	1271,79
766,20	1265,64
766,38	1279,98
766,56	1310,70
766,73	1241,07
766,91	1286,12
767,09	1232,88
767,27	1279,98
767,44	1206,25
767,62	1290,22
767,80	1271,79
767,98	1198,06
768,15	1220,59
768,33	1210,35
768,51	1226,73
768,69	1282,03
768,87	1331,18
769,04	1269,74
769,22	1218,54
769,40	1253,36
769,58	1216,49
769,75	1245,16
769,93	1304,56
770,11	1234,93
770,28	1224,69
770,46	1202,16
770,64	1239,02
770,82	1200,11
770,99	1259,50
771,17	1243,12
771,35	1296,36
771,53	1224,69
771,70	1255,40
771,88	1331,18
772,06	1241,07
772,23	1230,83
772,41	1282,03
772,59	1314,80
772,77	1304,56
772,94	1216,49
773,12	1253,36
773,30	1271,79
773,47	1273,84
773,65	1302,51
773,83	1218,54
774,01	1230,83
774,18	1222,64
774,36	1300,46
774,54	1243,12
774,71	1306,60
774,89	1372,14
775,07	1269,74
775,24	1243,12
775,42	1279,98
775,60	1253,36
775,78	1216,49
775,95	1204,21
776,13	1257,45
776,31	1257,45
776,48	1257,45
776,66	1241,07
776,84	1243,12
777,01	1320,94
777,19	1347,56
777,37	1259,50
777,54	1316,84
777,72	1275,88
777,90	1294,32
778,07	1267,69
778,25	1286,12
778,43	1257,45
778,60	1282,03
778,78	1279,98
778,96	1177,58
779,13	1218,54
779,31	1234,93
779,49	1200,11
779,66	1282,03
779,84	1325,04
780,01	1243,12
780,19	1265,64
780,37	1239,02
780,54	1267,69
780,72	1282,03
780,90	1222,64
781,07	1331,18
781,25	1306,60
781,43	1234,93
781,60	1249,26
781,78	1261,55
781,95	1206,25
782,13	1302,51
782,31	1271,79
782,48	1241,07
782,66	1269,74
782,83	1302,51
783,01	1273,84
783,19	1316,84
783,36	1208,30
783,54	1279,98
783,72	1296,36
783,89	1212,40
784,07	1226,73
784,24	1226,73
784,42	1306,60
784,60	1249,26
784,77	1259,50
784,95	1275,88
785,12	1314,80
785,30	1257,45
785,47	1198,06
785,65	1277,93
785,83	1269,74
786,00	1155,05
786,18	1343,47
786,35	1220,59
786,53	1273,84
786,71	1261,55
786,88	1216,49
787,06	1316,84
787,23	1216,49
787,41	1314,80
787,58	1226,73
787,76	1265,64
787,94	1249,26
788,11	1275,88
788,29	1265,64
788,46	1218,54
788,64	1304,56
788,81	1296,36
788,99	1273,84
789,16	1271,79
789,34	1263,60
789,52	1187,82
789,69	1302,51
789,87	1236,97
790,04	1263,60
790,22	1198,06
790,39	1333,23
790,57	1224,69
790,74	1253,36
790,92	1271,79
791,09	1279,98
791,27	1265,64
791,44	1290,22
791,62	1298,41
791,79	1255,40
791,97	1247,21
792,15	1304,56
792,32	1249,26
792,50	1232,88
792,67	1279,98
792,85	1286,12
793,02	1228,78
793,20	1189,87
793,37	1288,17
793,55	1296,36
793,72	1245,16
793,90	1265,64
794,07	1249,26
794,25	1306,60
794,42	1261,55
794,60	1222,64
794,77	1279,98
794,95	1277,93
795,12	1230,83
795,30	1345,52
795,47	1271,79
795,65	1310,70
795,82	1255,40
796,00	1239,02
796,17	1206,25
796,34	1208,30
796,52	1312,75
796,69	1296,36
796,87	1306,60
797,04	1236,97
797,22	1347,56
797,39	1253,36
797,57	1273,84
797,74	1259,50
797,92	1232,88
798,09	1239,02
798,27	1187,82
798,44	1304,56
798,62	1230,83
798,79	1275,88
798,96	1325,04
799,14	1265,64
799,31	1310,70
799,49	1263,60
799,66	1279,98
799,84	1251,31
800,01	1271,79
800,19	1265,64
800,36	1267,69
800,53	1239,02
800,71	1298,41
800,88	1271,79
801,06	1310,70
801,23	1279,98
801,41	1267,69
801,58	1294,32
801,75	1257,45
801,93	1245,16
802,10	1302,51
802,28	1251,31
802,45	1265,64
802,63	1216,49
802,80	1251,31
802,97	1277,93
803,15	1247,21
803,32	1247,21
803,50	1239,02
803,67	1265,64
803,84	1224,69
804,02	1300,46
804,19	1200,11
804,37	1241,07
804,54	1232,88
804,71	1232,88
804,89	1310,70
805,06	1292,27
805,24	1300,46
805,41	1325,04
805,58	1282,03
805,76	1234,93
805,93	1126,38
806,10	1255,40
806,28	1249,26
806,45	1277,93
806,63	1239,02
806,80	1271,79
806,97	1300,46
807,15	1216,49
807,32	1312,75
807,49	1241,07
807,67	1241,07
807,84	1271,79
808,01	1236,97
808,19	1298,41
808,36	1335,28
808,54	1282,03
808,71	1277,93
808,88	1269,74
809,06	1282,03
809,23	1304,56
809,40	1325,04
809,58	1241,07
809,75	1239,02
809,92	1273,84
810,10	1312,75
810,27	1218,54
810,44	1296,36
810,62	1253,36
810,79	1263,60
810,96	1230,83
811,14	1261,55
811,31	1286,12
811,48	1314,80
811,66	1241,07
811,83	1271,79
812,00	1257,45
812,18	1308,65
812,35	1247,21
812,52	1306,60
812,69	1290,22
812,87	1173,49
813,04	1271,79
813,21	1310,70
813,39	1290,22
813,56	1253,36
813,73	1327,08
813,91	1181,68
814,08	1290,22
814,25	1189,87
814,42	1282,03
814,60	1196,01
814,77	1269,74
814,94	1263,60
815,12	1296,36
815,29	1329,13
815,46	1314,80
815,63	1185,77
815,81	1290,22
815,98	1241,07
816,15	1329,13
816,33	1304,56
816,50	1273,84
816,67	1273,84
816,84	1290,22
817,02	1249,26
817,19	1273,84
817,36	1257,45
817,53	1279,98
817,71	1243,12
817,88	1329,13
818,05	1269,74
818,22	1230,83
818,40	1206,25
818,57	1247,21
818,74	1286,12
818,91	1275,88
819,09	1263,60
819,26	1255,40
819,43	1232,88
819,60	1257,45
819,78	1322,99
819,95	1173,49
820,12	1257,45
820,29	1241,07
820,47	1259,50
820,64	1310,70
820,81	1322,99
820,98	1347,56
821,15	1259,50
821,33	1359,85
821,50	1298,41
821,67	1300,46
821,84	1259,50
822,02	1267,69
822,19	1239,02
822,36	1314,80
822,53	1292,27
822,70	1249,26
822,88	1271,79
823,05	1271,79
823,22	1308,65
823,39	1257,45
823,56	1284,08
823,74	1333,23
823,91	1286,12
824,08	1239,02
824,25	1212,40
824,42	1269,74
824,60	1325,04
824,77	1296,36
824,94	1245,16
825,11	1247,21
825,28	1226,73
825,45	1312,75
825,63	1204,21
825,80	1282,03
825,97	1265,64
826,14	1234,93
826,31	1253,36
826,48	1265,64
826,66	1265,64
826,83	1263,60
827,00	1243,12
827,17	1222,64
827,34	1290,22
827,51	1263,60
827,69	1249,26
827,86	1198,06
828,03	1255,40
828,20	1318,89
828,37	1269,74
828,54	1247,21
828,71	1253,36
828,89	1257,45
829,06	1279,98
829,23	1290,22
829,40	1226,73
829,57	1282,03
829,74	1288,17
829,91	1290,22
830,09	1230,83
830,26	1247,21
830,43	1255,40
830,60	1282,03
830,77	1286,12
830,94	1263,60
831,11	1208,30
831,28	1212,40
831,46	1306,60
831,63	1183,73
831,80	1257,45
831,97	1234,93
832,14	1273,84
832,31	1208,30
832,48	1296,36
832,65	1279,98
832,82	1253,36
832,99	1251,31
833,17	1224,69
833,34	1249,26
833,51	1275,88
833,68	1179,63
833,85	1243,12
834,02	1247,21
834,19	1196,01
834,36	1296,36
834,53	1228,78
834,70	1286,12
834,87	1241,07
835,04	1136,62
835,22	1247,21
835,39	1310,70
835,56	1267,69
835,73	1241,07
835,90	1267,69
836,07	1249,26
836,24	1279,98
836,41	1273,84
836,58	1314,80
836,75	1271,79
836,92	1279,98
837,09	1269,74
837,26	1183,73
837,43	1224,69
837,60	1277,93
837,77	1261,55
837,94	1210,35
838,12	1271,79
838,29	1226,73
838,46	1232,88
838,63	1257,45
838,80	1257,45
838,97	1290,22
839,14	1255,40
839,31	1265,64
839,48	1275,88
839,65	1265,64
839,82	1284,08
839,99	1294,32
840,16	1294,32
840,33	1296,36
840,50	1314,80
840,67	1302,51
840,84	1255,40
841,01	1273,84
841,18	1261,55
841,35	1292,27
841,52	1220,59
841,69	1269,74
841,86	1279,98
842,03	1290,22
842,20	1279,98
842,37	1279,98
842,54	1284,08
842,71	1253,36
842,88	1273,84
843,05	1206,25
843,22	1247,21
843,39	1322,99
843,56	1349,61
843,73	1245,16
843,90	1273,84
844,07	1269,74
844,24	1316,84
844,41	1288,17
844,58	1286,12
844,75	1212,40
844,92	1273,84
845,09	1265,64
845,26	1220,59
845,43	1349,61
845,60	1214,45
845,77	1294,32
845,94	1279,98
846,10	1261,55
846,27	1277,93
846,44	1273,84
846,61	1294,32
846,78	1263,60
846,95	1282,03
847,12	1212,40
847,29	1341,42
847,46	1253,36
847,63	1224,69
847,80	1261,55
847,97	1277,93
848,14	1329,13
848,31	1279,98
848,48	1257,45
848,65	1228,78
848,82	1245,16
848,98	1271,79
849,15	1236,97
849,32	1214,45
849,49	1322,99
849,66	1259,50
849,83	1302,51
850,00	1284,08
850,17	1298,41
850,34	1236,97
850,51	1243,12
850,68	1288,17
850,85	1257,45
851,01	1316,84
851,18	1263,60
851,35	1292,27
851,52	1202,16
851,69	1247,21
851,86	1279,98
852,03	1310,70
852,20	1259,50
852,37	1298,41
852,53	1286,12
852,70	1259,50
852,87	1294,32
853,04	1267,69
853,21	1282,03
853,38	1210,35
853,55	1251,31
853,72	1214,45
853,89	1271,79
854,05	1279,98
854,22	1257,45
854,39	1259,50
854,56	1263,60
854,73	1265,64
854,90	1257,45
855,07	1220,59
855,23	1275,88
855,40	1282,03
855,57	1292,27
855,74	1273,84
855,91	1357,80
856,08	1171,44
856,25	1247,21
856,41	1263,60
856,58	1282,03
856,75	1259,50
856,92	1304,56
857,09	1265,64
857,26	1202,16
857,42	1318,89
857,59	1265,64
857,76	1296,36
857,93	1247,21
858,10	1249,26
858,27	1296,36
858,43	1241,07
858,60	1286,12
858,77	1232,88
858,94	1175,53
859,11	1292,27
859,27	1292,27
859,44	1279,98
859,61	1265,64
859,78	1273,84
859,95	1288,17
860,12	1234,93
860,28	1282,03
860,45	1275,88
860,62	1247,21
860,79	1290,22
860,95	1294,32
861,12	1288,17
861,29	1296,36
861,46	1222,64
861,63	1265,64
861,79	1241,07
861,96	1228,78
862,13	1284,08
862,30	1236,97
862,47	1277,93
862,63	1239,02
862,80	1234,93
862,97	1339,37
863,14	1236,97
863,30	1191,92
863,47	1222,64
863,64	1275,88
863,81	1292,27
863,97	1232,88
864,14	1232,88
864,31	1277,93
864,48	1353,71
864,65	1263,60
864,81	1339,37
864,98	1230,83
865,15	1388,52
865,32	1308,65
865,48	1308,65
865,65	1337,32
865,82	1277,93
865,98	1284,08
866,15	1257,45
866,32	1277,93
866,49	1249,26
866,65	1273,84
866,82	1271,79
866,99	1267,69
867,16	1343,47
867,32	1185,77
867,49	1247,21
867,66	1277,93
867,83	1253,36
867,99	1304,56
868,16	1306,60
868,33	1302,51
868,49	1327,08
868,66	1251,31
868,83	1261,55
868,99	1253,36
869,16	1329,13
869,33	1322,99
869,50	1314,80
869,66	1277,93
869,83	1267,69
870,00	1320,94
870,16	1253,36
870,33	1273,84
870,50	1288,17
870,66	1206,25
870,83	1255,40
871,00	1288,17
871,17	1265,64
871,33	1222,64
871,50	1286,12
871,67	1271,79
871,83	1306,60
872,00	1214,45
872,17	1284,08
872,33	1284,08
872,50	1236,97
872,67	1251,31
872,83	1277,93
873,00	1198,06
873,17	1284,08
873,33	1282,03
873,50	1271,79
873,67	1220,59
873,83	1232,88
874,00	1355,76
874,16	1198,06
874,33	1255,40
874,50	1261,55
874,66	1193,97
874,83	1269,74
875,00	1249,26
875,16	1245,16
875,33	1275,88
875,50	1277,93
875,66	1304,56
875,83	1279,98
875,99	1245,16
876,16	1202,16
876,33	1267,69
876,49	1265,64
876,66	1261,55
876,83	1269,74
876,99	1265,64
877,16	1279,98
877,32	1144,81
877,49	1302,51
877,66	1245,16
877,82	1298,41
877,99	1298,41
878,15	1249,26
878,32	1212,40
878,49	1296,36
878,65	1294,32
878,82	1339,37
878,98	1322,99
879,15	1257,45
879,32	1275,88
879,48	1265,64
879,65	1257,45
879,81	1265,64
879,98	1232,88
880,15	1265,64
880,31	1337,32
880,48	1269,74
880,64	1275,88
880,81	1261,55
880,97	1265,64
881,14	1265,64
881,31	1189,87
881,47	1271,79
881,64	1302,51
881,80	1255,40
881,97	1277,93
882,13	1306,60
882,30	1239,02
882,47	1267,69
882,63	1300,46
882,80	1257,45
882,96	1306,60
883,13	1265,64
883,29	1308,65
883,46	1193,97
883,62	1335,28
883,79	1234,93
883,95	1236,97
884,12	1239,02
884,29	1249,26
884,45	1296,36
884,62	1261,55
884,78	1296,36
884,95	1327,08
885,11	1322,99
885,28	1359,85
885,44	1228,78
885,61	1306,60
885,77	1277,93
885,94	1316,84
886,10	1230,83
886,27	1228,78
886,43	1247,21
886,60	1249,26
886,76	1169,39
886,93	1290,22
887,09	1339,37
887,26	1265,64
887,42	1232,88
887,59	1308,65
887,75	1236,97
887,92	1290,22
888,08	1216,49
888,25	1290,22
888,41	1300,46
888,58	1261,55
888,74	1292,27
888,91	1212,40
>>>>>End Processed Spectral Data<<<<<
