SpectraSuite Data File
++++++++++++++++++++++++++++++++++++
Date: Sun Apr 03 19:05:04 CEST 2016
User: root
Dark Spectrum Present: No
Reference Spectrum Present: No
Number of Sampled Component Spectra: 1
Spectrometers: USB4C02835
Integration Time (usec): 10000 (USB4C02835)
Spectra Averaged: 1 (USB4C02835)
Boxcar Smoothing: 0 (USB4C02835)
Correct for Electrical Dark: No (USB4C02835)
Strobe/Lamp Enabled: No (USB4C02835)
Correct for Detector Non-linearity: No (USB4C02835)
Correct for Stray Light: No (USB4C02835)
Number of Pixels in Processed Spectrum: 3648
>>>>>Begin Processed Spectral Data<<<<<
177,47	1247,21
177,69	1247,21
177,91	1247,21
178,13	1236,97
178,36	1224,69
178,58	1279,98
178,80	1312,75
179,02	1220,59
179,24	1253,36
179,46	1206,25
179,68	1271,79
179,90	1290,22
180,13	1241,07
180,35	1245,16
180,57	1286,12
180,79	1245,16
181,01	1245,16
181,23	1312,75
181,45	1271,79
181,67	1269,74
181,90	1257,45
182,12	1255,40
182,34	1241,07
182,56	1214,45
182,78	1239,02
183,00	1249,26
183,22	1236,97
183,44	1239,02
183,66	1292,27
183,89	1236,97
184,11	1273,84
184,33	1327,08
184,55	1263,60
184,77	1333,23
184,99	1333,23
185,21	1245,16
185,43	1320,94
185,65	1241,07
185,87	1239,02
186,10	1261,55
186,32	1257,45
186,54	1251,31
186,76	1273,84
186,98	1275,88
187,20	1255,40
187,42	1271,79
187,64	1318,89
187,86	1292,27
188,08	1304,56
188,30	1288,17
188,52	1226,73
188,75	1318,89
188,97	1196,01
189,19	1187,82
189,41	1181,68
189,63	1241,07
189,85	1230,83
190,07	1261,55
190,29	1247,21
190,51	1226,73
190,73	1333,23
190,95	1327,08
191,17	1279,98
191,39	1263,60
191,61	1255,40
191,84	1193,97
192,06	1292,27
192,28	1312,75
192,50	1296,36
192,72	1331,18
192,94	1269,74
193,16	1167,34
193,38	1257,45
193,60	1249,26
193,82	1236,97
194,04	1204,21
194,26	1253,36
194,48	1169,39
194,70	1241,07
194,92	1325,04
195,14	1306,60
195,36	1226,73
195,58	1314,80
195,80	1265,64
196,02	1277,93
196,24	1253,36
196,46	1327,08
196,69	1251,31
196,91	1249,26
197,13	1245,16
197,35	1198,06
197,57	1353,71
197,79	1308,65
198,01	1304,56
198,23	1265,64
198,45	1320,94
198,67	1247,21
198,89	1298,41
199,11	1243,12
199,33	1304,56
199,55	1239,02
199,77	1204,21
199,99	1245,16
200,21	1261,55
200,43	1247,21
200,65	1185,77
200,87	1193,97
201,09	1282,03
201,31	1300,46
201,53	1277,93
201,75	1222,64
201,97	1241,07
202,19	1308,65
202,41	1314,80
202,63	1202,16
202,85	1269,74
203,07	1314,80
203,29	1282,03
203,51	1208,30
203,73	1275,88
203,95	1263,60
204,17	1253,36
204,39	1282,03
204,61	1212,40
204,83	1236,97
205,05	1212,40
205,27	1257,45
205,49	1269,74
205,71	1273,84
205,93	1226,73
206,15	1296,36
206,37	1243,12
206,59	1269,74
206,81	1288,17
207,03	1273,84
207,25	1204,21
207,47	1239,02
207,69	1196,01
207,91	1230,83
208,13	1277,93
208,34	1314,80
208,56	1220,59
208,78	1241,07
209,00	1193,97
209,22	1232,88
209,44	1251,31
209,66	1286,12
209,88	1220,59
210,10	1345,52
210,32	1273,84
210,54	1257,45
210,76	1255,40
210,98	1257,45
211,20	1239,02
211,42	1181,68
211,64	1241,07
211,86	1243,12
212,08	1318,89
212,30	1284,08
212,52	1275,88
212,74	1255,40
212,96	1191,92
213,17	1312,75
213,39	1320,94
213,61	1316,84
213,83	1277,93
214,05	1193,97
214,27	1298,41
214,49	1306,60
214,71	1251,31
214,93	1189,87
215,15	1292,27
215,37	1351,66
215,59	1234,93
215,81	1202,16
216,03	1263,60
216,24	1290,22
216,46	1265,64
216,68	1257,45
216,90	1310,70
217,12	1327,08
217,34	1257,45
217,56	1322,99
217,78	1249,26
218,00	1300,46
218,22	1269,74
218,44	1257,45
218,66	1230,83
218,87	1279,98
219,09	1263,60
219,31	1284,08
219,53	1296,36
219,75	1306,60
219,97	1204,21
220,19	1329,13
220,41	1257,45
220,63	1322,99
220,85	1310,70
221,06	1282,03
221,28	1232,88
221,50	1259,50
221,72	1212,40
221,94	1230,83
222,16	1239,02
222,38	1357,80
222,60	1271,79
222,82	1220,59
223,03	1290,22
223,25	1263,60
223,47	1214,45
223,69	1337,32
223,91	1335,28
224,13	1218,54
224,35	1241,07
224,57	1277,93
224,78	1210,35
225,00	1314,80
225,22	1269,74
225,44	1279,98
225,66	1245,16
225,88	1230,83
226,10	1275,88
226,32	1345,52
226,53	1253,36
226,75	1220,59
226,97	1304,56
227,19	1232,88
227,41	1257,45
227,63	1282,03
227,85	1255,40
228,06	1279,98
228,28	1249,26
228,50	1267,69
228,72	1181,68
228,94	1298,41
229,16	1259,50
229,37	1196,01
229,59	1253,36
229,81	1296,36
230,03	1310,70
230,25	1214,45
230,47	1288,17
230,69	1232,88
230,90	1255,40
231,12	1263,60
231,34	1304,56
231,56	1290,22
231,78	1181,68
232,00	1265,64
232,21	1282,03
232,43	1322,99
232,65	1304,56
232,87	1273,84
233,09	1253,36
233,30	1273,84
233,52	1286,12
233,74	1214,45
233,96	1269,74
234,18	1271,79
234,40	1232,88
234,61	1247,21
234,83	1310,70
235,05	1273,84
235,27	1218,54
235,49	1314,80
235,70	1230,83
235,92	1261,55
236,14	1279,98
236,36	1263,60
236,58	1222,64
236,79	1189,87
237,01	1224,69
237,23	1261,55
237,45	1275,88
237,67	1247,21
237,88	1239,02
238,10	1306,60
238,32	1294,32
238,54	1222,64
238,76	1282,03
238,97	1257,45
239,19	1288,17
239,41	1284,08
239,63	1279,98
239,85	1275,88
240,06	1306,60
240,28	1329,13
240,50	1298,41
240,72	1271,79
240,93	1251,31
241,15	1267,69
241,37	1314,80
241,59	1224,69
241,81	1312,75
242,02	1269,74
242,24	1232,88
242,46	1306,60
242,68	1310,70
242,89	1351,66
243,11	1259,50
243,33	1308,65
243,55	1269,74
243,76	1331,18
243,98	1245,16
244,20	1226,73
244,42	1304,56
244,64	1239,02
244,85	1234,93
245,07	1282,03
245,29	1275,88
245,51	1267,69
245,72	1220,59
245,94	1208,30
246,16	1269,74
246,38	1241,07
246,59	1210,35
246,81	1282,03
247,03	1247,21
247,24	1292,27
247,46	1282,03
247,68	1286,12
247,90	1277,93
248,11	1255,40
248,33	1306,60
248,55	1286,12
248,77	1204,21
248,98	1255,40
249,20	1282,03
249,42	1236,97
249,64	1222,64
249,85	1288,17
250,07	1257,45
250,29	1261,55
250,50	1204,21
250,72	1271,79
250,94	1249,26
251,16	1257,45
251,37	1273,84
251,59	1325,04
251,81	1296,36
252,02	1290,22
252,24	1308,65
252,46	1249,26
252,68	1253,36
252,89	1300,46
253,11	1263,60
253,33	1269,74
253,54	1327,08
253,76	1230,83
253,98	1253,36
254,20	1312,75
254,41	1251,31
254,63	1261,55
254,85	1247,21
255,06	1239,02
255,28	1245,16
255,50	1198,06
255,71	1275,88
255,93	1277,93
256,15	1273,84
256,36	1261,55
256,58	1263,60
256,80	1304,56
257,02	1239,02
257,23	1261,55
257,45	1261,55
257,67	1310,70
257,88	1292,27
258,10	1279,98
258,32	1241,07
258,53	1216,49
258,75	1310,70
258,97	1243,12
259,18	1257,45
259,40	1239,02
259,62	1261,55
259,83	1241,07
260,05	1228,78
260,27	1273,84
260,48	1296,36
260,70	1249,26
260,92	1294,32
261,13	1226,73
261,35	1282,03
261,57	1202,16
261,78	1288,17
262,00	1218,54
262,22	1253,36
262,43	1298,41
262,65	1222,64
262,86	1320,94
263,08	1294,32
263,30	1298,41
263,51	1327,08
263,73	1245,16
263,95	1257,45
264,16	1241,07
264,38	1232,88
264,60	1343,47
264,81	1292,27
265,03	1298,41
265,25	1333,23
265,46	1286,12
265,68	1286,12
265,89	1273,84
266,11	1290,22
266,33	1263,60
266,54	1269,74
266,76	1273,84
266,98	1273,84
267,19	1257,45
267,41	1271,79
267,62	1253,36
267,84	1245,16
268,06	1257,45
268,27	1306,60
268,49	1224,69
268,70	1353,71
268,92	1249,26
269,14	1236,97
269,35	1257,45
269,57	1261,55
269,79	1257,45
270,00	1257,45
270,22	1312,75
270,43	1251,31
270,65	1257,45
270,87	1316,84
271,08	1288,17
271,30	1269,74
271,51	1279,98
271,73	1259,50
271,95	1359,85
272,16	1214,45
272,38	1255,40
272,59	1292,27
272,81	1204,21
273,02	1245,16
273,24	1234,93
273,46	1245,16
273,67	1282,03
273,89	1245,16
274,10	1286,12
274,32	1288,17
274,54	1318,89
274,75	1288,17
274,97	1316,84
275,18	1290,22
275,40	1261,55
275,61	1220,59
275,83	1380,33
276,05	1298,41
276,26	1290,22
276,48	1196,01
276,69	1337,32
276,91	1279,98
277,12	1251,31
277,34	1251,31
277,55	1265,64
277,77	1245,16
277,99	1292,27
278,20	1269,74
278,42	1243,12
278,63	1204,21
278,85	1253,36
279,06	1320,94
279,28	1241,07
279,49	1216,49
279,71	1204,21
279,93	1337,32
280,14	1339,37
280,36	1257,45
280,57	1259,50
280,79	1257,45
281,00	1222,64
281,22	1282,03
281,43	1218,54
281,65	1191,92
281,86	1267,69
282,08	1288,17
282,29	1271,79
282,51	1210,35
282,73	1277,93
282,94	1191,92
283,16	1196,01
283,37	1318,89
283,59	1286,12
283,80	1251,31
284,02	1255,40
284,23	1273,84
284,45	1261,55
284,66	1212,40
284,88	1259,50
285,09	1318,89
285,31	1292,27
285,52	1279,98
285,74	1282,03
285,95	1279,98
286,17	1259,50
286,38	1241,07
286,60	1226,73
286,81	1286,12
287,03	1290,22
287,24	1290,22
287,46	1204,21
287,67	1290,22
287,89	1253,36
288,10	1249,26
288,32	1288,17
288,53	1372,14
288,75	1202,16
288,96	1290,22
289,18	1290,22
289,39	1243,12
289,61	1277,93
289,82	1243,12
290,04	1300,46
290,25	1200,11
290,47	1314,80
290,68	1249,26
290,90	1259,50
291,11	1222,64
291,33	1261,55
291,54	1249,26
291,76	1265,64
291,97	1210,35
292,18	1302,51
292,40	1241,07
292,61	1331,18
292,83	1267,69
293,04	1277,93
293,26	1245,16
293,47	1273,84
293,69	1269,74
293,90	1138,67
294,12	1230,83
294,33	1320,94
294,55	1232,88
294,76	1214,45
294,97	1333,23
295,19	1216,49
295,40	1282,03
295,62	1363,95
295,83	1271,79
296,05	1208,30
296,26	1216,49
296,48	1304,56
296,69	1271,79
296,90	1239,02
297,12	1279,98
297,33	1347,56
297,55	1275,88
297,76	1273,84
297,98	1239,02
298,19	1296,36
298,41	1251,31
298,62	1226,73
298,83	1335,28
299,05	1249,26
299,26	1249,26
299,48	1269,74
299,69	1361,90
299,90	1189,87
300,12	1247,21
300,33	1298,41
300,55	1277,93
300,76	1290,22
300,98	1288,17
301,19	1269,74
301,40	1257,45
301,62	1228,78
301,83	1228,78
302,05	1282,03
302,26	1279,98
302,47	1245,16
302,69	1298,41
302,90	1232,88
303,12	1261,55
303,33	1300,46
303,54	1257,45
303,76	1220,59
303,97	1271,79
304,19	1322,99
304,40	1263,60
304,61	1253,36
304,83	1226,73
305,04	1228,78
305,26	1286,12
305,47	1228,78
305,68	1320,94
305,90	1335,28
306,11	1271,79
306,33	1187,82
306,54	1261,55
306,75	1339,37
306,97	1249,26
307,18	1286,12
307,39	1337,32
307,61	1343,47
307,82	1257,45
308,04	1290,22
308,25	1181,68
308,46	1277,93
308,68	1236,97
308,89	1247,21
309,10	1267,69
309,32	1241,07
309,53	1271,79
309,74	1232,88
309,96	1265,64
310,17	1290,22
310,39	1277,93
310,60	1228,78
310,81	1284,08
311,03	1200,11
311,24	1335,28
311,45	1155,05
311,67	1288,17
311,88	1277,93
312,09	1222,64
312,31	1304,56
312,52	1261,55
312,73	1351,66
312,95	1241,07
313,16	1257,45
313,37	1230,83
313,59	1263,60
313,80	1261,55
314,01	1239,02
314,23	1265,64
314,44	1318,89
314,65	1267,69
314,87	1296,36
315,08	1198,06
315,29	1257,45
315,51	1236,97
315,72	1259,50
315,93	1253,36
316,15	1228,78
316,36	1316,84
316,57	1210,35
316,79	1257,45
317,00	1277,93
317,21	1343,47
317,43	1234,93
317,64	1341,42
317,85	1322,99
318,07	1228,78
318,28	1286,12
318,49	1277,93
318,70	1290,22
318,92	1236,97
319,13	1216,49
319,34	1230,83
319,56	1306,60
319,77	1241,07
319,98	1255,40
320,20	1224,69
320,41	1265,64
320,62	1269,74
320,83	1253,36
321,05	1296,36
321,26	1290,22
321,47	1142,77
321,69	1157,10
321,90	1226,73
322,11	1253,36
322,32	1198,06
322,54	1267,69
322,75	1279,98
322,96	1279,98
323,18	1200,11
323,39	1298,41
323,60	1210,35
323,81	1267,69
324,03	1247,21
324,24	1345,52
324,45	1239,02
324,66	1183,73
324,88	1288,17
325,09	1236,97
325,30	1267,69
325,52	1363,95
325,73	1210,35
325,94	1245,16
326,15	1271,79
326,37	1218,54
326,58	1232,88
326,79	1257,45
327,00	1292,27
327,22	1232,88
327,43	1261,55
327,64	1226,73
327,85	1286,12
328,07	1200,11
328,28	1232,88
328,49	1202,16
328,70	1284,08
328,92	1318,89
329,13	1234,93
329,34	1314,80
329,55	1277,93
329,76	1228,78
329,98	1247,21
330,19	1277,93
330,40	1308,65
330,61	1308,65
330,83	1294,32
331,04	1290,22
331,25	1226,73
331,46	1251,31
331,68	1320,94
331,89	1255,40
332,10	1265,64
332,31	1290,22
332,52	1220,59
332,74	1210,35
332,95	1271,79
333,16	1292,27
333,37	1234,93
333,58	1284,08
333,80	1310,70
334,01	1306,60
334,22	1267,69
334,43	1265,64
334,64	1243,12
334,86	1216,49
335,07	1347,56
335,28	1310,70
335,49	1228,78
335,70	1257,45
335,92	1253,36
336,13	1320,94
336,34	1316,84
336,55	1232,88
336,76	1292,27
336,98	1302,51
337,19	1298,41
337,40	1296,36
337,61	1327,08
337,82	1255,40
338,04	1300,46
338,25	1208,30
338,46	1286,12
338,67	1275,88
338,88	1292,27
339,09	1290,22
339,31	1267,69
339,52	1265,64
339,73	1257,45
339,94	1232,88
340,15	1314,80
340,36	1288,17
340,58	1236,97
340,79	1312,75
341,00	1261,55
341,21	1304,56
341,42	1327,08
341,63	1232,88
341,85	1322,99
342,06	1255,40
342,27	1298,41
342,48	1255,40
342,69	1247,21
342,90	1279,98
343,12	1275,88
343,33	1228,78
343,54	1341,42
343,75	1302,51
343,96	1241,07
344,17	1310,70
344,38	1245,16
344,60	1314,80
344,81	1243,12
345,02	1331,18
345,23	1306,60
345,44	1261,55
345,65	1271,79
345,86	1234,93
346,07	1304,56
346,29	1263,60
346,50	1331,18
346,71	1251,31
346,92	1191,92
347,13	1200,11
347,34	1300,46
347,55	1214,45
347,76	1214,45
347,98	1263,60
348,19	1253,36
348,40	1304,56
348,61	1241,07
348,82	1288,17
349,03	1228,78
349,24	1251,31
349,45	1220,59
349,66	1249,26
349,88	1232,88
350,09	1269,74
350,30	1200,11
350,51	1314,80
350,72	1241,07
350,93	1224,69
351,14	1261,55
351,35	1316,84
351,56	1191,92
351,77	1292,27
351,99	1236,97
352,20	1292,27
352,41	1298,41
352,62	1263,60
352,83	1257,45
353,04	1314,80
353,25	1318,89
353,46	1335,28
353,67	1259,50
353,88	1236,97
354,09	1310,70
354,30	1343,47
354,52	1331,18
354,73	1298,41
354,94	1288,17
355,15	1232,88
355,36	1312,75
355,57	1230,83
355,78	1286,12
355,99	1298,41
356,20	1273,84
356,41	1251,31
356,62	1224,69
356,83	1314,80
357,04	1277,93
357,25	1234,93
357,46	1261,55
357,68	1228,78
357,89	1257,45
358,10	1245,16
358,31	1249,26
358,52	1267,69
358,73	1337,32
358,94	1363,95
359,15	1267,69
359,36	1247,21
359,57	1282,03
359,78	1267,69
359,99	1222,64
360,20	1249,26
360,41	1249,26
360,62	1257,45
360,83	1269,74
361,04	1210,35
361,25	1349,61
361,46	1185,77
361,67	1290,22
361,88	1277,93
362,09	1218,54
362,30	1253,36
362,51	1198,06
362,72	1275,88
362,93	1243,12
363,14	1325,04
363,35	1320,94
363,56	1269,74
363,78	1265,64
363,99	1253,36
364,20	1279,98
364,41	1232,88
364,62	1259,50
364,83	1261,55
365,04	1245,16
365,25	1273,84
365,46	1214,45
365,67	1239,02
365,88	1214,45
366,09	1224,69
366,30	1296,36
366,51	1245,16
366,72	1202,16
366,93	1286,12
367,14	1220,59
367,35	1288,17
367,56	1308,65
367,77	1243,12
367,98	1245,16
368,18	1300,46
368,39	1253,36
368,60	1265,64
368,81	1234,93
369,02	1279,98
369,23	1257,45
369,44	1196,01
369,65	1296,36
369,86	1306,60
370,07	1263,60
370,28	1298,41
370,49	1247,21
370,70	1216,49
370,91	1234,93
371,12	1226,73
371,33	1306,60
371,54	1310,70
371,75	1355,76
371,96	1275,88
372,17	1196,01
372,38	1253,36
372,59	1234,93
372,80	1294,32
373,01	1269,74
373,22	1320,94
373,43	1310,70
373,64	1228,78
373,85	1279,98
374,06	1304,56
374,26	1294,32
374,47	1257,45
374,68	1210,35
374,89	1357,80
375,10	1241,07
375,31	1282,03
375,52	1271,79
375,73	1265,64
375,94	1290,22
376,15	1269,74
376,36	1306,60
376,57	1243,12
376,78	1312,75
376,99	1228,78
377,20	1255,40
377,40	1216,49
377,61	1249,26
377,82	1257,45
378,03	1279,98
378,24	1320,94
378,45	1234,93
378,66	1232,88
378,87	1226,73
379,08	1284,08
379,29	1236,97
379,50	1282,03
379,71	1275,88
379,91	1243,12
380,12	1243,12
380,33	1228,78
380,54	1310,70
380,75	1255,40
380,96	1224,69
381,17	1271,79
381,38	1208,30
381,59	1267,69
381,80	1257,45
382,00	1282,03
382,21	1306,60
382,42	1273,84
382,63	1271,79
382,84	1300,46
383,05	1232,88
383,26	1267,69
383,47	1271,79
383,68	1232,88
383,88	1214,45
384,09	1343,47
384,30	1239,02
384,51	1290,22
384,72	1241,07
384,93	1261,55
385,14	1267,69
385,35	1282,03
385,55	1234,93
385,76	1292,27
385,97	1286,12
386,18	1243,12
386,39	1191,92
386,60	1259,50
386,81	1312,75
387,02	1173,49
387,22	1304,56
387,43	1308,65
387,64	1230,83
387,85	1312,75
388,06	1277,93
388,27	1239,02
388,48	1308,65
388,68	1312,75
388,89	1220,59
389,10	1275,88
389,31	1310,70
389,52	1247,21
389,73	1275,88
389,93	1257,45
390,14	1243,12
390,35	1331,18
390,56	1261,55
390,77	1312,75
390,98	1269,74
391,18	1357,80
391,39	1196,01
391,60	1214,45
391,81	1220,59
392,02	1294,32
392,23	1169,39
392,43	1241,07
392,64	1310,70
392,85	1179,63
393,06	1210,35
393,27	1259,50
393,47	1198,06
393,68	1247,21
393,89	1292,27
394,10	1290,22
394,31	1196,01
394,52	1292,27
394,72	1243,12
394,93	1265,64
395,14	1245,16
395,35	1314,80
395,56	1249,26
395,76	1177,58
395,97	1331,18
396,18	1296,36
396,39	1251,31
396,60	1214,45
396,80	1249,26
397,01	1345,52
397,22	1286,12
397,43	1294,32
397,64	1304,56
397,84	1286,12
398,05	1322,99
398,26	1312,75
398,47	1251,31
398,67	1282,03
398,88	1314,80
399,09	1249,26
399,30	1298,41
399,51	1226,73
399,71	1212,40
399,92	1239,02
400,13	1265,64
400,34	1337,32
400,54	1216,49
400,75	1261,55
400,96	1243,12
401,17	1273,84
401,37	1218,54
401,58	1298,41
401,79	1206,25
402,00	1271,79
402,21	1257,45
402,41	1247,21
402,62	1320,94
402,83	1232,88
403,04	1216,49
403,24	1269,74
403,45	1257,45
403,66	1222,64
403,87	1277,93
404,07	1310,70
404,28	1271,79
404,49	1282,03
404,70	1288,17
404,90	1249,26
405,11	1171,44
405,32	1302,51
405,52	1259,50
405,73	1282,03
405,94	1228,78
406,15	1255,40
406,35	1224,69
406,56	1288,17
406,77	1249,26
406,98	1261,55
407,18	1294,32
407,39	1245,16
407,60	1267,69
407,80	1310,70
408,01	1279,98
408,22	1273,84
408,43	1271,79
408,63	1286,12
408,84	1277,93
409,05	1226,73
409,25	1212,40
409,46	1191,92
409,67	1279,98
409,88	1290,22
410,08	1232,88
410,29	1253,36
410,50	1306,60
410,70	1269,74
410,91	1230,83
411,12	1222,64
411,32	1234,93
411,53	1230,83
411,74	1286,12
411,95	1208,30
412,15	1288,17
412,36	1271,79
412,57	1236,97
412,77	1224,69
412,98	1284,08
413,19	1298,41
413,39	1322,99
413,60	1312,75
413,81	1294,32
414,01	1308,65
414,22	1253,36
414,43	1279,98
414,63	1206,25
414,84	1214,45
415,05	1243,12
415,25	1255,40
415,46	1247,21
415,67	1277,93
415,87	1286,12
416,08	1310,70
416,29	1204,21
416,49	1284,08
416,70	1243,12
416,91	1234,93
417,11	1220,59
417,32	1224,69
417,53	1304,56
417,73	1286,12
417,94	1241,07
418,15	1290,22
418,35	1239,02
418,56	1247,21
418,77	1214,45
418,97	1275,88
419,18	1263,60
419,38	1279,98
419,59	1212,40
419,80	1337,32
420,00	1247,21
420,21	1210,35
420,42	1273,84
420,62	1288,17
420,83	1202,16
421,04	1253,36
421,24	1269,74
421,45	1320,94
421,65	1277,93
421,86	1249,26
422,07	1218,54
422,27	1290,22
422,48	1292,27
422,69	1232,88
422,89	1294,32
423,10	1208,30
423,30	1284,08
423,51	1253,36
423,72	1191,92
423,92	1251,31
424,13	1312,75
424,33	1236,97
424,54	1312,75
424,75	1271,79
424,95	1251,31
425,16	1345,52
425,36	1257,45
425,57	1251,31
425,78	1300,46
425,98	1290,22
426,19	1277,93
426,39	1271,79
426,60	1263,60
426,81	1216,49
427,01	1304,56
427,22	1208,30
427,42	1265,64
427,63	1320,94
427,83	1226,73
428,04	1232,88
428,25	1247,21
428,45	1349,61
428,66	1232,88
428,86	1308,65
429,07	1239,02
429,28	1282,03
429,48	1189,87
429,69	1208,30
429,89	1273,84
430,10	1245,16
430,30	1312,75
430,51	1316,84
430,71	1277,93
430,92	1271,79
431,13	1257,45
431,33	1310,70
431,54	1249,26
431,74	1196,01
431,95	1279,98
432,15	1318,89
432,36	1257,45
432,56	1294,32
432,77	1308,65
432,98	1269,74
433,18	1279,98
433,39	1239,02
433,59	1286,12
433,80	1329,13
434,00	1304,56
434,21	1265,64
434,41	1253,36
434,62	1234,93
434,82	1247,21
435,03	1232,88
435,23	1355,76
435,44	1298,41
435,64	1169,39
435,85	1232,88
436,06	1263,60
436,26	1294,32
436,47	1189,87
436,67	1261,55
436,88	1366,00
437,08	1284,08
437,29	1318,89
437,49	1337,32
437,70	1222,64
437,90	1325,04
438,11	1253,36
438,31	1234,93
438,52	1267,69
438,72	1320,94
438,93	1273,84
439,13	1224,69
439,34	1265,64
439,54	1249,26
439,75	1284,08
439,95	1273,84
440,16	1277,93
440,36	1224,69
440,57	1241,07
440,77	1312,75
440,98	1329,13
441,18	1292,27
441,39	1230,83
441,59	1271,79
441,80	1318,89
442,00	1275,88
442,21	1292,27
442,41	1277,93
442,62	1279,98
442,82	1245,16
443,02	1269,74
443,23	1255,40
443,43	1310,70
443,64	1261,55
443,84	1302,51
444,05	1234,93
444,25	1257,45
444,46	1253,36
444,66	1245,16
444,87	1304,56
445,07	1232,88
445,28	1206,25
445,48	1214,45
445,69	1241,07
445,89	1304,56
446,09	1312,75
446,30	1282,03
446,50	1224,69
446,71	1251,31
446,91	1343,47
447,12	1300,46
447,32	1259,50
447,53	1308,65
447,73	1228,78
447,93	1269,74
448,14	1267,69
448,34	1279,98
448,55	1275,88
448,75	1220,59
448,96	1277,93
449,16	1329,13
449,36	1234,93
449,57	1308,65
449,77	1247,21
449,98	1284,08
450,18	1202,16
450,39	1208,30
450,59	1239,02
450,79	1312,75
451,00	1261,55
451,20	1271,79
451,41	1322,99
451,61	1255,40
451,81	1243,12
452,02	1292,27
452,22	1255,40
452,43	1234,93
452,63	1279,98
452,84	1224,69
453,04	1232,88
453,24	1300,46
453,45	1290,22
453,65	1275,88
453,86	1275,88
454,06	1306,60
454,26	1230,83
454,47	1234,93
454,67	1208,30
454,87	1271,79
455,08	1273,84
455,28	1300,46
455,49	1259,50
455,69	1230,83
455,89	1341,42
456,10	1261,55
456,30	1247,21
456,51	1249,26
456,71	1255,40
456,91	1241,07
457,12	1251,31
457,32	1286,12
457,52	1294,32
457,73	1204,21
457,93	1312,75
458,14	1296,36
458,34	1134,57
458,54	1251,31
458,75	1261,55
458,95	1214,45
459,15	1290,22
459,36	1282,03
459,56	1310,70
459,76	1349,61
459,97	1234,93
460,17	1292,27
460,37	1290,22
460,58	1234,93
460,78	1245,16
460,99	1218,54
461,19	1245,16
461,39	1275,88
461,60	1314,80
461,80	1312,75
462,00	1271,79
462,21	1269,74
462,41	1282,03
462,61	1159,15
462,82	1296,36
463,02	1267,69
463,22	1257,45
463,43	1357,80
463,63	1247,21
463,83	1241,07
464,04	1298,41
464,24	1271,79
464,44	1247,21
464,64	1232,88
464,85	1208,30
465,05	1335,28
465,25	1224,69
465,46	1245,16
465,66	1247,21
465,86	1257,45
466,07	1271,79
466,27	1196,01
466,47	1282,03
466,68	1247,21
466,88	1218,54
467,08	1265,64
467,29	1236,97
467,49	1306,60
467,69	1273,84
467,89	1218,54
468,10	1249,26
468,30	1273,84
468,50	1249,26
468,71	1187,82
468,91	1259,50
469,11	1249,26
469,31	1273,84
469,52	1263,60
469,72	1284,08
469,92	1275,88
470,13	1310,70
470,33	1249,26
470,53	1314,80
470,73	1288,17
470,94	1318,89
471,14	1277,93
471,34	1234,93
471,54	1263,60
471,75	1337,32
471,95	1304,56
472,15	1259,50
472,36	1257,45
472,56	1302,51
472,76	1277,93
472,96	1335,28
473,17	1325,04
473,37	1259,50
473,57	1279,98
473,77	1191,92
473,98	1277,93
474,18	1265,64
474,38	1224,69
474,58	1273,84
474,79	1267,69
474,99	1292,27
475,19	1259,50
475,39	1284,08
475,60	1200,11
475,80	1218,54
476,00	1265,64
476,20	1267,69
476,41	1239,02
476,61	1304,56
476,81	1290,22
477,01	1263,60
477,21	1310,70
477,42	1296,36
477,62	1193,97
477,82	1267,69
478,02	1259,50
478,23	1282,03
478,43	1300,46
478,63	1222,64
478,83	1251,31
479,03	1361,90
479,24	1320,94
479,44	1322,99
479,64	1232,88
479,84	1320,94
480,04	1251,31
480,25	1310,70
480,45	1282,03
480,65	1298,41
480,85	1316,84
481,06	1345,52
481,26	1165,29
481,46	1257,45
481,66	1294,32
481,86	1312,75
482,06	1290,22
482,27	1279,98
482,47	1189,87
482,67	1171,44
482,87	1247,21
483,07	1247,21
483,28	1247,21
483,48	1202,16
483,68	1253,36
483,88	1265,64
484,08	1322,99
484,29	1265,64
484,49	1294,32
484,69	1314,80
484,89	1218,54
485,09	1284,08
485,29	1288,17
485,50	1282,03
485,70	1335,28
485,90	1259,50
486,10	1339,37
486,30	1230,83
486,50	1218,54
486,71	1286,12
486,91	1271,79
487,11	1263,60
487,31	1286,12
487,51	1294,32
487,71	1284,08
487,91	1259,50
488,12	1224,69
488,32	1255,40
488,52	1222,64
488,72	1249,26
488,92	1224,69
489,12	1267,69
489,32	1282,03
489,53	1216,49
489,73	1304,56
489,93	1312,75
490,13	1275,88
490,33	1263,60
490,53	1171,44
490,73	1282,03
490,94	1271,79
491,14	1273,84
491,34	1296,36
491,54	1200,11
491,74	1251,31
491,94	1310,70
492,14	1261,55
492,34	1302,51
492,54	1253,36
492,75	1249,26
492,95	1232,88
493,15	1253,36
493,35	1294,32
493,55	1222,64
493,75	1282,03
493,95	1224,69
494,15	1325,04
494,35	1263,60
494,56	1273,84
494,76	1259,50
494,96	1318,89
495,16	1224,69
495,36	1206,25
495,56	1208,30
495,76	1349,61
495,96	1249,26
496,16	1261,55
496,36	1271,79
496,56	1259,50
496,77	1294,32
496,97	1232,88
497,17	1230,83
497,37	1220,59
497,57	1265,64
497,77	1200,11
497,97	1282,03
498,17	1282,03
498,37	1228,78
498,57	1282,03
498,77	1249,26
498,97	1265,64
499,17	1257,45
499,38	1239,02
499,58	1261,55
499,78	1257,45
499,98	1265,64
500,18	1310,70
500,38	1306,60
500,58	1304,56
500,78	1249,26
500,98	1345,52
501,18	1269,74
501,38	1216,49
501,58	1292,27
501,78	1288,17
501,98	1247,21
502,18	1288,17
502,38	1296,36
502,58	1294,32
502,78	1300,46
502,98	1296,36
503,18	1239,02
503,38	1249,26
503,59	1257,45
503,79	1343,47
503,99	1314,80
504,19	1210,35
504,39	1232,88
504,59	1253,36
504,79	1269,74
504,99	1234,93
505,19	1366,00
505,39	1263,60
505,59	1263,60
505,79	1296,36
505,99	1282,03
506,19	1251,31
506,39	1234,93
506,59	1234,93
506,79	1228,78
506,99	1239,02
507,19	1273,84
507,39	1251,31
507,59	1320,94
507,79	1187,82
507,99	1327,08
508,19	1243,12
508,39	1273,84
508,59	1253,36
508,79	1277,93
508,99	1294,32
509,19	1343,47
509,39	1204,21
509,59	1220,59
509,79	1359,85
509,99	1284,08
510,19	1263,60
510,39	1292,27
510,59	1253,36
510,79	1288,17
510,99	1284,08
511,19	1214,45
511,39	1253,36
511,59	1316,84
511,79	1325,04
511,99	1300,46
512,19	1224,69
512,38	1286,12
512,58	1327,08
512,78	1241,07
512,98	1296,36
513,18	1288,17
513,38	1290,22
513,58	1257,45
513,78	1298,41
513,98	1257,45
514,18	1288,17
514,38	1265,64
514,58	1247,21
514,78	1288,17
514,98	1245,16
515,18	1202,16
515,38	1282,03
515,58	1265,64
515,78	1198,06
515,98	1259,50
516,18	1277,93
516,38	1329,13
516,57	1290,22
516,77	1226,73
516,97	1312,75
517,17	1376,24
517,37	1290,22
517,57	1230,83
517,77	1232,88
517,97	1286,12
518,17	1255,40
518,37	1318,89
518,57	1267,69
518,77	1267,69
518,97	1247,21
519,16	1255,40
519,36	1308,65
519,56	1269,74
519,76	1275,88
519,96	1249,26
520,16	1234,93
520,36	1251,31
520,56	1290,22
520,76	1312,75
520,96	1232,88
521,16	1271,79
521,35	1263,60
521,55	1241,07
521,75	1259,50
521,95	1273,84
522,15	1236,97
522,35	1247,21
522,55	1294,32
522,75	1230,83
522,95	1263,60
523,14	1341,42
523,34	1255,40
523,54	1208,30
523,74	1335,28
523,94	1253,36
524,14	1230,83
524,34	1243,12
524,54	1288,17
524,73	1269,74
524,93	1312,75
525,13	1282,03
525,33	1290,22
525,53	1296,36
525,73	1284,08
525,93	1288,17
526,13	1257,45
526,32	1218,54
526,52	1284,08
526,72	1267,69
526,92	1296,36
527,12	1267,69
527,32	1218,54
527,52	1263,60
527,71	1228,78
527,91	1304,56
528,11	1228,78
528,31	1269,74
528,51	1239,02
528,71	1220,59
528,90	1239,02
529,10	1300,46
529,30	1298,41
529,50	1222,64
529,70	1265,64
529,90	1230,83
530,09	1349,61
530,29	1241,07
530,49	1294,32
530,69	1312,75
530,89	1236,97
531,09	1208,30
531,28	1208,30
531,48	1253,36
531,68	1333,23
531,88	1212,40
532,08	1341,42
532,28	1335,28
532,47	1216,49
532,67	1351,66
532,87	1290,22
533,07	1185,77
533,27	1257,45
533,46	1302,51
533,66	1327,08
533,86	1247,21
534,06	1257,45
534,26	1269,74
534,45	1232,88
534,65	1284,08
534,85	1267,69
535,05	1304,56
535,25	1275,88
535,44	1282,03
535,64	1277,93
535,84	1261,55
536,04	1251,31
536,24	1257,45
536,43	1241,07
536,63	1239,02
536,83	1271,79
537,03	1259,50
537,22	1224,69
537,42	1306,60
537,62	1331,18
537,82	1269,74
538,02	1236,97
538,21	1243,12
538,41	1208,30
538,61	1257,45
538,81	1251,31
539,00	1273,84
539,20	1196,01
539,40	1265,64
539,60	1288,17
539,79	1218,54
539,99	1245,16
540,19	1208,30
540,39	1155,05
540,58	1247,21
540,78	1230,83
540,98	1318,89
541,18	1232,88
541,37	1267,69
541,57	1284,08
541,77	1298,41
541,97	1245,16
542,16	1261,55
542,36	1222,64
542,56	1290,22
542,76	1239,02
542,95	1302,51
543,15	1255,40
543,35	1232,88
543,54	1273,84
543,74	1261,55
543,94	1230,83
544,14	1234,93
544,33	1208,30
544,53	1273,84
544,73	1245,16
544,93	1257,45
545,12	1191,92
545,32	1263,60
545,52	1267,69
545,71	1273,84
545,91	1302,51
546,11	1253,36
546,30	1302,51
546,50	1241,07
546,70	1308,65
546,90	1234,93
547,09	1277,93
547,29	1320,94
547,49	1267,69
547,68	1300,46
547,88	1255,40
548,08	1214,45
548,27	1210,35
548,47	1263,60
548,67	1230,83
548,87	1300,46
549,06	1275,88
549,26	1277,93
549,46	1249,26
549,65	1310,70
549,85	1284,08
550,05	1245,16
550,24	1224,69
550,44	1300,46
550,64	1261,55
550,83	1236,97
551,03	1232,88
551,23	1245,16
551,42	1206,25
551,62	1232,88
551,82	1300,46
552,01	1273,84
552,21	1306,60
552,41	1249,26
552,60	1322,99
552,80	1267,69
553,00	1189,87
553,19	1261,55
553,39	1224,69
553,59	1220,59
553,78	1314,80
553,98	1230,83
554,17	1322,99
554,37	1198,06
554,57	1265,64
554,76	1284,08
554,96	1288,17
555,16	1239,02
555,35	1232,88
555,55	1331,18
555,75	1245,16
555,94	1294,32
556,14	1239,02
556,33	1292,27
556,53	1269,74
556,73	1247,21
556,92	1243,12
557,12	1310,70
557,32	1298,41
557,51	1325,04
557,71	1212,40
557,90	1308,65
558,10	1257,45
558,30	1310,70
558,49	1206,25
558,69	1159,15
558,88	1222,64
559,08	1294,32
559,28	1257,45
559,47	1288,17
559,67	1273,84
559,86	1282,03
560,06	1284,08
560,26	1378,28
560,45	1243,12
560,65	1255,40
560,84	1257,45
561,04	1247,21
561,24	1232,88
561,43	1261,55
561,63	1312,75
561,82	1312,75
562,02	1275,88
562,22	1279,98
562,41	1226,73
562,61	1222,64
562,80	1306,60
563,00	1288,17
563,19	1271,79
563,39	1253,36
563,59	1279,98
563,78	1275,88
563,98	1282,03
564,17	1232,88
564,37	1322,99
564,56	1259,50
564,76	1208,30
564,96	1245,16
565,15	1187,82
565,35	1327,08
565,54	1282,03
565,74	1249,26
565,93	1218,54
566,13	1292,27
566,32	1265,64
566,52	1310,70
566,71	1277,93
566,91	1251,31
567,11	1265,64
567,30	1200,11
567,50	1236,97
567,69	1286,12
567,89	1310,70
568,08	1236,97
568,28	1269,74
568,47	1241,07
568,67	1247,21
568,86	1316,84
569,06	1191,92
569,25	1290,22
569,45	1271,79
569,64	1314,80
569,84	1253,36
570,04	1298,41
570,23	1206,25
570,43	1343,47
570,62	1265,64
570,82	1312,75
571,01	1220,59
571,21	1214,45
571,40	1220,59
571,60	1290,22
571,79	1310,70
571,99	1312,75
572,18	1232,88
572,38	1239,02
572,57	1286,12
572,77	1263,60
572,96	1302,51
573,16	1331,18
573,35	1310,70
573,55	1257,45
573,74	1234,93
573,94	1257,45
574,13	1245,16
574,33	1296,36
574,52	1271,79
574,71	1300,46
574,91	1236,97
575,10	1236,97
575,30	1331,18
575,49	1282,03
575,69	1294,32
575,88	1253,36
576,08	1322,99
576,27	1236,97
576,47	1314,80
576,66	1296,36
576,86	1294,32
577,05	1265,64
577,25	1343,47
577,44	1304,56
577,64	1230,83
577,83	1265,64
578,02	1333,23
578,22	1335,28
578,41	1230,83
578,61	1257,45
578,80	1273,84
579,00	1298,41
579,19	1241,07
579,39	1226,73
579,58	1275,88
579,77	1234,93
579,97	1232,88
580,16	1327,08
580,36	1286,12
580,55	1253,36
580,75	1236,97
580,94	1267,69
581,13	1253,36
581,33	1304,56
581,52	1261,55
581,72	1220,59
581,91	1257,45
582,11	1273,84
582,30	1292,27
582,49	1279,98
582,69	1292,27
582,88	1290,22
583,08	1261,55
583,27	1259,50
583,47	1245,16
583,66	1263,60
583,85	1218,54
584,05	1249,26
584,24	1257,45
584,44	1279,98
584,63	1255,40
584,82	1279,98
585,02	1224,69
585,21	1247,21
585,41	1245,16
585,60	1253,36
585,79	1331,18
585,99	1288,17
586,18	1230,83
586,37	1228,78
586,57	1275,88
586,76	1218,54
586,96	1175,53
587,15	1337,32
587,34	1253,36
587,54	1261,55
587,73	1198,06
587,93	1228,78
588,12	1245,16
588,31	1279,98
588,51	1292,27
588,70	1261,55
588,89	1261,55
589,09	1218,54
589,28	1306,60
589,47	1249,26
589,67	1255,40
589,86	1187,82
590,06	1249,26
590,25	1292,27
590,44	1314,80
590,64	1230,83
590,83	1300,46
591,02	1302,51
591,22	1259,50
591,41	1296,36
591,60	1228,78
591,80	1247,21
591,99	1245,16
592,18	1236,97
592,38	1273,84
592,57	1320,94
592,76	1265,64
592,96	1236,97
593,15	1302,51
593,34	1290,22
593,54	1193,97
593,73	1304,56
593,92	1251,31
594,12	1312,75
594,31	1241,07
594,50	1294,32
594,70	1241,07
594,89	1273,84
595,08	1288,17
595,28	1243,12
595,47	1261,55
595,66	1232,88
595,86	1337,32
596,05	1286,12
596,24	1294,32
596,43	1216,49
596,63	1236,97
596,82	1294,32
597,01	1271,79
597,21	1302,51
597,40	1275,88
597,59	1259,50
597,79	1275,88
597,98	1208,30
598,17	1310,70
598,36	1277,93
598,56	1245,16
598,75	1343,47
598,94	1241,07
599,14	1259,50
599,33	1273,84
599,52	1355,76
599,71	1331,18
599,91	1210,35
600,10	1232,88
600,29	1335,28
600,48	1220,59
600,68	1302,51
600,87	1251,31
601,06	1236,97
601,26	1304,56
601,45	1214,45
601,64	1191,92
601,83	1292,27
602,03	1374,19
602,22	1196,01
602,41	1208,30
602,60	1247,21
602,80	1253,36
602,99	1243,12
603,18	1257,45
603,37	1239,02
603,57	1206,25
603,76	1245,16
603,95	1255,40
604,14	1257,45
604,34	1204,21
604,53	1224,69
604,72	1224,69
604,91	1304,56
605,10	1263,60
605,30	1302,51
605,49	1298,41
605,68	1277,93
605,87	1310,70
606,07	1294,32
606,26	1157,10
606,45	1292,27
606,64	1314,80
606,84	1288,17
607,03	1310,70
607,22	1241,07
607,41	1302,51
607,60	1210,35
607,80	1265,64
607,99	1308,65
608,18	1318,89
608,37	1208,30
608,56	1265,64
608,76	1257,45
608,95	1304,56
609,14	1224,69
609,33	1284,08
609,52	1320,94
609,72	1314,80
609,91	1222,64
610,10	1208,30
610,29	1251,31
610,48	1222,64
610,68	1279,98
610,87	1263,60
611,06	1234,93
611,25	1236,97
611,44	1314,80
611,63	1247,21
611,83	1220,59
612,02	1234,93
612,21	1265,64
612,40	1271,79
612,59	1245,16
612,79	1251,31
612,98	1253,36
613,17	1247,21
613,36	1255,40
613,55	1304,56
613,74	1347,56
613,93	1306,60
614,13	1263,60
614,32	1267,69
614,51	1282,03
614,70	1261,55
614,89	1259,50
615,08	1247,21
615,28	1255,40
615,47	1230,83
615,66	1290,22
615,85	1269,74
616,04	1241,07
616,23	1306,60
616,42	1249,26
616,62	1257,45
616,81	1322,99
617,00	1359,85
617,19	1218,54
617,38	1241,07
617,57	1257,45
617,76	1294,32
617,95	1257,45
618,15	1224,69
618,34	1290,22
618,53	1304,56
618,72	1241,07
618,91	1296,36
619,10	1294,32
619,29	1269,74
619,48	1279,98
619,68	1308,65
619,87	1296,36
620,06	1275,88
620,25	1259,50
620,44	1257,45
620,63	1216,49
620,82	1253,36
621,01	1230,83
621,20	1226,73
621,39	1279,98
621,59	1251,31
621,78	1232,88
621,97	1218,54
622,16	1290,22
622,35	1226,73
622,54	1310,70
622,73	1269,74
622,92	1257,45
623,11	1271,79
623,30	1255,40
623,49	1232,88
623,68	1245,16
623,88	1249,26
624,07	1314,80
624,26	1232,88
624,45	1294,32
624,64	1286,12
624,83	1261,55
625,02	1253,36
625,21	1296,36
625,40	1236,97
625,59	1312,75
625,78	1277,93
625,97	1333,23
626,16	1300,46
626,35	1198,06
626,54	1232,88
626,74	1361,90
626,93	1185,77
627,12	1261,55
627,31	1232,88
627,50	1370,09
627,69	1253,36
627,88	1349,61
628,07	1339,37
628,26	1275,88
628,45	1265,64
628,64	1279,98
628,83	1255,40
629,02	1279,98
629,21	1261,55
629,40	1302,51
629,59	1249,26
629,78	1282,03
629,97	1249,26
630,16	1370,09
630,35	1302,51
630,54	1288,17
630,73	1200,11
630,92	1249,26
631,11	1286,12
631,30	1294,32
631,49	1337,32
631,68	1359,85
631,87	1355,76
632,06	1566,70
632,25	1388,52
632,44	1318,89
632,63	1349,61
632,82	1392,62
633,01	1413,10
633,20	1445,87
633,39	1435,63
633,58	1429,48
633,77	1472,49
633,96	1476,59
634,15	1560,55
634,34	1621,99
634,53	1880,04
634,72	1615,85
634,91	1466,35
635,10	1478,63
635,29	1667,05
635,48	1798,12
635,67	1728,49
635,86	1779,68
636,05	1701,86
636,24	1511,40
636,43	1546,22
636,62	1419,24
636,81	1441,77
637,00	1413,10
637,19	1298,41
637,38	1400,81
637,57	1331,18
637,76	1355,76
637,95	1243,12
638,14	1320,94
638,33	1325,04
638,52	1343,47
638,71	1226,73
638,89	1325,04
639,08	1361,90
639,27	1267,69
639,46	1239,02
639,65	1355,76
639,84	1273,84
640,03	1292,27
640,22	1267,69
640,41	1243,12
640,60	1322,99
640,79	1298,41
640,98	1267,69
641,17	1282,03
641,36	1255,40
641,55	1214,45
641,74	1228,78
641,92	1236,97
642,11	1308,65
642,30	1273,84
642,49	1271,79
642,68	1349,61
642,87	1247,21
643,06	1269,74
643,25	1265,64
643,44	1222,64
643,63	1263,60
643,82	1249,26
644,00	1232,88
644,19	1234,93
644,38	1269,74
644,57	1257,45
644,76	1302,51
644,95	1222,64
645,14	1269,74
645,33	1275,88
645,52	1273,84
645,71	1275,88
645,89	1267,69
646,08	1277,93
646,27	1169,39
646,46	1282,03
646,65	1275,88
646,84	1273,84
647,03	1329,13
647,22	1247,21
647,40	1294,32
647,59	1212,40
647,78	1284,08
647,97	1259,50
648,16	1333,23
648,35	1357,80
648,54	1357,80
648,73	1239,02
648,91	1314,80
649,10	1255,40
649,29	1261,55
649,48	1304,56
649,67	1210,35
649,86	1343,47
650,05	1275,88
650,23	1286,12
650,42	1273,84
650,61	1320,94
650,80	1245,16
650,99	1279,98
651,18	1261,55
651,36	1255,40
651,55	1271,79
651,74	1267,69
651,93	1253,36
652,12	1361,90
652,31	1255,40
652,49	1284,08
652,68	1226,73
652,87	1157,10
653,06	1269,74
653,25	1277,93
653,44	1337,32
653,62	1259,50
653,81	1191,92
654,00	1302,51
654,19	1245,16
654,38	1269,74
654,56	1212,40
654,75	1243,12
654,94	1282,03
655,13	1251,31
655,32	1296,36
655,51	1224,69
655,69	1247,21
655,88	1267,69
656,07	1255,40
656,26	1249,26
656,45	1318,89
656,63	1267,69
656,82	1212,40
657,01	1322,99
657,20	1247,21
657,38	1224,69
657,57	1224,69
657,76	1282,03
657,95	1310,70
658,14	1294,32
658,32	1257,45
658,51	1198,06
658,70	1171,44
658,89	1275,88
659,08	1208,30
659,26	1288,17
659,45	1228,78
659,64	1269,74
659,83	1306,60
660,01	1224,69
660,20	1271,79
660,39	1339,37
660,58	1267,69
660,76	1255,40
660,95	1339,37
661,14	1279,98
661,33	1239,02
661,51	1249,26
661,70	1214,45
661,89	1222,64
662,08	1236,97
662,26	1243,12
662,45	1255,40
662,64	1206,25
662,83	1216,49
663,01	1222,64
663,20	1220,59
663,39	1341,42
663,58	1327,08
663,76	1247,21
663,95	1310,70
664,14	1286,12
664,32	1228,78
664,51	1337,32
664,70	1261,55
664,89	1236,97
665,07	1236,97
665,26	1208,30
665,45	1255,40
665,64	1302,51
665,82	1257,45
666,01	1400,81
666,20	1222,64
666,38	1312,75
666,57	1290,22
666,76	1327,08
666,95	1230,83
667,13	1335,28
667,32	1230,83
667,51	1273,84
667,69	1224,69
667,88	1224,69
668,07	1296,36
668,25	1282,03
668,44	1325,04
668,63	1273,84
668,81	1298,41
669,00	1318,89
669,19	1247,21
669,38	1284,08
669,56	1261,55
669,75	1275,88
669,94	1189,87
670,12	1271,79
670,31	1214,45
670,50	1300,46
670,68	1282,03
670,87	1298,41
671,06	1251,31
671,24	1294,32
671,43	1255,40
671,62	1345,52
671,80	1249,26
671,99	1308,65
672,18	1294,32
672,36	1273,84
672,55	1189,87
672,74	1251,31
672,92	1251,31
673,11	1241,07
673,29	1265,64
673,48	1275,88
673,67	1257,45
673,85	1271,79
674,04	1249,26
674,23	1220,59
674,41	1310,70
674,60	1241,07
674,79	1236,97
674,97	1378,28
675,16	1249,26
675,34	1183,73
675,53	1275,88
675,72	1290,22
675,90	1298,41
676,09	1277,93
676,28	1267,69
676,46	1308,65
676,65	1282,03
676,83	1282,03
677,02	1210,35
677,21	1263,60
677,39	1214,45
677,58	1290,22
677,77	1304,56
677,95	1314,80
678,14	1263,60
678,32	1247,21
678,51	1310,70
678,70	1204,21
678,88	1236,97
679,07	1294,32
679,25	1251,31
679,44	1282,03
679,63	1308,65
679,81	1306,60
680,00	1243,12
680,18	1191,92
680,37	1245,16
680,55	1327,08
680,74	1304,56
680,93	1277,93
681,11	1263,60
681,30	1261,55
681,48	1239,02
681,67	1234,93
681,85	1253,36
682,04	1228,78
682,23	1249,26
682,41	1284,08
682,60	1277,93
682,78	1255,40
682,97	1265,64
683,15	1284,08
683,34	1271,79
683,53	1239,02
683,71	1282,03
683,90	1306,60
684,08	1206,25
684,27	1269,74
684,45	1265,64
684,64	1265,64
684,82	1284,08
685,01	1198,06
685,19	1284,08
685,38	1259,50
685,57	1302,51
685,75	1247,21
685,94	1234,93
686,12	1282,03
686,31	1314,80
686,49	1265,64
686,68	1206,25
686,86	1239,02
687,05	1218,54
687,23	1322,99
687,42	1271,79
687,60	1267,69
687,79	1169,39
687,97	1218,54
688,16	1204,21
688,34	1269,74
688,53	1322,99
688,71	1236,97
688,90	1310,70
689,08	1273,84
689,27	1257,45
689,45	1241,07
689,64	1425,39
689,82	1177,58
690,01	1318,89
690,19	1286,12
690,38	1214,45
690,56	1257,45
690,75	1286,12
690,93	1249,26
691,12	1296,36
691,30	1239,02
691,49	1214,45
691,67	1261,55
691,86	1263,60
692,04	1253,36
692,23	1253,36
692,41	1331,18
692,60	1277,93
692,78	1251,31
692,97	1222,64
693,15	1335,28
693,34	1232,88
693,52	1216,49
693,71	1279,98
693,89	1198,06
694,08	1198,06
694,26	1300,46
694,44	1298,41
694,63	1275,88
694,81	1298,41
695,00	1294,32
695,18	1255,40
695,37	1294,32
695,55	1239,02
695,74	1239,02
695,92	1257,45
696,10	1261,55
696,29	1306,60
696,47	1249,26
696,66	1265,64
696,84	1224,69
697,03	1253,36
697,21	1273,84
697,40	1300,46
697,58	1247,21
697,76	1257,45
697,95	1282,03
698,13	1288,17
698,32	1202,16
698,50	1265,64
698,68	1267,69
698,87	1234,93
699,05	1292,27
699,24	1345,52
699,42	1320,94
699,61	1232,88
699,79	1220,59
699,97	1234,93
700,16	1322,99
700,34	1265,64
700,53	1331,18
700,71	1279,98
700,89	1304,56
701,08	1286,12
701,26	1249,26
701,45	1277,93
701,63	1288,17
701,81	1273,84
702,00	1265,64
702,18	1218,54
702,37	1243,12
702,55	1191,92
702,73	1226,73
702,92	1216,49
703,10	1298,41
703,28	1251,31
703,47	1261,55
703,65	1273,84
703,84	1253,36
704,02	1269,74
704,20	1298,41
704,39	1325,04
704,57	1261,55
704,75	1261,55
704,94	1253,36
705,12	1247,21
705,30	1263,60
705,49	1243,12
705,67	1263,60
705,86	1234,93
706,04	1220,59
706,22	1273,84
706,41	1259,50
706,59	1218,54
706,77	1312,75
706,96	1265,64
707,14	1183,73
707,32	1198,06
707,51	1265,64
707,69	1275,88
707,87	1269,74
708,06	1284,08
708,24	1267,69
708,42	1316,84
708,61	1255,40
708,79	1263,60
708,97	1243,12
709,16	1269,74
709,34	1257,45
709,52	1253,36
709,71	1226,73
709,89	1269,74
710,07	1269,74
710,26	1302,51
710,44	1304,56
710,62	1247,21
710,80	1310,70
710,99	1296,36
711,17	1245,16
711,35	1290,22
711,54	1214,45
711,72	1245,16
711,90	1222,64
712,09	1261,55
712,27	1224,69
712,45	1263,60
712,63	1206,25
712,82	1155,05
713,00	1239,02
713,18	1273,84
713,37	1298,41
713,55	1236,97
713,73	1322,99
713,91	1234,93
714,10	1304,56
714,28	1279,98
714,46	1222,64
714,65	1314,80
714,83	1269,74
715,01	1265,64
715,19	1263,60
715,38	1296,36
715,56	1245,16
715,74	1275,88
715,92	1314,80
716,11	1290,22
716,29	1294,32
716,47	1312,75
716,65	1265,64
716,84	1245,16
717,02	1253,36
717,20	1243,12
717,38	1265,64
717,57	1253,36
717,75	1269,74
717,93	1286,12
718,11	1265,64
718,30	1253,36
718,48	1325,04
718,66	1241,07
718,84	1271,79
719,03	1255,40
719,21	1253,36
719,39	1306,60
719,57	1333,23
719,75	1286,12
719,94	1181,68
720,12	1243,12
720,30	1325,04
720,48	1286,12
720,67	1247,21
720,85	1310,70
721,03	1294,32
721,21	1275,88
721,39	1329,13
721,58	1331,18
721,76	1325,04
721,94	1257,45
722,12	1255,40
722,30	1187,82
722,49	1255,40
722,67	1214,45
722,85	1216,49
723,03	1212,40
723,21	1261,55
723,40	1214,45
723,58	1212,40
723,76	1245,16
723,94	1337,32
724,12	1286,12
724,30	1275,88
724,49	1329,13
724,67	1271,79
724,85	1247,21
725,03	1322,99
725,21	1290,22
725,40	1345,52
725,58	1265,64
725,76	1308,65
725,94	1234,93
726,12	1279,98
726,30	1247,21
726,49	1322,99
726,67	1282,03
726,85	1224,69
727,03	1230,83
727,21	1255,40
727,39	1294,32
727,57	1314,80
727,76	1243,12
727,94	1279,98
728,12	1175,53
728,30	1284,08
728,48	1212,40
728,66	1241,07
728,84	1275,88
729,03	1267,69
729,21	1243,12
729,39	1288,17
729,57	1288,17
729,75	1232,88
729,93	1271,79
730,11	1298,41
730,30	1310,70
730,48	1224,69
730,66	1271,79
730,84	1263,60
731,02	1310,70
731,20	1224,69
731,38	1312,75
731,56	1236,97
731,74	1263,60
731,93	1241,07
732,11	1239,02
732,29	1255,40
732,47	1271,79
732,65	1275,88
732,83	1257,45
733,01	1265,64
733,19	1200,11
733,37	1296,36
733,56	1273,84
733,74	1288,17
733,92	1349,61
734,10	1253,36
734,28	1255,40
734,46	1269,74
734,64	1314,80
734,82	1294,32
735,00	1316,84
735,18	1241,07
735,36	1232,88
735,54	1243,12
735,73	1243,12
735,91	1206,25
736,09	1300,46
736,27	1247,21
736,45	1253,36
736,63	1249,26
736,81	1282,03
736,99	1243,12
737,17	1200,11
737,35	1218,54
737,53	1208,30
737,71	1243,12
737,89	1218,54
738,07	1200,11
738,25	1302,51
738,43	1257,45
738,61	1286,12
738,80	1302,51
738,98	1216,49
739,16	1259,50
739,34	1273,84
739,52	1339,37
739,70	1169,39
739,88	1257,45
740,06	1232,88
740,24	1300,46
740,42	1265,64
740,60	1275,88
740,78	1290,22
740,96	1247,21
741,14	1370,09
741,32	1273,84
741,50	1236,97
741,68	1302,51
741,86	1218,54
742,04	1269,74
742,22	1200,11
742,40	1275,88
742,58	1224,69
742,76	1302,51
742,94	1241,07
743,12	1243,12
743,30	1273,84
743,48	1234,93
743,66	1259,50
743,84	1255,40
744,02	1257,45
744,20	1329,13
744,38	1228,78
744,56	1290,22
744,74	1357,80
744,92	1236,97
745,10	1288,17
745,28	1292,27
745,46	1224,69
745,64	1298,41
745,82	1304,56
746,00	1224,69
746,18	1306,60
746,36	1302,51
746,54	1288,17
746,72	1239,02
746,90	1163,25
747,08	1226,73
747,26	1216,49
747,44	1290,22
747,62	1255,40
747,80	1261,55
747,98	1277,93
748,15	1298,41
748,33	1282,03
748,51	1290,22
748,69	1263,60
748,87	1302,51
749,05	1282,03
749,23	1216,49
749,41	1257,45
749,59	1239,02
749,77	1279,98
749,95	1271,79
750,13	1300,46
750,31	1200,11
750,49	1284,08
750,67	1226,73
750,85	1269,74
751,03	1224,69
751,20	1290,22
751,38	1259,50
751,56	1288,17
751,74	1304,56
751,92	1294,32
752,10	1277,93
752,28	1255,40
752,46	1331,18
752,64	1251,31
752,82	1271,79
753,00	1234,93
753,18	1312,75
753,35	1277,93
753,53	1210,35
753,71	1243,12
753,89	1308,65
754,07	1253,36
754,25	1275,88
754,43	1243,12
754,61	1290,22
754,79	1277,93
754,97	1273,84
755,14	1261,55
755,32	1220,59
755,50	1296,36
755,68	1271,79
755,86	1275,88
756,04	1259,50
756,22	1292,27
756,40	1279,98
756,57	1220,59
756,75	1294,32
756,93	1304,56
757,11	1329,13
757,29	1267,69
757,47	1296,36
757,65	1286,12
757,82	1177,58
758,00	1314,80
758,18	1171,44
758,36	1220,59
758,54	1294,32
758,72	1284,08
758,90	1253,36
759,07	1245,16
759,25	1292,27
759,43	1255,40
759,61	1325,04
759,79	1351,66
759,97	1331,18
760,15	1216,49
760,32	1191,92
760,50	1257,45
760,68	1255,40
760,86	1243,12
761,04	1294,32
761,22	1284,08
761,39	1306,60
761,57	1261,55
761,75	1288,17
761,93	1224,69
762,11	1249,26
762,28	1275,88
762,46	1286,12
762,64	1292,27
762,82	1304,56
763,00	1277,93
763,18	1314,80
763,35	1249,26
763,53	1277,93
763,71	1247,21
763,89	1210,35
764,07	1265,64
764,24	1325,04
764,42	1282,03
764,60	1265,64
764,78	1251,31
764,96	1239,02
765,13	1257,45
765,31	1279,98
765,49	1239,02
765,67	1304,56
765,84	1204,21
766,02	1275,88
766,20	1294,32
766,38	1206,25
766,56	1341,42
766,73	1224,69
766,91	1314,80
767,09	1290,22
767,27	1331,18
767,44	1271,79
767,62	1220,59
767,80	1279,98
767,98	1286,12
768,15	1271,79
768,33	1304,56
768,51	1277,93
768,69	1232,88
768,87	1308,65
769,04	1290,22
769,22	1322,99
769,40	1236,97
769,58	1271,79
769,75	1241,07
769,93	1253,36
770,11	1243,12
770,28	1230,83
770,46	1249,26
770,64	1247,21
770,82	1232,88
770,99	1304,56
771,17	1232,88
771,35	1306,60
771,53	1204,21
771,70	1290,22
771,88	1275,88
772,06	1265,64
772,23	1234,93
772,41	1261,55
772,59	1253,36
772,77	1243,12
772,94	1316,84
773,12	1230,83
773,30	1282,03
773,47	1232,88
773,65	1257,45
773,83	1167,34
774,01	1249,26
774,18	1343,47
774,36	1183,73
774,54	1310,70
774,71	1253,36
774,89	1271,79
775,07	1273,84
775,24	1282,03
775,42	1234,93
775,60	1337,32
775,78	1232,88
775,95	1239,02
776,13	1251,31
776,31	1263,60
776,48	1302,51
776,66	1357,80
776,84	1187,82
777,01	1271,79
777,19	1296,36
777,37	1257,45
777,54	1374,19
777,72	1257,45
777,90	1320,94
778,07	1312,75
778,25	1232,88
778,43	1239,02
778,60	1208,30
778,78	1269,74
778,96	1290,22
779,13	1251,31
779,31	1212,40
779,49	1206,25
779,66	1275,88
779,84	1226,73
780,01	1277,93
780,19	1277,93
780,37	1302,51
780,54	1337,32
780,72	1290,22
780,90	1286,12
781,07	1232,88
781,25	1165,29
781,43	1247,21
781,60	1314,80
781,78	1232,88
781,95	1259,50
782,13	1222,64
782,31	1265,64
782,48	1247,21
782,66	1277,93
782,83	1216,49
783,01	1290,22
783,19	1277,93
783,36	1279,98
783,54	1255,40
783,72	1296,36
783,89	1249,26
784,07	1226,73
784,24	1220,59
784,42	1292,27
784,60	1214,45
784,77	1259,50
784,95	1286,12
785,12	1294,32
785,30	1314,80
785,47	1298,41
785,65	1257,45
785,83	1259,50
786,00	1241,07
786,18	1306,60
786,35	1271,79
786,53	1259,50
786,71	1273,84
786,88	1271,79
787,06	1204,21
787,23	1265,64
787,41	1269,74
787,58	1249,26
787,76	1282,03
787,94	1296,36
788,11	1234,93
788,29	1286,12
788,46	1314,80
788,64	1304,56
788,81	1271,79
788,99	1318,89
789,16	1212,40
789,34	1150,96
789,52	1296,36
789,69	1282,03
789,87	1284,08
790,04	1263,60
790,22	1275,88
790,39	1222,64
790,57	1273,84
790,74	1259,50
790,92	1269,74
791,09	1304,56
791,27	1271,79
791,44	1247,21
791,62	1277,93
791,79	1216,49
791,97	1282,03
792,15	1284,08
792,32	1198,06
792,50	1286,12
792,67	1300,46
792,85	1273,84
793,02	1279,98
793,20	1236,97
793,37	1294,32
793,55	1316,84
793,72	1222,64
793,90	1239,02
794,07	1329,13
794,25	1224,69
794,42	1245,16
794,60	1208,30
794,77	1271,79
794,95	1226,73
795,12	1275,88
795,30	1273,84
795,47	1271,79
795,65	1282,03
795,82	1325,04
796,00	1222,64
796,17	1269,74
796,34	1314,80
796,52	1191,92
796,69	1259,50
796,87	1296,36
797,04	1273,84
797,22	1198,06
797,39	1263,60
797,57	1290,22
797,74	1224,69
797,92	1185,77
798,09	1206,25
798,27	1216,49
798,44	1310,70
798,62	1286,12
798,79	1263,60
798,96	1329,13
799,14	1271,79
799,31	1320,94
799,49	1306,60
799,66	1224,69
799,84	1224,69
800,01	1284,08
800,19	1273,84
800,36	1173,49
800,53	1341,42
800,71	1239,02
800,88	1222,64
801,06	1234,93
801,23	1261,55
801,41	1363,95
801,58	1222,64
801,75	1224,69
801,93	1161,20
802,10	1243,12
802,28	1282,03
802,45	1230,83
802,63	1232,88
802,80	1232,88
802,97	1288,17
803,15	1255,40
803,32	1245,16
803,50	1304,56
803,67	1259,50
803,84	1320,94
804,02	1279,98
804,19	1298,41
804,37	1282,03
804,54	1173,49
804,71	1284,08
804,89	1232,88
805,06	1234,93
805,24	1384,43
805,41	1282,03
805,58	1322,99
805,76	1267,69
805,93	1239,02
806,10	1249,26
806,28	1224,69
806,45	1282,03
806,63	1290,22
806,80	1275,88
806,97	1302,51
807,15	1286,12
807,32	1232,88
807,49	1245,16
807,67	1279,98
807,84	1257,45
808,01	1228,78
808,19	1318,89
808,36	1284,08
808,54	1224,69
808,71	1214,45
808,88	1312,75
809,06	1279,98
809,23	1224,69
809,40	1261,55
809,58	1239,02
809,75	1261,55
809,92	1267,69
810,10	1296,36
810,27	1187,82
810,44	1255,40
810,62	1265,64
810,79	1294,32
810,96	1302,51
811,14	1284,08
811,31	1253,36
811,48	1279,98
811,66	1273,84
811,83	1273,84
812,00	1243,12
812,18	1226,73
812,35	1308,65
812,52	1230,83
812,69	1255,40
812,87	1226,73
813,04	1169,39
813,21	1318,89
813,39	1306,60
813,56	1331,18
813,73	1290,22
813,91	1191,92
814,08	1318,89
814,25	1331,18
814,42	1269,74
814,60	1273,84
814,77	1312,75
814,94	1241,07
815,12	1314,80
815,29	1257,45
815,46	1255,40
815,63	1265,64
815,81	1241,07
815,98	1247,21
816,15	1294,32
816,33	1282,03
816,50	1224,69
816,67	1279,98
816,84	1241,07
817,02	1306,60
817,19	1200,11
817,36	1253,36
817,53	1333,23
817,71	1271,79
817,88	1257,45
818,05	1337,32
818,22	1255,40
818,40	1292,27
818,57	1261,55
818,74	1288,17
818,91	1271,79
819,09	1308,65
819,26	1241,07
819,43	1257,45
819,60	1191,92
819,78	1318,89
819,95	1298,41
820,12	1232,88
820,29	1273,84
820,47	1251,31
820,64	1271,79
820,81	1337,32
820,98	1210,35
821,15	1275,88
821,33	1300,46
821,50	1282,03
821,67	1247,21
821,84	1296,36
822,02	1265,64
822,19	1306,60
822,36	1214,45
822,53	1273,84
822,70	1316,84
822,88	1257,45
823,05	1333,23
823,22	1236,97
823,39	1306,60
823,56	1214,45
823,74	1239,02
823,91	1312,75
824,08	1253,36
824,25	1294,32
824,42	1279,98
824,60	1320,94
824,77	1290,22
824,94	1243,12
825,11	1230,83
825,28	1245,16
825,45	1284,08
825,63	1241,07
825,80	1271,79
825,97	1220,59
826,14	1243,12
826,31	1232,88
826,48	1288,17
826,66	1191,92
826,83	1228,78
827,00	1347,56
827,17	1265,64
827,34	1308,65
827,51	1247,21
827,69	1292,27
827,86	1279,98
828,03	1296,36
828,20	1320,94
828,37	1261,55
828,54	1239,02
828,71	1228,78
828,89	1304,56
829,06	1300,46
829,23	1316,84
829,40	1204,21
829,57	1294,32
829,74	1249,26
829,91	1230,83
830,09	1257,45
830,26	1267,69
830,43	1286,12
830,60	1271,79
830,77	1325,04
830,94	1249,26
831,11	1343,47
831,28	1187,82
831,46	1239,02
831,63	1241,07
831,80	1288,17
831,97	1239,02
832,14	1290,22
832,31	1216,49
832,48	1251,31
832,65	1267,69
832,82	1224,69
832,99	1226,73
833,17	1251,31
833,34	1277,93
833,51	1351,66
833,68	1200,11
833,85	1241,07
834,02	1224,69
834,19	1298,41
834,36	1269,74
834,53	1216,49
834,70	1261,55
834,87	1253,36
835,04	1267,69
835,22	1269,74
835,39	1191,92
835,56	1310,70
835,73	1331,18
835,90	1306,60
836,07	1220,59
836,24	1249,26
836,41	1314,80
836,58	1212,40
836,75	1279,98
836,92	1267,69
837,09	1265,64
837,26	1214,45
837,43	1335,28
837,60	1290,22
837,77	1267,69
837,94	1257,45
838,12	1257,45
838,29	1275,88
838,46	1232,88
838,63	1234,93
838,80	1282,03
838,97	1261,55
839,14	1279,98
839,31	1263,60
839,48	1320,94
839,65	1249,26
839,82	1345,52
839,99	1284,08
840,16	1322,99
840,33	1263,60
840,50	1294,32
840,67	1206,25
840,84	1288,17
841,01	1239,02
841,18	1263,60
841,35	1288,17
841,52	1234,93
841,69	1257,45
841,86	1302,51
842,03	1331,18
842,20	1284,08
842,37	1290,22
842,54	1288,17
842,71	1243,12
842,88	1261,55
843,05	1230,83
843,22	1279,98
843,39	1245,16
843,56	1265,64
843,73	1220,59
843,90	1265,64
844,07	1247,21
844,24	1253,36
844,41	1249,26
844,58	1314,80
844,75	1255,40
844,92	1273,84
845,09	1298,41
845,26	1265,64
845,43	1288,17
845,60	1298,41
845,77	1212,40
845,94	1339,37
846,10	1259,50
846,27	1212,40
846,44	1251,31
846,61	1228,78
846,78	1279,98
846,95	1212,40
847,12	1222,64
847,29	1265,64
847,46	1247,21
847,63	1331,18
847,80	1275,88
847,97	1300,46
848,14	1329,13
848,31	1218,54
848,48	1241,07
848,65	1267,69
848,82	1253,36
848,98	1290,22
849,15	1322,99
849,32	1228,78
849,49	1247,21
849,66	1306,60
849,83	1316,84
850,00	1263,60
850,17	1239,02
850,34	1236,97
850,51	1230,83
850,68	1314,80
850,85	1253,36
851,01	1261,55
851,18	1269,74
851,35	1294,32
851,52	1298,41
851,69	1343,47
851,86	1292,27
852,03	1273,84
852,20	1284,08
852,37	1390,57
852,53	1261,55
852,70	1222,64
852,87	1302,51
853,04	1290,22
853,21	1316,84
853,38	1232,88
853,55	1294,32
853,72	1267,69
853,89	1239,02
854,05	1284,08
854,22	1167,34
854,39	1249,26
854,56	1308,65
854,73	1286,12
854,90	1239,02
855,07	1302,51
855,23	1206,25
855,40	1312,75
855,57	1212,40
855,74	1222,64
855,91	1320,94
856,08	1216,49
856,25	1282,03
856,41	1312,75
856,58	1255,40
856,75	1259,50
856,92	1288,17
857,09	1279,98
857,26	1249,26
857,42	1259,50
857,59	1241,07
857,76	1247,21
857,93	1273,84
858,10	1316,84
858,27	1296,36
858,43	1288,17
858,60	1277,93
858,77	1267,69
858,94	1228,78
859,11	1239,02
859,27	1271,79
859,44	1370,09
859,61	1251,31
859,78	1302,51
859,95	1310,70
860,12	1290,22
860,28	1259,50
860,45	1308,65
860,62	1228,78
860,79	1222,64
860,95	1263,60
861,12	1275,88
861,29	1257,45
861,46	1322,99
861,63	1226,73
861,79	1277,93
861,96	1273,84
862,13	1314,80
862,30	1277,93
862,47	1306,60
862,63	1239,02
862,80	1226,73
862,97	1275,88
863,14	1189,87
863,30	1255,40
863,47	1255,40
863,64	1243,12
863,81	1249,26
863,97	1312,75
864,14	1247,21
864,31	1294,32
864,48	1226,73
864,65	1337,32
864,81	1271,79
864,98	1263,60
865,15	1255,40
865,32	1271,79
865,48	1245,16
865,65	1302,51
865,82	1277,93
865,98	1368,04
866,15	1183,73
866,32	1234,93
866,49	1228,78
866,65	1228,78
866,82	1255,40
866,99	1292,27
867,16	1290,22
867,32	1255,40
867,49	1347,56
867,66	1241,07
867,83	1163,25
867,99	1337,32
868,16	1218,54
868,33	1177,58
868,49	1230,83
868,66	1263,60
868,83	1310,70
868,99	1234,93
869,16	1241,07
869,33	1296,36
869,50	1271,79
869,66	1292,27
869,83	1345,52
870,00	1232,88
870,16	1269,74
870,33	1269,74
870,50	1306,60
870,66	1241,07
870,83	1312,75
871,00	1290,22
871,17	1218,54
871,33	1251,31
871,50	1161,20
871,67	1271,79
871,83	1220,59
872,00	1257,45
872,17	1310,70
872,33	1202,16
872,50	1308,65
872,67	1224,69
872,83	1228,78
873,00	1167,34
873,17	1259,50
873,33	1261,55
873,50	1269,74
873,67	1236,97
873,83	1288,17
874,00	1218,54
874,16	1198,06
874,33	1257,45
874,50	1273,84
874,66	1255,40
874,83	1249,26
875,00	1183,73
875,16	1249,26
875,33	1234,93
875,50	1179,63
875,66	1236,97
875,83	1279,98
875,99	1314,80
876,16	1333,23
876,33	1312,75
876,49	1247,21
876,66	1277,93
876,83	1329,13
876,99	1239,02
877,16	1282,03
877,32	1251,31
877,49	1357,80
877,66	1253,36
877,82	1355,76
877,99	1228,78
878,15	1314,80
878,32	1300,46
878,49	1239,02
878,65	1251,31
878,82	1286,12
878,98	1257,45
879,15	1236,97
879,32	1294,32
879,48	1296,36
879,65	1284,08
879,81	1351,66
879,98	1275,88
880,15	1214,45
880,31	1241,07
880,48	1300,46
880,64	1196,01
880,81	1304,56
880,97	1228,78
881,14	1261,55
881,31	1198,06
881,47	1273,84
881,64	1236,97
881,80	1247,21
881,97	1249,26
882,13	1232,88
882,30	1263,60
882,47	1257,45
882,63	1318,89
882,80	1288,17
882,96	1243,12
883,13	1216,49
883,29	1329,13
883,46	1288,17
883,62	1271,79
883,79	1282,03
883,95	1239,02
884,12	1247,21
884,29	1171,44
884,45	1327,08
884,62	1314,80
884,78	1214,45
884,95	1282,03
885,11	1247,21
885,28	1251,31
885,44	1298,41
885,61	1296,36
885,77	1239,02
885,94	1294,32
886,10	1263,60
886,27	1275,88
886,43	1300,46
886,60	1294,32
886,76	1327,08
886,93	1247,21
887,09	1224,69
887,26	1212,40
887,42	1259,50
887,59	1292,27
887,75	1378,28
887,92	1220,59
888,08	1298,41
888,25	1290,22
888,41	1263,60
888,58	1292,27
888,74	1257,45
888,91	1300,46
>>>>>End Processed Spectral Data<<<<<
