SpectraSuite Data File
++++++++++++++++++++++++++++++++++++
Date: Sun Apr 03 18:40:34 CEST 2016
User: root
Dark Spectrum Present: No
Reference Spectrum Present: No
Number of Sampled Component Spectra: 1
Spectrometers: USB4C02835
Integration Time (usec): 10000 (USB4C02835)
Spectra Averaged: 1 (USB4C02835)
Boxcar Smoothing: 0 (USB4C02835)
Correct for Electrical Dark: No (USB4C02835)
Strobe/Lamp Enabled: No (USB4C02835)
Correct for Detector Non-linearity: No (USB4C02835)
Correct for Stray Light: No (USB4C02835)
Number of Pixels in Processed Spectrum: 3648
>>>>>Begin Processed Spectral Data<<<<<
177,47	1243,12
177,69	1243,12
177,91	1243,12
178,13	1255,40
178,36	1241,07
178,58	1247,21
178,80	1306,60
179,02	1226,73
179,24	1279,98
179,46	1253,36
179,68	1277,93
179,90	1220,59
180,13	1265,64
180,35	1288,17
180,57	1267,69
180,79	1267,69
181,01	1265,64
181,23	1255,40
181,45	1226,73
181,67	1228,78
181,90	1271,79
182,12	1208,30
182,34	1226,73
182,56	1255,40
182,78	1239,02
183,00	1296,36
183,22	1302,51
183,44	1245,16
183,66	1288,17
183,89	1263,60
184,11	1288,17
184,33	1286,12
184,55	1234,93
184,77	1218,54
184,99	1331,18
185,21	1245,16
185,43	1284,08
185,65	1312,75
185,87	1259,50
186,10	1251,31
186,32	1292,27
186,54	1273,84
186,76	1220,59
186,98	1224,69
187,20	1273,84
187,42	1247,21
187,64	1269,74
187,86	1255,40
188,08	1255,40
188,30	1282,03
188,52	1269,74
188,75	1265,64
188,97	1282,03
189,19	1306,60
189,41	1298,41
189,63	1265,64
189,85	1277,93
190,07	1318,89
190,29	1198,06
190,51	1261,55
190,73	1273,84
190,95	1279,98
191,17	1288,17
191,39	1306,60
191,61	1236,97
191,84	1220,59
192,06	1282,03
192,28	1296,36
192,50	1273,84
192,72	1314,80
192,94	1271,79
193,16	1271,79
193,38	1196,01
193,60	1241,07
193,82	1339,37
194,04	1204,21
194,26	1318,89
194,48	1279,98
194,70	1273,84
194,92	1302,51
195,14	1271,79
195,36	1226,73
195,58	1255,40
195,80	1261,55
196,02	1253,36
196,24	1273,84
196,46	1277,93
196,69	1308,65
196,91	1277,93
197,13	1282,03
197,35	1255,40
197,57	1263,60
197,79	1261,55
198,01	1253,36
198,23	1290,22
198,45	1263,60
198,67	1312,75
198,89	1253,36
199,11	1257,45
199,33	1257,45
199,55	1255,40
199,77	1210,35
199,99	1327,08
200,21	1265,64
200,43	1175,53
200,65	1290,22
200,87	1198,06
201,09	1351,66
201,31	1282,03
201,53	1261,55
201,75	1288,17
201,97	1247,21
202,19	1200,11
202,41	1265,64
202,63	1253,36
202,85	1282,03
203,07	1300,46
203,29	1296,36
203,51	1273,84
203,73	1218,54
203,95	1261,55
204,17	1279,98
204,39	1216,49
204,61	1286,12
204,83	1249,26
205,05	1314,80
205,27	1282,03
205,49	1282,03
205,71	1214,45
205,93	1243,12
206,15	1257,45
206,37	1232,88
206,59	1277,93
206,81	1247,21
207,03	1253,36
207,25	1331,18
207,47	1200,11
207,69	1282,03
207,91	1241,07
208,13	1320,94
208,34	1316,84
208,56	1148,91
208,78	1290,22
209,00	1257,45
209,22	1251,31
209,44	1216,49
209,66	1284,08
209,88	1302,51
210,10	1222,64
210,32	1253,36
210,54	1259,50
210,76	1271,79
210,98	1284,08
211,20	1265,64
211,42	1390,57
211,64	1243,12
211,86	1296,36
212,08	1261,55
212,30	1282,03
212,52	1263,60
212,74	1306,60
212,96	1316,84
213,17	1257,45
213,39	1222,64
213,61	1277,93
213,83	1257,45
214,05	1329,13
214,27	1245,16
214,49	1288,17
214,71	1210,35
214,93	1253,36
215,15	1239,02
215,37	1247,21
215,59	1226,73
215,81	1279,98
216,03	1226,73
216,24	1245,16
216,46	1224,69
216,68	1271,79
216,90	1290,22
217,12	1253,36
217,34	1202,16
217,56	1273,84
217,78	1273,84
218,00	1304,56
218,22	1247,21
218,44	1257,45
218,66	1255,40
218,87	1271,79
219,09	1294,32
219,31	1255,40
219,53	1310,70
219,75	1327,08
219,97	1259,50
220,19	1357,80
220,41	1271,79
220,63	1312,75
220,85	1206,25
221,06	1286,12
221,28	1294,32
221,50	1247,21
221,72	1263,60
221,94	1239,02
222,16	1206,25
222,38	1368,04
222,60	1277,93
222,82	1243,12
223,03	1290,22
223,25	1259,50
223,47	1243,12
223,69	1220,59
223,91	1263,60
224,13	1275,88
224,35	1239,02
224,57	1263,60
224,78	1290,22
225,00	1247,21
225,22	1279,98
225,44	1183,73
225,66	1314,80
225,88	1314,80
226,10	1292,27
226,32	1302,51
226,53	1279,98
226,75	1282,03
226,97	1214,45
227,19	1243,12
227,41	1261,55
227,63	1316,84
227,85	1189,87
228,06	1275,88
228,28	1279,98
228,50	1259,50
228,72	1220,59
228,94	1222,64
229,16	1304,56
229,37	1247,21
229,59	1355,76
229,81	1284,08
230,03	1200,11
230,25	1212,40
230,47	1236,97
230,69	1241,07
230,90	1318,89
231,12	1302,51
231,34	1208,30
231,56	1357,80
231,78	1247,21
232,00	1279,98
232,21	1239,02
232,43	1226,73
232,65	1175,53
232,87	1259,50
233,09	1284,08
233,30	1284,08
233,52	1275,88
233,74	1228,78
233,96	1271,79
234,18	1232,88
234,40	1259,50
234,61	1308,65
234,83	1265,64
235,05	1167,34
235,27	1343,47
235,49	1273,84
235,70	1249,26
235,92	1214,45
236,14	1294,32
236,36	1296,36
236,58	1290,22
236,79	1208,30
237,01	1257,45
237,23	1288,17
237,45	1298,41
237,67	1259,50
237,88	1318,89
238,10	1312,75
238,32	1243,12
238,54	1253,36
238,76	1259,50
238,97	1329,13
239,19	1212,40
239,41	1269,74
239,63	1159,15
239,85	1294,32
240,06	1263,60
240,28	1294,32
240,50	1294,32
240,72	1253,36
240,93	1234,93
241,15	1267,69
241,37	1253,36
241,59	1306,60
241,81	1279,98
242,02	1232,88
242,24	1347,56
242,46	1296,36
242,68	1193,97
242,89	1200,11
243,11	1265,64
243,33	1265,64
243,55	1253,36
243,76	1298,41
243,98	1208,30
244,20	1226,73
244,42	1263,60
244,64	1243,12
244,85	1255,40
245,07	1255,40
245,29	1308,65
245,51	1218,54
245,72	1271,79
245,94	1279,98
246,16	1220,59
246,38	1202,16
246,59	1220,59
246,81	1181,68
247,03	1265,64
247,24	1267,69
247,46	1298,41
247,68	1294,32
247,90	1196,01
248,11	1267,69
248,33	1236,97
248,55	1325,04
248,77	1255,40
248,98	1333,23
249,20	1271,79
249,42	1318,89
249,64	1224,69
249,85	1193,97
250,07	1282,03
250,29	1247,21
250,50	1236,97
250,72	1257,45
250,94	1177,58
251,16	1267,69
251,37	1312,75
251,59	1306,60
251,81	1241,07
252,02	1245,16
252,24	1255,40
252,46	1306,60
252,68	1251,31
252,89	1292,27
253,11	1241,07
253,33	1380,33
253,54	1310,70
253,76	1224,69
253,98	1255,40
254,20	1290,22
254,41	1251,31
254,63	1282,03
254,85	1261,55
255,06	1277,93
255,28	1318,89
255,50	1271,79
255,71	1290,22
255,93	1282,03
256,15	1265,64
256,36	1247,21
256,58	1247,21
256,80	1294,32
257,02	1277,93
257,23	1288,17
257,45	1294,32
257,67	1308,65
257,88	1269,74
258,10	1351,66
258,32	1265,64
258,53	1282,03
258,75	1304,56
258,97	1263,60
259,18	1257,45
259,40	1269,74
259,62	1310,70
259,83	1265,64
260,05	1251,31
260,27	1245,16
260,48	1308,65
260,70	1296,36
260,92	1302,51
261,13	1312,75
261,35	1255,40
261,57	1279,98
261,78	1198,06
262,00	1275,88
262,22	1265,64
262,43	1245,16
262,65	1284,08
262,86	1329,13
263,08	1298,41
263,30	1265,64
263,51	1247,21
263,73	1275,88
263,95	1247,21
264,16	1312,75
264,38	1234,93
264,60	1284,08
264,81	1296,36
265,03	1322,99
265,25	1294,32
265,46	1253,36
265,68	1273,84
265,89	1241,07
266,11	1312,75
266,33	1234,93
266,54	1204,21
266,76	1247,21
266,98	1308,65
267,19	1249,26
267,41	1208,30
267,62	1286,12
267,84	1259,50
268,06	1265,64
268,27	1263,60
268,49	1298,41
268,70	1234,93
268,92	1288,17
269,14	1212,40
269,35	1261,55
269,57	1214,45
269,79	1245,16
270,00	1271,79
270,22	1284,08
270,43	1218,54
270,65	1243,12
270,87	1304,56
271,08	1292,27
271,30	1245,16
271,51	1333,23
271,73	1251,31
271,95	1265,64
272,16	1290,22
272,38	1247,21
272,59	1306,60
272,81	1236,97
273,02	1255,40
273,24	1312,75
273,46	1312,75
273,67	1325,04
273,89	1308,65
274,10	1306,60
274,32	1335,28
274,54	1314,80
274,75	1228,78
274,97	1271,79
275,18	1253,36
275,40	1304,56
275,61	1275,88
275,83	1339,37
276,05	1273,84
276,26	1275,88
276,48	1292,27
276,69	1314,80
276,91	1294,32
277,12	1255,40
277,34	1284,08
277,55	1282,03
277,77	1273,84
277,99	1271,79
278,20	1290,22
278,42	1312,75
278,63	1255,40
278,85	1277,93
279,06	1189,87
279,28	1308,65
279,49	1247,21
279,71	1300,46
279,93	1214,45
280,14	1253,36
280,36	1253,36
280,57	1308,65
280,79	1247,21
281,00	1288,17
281,22	1341,42
281,43	1249,26
281,65	1327,08
281,86	1232,88
282,08	1224,69
282,29	1259,50
282,51	1232,88
282,73	1228,78
282,94	1322,99
283,16	1329,13
283,37	1236,97
283,59	1232,88
283,80	1308,65
284,02	1378,28
284,23	1279,98
284,45	1202,16
284,66	1308,65
284,88	1271,79
285,09	1216,49
285,31	1234,93
285,52	1314,80
285,74	1310,70
285,95	1163,25
286,17	1284,08
286,38	1224,69
286,60	1181,68
286,81	1290,22
287,03	1273,84
287,24	1263,60
287,46	1327,08
287,67	1331,18
287,89	1282,03
288,10	1243,12
288,32	1271,79
288,53	1279,98
288,75	1245,16
288,96	1230,83
289,18	1220,59
289,39	1273,84
289,61	1292,27
289,82	1241,07
290,04	1318,89
290,25	1234,93
290,47	1255,40
290,68	1181,68
290,90	1193,97
291,11	1269,74
291,33	1257,45
291,54	1277,93
291,76	1306,60
291,97	1255,40
292,18	1290,22
292,40	1251,31
292,61	1286,12
292,83	1288,17
293,04	1241,07
293,26	1232,88
293,47	1267,69
293,69	1304,56
293,90	1314,80
294,12	1279,98
294,33	1226,73
294,55	1257,45
294,76	1296,36
294,97	1245,16
295,19	1253,36
295,40	1361,90
295,62	1259,50
295,83	1243,12
296,05	1161,20
296,26	1265,64
296,48	1255,40
296,69	1271,79
296,90	1243,12
297,12	1232,88
297,33	1243,12
297,55	1263,60
297,76	1247,21
297,98	1236,97
298,19	1267,69
298,41	1288,17
298,62	1292,27
298,83	1355,76
299,05	1271,79
299,26	1284,08
299,48	1314,80
299,69	1322,99
299,90	1310,70
300,12	1198,06
300,33	1210,35
300,55	1302,51
300,76	1245,16
300,98	1343,47
301,19	1335,28
301,40	1300,46
301,62	1218,54
301,83	1351,66
302,05	1269,74
302,26	1185,77
302,47	1255,40
302,69	1331,18
302,90	1241,07
303,12	1325,04
303,33	1300,46
303,54	1300,46
303,76	1279,98
303,97	1267,69
304,19	1243,12
304,40	1257,45
304,61	1298,41
304,83	1245,16
305,04	1296,36
305,26	1232,88
305,47	1261,55
305,68	1247,21
305,90	1228,78
306,11	1247,21
306,33	1306,60
306,54	1320,94
306,75	1271,79
306,97	1271,79
307,18	1249,26
307,39	1347,56
307,61	1288,17
307,82	1292,27
308,04	1345,52
308,25	1316,84
308,46	1314,80
308,68	1249,26
308,89	1310,70
309,10	1245,16
309,32	1372,14
309,53	1304,56
309,74	1241,07
309,96	1234,93
310,17	1269,74
310,39	1292,27
310,60	1257,45
310,81	1257,45
311,03	1232,88
311,24	1290,22
311,45	1304,56
311,67	1259,50
311,88	1230,83
312,09	1253,36
312,31	1255,40
312,52	1318,89
312,73	1298,41
312,95	1187,82
313,16	1247,21
313,37	1206,25
313,59	1343,47
313,80	1257,45
314,01	1339,37
314,23	1345,52
314,44	1296,36
314,65	1245,16
314,87	1251,31
315,08	1251,31
315,29	1206,25
315,51	1341,42
315,72	1249,26
315,93	1296,36
316,15	1234,93
316,36	1263,60
316,57	1263,60
316,79	1282,03
317,00	1226,73
317,21	1310,70
317,43	1300,46
317,64	1267,69
317,85	1277,93
318,07	1370,09
318,28	1239,02
318,49	1239,02
318,70	1294,32
318,92	1265,64
319,13	1228,78
319,34	1179,63
319,56	1298,41
319,77	1224,69
319,98	1247,21
320,20	1181,68
320,41	1241,07
320,62	1300,46
320,83	1249,26
321,05	1271,79
321,26	1263,60
321,47	1200,11
321,69	1228,78
321,90	1282,03
322,11	1286,12
322,32	1267,69
322,54	1296,36
322,75	1318,89
322,96	1236,97
323,18	1302,51
323,39	1271,79
323,60	1290,22
323,81	1298,41
324,03	1282,03
324,24	1290,22
324,45	1216,49
324,66	1208,30
324,88	1292,27
325,09	1200,11
325,30	1329,13
325,52	1218,54
325,73	1214,45
325,94	1284,08
326,15	1200,11
326,37	1277,93
326,58	1273,84
326,79	1257,45
327,00	1210,35
327,22	1314,80
327,43	1284,08
327,64	1230,83
327,85	1300,46
328,07	1351,66
328,28	1273,84
328,49	1257,45
328,70	1257,45
328,92	1269,74
329,13	1304,56
329,34	1249,26
329,55	1267,69
329,76	1339,37
329,98	1275,88
330,19	1304,56
330,40	1245,16
330,61	1198,06
330,83	1226,73
331,04	1267,69
331,25	1286,12
331,46	1257,45
331,68	1277,93
331,89	1286,12
332,10	1212,40
332,31	1228,78
332,52	1273,84
332,74	1296,36
332,95	1279,98
333,16	1265,64
333,37	1312,75
333,58	1241,07
333,80	1245,16
334,01	1337,32
334,22	1228,78
334,43	1265,64
334,64	1306,60
334,86	1290,22
335,07	1265,64
335,28	1331,18
335,49	1273,84
335,70	1200,11
335,92	1359,85
336,13	1261,55
336,34	1277,93
336,55	1277,93
336,76	1243,12
336,98	1271,79
337,19	1257,45
337,40	1251,31
337,61	1202,16
337,82	1226,73
338,04	1273,84
338,25	1273,84
338,46	1269,74
338,67	1302,51
338,88	1257,45
339,09	1253,36
339,31	1265,64
339,52	1243,12
339,73	1290,22
339,94	1216,49
340,15	1286,12
340,36	1308,65
340,58	1239,02
340,79	1267,69
341,00	1259,50
341,21	1265,64
341,42	1212,40
341,63	1304,56
341,85	1236,97
342,06	1255,40
342,27	1232,88
342,48	1255,40
342,69	1261,55
342,90	1296,36
343,12	1335,28
343,33	1290,22
343,54	1320,94
343,75	1255,40
343,96	1218,54
344,17	1343,47
344,38	1230,83
344,60	1325,04
344,81	1275,88
345,02	1335,28
345,23	1267,69
345,44	1241,07
345,65	1306,60
345,86	1273,84
346,07	1255,40
346,29	1275,88
346,50	1304,56
346,71	1378,28
346,92	1312,75
347,13	1275,88
347,34	1277,93
347,55	1288,17
347,76	1247,21
347,98	1300,46
348,19	1271,79
348,40	1245,16
348,61	1320,94
348,82	1247,21
349,03	1261,55
349,24	1224,69
349,45	1269,74
349,66	1298,41
349,88	1251,31
350,09	1265,64
350,30	1298,41
350,51	1232,88
350,72	1282,03
350,93	1255,40
351,14	1296,36
351,35	1298,41
351,56	1245,16
351,77	1351,66
351,99	1202,16
352,20	1279,98
352,41	1263,60
352,62	1234,93
352,83	1331,18
353,04	1230,83
353,25	1320,94
353,46	1292,27
353,67	1239,02
353,88	1239,02
354,09	1290,22
354,30	1282,03
354,52	1193,97
354,73	1300,46
354,94	1271,79
355,15	1263,60
355,36	1271,79
355,57	1251,31
355,78	1296,36
355,99	1249,26
356,20	1255,40
356,41	1316,84
356,62	1226,73
356,83	1308,65
357,04	1300,46
357,25	1265,64
357,46	1292,27
357,68	1257,45
357,89	1308,65
358,10	1296,36
358,31	1335,28
358,52	1232,88
358,73	1204,21
358,94	1222,64
359,15	1304,56
359,36	1277,93
359,57	1345,52
359,78	1206,25
359,99	1329,13
360,20	1267,69
360,41	1288,17
360,62	1247,21
360,83	1267,69
361,04	1298,41
361,25	1191,92
361,46	1294,32
361,67	1198,06
361,88	1228,78
362,09	1298,41
362,30	1247,21
362,51	1275,88
362,72	1339,37
362,93	1261,55
363,14	1282,03
363,35	1191,92
363,56	1306,60
363,78	1230,83
363,99	1265,64
364,20	1265,64
364,41	1308,65
364,62	1261,55
364,83	1208,30
365,04	1234,93
365,25	1239,02
365,46	1249,26
365,67	1265,64
365,88	1286,12
366,09	1318,89
366,30	1271,79
366,51	1286,12
366,72	1279,98
366,93	1296,36
367,14	1224,69
367,35	1253,36
367,56	1306,60
367,77	1232,88
367,98	1271,79
368,18	1300,46
368,39	1259,50
368,60	1292,27
368,81	1234,93
369,02	1255,40
369,23	1275,88
369,44	1277,93
369,65	1253,36
369,86	1372,14
370,07	1267,69
370,28	1230,83
370,49	1222,64
370,70	1269,74
370,91	1288,17
371,12	1239,02
371,33	1183,73
371,54	1247,21
371,75	1269,74
371,96	1279,98
372,17	1300,46
372,38	1220,59
372,59	1257,45
372,80	1255,40
373,01	1304,56
373,22	1253,36
373,43	1327,08
373,64	1288,17
373,85	1228,78
374,06	1327,08
374,26	1353,71
374,47	1288,17
374,68	1175,53
374,89	1232,88
375,10	1187,82
375,31	1290,22
375,52	1292,27
375,73	1255,40
375,94	1290,22
376,15	1273,84
376,36	1302,51
376,57	1273,84
376,78	1245,16
376,99	1290,22
377,20	1220,59
377,40	1279,98
377,61	1208,30
377,82	1339,37
378,03	1255,40
378,24	1241,07
378,45	1282,03
378,66	1329,13
378,87	1292,27
379,08	1282,03
379,29	1298,41
379,50	1175,53
379,71	1243,12
379,91	1271,79
380,12	1282,03
380,33	1251,31
380,54	1329,13
380,75	1282,03
380,96	1286,12
381,17	1200,11
381,38	1361,90
381,59	1259,50
381,80	1243,12
382,00	1257,45
382,21	1259,50
382,42	1296,36
382,63	1196,01
382,84	1263,60
383,05	1282,03
383,26	1298,41
383,47	1306,60
383,68	1263,60
383,88	1298,41
384,09	1263,60
384,30	1193,97
384,51	1269,74
384,72	1251,31
384,93	1279,98
385,14	1245,16
385,35	1259,50
385,55	1210,35
385,76	1314,80
385,97	1198,06
386,18	1318,89
386,39	1257,45
386,60	1296,36
386,81	1308,65
387,02	1288,17
387,22	1263,60
387,43	1271,79
387,64	1208,30
387,85	1183,73
388,06	1271,79
388,27	1265,64
388,48	1267,69
388,68	1232,88
388,89	1331,18
389,10	1302,51
389,31	1261,55
389,52	1306,60
389,73	1284,08
389,93	1327,08
390,14	1296,36
390,35	1263,60
390,56	1255,40
390,77	1296,36
390,98	1345,52
391,18	1273,84
391,39	1273,84
391,60	1236,97
391,81	1331,18
392,02	1320,94
392,23	1243,12
392,43	1279,98
392,64	1239,02
392,85	1249,26
393,06	1230,83
393,27	1269,74
393,47	1304,56
393,68	1257,45
393,89	1202,16
394,10	1226,73
394,31	1236,97
394,52	1216,49
394,72	1271,79
394,93	1284,08
395,14	1267,69
395,35	1273,84
395,56	1292,27
395,76	1286,12
395,97	1236,97
396,18	1310,70
396,39	1277,93
396,60	1320,94
396,80	1208,30
397,01	1322,99
397,22	1331,18
397,43	1273,84
397,64	1286,12
397,84	1290,22
398,05	1259,50
398,26	1220,59
398,47	1337,32
398,67	1271,79
398,88	1304,56
399,09	1337,32
399,30	1239,02
399,51	1241,07
399,71	1243,12
399,92	1259,50
400,13	1294,32
400,34	1191,92
400,54	1300,46
400,75	1275,88
400,96	1282,03
401,17	1214,45
401,37	1249,26
401,58	1273,84
401,79	1241,07
402,00	1253,36
402,21	1251,31
402,41	1273,84
402,62	1239,02
402,83	1247,21
403,04	1269,74
403,24	1282,03
403,45	1265,64
403,66	1261,55
403,87	1255,40
404,07	1234,93
404,28	1275,88
404,49	1288,17
404,70	1333,23
404,90	1247,21
405,11	1327,08
405,32	1249,26
405,52	1216,49
405,73	1191,92
405,94	1234,93
406,15	1304,56
406,35	1249,26
406,56	1312,75
406,77	1257,45
406,98	1288,17
407,18	1265,64
407,39	1239,02
407,60	1206,25
407,80	1296,36
408,01	1265,64
408,22	1255,40
408,43	1230,83
408,63	1208,30
408,84	1271,79
409,05	1171,44
409,25	1220,59
409,46	1282,03
409,67	1343,47
409,88	1257,45
410,08	1314,80
410,29	1230,83
410,50	1275,88
410,70	1318,89
410,91	1271,79
411,12	1263,60
411,32	1249,26
411,53	1298,41
411,74	1273,84
411,95	1282,03
412,15	1298,41
412,36	1327,08
412,57	1294,32
412,77	1243,12
412,98	1308,65
413,19	1251,31
413,39	1253,36
413,60	1249,26
413,81	1312,75
414,01	1359,85
414,22	1292,27
414,43	1269,74
414,63	1263,60
414,84	1329,13
415,05	1282,03
415,25	1306,60
415,46	1239,02
415,67	1288,17
415,87	1263,60
416,08	1279,98
416,29	1304,56
416,49	1249,26
416,70	1298,41
416,91	1279,98
417,11	1261,55
417,32	1349,61
417,53	1185,77
417,73	1257,45
417,94	1267,69
418,15	1314,80
418,35	1296,36
418,56	1196,01
418,77	1308,65
418,97	1210,35
419,18	1288,17
419,38	1384,43
419,59	1265,64
419,80	1273,84
420,00	1226,73
420,21	1304,56
420,42	1224,69
420,62	1267,69
420,83	1288,17
421,04	1273,84
421,24	1284,08
421,45	1314,80
421,65	1335,28
421,86	1251,31
422,07	1253,36
422,27	1261,55
422,48	1273,84
422,69	1249,26
422,89	1232,88
423,10	1275,88
423,30	1230,83
423,51	1273,84
423,72	1288,17
423,92	1265,64
424,13	1259,50
424,33	1239,02
424,54	1265,64
424,75	1216,49
424,95	1255,40
425,16	1275,88
425,36	1284,08
425,57	1351,66
425,78	1294,32
425,98	1314,80
426,19	1300,46
426,39	1255,40
426,60	1208,30
426,81	1193,97
427,01	1257,45
427,22	1214,45
427,42	1253,36
427,63	1275,88
427,83	1234,93
428,04	1290,22
428,25	1259,50
428,45	1261,55
428,66	1224,69
428,86	1271,79
429,07	1200,11
429,28	1204,21
429,48	1296,36
429,69	1275,88
429,89	1216,49
430,10	1224,69
430,30	1236,97
430,51	1255,40
430,71	1249,26
430,92	1208,30
431,13	1226,73
431,33	1296,36
431,54	1292,27
431,74	1245,16
431,95	1355,76
432,15	1282,03
432,36	1249,26
432,56	1257,45
432,77	1271,79
432,98	1322,99
433,18	1253,36
433,39	1222,64
433,59	1204,21
433,80	1267,69
434,00	1286,12
434,21	1273,84
434,41	1312,75
434,62	1306,60
434,82	1247,21
435,03	1239,02
435,23	1308,65
435,44	1308,65
435,64	1255,40
435,85	1245,16
436,06	1273,84
436,26	1308,65
436,47	1187,82
436,67	1310,70
436,88	1243,12
437,08	1402,86
437,29	1308,65
437,49	1249,26
437,70	1277,93
437,90	1292,27
438,11	1290,22
438,31	1230,83
438,52	1226,73
438,72	1239,02
438,93	1300,46
439,13	1249,26
439,34	1294,32
439,54	1284,08
439,75	1265,64
439,95	1208,30
440,16	1202,16
440,36	1257,45
440,57	1255,40
440,77	1308,65
440,98	1265,64
441,18	1261,55
441,39	1255,40
441,59	1271,79
441,80	1349,61
442,00	1222,64
442,21	1243,12
442,41	1298,41
442,62	1298,41
442,82	1226,73
443,02	1292,27
443,23	1259,50
443,43	1314,80
443,64	1220,59
443,84	1191,92
444,05	1308,65
444,25	1228,78
444,46	1247,21
444,66	1236,97
444,87	1273,84
445,07	1269,74
445,28	1261,55
445,48	1286,12
445,69	1236,97
445,89	1288,17
446,09	1214,45
446,30	1263,60
446,50	1255,40
446,71	1239,02
446,91	1329,13
447,12	1206,25
447,32	1273,84
447,53	1298,41
447,73	1271,79
447,93	1220,59
448,14	1259,50
448,34	1351,66
448,55	1322,99
448,75	1263,60
448,96	1259,50
449,16	1214,45
449,36	1331,18
449,57	1263,60
449,77	1214,45
449,98	1286,12
450,18	1318,89
450,39	1265,64
450,59	1259,50
450,79	1316,84
451,00	1282,03
451,20	1267,69
451,41	1296,36
451,61	1239,02
451,81	1290,22
452,02	1261,55
452,22	1234,93
452,43	1269,74
452,63	1243,12
452,84	1230,83
453,04	1277,93
453,24	1241,07
453,45	1239,02
453,65	1257,45
453,86	1247,21
454,06	1245,16
454,26	1263,60
454,47	1255,40
454,67	1198,06
454,87	1337,32
455,08	1247,21
455,28	1239,02
455,49	1312,75
455,69	1312,75
455,89	1310,70
456,10	1212,40
456,30	1253,36
456,51	1216,49
456,71	1224,69
456,91	1234,93
457,12	1212,40
457,32	1327,08
457,52	1302,51
457,73	1234,93
457,93	1298,41
458,14	1282,03
458,34	1294,32
458,54	1253,36
458,75	1279,98
458,95	1226,73
459,15	1261,55
459,36	1298,41
459,56	1302,51
459,76	1193,97
459,97	1294,32
460,17	1292,27
460,37	1296,36
460,58	1269,74
460,78	1249,26
460,99	1255,40
461,19	1333,23
461,39	1277,93
461,60	1255,40
461,80	1230,83
462,00	1300,46
462,21	1243,12
462,41	1275,88
462,61	1224,69
462,82	1343,47
463,02	1277,93
463,22	1263,60
463,43	1314,80
463,63	1322,99
463,83	1292,27
464,04	1249,26
464,24	1241,07
464,44	1241,07
464,64	1257,45
464,85	1282,03
465,05	1294,32
465,25	1249,26
465,46	1273,84
465,66	1224,69
465,86	1322,99
466,07	1198,06
466,27	1279,98
466,47	1345,52
466,68	1226,73
466,88	1290,22
467,08	1275,88
467,29	1269,74
467,49	1232,88
467,69	1298,41
467,89	1279,98
468,10	1216,49
468,30	1239,02
468,50	1148,91
468,71	1191,92
468,91	1279,98
469,11	1243,12
469,31	1288,17
469,52	1273,84
469,72	1308,65
469,92	1263,60
470,13	1263,60
470,33	1232,88
470,53	1200,11
470,73	1302,51
470,94	1230,83
471,14	1261,55
471,34	1259,50
471,54	1251,31
471,75	1292,27
471,95	1359,85
472,15	1255,40
472,36	1236,97
472,56	1265,64
472,76	1230,83
472,96	1314,80
473,17	1185,77
473,37	1279,98
473,57	1308,65
473,77	1273,84
473,98	1363,95
474,18	1234,93
474,38	1288,17
474,58	1273,84
474,79	1269,74
474,99	1325,04
475,19	1222,64
475,39	1230,83
475,60	1265,64
475,80	1306,60
476,00	1226,73
476,20	1290,22
476,41	1255,40
476,61	1298,41
476,81	1275,88
477,01	1230,83
477,21	1247,21
477,42	1273,84
477,62	1234,93
477,82	1220,59
478,02	1218,54
478,23	1312,75
478,43	1286,12
478,63	1257,45
478,83	1265,64
479,03	1234,93
479,24	1228,78
479,44	1308,65
479,64	1353,71
479,84	1232,88
480,04	1294,32
480,25	1247,21
480,45	1290,22
480,65	1259,50
480,85	1267,69
481,06	1259,50
481,26	1249,26
481,46	1269,74
481,66	1234,93
481,86	1214,45
482,06	1220,59
482,27	1212,40
482,47	1271,79
482,67	1312,75
482,87	1251,31
483,07	1302,51
483,28	1220,59
483,48	1300,46
483,68	1249,26
483,88	1249,26
484,08	1255,40
484,29	1224,69
484,49	1374,19
484,69	1290,22
484,89	1302,51
485,09	1251,31
485,29	1218,54
485,50	1296,36
485,70	1290,22
485,90	1255,40
486,10	1294,32
486,30	1257,45
486,50	1226,73
486,71	1304,56
486,91	1257,45
487,11	1322,99
487,31	1222,64
487,51	1257,45
487,71	1263,60
487,91	1290,22
488,12	1245,16
488,32	1261,55
488,52	1347,56
488,72	1275,88
488,92	1212,40
489,12	1249,26
489,32	1255,40
489,53	1277,93
489,73	1234,93
489,93	1259,50
490,13	1261,55
490,33	1200,11
490,53	1279,98
490,73	1267,69
490,94	1359,85
491,14	1296,36
491,34	1255,40
491,54	1226,73
491,74	1236,97
491,94	1347,56
492,14	1288,17
492,34	1273,84
492,54	1271,79
492,75	1249,26
492,95	1284,08
493,15	1370,09
493,35	1322,99
493,55	1306,60
493,75	1296,36
493,95	1239,02
494,15	1343,47
494,35	1288,17
494,56	1177,58
494,76	1241,07
494,96	1245,16
495,16	1361,90
495,36	1271,79
495,56	1286,12
495,76	1253,36
495,96	1243,12
496,16	1216,49
496,36	1341,42
496,56	1265,64
496,77	1236,97
496,97	1329,13
497,17	1218,54
497,37	1165,29
497,57	1290,22
497,77	1239,02
497,97	1228,78
498,17	1261,55
498,37	1216,49
498,57	1232,88
498,77	1259,50
498,97	1304,56
499,17	1288,17
499,38	1230,83
499,58	1290,22
499,78	1226,73
499,98	1320,94
500,18	1277,93
500,38	1277,93
500,58	1269,74
500,78	1304,56
500,98	1298,41
501,18	1251,31
501,38	1241,07
501,58	1320,94
501,78	1257,45
501,98	1277,93
502,18	1320,94
502,38	1310,70
502,58	1294,32
502,78	1189,87
502,98	1247,21
503,18	1236,97
503,38	1355,76
503,59	1251,31
503,79	1253,36
503,99	1277,93
504,19	1376,24
504,39	1206,25
504,59	1204,21
504,79	1372,14
504,99	1288,17
505,19	1247,21
505,39	1269,74
505,59	1241,07
505,79	1269,74
505,99	1232,88
506,19	1271,79
506,39	1273,84
506,59	1253,36
506,79	1257,45
506,99	1208,30
507,19	1255,40
507,39	1284,08
507,59	1228,78
507,79	1345,52
507,99	1286,12
508,19	1345,52
508,39	1273,84
508,59	1253,36
508,79	1300,46
508,99	1253,36
509,19	1284,08
509,39	1267,69
509,59	1255,40
509,79	1292,27
509,99	1316,84
510,19	1300,46
510,39	1306,60
510,59	1253,36
510,79	1277,93
510,99	1306,60
511,19	1304,56
511,39	1318,89
511,59	1294,32
511,79	1247,21
511,99	1232,88
512,19	1341,42
512,38	1230,83
512,58	1269,74
512,78	1218,54
512,98	1251,31
513,18	1259,50
513,38	1183,73
513,58	1304,56
513,78	1327,08
513,98	1183,73
514,18	1275,88
514,38	1265,64
514,58	1251,31
514,78	1222,64
514,98	1218,54
515,18	1257,45
515,38	1212,40
515,58	1249,26
515,78	1222,64
515,98	1249,26
516,18	1251,31
516,38	1212,40
516,57	1300,46
516,77	1234,93
516,97	1298,41
517,17	1232,88
517,37	1236,97
517,57	1277,93
517,77	1249,26
517,97	1234,93
518,17	1302,51
518,37	1275,88
518,57	1273,84
518,77	1208,30
518,97	1247,21
519,16	1314,80
519,36	1236,97
519,56	1247,21
519,76	1228,78
519,96	1210,35
520,16	1239,02
520,36	1218,54
520,56	1308,65
520,76	1265,64
520,96	1306,60
521,16	1275,88
521,35	1263,60
521,55	1193,97
521,75	1208,30
521,95	1282,03
522,15	1204,21
522,35	1232,88
522,55	1236,97
522,75	1320,94
522,95	1222,64
523,14	1296,36
523,34	1247,21
523,54	1273,84
523,74	1275,88
523,94	1284,08
524,14	1257,45
524,34	1296,36
524,54	1226,73
524,73	1198,06
524,93	1286,12
525,13	1279,98
525,33	1292,27
525,53	1214,45
525,73	1296,36
525,93	1230,83
526,13	1187,82
526,32	1314,80
526,52	1275,88
526,72	1282,03
526,92	1245,16
527,12	1265,64
527,32	1198,06
527,52	1245,16
527,71	1279,98
527,91	1296,36
528,11	1255,40
528,31	1320,94
528,51	1282,03
528,71	1241,07
528,90	1245,16
529,10	1245,16
529,30	1187,82
529,50	1294,32
529,70	1310,70
529,90	1228,78
530,09	1249,26
530,29	1259,50
530,49	1265,64
530,69	1290,22
530,89	1271,79
531,09	1267,69
531,28	1200,11
531,48	1286,12
531,68	1257,45
531,88	1222,64
532,08	1241,07
532,28	1292,27
532,47	1279,98
532,67	1220,59
532,87	1322,99
533,07	1245,16
533,27	1265,64
533,46	1226,73
533,66	1325,04
533,86	1304,56
534,06	1279,98
534,26	1292,27
534,45	1288,17
534,65	1286,12
534,85	1236,97
535,05	1257,45
535,25	1239,02
535,44	1335,28
535,64	1236,97
535,84	1273,84
536,04	1247,21
536,24	1320,94
536,43	1314,80
536,63	1279,98
536,83	1335,28
537,03	1269,74
537,22	1220,59
537,42	1265,64
537,62	1243,12
537,82	1193,97
538,02	1302,51
538,21	1302,51
538,41	1218,54
538,61	1275,88
538,81	1308,65
539,00	1271,79
539,20	1269,74
539,40	1230,83
539,60	1251,31
539,79	1294,32
539,99	1306,60
540,19	1202,16
540,39	1259,50
540,58	1376,24
540,78	1292,27
540,98	1257,45
541,18	1249,26
541,37	1218,54
541,57	1236,97
541,77	1290,22
541,97	1290,22
542,16	1275,88
542,36	1249,26
542,56	1339,37
542,76	1224,69
542,95	1249,26
543,15	1325,04
543,35	1273,84
543,54	1261,55
543,74	1282,03
543,94	1345,52
544,14	1314,80
544,33	1204,21
544,53	1288,17
544,73	1282,03
544,93	1271,79
545,12	1243,12
545,32	1314,80
545,52	1226,73
545,71	1193,97
545,91	1191,92
546,11	1275,88
546,30	1253,36
546,50	1343,47
546,70	1294,32
546,90	1329,13
547,09	1275,88
547,29	1263,60
547,49	1232,88
547,68	1208,30
547,88	1300,46
548,08	1253,36
548,27	1314,80
548,47	1322,99
548,67	1255,40
548,87	1345,52
549,06	1243,12
549,26	1282,03
549,46	1265,64
549,65	1302,51
549,85	1333,23
550,05	1239,02
550,24	1353,71
550,44	1345,52
550,64	1251,31
550,83	1306,60
551,03	1253,36
551,23	1296,36
551,42	1247,21
551,62	1284,08
551,82	1230,83
552,01	1181,68
552,21	1333,23
552,41	1304,56
552,60	1255,40
552,80	1251,31
553,00	1208,30
553,19	1228,78
553,39	1232,88
553,59	1273,84
553,78	1175,53
553,98	1251,31
554,17	1200,11
554,37	1277,93
554,57	1306,60
554,76	1304,56
554,96	1273,84
555,16	1253,36
555,35	1214,45
555,55	1282,03
555,75	1271,79
555,94	1282,03
556,14	1239,02
556,33	1329,13
556,53	1286,12
556,73	1263,60
556,92	1243,12
557,12	1230,83
557,32	1275,88
557,51	1249,26
557,71	1241,07
557,90	1292,27
558,10	1322,99
558,30	1310,70
558,49	1296,36
558,69	1179,63
558,88	1249,26
559,08	1259,50
559,28	1232,88
559,47	1271,79
559,67	1300,46
559,86	1249,26
560,06	1265,64
560,26	1247,21
560,45	1261,55
560,65	1247,21
560,84	1353,71
561,04	1261,55
561,24	1271,79
561,43	1306,60
561,63	1290,22
561,82	1259,50
562,02	1275,88
562,22	1269,74
562,41	1251,31
562,61	1226,73
562,80	1277,93
563,00	1226,73
563,19	1380,33
563,39	1306,60
563,59	1282,03
563,78	1198,06
563,98	1308,65
564,17	1277,93
564,37	1263,60
564,56	1304,56
564,76	1288,17
564,96	1257,45
565,15	1300,46
565,35	1265,64
565,54	1220,59
565,74	1210,35
565,93	1308,65
566,13	1351,66
566,32	1333,23
566,52	1259,50
566,71	1247,21
566,91	1232,88
567,11	1259,50
567,30	1273,84
567,50	1267,69
567,69	1261,55
567,89	1290,22
568,08	1267,69
568,28	1261,55
568,47	1239,02
568,67	1341,42
568,86	1236,97
569,06	1259,50
569,25	1314,80
569,45	1216,49
569,64	1261,55
569,84	1253,36
570,04	1329,13
570,23	1239,02
570,43	1222,64
570,62	1245,16
570,82	1247,21
571,01	1271,79
571,21	1191,92
571,40	1286,12
571,60	1294,32
571,79	1234,93
571,99	1232,88
572,18	1183,73
572,38	1247,21
572,57	1220,59
572,77	1257,45
572,96	1306,60
573,16	1232,88
573,35	1243,12
573,55	1249,26
573,74	1308,65
573,94	1282,03
574,13	1302,51
574,33	1210,35
574,52	1257,45
574,71	1222,64
574,91	1275,88
575,10	1271,79
575,30	1263,60
575,49	1236,97
575,69	1208,30
575,88	1243,12
576,08	1198,06
576,27	1304,56
576,47	1222,64
576,66	1275,88
576,86	1216,49
577,05	1267,69
577,25	1275,88
577,44	1290,22
577,64	1267,69
577,83	1239,02
578,02	1257,45
578,22	1245,16
578,41	1343,47
578,61	1322,99
578,80	1302,51
579,00	1247,21
579,19	1269,74
579,39	1275,88
579,58	1251,31
579,77	1290,22
579,97	1230,83
580,16	1368,04
580,36	1214,45
580,55	1296,36
580,75	1329,13
580,94	1325,04
581,13	1204,21
581,33	1232,88
581,52	1243,12
581,72	1269,74
581,91	1279,98
582,11	1212,40
582,30	1306,60
582,49	1189,87
582,69	1284,08
582,88	1224,69
583,08	1236,97
583,27	1304,56
583,47	1320,94
583,66	1282,03
583,85	1234,93
584,05	1265,64
584,24	1216,49
584,44	1257,45
584,63	1275,88
584,82	1257,45
585,02	1271,79
585,21	1304,56
585,41	1232,88
585,60	1265,64
585,79	1302,51
585,99	1304,56
586,18	1347,56
586,37	1177,58
586,57	1239,02
586,76	1279,98
586,96	1312,75
587,15	1288,17
587,34	1288,17
587,54	1261,55
587,73	1230,83
587,93	1247,21
588,12	1263,60
588,31	1275,88
588,51	1290,22
588,70	1257,45
588,89	1353,71
589,09	1322,99
589,28	1224,69
589,47	1290,22
589,67	1331,18
589,86	1261,55
590,06	1241,07
590,25	1263,60
590,44	1255,40
590,64	1259,50
590,83	1210,35
591,02	1261,55
591,22	1167,34
591,41	1191,92
591,60	1257,45
591,80	1282,03
591,99	1284,08
592,18	1286,12
592,38	1191,92
592,57	1273,84
592,76	1243,12
592,96	1193,97
593,15	1245,16
593,34	1308,65
593,54	1273,84
593,73	1239,02
593,92	1245,16
594,12	1288,17
594,31	1271,79
594,50	1292,27
594,70	1263,60
594,89	1290,22
595,08	1247,21
595,28	1243,12
595,47	1284,08
595,66	1327,08
595,86	1247,21
596,05	1210,35
596,24	1300,46
596,43	1257,45
596,63	1284,08
596,82	1224,69
597,01	1232,88
597,21	1226,73
597,40	1294,32
597,59	1236,97
597,79	1302,51
597,98	1187,82
598,17	1249,26
598,36	1282,03
598,56	1271,79
598,75	1271,79
598,94	1279,98
599,14	1259,50
599,33	1331,18
599,52	1265,64
599,71	1220,59
599,91	1185,77
600,10	1228,78
600,29	1279,98
600,48	1306,60
600,68	1290,22
600,87	1279,98
601,06	1310,70
601,26	1267,69
601,45	1234,93
601,64	1271,79
601,83	1292,27
602,03	1318,89
602,22	1333,23
602,41	1296,36
602,60	1284,08
602,80	1292,27
602,99	1308,65
603,18	1206,25
603,37	1267,69
603,57	1228,78
603,76	1304,56
603,95	1230,83
604,14	1275,88
604,34	1144,81
604,53	1290,22
604,72	1239,02
604,91	1269,74
605,10	1265,64
605,30	1249,26
605,49	1247,21
605,68	1204,21
605,87	1212,40
606,07	1257,45
606,26	1222,64
606,45	1249,26
606,64	1232,88
606,84	1325,04
607,03	1222,64
607,22	1304,56
607,41	1310,70
607,60	1206,25
607,80	1232,88
607,99	1273,84
608,18	1290,22
608,37	1355,76
608,56	1282,03
608,76	1230,83
608,95	1296,36
609,14	1234,93
609,33	1284,08
609,52	1218,54
609,72	1271,79
609,91	1322,99
610,10	1267,69
610,29	1191,92
610,48	1292,27
610,68	1298,41
610,87	1226,73
611,06	1247,21
611,25	1265,64
611,44	1286,12
611,63	1247,21
611,83	1320,94
612,02	1167,34
612,21	1273,84
612,40	1282,03
612,59	1257,45
612,79	1312,75
612,98	1282,03
613,17	1271,79
613,36	1208,30
613,55	1284,08
613,74	1325,04
613,93	1239,02
614,13	1253,36
614,32	1220,59
614,51	1245,16
614,70	1286,12
614,89	1224,69
615,08	1247,21
615,28	1263,60
615,47	1263,60
615,66	1200,11
615,85	1271,79
616,04	1310,70
616,23	1333,23
616,42	1243,12
616,62	1314,80
616,81	1286,12
617,00	1331,18
617,19	1234,93
617,38	1275,88
617,57	1316,84
617,76	1320,94
617,95	1257,45
618,15	1226,73
618,34	1298,41
618,53	1331,18
618,72	1318,89
618,91	1327,08
619,10	1275,88
619,29	1282,03
619,48	1322,99
619,68	1310,70
619,87	1255,40
620,06	1261,55
620,25	1277,93
620,44	1290,22
620,63	1296,36
620,82	1302,51
621,01	1347,56
621,20	1296,36
621,39	1234,93
621,59	1300,46
621,78	1255,40
621,97	1265,64
622,16	1277,93
622,35	1259,50
622,54	1259,50
622,73	1236,97
622,92	1249,26
623,11	1245,16
623,30	1208,30
623,49	1271,79
623,68	1257,45
623,88	1292,27
624,07	1284,08
624,26	1355,76
624,45	1273,84
624,64	1304,56
624,83	1304,56
625,02	1261,55
625,21	1298,41
625,40	1314,80
625,59	1316,84
625,78	1245,16
625,97	1341,42
626,16	1286,12
626,35	1337,32
626,54	1226,73
626,74	1269,74
626,93	1286,12
627,12	1236,97
627,31	1257,45
627,50	1355,76
627,69	1267,69
627,88	1263,60
628,07	1288,17
628,26	1353,71
628,45	1275,88
628,64	1351,66
628,83	1224,69
629,02	1339,37
629,21	1284,08
629,40	1347,56
629,59	1261,55
629,78	1357,80
629,97	1335,28
630,16	1243,12
630,35	1288,17
630,54	1286,12
630,73	1265,64
630,92	1259,50
631,11	1269,74
631,30	1302,51
631,49	1304,56
631,68	1308,65
631,87	1642,47
632,06	2721,75
632,25	1898,47
632,44	2066,40
632,63	1724,39
632,82	1849,32
633,01	2650,07
633,20	2050,02
633,39	3252,17
633,58	3272,65
633,77	2994,13
633,96	3518,41
634,15	5404,59
634,34	7444,37
634,53	11894,60
634,72	24532,62
634,91	38933,93
635,10	46705,98
635,29	43324,78
635,48	34166,26
635,67	24540,81
635,86	16531,20
636,05	11183,96
636,24	7489,42
636,43	5064,63
636,62	3629,00
636,81	2725,85
637,00	1916,90
637,19	1726,44
637,38	1613,80
637,57	1480,68
637,76	1441,77
637,95	1409,00
638,14	1366,00
638,33	1400,81
638,52	1353,71
638,71	1300,46
638,89	1372,14
639,08	1220,59
639,27	1314,80
639,46	1249,26
639,65	1312,75
639,84	1247,21
640,03	1271,79
640,22	1265,64
640,41	1294,32
640,60	1298,41
640,79	1286,12
640,98	1290,22
641,17	1228,78
641,36	1245,16
641,55	1316,84
641,74	1236,97
641,92	1273,84
642,11	1310,70
642,30	1294,32
642,49	1282,03
642,68	1206,25
642,87	1253,36
643,06	1232,88
643,25	1206,25
643,44	1269,74
643,63	1220,59
643,82	1325,04
644,00	1265,64
644,19	1286,12
644,38	1277,93
644,57	1279,98
644,76	1224,69
644,95	1284,08
645,14	1257,45
645,33	1275,88
645,52	1251,31
645,71	1296,36
645,89	1298,41
646,08	1361,90
646,27	1320,94
646,46	1363,95
646,65	1286,12
646,84	1224,69
647,03	1273,84
647,22	1306,60
647,40	1261,55
647,59	1333,23
647,78	1230,83
647,97	1253,36
648,16	1353,71
648,35	1236,97
648,54	1261,55
648,73	1269,74
648,91	1275,88
649,10	1232,88
649,29	1232,88
649,48	1331,18
649,67	1218,54
649,86	1255,40
650,05	1302,51
650,23	1239,02
650,42	1267,69
650,61	1245,16
650,80	1241,07
650,99	1286,12
651,18	1271,79
651,36	1257,45
651,55	1259,50
651,74	1253,36
651,93	1300,46
652,12	1253,36
652,31	1265,64
652,49	1292,27
652,68	1210,35
652,87	1243,12
653,06	1337,32
653,25	1222,64
653,44	1236,97
653,62	1220,59
653,81	1228,78
654,00	1279,98
654,19	1255,40
654,38	1216,49
654,56	1255,40
654,75	1304,56
654,94	1337,32
655,13	1241,07
655,32	1325,04
655,51	1224,69
655,69	1253,36
655,88	1306,60
656,07	1300,46
656,26	1265,64
656,45	1275,88
656,63	1284,08
656,82	1279,98
657,01	1349,61
657,20	1224,69
657,38	1304,56
657,57	1216,49
657,76	1322,99
657,95	1286,12
658,14	1306,60
658,32	1310,70
658,51	1302,51
658,70	1339,37
658,89	1234,93
659,08	1247,21
659,26	1290,22
659,45	1241,07
659,64	1255,40
659,83	1249,26
660,01	1253,36
660,20	1212,40
660,39	1306,60
660,58	1249,26
660,76	1306,60
660,95	1312,75
661,14	1245,16
661,33	1273,84
661,51	1290,22
661,70	1236,97
661,89	1247,21
662,08	1318,89
662,26	1232,88
662,45	1236,97
662,64	1251,31
662,83	1322,99
663,01	1253,36
663,20	1255,40
663,39	1279,98
663,58	1255,40
663,76	1290,22
663,95	1302,51
664,14	1271,79
664,32	1236,97
664,51	1298,41
664,70	1208,30
664,89	1282,03
665,07	1212,40
665,26	1306,60
665,45	1320,94
665,64	1316,84
665,82	1320,94
666,01	1198,06
666,20	1247,21
666,38	1271,79
666,57	1366,00
666,76	1228,78
666,95	1296,36
667,13	1261,55
667,32	1318,89
667,51	1267,69
667,69	1212,40
667,88	1230,83
668,07	1282,03
668,25	1296,36
668,44	1363,95
668,63	1279,98
668,81	1316,84
669,00	1261,55
669,19	1257,45
669,38	1304,56
669,56	1308,65
669,75	1282,03
669,94	1239,02
670,12	1341,42
670,31	1273,84
670,50	1290,22
670,68	1286,12
670,87	1228,78
671,06	1275,88
671,24	1363,95
671,43	1359,85
671,62	1232,88
671,80	1271,79
671,99	1306,60
672,18	1263,60
672,36	1282,03
672,55	1366,00
672,74	1314,80
672,92	1220,59
673,11	1269,74
673,29	1183,73
673,48	1320,94
673,67	1265,64
673,85	1271,79
674,04	1224,69
674,23	1316,84
674,41	1271,79
674,60	1257,45
674,79	1273,84
674,97	1310,70
675,16	1329,13
675,34	1273,84
675,53	1363,95
675,72	1341,42
675,90	1245,16
676,09	1310,70
676,28	1230,83
676,46	1263,60
676,65	1269,74
676,83	1292,27
677,02	1257,45
677,21	1255,40
677,39	1202,16
677,58	1292,27
677,77	1302,51
677,95	1232,88
678,14	1286,12
678,32	1265,64
678,51	1243,12
678,70	1314,80
678,88	1257,45
679,07	1271,79
679,25	1255,40
679,44	1181,68
679,63	1298,41
679,81	1204,21
680,00	1253,36
680,18	1320,94
680,37	1277,93
680,55	1198,06
680,74	1265,64
680,93	1234,93
681,11	1208,30
681,30	1232,88
681,48	1228,78
681,67	1292,27
681,85	1253,36
682,04	1253,36
682,23	1277,93
682,41	1288,17
682,60	1290,22
682,78	1298,41
682,97	1218,54
683,15	1257,45
683,34	1216,49
683,53	1236,97
683,71	1257,45
683,90	1277,93
684,08	1257,45
684,27	1310,70
684,45	1204,21
684,64	1232,88
684,82	1279,98
685,01	1234,93
685,19	1298,41
685,38	1257,45
685,57	1304,56
685,75	1296,36
685,94	1247,21
686,12	1236,97
686,31	1210,35
686,49	1232,88
686,68	1249,26
686,86	1337,32
687,05	1282,03
687,23	1306,60
687,42	1343,47
687,60	1288,17
687,79	1265,64
687,97	1241,07
688,16	1277,93
688,34	1294,32
688,53	1249,26
688,71	1286,12
688,90	1271,79
689,08	1292,27
689,27	1269,74
689,45	1308,65
689,64	1263,60
689,82	1273,84
690,01	1349,61
690,19	1259,50
690,38	1245,16
690,56	1333,23
690,75	1314,80
690,93	1198,06
691,12	1257,45
691,30	1265,64
691,49	1376,24
691,67	1259,50
691,86	1288,17
692,04	1263,60
692,23	1208,30
692,41	1275,88
692,60	1202,16
692,78	1292,27
692,97	1220,59
693,15	1288,17
693,34	1243,12
693,52	1267,69
693,71	1353,71
693,89	1286,12
694,08	1273,84
694,26	1257,45
694,44	1275,88
694,63	1265,64
694,81	1288,17
695,00	1245,16
695,18	1181,68
695,37	1329,13
695,55	1228,78
695,74	1310,70
695,92	1241,07
696,10	1339,37
696,29	1284,08
696,47	1284,08
696,66	1224,69
696,84	1271,79
697,03	1263,60
697,21	1220,59
697,40	1245,16
697,58	1288,17
697,76	1306,60
697,95	1255,40
698,13	1230,83
698,32	1277,93
698,50	1196,01
698,68	1267,69
698,87	1296,36
699,05	1187,82
699,24	1316,84
699,42	1343,47
699,61	1253,36
699,79	1251,31
699,97	1249,26
700,16	1263,60
700,34	1316,84
700,53	1302,51
700,71	1290,22
700,89	1243,12
701,08	1212,40
701,26	1249,26
701,45	1322,99
701,63	1282,03
701,81	1265,64
702,00	1267,69
702,18	1259,50
702,37	1234,93
702,55	1255,40
702,73	1224,69
702,92	1263,60
703,10	1228,78
703,28	1265,64
703,47	1259,50
703,65	1243,12
703,84	1232,88
704,02	1294,32
704,20	1249,26
704,39	1286,12
704,57	1243,12
704,75	1275,88
704,94	1312,75
705,12	1198,06
705,30	1333,23
705,49	1329,13
705,67	1198,06
705,86	1269,74
706,04	1306,60
706,22	1325,04
706,41	1290,22
706,59	1325,04
706,77	1263,60
706,96	1320,94
707,14	1236,97
707,32	1353,71
707,51	1320,94
707,69	1212,40
707,87	1257,45
708,06	1308,65
708,24	1271,79
708,42	1228,78
708,61	1322,99
708,79	1200,11
708,97	1298,41
709,16	1226,73
709,34	1230,83
709,52	1290,22
709,71	1269,74
709,89	1261,55
710,07	1320,94
710,26	1361,90
710,44	1304,56
710,62	1253,36
710,80	1261,55
710,99	1325,04
711,17	1224,69
711,35	1247,21
711,54	1325,04
711,72	1222,64
711,90	1279,98
712,09	1333,23
712,27	1273,84
712,45	1239,02
712,63	1302,51
712,82	1263,60
713,00	1265,64
713,18	1288,17
713,37	1312,75
713,55	1245,16
713,73	1247,21
713,91	1316,84
714,10	1255,40
714,28	1212,40
714,46	1298,41
714,65	1286,12
714,83	1282,03
715,01	1263,60
715,19	1292,27
715,38	1288,17
715,56	1277,93
715,74	1241,07
715,92	1279,98
716,11	1265,64
716,29	1257,45
716,47	1267,69
716,65	1304,56
716,84	1257,45
717,02	1273,84
717,20	1304,56
717,38	1318,89
717,57	1277,93
717,75	1275,88
717,93	1210,35
718,11	1232,88
718,30	1286,12
718,48	1380,33
718,66	1294,32
718,84	1347,56
719,03	1277,93
719,21	1282,03
719,39	1306,60
719,57	1300,46
719,75	1310,70
719,94	1273,84
720,12	1251,31
720,30	1294,32
720,48	1300,46
720,67	1288,17
720,85	1232,88
721,03	1302,51
721,21	1282,03
721,39	1304,56
721,58	1155,05
721,76	1273,84
721,94	1267,69
722,12	1253,36
722,30	1228,78
722,49	1282,03
722,67	1263,60
722,85	1316,84
723,03	1275,88
723,21	1361,90
723,40	1343,47
723,58	1261,55
723,76	1222,64
723,94	1314,80
724,12	1220,59
724,30	1279,98
724,49	1228,78
724,67	1230,83
724,85	1361,90
725,03	1273,84
725,21	1253,36
725,40	1216,49
725,58	1212,40
725,76	1351,66
725,94	1271,79
726,12	1273,84
726,30	1251,31
726,49	1273,84
726,67	1210,35
726,85	1327,08
727,03	1236,97
727,21	1275,88
727,39	1224,69
727,57	1234,93
727,76	1282,03
727,94	1234,93
728,12	1218,54
728,30	1306,60
728,48	1288,17
728,66	1359,85
728,84	1265,64
729,03	1284,08
729,21	1259,50
729,39	1267,69
729,57	1261,55
729,75	1255,40
729,93	1296,36
730,11	1261,55
730,30	1251,31
730,48	1216,49
730,66	1216,49
730,84	1169,39
731,02	1236,97
731,20	1241,07
731,38	1232,88
731,56	1239,02
731,74	1216,49
731,93	1282,03
732,11	1234,93
732,29	1314,80
732,47	1265,64
732,65	1298,41
732,83	1259,50
733,01	1275,88
733,19	1212,40
733,37	1257,45
733,56	1286,12
733,74	1331,18
733,92	1333,23
734,10	1259,50
734,28	1220,59
734,46	1339,37
734,64	1206,25
734,82	1288,17
735,00	1302,51
735,18	1257,45
735,36	1312,75
735,54	1265,64
735,73	1222,64
735,91	1300,46
736,09	1212,40
736,27	1304,56
736,45	1335,28
736,63	1269,74
736,81	1251,31
736,99	1279,98
737,17	1275,88
737,35	1290,22
737,53	1196,01
737,71	1302,51
737,89	1294,32
738,07	1191,92
738,25	1284,08
738,43	1228,78
738,61	1269,74
738,80	1282,03
738,98	1292,27
739,16	1273,84
739,34	1294,32
739,52	1247,21
739,70	1288,17
739,88	1245,16
740,06	1218,54
740,24	1288,17
740,42	1331,18
740,60	1282,03
740,78	1251,31
740,96	1247,21
741,14	1259,50
741,32	1167,34
741,50	1263,60
741,68	1282,03
741,86	1310,70
742,04	1255,40
742,22	1351,66
742,40	1316,84
742,58	1275,88
742,76	1320,94
742,94	1220,59
743,12	1261,55
743,30	1236,97
743,48	1251,31
743,66	1247,21
743,84	1222,64
744,02	1273,84
744,20	1312,75
744,38	1302,51
744,56	1361,90
744,74	1290,22
744,92	1298,41
745,10	1247,21
745,28	1222,64
745,46	1226,73
745,64	1298,41
745,82	1327,08
746,00	1282,03
746,18	1296,36
746,36	1249,26
746,54	1296,36
746,72	1304,56
746,90	1220,59
747,08	1273,84
747,26	1327,08
747,44	1335,28
747,62	1236,97
747,80	1269,74
747,98	1271,79
748,15	1284,08
748,33	1302,51
748,51	1288,17
748,69	1239,02
748,87	1282,03
749,05	1210,35
749,23	1259,50
749,41	1263,60
749,59	1247,21
749,77	1247,21
749,95	1216,49
750,13	1171,44
750,31	1294,32
750,49	1300,46
750,67	1236,97
750,85	1253,36
751,03	1300,46
751,20	1253,36
751,38	1316,84
751,56	1275,88
751,74	1255,40
751,92	1228,78
752,10	1253,36
752,28	1259,50
752,46	1232,88
752,64	1220,59
752,82	1218,54
753,00	1304,56
753,18	1290,22
753,35	1265,64
753,53	1284,08
753,71	1222,64
753,89	1263,60
754,07	1271,79
754,25	1232,88
754,43	1251,31
754,61	1292,27
754,79	1259,50
754,97	1257,45
755,14	1316,84
755,32	1239,02
755,50	1306,60
755,68	1196,01
755,86	1259,50
756,04	1331,18
756,22	1279,98
756,40	1288,17
756,57	1230,83
756,75	1355,76
756,93	1267,69
757,11	1200,11
757,29	1296,36
757,47	1298,41
757,65	1343,47
757,82	1257,45
758,00	1255,40
758,18	1198,06
758,36	1251,31
758,54	1279,98
758,72	1204,21
758,90	1294,32
759,07	1312,75
759,25	1308,65
759,43	1243,12
759,61	1232,88
759,79	1292,27
759,97	1279,98
760,15	1243,12
760,32	1236,97
760,50	1230,83
760,68	1265,64
760,86	1232,88
761,04	1251,31
761,22	1306,60
761,39	1251,31
761,57	1329,13
761,75	1261,55
761,93	1302,51
762,11	1228,78
762,28	1277,93
762,46	1273,84
762,64	1263,60
762,82	1327,08
763,00	1222,64
763,18	1249,26
763,35	1239,02
763,53	1345,52
763,71	1232,88
763,89	1284,08
764,07	1247,21
764,24	1282,03
764,42	1226,73
764,60	1286,12
764,78	1214,45
764,96	1216,49
765,13	1239,02
765,31	1230,83
765,49	1226,73
765,67	1273,84
765,84	1300,46
766,02	1253,36
766,20	1153,01
766,38	1249,26
766,56	1263,60
766,73	1339,37
766,91	1261,55
767,09	1277,93
767,27	1282,03
767,44	1335,28
767,62	1214,45
767,80	1341,42
767,98	1191,92
768,15	1273,84
768,33	1327,08
768,51	1286,12
768,69	1210,35
768,87	1277,93
769,04	1310,70
769,22	1306,60
769,40	1314,80
769,58	1247,21
769,75	1318,89
769,93	1298,41
770,11	1337,32
770,28	1312,75
770,46	1255,40
770,64	1222,64
770,82	1230,83
770,99	1263,60
771,17	1304,56
771,35	1251,31
771,53	1224,69
771,70	1241,07
771,88	1214,45
772,06	1241,07
772,23	1241,07
772,41	1320,94
772,59	1327,08
772,77	1224,69
772,94	1183,73
773,12	1288,17
773,30	1241,07
773,47	1253,36
773,65	1232,88
773,83	1325,04
774,01	1206,25
774,18	1277,93
774,36	1247,21
774,54	1236,97
774,71	1220,59
774,89	1218,54
775,07	1300,46
775,24	1196,01
775,42	1216,49
775,60	1316,84
775,78	1265,64
775,95	1265,64
776,13	1167,34
776,31	1279,98
776,48	1296,36
776,66	1259,50
776,84	1255,40
777,01	1204,21
777,19	1257,45
777,37	1241,07
777,54	1249,26
777,72	1245,16
777,90	1220,59
778,07	1224,69
778,25	1220,59
778,43	1271,79
778,60	1249,26
778,78	1368,04
778,96	1251,31
779,13	1259,50
779,31	1273,84
779,49	1271,79
779,66	1300,46
779,84	1230,83
780,01	1232,88
780,19	1284,08
780,37	1239,02
780,54	1230,83
780,72	1251,31
780,90	1273,84
781,07	1273,84
781,25	1290,22
781,43	1257,45
781,60	1247,21
781,78	1271,79
781,95	1273,84
782,13	1230,83
782,31	1212,40
782,48	1265,64
782,66	1306,60
782,83	1290,22
783,01	1316,84
783,19	1239,02
783,36	1265,64
783,54	1263,60
783,72	1232,88
783,89	1220,59
784,07	1247,21
784,24	1257,45
784,42	1290,22
784,60	1288,17
784,77	1210,35
784,95	1320,94
785,12	1220,59
785,30	1222,64
785,47	1255,40
785,65	1296,36
785,83	1261,55
786,00	1282,03
786,18	1302,51
786,35	1314,80
786,53	1292,27
786,71	1312,75
786,88	1267,69
787,06	1286,12
787,23	1273,84
787,41	1298,41
787,58	1306,60
787,76	1298,41
787,94	1329,13
788,11	1228,78
788,29	1304,56
788,46	1288,17
788,64	1193,97
788,81	1204,21
788,99	1286,12
789,16	1257,45
789,34	1302,51
789,52	1228,78
789,69	1216,49
789,87	1273,84
790,04	1222,64
790,22	1302,51
790,39	1282,03
790,57	1275,88
790,74	1257,45
790,92	1214,45
791,09	1208,30
791,27	1236,97
791,44	1306,60
791,62	1193,97
791,79	1296,36
791,97	1245,16
792,15	1302,51
792,32	1208,30
792,50	1265,64
792,67	1329,13
792,85	1257,45
793,02	1177,58
793,20	1263,60
793,37	1226,73
793,55	1263,60
793,72	1226,73
793,90	1253,36
794,07	1308,65
794,25	1230,83
794,42	1263,60
794,60	1273,84
794,77	1312,75
794,95	1298,41
795,12	1228,78
795,30	1189,87
795,47	1212,40
795,65	1273,84
795,82	1298,41
796,00	1269,74
796,17	1267,69
796,34	1208,30
796,52	1255,40
796,69	1239,02
796,87	1212,40
797,04	1277,93
797,22	1263,60
797,39	1259,50
797,57	1234,93
797,74	1277,93
797,92	1247,21
798,09	1273,84
798,27	1277,93
798,44	1294,32
798,62	1239,02
798,79	1263,60
798,96	1286,12
799,14	1351,66
799,31	1261,55
799,49	1208,30
799,66	1155,05
799,84	1253,36
800,01	1245,16
800,19	1273,84
800,36	1271,79
800,53	1226,73
800,71	1355,76
800,88	1271,79
801,06	1335,28
801,23	1314,80
801,41	1245,16
801,58	1241,07
801,75	1292,27
801,93	1208,30
802,10	1236,97
802,28	1253,36
802,45	1265,64
802,63	1282,03
802,80	1253,36
802,97	1241,07
803,15	1296,36
803,32	1314,80
803,50	1239,02
803,67	1298,41
803,84	1284,08
804,02	1292,27
804,19	1288,17
804,37	1265,64
804,54	1234,93
804,71	1224,69
804,89	1261,55
805,06	1224,69
805,24	1214,45
805,41	1273,84
805,58	1247,21
805,76	1255,40
805,93	1314,80
806,10	1249,26
806,28	1286,12
806,45	1236,97
806,63	1300,46
806,80	1181,68
806,97	1265,64
807,15	1267,69
807,32	1226,73
807,49	1322,99
807,67	1294,32
807,84	1337,32
808,01	1325,04
808,19	1275,88
808,36	1265,64
808,54	1296,36
808,71	1282,03
808,88	1337,32
809,06	1341,42
809,23	1329,13
809,40	1261,55
809,58	1263,60
809,75	1204,21
809,92	1302,51
810,10	1361,90
810,27	1228,78
810,44	1261,55
810,62	1177,58
810,79	1296,36
810,96	1245,16
811,14	1226,73
811,31	1265,64
811,48	1216,49
811,66	1282,03
811,83	1275,88
812,00	1300,46
812,18	1335,28
812,35	1298,41
812,52	1255,40
812,69	1269,74
812,87	1306,60
813,04	1198,06
813,21	1249,26
813,39	1296,36
813,56	1255,40
813,73	1329,13
813,91	1269,74
814,08	1306,60
814,25	1236,97
814,42	1220,59
814,60	1312,75
814,77	1214,45
814,94	1279,98
815,12	1292,27
815,29	1222,64
815,46	1290,22
815,63	1273,84
815,81	1294,32
815,98	1224,69
816,15	1339,37
816,33	1292,27
816,50	1378,28
816,67	1351,66
816,84	1290,22
817,02	1243,12
817,19	1247,21
817,36	1279,98
817,53	1218,54
817,71	1279,98
817,88	1232,88
818,05	1314,80
818,22	1286,12
818,40	1265,64
818,57	1271,79
818,74	1243,12
818,91	1183,73
819,09	1257,45
819,26	1249,26
819,43	1261,55
819,60	1318,89
819,78	1200,11
819,95	1261,55
820,12	1204,21
820,29	1253,36
820,47	1359,85
820,64	1206,25
820,81	1265,64
820,98	1247,21
821,15	1255,40
821,33	1343,47
821,50	1320,94
821,67	1290,22
821,84	1210,35
822,02	1234,93
822,19	1335,28
822,36	1298,41
822,53	1267,69
822,70	1261,55
822,88	1290,22
823,05	1288,17
823,22	1177,58
823,39	1337,32
823,56	1239,02
823,74	1224,69
823,91	1298,41
824,08	1253,36
824,25	1243,12
824,42	1267,69
824,60	1259,50
824,77	1275,88
824,94	1247,21
825,11	1310,70
825,28	1259,50
825,45	1212,40
825,63	1282,03
825,80	1249,26
825,97	1204,21
826,14	1243,12
826,31	1255,40
826,48	1279,98
826,66	1277,93
826,83	1327,08
827,00	1236,97
827,17	1282,03
827,34	1204,21
827,51	1306,60
827,69	1261,55
827,86	1265,64
828,03	1292,27
828,20	1298,41
828,37	1241,07
828,54	1179,63
828,71	1183,73
828,89	1290,22
829,06	1208,30
829,23	1306,60
829,40	1267,69
829,57	1247,21
829,74	1247,21
829,91	1265,64
830,09	1353,71
830,26	1275,88
830,43	1316,84
830,60	1298,41
830,77	1181,68
830,94	1255,40
831,11	1284,08
831,28	1261,55
831,46	1232,88
831,63	1337,32
831,80	1263,60
831,97	1279,98
832,14	1220,59
832,31	1247,21
832,48	1271,79
832,65	1349,61
832,82	1273,84
832,99	1296,36
833,17	1245,16
833,34	1335,28
833,51	1257,45
833,68	1273,84
833,85	1325,04
834,02	1228,78
834,19	1292,27
834,36	1273,84
834,53	1267,69
834,70	1269,74
834,87	1269,74
835,04	1286,12
835,22	1228,78
835,39	1202,16
835,56	1251,31
835,73	1286,12
835,90	1273,84
836,07	1216,49
836,24	1224,69
836,41	1286,12
836,58	1298,41
836,75	1296,36
836,92	1288,17
837,09	1345,52
837,26	1302,51
837,43	1320,94
837,60	1226,73
837,77	1245,16
837,94	1239,02
838,12	1282,03
838,29	1300,46
838,46	1325,04
838,63	1359,85
838,80	1251,31
838,97	1259,50
839,14	1236,97
839,31	1282,03
839,48	1284,08
839,65	1232,88
839,82	1325,04
839,99	1265,64
840,16	1259,50
840,33	1282,03
840,50	1208,30
840,67	1255,40
840,84	1314,80
841,01	1290,22
841,18	1273,84
841,35	1284,08
841,52	1239,02
841,69	1329,13
841,86	1304,56
842,03	1318,89
842,20	1279,98
842,37	1310,70
842,54	1177,58
842,71	1345,52
842,88	1177,58
843,05	1300,46
843,22	1306,60
843,39	1216,49
843,56	1251,31
843,73	1304,56
843,90	1335,28
844,07	1263,60
844,24	1279,98
844,41	1310,70
844,58	1271,79
844,75	1247,21
844,92	1318,89
845,09	1298,41
845,26	1230,83
845,43	1269,74
845,60	1304,56
845,77	1269,74
845,94	1298,41
846,10	1300,46
846,27	1327,08
846,44	1247,21
846,61	1239,02
846,78	1226,73
846,95	1290,22
847,12	1241,07
847,29	1241,07
847,46	1308,65
847,63	1282,03
847,80	1329,13
847,97	1269,74
848,14	1263,60
848,31	1236,97
848,48	1269,74
848,65	1253,36
848,82	1271,79
848,98	1282,03
849,15	1232,88
849,32	1310,70
849,49	1294,32
849,66	1193,97
849,83	1308,65
850,00	1196,01
850,17	1202,16
850,34	1269,74
850,51	1294,32
850,68	1288,17
850,85	1241,07
851,01	1236,97
851,18	1286,12
851,35	1269,74
851,52	1312,75
851,69	1269,74
851,86	1273,84
852,03	1300,46
852,20	1247,21
852,37	1241,07
852,53	1236,97
852,70	1255,40
852,87	1331,18
853,04	1224,69
853,21	1333,23
853,38	1337,32
853,55	1306,60
853,72	1257,45
853,89	1286,12
854,05	1290,22
854,22	1325,04
854,39	1247,21
854,56	1261,55
854,73	1333,23
854,90	1204,21
855,07	1294,32
855,23	1249,26
855,40	1210,35
855,57	1253,36
855,74	1273,84
855,91	1273,84
856,08	1265,64
856,25	1161,20
856,41	1275,88
856,58	1298,41
856,75	1279,98
856,92	1179,63
857,09	1214,45
857,26	1263,60
857,42	1288,17
857,59	1255,40
857,76	1230,83
857,93	1308,65
858,10	1218,54
858,27	1241,07
858,43	1224,69
858,60	1247,21
858,77	1236,97
858,94	1249,26
859,11	1226,73
859,27	1275,88
859,44	1247,21
859,61	1251,31
859,78	1245,16
859,95	1218,54
860,12	1234,93
860,28	1232,88
860,45	1288,17
860,62	1296,36
860,79	1255,40
860,95	1243,12
861,12	1189,87
861,29	1253,36
861,46	1232,88
861,63	1308,65
861,79	1241,07
861,96	1279,98
862,13	1273,84
862,30	1234,93
862,47	1232,88
862,63	1220,59
862,80	1290,22
862,97	1306,60
863,14	1234,93
863,30	1212,40
863,47	1296,36
863,64	1173,49
863,81	1298,41
863,97	1282,03
864,14	1271,79
864,31	1214,45
864,48	1228,78
864,65	1230,83
864,81	1312,75
864,98	1284,08
865,15	1308,65
865,32	1220,59
865,48	1243,12
865,65	1236,97
865,82	1273,84
865,98	1279,98
866,15	1296,36
866,32	1286,12
866,49	1269,74
866,65	1341,42
866,82	1230,83
866,99	1269,74
867,16	1351,66
867,32	1232,88
867,49	1224,69
867,66	1318,89
867,83	1228,78
867,99	1263,60
868,16	1224,69
868,33	1230,83
868,49	1228,78
868,66	1261,55
868,83	1245,16
868,99	1249,26
869,16	1200,11
869,33	1322,99
869,50	1279,98
869,66	1349,61
869,83	1228,78
870,00	1212,40
870,16	1251,31
870,33	1230,83
870,50	1196,01
870,66	1245,16
870,83	1302,51
871,00	1220,59
871,17	1331,18
871,33	1284,08
871,50	1241,07
871,67	1234,93
871,83	1181,68
872,00	1308,65
872,17	1247,21
872,33	1294,32
872,50	1279,98
872,67	1288,17
872,83	1310,70
873,00	1310,70
873,17	1259,50
873,33	1308,65
873,50	1298,41
873,67	1241,07
873,83	1253,36
874,00	1271,79
874,16	1290,22
874,33	1304,56
874,50	1279,98
874,66	1304,56
874,83	1261,55
875,00	1335,28
875,16	1224,69
875,33	1222,64
875,50	1204,21
875,66	1282,03
875,83	1259,50
875,99	1286,12
876,16	1310,70
876,33	1300,46
876,49	1273,84
876,66	1257,45
876,83	1282,03
876,99	1241,07
877,16	1261,55
877,32	1196,01
877,49	1370,09
877,66	1265,64
877,82	1202,16
877,99	1261,55
878,15	1249,26
878,32	1265,64
878,49	1259,50
878,65	1271,79
878,82	1318,89
878,98	1269,74
879,15	1318,89
879,32	1322,99
879,48	1271,79
879,65	1247,21
879,81	1302,51
879,98	1325,04
880,15	1216,49
880,31	1140,72
880,48	1366,00
880,64	1230,83
880,81	1273,84
880,97	1292,27
881,14	1273,84
881,31	1230,83
881,47	1204,21
881,64	1269,74
881,80	1288,17
881,97	1310,70
882,13	1253,36
882,30	1290,22
882,47	1282,03
882,63	1286,12
882,80	1259,50
882,96	1286,12
883,13	1173,49
883,29	1232,88
883,46	1214,45
883,62	1261,55
883,79	1232,88
883,95	1247,21
884,12	1322,99
884,29	1257,45
884,45	1269,74
884,62	1288,17
884,78	1261,55
884,95	1286,12
885,11	1294,32
885,28	1271,79
885,44	1228,78
885,61	1255,40
885,77	1306,60
885,94	1255,40
886,10	1298,41
886,27	1239,02
886,43	1286,12
886,60	1263,60
886,76	1282,03
886,93	1263,60
887,09	1282,03
887,26	1200,11
887,42	1380,33
887,59	1282,03
887,75	1263,60
887,92	1329,13
888,08	1257,45
888,25	1236,97
888,41	1259,50
888,58	1275,88
888,74	1210,35
888,91	1333,23
>>>>>End Processed Spectral Data<<<<<
