SpectraSuite Data File
++++++++++++++++++++++++++++++++++++
Date: Sun Apr 03 14:40:34 CEST 2016
User: root
Dark Spectrum Present: No
Reference Spectrum Present: No
Number of Sampled Component Spectra: 1
Spectrometers: USB4C02835
Integration Time (usec): 10000 (USB4C02835)
Spectra Averaged: 1 (USB4C02835)
Boxcar Smoothing: 0 (USB4C02835)
Correct for Electrical Dark: No (USB4C02835)
Strobe/Lamp Enabled: No (USB4C02835)
Correct for Detector Non-linearity: No (USB4C02835)
Correct for Stray Light: No (USB4C02835)
Number of Pixels in Processed Spectrum: 3648
>>>>>Begin Processed Spectral Data<<<<<
177,47	1232,88
177,69	1232,88
177,91	1232,88
178,13	1234,93
178,36	1322,99
178,58	1314,80
178,80	1327,08
179,02	1224,69
179,24	1271,79
179,46	1292,27
179,68	1247,21
179,90	1312,75
180,13	1292,27
180,35	1239,02
180,57	1249,26
180,79	1286,12
181,01	1247,21
181,23	1286,12
181,45	1220,59
181,67	1230,83
181,90	1284,08
182,12	1275,88
182,34	1257,45
182,56	1296,36
182,78	1298,41
183,00	1257,45
183,22	1185,77
183,44	1243,12
183,66	1263,60
183,89	1279,98
184,11	1206,25
184,33	1286,12
184,55	1279,98
184,77	1202,16
184,99	1273,84
185,21	1255,40
185,43	1302,51
185,65	1310,70
185,87	1243,12
186,10	1257,45
186,32	1296,36
186,54	1189,87
186,76	1185,77
186,98	1296,36
187,20	1294,32
187,42	1275,88
187,64	1302,51
187,86	1230,83
188,08	1253,36
188,30	1343,47
188,52	1314,80
188,75	1306,60
188,97	1271,79
189,19	1269,74
189,41	1247,21
189,63	1253,36
189,85	1273,84
190,07	1325,04
190,29	1304,56
190,51	1286,12
190,73	1282,03
190,95	1277,93
191,17	1261,55
191,39	1306,60
191,61	1327,08
191,84	1214,45
192,06	1277,93
192,28	1316,84
192,50	1296,36
192,72	1288,17
192,94	1257,45
193,16	1310,70
193,38	1245,16
193,60	1308,65
193,82	1234,93
194,04	1282,03
194,26	1271,79
194,48	1251,31
194,70	1251,31
194,92	1302,51
195,14	1277,93
195,36	1245,16
195,58	1302,51
195,80	1273,84
196,02	1241,07
196,24	1204,21
196,46	1181,68
196,69	1300,46
196,91	1298,41
197,13	1218,54
197,35	1245,16
197,57	1302,51
197,79	1204,21
198,01	1271,79
198,23	1245,16
198,45	1220,59
198,67	1286,12
198,89	1304,56
199,11	1271,79
199,33	1218,54
199,55	1253,36
199,77	1251,31
199,99	1273,84
200,21	1259,50
200,43	1214,45
200,65	1292,27
200,87	1296,36
201,09	1310,70
201,31	1263,60
201,53	1245,16
201,75	1300,46
201,97	1196,01
202,19	1216,49
202,41	1222,64
202,63	1257,45
202,85	1210,35
203,07	1265,64
203,29	1257,45
203,51	1265,64
203,73	1304,56
203,95	1298,41
204,17	1279,98
204,39	1232,88
204,61	1241,07
204,83	1335,28
205,05	1341,42
205,27	1232,88
205,49	1249,26
205,71	1212,40
205,93	1306,60
206,15	1304,56
206,37	1232,88
206,59	1322,99
206,81	1253,36
207,03	1204,21
207,25	1251,31
207,47	1337,32
207,69	1196,01
207,91	1239,02
208,13	1251,31
208,34	1288,17
208,56	1253,36
208,78	1265,64
209,00	1245,16
209,22	1322,99
209,44	1273,84
209,66	1288,17
209,88	1247,21
210,10	1224,69
210,32	1224,69
210,54	1263,60
210,76	1294,32
210,98	1257,45
211,20	1306,60
211,42	1249,26
211,64	1275,88
211,86	1298,41
212,08	1282,03
212,30	1275,88
212,52	1298,41
212,74	1265,64
212,96	1294,32
213,17	1230,83
213,39	1220,59
213,61	1337,32
213,83	1249,26
214,05	1275,88
214,27	1275,88
214,49	1279,98
214,71	1286,12
214,93	1288,17
215,15	1216,49
215,37	1208,30
215,59	1251,31
215,81	1255,40
216,03	1320,94
216,24	1245,16
216,46	1286,12
216,68	1220,59
216,90	1249,26
217,12	1249,26
217,34	1239,02
217,56	1310,70
217,78	1249,26
218,00	1337,32
218,22	1269,74
218,44	1247,21
218,66	1304,56
218,87	1249,26
219,09	1234,93
219,31	1218,54
219,53	1232,88
219,75	1200,11
219,97	1296,36
220,19	1261,55
220,41	1228,78
220,63	1243,12
220,85	1253,36
221,06	1302,51
221,28	1247,21
221,50	1288,17
221,72	1277,93
221,94	1247,21
222,16	1255,40
222,38	1351,66
222,60	1263,60
222,82	1255,40
223,03	1236,97
223,25	1271,79
223,47	1302,51
223,69	1253,36
223,91	1314,80
224,13	1300,46
224,35	1236,97
224,57	1325,04
224,78	1308,65
225,00	1322,99
225,22	1275,88
225,44	1257,45
225,66	1269,74
225,88	1234,93
226,10	1232,88
226,32	1275,88
226,53	1202,16
226,75	1284,08
226,97	1294,32
227,19	1277,93
227,41	1265,64
227,63	1308,65
227,85	1200,11
228,06	1306,60
228,28	1279,98
228,50	1249,26
228,72	1331,18
228,94	1273,84
229,16	1245,16
229,37	1261,55
229,59	1185,77
229,81	1335,28
230,03	1331,18
230,25	1247,21
230,47	1275,88
230,69	1279,98
230,90	1351,66
231,12	1239,02
231,34	1306,60
231,56	1269,74
231,78	1263,60
232,00	1284,08
232,21	1222,64
232,43	1259,50
232,65	1239,02
232,87	1261,55
233,09	1243,12
233,30	1249,26
233,52	1302,51
233,74	1239,02
233,96	1329,13
234,18	1298,41
234,40	1214,45
234,61	1236,97
234,83	1261,55
235,05	1339,37
235,27	1320,94
235,49	1265,64
235,70	1269,74
235,92	1251,31
236,14	1333,23
236,36	1314,80
236,58	1265,64
236,79	1286,12
237,01	1279,98
237,23	1273,84
237,45	1226,73
237,67	1265,64
237,88	1304,56
238,10	1320,94
238,32	1257,45
238,54	1234,93
238,76	1269,74
238,97	1277,93
239,19	1234,93
239,41	1302,51
239,63	1349,61
239,85	1265,64
240,06	1290,22
240,28	1288,17
240,50	1232,88
240,72	1333,23
240,93	1234,93
241,15	1320,94
241,37	1228,78
241,59	1314,80
241,81	1206,25
242,02	1273,84
242,24	1306,60
242,46	1294,32
242,68	1322,99
242,89	1279,98
243,11	1267,69
243,33	1282,03
243,55	1286,12
243,76	1325,04
243,98	1322,99
244,20	1279,98
244,42	1339,37
244,64	1286,12
244,85	1226,73
245,07	1304,56
245,29	1290,22
245,51	1253,36
245,72	1306,60
245,94	1273,84
246,16	1275,88
246,38	1241,07
246,59	1251,31
246,81	1239,02
247,03	1255,40
247,24	1243,12
247,46	1271,79
247,68	1353,71
247,90	1284,08
248,11	1224,69
248,33	1298,41
248,55	1253,36
248,77	1300,46
248,98	1269,74
249,20	1273,84
249,42	1290,22
249,64	1218,54
249,85	1249,26
250,07	1241,07
250,29	1359,85
250,50	1226,73
250,72	1310,70
250,94	1241,07
251,16	1294,32
251,37	1245,16
251,59	1322,99
251,81	1325,04
252,02	1263,60
252,24	1232,88
252,46	1249,26
252,68	1257,45
252,89	1333,23
253,11	1224,69
253,33	1310,70
253,54	1236,97
253,76	1370,09
253,98	1245,16
254,20	1224,69
254,41	1263,60
254,63	1261,55
254,85	1286,12
255,06	1171,44
255,28	1298,41
255,50	1273,84
255,71	1251,31
255,93	1312,75
256,15	1296,36
256,36	1288,17
256,58	1296,36
256,80	1343,47
257,02	1214,45
257,23	1312,75
257,45	1255,40
257,67	1230,83
257,88	1200,11
258,10	1288,17
258,32	1286,12
258,53	1208,30
258,75	1282,03
258,97	1286,12
259,18	1249,26
259,40	1257,45
259,62	1239,02
259,83	1275,88
260,05	1347,56
260,27	1259,50
260,48	1288,17
260,70	1345,52
260,92	1198,06
261,13	1288,17
261,35	1249,26
261,57	1304,56
261,78	1292,27
262,00	1308,65
262,22	1277,93
262,43	1296,36
262,65	1349,61
262,86	1341,42
263,08	1310,70
263,30	1218,54
263,51	1265,64
263,73	1226,73
263,95	1245,16
264,16	1290,22
264,38	1275,88
264,60	1226,73
264,81	1269,74
265,03	1257,45
265,25	1263,60
265,46	1247,21
265,68	1347,56
265,89	1249,26
266,11	1255,40
266,33	1216,49
266,54	1306,60
266,76	1302,51
266,98	1245,16
267,19	1279,98
267,41	1275,88
267,62	1196,01
267,84	1275,88
268,06	1232,88
268,27	1214,45
268,49	1310,70
268,70	1290,22
268,92	1251,31
269,14	1277,93
269,35	1241,07
269,57	1282,03
269,79	1279,98
270,00	1259,50
270,22	1306,60
270,43	1173,49
270,65	1259,50
270,87	1288,17
271,08	1337,32
271,30	1273,84
271,51	1265,64
271,73	1372,14
271,95	1271,79
272,16	1204,21
272,38	1263,60
272,59	1279,98
272,81	1288,17
273,02	1267,69
273,24	1259,50
273,46	1255,40
273,67	1243,12
273,89	1228,78
274,10	1191,92
274,32	1196,01
274,54	1251,31
274,75	1253,36
274,97	1306,60
275,18	1282,03
275,40	1363,95
275,61	1243,12
275,83	1259,50
276,05	1257,45
276,26	1314,80
276,48	1253,36
276,69	1220,59
276,91	1277,93
277,12	1335,28
277,34	1288,17
277,55	1298,41
277,77	1210,35
277,99	1241,07
278,20	1204,21
278,42	1234,93
278,63	1202,16
278,85	1245,16
279,06	1247,21
279,28	1253,36
279,49	1308,65
279,71	1228,78
279,93	1290,22
280,14	1298,41
280,36	1208,30
280,57	1275,88
280,79	1282,03
281,00	1220,59
281,22	1263,60
281,43	1263,60
281,65	1267,69
281,86	1249,26
282,08	1341,42
282,29	1247,21
282,51	1275,88
282,73	1273,84
282,94	1153,01
283,16	1314,80
283,37	1181,68
283,59	1249,26
283,80	1306,60
284,02	1298,41
284,23	1251,31
284,45	1243,12
284,66	1179,63
284,88	1265,64
285,09	1314,80
285,31	1296,36
285,52	1216,49
285,74	1290,22
285,95	1249,26
286,17	1228,78
286,38	1193,97
286,60	1226,73
286,81	1263,60
287,03	1308,65
287,24	1236,97
287,46	1234,93
287,67	1296,36
287,89	1282,03
288,10	1279,98
288,32	1306,60
288,53	1251,31
288,75	1335,28
288,96	1204,21
289,18	1210,35
289,39	1267,69
289,61	1329,13
289,82	1236,97
290,04	1294,32
290,25	1204,21
290,47	1292,27
290,68	1284,08
290,90	1312,75
291,11	1298,41
291,33	1318,89
291,54	1255,40
291,76	1273,84
291,97	1282,03
292,18	1247,21
292,40	1216,49
292,61	1339,37
292,83	1236,97
293,04	1273,84
293,26	1222,64
293,47	1300,46
293,69	1265,64
293,90	1241,07
294,12	1310,70
294,33	1284,08
294,55	1210,35
294,76	1339,37
294,97	1267,69
295,19	1306,60
295,40	1259,50
295,62	1306,60
295,83	1193,97
296,05	1249,26
296,26	1210,35
296,48	1251,31
296,69	1230,83
296,90	1263,60
297,12	1312,75
297,33	1316,84
297,55	1257,45
297,76	1277,93
297,98	1275,88
298,19	1286,12
298,41	1191,92
298,62	1273,84
298,83	1222,64
299,05	1181,68
299,26	1249,26
299,48	1331,18
299,69	1265,64
299,90	1331,18
300,12	1202,16
300,33	1275,88
300,55	1363,95
300,76	1335,28
300,98	1275,88
301,19	1337,32
301,40	1241,07
301,62	1257,45
301,83	1308,65
302,05	1263,60
302,26	1275,88
302,47	1243,12
302,69	1265,64
302,90	1200,11
303,12	1325,04
303,33	1382,38
303,54	1247,21
303,76	1249,26
303,97	1247,21
304,19	1265,64
304,40	1290,22
304,61	1300,46
304,83	1261,55
305,04	1257,45
305,26	1294,32
305,47	1310,70
305,68	1277,93
305,90	1216,49
306,11	1318,89
306,33	1288,17
306,54	1232,88
306,75	1312,75
306,97	1251,31
307,18	1327,08
307,39	1208,30
307,61	1310,70
307,82	1308,65
308,04	1314,80
308,25	1259,50
308,46	1224,69
308,68	1232,88
308,89	1208,30
309,10	1357,80
309,32	1308,65
309,53	1265,64
309,74	1288,17
309,96	1204,21
310,17	1351,66
310,39	1226,73
310,60	1316,84
310,81	1279,98
311,03	1228,78
311,24	1267,69
311,45	1292,27
311,67	1251,31
311,88	1271,79
312,09	1247,21
312,31	1265,64
312,52	1239,02
312,73	1255,40
312,95	1355,76
313,16	1265,64
313,37	1290,22
313,59	1286,12
313,80	1228,78
314,01	1239,02
314,23	1257,45
314,44	1343,47
314,65	1292,27
314,87	1265,64
315,08	1304,56
315,29	1208,30
315,51	1212,40
315,72	1245,16
315,93	1249,26
316,15	1312,75
316,36	1220,59
316,57	1310,70
316,79	1265,64
317,00	1271,79
317,21	1312,75
317,43	1298,41
317,64	1245,16
317,85	1249,26
318,07	1236,97
318,28	1298,41
318,49	1224,69
318,70	1216,49
318,92	1300,46
319,13	1169,39
319,34	1269,74
319,56	1273,84
319,77	1247,21
319,98	1345,52
320,20	1327,08
320,41	1306,60
320,62	1302,51
320,83	1273,84
321,05	1226,73
321,26	1269,74
321,47	1298,41
321,69	1279,98
321,90	1255,40
322,11	1286,12
322,32	1310,70
322,54	1253,36
322,75	1288,17
322,96	1282,03
323,18	1200,11
323,39	1277,93
323,60	1292,27
323,81	1320,94
324,03	1314,80
324,24	1277,93
324,45	1239,02
324,66	1318,89
324,88	1241,07
325,09	1294,32
325,30	1187,82
325,52	1306,60
325,73	1329,13
325,94	1261,55
326,15	1331,18
326,37	1288,17
326,58	1294,32
326,79	1282,03
327,00	1198,06
327,22	1271,79
327,43	1292,27
327,64	1306,60
327,85	1198,06
328,07	1234,93
328,28	1232,88
328,49	1316,84
328,70	1263,60
328,92	1273,84
329,13	1288,17
329,34	1316,84
329,55	1284,08
329,76	1267,69
329,98	1320,94
330,19	1249,26
330,40	1249,26
330,61	1263,60
330,83	1249,26
331,04	1314,80
331,25	1296,36
331,46	1232,88
331,68	1257,45
331,89	1312,75
332,10	1294,32
332,31	1335,28
332,52	1351,66
332,74	1271,79
332,95	1294,32
333,16	1230,83
333,37	1251,31
333,58	1279,98
333,80	1275,88
334,01	1284,08
334,22	1234,93
334,43	1257,45
334,64	1275,88
334,86	1304,56
335,07	1288,17
335,28	1261,55
335,49	1273,84
335,70	1214,45
335,92	1249,26
336,13	1310,70
336,34	1363,95
336,55	1206,25
336,76	1243,12
336,98	1286,12
337,19	1251,31
337,40	1290,22
337,61	1251,31
337,82	1261,55
338,04	1247,21
338,25	1202,16
338,46	1265,64
338,67	1308,65
338,88	1308,65
339,09	1314,80
339,31	1239,02
339,52	1230,83
339,73	1282,03
339,94	1279,98
340,15	1302,51
340,36	1279,98
340,58	1245,16
340,79	1296,36
341,00	1277,93
341,21	1247,21
341,42	1302,51
341,63	1267,69
341,85	1294,32
342,06	1263,60
342,27	1222,64
342,48	1269,74
342,69	1320,94
342,90	1282,03
343,12	1191,92
343,33	1214,45
343,54	1359,85
343,75	1239,02
343,96	1286,12
344,17	1243,12
344,38	1282,03
344,60	1239,02
344,81	1298,41
345,02	1296,36
345,23	1282,03
345,44	1322,99
345,65	1267,69
345,86	1255,40
346,07	1282,03
346,29	1222,64
346,50	1249,26
346,71	1232,88
346,92	1247,21
347,13	1286,12
347,34	1259,50
347,55	1302,51
347,76	1296,36
347,98	1290,22
348,19	1271,79
348,40	1222,64
348,61	1239,02
348,82	1220,59
349,03	1243,12
349,24	1300,46
349,45	1206,25
349,66	1298,41
349,88	1230,83
350,09	1220,59
350,30	1320,94
350,51	1245,16
350,72	1228,78
350,93	1282,03
351,14	1247,21
351,35	1251,31
351,56	1290,22
351,77	1290,22
351,99	1269,74
352,20	1320,94
352,41	1232,88
352,62	1282,03
352,83	1322,99
353,04	1247,21
353,25	1333,23
353,46	1265,64
353,67	1294,32
353,88	1243,12
354,09	1228,78
354,30	1296,36
354,52	1341,42
354,73	1214,45
354,94	1306,60
355,15	1267,69
355,36	1261,55
355,57	1259,50
355,78	1294,32
355,99	1239,02
356,20	1232,88
356,41	1257,45
356,62	1318,89
356,83	1261,55
357,04	1193,97
357,25	1275,88
357,46	1251,31
357,68	1208,30
357,89	1259,50
358,10	1292,27
358,31	1241,07
358,52	1191,92
358,73	1239,02
358,94	1308,65
359,15	1298,41
359,36	1284,08
359,57	1292,27
359,78	1277,93
359,99	1300,46
360,20	1306,60
360,41	1335,28
360,62	1241,07
360,83	1302,51
361,04	1298,41
361,25	1261,55
361,46	1239,02
361,67	1314,80
361,88	1269,74
362,09	1259,50
362,30	1257,45
362,51	1329,13
362,72	1275,88
362,93	1284,08
363,14	1265,64
363,35	1273,84
363,56	1259,50
363,78	1230,83
363,99	1277,93
364,20	1245,16
364,41	1241,07
364,62	1214,45
364,83	1290,22
365,04	1286,12
365,25	1263,60
365,46	1320,94
365,67	1249,26
365,88	1206,25
366,09	1298,41
366,30	1263,60
366,51	1298,41
366,72	1273,84
366,93	1257,45
367,14	1298,41
367,35	1249,26
367,56	1263,60
367,77	1249,26
367,98	1286,12
368,18	1312,75
368,39	1228,78
368,60	1279,98
368,81	1306,60
369,02	1247,21
369,23	1286,12
369,44	1183,73
369,65	1255,40
369,86	1263,60
370,07	1277,93
370,28	1277,93
370,49	1322,99
370,70	1327,08
370,91	1263,60
371,12	1302,51
371,33	1269,74
371,54	1257,45
371,75	1200,11
371,96	1253,36
372,17	1267,69
372,38	1253,36
372,59	1351,66
372,80	1255,40
373,01	1239,02
373,22	1267,69
373,43	1322,99
373,64	1316,84
373,85	1187,82
374,06	1282,03
374,26	1292,27
374,47	1245,16
374,68	1214,45
374,89	1249,26
375,10	1271,79
375,31	1232,88
375,52	1245,16
375,73	1290,22
375,94	1243,12
376,15	1210,35
376,36	1267,69
376,57	1277,93
376,78	1284,08
376,99	1286,12
377,20	1302,51
377,40	1304,56
377,61	1353,71
377,82	1239,02
378,03	1241,07
378,24	1298,41
378,45	1257,45
378,66	1302,51
378,87	1218,54
379,08	1314,80
379,29	1273,84
379,50	1294,32
379,71	1241,07
379,91	1312,75
380,12	1249,26
380,33	1329,13
380,54	1243,12
380,75	1226,73
380,96	1314,80
381,17	1232,88
381,38	1325,04
381,59	1193,97
381,80	1261,55
382,00	1282,03
382,21	1292,27
382,42	1257,45
382,63	1337,32
382,84	1294,32
383,05	1320,94
383,26	1337,32
383,47	1232,88
383,68	1273,84
383,88	1341,42
384,09	1253,36
384,30	1333,23
384,51	1269,74
384,72	1247,21
384,93	1335,28
385,14	1232,88
385,35	1247,21
385,55	1212,40
385,76	1241,07
385,97	1339,37
386,18	1236,97
386,39	1210,35
386,60	1277,93
386,81	1208,30
387,02	1271,79
387,22	1312,75
387,43	1363,95
387,64	1312,75
387,85	1288,17
388,06	1259,50
388,27	1327,08
388,48	1314,80
388,68	1273,84
388,89	1196,01
389,10	1230,83
389,31	1185,77
389,52	1306,60
389,73	1310,70
389,93	1279,98
390,14	1259,50
390,35	1257,45
390,56	1251,31
390,77	1282,03
390,98	1232,88
391,18	1255,40
391,39	1290,22
391,60	1230,83
391,81	1351,66
392,02	1239,02
392,23	1259,50
392,43	1300,46
392,64	1224,69
392,85	1275,88
393,06	1267,69
393,27	1329,13
393,47	1337,32
393,68	1249,26
393,89	1302,51
394,10	1253,36
394,31	1257,45
394,52	1259,50
394,72	1284,08
394,93	1306,60
395,14	1284,08
395,35	1351,66
395,56	1245,16
395,76	1302,51
395,97	1279,98
396,18	1269,74
396,39	1239,02
396,60	1312,75
396,80	1253,36
397,01	1214,45
397,22	1271,79
397,43	1304,56
397,64	1265,64
397,84	1273,84
398,05	1253,36
398,26	1265,64
398,47	1275,88
398,67	1271,79
398,88	1296,36
399,09	1314,80
399,30	1282,03
399,51	1312,75
399,71	1255,40
399,92	1292,27
400,13	1247,21
400,34	1277,93
400,54	1284,08
400,75	1271,79
400,96	1243,12
401,17	1316,84
401,37	1228,78
401,58	1241,07
401,79	1265,64
402,00	1269,74
402,21	1282,03
402,41	1224,69
402,62	1339,37
402,83	1296,36
403,04	1288,17
403,24	1284,08
403,45	1306,60
403,66	1273,84
403,87	1251,31
404,07	1290,22
404,28	1257,45
404,49	1255,40
404,70	1312,75
404,90	1241,07
405,11	1208,30
405,32	1263,60
405,52	1261,55
405,73	1308,65
405,94	1214,45
406,15	1269,74
406,35	1308,65
406,56	1255,40
406,77	1169,39
406,98	1259,50
407,18	1218,54
407,39	1306,60
407,60	1279,98
407,80	1239,02
408,01	1249,26
408,22	1269,74
408,43	1302,51
408,63	1257,45
408,84	1243,12
409,05	1277,93
409,25	1292,27
409,46	1302,51
409,67	1290,22
409,88	1310,70
410,08	1300,46
410,29	1302,51
410,50	1267,69
410,70	1241,07
410,91	1304,56
411,12	1343,47
411,32	1284,08
411,53	1232,88
411,74	1310,70
411,95	1271,79
412,15	1273,84
412,36	1261,55
412,57	1318,89
412,77	1300,46
412,98	1300,46
413,19	1253,36
413,39	1300,46
413,60	1284,08
413,81	1290,22
414,01	1253,36
414,22	1304,56
414,43	1300,46
414,63	1189,87
414,84	1230,83
415,05	1255,40
415,25	1304,56
415,46	1257,45
415,67	1193,97
415,87	1306,60
416,08	1308,65
416,29	1279,98
416,49	1271,79
416,70	1257,45
416,91	1249,26
417,11	1269,74
417,32	1261,55
417,53	1259,50
417,73	1249,26
417,94	1232,88
418,15	1251,31
418,35	1292,27
418,56	1284,08
418,77	1224,69
418,97	1322,99
419,18	1165,29
419,38	1277,93
419,59	1296,36
419,80	1224,69
420,00	1234,93
420,21	1267,69
420,42	1232,88
420,62	1236,97
420,83	1269,74
421,04	1273,84
421,24	1318,89
421,45	1218,54
421,65	1314,80
421,86	1232,88
422,07	1282,03
422,27	1232,88
422,48	1284,08
422,69	1296,36
422,89	1318,89
423,10	1271,79
423,30	1261,55
423,51	1286,12
423,72	1279,98
423,92	1232,88
424,13	1224,69
424,33	1310,70
424,54	1298,41
424,75	1265,64
424,95	1245,16
425,16	1202,16
425,36	1327,08
425,57	1316,84
425,78	1288,17
425,98	1329,13
426,19	1335,28
426,39	1249,26
426,60	1320,94
426,81	1251,31
427,01	1212,40
427,22	1232,88
427,42	1261,55
427,63	1245,16
427,83	1314,80
428,04	1265,64
428,25	1312,75
428,45	1296,36
428,66	1261,55
428,86	1282,03
429,07	1277,93
429,28	1265,64
429,48	1286,12
429,69	1249,26
429,89	1292,27
430,10	1304,56
430,30	1263,60
430,51	1320,94
430,71	1239,02
430,92	1298,41
431,13	1257,45
431,33	1269,74
431,54	1380,33
431,74	1271,79
431,95	1308,65
432,15	1312,75
432,36	1282,03
432,56	1265,64
432,77	1316,84
432,98	1282,03
433,18	1351,66
433,39	1265,64
433,59	1279,98
433,80	1265,64
434,00	1310,70
434,21	1292,27
434,41	1239,02
434,62	1396,71
434,82	1236,97
435,03	1298,41
435,23	1214,45
435,44	1306,60
435,64	1279,98
435,85	1302,51
436,06	1224,69
436,26	1196,01
436,47	1210,35
436,67	1294,32
436,88	1210,35
437,08	1234,93
437,29	1271,79
437,49	1257,45
437,70	1271,79
437,90	1249,26
438,11	1253,36
438,31	1226,73
438,52	1288,17
438,72	1265,64
438,93	1241,07
439,13	1144,81
439,34	1257,45
439,54	1247,21
439,75	1257,45
439,95	1253,36
440,16	1255,40
440,36	1267,69
440,57	1175,53
440,77	1306,60
440,98	1312,75
441,18	1282,03
441,39	1277,93
441,59	1300,46
441,80	1277,93
442,00	1236,97
442,21	1284,08
442,41	1232,88
442,62	1271,79
442,82	1249,26
443,02	1251,31
443,23	1228,78
443,43	1253,36
443,64	1286,12
443,84	1239,02
444,05	1236,97
444,25	1234,93
444,46	1296,36
444,66	1347,56
444,87	1286,12
445,07	1165,29
445,28	1267,69
445,48	1257,45
445,69	1327,08
445,89	1249,26
446,09	1220,59
446,30	1271,79
446,50	1277,93
446,71	1212,40
446,91	1302,51
447,12	1253,36
447,32	1279,98
447,53	1200,11
447,73	1294,32
447,93	1261,55
448,14	1255,40
448,34	1322,99
448,55	1275,88
448,75	1204,21
448,96	1308,65
449,16	1273,84
449,36	1279,98
449,57	1189,87
449,77	1273,84
449,98	1187,82
450,18	1282,03
450,39	1241,07
450,59	1306,60
450,79	1294,32
451,00	1279,98
451,20	1277,93
451,41	1329,13
451,61	1234,93
451,81	1253,36
452,02	1193,97
452,22	1282,03
452,43	1239,02
452,63	1300,46
452,84	1322,99
453,04	1222,64
453,24	1284,08
453,45	1290,22
453,65	1253,36
453,86	1282,03
454,06	1251,31
454,26	1331,18
454,47	1279,98
454,67	1310,70
454,87	1236,97
455,08	1312,75
455,28	1239,02
455,49	1282,03
455,69	1181,68
455,89	1232,88
456,10	1355,76
456,30	1327,08
456,51	1247,21
456,71	1249,26
456,91	1296,36
457,12	1329,13
457,32	1263,60
457,52	1226,73
457,73	1325,04
457,93	1273,84
458,14	1296,36
458,34	1267,69
458,54	1239,02
458,75	1318,89
458,95	1206,25
459,15	1275,88
459,36	1228,78
459,56	1290,22
459,76	1224,69
459,97	1257,45
460,17	1292,27
460,37	1200,11
460,58	1290,22
460,78	1292,27
460,99	1292,27
461,19	1228,78
461,39	1277,93
461,60	1259,50
461,80	1261,55
462,00	1267,69
462,21	1247,21
462,41	1290,22
462,61	1234,93
462,82	1208,30
463,02	1288,17
463,22	1284,08
463,43	1232,88
463,63	1253,36
463,83	1286,12
464,04	1374,19
464,24	1275,88
464,44	1314,80
464,64	1290,22
464,85	1241,07
465,05	1279,98
465,25	1230,83
465,46	1327,08
465,66	1345,52
465,86	1302,51
466,07	1239,02
466,27	1234,93
466,47	1200,11
466,68	1318,89
466,88	1282,03
467,08	1232,88
467,29	1275,88
467,49	1232,88
467,69	1273,84
467,89	1282,03
468,10	1245,16
468,30	1337,32
468,50	1322,99
468,71	1304,56
468,91	1173,49
469,11	1243,12
469,31	1339,37
469,52	1210,35
469,72	1253,36
469,92	1347,56
470,13	1263,60
470,33	1234,93
470,53	1265,64
470,73	1271,79
470,94	1271,79
471,14	1206,25
471,34	1271,79
471,54	1288,17
471,75	1265,64
471,95	1325,04
472,15	1230,83
472,36	1284,08
472,56	1265,64
472,76	1222,64
472,96	1306,60
473,17	1318,89
473,37	1232,88
473,57	1341,42
473,77	1304,56
473,98	1261,55
474,18	1308,65
474,38	1206,25
474,58	1259,50
474,79	1210,35
474,99	1185,77
475,19	1185,77
475,39	1279,98
475,60	1312,75
475,80	1337,32
476,00	1316,84
476,20	1308,65
476,41	1284,08
476,61	1218,54
476,81	1275,88
477,01	1222,64
477,21	1304,56
477,42	1306,60
477,62	1247,21
477,82	1282,03
478,02	1243,12
478,23	1306,60
478,43	1261,55
478,63	1224,69
478,83	1308,65
479,03	1335,28
479,24	1337,32
479,44	1349,61
479,64	1245,16
479,84	1253,36
480,04	1302,51
480,25	1247,21
480,45	1343,47
480,65	1320,94
480,85	1277,93
481,06	1181,68
481,26	1320,94
481,46	1245,16
481,66	1206,25
481,86	1267,69
482,06	1290,22
482,27	1275,88
482,47	1271,79
482,67	1339,37
482,87	1208,30
483,07	1259,50
483,28	1232,88
483,48	1241,07
483,68	1224,69
483,88	1228,78
484,08	1212,40
484,29	1226,73
484,49	1234,93
484,69	1181,68
484,89	1226,73
485,09	1282,03
485,29	1200,11
485,50	1230,83
485,70	1232,88
485,90	1224,69
486,10	1275,88
486,30	1275,88
486,50	1288,17
486,71	1263,60
486,91	1284,08
487,11	1290,22
487,31	1232,88
487,51	1255,40
487,71	1286,12
487,91	1249,26
488,12	1277,93
488,32	1265,64
488,52	1228,78
488,72	1316,84
488,92	1271,79
489,12	1230,83
489,32	1232,88
489,53	1214,45
489,73	1284,08
489,93	1263,60
490,13	1249,26
490,33	1218,54
490,53	1304,56
490,73	1353,71
490,94	1216,49
491,14	1298,41
491,34	1288,17
491,54	1239,02
491,74	1320,94
491,94	1245,16
492,14	1284,08
492,34	1257,45
492,54	1243,12
492,75	1304,56
492,95	1314,80
493,15	1218,54
493,35	1351,66
493,55	1341,42
493,75	1271,79
493,95	1271,79
494,15	1282,03
494,35	1347,56
494,56	1218,54
494,76	1353,71
494,96	1325,04
495,16	1241,07
495,36	1226,73
495,56	1314,80
495,76	1302,51
495,96	1228,78
496,16	1239,02
496,36	1271,79
496,56	1273,84
496,77	1341,42
496,97	1304,56
497,17	1284,08
497,37	1302,51
497,57	1337,32
497,77	1331,18
497,97	1308,65
498,17	1249,26
498,37	1257,45
498,57	1282,03
498,77	1347,56
498,97	1331,18
499,17	1294,32
499,38	1179,63
499,58	1165,29
499,78	1273,84
499,98	1376,24
500,18	1286,12
500,38	1249,26
500,58	1245,16
500,78	1232,88
500,98	1306,60
501,18	1247,21
501,38	1275,88
501,58	1288,17
501,78	1257,45
501,98	1185,77
502,18	1275,88
502,38	1243,12
502,58	1212,40
502,78	1290,22
502,98	1234,93
503,18	1320,94
503,38	1228,78
503,59	1269,74
503,79	1277,93
503,99	1253,36
504,19	1288,17
504,39	1296,36
504,59	1277,93
504,79	1261,55
504,99	1206,25
505,19	1361,90
505,39	1239,02
505,59	1265,64
505,79	1263,60
505,99	1314,80
506,19	1279,98
506,39	1212,40
506,59	1288,17
506,79	1257,45
506,99	1269,74
507,19	1241,07
507,39	1335,28
507,59	1273,84
507,79	1216,49
507,99	1304,56
508,19	1279,98
508,39	1312,75
508,59	1300,46
508,79	1255,40
508,99	1202,16
509,19	1275,88
509,39	1300,46
509,59	1271,79
509,79	1284,08
509,99	1239,02
510,19	1261,55
510,39	1306,60
510,59	1306,60
510,79	1232,88
510,99	1327,08
511,19	1288,17
511,39	1253,36
511,59	1288,17
511,79	1288,17
511,99	1255,40
512,19	1249,26
512,38	1290,22
512,58	1234,93
512,78	1224,69
512,98	1245,16
513,18	1226,73
513,38	1314,80
513,58	1290,22
513,78	1351,66
513,98	1257,45
514,18	1255,40
514,38	1331,18
514,58	1275,88
514,78	1308,65
514,98	1306,60
515,18	1277,93
515,38	1271,79
515,58	1288,17
515,78	1273,84
515,98	1286,12
516,18	1245,16
516,38	1298,41
516,57	1239,02
516,77	1312,75
516,97	1265,64
517,17	1198,06
517,37	1286,12
517,57	1302,51
517,77	1277,93
517,97	1288,17
518,17	1224,69
518,37	1259,50
518,57	1249,26
518,77	1249,26
518,97	1279,98
519,16	1261,55
519,36	1208,30
519,56	1304,56
519,76	1230,83
519,96	1259,50
520,16	1308,65
520,36	1230,83
520,56	1298,41
520,76	1249,26
520,96	1222,64
521,16	1247,21
521,35	1261,55
521,55	1249,26
521,75	1251,31
521,95	1167,34
522,15	1312,75
522,35	1290,22
522,55	1245,16
522,75	1226,73
522,95	1251,31
523,14	1261,55
523,34	1294,32
523,54	1286,12
523,74	1296,36
523,94	1279,98
524,14	1265,64
524,34	1314,80
524,54	1230,83
524,73	1259,50
524,93	1308,65
525,13	1304,56
525,33	1220,59
525,53	1273,84
525,73	1241,07
525,93	1304,56
526,13	1304,56
526,32	1302,51
526,52	1294,32
526,72	1257,45
526,92	1296,36
527,12	1294,32
527,32	1304,56
527,52	1273,84
527,71	1290,22
527,91	1249,26
528,11	1210,35
528,31	1327,08
528,51	1290,22
528,71	1363,95
528,90	1320,94
529,10	1267,69
529,30	1320,94
529,50	1267,69
529,70	1269,74
529,90	1306,60
530,09	1339,37
530,29	1310,70
530,49	1333,23
530,69	1314,80
530,89	1320,94
531,09	1306,60
531,28	1310,70
531,48	1339,37
531,68	1224,69
531,88	1243,12
532,08	1269,74
532,28	1296,36
532,47	1271,79
532,67	1236,97
532,87	1259,50
533,07	1265,64
533,27	1282,03
533,46	1312,75
533,66	1216,49
533,86	1261,55
534,06	1331,18
534,26	1310,70
534,45	1279,98
534,65	1230,83
534,85	1253,36
535,05	1239,02
535,25	1308,65
535,44	1243,12
535,64	1296,36
535,84	1327,08
536,04	1247,21
536,24	1294,32
536,43	1253,36
536,63	1314,80
536,83	1282,03
537,03	1263,60
537,22	1314,80
537,42	1249,26
537,62	1335,28
537,82	1273,84
538,02	1310,70
538,21	1243,12
538,41	1224,69
538,61	1302,51
538,81	1216,49
539,00	1290,22
539,20	1273,84
539,40	1296,36
539,60	1312,75
539,79	1312,75
539,99	1284,08
540,19	1247,21
540,39	1292,27
540,58	1288,17
540,78	1261,55
540,98	1241,07
541,18	1263,60
541,37	1249,26
541,57	1308,65
541,77	1310,70
541,97	1261,55
542,16	1234,93
542,36	1243,12
542,56	1247,21
542,76	1290,22
542,95	1226,73
543,15	1255,40
543,35	1243,12
543,54	1228,78
543,74	1288,17
543,94	1310,70
544,14	1245,16
544,33	1341,42
544,53	1359,85
544,73	1245,16
544,93	1204,21
545,12	1261,55
545,32	1269,74
545,52	1239,02
545,71	1296,36
545,91	1208,30
546,11	1259,50
546,30	1306,60
546,50	1286,12
546,70	1320,94
546,90	1290,22
547,09	1261,55
547,29	1245,16
547,49	1259,50
547,68	1282,03
547,88	1187,82
548,08	1214,45
548,27	1353,71
548,47	1290,22
548,67	1312,75
548,87	1308,65
549,06	1263,60
549,26	1226,73
549,46	1275,88
549,65	1269,74
549,85	1288,17
550,05	1271,79
550,24	1245,16
550,44	1267,69
550,64	1239,02
550,83	1249,26
551,03	1318,89
551,23	1282,03
551,42	1228,78
551,62	1290,22
551,82	1239,02
552,01	1308,65
552,21	1279,98
552,41	1277,93
552,60	1228,78
552,80	1275,88
553,00	1296,36
553,19	1263,60
553,39	1265,64
553,59	1292,27
553,78	1228,78
553,98	1294,32
554,17	1257,45
554,37	1284,08
554,57	1300,46
554,76	1275,88
554,96	1275,88
555,16	1269,74
555,35	1177,58
555,55	1279,98
555,75	1253,36
555,94	1337,32
556,14	1310,70
556,33	1337,32
556,53	1249,26
556,73	1277,93
556,92	1286,12
557,12	1325,04
557,32	1300,46
557,51	1347,56
557,71	1282,03
557,90	1265,64
558,10	1239,02
558,30	1261,55
558,49	1259,50
558,69	1267,69
558,88	1255,40
559,08	1243,12
559,28	1220,59
559,47	1273,84
559,67	1363,95
559,86	1220,59
560,06	1347,56
560,26	1345,52
560,45	1294,32
560,65	1263,60
560,84	1259,50
561,04	1232,88
561,24	1288,17
561,43	1282,03
561,63	1236,97
561,82	1314,80
562,02	1263,60
562,22	1267,69
562,41	1267,69
562,61	1218,54
562,80	1236,97
563,00	1312,75
563,19	1277,93
563,39	1263,60
563,59	1277,93
563,78	1265,64
563,98	1273,84
564,17	1273,84
564,37	1206,25
564,56	1226,73
564,76	1310,70
564,96	1277,93
565,15	1234,93
565,35	1300,46
565,54	1249,26
565,74	1347,56
565,93	1290,22
566,13	1245,16
566,32	1232,88
566,52	1220,59
566,71	1257,45
566,91	1255,40
567,11	1329,13
567,30	1288,17
567,50	1273,84
567,69	1267,69
567,89	1378,28
568,08	1298,41
568,28	1249,26
568,47	1210,35
568,67	1234,93
568,86	1296,36
569,06	1226,73
569,25	1279,98
569,45	1316,84
569,64	1234,93
569,84	1294,32
570,04	1216,49
570,23	1282,03
570,43	1279,98
570,62	1290,22
570,82	1320,94
571,01	1314,80
571,21	1236,97
571,40	1294,32
571,60	1261,55
571,79	1257,45
571,99	1265,64
572,18	1257,45
572,38	1404,91
572,57	1251,31
572,77	1306,60
572,96	1228,78
573,16	1263,60
573,35	1335,28
573,55	1304,56
573,74	1265,64
573,94	1253,36
574,13	1290,22
574,33	1292,27
574,52	1257,45
574,71	1265,64
574,91	1292,27
575,10	1224,69
575,30	1284,08
575,49	1271,79
575,69	1294,32
575,88	1282,03
576,08	1298,41
576,27	1374,19
576,47	1265,64
576,66	1353,71
576,86	1265,64
577,05	1320,94
577,25	1257,45
577,44	1257,45
577,64	1253,36
577,83	1261,55
578,02	1251,31
578,22	1206,25
578,41	1239,02
578,61	1249,26
578,80	1232,88
579,00	1284,08
579,19	1314,80
579,39	1222,64
579,58	1222,64
579,77	1300,46
579,97	1312,75
580,16	1292,27
580,36	1224,69
580,55	1312,75
580,75	1263,60
580,94	1218,54
581,13	1273,84
581,33	1290,22
581,52	1337,32
581,72	1271,79
581,91	1245,16
582,11	1185,77
582,30	1273,84
582,49	1308,65
582,69	1302,51
582,88	1275,88
583,08	1230,83
583,27	1286,12
583,47	1249,26
583,66	1189,87
583,85	1288,17
584,05	1251,31
584,24	1300,46
584,44	1279,98
584,63	1261,55
584,82	1275,88
585,02	1253,36
585,21	1282,03
585,41	1353,71
585,60	1329,13
585,79	1306,60
585,99	1306,60
586,18	1216,49
586,37	1300,46
586,57	1314,80
586,76	1275,88
586,96	1320,94
587,15	1263,60
587,34	1304,56
587,54	1216,49
587,73	1251,31
587,93	1288,17
588,12	1306,60
588,31	1224,69
588,51	1216,49
588,70	1277,93
588,89	1255,40
589,09	1300,46
589,28	1269,74
589,47	1204,21
589,67	1290,22
589,86	1300,46
590,06	1290,22
590,25	1232,88
590,44	1325,04
590,64	1265,64
590,83	1294,32
591,02	1251,31
591,22	1279,98
591,41	1286,12
591,60	1212,40
591,80	1271,79
591,99	1273,84
592,18	1329,13
592,38	1304,56
592,57	1253,36
592,76	1232,88
592,96	1290,22
593,15	1277,93
593,34	1277,93
593,54	1316,84
593,73	1228,78
593,92	1222,64
594,12	1314,80
594,31	1249,26
594,50	1273,84
594,70	1325,04
594,89	1310,70
595,08	1275,88
595,28	1255,40
595,47	1284,08
595,66	1298,41
595,86	1279,98
596,05	1228,78
596,24	1314,80
596,43	1306,60
596,63	1279,98
596,82	1245,16
597,01	1286,12
597,21	1261,55
597,40	1288,17
597,59	1216,49
597,79	1302,51
597,98	1335,28
598,17	1265,64
598,36	1294,32
598,56	1249,26
598,75	1310,70
598,94	1306,60
599,14	1327,08
599,33	1251,31
599,52	1198,06
599,71	1277,93
599,91	1312,75
600,10	1224,69
600,29	1316,84
600,48	1331,18
600,68	1265,64
600,87	1265,64
601,06	1239,02
601,26	1257,45
601,45	1183,73
601,64	1282,03
601,83	1271,79
602,03	1292,27
602,22	1288,17
602,41	1290,22
602,60	1304,56
602,80	1232,88
602,99	1236,97
603,18	1366,00
603,37	1257,45
603,57	1251,31
603,76	1298,41
603,95	1308,65
604,14	1269,74
604,34	1279,98
604,53	1329,13
604,72	1275,88
604,91	1269,74
605,10	1292,27
605,30	1236,97
605,49	1284,08
605,68	1296,36
605,87	1202,16
606,07	1292,27
606,26	1255,40
606,45	1320,94
606,64	1177,58
606,84	1234,93
607,03	1245,16
607,22	1267,69
607,41	1230,83
607,60	1263,60
607,80	1263,60
607,99	1296,36
608,18	1267,69
608,37	1298,41
608,56	1331,18
608,76	1216,49
608,95	1308,65
609,14	1288,17
609,33	1247,21
609,52	1304,56
609,72	1263,60
609,91	1298,41
610,10	1290,22
610,29	1331,18
610,48	1259,50
610,68	1314,80
610,87	1279,98
611,06	1292,27
611,25	1284,08
611,44	1249,26
611,63	1308,65
611,83	1341,42
612,02	1275,88
612,21	1318,89
612,40	1284,08
612,59	1296,36
612,79	1210,35
612,98	1259,50
613,17	1296,36
613,36	1232,88
613,55	1247,21
613,74	1208,30
613,93	1316,84
614,13	1325,04
614,32	1271,79
614,51	1279,98
614,70	1273,84
614,89	1298,41
615,08	1271,79
615,28	1298,41
615,47	1253,36
615,66	1265,64
615,85	1224,69
616,04	1257,45
616,23	1314,80
616,42	1329,13
616,62	1333,23
616,81	1257,45
617,00	1263,60
617,19	1302,51
617,38	1269,74
617,57	1255,40
617,76	1275,88
617,95	1337,32
618,15	1218,54
618,34	1249,26
618,53	1249,26
618,72	1234,93
618,91	1372,14
619,10	1269,74
619,29	1294,32
619,48	1282,03
619,68	1279,98
619,87	1314,80
620,06	1257,45
620,25	1265,64
620,44	1257,45
620,63	1279,98
620,82	1318,89
621,01	1288,17
621,20	1282,03
621,39	1316,84
621,59	1269,74
621,78	1271,79
621,97	1316,84
622,16	1275,88
622,35	1255,40
622,54	1290,22
622,73	1265,64
622,92	1232,88
623,11	1298,41
623,30	1200,11
623,49	1196,01
623,68	1294,32
623,88	1279,98
624,07	1347,56
624,26	1304,56
624,45	1306,60
624,64	1224,69
624,83	1312,75
625,02	1273,84
625,21	1357,80
625,40	1292,27
625,59	1234,93
625,78	1304,56
625,97	1286,12
626,16	1251,31
626,35	1253,36
626,54	1277,93
626,74	1294,32
626,93	1273,84
627,12	1318,89
627,31	1247,21
627,50	1234,93
627,69	1325,04
627,88	1349,61
628,07	1304,56
628,26	1292,27
628,45	1257,45
628,64	1257,45
628,83	1208,30
629,02	1314,80
629,21	1275,88
629,40	1247,21
629,59	1302,51
629,78	1357,80
629,97	1310,70
630,16	1329,13
630,35	1245,16
630,54	1271,79
630,73	1267,69
630,92	1288,17
631,11	1345,52
631,30	1351,66
631,49	1318,89
631,68	1345,52
631,87	1435,63
632,06	1476,59
632,25	1411,05
632,44	1507,30
632,63	1384,43
632,82	1421,29
633,01	1462,25
633,20	1490,92
633,39	1488,87
633,58	1531,88
633,77	1427,43
633,96	1544,17
634,15	1595,37
634,34	2621,40
634,53	2930,64
634,72	2052,06
634,91	1703,91
635,10	2652,12
635,29	4042,69
635,48	4491,20
635,67	4065,22
635,86	3454,92
636,05	2811,86
636,24	2148,32
636,43	1748,97
636,62	1585,13
636,81	1492,97
637,00	1406,95
637,19	1353,71
637,38	1312,75
637,57	1347,56
637,76	1339,37
637,95	1275,88
638,14	1339,37
638,33	1261,55
638,52	1359,85
638,71	1316,84
638,89	1284,08
639,08	1279,98
639,27	1298,41
639,46	1206,25
639,65	1204,21
639,84	1325,04
640,03	1298,41
640,22	1239,02
640,41	1349,61
640,60	1300,46
640,79	1329,13
640,98	1257,45
641,17	1349,61
641,36	1284,08
641,55	1335,28
641,74	1331,18
641,92	1206,25
642,11	1241,07
642,30	1249,26
642,49	1353,71
642,68	1232,88
642,87	1318,89
643,06	1271,79
643,25	1288,17
643,44	1277,93
643,63	1193,97
643,82	1279,98
644,00	1357,80
644,19	1232,88
644,38	1290,22
644,57	1255,40
644,76	1292,27
644,95	1335,28
645,14	1304,56
645,33	1263,60
645,52	1255,40
645,71	1288,17
645,89	1255,40
646,08	1302,51
646,27	1277,93
646,46	1198,06
646,65	1275,88
646,84	1236,97
647,03	1243,12
647,22	1302,51
647,40	1265,64
647,59	1290,22
647,78	1282,03
647,97	1322,99
648,16	1269,74
648,35	1228,78
648,54	1249,26
648,73	1257,45
648,91	1327,08
649,10	1255,40
649,29	1322,99
649,48	1292,27
649,67	1308,65
649,86	1279,98
650,05	1273,84
650,23	1226,73
650,42	1224,69
650,61	1236,97
650,80	1269,74
650,99	1253,36
651,18	1282,03
651,36	1163,25
651,55	1249,26
651,74	1318,89
651,93	1275,88
652,12	1253,36
652,31	1294,32
652,49	1286,12
652,68	1273,84
652,87	1239,02
653,06	1259,50
653,25	1318,89
653,44	1316,84
653,62	1349,61
653,81	1329,13
654,00	1316,84
654,19	1206,25
654,38	1271,79
654,56	1259,50
654,75	1296,36
654,94	1316,84
655,13	1282,03
655,32	1243,12
655,51	1279,98
655,69	1284,08
655,88	1234,93
656,07	1306,60
656,26	1290,22
656,45	1275,88
656,63	1277,93
656,82	1222,64
657,01	1318,89
657,20	1345,52
657,38	1208,30
657,57	1310,70
657,76	1259,50
657,95	1279,98
658,14	1208,30
658,32	1290,22
658,51	1273,84
658,70	1189,87
658,89	1294,32
659,08	1349,61
659,26	1279,98
659,45	1236,97
659,64	1255,40
659,83	1308,65
660,01	1294,32
660,20	1370,09
660,39	1320,94
660,58	1220,59
660,76	1271,79
660,95	1275,88
661,14	1257,45
661,33	1210,35
661,51	1236,97
661,70	1214,45
661,89	1310,70
662,08	1243,12
662,26	1234,93
662,45	1310,70
662,64	1345,52
662,83	1265,64
663,01	1243,12
663,20	1286,12
663,39	1255,40
663,58	1314,80
663,76	1273,84
663,95	1253,36
664,14	1279,98
664,32	1218,54
664,51	1212,40
664,70	1261,55
664,89	1249,26
665,07	1181,68
665,26	1245,16
665,45	1267,69
665,64	1273,84
665,82	1239,02
666,01	1271,79
666,20	1259,50
666,38	1269,74
666,57	1239,02
666,76	1202,16
666,95	1228,78
667,13	1253,36
667,32	1290,22
667,51	1232,88
667,69	1243,12
667,88	1247,21
668,07	1275,88
668,25	1306,60
668,44	1255,40
668,63	1198,06
668,81	1282,03
669,00	1212,40
669,19	1290,22
669,38	1290,22
669,56	1269,74
669,75	1320,94
669,94	1290,22
670,12	1312,75
670,31	1333,23
670,50	1286,12
670,68	1234,93
670,87	1228,78
671,06	1241,07
671,24	1290,22
671,43	1298,41
671,62	1337,32
671,80	1224,69
671,99	1249,26
672,18	1306,60
672,36	1216,49
672,55	1251,31
672,74	1282,03
672,92	1228,78
673,11	1232,88
673,29	1286,12
673,48	1341,42
673,67	1220,59
673,85	1247,21
674,04	1228,78
674,23	1265,64
674,41	1292,27
674,60	1296,36
674,79	1269,74
674,97	1284,08
675,16	1273,84
675,34	1228,78
675,53	1257,45
675,72	1284,08
675,90	1220,59
676,09	1239,02
676,28	1306,60
676,46	1249,26
676,65	1325,04
676,83	1228,78
677,02	1216,49
677,21	1243,12
677,39	1302,51
677,58	1179,63
677,77	1257,45
677,95	1245,16
678,14	1308,65
678,32	1251,31
678,51	1267,69
678,70	1306,60
678,88	1255,40
679,07	1189,87
679,25	1275,88
679,44	1304,56
679,63	1263,60
679,81	1271,79
680,00	1286,12
680,18	1234,93
680,37	1277,93
680,55	1208,30
680,74	1241,07
680,93	1277,93
681,11	1247,21
681,30	1243,12
681,48	1279,98
681,67	1322,99
681,85	1257,45
682,04	1275,88
682,23	1312,75
682,41	1230,83
682,60	1259,50
682,78	1286,12
682,97	1265,64
683,15	1329,13
683,34	1214,45
683,53	1261,55
683,71	1239,02
683,90	1277,93
684,08	1312,75
684,27	1286,12
684,45	1255,40
684,64	1206,25
684,82	1316,84
685,01	1325,04
685,19	1196,01
685,38	1335,28
685,57	1288,17
685,75	1275,88
685,94	1251,31
686,12	1277,93
686,31	1282,03
686,49	1284,08
686,68	1271,79
686,86	1298,41
687,05	1234,93
687,23	1277,93
687,42	1288,17
687,60	1263,60
687,79	1269,74
687,97	1271,79
688,16	1400,81
688,34	1294,32
688,53	1253,36
688,71	1370,09
688,90	1290,22
689,08	1282,03
689,27	1284,08
689,45	1241,07
689,64	1290,22
689,82	1239,02
690,01	1189,87
690,19	1220,59
690,38	1230,83
690,56	1232,88
690,75	1273,84
690,93	1288,17
691,12	1318,89
691,30	1273,84
691,49	1232,88
691,67	1247,21
691,86	1226,73
692,04	1251,31
692,23	1177,58
692,41	1261,55
692,60	1236,97
692,78	1279,98
692,97	1191,92
693,15	1294,32
693,34	1222,64
693,52	1288,17
693,71	1275,88
693,89	1230,83
694,08	1224,69
694,26	1273,84
694,44	1279,98
694,63	1241,07
694,81	1212,40
695,00	1306,60
695,18	1232,88
695,37	1245,16
695,55	1284,08
695,74	1304,56
695,92	1320,94
696,10	1282,03
696,29	1357,80
696,47	1296,36
696,66	1279,98
696,84	1265,64
697,03	1247,21
697,21	1282,03
697,40	1327,08
697,58	1251,31
697,76	1275,88
697,95	1282,03
698,13	1181,68
698,32	1288,17
698,50	1243,12
698,68	1273,84
698,87	1241,07
699,05	1243,12
699,24	1286,12
699,42	1312,75
699,61	1241,07
699,79	1273,84
699,97	1279,98
700,16	1302,51
700,34	1271,79
700,53	1259,50
700,71	1269,74
700,89	1329,13
701,08	1214,45
701,26	1251,31
701,45	1316,84
701,63	1294,32
701,81	1228,78
702,00	1329,13
702,18	1298,41
702,37	1277,93
702,55	1263,60
702,73	1294,32
702,92	1320,94
703,10	1329,13
703,28	1208,30
703,47	1284,08
703,65	1300,46
703,84	1327,08
704,02	1263,60
704,20	1286,12
704,39	1357,80
704,57	1257,45
704,75	1351,66
704,94	1265,64
705,12	1234,93
705,30	1263,60
705,49	1282,03
705,67	1279,98
705,86	1300,46
706,04	1196,01
706,22	1282,03
706,41	1288,17
706,59	1165,29
706,77	1247,21
706,96	1273,84
707,14	1234,93
707,32	1236,97
707,51	1288,17
707,69	1218,54
707,87	1196,01
708,06	1310,70
708,24	1290,22
708,42	1282,03
708,61	1226,73
708,79	1318,89
708,97	1204,21
709,16	1253,36
709,34	1216,49
709,52	1228,78
709,71	1320,94
709,89	1247,21
710,07	1294,32
710,26	1263,60
710,44	1163,25
710,62	1355,76
710,80	1318,89
710,99	1284,08
711,17	1279,98
711,35	1243,12
711,54	1271,79
711,72	1163,25
711,90	1232,88
712,09	1277,93
712,27	1267,69
712,45	1212,40
712,63	1230,83
712,82	1226,73
713,00	1312,75
713,18	1261,55
713,37	1312,75
713,55	1228,78
713,73	1275,88
713,91	1218,54
714,10	1249,26
714,28	1320,94
714,46	1322,99
714,65	1232,88
714,83	1216,49
715,01	1290,22
715,19	1239,02
715,38	1312,75
715,56	1224,69
715,74	1314,80
715,92	1279,98
716,11	1314,80
716,29	1284,08
716,47	1239,02
716,65	1273,84
716,84	1314,80
717,02	1269,74
717,20	1234,93
717,38	1267,69
717,57	1318,89
717,75	1273,84
717,93	1253,36
718,11	1361,90
718,30	1218,54
718,48	1187,82
718,66	1253,36
718,84	1329,13
719,03	1214,45
719,21	1218,54
719,39	1243,12
719,57	1241,07
719,75	1277,93
719,94	1282,03
720,12	1275,88
720,30	1306,60
720,48	1269,74
720,67	1206,25
720,85	1355,76
721,03	1257,45
721,21	1249,26
721,39	1265,64
721,58	1196,01
721,76	1306,60
721,94	1226,73
722,12	1341,42
722,30	1245,16
722,49	1310,70
722,67	1251,31
722,85	1318,89
723,03	1290,22
723,21	1241,07
723,40	1263,60
723,58	1236,97
723,76	1292,27
723,94	1277,93
724,12	1267,69
724,30	1265,64
724,49	1263,60
724,67	1318,89
724,85	1269,74
725,03	1251,31
725,21	1171,44
725,40	1329,13
725,58	1239,02
725,76	1263,60
725,94	1279,98
726,12	1296,36
726,30	1210,35
726,49	1253,36
726,67	1249,26
726,85	1232,88
727,03	1292,27
727,21	1290,22
727,39	1218,54
727,57	1288,17
727,76	1273,84
727,94	1269,74
728,12	1265,64
728,30	1290,22
728,48	1275,88
728,66	1204,21
728,84	1284,08
729,03	1175,53
729,21	1288,17
729,39	1363,95
729,57	1236,97
729,75	1241,07
729,93	1267,69
730,11	1234,93
730,30	1275,88
730,48	1241,07
730,66	1243,12
730,84	1191,92
731,02	1261,55
731,20	1265,64
731,38	1169,39
731,56	1245,16
731,74	1265,64
731,93	1267,69
732,11	1282,03
732,29	1257,45
732,47	1277,93
732,65	1300,46
732,83	1279,98
733,01	1208,30
733,19	1261,55
733,37	1261,55
733,56	1322,99
733,74	1236,97
733,92	1279,98
734,10	1261,55
734,28	1255,40
734,46	1298,41
734,64	1331,18
734,82	1286,12
735,00	1191,92
735,18	1296,36
735,36	1292,27
735,54	1327,08
735,73	1255,40
735,91	1251,31
736,09	1286,12
736,27	1282,03
736,45	1202,16
736,63	1292,27
736,81	1245,16
736,99	1261,55
737,17	1232,88
737,35	1232,88
737,53	1261,55
737,71	1320,94
737,89	1349,61
738,07	1251,31
738,25	1263,60
738,43	1300,46
738,61	1275,88
738,80	1331,18
738,98	1298,41
739,16	1320,94
739,34	1333,23
739,52	1257,45
739,70	1185,77
739,88	1239,02
740,06	1228,78
740,24	1267,69
740,42	1298,41
740,60	1241,07
740,78	1300,46
740,96	1214,45
741,14	1183,73
741,32	1302,51
741,50	1294,32
741,68	1282,03
741,86	1304,56
742,04	1255,40
742,22	1271,79
742,40	1241,07
742,58	1247,21
742,76	1255,40
742,94	1300,46
743,12	1196,01
743,30	1284,08
743,48	1271,79
743,66	1294,32
743,84	1241,07
744,02	1288,17
744,20	1322,99
744,38	1257,45
744,56	1304,56
744,74	1345,52
744,92	1325,04
745,10	1288,17
745,28	1216,49
745,46	1239,02
745,64	1279,98
745,82	1335,28
746,00	1269,74
746,18	1306,60
746,36	1269,74
746,54	1189,87
746,72	1275,88
746,90	1277,93
747,08	1234,93
747,26	1230,83
747,44	1249,26
747,62	1259,50
747,80	1284,08
747,98	1241,07
748,15	1273,84
748,33	1271,79
748,51	1277,93
748,69	1288,17
748,87	1208,30
749,05	1265,64
749,23	1296,36
749,41	1273,84
749,59	1322,99
749,77	1294,32
749,95	1300,46
750,13	1259,50
750,31	1228,78
750,49	1220,59
750,67	1312,75
750,85	1249,26
751,03	1292,27
751,20	1327,08
751,38	1230,83
751,56	1259,50
751,74	1189,87
751,92	1177,58
752,10	1273,84
752,28	1228,78
752,46	1296,36
752,64	1292,27
752,82	1220,59
753,00	1282,03
753,18	1241,07
753,35	1282,03
753,53	1261,55
753,71	1253,36
753,89	1241,07
754,07	1341,42
754,25	1320,94
754,43	1384,43
754,61	1298,41
754,79	1310,70
754,97	1296,36
755,14	1249,26
755,32	1265,64
755,50	1257,45
755,68	1337,32
755,86	1259,50
756,04	1198,06
756,22	1286,12
756,40	1282,03
756,57	1243,12
756,75	1208,30
756,93	1294,32
757,11	1292,27
757,29	1253,36
757,47	1253,36
757,65	1247,21
757,82	1183,73
758,00	1296,36
758,18	1259,50
758,36	1306,60
758,54	1343,47
758,72	1361,90
758,90	1341,42
759,07	1251,31
759,25	1206,25
759,43	1255,40
759,61	1284,08
759,79	1341,42
759,97	1279,98
760,15	1239,02
760,32	1230,83
760,50	1286,12
760,68	1220,59
760,86	1253,36
761,04	1306,60
761,22	1284,08
761,39	1331,18
761,57	1175,53
761,75	1243,12
761,93	1193,97
762,11	1279,98
762,28	1282,03
762,46	1290,22
762,64	1251,31
762,82	1302,51
763,00	1271,79
763,18	1247,21
763,35	1288,17
763,53	1271,79
763,71	1189,87
763,89	1296,36
764,07	1267,69
764,24	1210,35
764,42	1257,45
764,60	1249,26
764,78	1306,60
764,96	1193,97
765,13	1327,08
765,31	1300,46
765,49	1355,76
765,67	1239,02
765,84	1234,93
766,02	1271,79
766,20	1271,79
766,38	1308,65
766,56	1239,02
766,73	1245,16
766,91	1218,54
767,09	1325,04
767,27	1204,21
767,44	1208,30
767,62	1288,17
767,80	1302,51
767,98	1333,23
768,15	1290,22
768,33	1253,36
768,51	1294,32
768,69	1228,78
768,87	1363,95
769,04	1261,55
769,22	1273,84
769,40	1255,40
769,58	1288,17
769,75	1275,88
769,93	1304,56
770,11	1253,36
770,28	1249,26
770,46	1286,12
770,64	1206,25
770,82	1247,21
770,99	1271,79
771,17	1251,31
771,35	1232,88
771,53	1335,28
771,70	1232,88
771,88	1308,65
772,06	1271,79
772,23	1286,12
772,41	1306,60
772,59	1216,49
772,77	1257,45
772,94	1218,54
773,12	1236,97
773,30	1296,36
773,47	1202,16
773,65	1253,36
773,83	1335,28
774,01	1290,22
774,18	1200,11
774,36	1230,83
774,54	1234,93
774,71	1236,97
774,89	1216,49
775,07	1226,73
775,24	1232,88
775,42	1277,93
775,60	1275,88
775,78	1241,07
775,95	1204,21
776,13	1208,30
776,31	1253,36
776,48	1288,17
776,66	1282,03
776,84	1253,36
777,01	1243,12
777,19	1259,50
777,37	1181,68
777,54	1296,36
777,72	1277,93
777,90	1286,12
778,07	1277,93
778,25	1320,94
778,43	1286,12
778,60	1320,94
778,78	1249,26
778,96	1335,28
779,13	1302,51
779,31	1249,26
779,49	1271,79
779,66	1214,45
779,84	1294,32
780,01	1269,74
780,19	1241,07
780,37	1329,13
780,54	1290,22
780,72	1288,17
780,90	1269,74
781,07	1206,25
781,25	1267,69
781,43	1292,27
781,60	1282,03
781,78	1265,64
781,95	1286,12
782,13	1269,74
782,31	1234,93
782,48	1269,74
782,66	1282,03
782,83	1275,88
783,01	1279,98
783,19	1271,79
783,36	1370,09
783,54	1290,22
783,72	1282,03
783,89	1304,56
784,07	1259,50
784,24	1265,64
784,42	1363,95
784,60	1279,98
784,77	1247,21
784,95	1177,58
785,12	1271,79
785,30	1253,36
785,47	1208,30
785,65	1277,93
785,83	1302,51
786,00	1245,16
786,18	1353,71
786,35	1251,31
786,53	1212,40
786,71	1277,93
786,88	1300,46
787,06	1253,36
787,23	1243,12
787,41	1228,78
787,58	1296,36
787,76	1277,93
787,94	1239,02
788,11	1222,64
788,29	1292,27
788,46	1277,93
788,64	1273,84
788,81	1294,32
788,99	1314,80
789,16	1216,49
789,34	1345,52
789,52	1230,83
789,69	1282,03
789,87	1196,01
790,04	1265,64
790,22	1288,17
790,39	1234,93
790,57	1232,88
790,74	1259,50
790,92	1236,97
791,09	1255,40
791,27	1230,83
791,44	1273,84
791,62	1292,27
791,79	1290,22
791,97	1239,02
792,15	1316,84
792,32	1316,84
792,50	1279,98
792,67	1241,07
792,85	1275,88
793,02	1335,28
793,20	1230,83
793,37	1347,56
793,55	1279,98
793,72	1206,25
793,90	1277,93
794,07	1298,41
794,25	1298,41
794,42	1232,88
794,60	1277,93
794,77	1257,45
794,95	1269,74
795,12	1259,50
795,30	1208,30
795,47	1239,02
795,65	1347,56
795,82	1279,98
796,00	1187,82
796,17	1206,25
796,34	1263,60
796,52	1284,08
796,69	1286,12
796,87	1218,54
797,04	1249,26
797,22	1241,07
797,39	1241,07
797,57	1212,40
797,74	1271,79
797,92	1245,16
798,09	1353,71
798,27	1251,31
798,44	1239,02
798,62	1261,55
798,79	1265,64
798,96	1220,59
799,14	1282,03
799,31	1275,88
799,49	1228,78
799,66	1318,89
799,84	1329,13
800,01	1259,50
800,19	1157,10
800,36	1292,27
800,53	1286,12
800,71	1318,89
800,88	1322,99
801,06	1208,30
801,23	1331,18
801,41	1247,21
801,58	1294,32
801,75	1298,41
801,93	1351,66
802,10	1298,41
802,28	1355,76
802,45	1200,11
802,63	1345,52
802,80	1249,26
802,97	1261,55
803,15	1320,94
803,32	1292,27
803,50	1265,64
803,67	1300,46
803,84	1298,41
804,02	1329,13
804,19	1224,69
804,37	1265,64
804,54	1253,36
804,71	1320,94
804,89	1216,49
805,06	1265,64
805,24	1288,17
805,41	1243,12
805,58	1210,35
805,76	1296,36
805,93	1245,16
806,10	1214,45
806,28	1306,60
806,45	1245,16
806,63	1292,27
806,80	1214,45
806,97	1290,22
807,15	1241,07
807,32	1243,12
807,49	1265,64
807,67	1243,12
807,84	1314,80
808,01	1267,69
808,19	1259,50
808,36	1298,41
808,54	1273,84
808,71	1335,28
808,88	1277,93
809,06	1279,98
809,23	1292,27
809,40	1253,36
809,58	1193,97
809,75	1228,78
809,92	1259,50
810,10	1271,79
810,27	1378,28
810,44	1290,22
810,62	1247,21
810,79	1228,78
810,96	1220,59
811,14	1245,16
811,31	1218,54
811,48	1265,64
811,66	1249,26
811,83	1286,12
812,00	1284,08
812,18	1320,94
812,35	1275,88
812,52	1296,36
812,69	1327,08
812,87	1290,22
813,04	1236,97
813,21	1245,16
813,39	1284,08
813,56	1302,51
813,73	1243,12
813,91	1255,40
814,08	1300,46
814,25	1265,64
814,42	1239,02
814,60	1265,64
814,77	1265,64
814,94	1236,97
815,12	1298,41
815,29	1273,84
815,46	1263,60
815,63	1210,35
815,81	1230,83
815,98	1253,36
816,15	1232,88
816,33	1294,32
816,50	1255,40
816,67	1298,41
816,84	1294,32
817,02	1200,11
817,19	1265,64
817,36	1300,46
817,53	1279,98
817,71	1269,74
817,88	1292,27
818,05	1218,54
818,22	1228,78
818,40	1198,06
818,57	1257,45
818,74	1185,77
818,91	1296,36
819,09	1191,92
819,26	1249,26
819,43	1232,88
819,60	1255,40
819,78	1304,56
819,95	1308,65
820,12	1239,02
820,29	1200,11
820,47	1265,64
820,64	1296,36
820,81	1241,07
820,98	1239,02
821,15	1259,50
821,33	1310,70
821,50	1327,08
821,67	1245,16
821,84	1296,36
822,02	1284,08
822,19	1267,69
822,36	1284,08
822,53	1275,88
822,70	1282,03
822,88	1241,07
823,05	1275,88
823,22	1290,22
823,39	1327,08
823,56	1292,27
823,74	1239,02
823,91	1261,55
824,08	1277,93
824,25	1261,55
824,42	1339,37
824,60	1257,45
824,77	1193,97
824,94	1300,46
825,11	1273,84
825,28	1245,16
825,45	1261,55
825,63	1261,55
825,80	1275,88
825,97	1316,84
826,14	1216,49
826,31	1206,25
826,48	1263,60
826,66	1226,73
826,83	1220,59
827,00	1310,70
827,17	1191,92
827,34	1279,98
827,51	1241,07
827,69	1310,70
827,86	1298,41
828,03	1312,75
828,20	1345,52
828,37	1286,12
828,54	1269,74
828,71	1290,22
828,89	1224,69
829,06	1191,92
829,23	1226,73
829,40	1257,45
829,57	1290,22
829,74	1261,55
829,91	1230,83
830,09	1306,60
830,26	1247,21
830,43	1335,28
830,60	1245,16
830,77	1316,84
830,94	1273,84
831,11	1232,88
831,28	1298,41
831,46	1310,70
831,63	1259,50
831,80	1279,98
831,97	1230,83
832,14	1259,50
832,31	1300,46
832,48	1218,54
832,65	1339,37
832,82	1261,55
832,99	1310,70
833,17	1259,50
833,34	1277,93
833,51	1282,03
833,68	1267,69
833,85	1273,84
834,02	1275,88
834,19	1298,41
834,36	1253,36
834,53	1249,26
834,70	1206,25
834,87	1271,79
835,04	1314,80
835,22	1304,56
835,39	1288,17
835,56	1273,84
835,73	1294,32
835,90	1253,36
836,07	1316,84
836,24	1296,36
836,41	1298,41
836,58	1263,60
836,75	1290,22
836,92	1331,18
837,09	1286,12
837,26	1249,26
837,43	1331,18
837,60	1306,60
837,77	1335,28
837,94	1298,41
838,12	1257,45
838,29	1216,49
838,46	1239,02
838,63	1206,25
838,80	1322,99
838,97	1302,51
839,14	1259,50
839,31	1273,84
839,48	1265,64
839,65	1290,22
839,82	1325,04
839,99	1265,64
840,16	1290,22
840,33	1230,83
840,50	1290,22
840,67	1329,13
840,84	1273,84
841,01	1282,03
841,18	1310,70
841,35	1177,58
841,52	1273,84
841,69	1267,69
841,86	1279,98
842,03	1245,16
842,20	1298,41
842,37	1273,84
842,54	1249,26
842,71	1230,83
842,88	1304,56
843,05	1341,42
843,22	1273,84
843,39	1263,60
843,56	1247,21
843,73	1286,12
843,90	1257,45
844,07	1275,88
844,24	1269,74
844,41	1220,59
844,58	1196,01
844,75	1234,93
844,92	1294,32
845,09	1189,87
845,26	1314,80
845,43	1327,08
845,60	1202,16
845,77	1228,78
845,94	1306,60
846,10	1226,73
846,27	1353,71
846,44	1320,94
846,61	1183,73
846,78	1249,26
846,95	1279,98
847,12	1228,78
847,29	1253,36
847,46	1228,78
847,63	1312,75
847,80	1222,64
847,97	1290,22
848,14	1372,14
848,31	1282,03
848,48	1273,84
848,65	1288,17
848,82	1302,51
848,98	1347,56
849,15	1253,36
849,32	1255,40
849,49	1220,59
849,66	1370,09
849,83	1308,65
850,00	1263,60
850,17	1228,78
850,34	1265,64
850,51	1230,83
850,68	1261,55
850,85	1179,63
851,01	1241,07
851,18	1163,25
851,35	1271,79
851,52	1273,84
851,69	1331,18
851,86	1271,79
852,03	1306,60
852,20	1239,02
852,37	1196,01
852,53	1259,50
852,70	1333,23
852,87	1284,08
853,04	1261,55
853,21	1214,45
853,38	1241,07
853,55	1239,02
853,72	1277,93
853,89	1253,36
854,05	1175,53
854,22	1239,02
854,39	1198,06
854,56	1259,50
854,73	1273,84
854,90	1187,82
855,07	1265,64
855,23	1253,36
855,40	1310,70
855,57	1300,46
855,74	1290,22
855,91	1261,55
856,08	1282,03
856,25	1298,41
856,41	1282,03
856,58	1257,45
856,75	1253,36
856,92	1269,74
857,09	1200,11
857,26	1206,25
857,42	1230,83
857,59	1312,75
857,76	1271,79
857,93	1218,54
858,10	1316,84
858,27	1271,79
858,43	1257,45
858,60	1290,22
858,77	1259,50
858,94	1249,26
859,11	1249,26
859,27	1279,98
859,44	1234,93
859,61	1322,99
859,78	1292,27
859,95	1314,80
860,12	1314,80
860,28	1345,52
860,45	1279,98
860,62	1234,93
860,79	1361,90
860,95	1220,59
861,12	1267,69
861,29	1273,84
861,46	1312,75
861,63	1259,50
861,79	1245,16
861,96	1243,12
862,13	1282,03
862,30	1308,65
862,47	1331,18
862,63	1251,31
862,80	1298,41
862,97	1220,59
863,14	1277,93
863,30	1222,64
863,47	1265,64
863,64	1282,03
863,81	1257,45
863,97	1363,95
864,14	1302,51
864,31	1271,79
864,48	1269,74
864,65	1300,46
864,81	1271,79
864,98	1263,60
865,15	1282,03
865,32	1282,03
865,48	1284,08
865,65	1239,02
865,82	1294,32
865,98	1310,70
866,15	1234,93
866,32	1245,16
866,49	1204,21
866,65	1275,88
866,82	1300,46
866,99	1247,21
867,16	1275,88
867,32	1263,60
867,49	1271,79
867,66	1220,59
867,83	1232,88
867,99	1265,64
868,16	1269,74
868,33	1294,32
868,49	1333,23
868,66	1255,40
868,83	1220,59
868,99	1245,16
869,16	1259,50
869,33	1275,88
869,50	1228,78
869,66	1267,69
869,83	1257,45
870,00	1255,40
870,16	1216,49
870,33	1327,08
870,50	1282,03
870,66	1208,30
870,83	1339,37
871,00	1228,78
871,17	1298,41
871,33	1277,93
871,50	1210,35
871,67	1263,60
871,83	1228,78
872,00	1261,55
872,17	1288,17
872,33	1298,41
872,50	1230,83
872,67	1302,51
872,83	1318,89
873,00	1228,78
873,17	1226,73
873,33	1279,98
873,50	1259,50
873,67	1247,21
873,83	1216,49
874,00	1273,84
874,16	1284,08
874,33	1255,40
874,50	1259,50
874,66	1257,45
874,83	1296,36
875,00	1230,83
875,16	1298,41
875,33	1378,28
875,50	1288,17
875,66	1263,60
875,83	1290,22
875,99	1253,36
876,16	1267,69
876,33	1331,18
876,49	1269,74
876,66	1282,03
876,83	1202,16
876,99	1183,73
877,16	1288,17
877,32	1294,32
877,49	1269,74
877,66	1255,40
877,82	1279,98
877,99	1247,21
878,15	1335,28
878,32	1228,78
878,49	1265,64
878,65	1206,25
878,82	1296,36
878,98	1286,12
879,15	1249,26
879,32	1339,37
879,48	1292,27
879,65	1282,03
879,81	1279,98
879,98	1263,60
880,15	1269,74
880,31	1234,93
880,48	1292,27
880,64	1267,69
880,81	1204,21
880,97	1306,60
881,14	1353,71
881,31	1277,93
881,47	1273,84
881,64	1232,88
881,80	1241,07
881,97	1249,26
882,13	1232,88
882,30	1234,93
882,47	1271,79
882,63	1275,88
882,80	1216,49
882,96	1200,11
883,13	1228,78
883,29	1259,50
883,46	1300,46
883,62	1241,07
883,79	1322,99
883,95	1316,84
884,12	1322,99
884,29	1273,84
884,45	1275,88
884,62	1214,45
884,78	1167,34
884,95	1288,17
885,11	1255,40
885,28	1226,73
885,44	1234,93
885,61	1214,45
885,77	1300,46
885,94	1331,18
886,10	1243,12
886,27	1253,36
886,43	1202,16
886,60	1331,18
886,76	1210,35
886,93	1232,88
887,09	1224,69
887,26	1247,21
887,42	1247,21
887,59	1261,55
887,75	1230,83
887,92	1275,88
888,08	1277,93
888,25	1251,31
888,41	1337,32
888,58	1296,36
888,74	1263,60
888,91	1236,97
>>>>>End Processed Spectral Data<<<<<
