SpectraSuite Data File
++++++++++++++++++++++++++++++++++++
Date: Sun Apr 03 13:42:04 CEST 2016
User: root
Dark Spectrum Present: No
Reference Spectrum Present: No
Number of Sampled Component Spectra: 1
Spectrometers: USB4C02835
Integration Time (usec): 10000 (USB4C02835)
Spectra Averaged: 1 (USB4C02835)
Boxcar Smoothing: 0 (USB4C02835)
Correct for Electrical Dark: No (USB4C02835)
Strobe/Lamp Enabled: No (USB4C02835)
Correct for Detector Non-linearity: No (USB4C02835)
Correct for Stray Light: No (USB4C02835)
Number of Pixels in Processed Spectrum: 3648
>>>>>Begin Processed Spectral Data<<<<<
177,47	1282,03
177,69	1282,03
177,91	1282,03
178,13	1247,21
178,36	1263,60
178,58	1337,32
178,80	1300,46
179,02	1263,60
179,24	1243,12
179,46	1181,68
179,68	1200,11
179,90	1282,03
180,13	1271,79
180,35	1310,70
180,57	1245,16
180,79	1275,88
181,01	1218,54
181,23	1322,99
181,45	1294,32
181,67	1279,98
181,90	1306,60
182,12	1220,59
182,34	1222,64
182,56	1259,50
182,78	1249,26
183,00	1339,37
183,22	1271,79
183,44	1312,75
183,66	1327,08
183,89	1312,75
184,11	1335,28
184,33	1216,49
184,55	1337,32
184,77	1261,55
184,99	1292,27
185,21	1288,17
185,43	1310,70
185,65	1345,52
185,87	1208,30
186,10	1212,40
186,32	1298,41
186,54	1279,98
186,76	1308,65
186,98	1241,07
187,20	1290,22
187,42	1212,40
187,64	1265,64
187,86	1228,78
188,08	1341,42
188,30	1282,03
188,52	1247,21
188,75	1294,32
188,97	1220,59
189,19	1308,65
189,41	1304,56
189,63	1247,21
189,85	1263,60
190,07	1286,12
190,29	1273,84
190,51	1302,51
190,73	1247,21
190,95	1306,60
191,17	1345,52
191,39	1247,21
191,61	1337,32
191,84	1292,27
192,06	1255,40
192,28	1269,74
192,50	1253,36
192,72	1327,08
192,94	1200,11
193,16	1296,36
193,38	1208,30
193,60	1363,95
193,82	1306,60
194,04	1265,64
194,26	1292,27
194,48	1204,21
194,70	1269,74
194,92	1257,45
195,14	1236,97
195,36	1296,36
195,58	1306,60
195,80	1331,18
196,02	1255,40
196,24	1273,84
196,46	1224,69
196,69	1185,77
196,91	1353,71
197,13	1253,36
197,35	1357,80
197,57	1259,50
197,79	1212,40
198,01	1282,03
198,23	1288,17
198,45	1245,16
198,67	1288,17
198,89	1286,12
199,11	1241,07
199,33	1310,70
199,55	1331,18
199,77	1251,31
199,99	1267,69
200,21	1275,88
200,43	1234,93
200,65	1279,98
200,87	1282,03
201,09	1294,32
201,31	1259,50
201,53	1322,99
201,75	1247,21
201,97	1216,49
202,19	1265,64
202,41	1296,36
202,63	1241,07
202,85	1232,88
203,07	1257,45
203,29	1296,36
203,51	1269,74
203,73	1286,12
203,95	1333,23
204,17	1304,56
204,39	1306,60
204,61	1232,88
204,83	1296,36
205,05	1292,27
205,27	1308,65
205,49	1269,74
205,71	1261,55
205,93	1282,03
206,15	1261,55
206,37	1257,45
206,59	1216,49
206,81	1300,46
207,03	1294,32
207,25	1290,22
207,47	1224,69
207,69	1279,98
207,91	1241,07
208,13	1312,75
208,34	1306,60
208,56	1222,64
208,78	1249,26
209,00	1290,22
209,22	1314,80
209,44	1261,55
209,66	1288,17
209,88	1257,45
210,10	1306,60
210,32	1294,32
210,54	1261,55
210,76	1308,65
210,98	1292,27
211,20	1224,69
211,42	1333,23
211,64	1212,40
211,86	1267,69
212,08	1214,45
212,30	1226,73
212,52	1247,21
212,74	1243,12
212,96	1335,28
213,17	1320,94
213,39	1243,12
213,61	1320,94
213,83	1271,79
214,05	1228,78
214,27	1327,08
214,49	1363,95
214,71	1234,93
214,93	1273,84
215,15	1202,16
215,37	1206,25
215,59	1308,65
215,81	1282,03
216,03	1306,60
216,24	1241,07
216,46	1284,08
216,68	1230,83
216,90	1306,60
217,12	1290,22
217,34	1284,08
217,56	1265,64
217,78	1273,84
218,00	1302,51
218,22	1243,12
218,44	1339,37
218,66	1204,21
218,87	1284,08
219,09	1286,12
219,31	1310,70
219,53	1284,08
219,75	1216,49
219,97	1189,87
220,19	1345,52
220,41	1232,88
220,63	1302,51
220,85	1253,36
221,06	1222,64
221,28	1255,40
221,50	1314,80
221,72	1265,64
221,94	1292,27
222,16	1329,13
222,38	1253,36
222,60	1277,93
222,82	1331,18
223,03	1249,26
223,25	1349,61
223,47	1339,37
223,69	1232,88
223,91	1322,99
224,13	1331,18
224,35	1200,11
224,57	1331,18
224,78	1320,94
225,00	1253,36
225,22	1263,60
225,44	1300,46
225,66	1282,03
225,88	1245,16
226,10	1298,41
226,32	1290,22
226,53	1318,89
226,75	1200,11
226,97	1220,59
227,19	1345,52
227,41	1236,97
227,63	1208,30
227,85	1206,25
228,06	1290,22
228,28	1265,64
228,50	1337,32
228,72	1329,13
228,94	1232,88
229,16	1222,64
229,37	1286,12
229,59	1228,78
229,81	1239,02
230,03	1216,49
230,25	1236,97
230,47	1275,88
230,69	1243,12
230,90	1228,78
231,12	1314,80
231,34	1224,69
231,56	1361,90
231,78	1269,74
232,00	1325,04
232,21	1306,60
232,43	1239,02
232,65	1277,93
232,87	1302,51
233,09	1204,21
233,30	1263,60
233,52	1279,98
233,74	1241,07
233,96	1357,80
234,18	1245,16
234,40	1351,66
234,61	1269,74
234,83	1296,36
235,05	1259,50
235,27	1257,45
235,49	1277,93
235,70	1331,18
235,92	1239,02
236,14	1230,83
236,36	1308,65
236,58	1255,40
236,79	1245,16
237,01	1224,69
237,23	1282,03
237,45	1253,36
237,67	1255,40
237,88	1239,02
238,10	1271,79
238,32	1236,97
238,54	1234,93
238,76	1363,95
238,97	1206,25
239,19	1251,31
239,41	1316,84
239,63	1347,56
239,85	1271,79
240,06	1224,69
240,28	1316,84
240,50	1320,94
240,72	1308,65
240,93	1363,95
241,15	1318,89
241,37	1279,98
241,59	1282,03
241,81	1265,64
242,02	1329,13
242,24	1198,06
242,46	1286,12
242,68	1249,26
242,89	1292,27
243,11	1349,61
243,33	1251,31
243,55	1267,69
243,76	1216,49
243,98	1189,87
244,20	1368,04
244,42	1320,94
244,64	1298,41
244,85	1208,30
245,07	1226,73
245,29	1341,42
245,51	1212,40
245,72	1249,26
245,94	1286,12
246,16	1208,30
246,38	1255,40
246,59	1228,78
246,81	1273,84
247,03	1198,06
247,24	1224,69
247,46	1277,93
247,68	1304,56
247,90	1277,93
248,11	1257,45
248,33	1306,60
248,55	1241,07
248,77	1337,32
248,98	1306,60
249,20	1255,40
249,42	1300,46
249,64	1294,32
249,85	1198,06
250,07	1265,64
250,29	1308,65
250,50	1343,47
250,72	1257,45
250,94	1208,30
251,16	1282,03
251,37	1312,75
251,59	1290,22
251,81	1277,93
252,02	1316,84
252,24	1318,89
252,46	1294,32
252,68	1247,21
252,89	1273,84
253,11	1290,22
253,33	1255,40
253,54	1302,51
253,76	1273,84
253,98	1302,51
254,20	1290,22
254,41	1265,64
254,63	1279,98
254,85	1279,98
255,06	1228,78
255,28	1265,64
255,50	1265,64
255,71	1234,93
255,93	1259,50
256,15	1200,11
256,36	1310,70
256,58	1234,93
256,80	1198,06
257,02	1261,55
257,23	1257,45
257,45	1185,77
257,67	1355,76
257,88	1239,02
258,10	1277,93
258,32	1228,78
258,53	1196,01
258,75	1345,52
258,97	1208,30
259,18	1353,71
259,40	1222,64
259,62	1300,46
259,83	1286,12
260,05	1353,71
260,27	1282,03
260,48	1239,02
260,70	1308,65
260,92	1345,52
261,13	1210,35
261,35	1189,87
261,57	1263,60
261,78	1267,69
262,00	1249,26
262,22	1366,00
262,43	1288,17
262,65	1216,49
262,86	1351,66
263,08	1312,75
263,30	1222,64
263,51	1402,86
263,73	1241,07
263,95	1206,25
264,16	1292,27
264,38	1302,51
264,60	1265,64
264,81	1249,26
265,03	1204,21
265,25	1284,08
265,46	1286,12
265,68	1265,64
265,89	1292,27
266,11	1220,59
266,33	1273,84
266,54	1163,25
266,76	1251,31
266,98	1259,50
267,19	1298,41
267,41	1261,55
267,62	1243,12
267,84	1294,32
268,06	1304,56
268,27	1294,32
268,49	1282,03
268,70	1234,93
268,92	1273,84
269,14	1273,84
269,35	1298,41
269,57	1263,60
269,79	1329,13
270,00	1255,40
270,22	1253,36
270,43	1228,78
270,65	1263,60
270,87	1261,55
271,08	1284,08
271,30	1257,45
271,51	1261,55
271,73	1222,64
271,95	1294,32
272,16	1251,31
272,38	1277,93
272,59	1335,28
272,81	1355,76
273,02	1290,22
273,24	1298,41
273,46	1277,93
273,67	1245,16
273,89	1277,93
274,10	1239,02
274,32	1308,65
274,54	1282,03
274,75	1187,82
274,97	1347,56
275,18	1200,11
275,40	1294,32
275,61	1271,79
275,83	1292,27
276,05	1310,70
276,26	1224,69
276,48	1245,16
276,69	1282,03
276,91	1343,47
277,12	1329,13
277,34	1341,42
277,55	1241,07
277,77	1290,22
277,99	1226,73
278,20	1345,52
278,42	1294,32
278,63	1191,92
278,85	1228,78
279,06	1302,51
279,28	1282,03
279,49	1308,65
279,71	1284,08
279,93	1325,04
280,14	1361,90
280,36	1198,06
280,57	1275,88
280,79	1206,25
281,00	1327,08
281,22	1249,26
281,43	1298,41
281,65	1322,99
281,86	1286,12
282,08	1286,12
282,29	1300,46
282,51	1251,31
282,73	1245,16
282,94	1296,36
283,16	1273,84
283,37	1286,12
283,59	1337,32
283,80	1228,78
284,02	1273,84
284,23	1228,78
284,45	1255,40
284,66	1251,31
284,88	1230,83
285,09	1310,70
285,31	1294,32
285,52	1279,98
285,74	1265,64
285,95	1263,60
286,17	1232,88
286,38	1249,26
286,60	1257,45
286,81	1296,36
287,03	1320,94
287,24	1191,92
287,46	1325,04
287,67	1263,60
287,89	1308,65
288,10	1290,22
288,32	1273,84
288,53	1275,88
288,75	1210,35
288,96	1261,55
289,18	1265,64
289,39	1273,84
289,61	1265,64
289,82	1288,17
290,04	1249,26
290,25	1339,37
290,47	1284,08
290,68	1282,03
290,90	1290,22
291,11	1187,82
291,33	1224,69
291,54	1298,41
291,76	1275,88
291,97	1308,65
292,18	1302,51
292,40	1314,80
292,61	1288,17
292,83	1255,40
293,04	1282,03
293,26	1310,70
293,47	1269,74
293,69	1267,69
293,90	1224,69
294,12	1234,93
294,33	1247,21
294,55	1253,36
294,76	1312,75
294,97	1185,77
295,19	1343,47
295,40	1234,93
295,62	1261,55
295,83	1288,17
296,05	1214,45
296,26	1277,93
296,48	1322,99
296,69	1210,35
296,90	1349,61
297,12	1265,64
297,33	1255,40
297,55	1232,88
297,76	1259,50
297,98	1314,80
298,19	1243,12
298,41	1247,21
298,62	1249,26
298,83	1267,69
299,05	1304,56
299,26	1327,08
299,48	1282,03
299,69	1208,30
299,90	1296,36
300,12	1302,51
300,33	1257,45
300,55	1341,42
300,76	1204,21
300,98	1376,24
301,19	1273,84
301,40	1236,97
301,62	1312,75
301,83	1255,40
302,05	1279,98
302,26	1308,65
302,47	1236,97
302,69	1263,60
302,90	1257,45
303,12	1308,65
303,33	1298,41
303,54	1247,21
303,76	1302,51
303,97	1267,69
304,19	1331,18
304,40	1243,12
304,61	1212,40
304,83	1243,12
305,04	1275,88
305,26	1290,22
305,47	1239,02
305,68	1253,36
305,90	1214,45
306,11	1247,21
306,33	1320,94
306,54	1310,70
306,75	1255,40
306,97	1198,06
307,18	1322,99
307,39	1251,31
307,61	1290,22
307,82	1251,31
308,04	1269,74
308,25	1290,22
308,46	1290,22
308,68	1259,50
308,89	1279,98
309,10	1273,84
309,32	1261,55
309,53	1275,88
309,74	1255,40
309,96	1245,16
310,17	1271,79
310,39	1384,43
310,60	1370,09
310,81	1257,45
311,03	1292,27
311,24	1329,13
311,45	1210,35
311,67	1282,03
311,88	1314,80
312,09	1277,93
312,31	1284,08
312,52	1304,56
312,73	1243,12
312,95	1269,74
313,16	1310,70
313,37	1243,12
313,59	1320,94
313,80	1267,69
314,01	1273,84
314,23	1206,25
314,44	1263,60
314,65	1265,64
314,87	1296,36
315,08	1232,88
315,29	1212,40
315,51	1255,40
315,72	1275,88
315,93	1224,69
316,15	1259,50
316,36	1269,74
316,57	1284,08
316,79	1230,83
317,00	1177,58
317,21	1251,31
317,43	1279,98
317,64	1259,50
317,85	1220,59
318,07	1253,36
318,28	1265,64
318,49	1249,26
318,70	1312,75
318,92	1296,36
319,13	1257,45
319,34	1275,88
319,56	1271,79
319,77	1251,31
319,98	1288,17
320,20	1316,84
320,41	1337,32
320,62	1331,18
320,83	1282,03
321,05	1302,51
321,26	1277,93
321,47	1275,88
321,69	1298,41
321,90	1243,12
322,11	1257,45
322,32	1267,69
322,54	1294,32
322,75	1255,40
322,96	1312,75
323,18	1214,45
323,39	1265,64
323,60	1255,40
323,81	1306,60
324,03	1220,59
324,24	1239,02
324,45	1191,92
324,66	1310,70
324,88	1310,70
325,09	1245,16
325,30	1312,75
325,52	1322,99
325,73	1333,23
325,94	1208,30
326,15	1230,83
326,37	1347,56
326,58	1275,88
326,79	1292,27
327,00	1247,21
327,22	1261,55
327,43	1236,97
327,64	1275,88
327,85	1294,32
328,07	1265,64
328,28	1288,17
328,49	1339,37
328,70	1261,55
328,92	1202,16
329,13	1230,83
329,34	1286,12
329,55	1282,03
329,76	1345,52
329,98	1253,36
330,19	1259,50
330,40	1302,51
330,61	1355,76
330,83	1288,17
331,04	1320,94
331,25	1212,40
331,46	1228,78
331,68	1300,46
331,89	1306,60
332,10	1241,07
332,31	1279,98
332,52	1247,21
332,74	1214,45
332,95	1306,60
333,16	1288,17
333,37	1222,64
333,58	1302,51
333,80	1279,98
334,01	1275,88
334,22	1296,36
334,43	1327,08
334,64	1241,07
334,86	1294,32
335,07	1265,64
335,28	1339,37
335,49	1241,07
335,70	1318,89
335,92	1271,79
336,13	1263,60
336,34	1222,64
336,55	1300,46
336,76	1357,80
336,98	1275,88
337,19	1232,88
337,40	1294,32
337,61	1275,88
337,82	1331,18
338,04	1300,46
338,25	1259,50
338,46	1245,16
338,67	1251,31
338,88	1255,40
339,09	1171,44
339,31	1267,69
339,52	1216,49
339,73	1271,79
339,94	1302,51
340,15	1322,99
340,36	1239,02
340,58	1304,56
340,79	1349,61
341,00	1316,84
341,21	1236,97
341,42	1224,69
341,63	1304,56
341,85	1239,02
342,06	1302,51
342,27	1220,59
342,48	1277,93
342,69	1282,03
342,90	1347,56
343,12	1210,35
343,33	1275,88
343,54	1312,75
343,75	1292,27
343,96	1292,27
344,17	1228,78
344,38	1304,56
344,60	1343,47
344,81	1222,64
345,02	1314,80
345,23	1263,60
345,44	1284,08
345,65	1296,36
345,86	1335,28
346,07	1347,56
346,29	1247,21
346,50	1306,60
346,71	1259,50
346,92	1322,99
347,13	1292,27
347,34	1261,55
347,55	1282,03
347,76	1271,79
347,98	1298,41
348,19	1249,26
348,40	1257,45
348,61	1322,99
348,82	1322,99
349,03	1220,59
349,24	1320,94
349,45	1275,88
349,66	1284,08
349,88	1310,70
350,09	1292,27
350,30	1302,51
350,51	1236,97
350,72	1236,97
350,93	1386,47
351,14	1312,75
351,35	1257,45
351,56	1310,70
351,77	1247,21
351,99	1218,54
352,20	1279,98
352,41	1294,32
352,62	1286,12
352,83	1200,11
353,04	1314,80
353,25	1300,46
353,46	1267,69
353,67	1279,98
353,88	1284,08
354,09	1296,36
354,30	1177,58
354,52	1241,07
354,73	1232,88
354,94	1228,78
355,15	1259,50
355,36	1257,45
355,57	1302,51
355,78	1261,55
355,99	1255,40
356,20	1241,07
356,41	1306,60
356,62	1218,54
356,83	1294,32
357,04	1288,17
357,25	1218,54
357,46	1249,26
357,68	1279,98
357,89	1277,93
358,10	1271,79
358,31	1261,55
358,52	1236,97
358,73	1269,74
358,94	1284,08
359,15	1245,16
359,36	1243,12
359,57	1236,97
359,78	1339,37
359,99	1275,88
360,20	1300,46
360,41	1234,93
360,62	1341,42
360,83	1282,03
361,04	1259,50
361,25	1216,49
361,46	1200,11
361,67	1335,28
361,88	1298,41
362,09	1251,31
362,30	1351,66
362,51	1171,44
362,72	1363,95
362,93	1298,41
363,14	1253,36
363,35	1277,93
363,56	1312,75
363,78	1300,46
363,99	1292,27
364,20	1224,69
364,41	1222,64
364,62	1265,64
364,83	1255,40
365,04	1185,77
365,25	1271,79
365,46	1277,93
365,67	1220,59
365,88	1185,77
366,09	1294,32
366,30	1243,12
366,51	1265,64
366,72	1269,74
366,93	1275,88
367,14	1322,99
367,35	1290,22
367,56	1249,26
367,77	1267,69
367,98	1279,98
368,18	1232,88
368,39	1232,88
368,60	1306,60
368,81	1298,41
369,02	1277,93
369,23	1288,17
369,44	1259,50
369,65	1269,74
369,86	1257,45
370,07	1341,42
370,28	1232,88
370,49	1290,22
370,70	1212,40
370,91	1275,88
371,12	1308,65
371,33	1263,60
371,54	1273,84
371,75	1284,08
371,96	1282,03
372,17	1322,99
372,38	1286,12
372,59	1316,84
372,80	1208,30
373,01	1292,27
373,22	1259,50
373,43	1277,93
373,64	1269,74
373,85	1359,85
374,06	1296,36
374,26	1322,99
374,47	1253,36
374,68	1257,45
374,89	1269,74
375,10	1284,08
375,31	1208,30
375,52	1216,49
375,73	1259,50
375,94	1331,18
376,15	1337,32
376,36	1277,93
376,57	1320,94
376,78	1284,08
376,99	1282,03
377,20	1312,75
377,40	1286,12
377,61	1310,70
377,82	1228,78
378,03	1261,55
378,24	1298,41
378,45	1271,79
378,66	1345,52
378,87	1261,55
379,08	1204,21
379,29	1300,46
379,50	1357,80
379,71	1290,22
379,91	1331,18
380,12	1257,45
380,33	1314,80
380,54	1241,07
380,75	1249,26
380,96	1282,03
381,17	1226,73
381,38	1306,60
381,59	1277,93
381,80	1251,31
382,00	1310,70
382,21	1269,74
382,42	1306,60
382,63	1284,08
382,84	1263,60
383,05	1290,22
383,26	1374,19
383,47	1239,02
383,68	1239,02
383,88	1349,61
384,09	1230,83
384,30	1277,93
384,51	1306,60
384,72	1292,27
384,93	1306,60
385,14	1349,61
385,35	1296,36
385,55	1318,89
385,76	1302,51
385,97	1222,64
386,18	1331,18
386,39	1216,49
386,60	1308,65
386,81	1267,69
387,02	1286,12
387,22	1230,83
387,43	1247,21
387,64	1200,11
387,85	1210,35
388,06	1222,64
388,27	1230,83
388,48	1282,03
388,68	1236,97
388,89	1277,93
389,10	1286,12
389,31	1251,31
389,52	1263,60
389,73	1253,36
389,93	1216,49
390,14	1222,64
390,35	1259,50
390,56	1312,75
390,77	1261,55
390,98	1263,60
391,18	1247,21
391,39	1247,21
391,60	1255,40
391,81	1228,78
392,02	1288,17
392,23	1292,27
392,43	1314,80
392,64	1271,79
392,85	1282,03
393,06	1296,36
393,27	1202,16
393,47	1247,21
393,68	1282,03
393,89	1247,21
394,10	1296,36
394,31	1304,56
394,52	1241,07
394,72	1306,60
394,93	1304,56
395,14	1210,35
395,35	1353,71
395,56	1298,41
395,76	1343,47
395,97	1153,01
396,18	1236,97
396,39	1292,27
396,60	1318,89
396,80	1298,41
397,01	1306,60
397,22	1304,56
397,43	1298,41
397,64	1284,08
397,84	1339,37
398,05	1253,36
398,26	1282,03
398,47	1322,99
398,67	1288,17
398,88	1245,16
399,09	1255,40
399,30	1257,45
399,51	1298,41
399,71	1257,45
399,92	1314,80
400,13	1173,49
400,34	1175,53
400,54	1243,12
400,75	1302,51
400,96	1310,70
401,17	1288,17
401,37	1277,93
401,58	1353,71
401,79	1298,41
402,00	1314,80
402,21	1277,93
402,41	1265,64
402,62	1230,83
402,83	1259,50
403,04	1308,65
403,24	1253,36
403,45	1249,26
403,66	1210,35
403,87	1253,36
404,07	1286,12
404,28	1263,60
404,49	1304,56
404,70	1251,31
404,90	1327,08
405,11	1314,80
405,32	1263,60
405,52	1277,93
405,73	1339,37
405,94	1198,06
406,15	1282,03
406,35	1308,65
406,56	1253,36
406,77	1232,88
406,98	1286,12
407,18	1263,60
407,39	1218,54
407,60	1232,88
407,80	1257,45
408,01	1277,93
408,22	1333,23
408,43	1353,71
408,63	1318,89
408,84	1228,78
409,05	1249,26
409,25	1296,36
409,46	1198,06
409,67	1241,07
409,88	1312,75
410,08	1314,80
410,29	1230,83
410,50	1275,88
410,70	1333,23
410,91	1265,64
411,12	1230,83
411,32	1259,50
411,53	1284,08
411,74	1243,12
411,95	1304,56
412,15	1263,60
412,36	1247,21
412,57	1327,08
412,77	1243,12
412,98	1294,32
413,19	1265,64
413,39	1271,79
413,60	1273,84
413,81	1236,97
414,01	1288,17
414,22	1288,17
414,43	1269,74
414,63	1257,45
414,84	1279,98
415,05	1290,22
415,25	1253,36
415,46	1198,06
415,67	1292,27
415,87	1245,16
416,08	1294,32
416,29	1273,84
416,49	1279,98
416,70	1279,98
416,91	1265,64
417,11	1279,98
417,32	1267,69
417,53	1241,07
417,73	1279,98
417,94	1298,41
418,15	1284,08
418,35	1257,45
418,56	1239,02
418,77	1267,69
418,97	1259,50
419,18	1275,88
419,38	1279,98
419,59	1236,97
419,80	1212,40
420,00	1232,88
420,21	1265,64
420,42	1249,26
420,62	1232,88
420,83	1247,21
421,04	1243,12
421,24	1316,84
421,45	1325,04
421,65	1286,12
421,86	1261,55
422,07	1343,47
422,27	1216,49
422,48	1253,36
422,69	1279,98
422,89	1263,60
423,10	1308,65
423,30	1251,31
423,51	1318,89
423,72	1327,08
423,92	1241,07
424,13	1228,78
424,33	1202,16
424,54	1275,88
424,75	1318,89
424,95	1320,94
425,16	1222,64
425,36	1206,25
425,57	1234,93
425,78	1247,21
425,98	1298,41
426,19	1292,27
426,39	1239,02
426,60	1296,36
426,81	1316,84
427,01	1251,31
427,22	1222,64
427,42	1220,59
427,63	1265,64
427,83	1220,59
428,04	1331,18
428,25	1288,17
428,45	1271,79
428,66	1275,88
428,86	1300,46
429,07	1189,87
429,28	1322,99
429,48	1333,23
429,69	1232,88
429,89	1257,45
430,10	1241,07
430,30	1230,83
430,51	1273,84
430,71	1271,79
430,92	1306,60
431,13	1239,02
431,33	1353,71
431,54	1273,84
431,74	1314,80
431,95	1282,03
432,15	1247,21
432,36	1271,79
432,56	1247,21
432,77	1247,21
432,98	1345,52
433,18	1273,84
433,39	1320,94
433,59	1271,79
433,80	1282,03
434,00	1226,73
434,21	1306,60
434,41	1271,79
434,62	1322,99
434,82	1269,74
435,03	1282,03
435,23	1216,49
435,44	1232,88
435,64	1247,21
435,85	1286,12
436,06	1263,60
436,26	1343,47
436,47	1296,36
436,67	1265,64
436,88	1298,41
437,08	1232,88
437,29	1255,40
437,49	1273,84
437,70	1269,74
437,90	1208,30
438,11	1290,22
438,31	1325,04
438,52	1304,56
438,72	1345,52
438,93	1247,21
439,13	1220,59
439,34	1259,50
439,54	1251,31
439,75	1380,33
439,95	1292,27
440,16	1257,45
440,36	1216,49
440,57	1308,65
440,77	1318,89
440,98	1296,36
441,18	1241,07
441,39	1263,60
441,59	1245,16
441,80	1282,03
442,00	1322,99
442,21	1337,32
442,41	1312,75
442,62	1251,31
442,82	1243,12
443,02	1314,80
443,23	1247,21
443,43	1259,50
443,64	1329,13
443,84	1261,55
444,05	1255,40
444,25	1224,69
444,46	1316,84
444,66	1232,88
444,87	1361,90
445,07	1279,98
445,28	1275,88
445,48	1265,64
445,69	1230,83
445,89	1277,93
446,09	1183,73
446,30	1296,36
446,50	1290,22
446,71	1282,03
446,91	1304,56
447,12	1202,16
447,32	1271,79
447,53	1286,12
447,73	1234,93
447,93	1292,27
448,14	1288,17
448,34	1234,93
448,55	1282,03
448,75	1269,74
448,96	1234,93
449,16	1216,49
449,36	1263,60
449,57	1251,31
449,77	1286,12
449,98	1265,64
450,18	1236,97
450,39	1306,60
450,59	1263,60
450,79	1302,51
451,00	1296,36
451,20	1241,07
451,41	1310,70
451,61	1292,27
451,81	1288,17
452,02	1261,55
452,22	1271,79
452,43	1257,45
452,63	1306,60
452,84	1214,45
453,04	1302,51
453,24	1236,97
453,45	1325,04
453,65	1247,21
453,86	1251,31
454,06	1245,16
454,26	1263,60
454,47	1255,40
454,67	1325,04
454,87	1269,74
455,08	1271,79
455,28	1187,82
455,49	1279,98
455,69	1222,64
455,89	1282,03
456,10	1273,84
456,30	1298,41
456,51	1316,84
456,71	1279,98
456,91	1239,02
457,12	1286,12
457,32	1267,69
457,52	1241,07
457,73	1304,56
457,93	1314,80
458,14	1267,69
458,34	1322,99
458,54	1226,73
458,75	1241,07
458,95	1296,36
459,15	1294,32
459,36	1249,26
459,56	1267,69
459,76	1316,84
459,97	1288,17
460,17	1279,98
460,37	1267,69
460,58	1243,12
460,78	1249,26
460,99	1302,51
461,19	1269,74
461,39	1331,18
461,60	1234,93
461,80	1216,49
462,00	1204,21
462,21	1220,59
462,41	1337,32
462,61	1214,45
462,82	1247,21
463,02	1380,33
463,22	1255,40
463,43	1228,78
463,63	1208,30
463,83	1236,97
464,04	1312,75
464,24	1282,03
464,44	1292,27
464,64	1282,03
464,85	1282,03
465,05	1259,50
465,25	1302,51
465,46	1294,32
465,66	1366,00
465,86	1337,32
466,07	1216,49
466,27	1220,59
466,47	1296,36
466,68	1300,46
466,88	1290,22
467,08	1271,79
467,29	1312,75
467,49	1247,21
467,69	1296,36
467,89	1251,31
468,10	1288,17
468,30	1277,93
468,50	1300,46
468,71	1296,36
468,91	1222,64
469,11	1329,13
469,31	1314,80
469,52	1298,41
469,72	1337,32
469,92	1359,85
470,13	1339,37
470,33	1331,18
470,53	1288,17
470,73	1224,69
470,94	1269,74
471,14	1247,21
471,34	1265,64
471,54	1257,45
471,75	1320,94
471,95	1296,36
472,15	1300,46
472,36	1286,12
472,56	1277,93
472,76	1282,03
472,96	1308,65
473,17	1314,80
473,37	1177,58
473,57	1247,21
473,77	1282,03
473,98	1320,94
474,18	1306,60
474,38	1249,26
474,58	1271,79
474,79	1290,22
474,99	1279,98
475,19	1310,70
475,39	1322,99
475,60	1300,46
475,80	1300,46
476,00	1298,41
476,20	1259,50
476,41	1286,12
476,61	1290,22
476,81	1247,21
477,01	1251,31
477,21	1316,84
477,42	1247,21
477,62	1241,07
477,82	1306,60
478,02	1284,08
478,23	1279,98
478,43	1320,94
478,63	1245,16
478,83	1300,46
479,03	1333,23
479,24	1261,55
479,44	1304,56
479,64	1257,45
479,84	1263,60
480,04	1224,69
480,25	1327,08
480,45	1290,22
480,65	1359,85
480,85	1310,70
481,06	1259,50
481,26	1232,88
481,46	1273,84
481,66	1247,21
481,86	1282,03
482,06	1222,64
482,27	1292,27
482,47	1279,98
482,67	1247,21
482,87	1288,17
483,07	1263,60
483,28	1255,40
483,48	1290,22
483,68	1286,12
483,88	1306,60
484,08	1243,12
484,29	1282,03
484,49	1255,40
484,69	1267,69
484,89	1198,06
485,09	1245,16
485,29	1288,17
485,50	1308,65
485,70	1273,84
485,90	1288,17
486,10	1196,01
486,30	1251,31
486,50	1302,51
486,71	1234,93
486,91	1386,47
487,11	1322,99
487,31	1259,50
487,51	1310,70
487,71	1304,56
487,91	1255,40
488,12	1247,21
488,32	1245,16
488,52	1230,83
488,72	1214,45
488,92	1382,38
489,12	1249,26
489,32	1214,45
489,53	1345,52
489,73	1236,97
489,93	1304,56
490,13	1265,64
490,33	1202,16
490,53	1329,13
490,73	1249,26
490,94	1294,32
491,14	1312,75
491,34	1257,45
491,54	1239,02
491,74	1206,25
491,94	1253,36
492,14	1284,08
492,34	1366,00
492,54	1298,41
492,75	1265,64
492,95	1265,64
493,15	1163,25
493,35	1376,24
493,55	1208,30
493,75	1220,59
493,95	1275,88
494,15	1286,12
494,35	1279,98
494,56	1259,50
494,76	1286,12
494,96	1292,27
495,16	1296,36
495,36	1279,98
495,56	1290,22
495,76	1232,88
495,96	1257,45
496,16	1216,49
496,36	1239,02
496,56	1277,93
496,77	1232,88
496,97	1224,69
497,17	1292,27
497,37	1198,06
497,57	1300,46
497,77	1214,45
497,97	1327,08
498,17	1261,55
498,37	1267,69
498,57	1273,84
498,77	1296,36
498,97	1265,64
499,17	1290,22
499,38	1265,64
499,58	1325,04
499,78	1292,27
499,98	1298,41
500,18	1333,23
500,38	1298,41
500,58	1261,55
500,78	1265,64
500,98	1306,60
501,18	1273,84
501,38	1277,93
501,58	1294,32
501,78	1259,50
501,98	1275,88
502,18	1277,93
502,38	1337,32
502,58	1316,84
502,78	1331,18
502,98	1241,07
503,18	1282,03
503,38	1284,08
503,59	1259,50
503,79	1314,80
503,99	1320,94
504,19	1306,60
504,39	1308,65
504,59	1277,93
504,79	1372,14
504,99	1316,84
505,19	1224,69
505,39	1310,70
505,59	1322,99
505,79	1329,13
505,99	1267,69
506,19	1196,01
506,39	1277,93
506,59	1290,22
506,79	1249,26
506,99	1259,50
507,19	1265,64
507,39	1312,75
507,59	1296,36
507,79	1241,07
507,99	1239,02
508,19	1343,47
508,39	1273,84
508,59	1251,31
508,79	1273,84
508,99	1306,60
509,19	1298,41
509,39	1261,55
509,59	1249,26
509,79	1282,03
509,99	1290,22
510,19	1300,46
510,39	1294,32
510,59	1249,26
510,79	1275,88
510,99	1302,51
511,19	1331,18
511,39	1232,88
511,59	1232,88
511,79	1245,16
511,99	1310,70
512,19	1306,60
512,38	1261,55
512,58	1257,45
512,78	1288,17
512,98	1230,83
513,18	1234,93
513,38	1230,83
513,58	1257,45
513,78	1239,02
513,98	1243,12
514,18	1314,80
514,38	1292,27
514,58	1279,98
514,78	1251,31
514,98	1271,79
515,18	1259,50
515,38	1318,89
515,58	1343,47
515,78	1261,55
515,98	1247,21
516,18	1296,36
516,38	1251,31
516,57	1247,21
516,77	1265,64
516,97	1314,80
517,17	1269,74
517,37	1220,59
517,57	1294,32
517,77	1245,16
517,97	1239,02
518,17	1255,40
518,37	1316,84
518,57	1228,78
518,77	1288,17
518,97	1265,64
519,16	1249,26
519,36	1202,16
519,56	1351,66
519,76	1249,26
519,96	1322,99
520,16	1269,74
520,36	1308,65
520,56	1355,76
520,76	1257,45
520,96	1251,31
521,16	1333,23
521,35	1216,49
521,55	1218,54
521,75	1337,32
521,95	1261,55
522,15	1241,07
522,35	1288,17
522,55	1304,56
522,75	1204,21
522,95	1290,22
523,14	1331,18
523,34	1271,79
523,54	1314,80
523,74	1245,16
523,94	1259,50
524,14	1271,79
524,34	1271,79
524,54	1355,76
524,73	1269,74
524,93	1327,08
525,13	1282,03
525,33	1228,78
525,53	1304,56
525,73	1253,36
525,93	1302,51
526,13	1249,26
526,32	1277,93
526,52	1306,60
526,72	1312,75
526,92	1302,51
527,12	1247,21
527,32	1327,08
527,52	1257,45
527,71	1306,60
527,91	1257,45
528,11	1279,98
528,31	1298,41
528,51	1228,78
528,71	1327,08
528,90	1226,73
529,10	1265,64
529,30	1245,16
529,50	1198,06
529,70	1261,55
529,90	1322,99
530,09	1255,40
530,29	1277,93
530,49	1265,64
530,69	1279,98
530,89	1249,26
531,09	1296,36
531,28	1269,74
531,48	1296,36
531,68	1347,56
531,88	1234,93
532,08	1331,18
532,28	1282,03
532,47	1239,02
532,67	1316,84
532,87	1236,97
533,07	1267,69
533,27	1234,93
533,46	1298,41
533,66	1277,93
533,86	1279,98
534,06	1302,51
534,26	1298,41
534,45	1239,02
534,65	1275,88
534,85	1306,60
535,05	1271,79
535,25	1253,36
535,44	1259,50
535,64	1282,03
535,84	1243,12
536,04	1308,65
536,24	1351,66
536,43	1304,56
536,63	1318,89
536,83	1286,12
537,03	1263,60
537,22	1236,97
537,42	1232,88
537,62	1216,49
537,82	1347,56
538,02	1263,60
538,21	1265,64
538,41	1282,03
538,61	1302,51
538,81	1249,26
539,00	1308,65
539,20	1253,36
539,40	1304,56
539,60	1236,97
539,79	1286,12
539,99	1302,51
540,19	1271,79
540,39	1208,30
540,58	1273,84
540,78	1286,12
540,98	1267,69
541,18	1206,25
541,37	1277,93
541,57	1284,08
541,77	1269,74
541,97	1296,36
542,16	1288,17
542,36	1265,64
542,56	1230,83
542,76	1277,93
542,95	1288,17
543,15	1316,84
543,35	1282,03
543,54	1226,73
543,74	1343,47
543,94	1255,40
544,14	1247,21
544,33	1322,99
544,53	1247,21
544,73	1277,93
544,93	1200,11
545,12	1298,41
545,32	1249,26
545,52	1325,04
545,71	1224,69
545,91	1306,60
546,11	1298,41
546,30	1228,78
546,50	1265,64
546,70	1290,22
546,90	1228,78
547,09	1269,74
547,29	1214,45
547,49	1310,70
547,68	1286,12
547,88	1239,02
548,08	1243,12
548,27	1349,61
548,47	1234,93
548,67	1306,60
548,87	1253,36
549,06	1243,12
549,26	1298,41
549,46	1271,79
549,65	1298,41
549,85	1261,55
550,05	1255,40
550,24	1288,17
550,44	1259,50
550,64	1267,69
550,83	1245,16
551,03	1259,50
551,23	1339,37
551,42	1265,64
551,62	1290,22
551,82	1294,32
552,01	1271,79
552,21	1267,69
552,41	1236,97
552,60	1300,46
552,80	1331,18
553,00	1275,88
553,19	1288,17
553,39	1318,89
553,59	1249,26
553,78	1243,12
553,98	1224,69
554,17	1273,84
554,37	1277,93
554,57	1245,16
554,76	1286,12
554,96	1286,12
555,16	1284,08
555,35	1234,93
555,55	1302,51
555,75	1241,07
555,94	1337,32
556,14	1228,78
556,33	1286,12
556,53	1273,84
556,73	1257,45
556,92	1290,22
557,12	1273,84
557,32	1220,59
557,51	1306,60
557,71	1222,64
557,90	1257,45
558,10	1288,17
558,30	1286,12
558,49	1259,50
558,69	1282,03
558,88	1265,64
559,08	1251,31
559,28	1296,36
559,47	1318,89
559,67	1298,41
559,86	1325,04
560,06	1302,51
560,26	1279,98
560,45	1265,64
560,65	1239,02
560,84	1331,18
561,04	1298,41
561,24	1245,16
561,43	1290,22
561,63	1245,16
561,82	1298,41
562,02	1273,84
562,22	1284,08
562,41	1216,49
562,61	1296,36
562,80	1259,50
563,00	1243,12
563,19	1251,31
563,39	1257,45
563,59	1296,36
563,78	1302,51
563,98	1306,60
564,17	1290,22
564,37	1236,97
564,56	1312,75
564,76	1308,65
564,96	1282,03
565,15	1236,97
565,35	1259,50
565,54	1310,70
565,74	1232,88
565,93	1347,56
566,13	1304,56
566,32	1243,12
566,52	1224,69
566,71	1249,26
566,91	1294,32
567,11	1234,93
567,30	1304,56
567,50	1257,45
567,69	1322,99
567,89	1282,03
568,08	1310,70
568,28	1255,40
568,47	1241,07
568,67	1335,28
568,86	1316,84
569,06	1251,31
569,25	1298,41
569,45	1292,27
569,64	1337,32
569,84	1290,22
570,04	1378,28
570,23	1220,59
570,43	1208,30
570,62	1241,07
570,82	1277,93
571,01	1210,35
571,21	1290,22
571,40	1243,12
571,60	1185,77
571,79	1259,50
571,99	1220,59
572,18	1275,88
572,38	1193,97
572,57	1261,55
572,77	1230,83
572,96	1263,60
573,16	1351,66
573,35	1249,26
573,55	1288,17
573,74	1308,65
573,94	1275,88
574,13	1241,07
574,33	1331,18
574,52	1275,88
574,71	1353,71
574,91	1230,83
575,10	1224,69
575,30	1253,36
575,49	1265,64
575,69	1349,61
575,88	1243,12
576,08	1290,22
576,27	1310,70
576,47	1265,64
576,66	1193,97
576,86	1320,94
577,05	1208,30
577,25	1339,37
577,44	1300,46
577,64	1290,22
577,83	1298,41
578,02	1290,22
578,22	1210,35
578,41	1320,94
578,61	1271,79
578,80	1249,26
579,00	1339,37
579,19	1257,45
579,39	1200,11
579,58	1247,21
579,77	1314,80
579,97	1230,83
580,16	1353,71
580,36	1290,22
580,55	1304,56
580,75	1226,73
580,94	1232,88
581,13	1308,65
581,33	1234,93
581,52	1224,69
581,72	1261,55
581,91	1374,19
582,11	1271,79
582,30	1236,97
582,49	1232,88
582,69	1325,04
582,88	1296,36
583,08	1286,12
583,27	1300,46
583,47	1273,84
583,66	1304,56
583,85	1263,60
584,05	1320,94
584,24	1312,75
584,44	1234,93
584,63	1247,21
584,82	1325,04
585,02	1347,56
585,21	1345,52
585,41	1282,03
585,60	1327,08
585,79	1292,27
585,99	1380,33
586,18	1243,12
586,37	1294,32
586,57	1253,36
586,76	1222,64
586,96	1271,79
587,15	1249,26
587,34	1187,82
587,54	1253,36
587,73	1282,03
587,93	1320,94
588,12	1318,89
588,31	1310,70
588,51	1259,50
588,70	1282,03
588,89	1193,97
589,09	1318,89
589,28	1253,36
589,47	1204,21
589,67	1304,56
589,86	1343,47
590,06	1269,74
590,25	1249,26
590,44	1335,28
590,64	1263,60
590,83	1318,89
591,02	1288,17
591,22	1245,16
591,41	1292,27
591,60	1232,88
591,80	1325,04
591,99	1257,45
592,18	1236,97
592,38	1228,78
592,57	1234,93
592,76	1251,31
592,96	1265,64
593,15	1191,92
593,34	1269,74
593,54	1275,88
593,73	1259,50
593,92	1269,74
594,12	1296,36
594,31	1308,65
594,50	1286,12
594,70	1310,70
594,89	1288,17
595,08	1245,16
595,28	1320,94
595,47	1290,22
595,66	1255,40
595,86	1277,93
596,05	1259,50
596,24	1228,78
596,43	1292,27
596,63	1343,47
596,82	1284,08
597,01	1306,60
597,21	1292,27
597,40	1300,46
597,59	1322,99
597,79	1277,93
597,98	1298,41
598,17	1255,40
598,36	1304,56
598,56	1220,59
598,75	1298,41
598,94	1327,08
599,14	1277,93
599,33	1294,32
599,52	1294,32
599,71	1261,55
599,91	1204,21
600,10	1298,41
600,29	1292,27
600,48	1308,65
600,68	1263,60
600,87	1269,74
601,06	1292,27
601,26	1345,52
601,45	1259,50
601,64	1230,83
601,83	1298,41
602,03	1245,16
602,22	1247,21
602,41	1273,84
602,60	1331,18
602,80	1220,59
602,99	1282,03
603,18	1308,65
603,37	1263,60
603,57	1249,26
603,76	1288,17
603,95	1216,49
604,14	1302,51
604,34	1232,88
604,53	1216,49
604,72	1243,12
604,91	1286,12
605,10	1288,17
605,30	1325,04
605,49	1277,93
605,68	1368,04
605,87	1261,55
606,07	1265,64
606,26	1259,50
606,45	1327,08
606,64	1359,85
606,84	1306,60
607,03	1286,12
607,22	1206,25
607,41	1312,75
607,60	1216,49
607,80	1302,51
607,99	1302,51
608,18	1234,93
608,37	1320,94
608,56	1298,41
608,76	1339,37
608,95	1241,07
609,14	1247,21
609,33	1232,88
609,52	1265,64
609,72	1294,32
609,91	1279,98
610,10	1337,32
610,29	1226,73
610,48	1269,74
610,68	1318,89
610,87	1292,27
611,06	1288,17
611,25	1220,59
611,44	1275,88
611,63	1282,03
611,83	1249,26
612,02	1290,22
612,21	1282,03
612,40	1196,01
612,59	1267,69
612,79	1208,30
612,98	1249,26
613,17	1251,31
613,36	1286,12
613,55	1294,32
613,74	1265,64
613,93	1302,51
614,13	1265,64
614,32	1222,64
614,51	1232,88
614,70	1263,60
614,89	1290,22
615,08	1263,60
615,28	1329,13
615,47	1290,22
615,66	1239,02
615,85	1255,40
616,04	1322,99
616,23	1241,07
616,42	1294,32
616,62	1310,70
616,81	1265,64
617,00	1308,65
617,19	1230,83
617,38	1255,40
617,57	1245,16
617,76	1322,99
617,95	1271,79
618,15	1347,56
618,34	1351,66
618,53	1267,69
618,72	1312,75
618,91	1298,41
619,10	1245,16
619,29	1245,16
619,48	1288,17
619,68	1294,32
619,87	1273,84
620,06	1247,21
620,25	1167,34
620,44	1304,56
620,63	1226,73
620,82	1302,51
621,01	1286,12
621,20	1279,98
621,39	1277,93
621,59	1241,07
621,78	1329,13
621,97	1294,32
622,16	1236,97
622,35	1292,27
622,54	1300,46
622,73	1306,60
622,92	1357,80
623,11	1292,27
623,30	1345,52
623,49	1226,73
623,68	1212,40
623,88	1265,64
624,07	1189,87
624,26	1277,93
624,45	1239,02
624,64	1224,69
624,83	1312,75
625,02	1376,24
625,21	1241,07
625,40	1355,76
625,59	1327,08
625,78	1294,32
625,97	1298,41
626,16	1345,52
626,35	1284,08
626,54	1349,61
626,74	1284,08
626,93	1214,45
627,12	1302,51
627,31	1282,03
627,50	1261,55
627,69	1304,56
627,88	1286,12
628,07	1257,45
628,26	1288,17
628,45	1265,64
628,64	1286,12
628,83	1329,13
629,02	1265,64
629,21	1312,75
629,40	1241,07
629,59	1267,69
629,78	1286,12
629,97	1304,56
630,16	1282,03
630,35	1296,36
630,54	1331,18
630,73	1300,46
630,92	1349,61
631,11	1302,51
631,30	1282,03
631,49	1298,41
631,68	1419,24
631,87	1789,92
632,06	2752,47
632,25	1808,36
632,44	2148,32
632,63	1687,53
632,82	1875,94
633,01	2310,11
633,20	1863,65
633,39	2838,48
633,58	2748,37
633,77	2439,13
633,96	2955,22
634,15	4437,95
634,34	6117,28
634,53	9391,98
634,72	18036,46
634,91	27313,76
635,10	31452,70
635,29	28317,26
635,48	22337,20
635,67	15810,32
635,86	10594,14
636,05	7262,10
636,24	4919,22
636,43	3583,95
636,62	2666,46
636,81	2150,37
637,00	1703,91
637,19	1564,65
637,38	1476,59
637,57	1527,78
637,76	1417,19
637,95	1415,15
638,14	1298,41
638,33	1353,71
638,52	1378,28
638,71	1312,75
638,89	1314,80
639,08	1329,13
639,27	1337,32
639,46	1306,60
639,65	1325,04
639,84	1261,55
640,03	1304,56
640,22	1282,03
640,41	1300,46
640,60	1290,22
640,79	1376,24
640,98	1288,17
641,17	1355,76
641,36	1351,66
641,55	1335,28
641,74	1310,70
641,92	1345,52
642,11	1253,36
642,30	1212,40
642,49	1306,60
642,68	1318,89
642,87	1265,64
643,06	1402,86
643,25	1286,12
643,44	1275,88
643,63	1243,12
643,82	1282,03
644,00	1284,08
644,19	1284,08
644,38	1257,45
644,57	1296,36
644,76	1320,94
644,95	1208,30
645,14	1312,75
645,33	1239,02
645,52	1275,88
645,71	1290,22
645,89	1279,98
646,08	1294,32
646,27	1343,47
646,46	1290,22
646,65	1294,32
646,84	1286,12
647,03	1329,13
647,22	1196,01
647,40	1245,16
647,59	1277,93
647,78	1312,75
647,97	1347,56
648,16	1187,82
648,35	1288,17
648,54	1273,84
648,73	1275,88
648,91	1337,32
649,10	1273,84
649,29	1261,55
649,48	1294,32
649,67	1267,69
649,86	1271,79
650,05	1308,65
650,23	1261,55
650,42	1282,03
650,61	1247,21
650,80	1220,59
650,99	1253,36
651,18	1322,99
651,36	1294,32
651,55	1257,45
651,74	1345,52
651,93	1273,84
652,12	1261,55
652,31	1263,60
652,49	1282,03
652,68	1222,64
652,87	1304,56
653,06	1284,08
653,25	1255,40
653,44	1232,88
653,62	1232,88
653,81	1271,79
654,00	1273,84
654,19	1249,26
654,38	1329,13
654,56	1308,65
654,75	1277,93
654,94	1288,17
655,13	1271,79
655,32	1222,64
655,51	1257,45
655,69	1241,07
655,88	1327,08
656,07	1279,98
656,26	1255,40
656,45	1259,50
656,63	1282,03
656,82	1325,04
657,01	1298,41
657,20	1292,27
657,38	1265,64
657,57	1292,27
657,76	1282,03
657,95	1198,06
658,14	1282,03
658,32	1316,84
658,51	1298,41
658,70	1300,46
658,89	1294,32
659,08	1308,65
659,26	1345,52
659,45	1298,41
659,64	1308,65
659,83	1288,17
660,01	1288,17
660,20	1288,17
660,39	1284,08
660,58	1257,45
660,76	1306,60
660,95	1259,50
661,14	1284,08
661,33	1294,32
661,51	1261,55
661,70	1222,64
661,89	1232,88
662,08	1228,78
662,26	1255,40
662,45	1302,51
662,64	1298,41
662,83	1302,51
663,01	1302,51
663,20	1359,85
663,39	1275,88
663,58	1253,36
663,76	1312,75
663,95	1232,88
664,14	1304,56
664,32	1290,22
664,51	1159,15
664,70	1302,51
664,89	1142,77
665,07	1312,75
665,26	1298,41
665,45	1279,98
665,64	1261,55
665,82	1218,54
666,01	1159,15
666,20	1200,11
666,38	1232,88
666,57	1288,17
666,76	1269,74
666,95	1327,08
667,13	1292,27
667,32	1243,12
667,51	1169,39
667,69	1228,78
667,88	1325,04
668,07	1300,46
668,25	1224,69
668,44	1220,59
668,63	1257,45
668,81	1312,75
669,00	1306,60
669,19	1294,32
669,38	1306,60
669,56	1251,31
669,75	1243,12
669,94	1292,27
670,12	1320,94
670,31	1331,18
670,50	1257,45
670,68	1179,63
670,87	1318,89
671,06	1341,42
671,24	1165,29
671,43	1255,40
671,62	1239,02
671,80	1263,60
671,99	1296,36
672,18	1271,79
672,36	1341,42
672,55	1302,51
672,74	1177,58
672,92	1306,60
673,11	1294,32
673,29	1245,16
673,48	1343,47
673,67	1314,80
673,85	1247,21
674,04	1230,83
674,23	1306,60
674,41	1292,27
674,60	1208,30
674,79	1292,27
674,97	1282,03
675,16	1288,17
675,34	1290,22
675,53	1290,22
675,72	1312,75
675,90	1341,42
676,09	1220,59
676,28	1355,76
676,46	1316,84
676,65	1259,50
676,83	1294,32
677,02	1208,30
677,21	1329,13
677,39	1232,88
677,58	1236,97
677,77	1331,18
677,95	1304,56
678,14	1296,36
678,32	1284,08
678,51	1253,36
678,70	1212,40
678,88	1249,26
679,07	1308,65
679,25	1228,78
679,44	1255,40
679,63	1230,83
679,81	1273,84
680,00	1290,22
680,18	1304,56
680,37	1361,90
680,55	1314,80
680,74	1298,41
680,93	1269,74
681,11	1257,45
681,30	1308,65
681,48	1298,41
681,67	1216,49
681,85	1290,22
682,04	1288,17
682,23	1337,32
682,41	1279,98
682,60	1247,21
682,78	1300,46
682,97	1259,50
683,15	1253,36
683,34	1273,84
683,53	1316,84
683,71	1314,80
683,90	1232,88
684,08	1304,56
684,27	1232,88
684,45	1212,40
684,64	1353,71
684,82	1218,54
685,01	1241,07
685,19	1228,78
685,38	1306,60
685,57	1241,07
685,75	1245,16
685,94	1320,94
686,12	1312,75
686,31	1302,51
686,49	1239,02
686,68	1163,25
686,86	1339,37
687,05	1275,88
687,23	1304,56
687,42	1322,99
687,60	1202,16
687,79	1325,04
687,97	1243,12
688,16	1318,89
688,34	1273,84
688,53	1353,71
688,71	1296,36
688,90	1347,56
689,08	1234,93
689,27	1224,69
689,45	1241,07
689,64	1222,64
689,82	1249,26
690,01	1277,93
690,19	1294,32
690,38	1290,22
690,56	1249,26
690,75	1263,60
690,93	1232,88
691,12	1251,31
691,30	1196,01
691,49	1286,12
691,67	1279,98
691,86	1232,88
692,04	1312,75
692,23	1318,89
692,41	1261,55
692,60	1329,13
692,78	1251,31
692,97	1257,45
693,15	1335,28
693,34	1339,37
693,52	1255,40
693,71	1273,84
693,89	1245,16
694,08	1298,41
694,26	1271,79
694,44	1325,04
694,63	1345,52
694,81	1296,36
695,00	1306,60
695,18	1282,03
695,37	1284,08
695,55	1273,84
695,74	1329,13
695,92	1259,50
696,10	1306,60
696,29	1245,16
696,47	1312,75
696,66	1247,21
696,84	1251,31
697,03	1267,69
697,21	1271,79
697,40	1339,37
697,58	1314,80
697,76	1290,22
697,95	1187,82
698,13	1277,93
698,32	1335,28
698,50	1277,93
698,68	1208,30
698,87	1304,56
699,05	1245,16
699,24	1241,07
699,42	1300,46
699,61	1302,51
699,79	1257,45
699,97	1261,55
700,16	1306,60
700,34	1259,50
700,53	1265,64
700,71	1296,36
700,89	1286,12
701,08	1331,18
701,26	1198,06
701,45	1310,70
701,63	1327,08
701,81	1282,03
702,00	1251,31
702,18	1187,82
702,37	1269,74
702,55	1239,02
702,73	1312,75
702,92	1333,23
703,10	1290,22
703,28	1216,49
703,47	1296,36
703,65	1290,22
703,84	1322,99
704,02	1284,08
704,20	1267,69
704,39	1232,88
704,57	1247,21
704,75	1265,64
704,94	1288,17
705,12	1200,11
705,30	1333,23
705,49	1220,59
705,67	1243,12
705,86	1327,08
706,04	1279,98
706,22	1241,07
706,41	1247,21
706,59	1257,45
706,77	1325,04
706,96	1302,51
707,14	1271,79
707,32	1234,93
707,51	1232,88
707,69	1333,23
707,87	1341,42
708,06	1273,84
708,24	1251,31
708,42	1290,22
708,61	1282,03
708,79	1322,99
708,97	1251,31
709,16	1322,99
709,34	1351,66
709,52	1241,07
709,71	1329,13
709,89	1216,49
710,07	1273,84
710,26	1261,55
710,44	1292,27
710,62	1282,03
710,80	1292,27
710,99	1185,77
711,17	1261,55
711,35	1234,93
711,54	1230,83
711,72	1302,51
711,90	1318,89
712,09	1271,79
712,27	1265,64
712,45	1275,88
712,63	1279,98
712,82	1345,52
713,00	1222,64
713,18	1257,45
713,37	1273,84
713,55	1343,47
713,73	1234,93
713,91	1222,64
714,10	1304,56
714,28	1325,04
714,46	1265,64
714,65	1222,64
714,83	1265,64
715,01	1290,22
715,19	1249,26
715,38	1255,40
715,56	1189,87
715,74	1277,93
715,92	1236,97
716,11	1333,23
716,29	1329,13
716,47	1288,17
716,65	1257,45
716,84	1265,64
717,02	1290,22
717,20	1267,69
717,38	1257,45
717,57	1259,50
717,75	1263,60
717,93	1269,74
718,11	1259,50
718,30	1253,36
718,48	1253,36
718,66	1249,26
718,84	1245,16
719,03	1251,31
719,21	1282,03
719,39	1269,74
719,57	1271,79
719,75	1335,28
719,94	1222,64
720,12	1249,26
720,30	1273,84
720,48	1263,60
720,67	1374,19
720,85	1224,69
721,03	1232,88
721,21	1329,13
721,39	1255,40
721,58	1261,55
721,76	1249,26
721,94	1277,93
722,12	1294,32
722,30	1353,71
722,49	1294,32
722,67	1298,41
722,85	1331,18
723,03	1288,17
723,21	1249,26
723,40	1241,07
723,58	1279,98
723,76	1245,16
723,94	1273,84
724,12	1263,60
724,30	1288,17
724,49	1327,08
724,67	1290,22
724,85	1296,36
725,03	1310,70
725,21	1249,26
725,40	1241,07
725,58	1296,36
725,76	1277,93
725,94	1247,21
726,12	1312,75
726,30	1308,65
726,49	1249,26
726,67	1249,26
726,85	1277,93
727,03	1290,22
727,21	1345,52
727,39	1355,76
727,57	1296,36
727,76	1210,35
727,94	1316,84
728,12	1265,64
728,30	1255,40
728,48	1271,79
728,66	1247,21
728,84	1300,46
729,03	1320,94
729,21	1247,21
729,39	1275,88
729,57	1308,65
729,75	1253,36
729,93	1232,88
730,11	1271,79
730,30	1198,06
730,48	1314,80
730,66	1214,45
730,84	1312,75
731,02	1267,69
731,20	1282,03
731,38	1271,79
731,56	1247,21
731,74	1290,22
731,93	1325,04
732,11	1261,55
732,29	1282,03
732,47	1279,98
732,65	1251,31
732,83	1214,45
733,01	1261,55
733,19	1320,94
733,37	1265,64
733,56	1292,27
733,74	1249,26
733,92	1257,45
734,10	1302,51
734,28	1241,07
734,46	1329,13
734,64	1224,69
734,82	1267,69
735,00	1257,45
735,18	1279,98
735,36	1261,55
735,54	1343,47
735,73	1318,89
735,91	1241,07
736,09	1302,51
736,27	1247,21
736,45	1200,11
736,63	1279,98
736,81	1196,01
736,99	1296,36
737,17	1259,50
737,35	1312,75
737,53	1263,60
737,71	1243,12
737,89	1245,16
738,07	1331,18
738,25	1210,35
738,43	1236,97
738,61	1245,16
738,80	1306,60
738,98	1232,88
739,16	1337,32
739,34	1296,36
739,52	1290,22
739,70	1294,32
739,88	1298,41
740,06	1273,84
740,24	1265,64
740,42	1318,89
740,60	1312,75
740,78	1271,79
740,96	1298,41
741,14	1286,12
741,32	1288,17
741,50	1218,54
741,68	1386,47
741,86	1298,41
742,04	1331,18
742,22	1261,55
742,40	1236,97
742,58	1263,60
742,76	1279,98
742,94	1320,94
743,12	1329,13
743,30	1202,16
743,48	1257,45
743,66	1255,40
743,84	1284,08
744,02	1331,18
744,20	1249,26
744,38	1308,65
744,56	1263,60
744,74	1257,45
744,92	1296,36
745,10	1228,78
745,28	1290,22
745,46	1331,18
745,64	1314,80
745,82	1282,03
746,00	1241,07
746,18	1269,74
746,36	1193,97
746,54	1271,79
746,72	1243,12
746,90	1300,46
747,08	1331,18
747,26	1236,97
747,44	1249,26
747,62	1325,04
747,80	1261,55
747,98	1296,36
748,15	1296,36
748,33	1255,40
748,51	1239,02
748,69	1288,17
748,87	1296,36
749,05	1294,32
749,23	1222,64
749,41	1267,69
749,59	1349,61
749,77	1286,12
749,95	1308,65
750,13	1210,35
750,31	1271,79
750,49	1269,74
750,67	1302,51
750,85	1247,21
751,03	1282,03
751,20	1288,17
751,38	1339,37
751,56	1282,03
751,74	1335,28
751,92	1282,03
752,10	1292,27
752,28	1290,22
752,46	1282,03
752,64	1245,16
752,82	1314,80
753,00	1327,08
753,18	1286,12
753,35	1267,69
753,53	1288,17
753,71	1245,16
753,89	1314,80
754,07	1251,31
754,25	1255,40
754,43	1206,25
754,61	1218,54
754,79	1314,80
754,97	1261,55
755,14	1279,98
755,32	1288,17
755,50	1314,80
755,68	1300,46
755,86	1343,47
756,04	1327,08
756,22	1265,64
756,40	1331,18
756,57	1308,65
756,75	1312,75
756,93	1279,98
757,11	1220,59
757,29	1304,56
757,47	1265,64
757,65	1232,88
757,82	1200,11
758,00	1241,07
758,18	1316,84
758,36	1265,64
758,54	1245,16
758,72	1236,97
758,90	1290,22
759,07	1294,32
759,25	1298,41
759,43	1288,17
759,61	1255,40
759,79	1230,83
759,97	1204,21
760,15	1290,22
760,32	1247,21
760,50	1267,69
760,68	1226,73
760,86	1216,49
761,04	1290,22
761,22	1263,60
761,39	1331,18
761,57	1249,26
761,75	1239,02
761,93	1269,74
762,11	1265,64
762,28	1279,98
762,46	1322,99
762,64	1302,51
762,82	1286,12
763,00	1239,02
763,18	1273,84
763,35	1243,12
763,53	1222,64
763,71	1279,98
763,89	1288,17
764,07	1249,26
764,24	1327,08
764,42	1271,79
764,60	1310,70
764,78	1273,84
764,96	1279,98
765,13	1322,99
765,31	1273,84
765,49	1196,01
765,67	1265,64
765,84	1265,64
766,02	1370,09
766,20	1302,51
766,38	1269,74
766,56	1359,85
766,73	1320,94
766,91	1267,69
767,09	1306,60
767,27	1263,60
767,44	1226,73
767,62	1202,16
767,80	1236,97
767,98	1222,64
768,15	1282,03
768,33	1185,77
768,51	1298,41
768,69	1271,79
768,87	1239,02
769,04	1322,99
769,22	1249,26
769,40	1224,69
769,58	1271,79
769,75	1208,30
769,93	1296,36
770,11	1298,41
770,28	1263,60
770,46	1286,12
770,64	1257,45
770,82	1355,76
770,99	1292,27
771,17	1245,16
771,35	1333,23
771,53	1288,17
771,70	1204,21
771,88	1226,73
772,06	1259,50
772,23	1253,36
772,41	1251,31
772,59	1267,69
772,77	1249,26
772,94	1282,03
773,12	1261,55
773,30	1279,98
773,47	1243,12
773,65	1253,36
773,83	1273,84
774,01	1204,21
774,18	1253,36
774,36	1239,02
774,54	1304,56
774,71	1269,74
774,89	1284,08
775,07	1275,88
775,24	1271,79
775,42	1236,97
775,60	1312,75
775,78	1214,45
775,95	1255,40
776,13	1306,60
776,31	1284,08
776,48	1253,36
776,66	1290,22
776,84	1251,31
777,01	1294,32
777,19	1290,22
777,37	1279,98
777,54	1267,69
777,72	1335,28
777,90	1251,31
778,07	1267,69
778,25	1333,23
778,43	1322,99
778,60	1185,77
778,78	1304,56
778,96	1257,45
779,13	1298,41
779,31	1306,60
779,49	1200,11
779,66	1269,74
779,84	1183,73
780,01	1310,70
780,19	1255,40
780,37	1282,03
780,54	1347,56
780,72	1329,13
780,90	1296,36
781,07	1241,07
781,25	1243,12
781,43	1243,12
781,60	1320,94
781,78	1302,51
781,95	1286,12
782,13	1306,60
782,31	1265,64
782,48	1247,21
782,66	1239,02
782,83	1222,64
783,01	1288,17
783,19	1302,51
783,36	1214,45
783,54	1335,28
783,72	1298,41
783,89	1271,79
784,07	1294,32
784,24	1282,03
784,42	1306,60
784,60	1271,79
784,77	1277,93
784,95	1222,64
785,12	1236,97
785,30	1271,79
785,47	1310,70
785,65	1204,21
785,83	1294,32
786,00	1206,25
786,18	1282,03
786,35	1234,93
786,53	1265,64
786,71	1296,36
786,88	1265,64
787,06	1228,78
787,23	1232,88
787,41	1298,41
787,58	1298,41
787,76	1271,79
787,94	1298,41
788,11	1286,12
788,29	1284,08
788,46	1239,02
788,64	1224,69
788,81	1316,84
788,99	1261,55
789,16	1222,64
789,34	1279,98
789,52	1329,13
789,69	1247,21
789,87	1327,08
790,04	1267,69
790,22	1292,27
790,39	1241,07
790,57	1277,93
790,74	1298,41
790,92	1232,88
791,09	1296,36
791,27	1249,26
791,44	1271,79
791,62	1228,78
791,79	1257,45
791,97	1282,03
792,15	1347,56
792,32	1251,31
792,50	1363,95
792,67	1290,22
792,85	1247,21
793,02	1349,61
793,20	1214,45
793,37	1263,60
793,55	1241,07
793,72	1292,27
793,90	1335,28
794,07	1247,21
794,25	1386,47
794,42	1261,55
794,60	1296,36
794,77	1255,40
794,95	1288,17
795,12	1300,46
795,30	1208,30
795,47	1228,78
795,65	1304,56
795,82	1245,16
796,00	1292,27
796,17	1300,46
796,34	1269,74
796,52	1267,69
796,69	1351,66
796,87	1200,11
797,04	1255,40
797,22	1255,40
797,39	1245,16
797,57	1202,16
797,74	1339,37
797,92	1204,21
798,09	1357,80
798,27	1257,45
798,44	1224,69
798,62	1255,40
798,79	1251,31
798,96	1220,59
799,14	1290,22
799,31	1224,69
799,49	1331,18
799,66	1247,21
799,84	1304,56
800,01	1320,94
800,19	1318,89
800,36	1275,88
800,53	1241,07
800,71	1296,36
800,88	1298,41
801,06	1316,84
801,23	1279,98
801,41	1269,74
801,58	1222,64
801,75	1181,68
801,93	1290,22
802,10	1198,06
802,28	1284,08
802,45	1259,50
802,63	1271,79
802,80	1239,02
802,97	1218,54
803,15	1288,17
803,32	1294,32
803,50	1249,26
803,67	1300,46
803,84	1308,65
804,02	1308,65
804,19	1282,03
804,37	1214,45
804,54	1220,59
804,71	1263,60
804,89	1206,25
805,06	1339,37
805,24	1288,17
805,41	1308,65
805,58	1304,56
805,76	1363,95
805,93	1222,64
806,10	1298,41
806,28	1298,41
806,45	1243,12
806,63	1269,74
806,80	1361,90
806,97	1243,12
807,15	1277,93
807,32	1253,36
807,49	1232,88
807,67	1236,97
807,84	1302,51
808,01	1214,45
808,19	1263,60
808,36	1294,32
808,54	1296,36
808,71	1230,83
808,88	1173,49
809,06	1216,49
809,23	1251,31
809,40	1343,47
809,58	1236,97
809,75	1243,12
809,92	1351,66
810,10	1269,74
810,27	1273,84
810,44	1232,88
810,62	1279,98
810,79	1261,55
810,96	1247,21
811,14	1314,80
811,31	1255,40
811,48	1312,75
811,66	1175,53
811,83	1296,36
812,00	1296,36
812,18	1247,21
812,35	1316,84
812,52	1314,80
812,69	1273,84
812,87	1259,50
813,04	1310,70
813,21	1257,45
813,39	1329,13
813,56	1335,28
813,73	1288,17
813,91	1339,37
814,08	1255,40
814,25	1349,61
814,42	1277,93
814,60	1239,02
814,77	1210,35
814,94	1241,07
815,12	1284,08
815,29	1265,64
815,46	1304,56
815,63	1265,64
815,81	1269,74
815,98	1359,85
816,15	1296,36
816,33	1218,54
816,50	1322,99
816,67	1243,12
816,84	1224,69
817,02	1196,01
817,19	1300,46
817,36	1263,60
817,53	1236,97
817,71	1290,22
817,88	1345,52
818,05	1271,79
818,22	1271,79
818,40	1232,88
818,57	1243,12
818,74	1187,82
818,91	1271,79
819,09	1216,49
819,26	1279,98
819,43	1241,07
819,60	1210,35
819,78	1263,60
819,95	1355,76
820,12	1284,08
820,29	1288,17
820,47	1265,64
820,64	1286,12
820,81	1290,22
820,98	1263,60
821,15	1341,42
821,33	1236,97
821,50	1198,06
821,67	1329,13
821,84	1234,93
822,02	1251,31
822,19	1275,88
822,36	1282,03
822,53	1351,66
822,70	1247,21
822,88	1298,41
823,05	1279,98
823,22	1298,41
823,39	1216,49
823,56	1277,93
823,74	1253,36
823,91	1277,93
824,08	1253,36
824,25	1220,59
824,42	1279,98
824,60	1220,59
824,77	1239,02
824,94	1267,69
825,11	1316,84
825,28	1259,50
825,45	1253,36
825,63	1286,12
825,80	1257,45
825,97	1282,03
826,14	1306,60
826,31	1314,80
826,48	1302,51
826,66	1339,37
826,83	1261,55
827,00	1275,88
827,17	1318,89
827,34	1308,65
827,51	1247,21
827,69	1261,55
827,86	1226,73
828,03	1255,40
828,20	1327,08
828,37	1296,36
828,54	1220,59
828,71	1296,36
828,89	1261,55
829,06	1296,36
829,23	1282,03
829,40	1171,44
829,57	1265,64
829,74	1271,79
829,91	1302,51
830,09	1296,36
830,26	1335,28
830,43	1310,70
830,60	1241,07
830,77	1306,60
830,94	1339,37
831,11	1312,75
831,28	1239,02
831,46	1273,84
831,63	1202,16
831,80	1374,19
831,97	1302,51
832,14	1236,97
832,31	1271,79
832,48	1277,93
832,65	1302,51
832,82	1204,21
832,99	1277,93
833,17	1322,99
833,34	1292,27
833,51	1236,97
833,68	1282,03
833,85	1210,35
834,02	1222,64
834,19	1249,26
834,36	1296,36
834,53	1263,60
834,70	1226,73
834,87	1261,55
835,04	1241,07
835,22	1312,75
835,39	1251,31
835,56	1310,70
835,73	1251,31
835,90	1232,88
836,07	1243,12
836,24	1292,27
836,41	1247,21
836,58	1282,03
836,75	1271,79
836,92	1249,26
837,09	1273,84
837,26	1296,36
837,43	1282,03
837,60	1351,66
837,77	1282,03
837,94	1259,50
838,12	1282,03
838,29	1292,27
838,46	1202,16
838,63	1322,99
838,80	1325,04
838,97	1316,84
839,14	1228,78
839,31	1224,69
839,48	1296,36
839,65	1275,88
839,82	1339,37
839,99	1304,56
840,16	1380,33
840,33	1228,78
840,50	1282,03
840,67	1279,98
840,84	1243,12
841,01	1288,17
841,18	1333,23
841,35	1329,13
841,52	1325,04
841,69	1257,45
841,86	1253,36
842,03	1298,41
842,20	1273,84
842,37	1208,30
842,54	1318,89
842,71	1320,94
842,88	1228,78
843,05	1259,50
843,22	1214,45
843,39	1286,12
843,56	1329,13
843,73	1335,28
843,90	1339,37
844,07	1263,60
844,24	1292,27
844,41	1275,88
844,58	1259,50
844,75	1298,41
844,92	1253,36
845,09	1216,49
845,26	1247,21
845,43	1265,64
845,60	1222,64
845,77	1267,69
845,94	1257,45
846,10	1239,02
846,27	1322,99
846,44	1218,54
846,61	1241,07
846,78	1236,97
846,95	1220,59
847,12	1310,70
847,29	1245,16
847,46	1325,04
847,63	1312,75
847,80	1331,18
847,97	1230,83
848,14	1302,51
848,31	1329,13
848,48	1253,36
848,65	1265,64
848,82	1286,12
848,98	1349,61
849,15	1320,94
849,32	1263,60
849,49	1279,98
849,66	1224,69
849,83	1232,88
850,00	1286,12
850,17	1243,12
850,34	1210,35
850,51	1282,03
850,68	1224,69
850,85	1247,21
851,01	1282,03
851,18	1329,13
851,35	1298,41
851,52	1273,84
851,69	1255,40
851,86	1257,45
852,03	1306,60
852,20	1331,18
852,37	1269,74
852,53	1318,89
852,70	1208,30
852,87	1255,40
853,04	1320,94
853,21	1325,04
853,38	1251,31
853,55	1277,93
853,72	1271,79
853,89	1247,21
854,05	1298,41
854,22	1329,13
854,39	1298,41
854,56	1292,27
854,73	1279,98
854,90	1251,31
855,07	1327,08
855,23	1245,16
855,40	1273,84
855,57	1232,88
855,74	1296,36
855,91	1265,64
856,08	1265,64
856,25	1284,08
856,41	1286,12
856,58	1236,97
856,75	1310,70
856,92	1329,13
857,09	1306,60
857,26	1208,30
857,42	1239,02
857,59	1267,69
857,76	1257,45
857,93	1286,12
858,10	1224,69
858,27	1255,40
858,43	1310,70
858,60	1226,73
858,77	1306,60
858,94	1316,84
859,11	1265,64
859,27	1314,80
859,44	1206,25
859,61	1204,21
859,78	1302,51
859,95	1232,88
860,12	1322,99
860,28	1245,16
860,45	1255,40
860,62	1284,08
860,79	1255,40
860,95	1185,77
861,12	1267,69
861,29	1155,05
861,46	1253,36
861,63	1220,59
861,79	1314,80
861,96	1275,88
862,13	1241,07
862,30	1228,78
862,47	1230,83
862,63	1275,88
862,80	1232,88
862,97	1279,98
863,14	1347,56
863,30	1341,42
863,47	1339,37
863,64	1253,36
863,81	1341,42
863,97	1273,84
864,14	1337,32
864,31	1261,55
864,48	1257,45
864,65	1325,04
864,81	1318,89
864,98	1331,18
865,15	1226,73
865,32	1322,99
865,48	1296,36
865,65	1300,46
865,82	1296,36
865,98	1191,92
866,15	1257,45
866,32	1286,12
866,49	1265,64
866,65	1251,31
866,82	1275,88
866,99	1273,84
867,16	1320,94
867,32	1208,30
867,49	1253,36
867,66	1294,32
867,83	1279,98
867,99	1253,36
868,16	1290,22
868,33	1308,65
868,49	1300,46
868,66	1230,83
868,83	1292,27
868,99	1187,82
869,16	1249,26
869,33	1282,03
869,50	1210,35
869,66	1245,16
869,83	1288,17
870,00	1218,54
870,16	1325,04
870,33	1204,21
870,50	1363,95
870,66	1263,60
870,83	1298,41
871,00	1251,31
871,17	1282,03
871,33	1294,32
871,50	1241,07
871,67	1308,65
871,83	1245,16
872,00	1318,89
872,17	1263,60
872,33	1259,50
872,50	1327,08
872,67	1265,64
872,83	1286,12
873,00	1257,45
873,17	1292,27
873,33	1286,12
873,50	1308,65
873,67	1269,74
873,83	1302,51
874,00	1277,93
874,16	1304,56
874,33	1312,75
874,50	1224,69
874,66	1302,51
874,83	1306,60
875,00	1298,41
875,16	1228,78
875,33	1206,25
875,50	1171,44
875,66	1271,79
875,83	1261,55
875,99	1314,80
876,16	1273,84
876,33	1341,42
876,49	1316,84
876,66	1241,07
876,83	1243,12
876,99	1245,16
877,16	1306,60
877,32	1290,22
877,49	1277,93
877,66	1284,08
877,82	1226,73
877,99	1273,84
878,15	1357,80
878,32	1251,31
878,49	1290,22
878,65	1275,88
878,82	1290,22
878,98	1243,12
879,15	1361,90
879,32	1312,75
879,48	1290,22
879,65	1292,27
879,81	1255,40
879,98	1212,40
880,15	1273,84
880,31	1288,17
880,48	1236,97
880,64	1236,97
880,81	1298,41
880,97	1275,88
881,14	1261,55
881,31	1257,45
881,47	1259,50
881,64	1284,08
881,80	1282,03
881,97	1226,73
882,13	1255,40
882,30	1325,04
882,47	1220,59
882,63	1294,32
882,80	1214,45
882,96	1341,42
883,13	1271,79
883,29	1269,74
883,46	1306,60
883,62	1296,36
883,79	1232,88
883,95	1290,22
884,12	1296,36
884,29	1259,50
884,45	1284,08
884,62	1284,08
884,78	1265,64
884,95	1173,49
885,11	1282,03
885,28	1279,98
885,44	1282,03
885,61	1222,64
885,77	1294,32
885,94	1247,21
886,10	1290,22
886,27	1255,40
886,43	1327,08
886,60	1318,89
886,76	1282,03
886,93	1284,08
887,09	1294,32
887,26	1191,92
887,42	1286,12
887,59	1337,32
887,75	1341,42
887,92	1296,36
888,08	1300,46
888,25	1222,64
888,41	1263,60
888,58	1204,21
888,74	1226,73
888,91	1210,35
>>>>>End Processed Spectral Data<<<<<
