SpectraSuite Data File
++++++++++++++++++++++++++++++++++++
Date: Sun Apr 03 14:48:04 CEST 2016
User: root
Dark Spectrum Present: No
Reference Spectrum Present: No
Number of Sampled Component Spectra: 1
Spectrometers: USB4C02835
Integration Time (usec): 10000 (USB4C02835)
Spectra Averaged: 1 (USB4C02835)
Boxcar Smoothing: 0 (USB4C02835)
Correct for Electrical Dark: No (USB4C02835)
Strobe/Lamp Enabled: No (USB4C02835)
Correct for Detector Non-linearity: No (USB4C02835)
Correct for Stray Light: No (USB4C02835)
Number of Pixels in Processed Spectrum: 3648
>>>>>Begin Processed Spectral Data<<<<<
177,47	1226,73
177,69	1226,73
177,91	1226,73
178,13	1202,16
178,36	1286,12
178,58	1259,50
178,80	1243,12
179,02	1273,84
179,24	1218,54
179,46	1277,93
179,68	1273,84
179,90	1279,98
180,13	1292,27
180,35	1226,73
180,57	1318,89
180,79	1306,60
181,01	1222,64
181,23	1232,88
181,45	1312,75
181,67	1249,26
181,90	1247,21
182,12	1277,93
182,34	1284,08
182,56	1308,65
182,78	1232,88
183,00	1226,73
183,22	1234,93
183,44	1220,59
183,66	1302,51
183,89	1253,36
184,11	1157,10
184,33	1249,26
184,55	1249,26
184,77	1230,83
184,99	1241,07
185,21	1259,50
185,43	1325,04
185,65	1296,36
185,87	1259,50
186,10	1296,36
186,32	1263,60
186,54	1296,36
186,76	1288,17
186,98	1236,97
187,20	1200,11
187,42	1224,69
187,64	1273,84
187,86	1288,17
188,08	1241,07
188,30	1208,30
188,52	1284,08
188,75	1200,11
188,97	1294,32
189,19	1265,64
189,41	1245,16
189,63	1263,60
189,85	1198,06
190,07	1202,16
190,29	1372,14
190,51	1329,13
190,73	1249,26
190,95	1302,51
191,17	1243,12
191,39	1267,69
191,61	1245,16
191,84	1320,94
192,06	1302,51
192,28	1298,41
192,50	1282,03
192,72	1308,65
192,94	1245,16
193,16	1228,78
193,38	1216,49
193,60	1259,50
193,82	1257,45
194,04	1288,17
194,26	1345,52
194,48	1243,12
194,70	1298,41
194,92	1261,55
195,14	1232,88
195,36	1302,51
195,58	1216,49
195,80	1322,99
196,02	1261,55
196,24	1177,58
196,46	1286,12
196,69	1302,51
196,91	1304,56
197,13	1265,64
197,35	1257,45
197,57	1257,45
197,79	1286,12
198,01	1273,84
198,23	1236,97
198,45	1228,78
198,67	1296,36
198,89	1294,32
199,11	1275,88
199,33	1224,69
199,55	1214,45
199,77	1273,84
199,99	1257,45
200,21	1273,84
200,43	1273,84
200,65	1306,60
200,87	1265,64
201,09	1206,25
201,31	1232,88
201,53	1189,87
201,75	1296,36
201,97	1214,45
202,19	1206,25
202,41	1304,56
202,63	1288,17
202,85	1198,06
203,07	1325,04
203,29	1279,98
203,51	1208,30
203,73	1345,52
203,95	1333,23
204,17	1247,21
204,39	1353,71
204,61	1277,93
204,83	1261,55
205,05	1265,64
205,27	1320,94
205,49	1273,84
205,71	1290,22
205,93	1279,98
206,15	1290,22
206,37	1275,88
206,59	1300,46
206,81	1267,69
207,03	1312,75
207,25	1271,79
207,47	1204,21
207,69	1310,70
207,91	1294,32
208,13	1243,12
208,34	1257,45
208,56	1279,98
208,78	1304,56
209,00	1226,73
209,22	1234,93
209,44	1384,43
209,66	1265,64
209,88	1159,15
210,10	1224,69
210,32	1261,55
210,54	1261,55
210,76	1322,99
210,98	1228,78
211,20	1169,39
211,42	1269,74
211,64	1251,31
211,86	1259,50
212,08	1191,92
212,30	1263,60
212,52	1273,84
212,74	1243,12
212,96	1284,08
213,17	1279,98
213,39	1239,02
213,61	1251,31
213,83	1290,22
214,05	1202,16
214,27	1329,13
214,49	1196,01
214,71	1261,55
214,93	1339,37
215,15	1263,60
215,37	1286,12
215,59	1282,03
215,81	1255,40
216,03	1310,70
216,24	1312,75
216,46	1232,88
216,68	1329,13
216,90	1304,56
217,12	1306,60
217,34	1247,21
217,56	1382,38
217,78	1196,01
218,00	1279,98
218,22	1308,65
218,44	1208,30
218,66	1298,41
218,87	1259,50
219,09	1259,50
219,31	1314,80
219,53	1335,28
219,75	1236,97
219,97	1263,60
220,19	1253,36
220,41	1294,32
220,63	1253,36
220,85	1269,74
221,06	1212,40
221,28	1353,71
221,50	1210,35
221,72	1322,99
221,94	1249,26
222,16	1329,13
222,38	1181,68
222,60	1204,21
222,82	1290,22
223,03	1257,45
223,25	1294,32
223,47	1312,75
223,69	1261,55
223,91	1232,88
224,13	1265,64
224,35	1275,88
224,57	1345,52
224,78	1284,08
225,00	1249,26
225,22	1339,37
225,44	1269,74
225,66	1249,26
225,88	1239,02
226,10	1347,56
226,32	1249,26
226,53	1300,46
226,75	1222,64
226,97	1294,32
227,19	1263,60
227,41	1226,73
227,63	1296,36
227,85	1222,64
228,06	1267,69
228,28	1263,60
228,50	1208,30
228,72	1273,84
228,94	1196,01
229,16	1271,79
229,37	1261,55
229,59	1286,12
229,81	1314,80
230,03	1292,27
230,25	1275,88
230,47	1204,21
230,69	1290,22
230,90	1196,01
231,12	1216,49
231,34	1290,22
231,56	1275,88
231,78	1249,26
232,00	1288,17
232,21	1187,82
232,43	1218,54
232,65	1243,12
232,87	1247,21
233,09	1222,64
233,30	1249,26
233,52	1294,32
233,74	1230,83
233,96	1200,11
234,18	1279,98
234,40	1286,12
234,61	1239,02
234,83	1261,55
235,05	1247,21
235,27	1302,51
235,49	1288,17
235,70	1288,17
235,92	1255,40
236,14	1247,21
236,36	1329,13
236,58	1189,87
236,79	1314,80
237,01	1273,84
237,23	1314,80
237,45	1253,36
237,67	1208,30
237,88	1376,24
238,10	1322,99
238,32	1267,69
238,54	1193,97
238,76	1232,88
238,97	1271,79
239,19	1216,49
239,41	1327,08
239,63	1300,46
239,85	1304,56
240,06	1308,65
240,28	1265,64
240,50	1249,26
240,72	1294,32
240,93	1339,37
241,15	1290,22
241,37	1275,88
241,59	1251,31
241,81	1298,41
242,02	1277,93
242,24	1259,50
242,46	1290,22
242,68	1282,03
242,89	1310,70
243,11	1220,59
243,33	1189,87
243,55	1279,98
243,76	1263,60
243,98	1277,93
244,20	1218,54
244,42	1277,93
244,64	1290,22
244,85	1314,80
245,07	1241,07
245,29	1337,32
245,51	1263,60
245,72	1251,31
245,94	1275,88
246,16	1230,83
246,38	1296,36
246,59	1263,60
246,81	1366,00
247,03	1218,54
247,24	1267,69
247,46	1306,60
247,68	1273,84
247,90	1169,39
248,11	1261,55
248,33	1255,40
248,55	1284,08
248,77	1234,93
248,98	1271,79
249,20	1292,27
249,42	1304,56
249,64	1249,26
249,85	1341,42
250,07	1292,27
250,29	1312,75
250,50	1247,21
250,72	1294,32
250,94	1312,75
251,16	1265,64
251,37	1347,56
251,59	1296,36
251,81	1138,67
252,02	1312,75
252,24	1193,97
252,46	1306,60
252,68	1284,08
252,89	1273,84
253,11	1316,84
253,33	1261,55
253,54	1279,98
253,76	1282,03
253,98	1279,98
254,20	1300,46
254,41	1271,79
254,63	1165,29
254,85	1247,21
255,06	1286,12
255,28	1279,98
255,50	1239,02
255,71	1196,01
255,93	1298,41
256,15	1253,36
256,36	1329,13
256,58	1198,06
256,80	1363,95
257,02	1322,99
257,23	1329,13
257,45	1308,65
257,67	1314,80
257,88	1230,83
258,10	1224,69
258,32	1265,64
258,53	1187,82
258,75	1286,12
258,97	1265,64
259,18	1269,74
259,40	1398,76
259,62	1269,74
259,83	1277,93
260,05	1310,70
260,27	1298,41
260,48	1196,01
260,70	1236,97
260,92	1232,88
261,13	1282,03
261,35	1236,97
261,57	1222,64
261,78	1183,73
262,00	1206,25
262,22	1314,80
262,43	1290,22
262,65	1267,69
262,86	1241,07
263,08	1290,22
263,30	1232,88
263,51	1282,03
263,73	1245,16
263,95	1300,46
264,16	1185,77
264,38	1290,22
264,60	1279,98
264,81	1251,31
265,03	1284,08
265,25	1312,75
265,46	1247,21
265,68	1269,74
265,89	1310,70
266,11	1284,08
266,33	1327,08
266,54	1325,04
266,76	1257,45
266,98	1294,32
267,19	1259,50
267,41	1224,69
267,62	1204,21
267,84	1234,93
268,06	1339,37
268,27	1284,08
268,49	1234,93
268,70	1310,70
268,92	1243,12
269,14	1228,78
269,35	1220,59
269,57	1257,45
269,79	1273,84
270,00	1298,41
270,22	1298,41
270,43	1251,31
270,65	1234,93
270,87	1308,65
271,08	1312,75
271,30	1267,69
271,51	1302,51
271,73	1257,45
271,95	1271,79
272,16	1228,78
272,38	1269,74
272,59	1253,36
272,81	1310,70
273,02	1259,50
273,24	1232,88
273,46	1220,59
273,67	1318,89
273,89	1343,47
274,10	1259,50
274,32	1363,95
274,54	1339,37
274,75	1282,03
274,97	1259,50
275,18	1251,31
275,40	1239,02
275,61	1325,04
275,83	1304,56
276,05	1269,74
276,26	1298,41
276,48	1212,40
276,69	1255,40
276,91	1243,12
277,12	1304,56
277,34	1267,69
277,55	1267,69
277,77	1290,22
277,99	1282,03
278,20	1302,51
278,42	1279,98
278,63	1312,75
278,85	1257,45
279,06	1279,98
279,28	1304,56
279,49	1167,34
279,71	1279,98
279,93	1267,69
280,14	1273,84
280,36	1191,92
280,57	1322,99
280,79	1257,45
281,00	1322,99
281,22	1273,84
281,43	1245,16
281,65	1214,45
281,86	1241,07
282,08	1255,40
282,29	1212,40
282,51	1228,78
282,73	1282,03
282,94	1253,36
283,16	1216,49
283,37	1331,18
283,59	1279,98
283,80	1232,88
284,02	1331,18
284,23	1376,24
284,45	1239,02
284,66	1325,04
284,88	1335,28
285,09	1214,45
285,31	1312,75
285,52	1269,74
285,74	1214,45
285,95	1265,64
286,17	1312,75
286,38	1277,93
286,60	1300,46
286,81	1310,70
287,03	1259,50
287,24	1318,89
287,46	1271,79
287,67	1253,36
287,89	1327,08
288,10	1189,87
288,32	1318,89
288,53	1333,23
288,75	1277,93
288,96	1277,93
289,18	1312,75
289,39	1269,74
289,61	1329,13
289,82	1239,02
290,04	1288,17
290,25	1275,88
290,47	1255,40
290,68	1216,49
290,90	1288,17
291,11	1249,26
291,33	1263,60
291,54	1347,56
291,76	1277,93
291,97	1275,88
292,18	1267,69
292,40	1253,36
292,61	1236,97
292,83	1275,88
293,04	1282,03
293,26	1269,74
293,47	1245,16
293,69	1273,84
293,90	1279,98
294,12	1253,36
294,33	1216,49
294,55	1232,88
294,76	1216,49
294,97	1198,06
295,19	1306,60
295,40	1241,07
295,62	1279,98
295,83	1245,16
296,05	1261,55
296,26	1206,25
296,48	1251,31
296,69	1337,32
296,90	1261,55
297,12	1232,88
297,33	1349,61
297,55	1253,36
297,76	1249,26
297,98	1308,65
298,19	1224,69
298,41	1286,12
298,62	1249,26
298,83	1216,49
299,05	1275,88
299,26	1286,12
299,48	1253,36
299,69	1206,25
299,90	1353,71
300,12	1263,60
300,33	1282,03
300,55	1259,50
300,76	1222,64
300,98	1259,50
301,19	1304,56
301,40	1230,83
301,62	1265,64
301,83	1310,70
302,05	1243,12
302,26	1314,80
302,47	1261,55
302,69	1322,99
302,90	1212,40
303,12	1232,88
303,33	1269,74
303,54	1322,99
303,76	1239,02
303,97	1226,73
304,19	1249,26
304,40	1277,93
304,61	1294,32
304,83	1294,32
305,04	1216,49
305,26	1331,18
305,47	1282,03
305,68	1308,65
305,90	1267,69
306,11	1241,07
306,33	1300,46
306,54	1243,12
306,75	1257,45
306,97	1345,52
307,18	1277,93
307,39	1277,93
307,61	1271,79
307,82	1224,69
308,04	1273,84
308,25	1286,12
308,46	1228,78
308,68	1318,89
308,89	1357,80
309,10	1271,79
309,32	1288,17
309,53	1277,93
309,74	1374,19
309,96	1298,41
310,17	1255,40
310,39	1239,02
310,60	1298,41
310,81	1249,26
311,03	1279,98
311,24	1273,84
311,45	1370,09
311,67	1361,90
311,88	1298,41
312,09	1263,60
312,31	1253,36
312,52	1290,22
312,73	1277,93
312,95	1335,28
313,16	1298,41
313,37	1279,98
313,59	1363,95
313,80	1204,21
314,01	1288,17
314,23	1265,64
314,44	1263,60
314,65	1255,40
314,87	1230,83
315,08	1224,69
315,29	1257,45
315,51	1142,77
315,72	1236,97
315,93	1304,56
316,15	1331,18
316,36	1275,88
316,57	1257,45
316,79	1339,37
317,00	1253,36
317,21	1261,55
317,43	1218,54
317,64	1269,74
317,85	1366,00
318,07	1251,31
318,28	1241,07
318,49	1277,93
318,70	1204,21
318,92	1341,42
319,13	1220,59
319,34	1306,60
319,56	1239,02
319,77	1273,84
319,98	1132,53
320,20	1255,40
320,41	1247,21
320,62	1304,56
320,83	1253,36
321,05	1241,07
321,26	1310,70
321,47	1236,97
321,69	1249,26
321,90	1210,35
322,11	1298,41
322,32	1290,22
322,54	1308,65
322,75	1257,45
322,96	1249,26
323,18	1263,60
323,39	1314,80
323,60	1243,12
323,81	1288,17
324,03	1222,64
324,24	1214,45
324,45	1204,21
324,66	1306,60
324,88	1308,65
325,09	1259,50
325,30	1284,08
325,52	1271,79
325,73	1298,41
325,94	1255,40
326,15	1292,27
326,37	1333,23
326,58	1261,55
326,79	1247,21
327,00	1277,93
327,22	1361,90
327,43	1212,40
327,64	1255,40
327,85	1228,78
328,07	1253,36
328,28	1314,80
328,49	1265,64
328,70	1208,30
328,92	1282,03
329,13	1206,25
329,34	1327,08
329,55	1245,16
329,76	1296,36
329,98	1251,31
330,19	1341,42
330,40	1304,56
330,61	1325,04
330,83	1228,78
331,04	1296,36
331,25	1288,17
331,46	1318,89
331,68	1286,12
331,89	1284,08
332,10	1245,16
332,31	1210,35
332,52	1253,36
332,74	1257,45
332,95	1261,55
333,16	1347,56
333,37	1308,65
333,58	1181,68
333,80	1320,94
334,01	1206,25
334,22	1314,80
334,43	1249,26
334,64	1255,40
334,86	1304,56
335,07	1318,89
335,28	1255,40
335,49	1206,25
335,70	1230,83
335,92	1220,59
336,13	1228,78
336,34	1284,08
336,55	1236,97
336,76	1325,04
336,98	1196,01
337,19	1255,40
337,40	1243,12
337,61	1249,26
337,82	1273,84
338,04	1298,41
338,25	1257,45
338,46	1282,03
338,67	1316,84
338,88	1267,69
339,09	1294,32
339,31	1275,88
339,52	1239,02
339,73	1257,45
339,94	1263,60
340,15	1310,70
340,36	1236,97
340,58	1284,08
340,79	1304,56
341,00	1230,83
341,21	1284,08
341,42	1349,61
341,63	1288,17
341,85	1234,93
342,06	1292,27
342,27	1263,60
342,48	1331,18
342,69	1253,36
342,90	1265,64
343,12	1306,60
343,33	1312,75
343,54	1253,36
343,75	1265,64
343,96	1271,79
344,17	1286,12
344,38	1329,13
344,60	1314,80
344,81	1343,47
345,02	1294,32
345,23	1234,93
345,44	1259,50
345,65	1218,54
345,86	1292,27
346,07	1251,31
346,29	1263,60
346,50	1292,27
346,71	1282,03
346,92	1314,80
347,13	1269,74
347,34	1257,45
347,55	1284,08
347,76	1239,02
347,98	1347,56
348,19	1241,07
348,40	1286,12
348,61	1337,32
348,82	1339,37
349,03	1294,32
349,24	1331,18
349,45	1300,46
349,66	1228,78
349,88	1261,55
350,09	1263,60
350,30	1273,84
350,51	1265,64
350,72	1257,45
350,93	1337,32
351,14	1243,12
351,35	1318,89
351,56	1257,45
351,77	1320,94
351,99	1282,03
352,20	1296,36
352,41	1230,83
352,62	1208,30
352,83	1298,41
353,04	1304,56
353,25	1269,74
353,46	1249,26
353,67	1275,88
353,88	1322,99
354,09	1234,93
354,30	1300,46
354,52	1339,37
354,73	1277,93
354,94	1298,41
355,15	1263,60
355,36	1267,69
355,57	1259,50
355,78	1273,84
355,99	1331,18
356,20	1312,75
356,41	1300,46
356,62	1243,12
356,83	1243,12
357,04	1282,03
357,25	1302,51
357,46	1253,36
357,68	1230,83
357,89	1288,17
358,10	1249,26
358,31	1314,80
358,52	1298,41
358,73	1255,40
358,94	1247,21
359,15	1271,79
359,36	1292,27
359,57	1347,56
359,78	1251,31
359,99	1284,08
360,20	1271,79
360,41	1288,17
360,62	1290,22
360,83	1171,44
361,04	1298,41
361,25	1253,36
361,46	1277,93
361,67	1298,41
361,88	1261,55
362,09	1230,83
362,30	1253,36
362,51	1224,69
362,72	1290,22
362,93	1204,21
363,14	1331,18
363,35	1263,60
363,56	1253,36
363,78	1243,12
363,99	1236,97
364,20	1234,93
364,41	1267,69
364,62	1226,73
364,83	1249,26
365,04	1292,27
365,25	1253,36
365,46	1288,17
365,67	1327,08
365,88	1249,26
366,09	1292,27
366,30	1204,21
366,51	1267,69
366,72	1198,06
366,93	1361,90
367,14	1255,40
367,35	1284,08
367,56	1241,07
367,77	1243,12
367,98	1322,99
368,18	1304,56
368,39	1267,69
368,60	1282,03
368,81	1275,88
369,02	1263,60
369,23	1249,26
369,44	1282,03
369,65	1212,40
369,86	1316,84
370,07	1241,07
370,28	1284,08
370,49	1210,35
370,70	1232,88
370,91	1279,98
371,12	1339,37
371,33	1277,93
371,54	1243,12
371,75	1296,36
371,96	1290,22
372,17	1320,94
372,38	1247,21
372,59	1261,55
372,80	1296,36
373,01	1292,27
373,22	1230,83
373,43	1314,80
373,64	1198,06
373,85	1277,93
374,06	1239,02
374,26	1222,64
374,47	1232,88
374,68	1304,56
374,89	1212,40
375,10	1255,40
375,31	1208,30
375,52	1284,08
375,73	1263,60
375,94	1236,97
376,15	1255,40
376,36	1331,18
376,57	1282,03
376,78	1286,12
376,99	1325,04
377,20	1277,93
377,40	1241,07
377,61	1314,80
377,82	1335,28
378,03	1267,69
378,24	1259,50
378,45	1234,93
378,66	1265,64
378,87	1236,97
379,08	1234,93
379,29	1216,49
379,50	1314,80
379,71	1253,36
379,91	1232,88
380,12	1329,13
380,33	1267,69
380,54	1241,07
380,75	1282,03
380,96	1224,69
381,17	1310,70
381,38	1312,75
381,59	1294,32
381,80	1286,12
382,00	1277,93
382,21	1206,25
382,42	1302,51
382,63	1327,08
382,84	1232,88
383,05	1310,70
383,26	1347,56
383,47	1302,51
383,68	1310,70
383,88	1241,07
384,09	1304,56
384,30	1279,98
384,51	1232,88
384,72	1257,45
384,93	1320,94
385,14	1286,12
385,35	1273,84
385,55	1279,98
385,76	1290,22
385,97	1230,83
386,18	1312,75
386,39	1359,85
386,60	1239,02
386,81	1253,36
387,02	1222,64
387,22	1239,02
387,43	1275,88
387,64	1337,32
387,85	1363,95
388,06	1333,23
388,27	1292,27
388,48	1210,35
388,68	1288,17
388,89	1335,28
389,10	1427,43
389,31	1271,79
389,52	1269,74
389,73	1249,26
389,93	1204,21
390,14	1267,69
390,35	1298,41
390,56	1189,87
390,77	1306,60
390,98	1298,41
391,18	1255,40
391,39	1261,55
391,60	1232,88
391,81	1247,21
392,02	1236,97
392,23	1286,12
392,43	1294,32
392,64	1220,59
392,85	1263,60
393,06	1294,32
393,27	1290,22
393,47	1273,84
393,68	1279,98
393,89	1277,93
394,10	1222,64
394,31	1263,60
394,52	1245,16
394,72	1275,88
394,93	1279,98
395,14	1286,12
395,35	1271,79
395,56	1314,80
395,76	1257,45
395,97	1249,26
396,18	1271,79
396,39	1245,16
396,60	1226,73
396,80	1310,70
397,01	1361,90
397,22	1253,36
397,43	1343,47
397,64	1255,40
397,84	1279,98
398,05	1265,64
398,26	1298,41
398,47	1257,45
398,67	1327,08
398,88	1300,46
399,09	1230,83
399,30	1325,04
399,51	1271,79
399,71	1320,94
399,92	1255,40
400,13	1226,73
400,34	1308,65
400,54	1314,80
400,75	1230,83
400,96	1298,41
401,17	1292,27
401,37	1263,60
401,58	1212,40
401,79	1220,59
402,00	1284,08
402,21	1300,46
402,41	1269,74
402,62	1265,64
402,83	1247,21
403,04	1331,18
403,24	1249,26
403,45	1279,98
403,66	1359,85
403,87	1318,89
404,07	1267,69
404,28	1234,93
404,49	1284,08
404,70	1282,03
404,90	1302,51
405,11	1273,84
405,32	1290,22
405,52	1173,49
405,73	1234,93
405,94	1286,12
406,15	1232,88
406,35	1398,76
406,56	1241,07
406,77	1224,69
406,98	1265,64
407,18	1193,97
407,39	1222,64
407,60	1196,01
407,80	1327,08
408,01	1243,12
408,22	1304,56
408,43	1265,64
408,63	1318,89
408,84	1247,21
409,05	1228,78
409,25	1335,28
409,46	1265,64
409,67	1292,27
409,88	1335,28
410,08	1267,69
410,29	1202,16
410,50	1298,41
410,70	1294,32
410,91	1353,71
411,12	1310,70
411,32	1302,51
411,53	1329,13
411,74	1214,45
411,95	1322,99
412,15	1308,65
412,36	1202,16
412,57	1228,78
412,77	1316,84
412,98	1226,73
413,19	1243,12
413,39	1316,84
413,60	1241,07
413,81	1173,49
414,01	1255,40
414,22	1271,79
414,43	1288,17
414,63	1279,98
414,84	1306,60
415,05	1273,84
415,25	1282,03
415,46	1302,51
415,67	1243,12
415,87	1253,36
416,08	1267,69
416,29	1271,79
416,49	1306,60
416,70	1286,12
416,91	1327,08
417,11	1224,69
417,32	1282,03
417,53	1241,07
417,73	1185,77
417,94	1288,17
418,15	1296,36
418,35	1220,59
418,56	1300,46
418,77	1384,43
418,97	1224,69
419,18	1273,84
419,38	1325,04
419,59	1251,31
419,80	1259,50
420,00	1216,49
420,21	1253,36
420,42	1325,04
420,62	1310,70
420,83	1189,87
421,04	1279,98
421,24	1249,26
421,45	1302,51
421,65	1245,16
421,86	1249,26
422,07	1318,89
422,27	1271,79
422,48	1249,26
422,69	1300,46
422,89	1267,69
423,10	1187,82
423,30	1304,56
423,51	1290,22
423,72	1253,36
423,92	1288,17
424,13	1179,63
424,33	1288,17
424,54	1343,47
424,75	1265,64
424,95	1224,69
425,16	1220,59
425,36	1255,40
425,57	1288,17
425,78	1294,32
425,98	1232,88
426,19	1214,45
426,39	1257,45
426,60	1308,65
426,81	1271,79
427,01	1265,64
427,22	1241,07
427,42	1286,12
427,63	1267,69
427,83	1341,42
428,04	1265,64
428,25	1331,18
428,45	1331,18
428,66	1294,32
428,86	1230,83
429,07	1232,88
429,28	1279,98
429,48	1239,02
429,69	1275,88
429,89	1273,84
430,10	1247,21
430,30	1277,93
430,51	1314,80
430,71	1204,21
430,92	1232,88
431,13	1265,64
431,33	1300,46
431,54	1349,61
431,74	1257,45
431,95	1245,16
432,15	1261,55
432,36	1236,97
432,56	1347,56
432,77	1325,04
432,98	1239,02
433,18	1300,46
433,39	1275,88
433,59	1290,22
433,80	1196,01
434,00	1263,60
434,21	1253,36
434,41	1279,98
434,62	1341,42
434,82	1249,26
435,03	1253,36
435,23	1290,22
435,44	1302,51
435,64	1318,89
435,85	1259,50
436,06	1282,03
436,26	1230,83
436,47	1218,54
436,67	1279,98
436,88	1212,40
437,08	1271,79
437,29	1327,08
437,49	1357,80
437,70	1247,21
437,90	1273,84
438,11	1263,60
438,31	1241,07
438,52	1286,12
438,72	1302,51
438,93	1275,88
439,13	1249,26
439,34	1269,74
439,54	1294,32
439,75	1279,98
439,95	1300,46
440,16	1286,12
440,36	1249,26
440,57	1282,03
440,77	1216,49
440,98	1222,64
441,18	1296,36
441,39	1255,40
441,59	1279,98
441,80	1202,16
442,00	1271,79
442,21	1267,69
442,41	1232,88
442,62	1298,41
442,82	1271,79
443,02	1290,22
443,23	1241,07
443,43	1249,26
443,64	1325,04
443,84	1318,89
444,05	1306,60
444,25	1245,16
444,46	1304,56
444,66	1245,16
444,87	1310,70
445,07	1302,51
445,28	1196,01
445,48	1224,69
445,69	1255,40
445,89	1302,51
446,09	1206,25
446,30	1290,22
446,50	1282,03
446,71	1243,12
446,91	1304,56
447,12	1271,79
447,32	1320,94
447,53	1279,98
447,73	1294,32
447,93	1277,93
448,14	1318,89
448,34	1257,45
448,55	1253,36
448,75	1288,17
448,96	1273,84
449,16	1265,64
449,36	1269,74
449,57	1271,79
449,77	1273,84
449,98	1279,98
450,18	1327,08
450,39	1279,98
450,59	1308,65
450,79	1279,98
451,00	1259,50
451,20	1288,17
451,41	1294,32
451,61	1318,89
451,81	1284,08
452,02	1234,93
452,22	1296,36
452,43	1153,01
452,63	1257,45
452,84	1210,35
453,04	1224,69
453,24	1241,07
453,45	1228,78
453,65	1208,30
453,86	1226,73
454,06	1294,32
454,26	1288,17
454,47	1222,64
454,67	1257,45
454,87	1300,46
455,08	1255,40
455,28	1290,22
455,49	1257,45
455,69	1257,45
455,89	1288,17
456,10	1253,36
456,30	1243,12
456,51	1273,84
456,71	1400,81
456,91	1247,21
457,12	1306,60
457,32	1290,22
457,52	1318,89
457,73	1210,35
457,93	1284,08
458,14	1241,07
458,34	1265,64
458,54	1333,23
458,75	1302,51
458,95	1247,21
459,15	1306,60
459,36	1251,31
459,56	1302,51
459,76	1241,07
459,97	1253,36
460,17	1255,40
460,37	1234,93
460,58	1312,75
460,78	1247,21
460,99	1216,49
461,19	1271,79
461,39	1312,75
461,60	1224,69
461,80	1257,45
462,00	1288,17
462,21	1263,60
462,41	1243,12
462,61	1322,99
462,82	1298,41
463,02	1224,69
463,22	1251,31
463,43	1320,94
463,63	1288,17
463,83	1249,26
464,04	1271,79
464,24	1347,56
464,44	1236,97
464,64	1251,31
464,85	1329,13
465,05	1261,55
465,25	1232,88
465,46	1394,67
465,66	1314,80
465,86	1284,08
466,07	1273,84
466,27	1288,17
466,47	1255,40
466,68	1232,88
466,88	1312,75
467,08	1247,21
467,29	1245,16
467,49	1249,26
467,69	1339,37
467,89	1259,50
468,10	1257,45
468,30	1318,89
468,50	1265,64
468,71	1267,69
468,91	1275,88
469,11	1322,99
469,31	1306,60
469,52	1224,69
469,72	1251,31
469,92	1275,88
470,13	1308,65
470,33	1255,40
470,53	1269,74
470,73	1271,79
470,94	1275,88
471,14	1318,89
471,34	1234,93
471,54	1279,98
471,75	1284,08
471,95	1249,26
472,15	1277,93
472,36	1212,40
472,56	1247,21
472,76	1247,21
472,96	1286,12
473,17	1191,92
473,37	1361,90
473,57	1243,12
473,77	1341,42
473,98	1271,79
474,18	1294,32
474,38	1284,08
474,58	1265,64
474,79	1263,60
474,99	1253,36
475,19	1253,36
475,39	1286,12
475,60	1251,31
475,80	1318,89
476,00	1320,94
476,20	1263,60
476,41	1232,88
476,61	1304,56
476,81	1322,99
477,01	1228,78
477,21	1359,85
477,42	1304,56
477,62	1232,88
477,82	1255,40
478,02	1320,94
478,23	1286,12
478,43	1302,51
478,63	1320,94
478,83	1222,64
479,03	1255,40
479,24	1222,64
479,44	1282,03
479,64	1230,83
479,84	1279,98
480,04	1259,50
480,25	1239,02
480,45	1232,88
480,65	1263,60
480,85	1261,55
481,06	1314,80
481,26	1339,37
481,46	1247,21
481,66	1198,06
481,86	1263,60
482,06	1288,17
482,27	1312,75
482,47	1222,64
482,67	1267,69
482,87	1251,31
483,07	1341,42
483,28	1230,83
483,48	1263,60
483,68	1202,16
483,88	1269,74
484,08	1282,03
484,29	1234,93
484,49	1243,12
484,69	1273,84
484,89	1325,04
485,09	1259,50
485,29	1267,69
485,50	1251,31
485,70	1314,80
485,90	1198,06
486,10	1220,59
486,30	1329,13
486,50	1298,41
486,71	1316,84
486,91	1345,52
487,11	1263,60
487,31	1298,41
487,51	1298,41
487,71	1243,12
487,91	1292,27
488,12	1273,84
488,32	1298,41
488,52	1232,88
488,72	1304,56
488,92	1218,54
489,12	1243,12
489,32	1247,21
489,53	1302,51
489,73	1310,70
489,93	1325,04
490,13	1269,74
490,33	1288,17
490,53	1249,26
490,73	1282,03
490,94	1284,08
491,14	1318,89
491,34	1239,02
491,54	1282,03
491,74	1306,60
491,94	1306,60
492,14	1282,03
492,34	1275,88
492,54	1306,60
492,75	1286,12
492,95	1236,97
493,15	1298,41
493,35	1296,36
493,55	1265,64
493,75	1257,45
493,95	1257,45
494,15	1218,54
494,35	1214,45
494,56	1257,45
494,76	1259,50
494,96	1222,64
495,16	1425,39
495,36	1220,59
495,56	1282,03
495,76	1196,01
495,96	1259,50
496,16	1255,40
496,36	1284,08
496,56	1243,12
496,77	1292,27
496,97	1265,64
497,17	1239,02
497,37	1290,22
497,57	1298,41
497,77	1322,99
497,97	1322,99
498,17	1259,50
498,37	1279,98
498,57	1308,65
498,77	1261,55
498,97	1318,89
499,17	1284,08
499,38	1292,27
499,58	1249,26
499,78	1345,52
499,98	1298,41
500,18	1333,23
500,38	1265,64
500,58	1284,08
500,78	1255,40
500,98	1257,45
501,18	1253,36
501,38	1261,55
501,58	1298,41
501,78	1271,79
501,98	1306,60
502,18	1310,70
502,38	1345,52
502,58	1296,36
502,78	1228,78
502,98	1261,55
503,18	1255,40
503,38	1300,46
503,59	1255,40
503,79	1310,70
503,99	1316,84
504,19	1306,60
504,39	1316,84
504,59	1261,55
504,79	1312,75
504,99	1312,75
505,19	1296,36
505,39	1271,79
505,59	1298,41
505,79	1159,15
505,99	1234,93
506,19	1232,88
506,39	1220,59
506,59	1239,02
506,79	1216,49
506,99	1245,16
507,19	1288,17
507,39	1243,12
507,59	1292,27
507,79	1259,50
507,99	1234,93
508,19	1257,45
508,39	1296,36
508,59	1261,55
508,79	1243,12
508,99	1290,22
509,19	1284,08
509,39	1241,07
509,59	1261,55
509,79	1310,70
509,99	1236,97
510,19	1290,22
510,39	1376,24
510,59	1257,45
510,79	1296,36
510,99	1253,36
511,19	1222,64
511,39	1239,02
511,59	1273,84
511,79	1236,97
511,99	1183,73
512,19	1251,31
512,38	1300,46
512,58	1253,36
512,78	1253,36
512,98	1275,88
513,18	1314,80
513,38	1253,36
513,58	1279,98
513,78	1290,22
513,98	1302,51
514,18	1261,55
514,38	1210,35
514,58	1308,65
514,78	1251,31
514,98	1290,22
515,18	1279,98
515,38	1269,74
515,58	1322,99
515,78	1294,32
515,98	1306,60
516,18	1167,34
516,38	1226,73
516,57	1261,55
516,77	1265,64
516,97	1226,73
517,17	1312,75
517,37	1234,93
517,57	1216,49
517,77	1245,16
517,97	1220,59
518,17	1294,32
518,37	1355,76
518,57	1208,30
518,77	1208,30
518,97	1277,93
519,16	1290,22
519,36	1247,21
519,56	1314,80
519,76	1286,12
519,96	1171,44
520,16	1329,13
520,36	1216,49
520,56	1327,08
520,76	1310,70
520,96	1271,79
521,16	1327,08
521,35	1359,85
521,55	1200,11
521,75	1247,21
521,95	1241,07
522,15	1286,12
522,35	1282,03
522,55	1259,50
522,75	1259,50
522,95	1300,46
523,14	1318,89
523,34	1271,79
523,54	1282,03
523,74	1247,21
523,94	1271,79
524,14	1257,45
524,34	1327,08
524,54	1310,70
524,73	1271,79
524,93	1247,21
525,13	1314,80
525,33	1292,27
525,53	1273,84
525,73	1282,03
525,93	1355,76
526,13	1290,22
526,32	1189,87
526,52	1196,01
526,72	1212,40
526,92	1239,02
527,12	1275,88
527,32	1210,35
527,52	1257,45
527,71	1314,80
527,91	1325,04
528,11	1232,88
528,31	1302,51
528,51	1286,12
528,71	1282,03
528,90	1304,56
529,10	1245,16
529,30	1255,40
529,50	1292,27
529,70	1322,99
529,90	1263,60
530,09	1251,31
530,29	1304,56
530,49	1245,16
530,69	1226,73
530,89	1288,17
531,09	1292,27
531,28	1267,69
531,48	1318,89
531,68	1222,64
531,88	1257,45
532,08	1243,12
532,28	1265,64
532,47	1277,93
532,67	1257,45
532,87	1251,31
533,07	1290,22
533,27	1265,64
533,46	1269,74
533,66	1226,73
533,86	1218,54
534,06	1263,60
534,26	1284,08
534,45	1239,02
534,65	1249,26
534,85	1220,59
535,05	1312,75
535,25	1212,40
535,44	1222,64
535,64	1236,97
535,84	1267,69
536,04	1257,45
536,24	1292,27
536,43	1380,33
536,63	1251,31
536,83	1198,06
537,03	1290,22
537,22	1275,88
537,42	1204,21
537,62	1314,80
537,82	1253,36
538,02	1251,31
538,21	1290,22
538,41	1259,50
538,61	1327,08
538,81	1232,88
539,00	1341,42
539,20	1363,95
539,40	1273,84
539,60	1302,51
539,79	1277,93
539,99	1312,75
540,19	1222,64
540,39	1279,98
540,58	1310,70
540,78	1308,65
540,98	1253,36
541,18	1232,88
541,37	1347,56
541,57	1216,49
541,77	1243,12
541,97	1249,26
542,16	1251,31
542,36	1271,79
542,56	1318,89
542,76	1226,73
542,95	1253,36
543,15	1243,12
543,35	1325,04
543,54	1212,40
543,74	1273,84
543,94	1279,98
544,14	1265,64
544,33	1302,51
544,53	1230,83
544,73	1263,60
544,93	1279,98
545,12	1220,59
545,32	1265,64
545,52	1251,31
545,71	1294,32
545,91	1282,03
546,11	1329,13
546,30	1234,93
546,50	1230,83
546,70	1265,64
546,90	1189,87
547,09	1261,55
547,29	1282,03
547,49	1316,84
547,68	1286,12
547,88	1263,60
548,08	1265,64
548,27	1267,69
548,47	1230,83
548,67	1239,02
548,87	1339,37
549,06	1329,13
549,26	1249,26
549,46	1298,41
549,65	1222,64
549,85	1304,56
550,05	1247,21
550,24	1253,36
550,44	1314,80
550,64	1275,88
550,83	1191,92
551,03	1314,80
551,23	1230,83
551,42	1259,50
551,62	1259,50
551,82	1263,60
552,01	1351,66
552,21	1302,51
552,41	1261,55
552,60	1204,21
552,80	1312,75
553,00	1218,54
553,19	1306,60
553,39	1275,88
553,59	1236,97
553,78	1290,22
553,98	1341,42
554,17	1314,80
554,37	1357,80
554,57	1308,65
554,76	1286,12
554,96	1230,83
555,16	1261,55
555,35	1335,28
555,55	1193,97
555,75	1241,07
555,94	1236,97
556,14	1296,36
556,33	1290,22
556,53	1224,69
556,73	1288,17
556,92	1282,03
557,12	1261,55
557,32	1286,12
557,51	1239,02
557,71	1185,77
557,90	1298,41
558,10	1232,88
558,30	1257,45
558,49	1279,98
558,69	1282,03
558,88	1259,50
559,08	1269,74
559,28	1294,32
559,47	1273,84
559,67	1302,51
559,86	1333,23
560,06	1253,36
560,26	1322,99
560,45	1314,80
560,65	1273,84
560,84	1257,45
561,04	1249,26
561,24	1312,75
561,43	1255,40
561,63	1251,31
561,82	1282,03
562,02	1279,98
562,22	1169,39
562,41	1261,55
562,61	1261,55
562,80	1230,83
563,00	1253,36
563,19	1288,17
563,39	1290,22
563,59	1277,93
563,78	1331,18
563,98	1277,93
564,17	1343,47
564,37	1265,64
564,56	1284,08
564,76	1200,11
564,96	1271,79
565,15	1189,87
565,35	1316,84
565,54	1296,36
565,74	1249,26
565,93	1294,32
566,13	1300,46
566,32	1335,28
566,52	1253,36
566,71	1273,84
566,91	1282,03
567,11	1224,69
567,30	1304,56
567,50	1265,64
567,69	1245,16
567,89	1220,59
568,08	1290,22
568,28	1292,27
568,47	1349,61
568,67	1294,32
568,86	1322,99
569,06	1183,73
569,25	1183,73
569,45	1253,36
569,64	1257,45
569,84	1243,12
570,04	1265,64
570,23	1255,40
570,43	1230,83
570,62	1241,07
570,82	1300,46
571,01	1230,83
571,21	1241,07
571,40	1282,03
571,60	1169,39
571,79	1259,50
571,99	1284,08
572,18	1255,40
572,38	1239,02
572,57	1288,17
572,77	1267,69
572,96	1202,16
573,16	1220,59
573,35	1226,73
573,55	1353,71
573,74	1222,64
573,94	1236,97
574,13	1275,88
574,33	1339,37
574,52	1277,93
574,71	1259,50
574,91	1316,84
575,10	1269,74
575,30	1296,36
575,49	1282,03
575,69	1247,21
575,88	1386,47
576,08	1318,89
576,27	1247,21
576,47	1310,70
576,66	1298,41
576,86	1286,12
577,05	1267,69
577,25	1294,32
577,44	1282,03
577,64	1282,03
577,83	1353,71
578,02	1277,93
578,22	1310,70
578,41	1271,79
578,61	1335,28
578,80	1273,84
579,00	1249,26
579,19	1251,31
579,39	1261,55
579,58	1314,80
579,77	1273,84
579,97	1239,02
580,16	1304,56
580,36	1224,69
580,55	1277,93
580,75	1245,16
580,94	1243,12
581,13	1267,69
581,33	1239,02
581,52	1241,07
581,72	1296,36
581,91	1224,69
582,11	1220,59
582,30	1249,26
582,49	1306,60
582,69	1292,27
582,88	1273,84
583,08	1247,21
583,27	1216,49
583,47	1304,56
583,66	1222,64
583,85	1261,55
584,05	1345,52
584,24	1282,03
584,44	1300,46
584,63	1322,99
584,82	1243,12
585,02	1290,22
585,21	1236,97
585,41	1269,74
585,60	1204,21
585,79	1282,03
585,99	1267,69
586,18	1298,41
586,37	1318,89
586,57	1292,27
586,76	1294,32
586,96	1218,54
587,15	1296,36
587,34	1277,93
587,54	1247,21
587,73	1200,11
587,93	1331,18
588,12	1277,93
588,31	1269,74
588,51	1222,64
588,70	1263,60
588,89	1304,56
589,09	1290,22
589,28	1298,41
589,47	1243,12
589,67	1298,41
589,86	1261,55
590,06	1239,02
590,25	1310,70
590,44	1140,72
590,64	1257,45
590,83	1286,12
591,02	1224,69
591,22	1253,36
591,41	1247,21
591,60	1259,50
591,80	1288,17
591,99	1329,13
592,18	1241,07
592,38	1314,80
592,57	1275,88
592,76	1339,37
592,96	1249,26
593,15	1243,12
593,34	1314,80
593,54	1316,84
593,73	1314,80
593,92	1257,45
594,12	1288,17
594,31	1263,60
594,50	1202,16
594,70	1345,52
594,89	1236,97
595,08	1263,60
595,28	1257,45
595,47	1300,46
595,66	1316,84
595,86	1243,12
596,05	1304,56
596,24	1259,50
596,43	1255,40
596,63	1222,64
596,82	1347,56
597,01	1329,13
597,21	1224,69
597,40	1236,97
597,59	1241,07
597,79	1284,08
597,98	1273,84
598,17	1271,79
598,36	1277,93
598,56	1265,64
598,75	1290,22
598,94	1247,21
599,14	1318,89
599,33	1220,59
599,52	1282,03
599,71	1282,03
599,91	1345,52
600,10	1251,31
600,29	1290,22
600,48	1212,40
600,68	1261,55
600,87	1239,02
601,06	1300,46
601,26	1304,56
601,45	1271,79
601,64	1255,40
601,83	1290,22
602,03	1249,26
602,22	1247,21
602,41	1265,64
602,60	1279,98
602,80	1277,93
602,99	1273,84
603,18	1239,02
603,37	1300,46
603,57	1298,41
603,76	1277,93
603,95	1296,36
604,14	1253,36
604,34	1298,41
604,53	1290,22
604,72	1249,26
604,91	1218,54
605,10	1161,20
605,30	1269,74
605,49	1337,32
605,68	1279,98
605,87	1351,66
606,07	1249,26
606,26	1327,08
606,45	1279,98
606,64	1288,17
606,84	1261,55
607,03	1282,03
607,22	1277,93
607,41	1327,08
607,60	1263,60
607,80	1288,17
607,99	1245,16
608,18	1200,11
608,37	1216,49
608,56	1243,12
608,76	1275,88
608,95	1206,25
609,14	1316,84
609,33	1312,75
609,52	1366,00
609,72	1279,98
609,91	1165,29
610,10	1257,45
610,29	1177,58
610,48	1267,69
610,68	1359,85
610,87	1271,79
611,06	1327,08
611,25	1325,04
611,44	1230,83
611,63	1275,88
611,83	1271,79
612,02	1243,12
612,21	1310,70
612,40	1257,45
612,59	1288,17
612,79	1177,58
612,98	1296,36
613,17	1234,93
613,36	1327,08
613,55	1261,55
613,74	1198,06
613,93	1202,16
614,13	1241,07
614,32	1251,31
614,51	1261,55
614,70	1314,80
614,89	1243,12
615,08	1218,54
615,28	1220,59
615,47	1273,84
615,66	1320,94
615,85	1277,93
616,04	1320,94
616,23	1284,08
616,42	1286,12
616,62	1189,87
616,81	1265,64
617,00	1318,89
617,19	1279,98
617,38	1333,23
617,57	1314,80
617,76	1335,28
617,95	1312,75
618,15	1239,02
618,34	1247,21
618,53	1292,27
618,72	1226,73
618,91	1261,55
619,10	1245,16
619,29	1279,98
619,48	1228,78
619,68	1306,60
619,87	1279,98
620,06	1292,27
620,25	1253,36
620,44	1269,74
620,63	1251,31
620,82	1243,12
621,01	1279,98
621,20	1239,02
621,39	1269,74
621,59	1165,29
621,78	1263,60
621,97	1286,12
622,16	1345,52
622,35	1267,69
622,54	1261,55
622,73	1267,69
622,92	1298,41
623,11	1288,17
623,30	1226,73
623,49	1302,51
623,68	1292,27
623,88	1294,32
624,07	1241,07
624,26	1263,60
624,45	1249,26
624,64	1220,59
624,83	1261,55
625,02	1261,55
625,21	1310,70
625,40	1253,36
625,59	1304,56
625,78	1312,75
625,97	1275,88
626,16	1300,46
626,35	1300,46
626,54	1210,35
626,74	1277,93
626,93	1271,79
627,12	1216,49
627,31	1273,84
627,50	1267,69
627,69	1298,41
627,88	1282,03
628,07	1228,78
628,26	1236,97
628,45	1298,41
628,64	1214,45
628,83	1236,97
629,02	1298,41
629,21	1265,64
629,40	1208,30
629,59	1279,98
629,78	1247,21
629,97	1236,97
630,16	1263,60
630,35	1308,65
630,54	1363,95
630,73	1200,11
630,92	1290,22
631,11	1286,12
631,30	1316,84
631,49	1312,75
631,68	1306,60
631,87	1402,86
632,06	1413,10
632,25	1404,91
632,44	1458,15
632,63	1363,95
632,82	1357,80
633,01	1406,95
633,20	1419,24
633,39	1374,19
633,58	1388,52
633,77	1439,72
633,96	1495,02
634,15	1492,97
634,34	1691,62
634,53	1826,79
634,72	1607,66
634,91	1384,43
635,10	1476,59
635,29	1656,81
635,48	1869,80
635,67	1779,68
635,86	1718,25
636,05	1595,37
636,24	1595,37
636,43	1495,02
636,62	1427,43
636,81	1409,00
637,00	1413,10
637,19	1347,56
637,38	1320,94
637,57	1335,28
637,76	1279,98
637,95	1355,76
638,14	1241,07
638,33	1257,45
638,52	1308,65
638,71	1286,12
638,89	1314,80
639,08	1284,08
639,27	1253,36
639,46	1245,16
639,65	1282,03
639,84	1345,52
640,03	1279,98
640,22	1349,61
640,41	1200,11
640,60	1202,16
640,79	1331,18
640,98	1263,60
641,17	1292,27
641,36	1257,45
641,55	1216,49
641,74	1173,49
641,92	1284,08
642,11	1191,92
642,30	1361,90
642,49	1239,02
642,68	1298,41
642,87	1257,45
643,06	1318,89
643,25	1236,97
643,44	1255,40
643,63	1292,27
643,82	1312,75
644,00	1253,36
644,19	1241,07
644,38	1275,88
644,57	1310,70
644,76	1236,97
644,95	1210,35
645,14	1273,84
645,33	1351,66
645,52	1247,21
645,71	1265,64
645,89	1300,46
646,08	1259,50
646,27	1290,22
646,46	1230,83
646,65	1284,08
646,84	1269,74
647,03	1267,69
647,22	1202,16
647,40	1261,55
647,59	1290,22
647,78	1253,36
647,97	1284,08
648,16	1239,02
648,35	1353,71
648,54	1312,75
648,73	1312,75
648,91	1224,69
649,10	1331,18
649,29	1232,88
649,48	1325,04
649,67	1335,28
649,86	1300,46
650,05	1271,79
650,23	1255,40
650,42	1298,41
650,61	1308,65
650,80	1288,17
650,99	1275,88
651,18	1253,36
651,36	1255,40
651,55	1286,12
651,74	1228,78
651,93	1298,41
652,12	1210,35
652,31	1296,36
652,49	1292,27
652,68	1277,93
652,87	1206,25
653,06	1275,88
653,25	1265,64
653,44	1265,64
653,62	1271,79
653,81	1282,03
654,00	1284,08
654,19	1302,51
654,38	1331,18
654,56	1337,32
654,75	1302,51
654,94	1257,45
655,13	1222,64
655,32	1212,40
655,51	1230,83
655,69	1212,40
655,88	1302,51
656,07	1300,46
656,26	1286,12
656,45	1247,21
656,63	1251,31
656,82	1218,54
657,01	1261,55
657,20	1202,16
657,38	1249,26
657,57	1308,65
657,76	1241,07
657,95	1290,22
658,14	1263,60
658,32	1335,28
658,51	1236,97
658,70	1220,59
658,89	1331,18
659,08	1224,69
659,26	1243,12
659,45	1300,46
659,64	1273,84
659,83	1177,58
660,01	1273,84
660,20	1189,87
660,39	1257,45
660,58	1185,77
660,76	1298,41
660,95	1288,17
661,14	1320,94
661,33	1312,75
661,51	1257,45
661,70	1257,45
661,89	1314,80
662,08	1228,78
662,26	1247,21
662,45	1339,37
662,64	1255,40
662,83	1277,93
663,01	1300,46
663,20	1273,84
663,39	1247,21
663,58	1290,22
663,76	1255,40
663,95	1310,70
664,14	1220,59
664,32	1226,73
664,51	1296,36
664,70	1212,40
664,89	1329,13
665,07	1230,83
665,26	1308,65
665,45	1267,69
665,64	1232,88
665,82	1222,64
666,01	1292,27
666,20	1157,10
666,38	1294,32
666,57	1257,45
666,76	1255,40
666,95	1259,50
667,13	1230,83
667,32	1261,55
667,51	1290,22
667,69	1220,59
667,88	1261,55
668,07	1241,07
668,25	1208,30
668,44	1224,69
668,63	1271,79
668,81	1312,75
669,00	1292,27
669,19	1290,22
669,38	1296,36
669,56	1230,83
669,75	1241,07
669,94	1312,75
670,12	1298,41
670,31	1163,25
670,50	1200,11
670,68	1292,27
670,87	1232,88
671,06	1288,17
671,24	1265,64
671,43	1241,07
671,62	1261,55
671,80	1296,36
671,99	1306,60
672,18	1337,32
672,36	1234,93
672,55	1249,26
672,74	1236,97
672,92	1220,59
673,11	1259,50
673,29	1273,84
673,48	1247,21
673,67	1216,49
673,85	1220,59
674,04	1335,28
674,23	1304,56
674,41	1320,94
674,60	1257,45
674,79	1243,12
674,97	1239,02
675,16	1288,17
675,34	1241,07
675,53	1331,18
675,72	1359,85
675,90	1269,74
676,09	1243,12
676,28	1296,36
676,46	1298,41
676,65	1202,16
676,83	1241,07
677,02	1355,76
677,21	1327,08
677,39	1292,27
677,58	1345,52
677,77	1247,21
677,95	1232,88
678,14	1322,99
678,32	1322,99
678,51	1234,93
678,70	1243,12
678,88	1286,12
679,07	1265,64
679,25	1304,56
679,44	1314,80
679,63	1208,30
679,81	1241,07
680,00	1296,36
680,18	1191,92
680,37	1193,97
680,55	1314,80
680,74	1241,07
680,93	1314,80
681,11	1261,55
681,30	1363,95
681,48	1320,94
681,67	1314,80
681,85	1292,27
682,04	1249,26
682,23	1302,51
682,41	1273,84
682,60	1181,68
682,78	1279,98
682,97	1265,64
683,15	1286,12
683,34	1327,08
683,53	1239,02
683,71	1236,97
683,90	1273,84
684,08	1294,32
684,27	1226,73
684,45	1273,84
684,64	1224,69
684,82	1259,50
685,01	1236,97
685,19	1265,64
685,38	1251,31
685,57	1325,04
685,75	1222,64
685,94	1245,16
686,12	1273,84
686,31	1277,93
686,49	1249,26
686,68	1249,26
686,86	1288,17
687,05	1210,35
687,23	1308,65
687,42	1263,60
687,60	1261,55
687,79	1255,40
687,97	1210,35
688,16	1263,60
688,34	1306,60
688,53	1279,98
688,71	1236,97
688,90	1318,89
689,08	1257,45
689,27	1212,40
689,45	1228,78
689,64	1292,27
689,82	1314,80
690,01	1232,88
690,19	1306,60
690,38	1273,84
690,56	1236,97
690,75	1253,36
690,93	1269,74
691,12	1226,73
691,30	1269,74
691,49	1298,41
691,67	1372,14
691,86	1239,02
692,04	1284,08
692,23	1222,64
692,41	1320,94
692,60	1193,97
692,78	1320,94
692,97	1302,51
693,15	1232,88
693,34	1275,88
693,52	1312,75
693,71	1236,97
693,89	1251,31
694,08	1277,93
694,26	1200,11
694,44	1263,60
694,63	1275,88
694,81	1284,08
695,00	1302,51
695,18	1267,69
695,37	1265,64
695,55	1318,89
695,74	1277,93
695,92	1222,64
696,10	1232,88
696,29	1271,79
696,47	1265,64
696,66	1216,49
696,84	1253,36
697,03	1275,88
697,21	1288,17
697,40	1345,52
697,58	1359,85
697,76	1275,88
697,95	1247,21
698,13	1243,12
698,32	1200,11
698,50	1249,26
698,68	1343,47
698,87	1275,88
699,05	1249,26
699,24	1247,21
699,42	1226,73
699,61	1249,26
699,79	1251,31
699,97	1296,36
700,16	1370,09
700,34	1279,98
700,53	1243,12
700,71	1261,55
700,89	1275,88
701,08	1265,64
701,26	1255,40
701,45	1185,77
701,63	1220,59
701,81	1243,12
702,00	1306,60
702,18	1269,74
702,37	1310,70
702,55	1325,04
702,73	1232,88
702,92	1222,64
703,10	1185,77
703,28	1230,83
703,47	1265,64
703,65	1249,26
703,84	1320,94
704,02	1265,64
704,20	1290,22
704,39	1329,13
704,57	1241,07
704,75	1333,23
704,94	1169,39
705,12	1296,36
705,30	1288,17
705,49	1343,47
705,67	1284,08
705,86	1282,03
706,04	1316,84
706,22	1275,88
706,41	1255,40
706,59	1253,36
706,77	1251,31
706,96	1253,36
707,14	1228,78
707,32	1249,26
707,51	1298,41
707,69	1290,22
707,87	1331,18
708,06	1286,12
708,24	1189,87
708,42	1284,08
708,61	1312,75
708,79	1224,69
708,97	1310,70
709,16	1267,69
709,34	1320,94
709,52	1290,22
709,71	1265,64
709,89	1218,54
710,07	1241,07
710,26	1232,88
710,44	1247,21
710,62	1282,03
710,80	1337,32
710,99	1189,87
711,17	1322,99
711,35	1257,45
711,54	1290,22
711,72	1282,03
711,90	1228,78
712,09	1261,55
712,27	1331,18
712,45	1230,83
712,63	1277,93
712,82	1363,95
713,00	1271,79
713,18	1314,80
713,37	1271,79
713,55	1316,84
713,73	1273,84
713,91	1210,35
714,10	1259,50
714,28	1251,31
714,46	1275,88
714,65	1337,32
714,83	1181,68
715,01	1228,78
715,19	1269,74
715,38	1335,28
715,56	1282,03
715,74	1212,40
715,92	1265,64
716,11	1267,69
716,29	1263,60
716,47	1335,28
716,65	1239,02
716,84	1265,64
717,02	1333,23
717,20	1265,64
717,38	1331,18
717,57	1206,25
717,75	1314,80
717,93	1286,12
718,11	1333,23
718,30	1232,88
718,48	1380,33
718,66	1259,50
718,84	1308,65
719,03	1312,75
719,21	1302,51
719,39	1222,64
719,57	1267,69
719,75	1255,40
719,94	1261,55
720,12	1255,40
720,30	1374,19
720,48	1314,80
720,67	1234,93
720,85	1282,03
721,03	1273,84
721,21	1265,64
721,39	1298,41
721,58	1282,03
721,76	1331,18
721,94	1232,88
722,12	1259,50
722,30	1275,88
722,49	1263,60
722,67	1253,36
722,85	1294,32
723,03	1320,94
723,21	1208,30
723,40	1304,56
723,58	1292,27
723,76	1239,02
723,94	1261,55
724,12	1279,98
724,30	1333,23
724,49	1185,77
724,67	1273,84
724,85	1181,68
725,03	1232,88
725,21	1316,84
725,40	1236,97
725,58	1234,93
725,76	1249,26
725,94	1277,93
726,12	1279,98
726,30	1218,54
726,49	1253,36
726,67	1302,51
726,85	1337,32
727,03	1218,54
727,21	1275,88
727,39	1320,94
727,57	1290,22
727,76	1298,41
727,94	1300,46
728,12	1222,64
728,30	1322,99
728,48	1339,37
728,66	1308,65
728,84	1245,16
729,03	1251,31
729,21	1294,32
729,39	1308,65
729,57	1261,55
729,75	1255,40
729,93	1286,12
730,11	1251,31
730,30	1241,07
730,48	1224,69
730,66	1294,32
730,84	1308,65
731,02	1251,31
731,20	1279,98
731,38	1275,88
731,56	1302,51
731,74	1292,27
731,93	1232,88
732,11	1245,16
732,29	1208,30
732,47	1206,25
732,65	1249,26
732,83	1245,16
733,01	1306,60
733,19	1329,13
733,37	1292,27
733,56	1322,99
733,74	1320,94
733,92	1290,22
734,10	1312,75
734,28	1263,60
734,46	1239,02
734,64	1296,36
734,82	1296,36
735,00	1312,75
735,18	1318,89
735,36	1361,90
735,54	1304,56
735,73	1216,49
735,91	1263,60
736,09	1214,45
736,27	1214,45
736,45	1220,59
736,63	1232,88
736,81	1239,02
736,99	1325,04
737,17	1265,64
737,35	1210,35
737,53	1271,79
737,71	1284,08
737,89	1331,18
738,07	1265,64
738,25	1308,65
738,43	1251,31
738,61	1296,36
738,80	1312,75
738,98	1228,78
739,16	1290,22
739,34	1275,88
739,52	1200,11
739,70	1247,21
739,88	1271,79
740,06	1355,76
740,24	1265,64
740,42	1257,45
740,60	1226,73
740,78	1322,99
740,96	1251,31
741,14	1357,80
741,32	1220,59
741,50	1284,08
741,68	1269,74
741,86	1282,03
742,04	1245,16
742,22	1292,27
742,40	1314,80
742,58	1302,51
742,76	1318,89
742,94	1269,74
743,12	1335,28
743,30	1267,69
743,48	1267,69
743,66	1187,82
743,84	1374,19
744,02	1257,45
744,20	1286,12
744,38	1193,97
744,56	1257,45
744,74	1271,79
744,92	1239,02
745,10	1220,59
745,28	1247,21
745,46	1296,36
745,64	1253,36
745,82	1257,45
746,00	1286,12
746,18	1267,69
746,36	1257,45
746,54	1243,12
746,72	1208,30
746,90	1210,35
747,08	1290,22
747,26	1210,35
747,44	1312,75
747,62	1290,22
747,80	1241,07
747,98	1288,17
748,15	1257,45
748,33	1302,51
748,51	1302,51
748,69	1210,35
748,87	1230,83
749,05	1239,02
749,23	1212,40
749,41	1210,35
749,59	1318,89
749,77	1245,16
749,95	1329,13
750,13	1310,70
750,31	1331,18
750,49	1333,23
750,67	1273,84
750,85	1296,36
751,03	1279,98
751,20	1298,41
751,38	1253,36
751,56	1224,69
751,74	1314,80
751,92	1220,59
752,10	1239,02
752,28	1261,55
752,46	1335,28
752,64	1247,21
752,82	1257,45
753,00	1234,93
753,18	1279,98
753,35	1310,70
753,53	1298,41
753,71	1296,36
753,89	1251,31
754,07	1292,27
754,25	1234,93
754,43	1269,74
754,61	1210,35
754,79	1187,82
754,97	1310,70
755,14	1204,21
755,32	1273,84
755,50	1228,78
755,68	1228,78
755,86	1249,26
756,04	1241,07
756,22	1210,35
756,40	1214,45
756,57	1298,41
756,75	1345,52
756,93	1245,16
757,11	1241,07
757,29	1345,52
757,47	1253,36
757,65	1273,84
757,82	1273,84
758,00	1239,02
758,18	1259,50
758,36	1193,97
758,54	1273,84
758,72	1261,55
758,90	1263,60
759,07	1322,99
759,25	1265,64
759,43	1198,06
759,61	1196,01
759,79	1265,64
759,97	1243,12
760,15	1210,35
760,32	1361,90
760,50	1253,36
760,68	1316,84
760,86	1224,69
761,04	1339,37
761,22	1282,03
761,39	1255,40
761,57	1232,88
761,75	1239,02
761,93	1263,60
762,11	1257,45
762,28	1298,41
762,46	1284,08
762,64	1259,50
762,82	1331,18
763,00	1269,74
763,18	1327,08
763,35	1241,07
763,53	1249,26
763,71	1265,64
763,89	1212,40
764,07	1312,75
764,24	1318,89
764,42	1329,13
764,60	1288,17
764,78	1286,12
764,96	1263,60
765,13	1284,08
765,31	1288,17
765,49	1322,99
765,67	1200,11
765,84	1265,64
766,02	1304,56
766,20	1202,16
766,38	1255,40
766,56	1300,46
766,73	1351,66
766,91	1271,79
767,09	1318,89
767,27	1286,12
767,44	1247,21
767,62	1290,22
767,80	1239,02
767,98	1263,60
768,15	1312,75
768,33	1314,80
768,51	1247,21
768,69	1210,35
768,87	1290,22
769,04	1277,93
769,22	1366,00
769,40	1310,70
769,58	1294,32
769,75	1224,69
769,93	1284,08
770,11	1322,99
770,28	1257,45
770,46	1290,22
770,64	1300,46
770,82	1265,64
770,99	1216,49
771,17	1288,17
771,35	1306,60
771,53	1308,65
771,70	1288,17
771,88	1218,54
772,06	1239,02
772,23	1337,32
772,41	1265,64
772,59	1257,45
772,77	1300,46
772,94	1308,65
773,12	1222,64
773,30	1273,84
773,47	1312,75
773,65	1255,40
773,83	1234,93
774,01	1255,40
774,18	1173,49
774,36	1224,69
774,54	1279,98
774,71	1230,83
774,89	1208,30
775,07	1269,74
775,24	1300,46
775,42	1288,17
775,60	1269,74
775,78	1292,27
775,95	1214,45
776,13	1298,41
776,31	1322,99
776,48	1236,97
776,66	1263,60
776,84	1298,41
777,01	1257,45
777,19	1224,69
777,37	1279,98
777,54	1210,35
777,72	1282,03
777,90	1263,60
778,07	1212,40
778,25	1290,22
778,43	1282,03
778,60	1312,75
778,78	1318,89
778,96	1349,61
779,13	1269,74
779,31	1259,50
779,49	1275,88
779,66	1351,66
779,84	1261,55
780,01	1271,79
780,19	1259,50
780,37	1249,26
780,54	1275,88
780,72	1298,41
780,90	1259,50
781,07	1261,55
781,25	1224,69
781,43	1212,40
781,60	1279,98
781,78	1247,21
781,95	1267,69
782,13	1290,22
782,31	1228,78
782,48	1249,26
782,66	1228,78
782,83	1220,59
783,01	1214,45
783,19	1314,80
783,36	1277,93
783,54	1279,98
783,72	1232,88
783,89	1284,08
784,07	1269,74
784,24	1202,16
784,42	1251,31
784,60	1200,11
784,77	1304,56
784,95	1255,40
785,12	1353,71
785,30	1296,36
785,47	1300,46
785,65	1282,03
785,83	1257,45
786,00	1325,04
786,18	1204,21
786,35	1251,31
786,53	1296,36
786,71	1243,12
786,88	1263,60
787,06	1284,08
787,23	1329,13
787,41	1265,64
787,58	1249,26
787,76	1265,64
787,94	1271,79
788,11	1298,41
788,29	1273,84
788,46	1236,97
788,64	1312,75
788,81	1267,69
788,99	1273,84
789,16	1343,47
789,34	1232,88
789,52	1212,40
789,69	1222,64
789,87	1318,89
790,04	1331,18
790,22	1322,99
790,39	1294,32
790,57	1220,59
790,74	1318,89
790,92	1267,69
791,09	1304,56
791,27	1234,93
791,44	1290,22
791,62	1275,88
791,79	1343,47
791,97	1308,65
792,15	1259,50
792,32	1214,45
792,50	1298,41
792,67	1255,40
792,85	1339,37
793,02	1271,79
793,20	1282,03
793,37	1275,88
793,55	1275,88
793,72	1210,35
793,90	1286,12
794,07	1226,73
794,25	1300,46
794,42	1267,69
794,60	1230,83
794,77	1230,83
794,95	1320,94
795,12	1208,30
795,30	1296,36
795,47	1269,74
795,65	1308,65
795,82	1288,17
796,00	1263,60
796,17	1277,93
796,34	1298,41
796,52	1300,46
796,69	1269,74
796,87	1261,55
797,04	1265,64
797,22	1224,69
797,39	1269,74
797,57	1241,07
797,74	1331,18
797,92	1282,03
798,09	1230,83
798,27	1261,55
798,44	1226,73
798,62	1261,55
798,79	1304,56
798,96	1282,03
799,14	1300,46
799,31	1222,64
799,49	1318,89
799,66	1232,88
799,84	1269,74
800,01	1279,98
800,19	1273,84
800,36	1279,98
800,53	1234,93
800,71	1161,20
800,88	1286,12
801,06	1251,31
801,23	1312,75
801,41	1341,42
801,58	1257,45
801,75	1245,16
801,93	1247,21
802,10	1241,07
802,28	1267,69
802,45	1179,63
802,63	1292,27
802,80	1257,45
802,97	1257,45
803,15	1331,18
803,32	1310,70
803,50	1322,99
803,67	1230,83
803,84	1228,78
804,02	1296,36
804,19	1216,49
804,37	1284,08
804,54	1249,26
804,71	1241,07
804,89	1302,51
805,06	1300,46
805,24	1306,60
805,41	1333,23
805,58	1241,07
805,76	1306,60
805,93	1275,88
806,10	1335,28
806,28	1288,17
806,45	1335,28
806,63	1318,89
806,80	1286,12
806,97	1261,55
807,15	1273,84
807,32	1279,98
807,49	1310,70
807,67	1234,93
807,84	1249,26
808,01	1175,53
808,19	1320,94
808,36	1298,41
808,54	1298,41
808,71	1279,98
808,88	1290,22
809,06	1300,46
809,23	1378,28
809,40	1275,88
809,58	1325,04
809,75	1294,32
809,92	1290,22
810,10	1314,80
810,27	1294,32
810,44	1232,88
810,62	1292,27
810,79	1286,12
810,96	1265,64
811,14	1253,36
811,31	1269,74
811,48	1255,40
811,66	1261,55
811,83	1263,60
812,00	1302,51
812,18	1245,16
812,35	1273,84
812,52	1193,97
812,69	1279,98
812,87	1310,70
813,04	1267,69
813,21	1302,51
813,39	1378,28
813,56	1247,21
813,73	1327,08
813,91	1169,39
814,08	1279,98
814,25	1308,65
814,42	1339,37
814,60	1265,64
814,77	1249,26
814,94	1253,36
815,12	1298,41
815,29	1337,32
815,46	1220,59
815,63	1292,27
815,81	1337,32
815,98	1284,08
816,15	1288,17
816,33	1300,46
816,50	1253,36
816,67	1251,31
816,84	1232,88
817,02	1339,37
817,19	1304,56
817,36	1318,89
817,53	1366,00
817,71	1230,83
817,88	1316,84
818,05	1269,74
818,22	1366,00
818,40	1282,03
818,57	1318,89
818,74	1296,36
818,91	1255,40
819,09	1273,84
819,26	1243,12
819,43	1257,45
819,60	1288,17
819,78	1257,45
819,95	1318,89
820,12	1310,70
820,29	1314,80
820,47	1306,60
820,64	1294,32
820,81	1279,98
820,98	1241,07
821,15	1286,12
821,33	1329,13
821,50	1298,41
821,67	1259,50
821,84	1249,26
822,02	1261,55
822,19	1230,83
822,36	1292,27
822,53	1232,88
822,70	1255,40
822,88	1296,36
823,05	1312,75
823,22	1216,49
823,39	1263,60
823,56	1273,84
823,74	1226,73
823,91	1226,73
824,08	1288,17
824,25	1290,22
824,42	1298,41
824,60	1300,46
824,77	1269,74
824,94	1345,52
825,11	1236,97
825,28	1290,22
825,45	1329,13
825,63	1282,03
825,80	1179,63
825,97	1279,98
826,14	1329,13
826,31	1208,30
826,48	1339,37
826,66	1292,27
826,83	1222,64
827,00	1290,22
827,17	1224,69
827,34	1259,50
827,51	1247,21
827,69	1206,25
827,86	1335,28
828,03	1300,46
828,20	1275,88
828,37	1300,46
828,54	1265,64
828,71	1253,36
828,89	1241,07
829,06	1249,26
829,23	1239,02
829,40	1277,93
829,57	1245,16
829,74	1261,55
829,91	1249,26
830,09	1243,12
830,26	1243,12
830,43	1218,54
830,60	1269,74
830,77	1308,65
830,94	1193,97
831,11	1200,11
831,28	1236,97
831,46	1277,93
831,63	1286,12
831,80	1275,88
831,97	1329,13
832,14	1253,36
832,31	1308,65
832,48	1251,31
832,65	1263,60
832,82	1191,92
832,99	1263,60
833,17	1273,84
833,34	1333,23
833,51	1308,65
833,68	1224,69
833,85	1296,36
834,02	1333,23
834,19	1222,64
834,36	1279,98
834,53	1239,02
834,70	1273,84
834,87	1273,84
835,04	1345,52
835,22	1204,21
835,39	1216,49
835,56	1249,26
835,73	1241,07
835,90	1216,49
836,07	1216,49
836,24	1320,94
836,41	1239,02
836,58	1259,50
836,75	1275,88
836,92	1288,17
837,09	1263,60
837,26	1294,32
837,43	1290,22
837,60	1220,59
837,77	1269,74
837,94	1333,23
838,12	1294,32
838,29	1253,36
838,46	1279,98
838,63	1316,84
838,80	1279,98
838,97	1253,36
839,14	1288,17
839,31	1216,49
839,48	1277,93
839,65	1259,50
839,82	1245,16
839,99	1263,60
840,16	1286,12
840,33	1288,17
840,50	1290,22
840,67	1302,51
840,84	1204,21
841,01	1232,88
841,18	1255,40
841,35	1322,99
841,52	1157,10
841,69	1286,12
841,86	1290,22
842,03	1257,45
842,20	1267,69
842,37	1259,50
842,54	1308,65
842,71	1222,64
842,88	1267,69
843,05	1279,98
843,22	1308,65
843,39	1241,07
843,56	1257,45
843,73	1286,12
843,90	1292,27
844,07	1267,69
844,24	1243,12
844,41	1247,21
844,58	1277,93
844,75	1216,49
844,92	1380,33
845,09	1271,79
845,26	1271,79
845,43	1290,22
845,60	1269,74
845,77	1241,07
845,94	1304,56
846,10	1308,65
846,27	1322,99
846,44	1290,22
846,61	1232,88
846,78	1269,74
846,95	1310,70
847,12	1282,03
847,29	1286,12
847,46	1212,40
847,63	1300,46
847,80	1275,88
847,97	1273,84
848,14	1286,12
848,31	1218,54
848,48	1243,12
848,65	1271,79
848,82	1286,12
848,98	1226,73
849,15	1286,12
849,32	1230,83
849,49	1318,89
849,66	1314,80
849,83	1355,76
850,00	1282,03
850,17	1284,08
850,34	1329,13
850,51	1181,68
850,68	1261,55
850,85	1271,79
851,01	1347,56
851,18	1312,75
851,35	1210,35
851,52	1314,80
851,69	1288,17
851,86	1247,21
852,03	1269,74
852,20	1312,75
852,37	1290,22
852,53	1273,84
852,70	1255,40
852,87	1259,50
853,04	1304,56
853,21	1234,93
853,38	1247,21
853,55	1255,40
853,72	1232,88
853,89	1239,02
854,05	1288,17
854,22	1331,18
854,39	1294,32
854,56	1228,78
854,73	1279,98
854,90	1163,25
855,07	1325,04
855,23	1288,17
855,40	1251,31
855,57	1286,12
855,74	1265,64
855,91	1355,76
856,08	1241,07
856,25	1245,16
856,41	1208,30
856,58	1322,99
856,75	1269,74
856,92	1282,03
857,09	1241,07
857,26	1222,64
857,42	1341,42
857,59	1232,88
857,76	1249,26
857,93	1275,88
858,10	1241,07
858,27	1271,79
858,43	1228,78
858,60	1210,35
858,77	1298,41
858,94	1230,83
859,11	1245,16
859,27	1271,79
859,44	1257,45
859,61	1206,25
859,78	1271,79
859,95	1277,93
860,12	1284,08
860,28	1267,69
860,45	1335,28
860,62	1284,08
860,79	1300,46
860,95	1286,12
861,12	1220,59
861,29	1329,13
861,46	1234,93
861,63	1320,94
861,79	1308,65
861,96	1224,69
862,13	1267,69
862,30	1277,93
862,47	1230,83
862,63	1226,73
862,80	1208,30
862,97	1277,93
863,14	1292,27
863,30	1245,16
863,47	1257,45
863,64	1251,31
863,81	1267,69
863,97	1255,40
864,14	1271,79
864,31	1204,21
864,48	1331,18
864,65	1322,99
864,81	1234,93
864,98	1255,40
865,15	1265,64
865,32	1251,31
865,48	1255,40
865,65	1179,63
865,82	1263,60
865,98	1241,07
866,15	1288,17
866,32	1277,93
866,49	1296,36
866,65	1288,17
866,82	1265,64
866,99	1191,92
867,16	1294,32
867,32	1212,40
867,49	1296,36
867,66	1253,36
867,83	1279,98
867,99	1277,93
868,16	1329,13
868,33	1241,07
868,49	1290,22
868,66	1325,04
868,83	1269,74
868,99	1224,69
869,16	1224,69
869,33	1290,22
869,50	1257,45
869,66	1204,21
869,83	1318,89
870,00	1302,51
870,16	1273,84
870,33	1298,41
870,50	1294,32
870,66	1189,87
870,83	1273,84
871,00	1257,45
871,17	1284,08
871,33	1224,69
871,50	1177,58
871,67	1232,88
871,83	1234,93
872,00	1306,60
872,17	1232,88
872,33	1222,64
872,50	1269,74
872,67	1300,46
872,83	1282,03
873,00	1257,45
873,17	1290,22
873,33	1259,50
873,50	1218,54
873,67	1239,02
873,83	1372,14
874,00	1286,12
874,16	1275,88
874,33	1243,12
874,50	1255,40
874,66	1253,36
874,83	1331,18
875,00	1228,78
875,16	1271,79
875,33	1306,60
875,50	1232,88
875,66	1261,55
875,83	1277,93
875,99	1292,27
876,16	1259,50
876,33	1308,65
876,49	1216,49
876,66	1304,56
876,83	1331,18
876,99	1284,08
877,16	1320,94
877,32	1236,97
877,49	1296,36
877,66	1282,03
877,82	1253,36
877,99	1208,30
878,15	1333,23
878,32	1312,75
878,49	1288,17
878,65	1245,16
878,82	1273,84
878,98	1171,44
879,15	1314,80
879,32	1284,08
879,48	1302,51
879,65	1296,36
879,81	1282,03
879,98	1327,08
880,15	1202,16
880,31	1275,88
880,48	1269,74
880,64	1294,32
880,81	1275,88
880,97	1214,45
881,14	1292,27
881,31	1202,16
881,47	1269,74
881,64	1269,74
881,80	1241,07
881,97	1257,45
882,13	1249,26
882,30	1247,21
882,47	1284,08
882,63	1196,01
882,80	1208,30
882,96	1288,17
883,13	1275,88
883,29	1247,21
883,46	1314,80
883,62	1302,51
883,79	1302,51
883,95	1267,69
884,12	1232,88
884,29	1204,21
884,45	1300,46
884,62	1286,12
884,78	1234,93
884,95	1259,50
885,11	1269,74
885,28	1245,16
885,44	1318,89
885,61	1286,12
885,77	1308,65
885,94	1236,97
886,10	1302,51
886,27	1341,42
886,43	1294,32
886,60	1298,41
886,76	1196,01
886,93	1239,02
887,09	1282,03
887,26	1220,59
887,42	1208,30
887,59	1331,18
887,75	1298,41
887,92	1247,21
888,08	1265,64
888,25	1290,22
888,41	1322,99
888,58	1271,79
888,74	1200,11
888,91	1236,97
>>>>>End Processed Spectral Data<<<<<
