SpectraSuite Data File
++++++++++++++++++++++++++++++++++++
Date: Sun Apr 03 16:43:04 CEST 2016
User: root
Dark Spectrum Present: No
Reference Spectrum Present: No
Number of Sampled Component Spectra: 1
Spectrometers: USB4C02835
Integration Time (usec): 10000 (USB4C02835)
Spectra Averaged: 1 (USB4C02835)
Boxcar Smoothing: 0 (USB4C02835)
Correct for Electrical Dark: No (USB4C02835)
Strobe/Lamp Enabled: No (USB4C02835)
Correct for Detector Non-linearity: No (USB4C02835)
Correct for Stray Light: No (USB4C02835)
Number of Pixels in Processed Spectrum: 3648
>>>>>Begin Processed Spectral Data<<<<<
177,47	1284,08
177,69	1284,08
177,91	1284,08
178,13	1322,99
178,36	1273,84
178,58	1277,93
178,80	1294,32
179,02	1259,50
179,24	1292,27
179,46	1210,35
179,68	1273,84
179,90	1222,64
180,13	1275,88
180,35	1288,17
180,57	1267,69
180,79	1234,93
181,01	1329,13
181,23	1269,74
181,45	1290,22
181,67	1261,55
181,90	1310,70
182,12	1247,21
182,34	1198,06
182,56	1253,36
182,78	1247,21
183,00	1263,60
183,22	1300,46
183,44	1298,41
183,66	1292,27
183,89	1216,49
184,11	1243,12
184,33	1216,49
184,55	1304,56
184,77	1271,79
184,99	1300,46
185,21	1288,17
185,43	1335,28
185,65	1286,12
185,87	1286,12
186,10	1320,94
186,32	1325,04
186,54	1282,03
186,76	1290,22
186,98	1294,32
187,20	1247,21
187,42	1253,36
187,64	1241,07
187,86	1322,99
188,08	1241,07
188,30	1294,32
188,52	1282,03
188,75	1253,36
188,97	1228,78
189,19	1253,36
189,41	1314,80
189,63	1191,92
189,85	1263,60
190,07	1224,69
190,29	1222,64
190,51	1259,50
190,73	1243,12
190,95	1282,03
191,17	1193,97
191,39	1265,64
191,61	1191,92
191,84	1267,69
192,06	1249,26
192,28	1286,12
192,50	1290,22
192,72	1294,32
192,94	1204,21
193,16	1306,60
193,38	1275,88
193,60	1308,65
193,82	1304,56
194,04	1314,80
194,26	1261,55
194,48	1343,47
194,70	1271,79
194,92	1275,88
195,14	1357,80
195,36	1335,28
195,58	1304,56
195,80	1275,88
196,02	1239,02
196,24	1314,80
196,46	1267,69
196,69	1224,69
196,91	1263,60
197,13	1232,88
197,35	1294,32
197,57	1318,89
197,79	1349,61
198,01	1273,84
198,23	1282,03
198,45	1216,49
198,67	1290,22
198,89	1314,80
199,11	1314,80
199,33	1245,16
199,55	1245,16
199,77	1343,47
199,99	1253,36
200,21	1286,12
200,43	1288,17
200,65	1249,26
200,87	1298,41
201,09	1288,17
201,31	1302,51
201,53	1308,65
201,75	1269,74
201,97	1249,26
202,19	1269,74
202,41	1269,74
202,63	1372,14
202,85	1230,83
203,07	1216,49
203,29	1245,16
203,51	1284,08
203,73	1243,12
203,95	1239,02
204,17	1267,69
204,39	1312,75
204,61	1206,25
204,83	1200,11
205,05	1288,17
205,27	1286,12
205,49	1404,91
205,71	1189,87
205,93	1214,45
206,15	1249,26
206,37	1279,98
206,59	1271,79
206,81	1257,45
207,03	1300,46
207,25	1265,64
207,47	1359,85
207,69	1298,41
207,91	1277,93
208,13	1339,37
208,34	1310,70
208,56	1314,80
208,78	1273,84
209,00	1292,27
209,22	1282,03
209,44	1220,59
209,66	1232,88
209,88	1282,03
210,10	1290,22
210,32	1239,02
210,54	1349,61
210,76	1224,69
210,98	1320,94
211,20	1279,98
211,42	1259,50
211,64	1265,64
211,86	1196,01
212,08	1255,40
212,30	1253,36
212,52	1335,28
212,74	1271,79
212,96	1273,84
213,17	1265,64
213,39	1218,54
213,61	1245,16
213,83	1253,36
214,05	1296,36
214,27	1253,36
214,49	1290,22
214,71	1253,36
214,93	1290,22
215,15	1294,32
215,37	1273,84
215,59	1243,12
215,81	1245,16
216,03	1206,25
216,24	1349,61
216,46	1220,59
216,68	1339,37
216,90	1259,50
217,12	1277,93
217,34	1284,08
217,56	1329,13
217,78	1245,16
218,00	1269,74
218,22	1294,32
218,44	1228,78
218,66	1308,65
218,87	1212,40
219,09	1271,79
219,31	1247,21
219,53	1316,84
219,75	1265,64
219,97	1277,93
220,19	1249,26
220,41	1273,84
220,63	1314,80
220,85	1304,56
221,06	1290,22
221,28	1232,88
221,50	1288,17
221,72	1290,22
221,94	1261,55
222,16	1331,18
222,38	1212,40
222,60	1325,04
222,82	1228,78
223,03	1273,84
223,25	1308,65
223,47	1267,69
223,69	1241,07
223,91	1269,74
224,13	1220,59
224,35	1265,64
224,57	1257,45
224,78	1290,22
225,00	1277,93
225,22	1282,03
225,44	1230,83
225,66	1241,07
225,88	1273,84
226,10	1312,75
226,32	1320,94
226,53	1292,27
226,75	1290,22
226,97	1314,80
227,19	1290,22
227,41	1208,30
227,63	1277,93
227,85	1355,76
228,06	1234,93
228,28	1267,69
228,50	1253,36
228,72	1296,36
228,94	1298,41
229,16	1218,54
229,37	1294,32
229,59	1271,79
229,81	1226,73
230,03	1193,97
230,25	1292,27
230,47	1294,32
230,69	1271,79
230,90	1247,21
231,12	1269,74
231,34	1320,94
231,56	1243,12
231,78	1325,04
232,00	1265,64
232,21	1282,03
232,43	1249,26
232,65	1253,36
232,87	1296,36
233,09	1234,93
233,30	1210,35
233,52	1269,74
233,74	1222,64
233,96	1255,40
234,18	1269,74
234,40	1210,35
234,61	1310,70
234,83	1261,55
235,05	1239,02
235,27	1306,60
235,49	1335,28
235,70	1189,87
235,92	1314,80
236,14	1251,31
236,36	1204,21
236,58	1279,98
236,79	1331,18
237,01	1265,64
237,23	1183,73
237,45	1269,74
237,67	1273,84
237,88	1196,01
238,10	1314,80
238,32	1269,74
238,54	1191,92
238,76	1353,71
238,97	1357,80
239,19	1214,45
239,41	1279,98
239,63	1236,97
239,85	1290,22
240,06	1263,60
240,28	1206,25
240,50	1216,49
240,72	1230,83
240,93	1292,27
241,15	1308,65
241,37	1224,69
241,59	1288,17
241,81	1239,02
242,02	1304,56
242,24	1222,64
242,46	1302,51
242,68	1300,46
242,89	1296,36
243,11	1265,64
243,33	1236,97
243,55	1273,84
243,76	1261,55
243,98	1245,16
244,20	1298,41
244,42	1286,12
244,64	1320,94
244,85	1230,83
245,07	1286,12
245,29	1345,52
245,51	1214,45
245,72	1220,59
245,94	1259,50
246,16	1284,08
246,38	1247,21
246,59	1282,03
246,81	1220,59
247,03	1253,36
247,24	1290,22
247,46	1312,75
247,68	1282,03
247,90	1257,45
248,11	1288,17
248,33	1239,02
248,55	1239,02
248,77	1226,73
248,98	1249,26
249,20	1259,50
249,42	1267,69
249,64	1308,65
249,85	1234,93
250,07	1269,74
250,29	1271,79
250,50	1333,23
250,72	1208,30
250,94	1267,69
251,16	1322,99
251,37	1163,25
251,59	1357,80
251,81	1239,02
252,02	1282,03
252,24	1347,56
252,46	1357,80
252,68	1191,92
252,89	1300,46
253,11	1322,99
253,33	1304,56
253,54	1277,93
253,76	1337,32
253,98	1271,79
254,20	1224,69
254,41	1253,36
254,63	1286,12
254,85	1220,59
255,06	1290,22
255,28	1284,08
255,50	1222,64
255,71	1277,93
255,93	1302,51
256,15	1226,73
256,36	1257,45
256,58	1265,64
256,80	1269,74
257,02	1239,02
257,23	1261,55
257,45	1325,04
257,67	1249,26
257,88	1228,78
258,10	1206,25
258,32	1277,93
258,53	1259,50
258,75	1230,83
258,97	1257,45
259,18	1255,40
259,40	1202,16
259,62	1228,78
259,83	1298,41
260,05	1363,95
260,27	1322,99
260,48	1261,55
260,70	1376,24
260,92	1208,30
261,13	1282,03
261,35	1318,89
261,57	1191,92
261,78	1320,94
262,00	1269,74
262,22	1308,65
262,43	1200,11
262,65	1298,41
262,86	1294,32
263,08	1292,27
263,30	1306,60
263,51	1269,74
263,73	1327,08
263,95	1206,25
264,16	1249,26
264,38	1243,12
264,60	1286,12
264,81	1243,12
265,03	1265,64
265,25	1271,79
265,46	1241,07
265,68	1263,60
265,89	1269,74
266,11	1298,41
266,33	1335,28
266,54	1275,88
266,76	1251,31
266,98	1329,13
267,19	1257,45
267,41	1253,36
267,62	1239,02
267,84	1253,36
268,06	1282,03
268,27	1243,12
268,49	1288,17
268,70	1320,94
268,92	1306,60
269,14	1284,08
269,35	1239,02
269,57	1142,77
269,79	1257,45
270,00	1265,64
270,22	1306,60
270,43	1220,59
270,65	1243,12
270,87	1228,78
271,08	1249,26
271,30	1273,84
271,51	1249,26
271,73	1226,73
271,95	1310,70
272,16	1273,84
272,38	1282,03
272,59	1304,56
272,81	1206,25
273,02	1294,32
273,24	1263,60
273,46	1241,07
273,67	1327,08
273,89	1255,40
274,10	1298,41
274,32	1292,27
274,54	1329,13
274,75	1306,60
274,97	1331,18
275,18	1312,75
275,40	1271,79
275,61	1275,88
275,83	1247,21
276,05	1265,64
276,26	1345,52
276,48	1259,50
276,69	1306,60
276,91	1202,16
277,12	1210,35
277,34	1294,32
277,55	1261,55
277,77	1212,40
277,99	1347,56
278,20	1216,49
278,42	1206,25
278,63	1279,98
278,85	1232,88
279,06	1277,93
279,28	1245,16
279,49	1236,97
279,71	1325,04
279,93	1181,68
280,14	1245,16
280,36	1286,12
280,57	1302,51
280,79	1304,56
281,00	1275,88
281,22	1265,64
281,43	1271,79
281,65	1284,08
281,86	1286,12
282,08	1239,02
282,29	1263,60
282,51	1298,41
282,73	1265,64
282,94	1275,88
283,16	1308,65
283,37	1277,93
283,59	1286,12
283,80	1286,12
284,02	1273,84
284,23	1306,60
284,45	1277,93
284,66	1267,69
284,88	1300,46
285,09	1296,36
285,31	1327,08
285,52	1263,60
285,74	1361,90
285,95	1277,93
286,17	1230,83
286,38	1241,07
286,60	1247,21
286,81	1265,64
287,03	1243,12
287,24	1220,59
287,46	1257,45
287,67	1226,73
287,89	1239,02
288,10	1214,45
288,32	1275,88
288,53	1189,87
288,75	1261,55
288,96	1271,79
289,18	1253,36
289,39	1308,65
289,61	1271,79
289,82	1290,22
290,04	1318,89
290,25	1279,98
290,47	1304,56
290,68	1282,03
290,90	1245,16
291,11	1282,03
291,33	1298,41
291,54	1228,78
291,76	1263,60
291,97	1243,12
292,18	1257,45
292,40	1214,45
292,61	1292,27
292,83	1300,46
293,04	1263,60
293,26	1273,84
293,47	1284,08
293,69	1331,18
293,90	1271,79
294,12	1282,03
294,33	1259,50
294,55	1230,83
294,76	1292,27
294,97	1224,69
295,19	1290,22
295,40	1294,32
295,62	1306,60
295,83	1232,88
296,05	1290,22
296,26	1261,55
296,48	1294,32
296,69	1245,16
296,90	1304,56
297,12	1239,02
297,33	1267,69
297,55	1279,98
297,76	1269,74
297,98	1210,35
298,19	1253,36
298,41	1243,12
298,62	1271,79
298,83	1243,12
299,05	1286,12
299,26	1200,11
299,48	1243,12
299,69	1267,69
299,90	1267,69
300,12	1275,88
300,33	1259,50
300,55	1212,40
300,76	1327,08
300,98	1245,16
301,19	1271,79
301,40	1279,98
301,62	1249,26
301,83	1310,70
302,05	1269,74
302,26	1351,66
302,47	1353,71
302,69	1191,92
302,90	1265,64
303,12	1222,64
303,33	1286,12
303,54	1308,65
303,76	1298,41
303,97	1257,45
304,19	1247,21
304,40	1298,41
304,61	1296,36
304,83	1261,55
305,04	1222,64
305,26	1181,68
305,47	1302,51
305,68	1292,27
305,90	1298,41
306,11	1220,59
306,33	1181,68
306,54	1251,31
306,75	1302,51
306,97	1236,97
307,18	1247,21
307,39	1265,64
307,61	1279,98
307,82	1236,97
308,04	1263,60
308,25	1269,74
308,46	1253,36
308,68	1277,93
308,89	1335,28
309,10	1339,37
309,32	1277,93
309,53	1239,02
309,74	1236,97
309,96	1212,40
310,17	1288,17
310,39	1265,64
310,60	1386,47
310,81	1318,89
311,03	1284,08
311,24	1267,69
311,45	1288,17
311,67	1275,88
311,88	1259,50
312,09	1327,08
312,31	1279,98
312,52	1288,17
312,73	1259,50
312,95	1249,26
313,16	1255,40
313,37	1288,17
313,59	1239,02
313,80	1236,97
314,01	1298,41
314,23	1206,25
314,44	1316,84
314,65	1234,93
314,87	1288,17
315,08	1286,12
315,29	1249,26
315,51	1247,21
315,72	1329,13
315,93	1265,64
316,15	1241,07
316,36	1241,07
316,57	1314,80
316,79	1325,04
317,00	1251,31
317,21	1253,36
317,43	1288,17
317,64	1226,73
317,85	1228,78
318,07	1300,46
318,28	1273,84
318,49	1282,03
318,70	1269,74
318,92	1314,80
319,13	1316,84
319,34	1224,69
319,56	1265,64
319,77	1230,83
319,98	1251,31
320,20	1253,36
320,41	1196,01
320,62	1243,12
320,83	1306,60
321,05	1234,93
321,26	1234,93
321,47	1241,07
321,69	1292,27
321,90	1267,69
322,11	1282,03
322,32	1331,18
322,54	1302,51
322,75	1245,16
322,96	1312,75
323,18	1261,55
323,39	1189,87
323,60	1259,50
323,81	1300,46
324,03	1261,55
324,24	1288,17
324,45	1228,78
324,66	1302,51
324,88	1267,69
325,09	1259,50
325,30	1222,64
325,52	1310,70
325,73	1275,88
325,94	1222,64
326,15	1267,69
326,37	1226,73
326,58	1279,98
326,79	1286,12
327,00	1316,84
327,22	1257,45
327,43	1232,88
327,64	1267,69
327,85	1261,55
328,07	1249,26
328,28	1322,99
328,49	1210,35
328,70	1290,22
328,92	1267,69
329,13	1341,42
329,34	1294,32
329,55	1245,16
329,76	1310,70
329,98	1261,55
330,19	1288,17
330,40	1206,25
330,61	1279,98
330,83	1267,69
331,04	1306,60
331,25	1198,06
331,46	1265,64
331,68	1263,60
331,89	1245,16
332,10	1243,12
332,31	1292,27
332,52	1222,64
332,74	1290,22
332,95	1236,97
333,16	1294,32
333,37	1279,98
333,58	1257,45
333,80	1292,27
334,01	1279,98
334,22	1284,08
334,43	1298,41
334,64	1200,11
334,86	1347,56
335,07	1294,32
335,28	1216,49
335,49	1218,54
335,70	1230,83
335,92	1257,45
336,13	1253,36
336,34	1247,21
336,55	1245,16
336,76	1232,88
336,98	1263,60
337,19	1261,55
337,40	1185,77
337,61	1282,03
337,82	1320,94
338,04	1275,88
338,25	1298,41
338,46	1286,12
338,67	1214,45
338,88	1314,80
339,09	1226,73
339,31	1282,03
339,52	1271,79
339,73	1249,26
339,94	1218,54
340,15	1226,73
340,36	1290,22
340,58	1257,45
340,79	1277,93
341,00	1275,88
341,21	1247,21
341,42	1265,64
341,63	1275,88
341,85	1257,45
342,06	1279,98
342,27	1247,21
342,48	1228,78
342,69	1218,54
342,90	1288,17
343,12	1218,54
343,33	1267,69
343,54	1296,36
343,75	1257,45
343,96	1339,37
344,17	1288,17
344,38	1286,12
344,60	1200,11
344,81	1251,31
345,02	1218,54
345,23	1286,12
345,44	1263,60
345,65	1265,64
345,86	1288,17
346,07	1243,12
346,29	1273,84
346,50	1290,22
346,71	1282,03
346,92	1290,22
347,13	1282,03
347,34	1214,45
347,55	1216,49
347,76	1247,21
347,98	1257,45
348,19	1290,22
348,40	1284,08
348,61	1232,88
348,82	1232,88
349,03	1273,84
349,24	1302,51
349,45	1314,80
349,66	1232,88
349,88	1251,31
350,09	1284,08
350,30	1232,88
350,51	1269,74
350,72	1279,98
350,93	1245,16
351,14	1259,50
351,35	1257,45
351,56	1226,73
351,77	1314,80
351,99	1333,23
352,20	1331,18
352,41	1222,64
352,62	1286,12
352,83	1204,21
353,04	1261,55
353,25	1253,36
353,46	1345,52
353,67	1189,87
353,88	1263,60
354,09	1322,99
354,30	1296,36
354,52	1249,26
354,73	1292,27
354,94	1290,22
355,15	1282,03
355,36	1312,75
355,57	1269,74
355,78	1261,55
355,99	1257,45
356,20	1261,55
356,41	1275,88
356,62	1343,47
356,83	1269,74
357,04	1277,93
357,25	1306,60
357,46	1251,31
357,68	1265,64
357,89	1292,27
358,10	1267,69
358,31	1290,22
358,52	1220,59
358,73	1226,73
358,94	1327,08
359,15	1331,18
359,36	1279,98
359,57	1232,88
359,78	1279,98
359,99	1261,55
360,20	1208,30
360,41	1265,64
360,62	1298,41
360,83	1228,78
361,04	1249,26
361,25	1261,55
361,46	1259,50
361,67	1282,03
361,88	1288,17
362,09	1320,94
362,30	1241,07
362,51	1284,08
362,72	1269,74
362,93	1243,12
363,14	1368,04
363,35	1198,06
363,56	1259,50
363,78	1273,84
363,99	1245,16
364,20	1157,10
364,41	1282,03
364,62	1263,60
364,83	1247,21
365,04	1236,97
365,25	1279,98
365,46	1298,41
365,67	1204,21
365,88	1228,78
366,09	1269,74
366,30	1204,21
366,51	1279,98
366,72	1216,49
366,93	1255,40
367,14	1275,88
367,35	1245,16
367,56	1306,60
367,77	1226,73
367,98	1298,41
368,18	1347,56
368,39	1202,16
368,60	1216,49
368,81	1249,26
369,02	1214,45
369,23	1339,37
369,44	1263,60
369,65	1249,26
369,86	1288,17
370,07	1320,94
370,28	1290,22
370,49	1312,75
370,70	1269,74
370,91	1245,16
371,12	1296,36
371,33	1263,60
371,54	1226,73
371,75	1259,50
371,96	1269,74
372,17	1241,07
372,38	1273,84
372,59	1294,32
372,80	1339,37
373,01	1224,69
373,22	1290,22
373,43	1249,26
373,64	1255,40
373,85	1300,46
374,06	1335,28
374,26	1261,55
374,47	1296,36
374,68	1253,36
374,89	1228,78
375,10	1232,88
375,31	1269,74
375,52	1216,49
375,73	1304,56
375,94	1239,02
376,15	1196,01
376,36	1239,02
376,57	1249,26
376,78	1245,16
376,99	1269,74
377,20	1275,88
377,40	1318,89
377,61	1245,16
377,82	1263,60
378,03	1234,93
378,24	1329,13
378,45	1232,88
378,66	1341,42
378,87	1222,64
379,08	1271,79
379,29	1230,83
379,50	1271,79
379,71	1245,16
379,91	1181,68
380,12	1253,36
380,33	1361,90
380,54	1261,55
380,75	1325,04
380,96	1284,08
381,17	1300,46
381,38	1302,51
381,59	1286,12
381,80	1275,88
382,00	1271,79
382,21	1245,16
382,42	1269,74
382,63	1355,76
382,84	1261,55
383,05	1204,21
383,26	1200,11
383,47	1351,66
383,68	1241,07
383,88	1292,27
384,09	1230,83
384,30	1265,64
384,51	1329,13
384,72	1218,54
384,93	1296,36
385,14	1261,55
385,35	1245,16
385,55	1243,12
385,76	1222,64
385,97	1292,27
386,18	1249,26
386,39	1214,45
386,60	1329,13
386,81	1269,74
387,02	1241,07
387,22	1282,03
387,43	1308,65
387,64	1320,94
387,85	1265,64
388,06	1271,79
388,27	1224,69
388,48	1286,12
388,68	1255,40
388,89	1263,60
389,10	1335,28
389,31	1286,12
389,52	1255,40
389,73	1263,60
389,93	1306,60
390,14	1286,12
390,35	1279,98
390,56	1275,88
390,77	1304,56
390,98	1216,49
391,18	1261,55
391,39	1292,27
391,60	1282,03
391,81	1265,64
392,02	1202,16
392,23	1314,80
392,43	1271,79
392,64	1271,79
392,85	1241,07
393,06	1173,49
393,27	1310,70
393,47	1267,69
393,68	1257,45
393,89	1316,84
394,10	1290,22
394,31	1224,69
394,52	1236,97
394,72	1253,36
394,93	1214,45
395,14	1255,40
395,35	1314,80
395,56	1200,11
395,76	1327,08
395,97	1208,30
396,18	1228,78
396,39	1253,36
396,60	1290,22
396,80	1175,53
397,01	1212,40
397,22	1300,46
397,43	1341,42
397,64	1259,50
397,84	1294,32
398,05	1210,35
398,26	1243,12
398,47	1337,32
398,67	1257,45
398,88	1282,03
399,09	1271,79
399,30	1251,31
399,51	1310,70
399,71	1269,74
399,92	1230,83
400,13	1226,73
400,34	1214,45
400,54	1222,64
400,75	1304,56
400,96	1333,23
401,17	1306,60
401,37	1263,60
401,58	1312,75
401,79	1288,17
402,00	1265,64
402,21	1189,87
402,41	1286,12
402,62	1247,21
402,83	1314,80
403,04	1341,42
403,24	1271,79
403,45	1273,84
403,66	1247,21
403,87	1333,23
404,07	1239,02
404,28	1277,93
404,49	1282,03
404,70	1263,60
404,90	1253,36
405,11	1232,88
405,32	1245,16
405,52	1222,64
405,73	1298,41
405,94	1308,65
406,15	1232,88
406,35	1288,17
406,56	1298,41
406,77	1216,49
406,98	1247,21
407,18	1269,74
407,39	1230,83
407,60	1290,22
407,80	1257,45
408,01	1189,87
408,22	1263,60
408,43	1265,64
408,63	1298,41
408,84	1253,36
409,05	1306,60
409,25	1218,54
409,46	1198,06
409,67	1259,50
409,88	1249,26
410,08	1308,65
410,29	1294,32
410,50	1263,60
410,70	1345,52
410,91	1265,64
411,12	1251,31
411,32	1261,55
411,53	1304,56
411,74	1232,88
411,95	1277,93
412,15	1198,06
412,36	1255,40
412,57	1273,84
412,77	1220,59
412,98	1259,50
413,19	1292,27
413,39	1320,94
413,60	1279,98
413,81	1261,55
414,01	1288,17
414,22	1304,56
414,43	1210,35
414,63	1253,36
414,84	1245,16
415,05	1269,74
415,25	1269,74
415,46	1263,60
415,67	1322,99
415,87	1286,12
416,08	1216,49
416,29	1255,40
416,49	1302,51
416,70	1310,70
416,91	1357,80
417,11	1269,74
417,32	1275,88
417,53	1232,88
417,73	1275,88
417,94	1284,08
418,15	1239,02
418,35	1257,45
418,56	1359,85
418,77	1232,88
418,97	1343,47
419,18	1304,56
419,38	1251,31
419,59	1308,65
419,80	1306,60
420,00	1273,84
420,21	1300,46
420,42	1275,88
420,62	1241,07
420,83	1245,16
421,04	1224,69
421,24	1263,60
421,45	1206,25
421,65	1347,56
421,86	1294,32
422,07	1271,79
422,27	1300,46
422,48	1302,51
422,69	1347,56
422,89	1347,56
423,10	1271,79
423,30	1196,01
423,51	1241,07
423,72	1282,03
423,92	1206,25
424,13	1224,69
424,33	1239,02
424,54	1251,31
424,75	1210,35
424,95	1228,78
425,16	1298,41
425,36	1282,03
425,57	1257,45
425,78	1357,80
425,98	1275,88
426,19	1322,99
426,39	1284,08
426,60	1271,79
426,81	1249,26
427,01	1263,60
427,22	1202,16
427,42	1241,07
427,63	1214,45
427,83	1277,93
428,04	1259,50
428,25	1341,42
428,45	1318,89
428,66	1220,59
428,86	1269,74
429,07	1253,36
429,28	1304,56
429,48	1271,79
429,69	1275,88
429,89	1273,84
430,10	1320,94
430,30	1255,40
430,51	1312,75
430,71	1249,26
430,92	1251,31
431,13	1247,21
431,33	1249,26
431,54	1259,50
431,74	1214,45
431,95	1300,46
432,15	1308,65
432,36	1247,21
432,56	1282,03
432,77	1312,75
432,98	1294,32
433,18	1249,26
433,39	1279,98
433,59	1271,79
433,80	1206,25
434,00	1333,23
434,21	1290,22
434,41	1288,17
434,62	1325,04
434,82	1296,36
435,03	1253,36
435,23	1314,80
435,44	1269,74
435,64	1245,16
435,85	1292,27
436,06	1257,45
436,26	1318,89
436,47	1290,22
436,67	1200,11
436,88	1288,17
437,08	1200,11
437,29	1163,25
437,49	1275,88
437,70	1271,79
437,90	1265,64
438,11	1269,74
438,31	1255,40
438,52	1341,42
438,72	1341,42
438,93	1241,07
439,13	1243,12
439,34	1341,42
439,54	1306,60
439,75	1243,12
439,95	1292,27
440,16	1220,59
440,36	1298,41
440,57	1279,98
440,77	1292,27
440,98	1300,46
441,18	1337,32
441,39	1165,29
441,59	1224,69
441,80	1294,32
442,00	1243,12
442,21	1216,49
442,41	1351,66
442,62	1193,97
442,82	1269,74
443,02	1327,08
443,23	1296,36
443,43	1318,89
443,64	1343,47
443,84	1241,07
444,05	1302,51
444,25	1282,03
444,46	1243,12
444,66	1218,54
444,87	1232,88
445,07	1232,88
445,28	1239,02
445,48	1318,89
445,69	1241,07
445,89	1296,36
446,09	1265,64
446,30	1316,84
446,50	1220,59
446,71	1222,64
446,91	1318,89
447,12	1312,75
447,32	1251,31
447,53	1222,64
447,73	1220,59
447,93	1226,73
448,14	1300,46
448,34	1294,32
448,55	1224,69
448,75	1284,08
448,96	1286,12
449,16	1206,25
449,36	1251,31
449,57	1282,03
449,77	1312,75
449,98	1212,40
450,18	1251,31
450,39	1196,01
450,59	1251,31
450,79	1239,02
451,00	1263,60
451,20	1226,73
451,41	1206,25
451,61	1239,02
451,81	1288,17
452,02	1239,02
452,22	1257,45
452,43	1234,93
452,63	1198,06
452,84	1216,49
453,04	1228,78
453,24	1298,41
453,45	1253,36
453,65	1261,55
453,86	1273,84
454,06	1247,21
454,26	1292,27
454,47	1226,73
454,67	1251,31
454,87	1265,64
455,08	1302,51
455,28	1249,26
455,49	1189,87
455,69	1257,45
455,89	1249,26
456,10	1261,55
456,30	1288,17
456,51	1236,97
456,71	1345,52
456,91	1341,42
457,12	1218,54
457,32	1245,16
457,52	1298,41
457,73	1257,45
457,93	1243,12
458,14	1249,26
458,34	1273,84
458,54	1267,69
458,75	1265,64
458,95	1275,88
459,15	1208,30
459,36	1239,02
459,56	1310,70
459,76	1198,06
459,97	1288,17
460,17	1310,70
460,37	1286,12
460,58	1310,70
460,78	1312,75
460,99	1288,17
461,19	1259,50
461,39	1261,55
461,60	1273,84
461,80	1327,08
462,00	1265,64
462,21	1310,70
462,41	1247,21
462,61	1214,45
462,82	1241,07
463,02	1236,97
463,22	1304,56
463,43	1345,52
463,63	1316,84
463,83	1234,93
464,04	1259,50
464,24	1316,84
464,44	1302,51
464,64	1310,70
464,85	1241,07
465,05	1261,55
465,25	1298,41
465,46	1216,49
465,66	1210,35
465,86	1241,07
466,07	1318,89
466,27	1222,64
466,47	1284,08
466,68	1249,26
466,88	1316,84
467,08	1310,70
467,29	1298,41
467,49	1279,98
467,69	1193,97
467,89	1279,98
468,10	1322,99
468,30	1206,25
468,50	1314,80
468,71	1282,03
468,91	1271,79
469,11	1300,46
469,31	1271,79
469,52	1239,02
469,72	1310,70
469,92	1351,66
470,13	1277,93
470,33	1273,84
470,53	1322,99
470,73	1290,22
470,94	1261,55
471,14	1212,40
471,34	1335,28
471,54	1312,75
471,75	1255,40
471,95	1247,21
472,15	1296,36
472,36	1265,64
472,56	1306,60
472,76	1208,30
472,96	1284,08
473,17	1181,68
473,37	1198,06
473,57	1263,60
473,77	1257,45
473,98	1298,41
474,18	1279,98
474,38	1204,21
474,58	1253,36
474,79	1296,36
474,99	1271,79
475,19	1308,65
475,39	1269,74
475,60	1251,31
475,80	1271,79
476,00	1245,16
476,20	1243,12
476,41	1316,84
476,61	1314,80
476,81	1296,36
477,01	1228,78
477,21	1275,88
477,42	1343,47
477,62	1294,32
477,82	1247,21
478,02	1249,26
478,23	1257,45
478,43	1230,83
478,63	1277,93
478,83	1247,21
479,03	1263,60
479,24	1230,83
479,44	1241,07
479,64	1181,68
479,84	1263,60
480,04	1249,26
480,25	1196,01
480,45	1298,41
480,65	1284,08
480,85	1228,78
481,06	1282,03
481,26	1306,60
481,46	1236,97
481,66	1271,79
481,86	1206,25
482,06	1277,93
482,27	1202,16
482,47	1290,22
482,67	1241,07
482,87	1228,78
483,07	1329,13
483,28	1363,95
483,48	1253,36
483,68	1282,03
483,88	1269,74
484,08	1249,26
484,29	1245,16
484,49	1218,54
484,69	1271,79
484,89	1247,21
485,09	1353,71
485,29	1310,70
485,50	1306,60
485,70	1314,80
485,90	1247,21
486,10	1232,88
486,30	1255,40
486,50	1300,46
486,71	1302,51
486,91	1347,56
487,11	1282,03
487,31	1316,84
487,51	1269,74
487,71	1298,41
487,91	1251,31
488,12	1173,49
488,32	1208,30
488,52	1318,89
488,72	1318,89
488,92	1314,80
489,12	1253,36
489,32	1230,83
489,53	1273,84
489,73	1298,41
489,93	1327,08
490,13	1263,60
490,33	1284,08
490,53	1294,32
490,73	1245,16
490,94	1284,08
491,14	1277,93
491,34	1304,56
491,54	1288,17
491,74	1249,26
491,94	1304,56
492,14	1314,80
492,34	1316,84
492,54	1224,69
492,75	1228,78
492,95	1279,98
493,15	1304,56
493,35	1300,46
493,55	1208,30
493,75	1196,01
493,95	1255,40
494,15	1251,31
494,35	1263,60
494,56	1167,34
494,76	1302,51
494,96	1284,08
495,16	1261,55
495,36	1282,03
495,56	1226,73
495,76	1271,79
495,96	1255,40
496,16	1243,12
496,36	1304,56
496,56	1322,99
496,77	1335,28
496,97	1239,02
497,17	1208,30
497,37	1269,74
497,57	1333,23
497,77	1257,45
497,97	1191,92
498,17	1243,12
498,37	1241,07
498,57	1320,94
498,77	1294,32
498,97	1320,94
499,17	1251,31
499,38	1220,59
499,58	1267,69
499,78	1316,84
499,98	1282,03
500,18	1204,21
500,38	1282,03
500,58	1314,80
500,78	1263,60
500,98	1191,92
501,18	1271,79
501,38	1296,36
501,58	1335,28
501,78	1314,80
501,98	1247,21
502,18	1224,69
502,38	1196,01
502,58	1288,17
502,78	1216,49
502,98	1255,40
503,18	1284,08
503,38	1257,45
503,59	1251,31
503,79	1325,04
503,99	1284,08
504,19	1304,56
504,39	1298,41
504,59	1259,50
504,79	1273,84
504,99	1253,36
505,19	1249,26
505,39	1269,74
505,59	1292,27
505,79	1286,12
505,99	1337,32
506,19	1230,83
506,39	1290,22
506,59	1216,49
506,79	1261,55
506,99	1292,27
507,19	1216,49
507,39	1322,99
507,59	1265,64
507,79	1304,56
507,99	1220,59
508,19	1204,21
508,39	1318,89
508,59	1218,54
508,79	1282,03
508,99	1214,45
509,19	1288,17
509,39	1318,89
509,59	1304,56
509,79	1259,50
509,99	1253,36
510,19	1275,88
510,39	1234,93
510,59	1239,02
510,79	1189,87
510,99	1239,02
511,19	1191,92
511,39	1271,79
511,59	1312,75
511,79	1282,03
511,99	1224,69
512,19	1245,16
512,38	1200,11
512,58	1314,80
512,78	1257,45
512,98	1282,03
513,18	1306,60
513,38	1247,21
513,58	1353,71
513,78	1243,12
513,98	1300,46
514,18	1292,27
514,38	1286,12
514,58	1255,40
514,78	1288,17
514,98	1261,55
515,18	1239,02
515,38	1193,97
515,58	1208,30
515,78	1206,25
515,98	1290,22
516,18	1308,65
516,38	1333,23
516,57	1333,23
516,77	1241,07
516,97	1314,80
517,17	1320,94
517,37	1202,16
517,57	1265,64
517,77	1286,12
517,97	1329,13
518,17	1271,79
518,37	1261,55
518,57	1257,45
518,77	1327,08
518,97	1228,78
519,16	1337,32
519,36	1185,77
519,56	1282,03
519,76	1302,51
519,96	1271,79
520,16	1255,40
520,36	1261,55
520,56	1273,84
520,76	1300,46
520,96	1224,69
521,16	1263,60
521,35	1200,11
521,55	1294,32
521,75	1273,84
521,95	1259,50
522,15	1288,17
522,35	1230,83
522,55	1271,79
522,75	1255,40
522,95	1267,69
523,14	1198,06
523,34	1236,97
523,54	1243,12
523,74	1290,22
523,94	1363,95
524,14	1224,69
524,34	1292,27
524,54	1286,12
524,73	1249,26
524,93	1286,12
525,13	1214,45
525,33	1277,93
525,53	1267,69
525,73	1259,50
525,93	1265,64
526,13	1265,64
526,32	1277,93
526,52	1277,93
526,72	1267,69
526,92	1226,73
527,12	1191,92
527,32	1265,64
527,52	1298,41
527,71	1284,08
527,91	1327,08
528,11	1251,31
528,31	1314,80
528,51	1296,36
528,71	1310,70
528,90	1290,22
529,10	1255,40
529,30	1284,08
529,50	1331,18
529,70	1306,60
529,90	1327,08
530,09	1228,78
530,29	1294,32
530,49	1275,88
530,69	1316,84
530,89	1265,64
531,09	1275,88
531,28	1300,46
531,48	1294,32
531,68	1269,74
531,88	1312,75
532,08	1288,17
532,28	1269,74
532,47	1380,33
532,67	1282,03
532,87	1247,21
533,07	1239,02
533,27	1294,32
533,46	1263,60
533,66	1193,97
533,86	1269,74
534,06	1253,36
534,26	1335,28
534,45	1157,10
534,65	1232,88
534,85	1277,93
535,05	1273,84
535,25	1290,22
535,44	1200,11
535,64	1257,45
535,84	1277,93
536,04	1253,36
536,24	1275,88
536,43	1257,45
536,63	1304,56
536,83	1277,93
537,03	1224,69
537,22	1236,97
537,42	1183,73
537,62	1284,08
537,82	1279,98
538,02	1271,79
538,21	1222,64
538,41	1339,37
538,61	1220,59
538,81	1228,78
539,00	1255,40
539,20	1304,56
539,40	1173,49
539,60	1298,41
539,79	1282,03
539,99	1234,93
540,19	1288,17
540,39	1230,83
540,58	1286,12
540,78	1261,55
540,98	1312,75
541,18	1261,55
541,37	1298,41
541,57	1275,88
541,77	1284,08
541,97	1257,45
542,16	1226,73
542,36	1271,79
542,56	1269,74
542,76	1257,45
542,95	1294,32
543,15	1269,74
543,35	1249,26
543,54	1236,97
543,74	1243,12
543,94	1284,08
544,14	1259,50
544,33	1234,93
544,53	1251,31
544,73	1249,26
544,93	1247,21
545,12	1308,65
545,32	1267,69
545,52	1288,17
545,71	1339,37
545,91	1226,73
546,11	1314,80
546,30	1259,50
546,50	1253,36
546,70	1282,03
546,90	1241,07
547,09	1302,51
547,29	1282,03
547,49	1212,40
547,68	1271,79
547,88	1316,84
548,08	1271,79
548,27	1353,71
548,47	1224,69
548,67	1290,22
548,87	1216,49
549,06	1292,27
549,26	1337,32
549,46	1261,55
549,65	1245,16
549,85	1243,12
550,05	1249,26
550,24	1253,36
550,44	1374,19
550,64	1187,82
550,83	1282,03
551,03	1306,60
551,23	1243,12
551,42	1257,45
551,62	1282,03
551,82	1269,74
552,01	1275,88
552,21	1288,17
552,41	1226,73
552,60	1245,16
552,80	1306,60
553,00	1241,07
553,19	1230,83
553,39	1200,11
553,59	1288,17
553,78	1249,26
553,98	1265,64
554,17	1316,84
554,37	1294,32
554,57	1337,32
554,76	1275,88
554,96	1290,22
555,16	1181,68
555,35	1292,27
555,55	1267,69
555,75	1216,49
555,94	1314,80
556,14	1236,97
556,33	1337,32
556,53	1224,69
556,73	1239,02
556,92	1257,45
557,12	1263,60
557,32	1310,70
557,51	1259,50
557,71	1239,02
557,90	1255,40
558,10	1282,03
558,30	1271,79
558,49	1249,26
558,69	1339,37
558,88	1239,02
559,08	1279,98
559,28	1236,97
559,47	1234,93
559,67	1271,79
559,86	1288,17
560,06	1331,18
560,26	1290,22
560,45	1253,36
560,65	1271,79
560,84	1308,65
561,04	1249,26
561,24	1239,02
561,43	1306,60
561,63	1263,60
561,82	1239,02
562,02	1267,69
562,22	1208,30
562,41	1261,55
562,61	1265,64
562,80	1267,69
563,00	1241,07
563,19	1261,55
563,39	1265,64
563,59	1245,16
563,78	1279,98
563,98	1232,88
564,17	1200,11
564,37	1236,97
564,56	1241,07
564,76	1212,40
564,96	1296,36
565,15	1236,97
565,35	1216,49
565,54	1236,97
565,74	1343,47
565,93	1263,60
566,13	1314,80
566,32	1294,32
566,52	1210,35
566,71	1271,79
566,91	1243,12
567,11	1273,84
567,30	1232,88
567,50	1302,51
567,69	1282,03
567,89	1265,64
568,08	1224,69
568,28	1253,36
568,47	1296,36
568,67	1302,51
568,86	1290,22
569,06	1193,97
569,25	1294,32
569,45	1245,16
569,64	1347,56
569,84	1216,49
570,04	1275,88
570,23	1288,17
570,43	1288,17
570,62	1304,56
570,82	1249,26
571,01	1310,70
571,21	1239,02
571,40	1351,66
571,60	1327,08
571,79	1304,56
571,99	1265,64
572,18	1310,70
572,38	1273,84
572,57	1259,50
572,77	1253,36
572,96	1261,55
573,16	1241,07
573,35	1333,23
573,55	1337,32
573,74	1265,64
573,94	1271,79
574,13	1226,73
574,33	1234,93
574,52	1236,97
574,71	1220,59
574,91	1220,59
575,10	1259,50
575,30	1269,74
575,49	1337,32
575,69	1284,08
575,88	1249,26
576,08	1294,32
576,27	1267,69
576,47	1257,45
576,66	1290,22
576,86	1286,12
577,05	1261,55
577,25	1339,37
577,44	1277,93
577,64	1214,45
577,83	1257,45
578,02	1306,60
578,22	1296,36
578,41	1284,08
578,61	1236,97
578,80	1304,56
579,00	1279,98
579,19	1249,26
579,39	1263,60
579,58	1236,97
579,77	1282,03
579,97	1241,07
580,16	1273,84
580,36	1216,49
580,55	1210,35
580,75	1230,83
580,94	1284,08
581,13	1363,95
581,33	1253,36
581,52	1298,41
581,72	1316,84
581,91	1257,45
582,11	1314,80
582,30	1282,03
582,49	1310,70
582,69	1277,93
582,88	1269,74
583,08	1288,17
583,27	1282,03
583,47	1230,83
583,66	1214,45
583,85	1210,35
584,05	1318,89
584,24	1279,98
584,44	1224,69
584,63	1243,12
584,82	1261,55
585,02	1245,16
585,21	1318,89
585,41	1187,82
585,60	1222,64
585,79	1267,69
585,99	1284,08
586,18	1261,55
586,37	1196,01
586,57	1298,41
586,76	1322,99
586,96	1284,08
587,15	1345,52
587,34	1251,31
587,54	1304,56
587,73	1249,26
587,93	1239,02
588,12	1234,93
588,31	1296,36
588,51	1310,70
588,70	1288,17
588,89	1257,45
589,09	1230,83
589,28	1288,17
589,47	1226,73
589,67	1245,16
589,86	1257,45
590,06	1185,77
590,25	1312,75
590,44	1243,12
590,64	1241,07
590,83	1300,46
591,02	1308,65
591,22	1286,12
591,41	1202,16
591,60	1255,40
591,80	1296,36
591,99	1359,85
592,18	1275,88
592,38	1267,69
592,57	1318,89
592,76	1232,88
592,96	1245,16
593,15	1265,64
593,34	1294,32
593,54	1273,84
593,73	1277,93
593,92	1269,74
594,12	1306,60
594,31	1257,45
594,50	1232,88
594,70	1282,03
594,89	1294,32
595,08	1261,55
595,28	1275,88
595,47	1325,04
595,66	1241,07
595,86	1261,55
596,05	1269,74
596,24	1243,12
596,43	1257,45
596,63	1300,46
596,82	1337,32
597,01	1277,93
597,21	1218,54
597,40	1247,21
597,59	1226,73
597,79	1234,93
597,98	1275,88
598,17	1222,64
598,36	1339,37
598,56	1310,70
598,75	1259,50
598,94	1290,22
599,14	1271,79
599,33	1277,93
599,52	1273,84
599,71	1236,97
599,91	1288,17
600,10	1306,60
600,29	1292,27
600,48	1302,51
600,68	1316,84
600,87	1234,93
601,06	1263,60
601,26	1292,27
601,45	1269,74
601,64	1279,98
601,83	1220,59
602,03	1212,40
602,22	1208,30
602,41	1294,32
602,60	1296,36
602,80	1271,79
602,99	1226,73
603,18	1243,12
603,37	1322,99
603,57	1214,45
603,76	1234,93
603,95	1234,93
604,14	1263,60
604,34	1232,88
604,53	1251,31
604,72	1265,64
604,91	1234,93
605,10	1294,32
605,30	1220,59
605,49	1310,70
605,68	1320,94
605,87	1302,51
606,07	1257,45
606,26	1320,94
606,45	1265,64
606,64	1304,56
606,84	1243,12
607,03	1290,22
607,22	1304,56
607,41	1224,69
607,60	1257,45
607,80	1277,93
607,99	1282,03
608,18	1214,45
608,37	1273,84
608,56	1292,27
608,76	1273,84
608,95	1306,60
609,14	1251,31
609,33	1196,01
609,52	1347,56
609,72	1327,08
609,91	1269,74
610,10	1308,65
610,29	1277,93
610,48	1255,40
610,68	1230,83
610,87	1241,07
611,06	1339,37
611,25	1222,64
611,44	1325,04
611,63	1271,79
611,83	1298,41
612,02	1304,56
612,21	1337,32
612,40	1265,64
612,59	1255,40
612,79	1265,64
612,98	1208,30
613,17	1304,56
613,36	1284,08
613,55	1294,32
613,74	1300,46
613,93	1204,21
614,13	1294,32
614,32	1251,31
614,51	1296,36
614,70	1267,69
614,89	1300,46
615,08	1267,69
615,28	1241,07
615,47	1294,32
615,66	1314,80
615,85	1300,46
616,04	1191,92
616,23	1183,73
616,42	1224,69
616,62	1304,56
616,81	1259,50
617,00	1286,12
617,19	1263,60
617,38	1357,80
617,57	1288,17
617,76	1298,41
617,95	1339,37
618,15	1322,99
618,34	1257,45
618,53	1222,64
618,72	1282,03
618,91	1236,97
619,10	1284,08
619,29	1292,27
619,48	1185,77
619,68	1308,65
619,87	1306,60
620,06	1208,30
620,25	1316,84
620,44	1255,40
620,63	1247,21
620,82	1259,50
621,01	1294,32
621,20	1333,23
621,39	1302,51
621,59	1292,27
621,78	1228,78
621,97	1312,75
622,16	1255,40
622,35	1351,66
622,54	1314,80
622,73	1277,93
622,92	1292,27
623,11	1245,16
623,30	1300,46
623,49	1255,40
623,68	1306,60
623,88	1253,36
624,07	1322,99
624,26	1296,36
624,45	1308,65
624,64	1241,07
624,83	1306,60
625,02	1282,03
625,21	1275,88
625,40	1288,17
625,59	1286,12
625,78	1282,03
625,97	1288,17
626,16	1265,64
626,35	1259,50
626,54	1335,28
626,74	1310,70
626,93	1218,54
627,12	1241,07
627,31	1325,04
627,50	1339,37
627,69	1263,60
627,88	1212,40
628,07	1316,84
628,26	1333,23
628,45	1261,55
628,64	1279,98
628,83	1286,12
629,02	1273,84
629,21	1304,56
629,40	1304,56
629,59	1306,60
629,78	1228,78
629,97	1249,26
630,16	1271,79
630,35	1314,80
630,54	1331,18
630,73	1333,23
630,92	1279,98
631,11	1304,56
631,30	1314,80
631,49	1318,89
631,68	1314,80
631,87	1482,73
632,06	1452,01
632,25	1417,19
632,44	1443,82
632,63	1355,76
632,82	1499,11
633,01	1398,76
633,20	1452,01
633,39	1421,29
633,58	1501,16
633,77	1380,33
633,96	1499,11
634,15	1400,81
634,34	1472,49
634,53	1443,82
634,72	1437,67
634,91	1456,11
635,10	1413,10
635,29	1445,87
635,48	1472,49
635,67	1386,47
635,86	1413,10
636,05	1509,35
636,24	1527,78
636,43	1505,26
636,62	1421,29
636,81	1349,61
637,00	1351,66
637,19	1370,09
637,38	1396,71
637,57	1384,43
637,76	1320,94
637,95	1298,41
638,14	1400,81
638,33	1294,32
638,52	1230,83
638,71	1279,98
638,89	1265,64
639,08	1239,02
639,27	1282,03
639,46	1343,47
639,65	1273,84
639,84	1265,64
640,03	1218,54
640,22	1257,45
640,41	1314,80
640,60	1292,27
640,79	1245,16
640,98	1294,32
641,17	1263,60
641,36	1267,69
641,55	1263,60
641,74	1306,60
641,92	1322,99
642,11	1255,40
642,30	1282,03
642,49	1288,17
642,68	1206,25
642,87	1243,12
643,06	1234,93
643,25	1343,47
643,44	1306,60
643,63	1245,16
643,82	1255,40
644,00	1302,51
644,19	1320,94
644,38	1325,04
644,57	1325,04
644,76	1277,93
644,95	1249,26
645,14	1306,60
645,33	1263,60
645,52	1322,99
645,71	1300,46
645,89	1337,32
646,08	1277,93
646,27	1255,40
646,46	1191,92
646,65	1265,64
646,84	1314,80
647,03	1318,89
647,22	1337,32
647,40	1284,08
647,59	1249,26
647,78	1257,45
647,97	1275,88
648,16	1218,54
648,35	1302,51
648,54	1216,49
648,73	1279,98
648,91	1320,94
649,10	1294,32
649,29	1239,02
649,48	1292,27
649,67	1294,32
649,86	1243,12
650,05	1273,84
650,23	1298,41
650,42	1288,17
650,61	1259,50
650,80	1282,03
650,99	1341,42
651,18	1230,83
651,36	1210,35
651,55	1251,31
651,74	1234,93
651,93	1249,26
652,12	1224,69
652,31	1202,16
652,49	1271,79
652,68	1331,18
652,87	1331,18
653,06	1198,06
653,25	1261,55
653,44	1208,30
653,62	1316,84
653,81	1253,36
654,00	1292,27
654,19	1310,70
654,38	1286,12
654,56	1263,60
654,75	1251,31
654,94	1304,56
655,13	1236,97
655,32	1236,97
655,51	1318,89
655,69	1308,65
655,88	1304,56
656,07	1325,04
656,26	1327,08
656,45	1239,02
656,63	1263,60
656,82	1214,45
657,01	1253,36
657,20	1271,79
657,38	1298,41
657,57	1286,12
657,76	1290,22
657,95	1175,53
658,14	1288,17
658,32	1191,92
658,51	1257,45
658,70	1314,80
658,89	1329,13
659,08	1288,17
659,26	1212,40
659,45	1290,22
659,64	1255,40
659,83	1314,80
660,01	1282,03
660,20	1189,87
660,39	1296,36
660,58	1288,17
660,76	1273,84
660,95	1267,69
661,14	1355,76
661,33	1255,40
661,51	1263,60
661,70	1255,40
661,89	1224,69
662,08	1232,88
662,26	1271,79
662,45	1210,35
662,64	1296,36
662,83	1257,45
663,01	1243,12
663,20	1230,83
663,39	1241,07
663,58	1257,45
663,76	1292,27
663,95	1316,84
664,14	1277,93
664,32	1298,41
664,51	1296,36
664,70	1220,59
664,89	1298,41
665,07	1290,22
665,26	1290,22
665,45	1329,13
665,64	1271,79
665,82	1284,08
666,01	1269,74
666,20	1261,55
666,38	1304,56
666,57	1322,99
666,76	1314,80
666,95	1273,84
667,13	1288,17
667,32	1212,40
667,51	1263,60
667,69	1271,79
667,88	1331,18
668,07	1306,60
668,25	1241,07
668,44	1214,45
668,63	1261,55
668,81	1333,23
669,00	1259,50
669,19	1341,42
669,38	1329,13
669,56	1259,50
669,75	1230,83
669,94	1236,97
670,12	1267,69
670,31	1273,84
670,50	1353,71
670,68	1284,08
670,87	1241,07
671,06	1245,16
671,24	1292,27
671,43	1296,36
671,62	1312,75
671,80	1265,64
671,99	1279,98
672,18	1265,64
672,36	1294,32
672,55	1296,36
672,74	1241,07
672,92	1222,64
673,11	1255,40
673,29	1241,07
673,48	1261,55
673,67	1228,78
673,85	1327,08
674,04	1271,79
674,23	1322,99
674,41	1230,83
674,60	1271,79
674,79	1241,07
674,97	1198,06
675,16	1167,34
675,34	1241,07
675,53	1277,93
675,72	1206,25
675,90	1275,88
676,09	1279,98
676,28	1300,46
676,46	1241,07
676,65	1255,40
676,83	1347,56
677,02	1187,82
677,21	1234,93
677,39	1282,03
677,58	1232,88
677,77	1310,70
677,95	1298,41
678,14	1230,83
678,32	1241,07
678,51	1212,40
678,70	1273,84
678,88	1271,79
679,07	1261,55
679,25	1200,11
679,44	1271,79
679,63	1277,93
679,81	1275,88
680,00	1241,07
680,18	1216,49
680,37	1251,31
680,55	1259,50
680,74	1247,21
680,93	1290,22
681,11	1234,93
681,30	1282,03
681,48	1310,70
681,67	1292,27
681,85	1239,02
682,04	1232,88
682,23	1267,69
682,41	1316,84
682,60	1226,73
682,78	1249,26
682,97	1335,28
683,15	1292,27
683,34	1288,17
683,53	1247,21
683,71	1257,45
683,90	1282,03
684,08	1312,75
684,27	1251,31
684,45	1267,69
684,64	1277,93
684,82	1314,80
685,01	1327,08
685,19	1255,40
685,38	1204,21
685,57	1294,32
685,75	1228,78
685,94	1271,79
686,12	1202,16
686,31	1333,23
686,49	1210,35
686,68	1314,80
686,86	1286,12
687,05	1284,08
687,23	1275,88
687,42	1239,02
687,60	1245,16
687,79	1236,97
687,97	1259,50
688,16	1312,75
688,34	1292,27
688,53	1290,22
688,71	1214,45
688,90	1298,41
689,08	1288,17
689,27	1183,73
689,45	1339,37
689,64	1253,36
689,82	1267,69
690,01	1271,79
690,19	1331,18
690,38	1226,73
690,56	1302,51
690,75	1249,26
690,93	1206,25
691,12	1296,36
691,30	1269,74
691,49	1345,52
691,67	1308,65
691,86	1261,55
692,04	1292,27
692,23	1269,74
692,41	1327,08
692,60	1304,56
692,78	1196,01
692,97	1251,31
693,15	1282,03
693,34	1345,52
693,52	1239,02
693,71	1304,56
693,89	1247,21
694,08	1222,64
694,26	1251,31
694,44	1312,75
694,63	1304,56
694,81	1191,92
695,00	1249,26
695,18	1253,36
695,37	1269,74
695,55	1279,98
695,74	1271,79
695,92	1279,98
696,10	1247,21
696,29	1208,30
696,47	1243,12
696,66	1275,88
696,84	1263,60
697,03	1273,84
697,21	1241,07
697,40	1318,89
697,58	1245,16
697,76	1239,02
697,95	1288,17
698,13	1210,35
698,32	1261,55
698,50	1230,83
698,68	1165,29
698,87	1212,40
699,05	1191,92
699,24	1230,83
699,42	1343,47
699,61	1255,40
699,79	1255,40
699,97	1282,03
700,16	1288,17
700,34	1331,18
700,53	1282,03
700,71	1275,88
700,89	1292,27
701,08	1228,78
701,26	1257,45
701,45	1253,36
701,63	1300,46
701,81	1249,26
702,00	1263,60
702,18	1222,64
702,37	1239,02
702,55	1314,80
702,73	1255,40
702,92	1251,31
703,10	1214,45
703,28	1267,69
703,47	1230,83
703,65	1310,70
703,84	1304,56
704,02	1247,21
704,20	1263,60
704,39	1224,69
704,57	1253,36
704,75	1243,12
704,94	1288,17
705,12	1261,55
705,30	1273,84
705,49	1347,56
705,67	1282,03
705,86	1292,27
706,04	1320,94
706,22	1228,78
706,41	1292,27
706,59	1300,46
706,77	1296,36
706,96	1302,51
707,14	1265,64
707,32	1277,93
707,51	1290,22
707,69	1308,65
707,87	1273,84
708,06	1298,41
708,24	1327,08
708,42	1265,64
708,61	1277,93
708,79	1257,45
708,97	1224,69
709,16	1269,74
709,34	1241,07
709,52	1318,89
709,71	1241,07
709,89	1196,01
710,07	1286,12
710,26	1304,56
710,44	1247,21
710,62	1222,64
710,80	1286,12
710,99	1325,04
711,17	1236,97
711,35	1261,55
711,54	1271,79
711,72	1271,79
711,90	1216,49
712,09	1259,50
712,27	1179,63
712,45	1218,54
712,63	1218,54
712,82	1251,31
713,00	1320,94
713,18	1245,16
713,37	1230,83
713,55	1290,22
713,73	1239,02
713,91	1322,99
714,10	1329,13
714,28	1277,93
714,46	1214,45
714,65	1310,70
714,83	1247,21
715,01	1193,97
715,19	1308,65
715,38	1251,31
715,56	1376,24
715,74	1265,64
715,92	1308,65
716,11	1269,74
716,29	1255,40
716,47	1243,12
716,65	1261,55
716,84	1226,73
717,02	1230,83
717,20	1257,45
717,38	1284,08
717,57	1191,92
717,75	1279,98
717,93	1275,88
718,11	1294,32
718,30	1302,51
718,48	1333,23
718,66	1300,46
718,84	1236,97
719,03	1228,78
719,21	1234,93
719,39	1253,36
719,57	1241,07
719,75	1269,74
719,94	1241,07
720,12	1269,74
720,30	1247,21
720,48	1261,55
720,67	1251,31
720,85	1304,56
721,03	1288,17
721,21	1292,27
721,39	1249,26
721,58	1253,36
721,76	1312,75
721,94	1185,77
722,12	1294,32
722,30	1212,40
722,49	1273,84
722,67	1300,46
722,85	1216,49
723,03	1212,40
723,21	1220,59
723,40	1290,22
723,58	1292,27
723,76	1261,55
723,94	1327,08
724,12	1318,89
724,30	1249,26
724,49	1247,21
724,67	1251,31
724,85	1282,03
725,03	1245,16
725,21	1327,08
725,40	1288,17
725,58	1255,40
725,76	1241,07
725,94	1314,80
726,12	1269,74
726,30	1265,64
726,49	1306,60
726,67	1191,92
726,85	1325,04
727,03	1290,22
727,21	1239,02
727,39	1261,55
727,57	1226,73
727,76	1261,55
727,94	1249,26
728,12	1269,74
728,30	1249,26
728,48	1263,60
728,66	1282,03
728,84	1257,45
729,03	1279,98
729,21	1216,49
729,39	1277,93
729,57	1234,93
729,75	1269,74
729,93	1320,94
730,11	1267,69
730,30	1224,69
730,48	1253,36
730,66	1318,89
730,84	1234,93
731,02	1239,02
731,20	1204,21
731,38	1191,92
731,56	1322,99
731,74	1183,73
731,93	1261,55
732,11	1241,07
732,29	1288,17
732,47	1271,79
732,65	1214,45
732,83	1263,60
733,01	1347,56
733,19	1269,74
733,37	1265,64
733,56	1220,59
733,74	1292,27
733,92	1271,79
734,10	1290,22
734,28	1245,16
734,46	1327,08
734,64	1257,45
734,82	1296,36
735,00	1249,26
735,18	1314,80
735,36	1306,60
735,54	1247,21
735,73	1181,68
735,91	1296,36
736,09	1298,41
736,27	1191,92
736,45	1296,36
736,63	1200,11
736,81	1302,51
736,99	1308,65
737,17	1263,60
737,35	1236,97
737,53	1167,34
737,71	1288,17
737,89	1214,45
738,07	1228,78
738,25	1269,74
738,43	1271,79
738,61	1298,41
738,80	1193,97
738,98	1284,08
739,16	1271,79
739,34	1226,73
739,52	1275,88
739,70	1214,45
739,88	1257,45
740,06	1271,79
740,24	1312,75
740,42	1263,60
740,60	1288,17
740,78	1228,78
740,96	1222,64
741,14	1279,98
741,32	1267,69
741,50	1273,84
741,68	1296,36
741,86	1306,60
742,04	1241,07
742,22	1294,32
742,40	1302,51
742,58	1230,83
742,76	1241,07
742,94	1335,28
743,12	1204,21
743,30	1265,64
743,48	1261,55
743,66	1257,45
743,84	1245,16
744,02	1288,17
744,20	1175,53
744,38	1296,36
744,56	1226,73
744,74	1337,32
744,92	1255,40
745,10	1310,70
745,28	1239,02
745,46	1210,35
745,64	1284,08
745,82	1288,17
746,00	1290,22
746,18	1284,08
746,36	1288,17
746,54	1222,64
746,72	1226,73
746,90	1292,27
747,08	1306,60
747,26	1298,41
747,44	1267,69
747,62	1236,97
747,80	1249,26
747,98	1236,97
748,15	1212,40
748,33	1226,73
748,51	1232,88
748,69	1302,51
748,87	1288,17
749,05	1267,69
749,23	1273,84
749,41	1204,21
749,59	1288,17
749,77	1234,93
749,95	1153,01
750,13	1318,89
750,31	1269,74
750,49	1228,78
750,67	1368,04
750,85	1228,78
751,03	1261,55
751,20	1333,23
751,38	1310,70
751,56	1353,71
751,74	1196,01
751,92	1228,78
752,10	1271,79
752,28	1284,08
752,46	1241,07
752,64	1339,37
752,82	1284,08
753,00	1294,32
753,18	1310,70
753,35	1232,88
753,53	1263,60
753,71	1230,83
753,89	1310,70
754,07	1239,02
754,25	1296,36
754,43	1277,93
754,61	1294,32
754,79	1189,87
754,97	1335,28
755,14	1245,16
755,32	1279,98
755,50	1204,21
755,68	1255,40
755,86	1343,47
756,04	1228,78
756,22	1257,45
756,40	1253,36
756,57	1282,03
756,75	1263,60
756,93	1253,36
757,11	1296,36
757,29	1271,79
757,47	1249,26
757,65	1284,08
757,82	1298,41
758,00	1304,56
758,18	1347,56
758,36	1249,26
758,54	1298,41
758,72	1245,16
758,90	1298,41
759,07	1255,40
759,25	1273,84
759,43	1267,69
759,61	1239,02
759,79	1279,98
759,97	1316,84
760,15	1294,32
760,32	1288,17
760,50	1138,67
760,68	1331,18
760,86	1286,12
761,04	1230,83
761,22	1273,84
761,39	1241,07
761,57	1271,79
761,75	1277,93
761,93	1210,35
762,11	1273,84
762,28	1322,99
762,46	1277,93
762,64	1347,56
762,82	1288,17
763,00	1216,49
763,18	1245,16
763,35	1267,69
763,53	1302,51
763,71	1232,88
763,89	1374,19
764,07	1318,89
764,24	1269,74
764,42	1210,35
764,60	1296,36
764,78	1226,73
764,96	1236,97
765,13	1273,84
765,31	1300,46
765,49	1284,08
765,67	1271,79
765,84	1230,83
766,02	1257,45
766,20	1286,12
766,38	1304,56
766,56	1269,74
766,73	1322,99
766,91	1275,88
767,09	1269,74
767,27	1224,69
767,44	1314,80
767,62	1318,89
767,80	1314,80
767,98	1253,36
768,15	1259,50
768,33	1296,36
768,51	1243,12
768,69	1212,40
768,87	1314,80
769,04	1232,88
769,22	1314,80
769,40	1269,74
769,58	1245,16
769,75	1312,75
769,93	1273,84
770,11	1265,64
770,28	1290,22
770,46	1265,64
770,64	1320,94
770,82	1294,32
770,99	1269,74
771,17	1284,08
771,35	1269,74
771,53	1284,08
771,70	1241,07
771,88	1214,45
772,06	1310,70
772,23	1253,36
772,41	1253,36
772,59	1306,60
772,77	1288,17
772,94	1253,36
773,12	1263,60
773,30	1206,25
773,47	1243,12
773,65	1282,03
773,83	1271,79
774,01	1304,56
774,18	1249,26
774,36	1196,01
774,54	1230,83
774,71	1210,35
774,89	1269,74
775,07	1290,22
775,24	1306,60
775,42	1300,46
775,60	1232,88
775,78	1245,16
775,95	1241,07
776,13	1218,54
776,31	1257,45
776,48	1261,55
776,66	1269,74
776,84	1265,64
777,01	1257,45
777,19	1331,18
777,37	1261,55
777,54	1282,03
777,72	1255,40
777,90	1302,51
778,07	1261,55
778,25	1251,31
778,43	1161,20
778,60	1261,55
778,78	1263,60
778,96	1282,03
779,13	1314,80
779,31	1296,36
779,49	1271,79
779,66	1271,79
779,84	1265,64
780,01	1331,18
780,19	1306,60
780,37	1286,12
780,54	1230,83
780,72	1273,84
780,90	1236,97
781,07	1243,12
781,25	1325,04
781,43	1296,36
781,60	1347,56
781,78	1331,18
781,95	1226,73
782,13	1265,64
782,31	1241,07
782,48	1230,83
782,66	1314,80
782,83	1245,16
783,01	1284,08
783,19	1253,36
783,36	1282,03
783,54	1302,51
783,72	1279,98
783,89	1279,98
784,07	1314,80
784,24	1290,22
784,42	1292,27
784,60	1269,74
784,77	1265,64
784,95	1228,78
785,12	1236,97
785,30	1279,98
785,47	1339,37
785,65	1230,83
785,83	1210,35
786,00	1263,60
786,18	1329,13
786,35	1249,26
786,53	1222,64
786,71	1247,21
786,88	1255,40
787,06	1290,22
787,23	1251,31
787,41	1279,98
787,58	1261,55
787,76	1249,26
787,94	1300,46
788,11	1267,69
788,29	1331,18
788,46	1230,83
788,64	1292,27
788,81	1269,74
788,99	1245,16
789,16	1271,79
789,34	1343,47
789,52	1257,45
789,69	1310,70
789,87	1316,84
790,04	1247,21
790,22	1232,88
790,39	1232,88
790,57	1261,55
790,74	1253,36
790,92	1331,18
791,09	1286,12
791,27	1267,69
791,44	1247,21
791,62	1259,50
791,79	1222,64
791,97	1251,31
792,15	1288,17
792,32	1316,84
792,50	1329,13
792,67	1322,99
792,85	1271,79
793,02	1366,00
793,20	1249,26
793,37	1271,79
793,55	1277,93
793,72	1282,03
793,90	1316,84
794,07	1267,69
794,25	1331,18
794,42	1228,78
794,60	1241,07
794,77	1247,21
794,95	1386,47
795,12	1279,98
795,30	1273,84
795,47	1277,93
795,65	1265,64
795,82	1269,74
796,00	1228,78
796,17	1265,64
796,34	1322,99
796,52	1275,88
796,69	1247,21
796,87	1312,75
797,04	1267,69
797,22	1263,60
797,39	1290,22
797,57	1247,21
797,74	1269,74
797,92	1224,69
798,09	1243,12
798,27	1245,16
798,44	1200,11
798,62	1284,08
798,79	1286,12
798,96	1251,31
799,14	1239,02
799,31	1265,64
799,49	1257,45
799,66	1263,60
799,84	1312,75
800,01	1298,41
800,19	1316,84
800,36	1279,98
800,53	1267,69
800,71	1255,40
800,88	1304,56
801,06	1284,08
801,23	1329,13
801,41	1253,36
801,58	1277,93
801,75	1257,45
801,93	1320,94
802,10	1222,64
802,28	1222,64
802,45	1226,73
802,63	1204,21
802,80	1292,27
802,97	1271,79
803,15	1222,64
803,32	1241,07
803,50	1230,83
803,67	1277,93
803,84	1282,03
804,02	1312,75
804,19	1261,55
804,37	1214,45
804,54	1284,08
804,71	1224,69
804,89	1241,07
805,06	1306,60
805,24	1320,94
805,41	1271,79
805,58	1273,84
805,76	1263,60
805,93	1279,98
806,10	1294,32
806,28	1337,32
806,45	1261,55
806,63	1325,04
806,80	1267,69
806,97	1200,11
807,15	1304,56
807,32	1288,17
807,49	1279,98
807,67	1236,97
807,84	1306,60
808,01	1300,46
808,19	1318,89
808,36	1261,55
808,54	1193,97
808,71	1282,03
808,88	1275,88
809,06	1263,60
809,23	1300,46
809,40	1304,56
809,58	1271,79
809,75	1308,65
809,92	1267,69
810,10	1277,93
810,27	1271,79
810,44	1294,32
810,62	1277,93
810,79	1259,50
810,96	1200,11
811,14	1234,93
811,31	1298,41
811,48	1255,40
811,66	1271,79
811,83	1271,79
812,00	1261,55
812,18	1300,46
812,35	1249,26
812,52	1318,89
812,69	1277,93
812,87	1257,45
813,04	1302,51
813,21	1269,74
813,39	1224,69
813,56	1263,60
813,73	1255,40
813,91	1302,51
814,08	1304,56
814,25	1241,07
814,42	1253,36
814,60	1290,22
814,77	1333,23
814,94	1257,45
815,12	1347,56
815,29	1204,21
815,46	1273,84
815,63	1236,97
815,81	1294,32
815,98	1304,56
816,15	1325,04
816,33	1239,02
816,50	1269,74
816,67	1298,41
816,84	1273,84
817,02	1271,79
817,19	1265,64
817,36	1341,42
817,53	1218,54
817,71	1269,74
817,88	1286,12
818,05	1247,21
818,22	1230,83
818,40	1316,84
818,57	1267,69
818,74	1265,64
818,91	1288,17
819,09	1202,16
819,26	1198,06
819,43	1286,12
819,60	1216,49
819,78	1286,12
819,95	1243,12
820,12	1255,40
820,29	1329,13
820,47	1286,12
820,64	1259,50
820,81	1286,12
820,98	1230,83
821,15	1288,17
821,33	1273,84
821,50	1153,01
821,67	1388,52
821,84	1316,84
822,02	1245,16
822,19	1212,40
822,36	1273,84
822,53	1239,02
822,70	1263,60
822,88	1247,21
823,05	1241,07
823,22	1232,88
823,39	1288,17
823,56	1257,45
823,74	1302,51
823,91	1261,55
824,08	1230,83
824,25	1271,79
824,42	1259,50
824,60	1224,69
824,77	1304,56
824,94	1279,98
825,11	1312,75
825,28	1273,84
825,45	1234,93
825,63	1306,60
825,80	1322,99
825,97	1232,88
826,14	1335,28
826,31	1232,88
826,48	1230,83
826,66	1232,88
826,83	1288,17
827,00	1263,60
827,17	1288,17
827,34	1265,64
827,51	1243,12
827,69	1284,08
827,86	1257,45
828,03	1286,12
828,20	1290,22
828,37	1239,02
828,54	1261,55
828,71	1224,69
828,89	1226,73
829,06	1341,42
829,23	1347,56
829,40	1284,08
829,57	1257,45
829,74	1257,45
829,91	1216,49
830,09	1312,75
830,26	1314,80
830,43	1277,93
830,60	1189,87
830,77	1310,70
830,94	1314,80
831,11	1253,36
831,28	1261,55
831,46	1173,49
831,63	1228,78
831,80	1243,12
831,97	1259,50
832,14	1243,12
832,31	1306,60
832,48	1310,70
832,65	1177,58
832,82	1286,12
832,99	1255,40
833,17	1222,64
833,34	1298,41
833,51	1234,93
833,68	1314,80
833,85	1304,56
834,02	1271,79
834,19	1202,16
834,36	1308,65
834,53	1255,40
834,70	1265,64
834,87	1202,16
835,04	1257,45
835,22	1179,63
835,39	1275,88
835,56	1234,93
835,73	1304,56
835,90	1265,64
836,07	1210,35
836,24	1255,40
836,41	1277,93
836,58	1337,32
836,75	1298,41
836,92	1245,16
837,09	1282,03
837,26	1271,79
837,43	1265,64
837,60	1245,16
837,77	1245,16
837,94	1286,12
838,12	1339,37
838,29	1282,03
838,46	1241,07
838,63	1261,55
838,80	1232,88
838,97	1236,97
839,14	1239,02
839,31	1265,64
839,48	1310,70
839,65	1257,45
839,82	1181,68
839,99	1263,60
840,16	1243,12
840,33	1288,17
840,50	1255,40
840,67	1284,08
840,84	1279,98
841,01	1261,55
841,18	1253,36
841,35	1265,64
841,52	1376,24
841,69	1253,36
841,86	1310,70
842,03	1273,84
842,20	1243,12
842,37	1300,46
842,54	1298,41
842,71	1284,08
842,88	1226,73
843,05	1279,98
843,22	1327,08
843,39	1345,52
843,56	1267,69
843,73	1304,56
843,90	1286,12
844,07	1298,41
844,24	1251,31
844,41	1249,26
844,58	1222,64
844,75	1204,21
844,92	1241,07
845,09	1214,45
845,26	1290,22
845,43	1265,64
845,60	1306,60
845,77	1247,21
845,94	1269,74
846,10	1263,60
846,27	1255,40
846,44	1269,74
846,61	1275,88
846,78	1288,17
846,95	1286,12
847,12	1279,98
847,29	1214,45
847,46	1224,69
847,63	1228,78
847,80	1210,35
847,97	1224,69
848,14	1279,98
848,31	1230,83
848,48	1198,06
848,65	1304,56
848,82	1255,40
848,98	1306,60
849,15	1310,70
849,32	1306,60
849,49	1245,16
849,66	1296,36
849,83	1265,64
850,00	1296,36
850,17	1177,58
850,34	1239,02
850,51	1216,49
850,68	1259,50
850,85	1271,79
851,01	1263,60
851,18	1216,49
851,35	1167,34
851,52	1259,50
851,69	1320,94
851,86	1261,55
852,03	1296,36
852,20	1284,08
852,37	1368,04
852,53	1204,21
852,70	1226,73
852,87	1218,54
853,04	1265,64
853,21	1302,51
853,38	1230,83
853,55	1247,21
853,72	1318,89
853,89	1298,41
854,05	1284,08
854,22	1269,74
854,39	1314,80
854,56	1269,74
854,73	1322,99
854,90	1245,16
855,07	1239,02
855,23	1288,17
855,40	1185,77
855,57	1306,60
855,74	1261,55
855,91	1279,98
856,08	1236,97
856,25	1253,36
856,41	1275,88
856,58	1249,26
856,75	1312,75
856,92	1302,51
857,09	1286,12
857,26	1228,78
857,42	1212,40
857,59	1249,26
857,76	1300,46
857,93	1216,49
858,10	1288,17
858,27	1224,69
858,43	1327,08
858,60	1259,50
858,77	1265,64
858,94	1253,36
859,11	1247,21
859,27	1282,03
859,44	1279,98
859,61	1282,03
859,78	1216,49
859,95	1337,32
860,12	1361,90
860,28	1243,12
860,45	1218,54
860,62	1292,27
860,79	1257,45
860,95	1226,73
861,12	1282,03
861,29	1347,56
861,46	1263,60
861,63	1185,77
861,79	1282,03
861,96	1269,74
862,13	1224,69
862,30	1273,84
862,47	1310,70
862,63	1306,60
862,80	1351,66
862,97	1310,70
863,14	1296,36
863,30	1290,22
863,47	1314,80
863,64	1243,12
863,81	1361,90
863,97	1269,74
864,14	1300,46
864,31	1329,13
864,48	1304,56
864,65	1259,50
864,81	1292,27
864,98	1304,56
865,15	1306,60
865,32	1253,36
865,48	1322,99
865,65	1257,45
865,82	1306,60
865,98	1216,49
866,15	1159,15
866,32	1284,08
866,49	1339,37
866,65	1245,16
866,82	1331,18
866,99	1273,84
867,16	1249,26
867,32	1271,79
867,49	1259,50
867,66	1294,32
867,83	1306,60
867,99	1236,97
868,16	1265,64
868,33	1222,64
868,49	1273,84
868,66	1284,08
868,83	1310,70
868,99	1183,73
869,16	1265,64
869,33	1232,88
869,50	1277,93
869,66	1200,11
869,83	1259,50
870,00	1282,03
870,16	1253,36
870,33	1249,26
870,50	1294,32
870,66	1290,22
870,83	1294,32
871,00	1277,93
871,17	1304,56
871,33	1269,74
871,50	1261,55
871,67	1277,93
871,83	1294,32
872,00	1302,51
872,17	1265,64
872,33	1302,51
872,50	1239,02
872,67	1296,36
872,83	1271,79
873,00	1200,11
873,17	1310,70
873,33	1247,21
873,50	1255,40
873,67	1267,69
873,83	1214,45
874,00	1181,68
874,16	1253,36
874,33	1263,60
874,50	1310,70
874,66	1267,69
874,83	1302,51
875,00	1302,51
875,16	1200,11
875,33	1279,98
875,50	1273,84
875,66	1261,55
875,83	1322,99
875,99	1241,07
876,16	1230,83
876,33	1204,21
876,49	1286,12
876,66	1222,64
876,83	1312,75
876,99	1193,97
877,16	1239,02
877,32	1290,22
877,49	1361,90
877,66	1249,26
877,82	1363,95
877,99	1298,41
878,15	1251,31
878,32	1279,98
878,49	1271,79
878,65	1273,84
878,82	1282,03
878,98	1234,93
879,15	1310,70
879,32	1167,34
879,48	1335,28
879,65	1322,99
879,81	1300,46
879,98	1241,07
880,15	1249,26
880,31	1349,61
880,48	1269,74
880,64	1306,60
880,81	1310,70
880,97	1273,84
881,14	1214,45
881,31	1232,88
881,47	1288,17
881,64	1376,24
881,80	1241,07
881,97	1314,80
882,13	1288,17
882,30	1310,70
882,47	1290,22
882,63	1269,74
882,80	1253,36
882,96	1269,74
883,13	1306,60
883,29	1288,17
883,46	1304,56
883,62	1269,74
883,79	1288,17
883,95	1288,17
884,12	1312,75
884,29	1292,27
884,45	1249,26
884,62	1304,56
884,78	1275,88
884,95	1267,69
885,11	1308,65
885,28	1208,30
885,44	1314,80
885,61	1247,21
885,77	1294,32
885,94	1226,73
886,10	1286,12
886,27	1265,64
886,43	1204,21
886,60	1322,99
886,76	1271,79
886,93	1218,54
887,09	1312,75
887,26	1302,51
887,42	1253,36
887,59	1292,27
887,75	1306,60
887,92	1253,36
888,08	1243,12
888,25	1308,65
888,41	1282,03
888,58	1308,65
888,74	1232,88
888,91	1320,94
>>>>>End Processed Spectral Data<<<<<
