SpectraSuite Data File
++++++++++++++++++++++++++++++++++++
Date: Sun Apr 03 19:01:04 CEST 2016
User: root
Dark Spectrum Present: No
Reference Spectrum Present: No
Number of Sampled Component Spectra: 1
Spectrometers: USB4C02835
Integration Time (usec): 10000 (USB4C02835)
Spectra Averaged: 1 (USB4C02835)
Boxcar Smoothing: 0 (USB4C02835)
Correct for Electrical Dark: No (USB4C02835)
Strobe/Lamp Enabled: No (USB4C02835)
Correct for Detector Non-linearity: No (USB4C02835)
Correct for Stray Light: No (USB4C02835)
Number of Pixels in Processed Spectrum: 3648
>>>>>Begin Processed Spectral Data<<<<<
177,47	1232,88
177,69	1232,88
177,91	1232,88
178,13	1245,16
178,36	1277,93
178,58	1241,07
178,80	1322,99
179,02	1267,69
179,24	1314,80
179,46	1191,92
179,68	1302,51
179,90	1298,41
180,13	1255,40
180,35	1249,26
180,57	1296,36
180,79	1243,12
181,01	1257,45
181,23	1257,45
181,45	1273,84
181,67	1216,49
181,90	1271,79
182,12	1298,41
182,34	1220,59
182,56	1263,60
182,78	1282,03
183,00	1181,68
183,22	1302,51
183,44	1284,08
183,66	1241,07
183,89	1279,98
184,11	1249,26
184,33	1288,17
184,55	1263,60
184,77	1263,60
184,99	1339,37
185,21	1247,21
185,43	1183,73
185,65	1316,84
185,87	1243,12
186,10	1232,88
186,32	1329,13
186,54	1288,17
186,76	1282,03
186,98	1275,88
187,20	1304,56
187,42	1288,17
187,64	1247,21
187,86	1269,74
188,08	1312,75
188,30	1222,64
188,52	1206,25
188,75	1232,88
188,97	1306,60
189,19	1286,12
189,41	1189,87
189,63	1322,99
189,85	1255,40
190,07	1290,22
190,29	1292,27
190,51	1236,97
190,73	1232,88
190,95	1282,03
191,17	1296,36
191,39	1249,26
191,61	1277,93
191,84	1296,36
192,06	1224,69
192,28	1232,88
192,50	1279,98
192,72	1275,88
192,94	1304,56
193,16	1304,56
193,38	1279,98
193,60	1214,45
193,82	1210,35
194,04	1230,83
194,26	1345,52
194,48	1208,30
194,70	1288,17
194,92	1331,18
195,14	1138,67
195,36	1329,13
195,58	1200,11
195,80	1331,18
196,02	1314,80
196,24	1255,40
196,46	1296,36
196,69	1329,13
196,91	1263,60
197,13	1288,17
197,35	1208,30
197,57	1224,69
197,79	1339,37
198,01	1298,41
198,23	1239,02
198,45	1333,23
198,67	1296,36
198,89	1366,00
199,11	1275,88
199,33	1314,80
199,55	1298,41
199,77	1372,14
199,99	1255,40
200,21	1275,88
200,43	1241,07
200,65	1306,60
200,87	1220,59
201,09	1249,26
201,31	1294,32
201,53	1269,74
201,75	1263,60
201,97	1294,32
202,19	1202,16
202,41	1322,99
202,63	1261,55
202,85	1251,31
203,07	1257,45
203,29	1253,36
203,51	1222,64
203,73	1224,69
203,95	1273,84
204,17	1247,21
204,39	1228,78
204,61	1210,35
204,83	1236,97
205,05	1292,27
205,27	1247,21
205,49	1239,02
205,71	1206,25
205,93	1314,80
206,15	1257,45
206,37	1269,74
206,59	1341,42
206,81	1267,69
207,03	1255,40
207,25	1216,49
207,47	1275,88
207,69	1251,31
207,91	1271,79
208,13	1208,30
208,34	1257,45
208,56	1265,64
208,78	1292,27
209,00	1257,45
209,22	1282,03
209,44	1306,60
209,66	1216,49
209,88	1286,12
210,10	1230,83
210,32	1359,85
210,54	1384,43
210,76	1179,63
210,98	1304,56
211,20	1236,97
211,42	1224,69
211,64	1275,88
211,86	1249,26
212,08	1273,84
212,30	1265,64
212,52	1279,98
212,74	1277,93
212,96	1282,03
213,17	1322,99
213,39	1259,50
213,61	1320,94
213,83	1245,16
214,05	1251,31
214,27	1249,26
214,49	1175,53
214,71	1245,16
214,93	1306,60
215,15	1298,41
215,37	1257,45
215,59	1277,93
215,81	1329,13
216,03	1304,56
216,24	1322,99
216,46	1269,74
216,68	1263,60
216,90	1284,08
217,12	1222,64
217,34	1304,56
217,56	1331,18
217,78	1230,83
218,00	1298,41
218,22	1245,16
218,44	1288,17
218,66	1265,64
218,87	1296,36
219,09	1214,45
219,31	1241,07
219,53	1247,21
219,75	1294,32
219,97	1261,55
220,19	1216,49
220,41	1325,04
220,63	1275,88
220,85	1220,59
221,06	1271,79
221,28	1294,32
221,50	1251,31
221,72	1296,36
221,94	1173,49
222,16	1204,21
222,38	1251,31
222,60	1257,45
222,82	1343,47
223,03	1261,55
223,25	1265,64
223,47	1294,32
223,69	1284,08
223,91	1204,21
224,13	1245,16
224,35	1271,79
224,57	1294,32
224,78	1275,88
225,00	1230,83
225,22	1277,93
225,44	1241,07
225,66	1314,80
225,88	1273,84
226,10	1282,03
226,32	1308,65
226,53	1230,83
226,75	1275,88
226,97	1210,35
227,19	1263,60
227,41	1316,84
227,63	1275,88
227,85	1286,12
228,06	1304,56
228,28	1310,70
228,50	1316,84
228,72	1220,59
228,94	1290,22
229,16	1177,58
229,37	1320,94
229,59	1265,64
229,81	1314,80
230,03	1279,98
230,25	1265,64
230,47	1222,64
230,69	1331,18
230,90	1284,08
231,12	1298,41
231,34	1292,27
231,56	1257,45
231,78	1247,21
232,00	1241,07
232,21	1290,22
232,43	1241,07
232,65	1308,65
232,87	1308,65
233,09	1263,60
233,30	1300,46
233,52	1236,97
233,74	1271,79
233,96	1236,97
234,18	1243,12
234,40	1269,74
234,61	1263,60
234,83	1257,45
235,05	1279,98
235,27	1347,56
235,49	1271,79
235,70	1310,70
235,92	1232,88
236,14	1277,93
236,36	1286,12
236,58	1265,64
236,79	1259,50
237,01	1204,21
237,23	1255,40
237,45	1277,93
237,67	1273,84
237,88	1210,35
238,10	1290,22
238,32	1327,08
238,54	1220,59
238,76	1247,21
238,97	1247,21
239,19	1378,28
239,41	1316,84
239,63	1259,50
239,85	1282,03
240,06	1255,40
240,28	1257,45
240,50	1228,78
240,72	1269,74
240,93	1236,97
241,15	1353,71
241,37	1257,45
241,59	1282,03
241,81	1288,17
242,02	1265,64
242,24	1306,60
242,46	1302,51
242,68	1241,07
242,89	1239,02
243,11	1259,50
243,33	1269,74
243,55	1298,41
243,76	1275,88
243,98	1277,93
244,20	1273,84
244,42	1322,99
244,64	1288,17
244,85	1333,23
245,07	1249,26
245,29	1243,12
245,51	1216,49
245,72	1277,93
245,94	1290,22
246,16	1290,22
246,38	1292,27
246,59	1261,55
246,81	1239,02
247,03	1261,55
247,24	1236,97
247,46	1177,58
247,68	1261,55
247,90	1343,47
248,11	1279,98
248,33	1169,39
248,55	1339,37
248,77	1308,65
248,98	1277,93
249,20	1261,55
249,42	1298,41
249,64	1251,31
249,85	1294,32
250,07	1275,88
250,29	1202,16
250,50	1226,73
250,72	1255,40
250,94	1257,45
251,16	1224,69
251,37	1269,74
251,59	1279,98
251,81	1335,28
252,02	1243,12
252,24	1249,26
252,46	1269,74
252,68	1191,92
252,89	1249,26
253,11	1255,40
253,33	1208,30
253,54	1310,70
253,76	1294,32
253,98	1318,89
254,20	1374,19
254,41	1249,26
254,63	1273,84
254,85	1232,88
255,06	1314,80
255,28	1288,17
255,50	1312,75
255,71	1318,89
255,93	1304,56
256,15	1316,84
256,36	1265,64
256,58	1253,36
256,80	1243,12
257,02	1253,36
257,23	1277,93
257,45	1337,32
257,67	1306,60
257,88	1222,64
258,10	1312,75
258,32	1232,88
258,53	1226,73
258,75	1290,22
258,97	1243,12
259,18	1216,49
259,40	1282,03
259,62	1318,89
259,83	1310,70
260,05	1255,40
260,27	1302,51
260,48	1345,52
260,70	1243,12
260,92	1279,98
261,13	1288,17
261,35	1298,41
261,57	1290,22
261,78	1253,36
262,00	1243,12
262,22	1245,16
262,43	1183,73
262,65	1234,93
262,86	1247,21
263,08	1292,27
263,30	1232,88
263,51	1304,56
263,73	1374,19
263,95	1310,70
264,16	1226,73
264,38	1214,45
264,60	1271,79
264,81	1251,31
265,03	1249,26
265,25	1325,04
265,46	1257,45
265,68	1279,98
265,89	1245,16
266,11	1269,74
266,33	1292,27
266,54	1224,69
266,76	1255,40
266,98	1294,32
267,19	1224,69
267,41	1255,40
267,62	1296,36
267,84	1304,56
268,06	1243,12
268,27	1259,50
268,49	1249,26
268,70	1282,03
268,92	1230,83
269,14	1210,35
269,35	1271,79
269,57	1316,84
269,79	1306,60
270,00	1249,26
270,22	1271,79
270,43	1204,21
270,65	1224,69
270,87	1249,26
271,08	1257,45
271,30	1306,60
271,51	1251,31
271,73	1312,75
271,95	1236,97
272,16	1314,80
272,38	1316,84
272,59	1271,79
272,81	1292,27
273,02	1241,07
273,24	1339,37
273,46	1234,93
273,67	1255,40
273,89	1120,24
274,10	1302,51
274,32	1325,04
274,54	1245,16
274,75	1310,70
274,97	1322,99
275,18	1269,74
275,40	1267,69
275,61	1200,11
275,83	1294,32
276,05	1329,13
276,26	1269,74
276,48	1187,82
276,69	1347,56
276,91	1224,69
277,12	1241,07
277,34	1298,41
277,55	1290,22
277,77	1265,64
277,99	1243,12
278,20	1273,84
278,42	1298,41
278,63	1308,65
278,85	1298,41
279,06	1269,74
279,28	1314,80
279,49	1308,65
279,71	1255,40
279,93	1355,76
280,14	1282,03
280,36	1255,40
280,57	1288,17
280,79	1310,70
281,00	1259,50
281,22	1298,41
281,43	1261,55
281,65	1261,55
281,86	1249,26
282,08	1306,60
282,29	1255,40
282,51	1236,97
282,73	1226,73
282,94	1228,78
283,16	1380,33
283,37	1255,40
283,59	1200,11
283,80	1251,31
284,02	1269,74
284,23	1322,99
284,45	1271,79
284,66	1271,79
284,88	1284,08
285,09	1269,74
285,31	1273,84
285,52	1183,73
285,74	1288,17
285,95	1232,88
286,17	1236,97
286,38	1234,93
286,60	1234,93
286,81	1308,65
287,03	1241,07
287,24	1271,79
287,46	1253,36
287,67	1284,08
287,89	1300,46
288,10	1269,74
288,32	1226,73
288,53	1245,16
288,75	1318,89
288,96	1325,04
289,18	1251,31
289,39	1282,03
289,61	1230,83
289,82	1249,26
290,04	1255,40
290,25	1241,07
290,47	1290,22
290,68	1290,22
290,90	1282,03
291,11	1312,75
291,33	1282,03
291,54	1263,60
291,76	1349,61
291,97	1236,97
292,18	1277,93
292,40	1277,93
292,61	1222,64
292,83	1277,93
293,04	1374,19
293,26	1222,64
293,47	1284,08
293,69	1234,93
293,90	1245,16
294,12	1228,78
294,33	1265,64
294,55	1273,84
294,76	1306,60
294,97	1255,40
295,19	1269,74
295,40	1247,21
295,62	1263,60
295,83	1218,54
296,05	1306,60
296,26	1230,83
296,48	1294,32
296,69	1288,17
296,90	1337,32
297,12	1263,60
297,33	1318,89
297,55	1320,94
297,76	1306,60
297,98	1261,55
298,19	1284,08
298,41	1263,60
298,62	1253,36
298,83	1261,55
299,05	1310,70
299,26	1279,98
299,48	1292,27
299,69	1249,26
299,90	1255,40
300,12	1214,45
300,33	1253,36
300,55	1249,26
300,76	1273,84
300,98	1220,59
301,19	1239,02
301,40	1208,30
301,62	1273,84
301,83	1212,40
302,05	1275,88
302,26	1265,64
302,47	1304,56
302,69	1259,50
302,90	1257,45
303,12	1286,12
303,33	1241,07
303,54	1228,78
303,76	1216,49
303,97	1200,11
304,19	1257,45
304,40	1218,54
304,61	1241,07
304,83	1193,97
305,04	1316,84
305,26	1286,12
305,47	1306,60
305,68	1294,32
305,90	1277,93
306,11	1343,47
306,33	1308,65
306,54	1265,64
306,75	1294,32
306,97	1253,36
307,18	1222,64
307,39	1247,21
307,61	1259,50
307,82	1286,12
308,04	1306,60
308,25	1318,89
308,46	1277,93
308,68	1230,83
308,89	1232,88
309,10	1304,56
309,32	1359,85
309,53	1239,02
309,74	1271,79
309,96	1282,03
310,17	1271,79
310,39	1218,54
310,60	1253,36
310,81	1339,37
311,03	1314,80
311,24	1292,27
311,45	1251,31
311,67	1255,40
311,88	1243,12
312,09	1302,51
312,31	1269,74
312,52	1368,04
312,73	1288,17
312,95	1259,50
313,16	1275,88
313,37	1243,12
313,59	1269,74
313,80	1267,69
314,01	1296,36
314,23	1230,83
314,44	1271,79
314,65	1243,12
314,87	1300,46
315,08	1292,27
315,29	1230,83
315,51	1181,68
315,72	1220,59
315,93	1277,93
316,15	1247,21
316,36	1306,60
316,57	1302,51
316,79	1241,07
317,00	1304,56
317,21	1216,49
317,43	1316,84
317,64	1257,45
317,85	1251,31
318,07	1265,64
318,28	1300,46
318,49	1282,03
318,70	1294,32
318,92	1218,54
319,13	1325,04
319,34	1263,60
319,56	1255,40
319,77	1228,78
319,98	1253,36
320,20	1308,65
320,41	1263,60
320,62	1257,45
320,83	1290,22
321,05	1247,21
321,26	1322,99
321,47	1277,93
321,69	1286,12
321,90	1241,07
322,11	1273,84
322,32	1308,65
322,54	1273,84
322,75	1302,51
322,96	1288,17
323,18	1218,54
323,39	1282,03
323,60	1296,36
323,81	1273,84
324,03	1296,36
324,24	1312,75
324,45	1247,21
324,66	1273,84
324,88	1277,93
325,09	1292,27
325,30	1259,50
325,52	1288,17
325,73	1232,88
325,94	1294,32
326,15	1232,88
326,37	1296,36
326,58	1267,69
326,79	1245,16
327,00	1253,36
327,22	1329,13
327,43	1275,88
327,64	1222,64
327,85	1220,59
328,07	1234,93
328,28	1284,08
328,49	1286,12
328,70	1245,16
328,92	1306,60
329,13	1288,17
329,34	1327,08
329,55	1345,52
329,76	1255,40
329,98	1277,93
330,19	1306,60
330,40	1337,32
330,61	1204,21
330,83	1269,74
331,04	1275,88
331,25	1277,93
331,46	1239,02
331,68	1314,80
331,89	1249,26
332,10	1277,93
332,31	1241,07
332,52	1251,31
332,74	1284,08
332,95	1282,03
333,16	1261,55
333,37	1243,12
333,58	1204,21
333,80	1245,16
334,01	1241,07
334,22	1279,98
334,43	1224,69
334,64	1247,21
334,86	1296,36
335,07	1286,12
335,28	1294,32
335,49	1249,26
335,70	1337,32
335,92	1314,80
336,13	1318,89
336,34	1304,56
336,55	1288,17
336,76	1236,97
336,98	1347,56
337,19	1253,36
337,40	1335,28
337,61	1228,78
337,82	1322,99
338,04	1290,22
338,25	1224,69
338,46	1355,76
338,67	1294,32
338,88	1243,12
339,09	1322,99
339,31	1279,98
339,52	1206,25
339,73	1306,60
339,94	1320,94
340,15	1261,55
340,36	1316,84
340,58	1253,36
340,79	1253,36
341,00	1292,27
341,21	1302,51
341,42	1247,21
341,63	1255,40
341,85	1286,12
342,06	1282,03
342,27	1202,16
342,48	1247,21
342,69	1236,97
342,90	1271,79
343,12	1325,04
343,33	1271,79
343,54	1263,60
343,75	1185,77
343,96	1226,73
344,17	1241,07
344,38	1279,98
344,60	1247,21
344,81	1277,93
345,02	1220,59
345,23	1263,60
345,44	1224,69
345,65	1249,26
345,86	1251,31
346,07	1312,75
346,29	1296,36
346,50	1273,84
346,71	1277,93
346,92	1243,12
347,13	1271,79
347,34	1312,75
347,55	1251,31
347,76	1366,00
347,98	1294,32
348,19	1261,55
348,40	1265,64
348,61	1222,64
348,82	1329,13
349,03	1200,11
349,24	1292,27
349,45	1189,87
349,66	1208,30
349,88	1257,45
350,09	1312,75
350,30	1312,75
350,51	1255,40
350,72	1296,36
350,93	1290,22
351,14	1247,21
351,35	1294,32
351,56	1306,60
351,77	1257,45
351,99	1288,17
352,20	1249,26
352,41	1316,84
352,62	1279,98
352,83	1243,12
353,04	1310,70
353,25	1284,08
353,46	1257,45
353,67	1257,45
353,88	1228,78
354,09	1234,93
354,30	1296,36
354,52	1204,21
354,73	1236,97
354,94	1230,83
355,15	1277,93
355,36	1214,45
355,57	1257,45
355,78	1316,84
355,99	1263,60
356,20	1261,55
356,41	1282,03
356,62	1273,84
356,83	1304,56
357,04	1306,60
357,25	1288,17
357,46	1271,79
357,68	1314,80
357,89	1179,63
358,10	1200,11
358,31	1279,98
358,52	1290,22
358,73	1255,40
358,94	1322,99
359,15	1279,98
359,36	1306,60
359,57	1210,35
359,78	1318,89
359,99	1224,69
360,20	1296,36
360,41	1265,64
360,62	1286,12
360,83	1251,31
361,04	1310,70
361,25	1241,07
361,46	1249,26
361,67	1255,40
361,88	1265,64
362,09	1191,92
362,30	1302,51
362,51	1296,36
362,72	1265,64
362,93	1267,69
363,14	1279,98
363,35	1243,12
363,56	1284,08
363,78	1253,36
363,99	1282,03
364,20	1267,69
364,41	1216,49
364,62	1286,12
364,83	1320,94
365,04	1310,70
365,25	1304,56
365,46	1269,74
365,67	1247,21
365,88	1286,12
366,09	1239,02
366,30	1241,07
366,51	1265,64
366,72	1193,97
366,93	1282,03
367,14	1288,17
367,35	1267,69
367,56	1271,79
367,77	1241,07
367,98	1232,88
368,18	1267,69
368,39	1259,50
368,60	1271,79
368,81	1222,64
369,02	1318,89
369,23	1173,49
369,44	1179,63
369,65	1284,08
369,86	1306,60
370,07	1310,70
370,28	1269,74
370,49	1241,07
370,70	1349,61
370,91	1290,22
371,12	1236,97
371,33	1298,41
371,54	1232,88
371,75	1296,36
371,96	1214,45
372,17	1290,22
372,38	1267,69
372,59	1198,06
372,80	1261,55
373,01	1300,46
373,22	1290,22
373,43	1191,92
373,64	1302,51
373,85	1271,79
374,06	1257,45
374,26	1296,36
374,47	1265,64
374,68	1331,18
374,89	1183,73
375,10	1282,03
375,31	1339,37
375,52	1216,49
375,73	1290,22
375,94	1167,34
376,15	1232,88
376,36	1273,84
376,57	1290,22
376,78	1189,87
376,99	1329,13
377,20	1204,21
377,40	1279,98
377,61	1275,88
377,82	1230,83
378,03	1316,84
378,24	1310,70
378,45	1306,60
378,66	1269,74
378,87	1208,30
379,08	1263,60
379,29	1234,93
379,50	1296,36
379,71	1247,21
379,91	1255,40
380,12	1230,83
380,33	1294,32
380,54	1304,56
380,75	1265,64
380,96	1294,32
381,17	1310,70
381,38	1316,84
381,59	1288,17
381,80	1247,21
382,00	1284,08
382,21	1232,88
382,42	1265,64
382,63	1214,45
382,84	1275,88
383,05	1302,51
383,26	1288,17
383,47	1216,49
383,68	1200,11
383,88	1249,26
384,09	1257,45
384,30	1277,93
384,51	1282,03
384,72	1337,32
384,93	1230,83
385,14	1245,16
385,35	1241,07
385,55	1265,64
385,76	1216,49
385,97	1191,92
386,18	1282,03
386,39	1290,22
386,60	1247,21
386,81	1204,21
387,02	1306,60
387,22	1208,30
387,43	1269,74
387,64	1275,88
387,85	1218,54
388,06	1327,08
388,27	1267,69
388,48	1277,93
388,68	1218,54
388,89	1275,88
389,10	1263,60
389,31	1230,83
389,52	1247,21
389,73	1271,79
389,93	1232,88
390,14	1286,12
390,35	1273,84
390,56	1255,40
390,77	1296,36
390,98	1198,06
391,18	1255,40
391,39	1228,78
391,60	1169,39
391,81	1263,60
392,02	1257,45
392,23	1288,17
392,43	1304,56
392,64	1275,88
392,85	1214,45
393,06	1322,99
393,27	1282,03
393,47	1265,64
393,68	1292,27
393,89	1277,93
394,10	1345,52
394,31	1296,36
394,52	1261,55
394,72	1249,26
394,93	1298,41
395,14	1329,13
395,35	1296,36
395,56	1267,69
395,76	1232,88
395,97	1273,84
396,18	1320,94
396,39	1243,12
396,60	1306,60
396,80	1308,65
397,01	1310,70
397,22	1284,08
397,43	1368,04
397,64	1239,02
397,84	1366,00
398,05	1306,60
398,26	1294,32
398,47	1277,93
398,67	1253,36
398,88	1267,69
399,09	1255,40
399,30	1230,83
399,51	1277,93
399,71	1296,36
399,92	1310,70
400,13	1312,75
400,34	1247,21
400,54	1261,55
400,75	1318,89
400,96	1284,08
401,17	1232,88
401,37	1277,93
401,58	1290,22
401,79	1218,54
402,00	1277,93
402,21	1267,69
402,41	1286,12
402,62	1185,77
402,83	1226,73
403,04	1224,69
403,24	1206,25
403,45	1269,74
403,66	1351,66
403,87	1251,31
404,07	1245,16
404,28	1247,21
404,49	1255,40
404,70	1318,89
404,90	1310,70
405,11	1210,35
405,32	1232,88
405,52	1271,79
405,73	1310,70
405,94	1314,80
406,15	1288,17
406,35	1322,99
406,56	1243,12
406,77	1226,73
406,98	1234,93
407,18	1251,31
407,39	1314,80
407,60	1255,40
407,80	1343,47
408,01	1255,40
408,22	1236,97
408,43	1316,84
408,63	1275,88
408,84	1224,69
409,05	1259,50
409,25	1189,87
409,46	1247,21
409,67	1288,17
409,88	1251,31
410,08	1230,83
410,29	1355,76
410,50	1322,99
410,70	1279,98
410,91	1243,12
411,12	1312,75
411,32	1265,64
411,53	1314,80
411,74	1263,60
411,95	1277,93
412,15	1220,59
412,36	1277,93
412,57	1263,60
412,77	1304,56
412,98	1232,88
413,19	1236,97
413,39	1261,55
413,60	1247,21
413,81	1279,98
414,01	1286,12
414,22	1239,02
414,43	1265,64
414,63	1249,26
414,84	1241,07
415,05	1232,88
415,25	1230,83
415,46	1257,45
415,67	1241,07
415,87	1275,88
416,08	1370,09
416,29	1302,51
416,49	1288,17
416,70	1271,79
416,91	1275,88
417,11	1267,69
417,32	1247,21
417,53	1234,93
417,73	1232,88
417,94	1277,93
418,15	1257,45
418,35	1271,79
418,56	1357,80
418,77	1230,83
418,97	1204,21
419,18	1302,51
419,38	1265,64
419,59	1249,26
419,80	1290,22
420,00	1269,74
420,21	1282,03
420,42	1257,45
420,62	1271,79
420,83	1257,45
421,04	1277,93
421,24	1284,08
421,45	1298,41
421,65	1241,07
421,86	1335,28
422,07	1359,85
422,27	1290,22
422,48	1216,49
422,69	1277,93
422,89	1267,69
423,10	1294,32
423,30	1241,07
423,51	1298,41
423,72	1253,36
423,92	1247,21
424,13	1282,03
424,33	1273,84
424,54	1243,12
424,75	1257,45
424,95	1275,88
425,16	1310,70
425,36	1200,11
425,57	1322,99
425,78	1269,74
425,98	1243,12
426,19	1239,02
426,39	1308,65
426,60	1269,74
426,81	1245,16
427,01	1214,45
427,22	1325,04
427,42	1236,97
427,63	1279,98
427,83	1245,16
428,04	1208,30
428,25	1218,54
428,45	1236,97
428,66	1167,34
428,86	1261,55
429,07	1273,84
429,28	1228,78
429,48	1290,22
429,69	1187,82
429,89	1320,94
430,10	1314,80
430,30	1249,26
430,51	1255,40
430,71	1286,12
430,92	1241,07
431,13	1200,11
431,33	1253,36
431,54	1288,17
431,74	1329,13
431,95	1333,23
432,15	1333,23
432,36	1261,55
432,56	1232,88
432,77	1347,56
432,98	1249,26
433,18	1259,50
433,39	1257,45
433,59	1189,87
433,80	1316,84
434,00	1325,04
434,21	1263,60
434,41	1322,99
434,62	1304,56
434,82	1308,65
435,03	1247,21
435,23	1273,84
435,44	1304,56
435,64	1282,03
435,85	1212,40
436,06	1269,74
436,26	1308,65
436,47	1263,60
436,67	1275,88
436,88	1214,45
437,08	1243,12
437,29	1243,12
437,49	1269,74
437,70	1320,94
437,90	1267,69
438,11	1247,21
438,31	1267,69
438,52	1290,22
438,72	1269,74
438,93	1320,94
439,13	1267,69
439,34	1200,11
439,54	1187,82
439,75	1288,17
439,95	1228,78
440,16	1269,74
440,36	1230,83
440,57	1214,45
440,77	1181,68
440,98	1269,74
441,18	1255,40
441,39	1322,99
441,59	1239,02
441,80	1286,12
442,00	1325,04
442,21	1269,74
442,41	1245,16
442,62	1296,36
442,82	1294,32
443,02	1282,03
443,23	1298,41
443,43	1282,03
443,64	1206,25
443,84	1230,83
444,05	1392,62
444,25	1177,58
444,46	1263,60
444,66	1216,49
444,87	1339,37
445,07	1290,22
445,28	1372,14
445,48	1290,22
445,69	1267,69
445,89	1288,17
446,09	1279,98
446,30	1318,89
446,50	1239,02
446,71	1253,36
446,91	1257,45
447,12	1273,84
447,32	1234,93
447,53	1261,55
447,73	1273,84
447,93	1390,57
448,14	1298,41
448,34	1253,36
448,55	1226,73
448,75	1247,21
448,96	1275,88
449,16	1234,93
449,36	1226,73
449,57	1284,08
449,77	1267,69
449,98	1271,79
450,18	1357,80
450,39	1265,64
450,59	1325,04
450,79	1222,64
451,00	1249,26
451,20	1404,91
451,41	1296,36
451,61	1355,76
451,81	1267,69
452,02	1294,32
452,22	1273,84
452,43	1277,93
452,63	1193,97
452,84	1267,69
453,04	1245,16
453,24	1316,84
453,45	1200,11
453,65	1234,93
453,86	1218,54
454,06	1284,08
454,26	1232,88
454,47	1218,54
454,67	1284,08
454,87	1204,21
455,08	1265,64
455,28	1232,88
455,49	1249,26
455,69	1329,13
455,89	1331,18
456,10	1251,31
456,30	1239,02
456,51	1290,22
456,71	1331,18
456,91	1249,26
457,12	1230,83
457,32	1302,51
457,52	1271,79
457,73	1241,07
457,93	1288,17
458,14	1265,64
458,34	1320,94
458,54	1275,88
458,75	1247,21
458,95	1271,79
459,15	1314,80
459,36	1202,16
459,56	1249,26
459,76	1212,40
459,97	1222,64
460,17	1216,49
460,37	1261,55
460,58	1243,12
460,78	1261,55
460,99	1298,41
461,19	1347,56
461,39	1267,69
461,60	1263,60
461,80	1294,32
462,00	1294,32
462,21	1230,83
462,41	1314,80
462,61	1257,45
462,82	1269,74
463,02	1347,56
463,22	1232,88
463,43	1251,31
463,63	1275,88
463,83	1265,64
464,04	1333,23
464,24	1196,01
464,44	1196,01
464,64	1234,93
464,85	1302,51
465,05	1273,84
465,25	1304,56
465,46	1298,41
465,66	1261,55
465,86	1232,88
466,07	1277,93
466,27	1318,89
466,47	1329,13
466,68	1279,98
466,88	1306,60
467,08	1253,36
467,29	1279,98
467,49	1304,56
467,69	1298,41
467,89	1279,98
468,10	1245,16
468,30	1228,78
468,50	1318,89
468,71	1273,84
468,91	1296,36
469,11	1259,50
469,31	1230,83
469,52	1333,23
469,72	1298,41
469,92	1257,45
470,13	1308,65
470,33	1296,36
470,53	1175,53
470,73	1206,25
470,94	1267,69
471,14	1228,78
471,34	1224,69
471,54	1236,97
471,75	1210,35
471,95	1241,07
472,15	1271,79
472,36	1247,21
472,56	1316,84
472,76	1245,16
472,96	1234,93
473,17	1277,93
473,37	1265,64
473,57	1232,88
473,77	1228,78
473,98	1325,04
474,18	1234,93
474,38	1300,46
474,58	1234,93
474,79	1279,98
474,99	1296,36
475,19	1251,31
475,39	1267,69
475,60	1198,06
475,80	1247,21
476,00	1269,74
476,20	1228,78
476,41	1224,69
476,61	1243,12
476,81	1220,59
477,01	1226,73
477,21	1228,78
477,42	1290,22
477,62	1261,55
477,82	1288,17
478,02	1214,45
478,23	1294,32
478,43	1257,45
478,63	1290,22
478,83	1290,22
479,03	1181,68
479,24	1216,49
479,44	1325,04
479,64	1263,60
479,84	1208,30
480,04	1269,74
480,25	1239,02
480,45	1304,56
480,65	1261,55
480,85	1304,56
481,06	1279,98
481,26	1259,50
481,46	1232,88
481,66	1263,60
481,86	1179,63
482,06	1298,41
482,27	1273,84
482,47	1277,93
482,67	1261,55
482,87	1257,45
483,07	1191,92
483,28	1255,40
483,48	1265,64
483,68	1251,31
483,88	1275,88
484,08	1269,74
484,29	1308,65
484,49	1327,08
484,69	1265,64
484,89	1269,74
485,09	1290,22
485,29	1282,03
485,50	1335,28
485,70	1296,36
485,90	1331,18
486,10	1361,90
486,30	1312,75
486,50	1284,08
486,71	1247,21
486,91	1202,16
487,11	1331,18
487,31	1255,40
487,51	1304,56
487,71	1249,26
487,91	1239,02
488,12	1232,88
488,32	1306,60
488,52	1298,41
488,72	1255,40
488,92	1220,59
489,12	1341,42
489,32	1273,84
489,53	1298,41
489,73	1247,21
489,93	1302,51
490,13	1208,30
490,33	1329,13
490,53	1292,27
490,73	1288,17
490,94	1216,49
491,14	1288,17
491,34	1198,06
491,54	1308,65
491,74	1241,07
491,94	1273,84
492,14	1253,36
492,34	1320,94
492,54	1286,12
492,75	1261,55
492,95	1318,89
493,15	1345,52
493,35	1263,60
493,55	1277,93
493,75	1239,02
493,95	1273,84
494,15	1261,55
494,35	1208,30
494,56	1187,82
494,76	1243,12
494,96	1312,75
495,16	1286,12
495,36	1212,40
495,56	1267,69
495,76	1257,45
495,96	1271,79
496,16	1257,45
496,36	1232,88
496,56	1232,88
496,77	1261,55
496,97	1286,12
497,17	1257,45
497,37	1322,99
497,57	1273,84
497,77	1298,41
497,97	1263,60
498,17	1208,30
498,37	1279,98
498,57	1232,88
498,77	1236,97
498,97	1286,12
499,17	1322,99
499,38	1302,51
499,58	1275,88
499,78	1247,21
499,98	1251,31
500,18	1249,26
500,38	1292,27
500,58	1290,22
500,78	1265,64
500,98	1292,27
501,18	1236,97
501,38	1288,17
501,58	1232,88
501,78	1292,27
501,98	1202,16
502,18	1228,78
502,38	1249,26
502,58	1327,08
502,78	1249,26
502,98	1294,32
503,18	1275,88
503,38	1279,98
503,59	1290,22
503,79	1290,22
503,99	1282,03
504,19	1343,47
504,39	1306,60
504,59	1302,51
504,79	1304,56
504,99	1288,17
505,19	1275,88
505,39	1208,30
505,59	1298,41
505,79	1306,60
505,99	1306,60
506,19	1232,88
506,39	1312,75
506,59	1236,97
506,79	1251,31
506,99	1222,64
507,19	1322,99
507,39	1273,84
507,59	1286,12
507,79	1257,45
507,99	1316,84
508,19	1232,88
508,39	1286,12
508,59	1318,89
508,79	1273,84
508,99	1216,49
509,19	1312,75
509,39	1212,40
509,59	1251,31
509,79	1206,25
509,99	1243,12
510,19	1304,56
510,39	1304,56
510,59	1341,42
510,79	1275,88
510,99	1273,84
511,19	1331,18
511,39	1255,40
511,59	1269,74
511,79	1316,84
511,99	1249,26
512,19	1236,97
512,38	1249,26
512,58	1253,36
512,78	1275,88
512,98	1292,27
513,18	1284,08
513,38	1239,02
513,58	1331,18
513,78	1345,52
513,98	1267,69
514,18	1320,94
514,38	1159,15
514,58	1232,88
514,78	1286,12
514,98	1243,12
515,18	1267,69
515,38	1253,36
515,58	1263,60
515,78	1259,50
515,98	1271,79
516,18	1226,73
516,38	1298,41
516,57	1206,25
516,77	1253,36
516,97	1318,89
517,17	1273,84
517,37	1294,32
517,57	1300,46
517,77	1183,73
517,97	1185,77
518,17	1322,99
518,37	1257,45
518,57	1265,64
518,77	1312,75
518,97	1259,50
519,16	1284,08
519,36	1261,55
519,56	1241,07
519,76	1290,22
519,96	1282,03
520,16	1290,22
520,36	1230,83
520,56	1234,93
520,76	1236,97
520,96	1218,54
521,16	1210,35
521,35	1286,12
521,55	1298,41
521,75	1322,99
521,95	1239,02
522,15	1335,28
522,35	1284,08
522,55	1243,12
522,75	1327,08
522,95	1298,41
523,14	1243,12
523,34	1249,26
523,54	1255,40
523,74	1267,69
523,94	1314,80
524,14	1308,65
524,34	1245,16
524,54	1282,03
524,73	1249,26
524,93	1286,12
525,13	1251,31
525,33	1267,69
525,53	1241,07
525,73	1312,75
525,93	1273,84
526,13	1298,41
526,32	1230,83
526,52	1232,88
526,72	1277,93
526,92	1255,40
527,12	1308,65
527,32	1255,40
527,52	1267,69
527,71	1255,40
527,91	1290,22
528,11	1183,73
528,31	1263,60
528,51	1286,12
528,71	1300,46
528,90	1304,56
529,10	1302,51
529,30	1261,55
529,50	1239,02
529,70	1257,45
529,90	1257,45
530,09	1265,64
530,29	1230,83
530,49	1294,32
530,69	1239,02
530,89	1222,64
531,09	1310,70
531,28	1322,99
531,48	1273,84
531,68	1275,88
531,88	1273,84
532,08	1263,60
532,28	1216,49
532,47	1226,73
532,67	1257,45
532,87	1220,59
533,07	1251,31
533,27	1277,93
533,46	1275,88
533,66	1273,84
533,86	1368,04
534,06	1286,12
534,26	1341,42
534,45	1370,09
534,65	1261,55
534,85	1216,49
535,05	1282,03
535,25	1245,16
535,44	1253,36
535,64	1249,26
535,84	1218,54
536,04	1277,93
536,24	1277,93
536,43	1304,56
536,63	1267,69
536,83	1286,12
537,03	1308,65
537,22	1208,30
537,42	1277,93
537,62	1275,88
537,82	1214,45
538,02	1269,74
538,21	1249,26
538,41	1216,49
538,61	1236,97
538,81	1329,13
539,00	1282,03
539,20	1267,69
539,40	1247,21
539,60	1304,56
539,79	1263,60
539,99	1259,50
540,19	1302,51
540,39	1255,40
540,58	1228,78
540,78	1208,30
540,98	1243,12
541,18	1241,07
541,37	1279,98
541,57	1261,55
541,77	1228,78
541,97	1257,45
542,16	1247,21
542,36	1318,89
542,56	1245,16
542,76	1298,41
542,95	1265,64
543,15	1290,22
543,35	1296,36
543,54	1286,12
543,74	1226,73
543,94	1306,60
544,14	1179,63
544,33	1322,99
544,53	1269,74
544,73	1228,78
544,93	1163,25
545,12	1247,21
545,32	1277,93
545,52	1241,07
545,71	1279,98
545,91	1306,60
546,11	1312,75
546,30	1265,64
546,50	1314,80
546,70	1327,08
546,90	1275,88
547,09	1249,26
547,29	1236,97
547,49	1296,36
547,68	1310,70
547,88	1255,40
548,08	1222,64
548,27	1265,64
548,47	1271,79
548,67	1243,12
548,87	1234,93
549,06	1255,40
549,26	1277,93
549,46	1279,98
549,65	1226,73
549,85	1185,77
550,05	1282,03
550,24	1159,15
550,44	1284,08
550,64	1247,21
550,83	1322,99
551,03	1277,93
551,23	1282,03
551,42	1224,69
551,62	1253,36
551,82	1282,03
552,01	1282,03
552,21	1304,56
552,41	1261,55
552,60	1245,16
552,80	1284,08
553,00	1210,35
553,19	1329,13
553,39	1284,08
553,59	1335,28
553,78	1206,25
553,98	1243,12
554,17	1224,69
554,37	1282,03
554,57	1249,26
554,76	1282,03
554,96	1263,60
555,16	1200,11
555,35	1306,60
555,55	1282,03
555,75	1245,16
555,94	1361,90
556,14	1243,12
556,33	1292,27
556,53	1273,84
556,73	1279,98
556,92	1208,30
557,12	1288,17
557,32	1255,40
557,51	1310,70
557,71	1239,02
557,90	1165,29
558,10	1259,50
558,30	1263,60
558,49	1294,32
558,69	1263,60
558,88	1343,47
559,08	1261,55
559,28	1294,32
559,47	1255,40
559,67	1337,32
559,86	1304,56
560,06	1210,35
560,26	1279,98
560,45	1245,16
560,65	1212,40
560,84	1288,17
561,04	1257,45
561,24	1339,37
561,43	1255,40
561,63	1318,89
561,82	1265,64
562,02	1318,89
562,22	1210,35
562,41	1241,07
562,61	1286,12
562,80	1265,64
563,00	1308,65
563,19	1267,69
563,39	1318,89
563,59	1271,79
563,78	1261,55
563,98	1236,97
564,17	1310,70
564,37	1300,46
564,56	1314,80
564,76	1216,49
564,96	1282,03
565,15	1310,70
565,35	1196,01
565,54	1279,98
565,74	1241,07
565,93	1269,74
566,13	1251,31
566,32	1247,21
566,52	1271,79
566,71	1222,64
566,91	1241,07
567,11	1257,45
567,30	1249,26
567,50	1269,74
567,69	1265,64
567,89	1302,51
568,08	1255,40
568,28	1265,64
568,47	1271,79
568,67	1275,88
568,86	1257,45
569,06	1325,04
569,25	1286,12
569,45	1304,56
569,64	1273,84
569,84	1275,88
570,04	1247,21
570,23	1349,61
570,43	1214,45
570,62	1253,36
570,82	1290,22
571,01	1290,22
571,21	1318,89
571,40	1302,51
571,60	1374,19
571,79	1208,30
571,99	1273,84
572,18	1284,08
572,38	1265,64
572,57	1284,08
572,77	1232,88
572,96	1310,70
573,16	1243,12
573,35	1230,83
573,55	1230,83
573,74	1236,97
573,94	1230,83
574,13	1294,32
574,33	1288,17
574,52	1279,98
574,71	1220,59
574,91	1241,07
575,10	1306,60
575,30	1247,21
575,49	1259,50
575,69	1165,29
575,88	1286,12
576,08	1218,54
576,27	1261,55
576,47	1261,55
576,66	1284,08
576,86	1271,79
577,05	1273,84
577,25	1175,53
577,44	1232,88
577,64	1292,27
577,83	1273,84
578,02	1230,83
578,22	1298,41
578,41	1333,23
578,61	1275,88
578,80	1265,64
579,00	1267,69
579,19	1292,27
579,39	1265,64
579,58	1261,55
579,77	1290,22
579,97	1214,45
580,16	1247,21
580,36	1298,41
580,55	1236,97
580,75	1284,08
580,94	1247,21
581,13	1261,55
581,33	1368,04
581,52	1269,74
581,72	1275,88
581,91	1306,60
582,11	1353,71
582,30	1331,18
582,49	1308,65
582,69	1343,47
582,88	1322,99
583,08	1306,60
583,27	1257,45
583,47	1263,60
583,66	1220,59
583,85	1277,93
584,05	1275,88
584,24	1271,79
584,44	1290,22
584,63	1312,75
584,82	1230,83
585,02	1294,32
585,21	1263,60
585,41	1251,31
585,60	1263,60
585,79	1296,36
585,99	1212,40
586,18	1263,60
586,37	1269,74
586,57	1273,84
586,76	1253,36
586,96	1224,69
587,15	1296,36
587,34	1255,40
587,54	1241,07
587,73	1286,12
587,93	1230,83
588,12	1325,04
588,31	1212,40
588,51	1253,36
588,70	1261,55
588,89	1224,69
589,09	1282,03
589,28	1284,08
589,47	1247,21
589,67	1282,03
589,86	1228,78
590,06	1333,23
590,25	1255,40
590,44	1222,64
590,64	1347,56
590,83	1273,84
591,02	1232,88
591,22	1232,88
591,41	1288,17
591,60	1245,16
591,80	1224,69
591,99	1257,45
592,18	1259,50
592,38	1234,93
592,57	1294,32
592,76	1335,28
592,96	1337,32
593,15	1288,17
593,34	1314,80
593,54	1230,83
593,73	1273,84
593,92	1308,65
594,12	1269,74
594,31	1290,22
594,50	1290,22
594,70	1302,51
594,89	1327,08
595,08	1284,08
595,28	1234,93
595,47	1265,64
595,66	1261,55
595,86	1318,89
596,05	1312,75
596,24	1263,60
596,43	1322,99
596,63	1232,88
596,82	1320,94
597,01	1204,21
597,21	1247,21
597,40	1279,98
597,59	1329,13
597,79	1300,46
597,98	1304,56
598,17	1239,02
598,36	1288,17
598,56	1239,02
598,75	1257,45
598,94	1234,93
599,14	1327,08
599,33	1251,31
599,52	1259,50
599,71	1282,03
599,91	1306,60
600,10	1314,80
600,29	1370,09
600,48	1222,64
600,68	1241,07
600,87	1337,32
601,06	1249,26
601,26	1198,06
601,45	1357,80
601,64	1243,12
601,83	1304,56
602,03	1224,69
602,22	1228,78
602,41	1273,84
602,60	1310,70
602,80	1300,46
602,99	1304,56
603,18	1282,03
603,37	1296,36
603,57	1243,12
603,76	1265,64
603,95	1253,36
604,14	1224,69
604,34	1204,21
604,53	1325,04
604,72	1230,83
604,91	1290,22
605,10	1277,93
605,30	1263,60
605,49	1322,99
605,68	1245,16
605,87	1247,21
606,07	1263,60
606,26	1267,69
606,45	1347,56
606,64	1290,22
606,84	1308,65
607,03	1255,40
607,22	1265,64
607,41	1290,22
607,60	1282,03
607,80	1259,50
607,99	1327,08
608,18	1294,32
608,37	1241,07
608,56	1218,54
608,76	1271,79
608,95	1259,50
609,14	1282,03
609,33	1300,46
609,52	1286,12
609,72	1273,84
609,91	1314,80
610,10	1224,69
610,29	1255,40
610,48	1333,23
610,68	1335,28
610,87	1290,22
611,06	1314,80
611,25	1302,51
611,44	1267,69
611,63	1286,12
611,83	1316,84
612,02	1230,83
612,21	1204,21
612,40	1259,50
612,59	1310,70
612,79	1218,54
612,98	1312,75
613,17	1290,22
613,36	1269,74
613,55	1216,49
613,74	1279,98
613,93	1286,12
614,13	1279,98
614,32	1306,60
614,51	1249,26
614,70	1300,46
614,89	1314,80
615,08	1185,77
615,28	1275,88
615,47	1243,12
615,66	1273,84
615,85	1208,30
616,04	1300,46
616,23	1273,84
616,42	1279,98
616,62	1255,40
616,81	1269,74
617,00	1241,07
617,19	1345,52
617,38	1210,35
617,57	1282,03
617,76	1300,46
617,95	1247,21
618,15	1232,88
618,34	1275,88
618,53	1312,75
618,72	1282,03
618,91	1222,64
619,10	1325,04
619,29	1294,32
619,48	1245,16
619,68	1288,17
619,87	1257,45
620,06	1239,02
620,25	1304,56
620,44	1359,85
620,63	1296,36
620,82	1308,65
621,01	1288,17
621,20	1306,60
621,39	1359,85
621,59	1314,80
621,78	1294,32
621,97	1271,79
622,16	1277,93
622,35	1236,97
622,54	1279,98
622,73	1286,12
622,92	1257,45
623,11	1232,88
623,30	1296,36
623,49	1290,22
623,68	1294,32
623,88	1302,51
624,07	1273,84
624,26	1251,31
624,45	1210,35
624,64	1247,21
624,83	1284,08
625,02	1236,97
625,21	1249,26
625,40	1277,93
625,59	1284,08
625,78	1249,26
625,97	1208,30
626,16	1271,79
626,35	1318,89
626,54	1269,74
626,74	1286,12
626,93	1185,77
627,12	1308,65
627,31	1302,51
627,50	1206,25
627,69	1277,93
627,88	1294,32
628,07	1265,64
628,26	1335,28
628,45	1290,22
628,64	1284,08
628,83	1230,83
629,02	1288,17
629,21	1210,35
629,40	1251,31
629,59	1308,65
629,78	1277,93
629,97	1243,12
630,16	1296,36
630,35	1232,88
630,54	1327,08
630,73	1261,55
630,92	1327,08
631,11	1318,89
631,30	1300,46
631,49	1339,37
631,68	1431,53
631,87	1390,57
632,06	1404,91
632,25	1437,67
632,44	1419,24
632,63	1478,63
632,82	1417,19
633,01	1492,97
633,20	1499,11
633,39	1404,91
633,58	1366,00
633,77	1359,85
633,96	1390,57
634,15	1495,02
634,34	1435,63
634,53	1435,63
634,72	1400,81
634,91	1406,95
635,10	1492,97
635,29	1431,53
635,48	1507,30
635,67	1415,15
635,86	1507,30
636,05	1439,72
636,24	1490,92
636,43	1374,19
636,62	1456,11
636,81	1398,76
637,00	1417,19
637,19	1380,33
637,38	1363,95
637,57	1308,65
637,76	1339,37
637,95	1294,32
638,14	1263,60
638,33	1318,89
638,52	1265,64
638,71	1212,40
638,89	1290,22
639,08	1312,75
639,27	1327,08
639,46	1310,70
639,65	1275,88
639,84	1277,93
640,03	1253,36
640,22	1245,16
640,41	1308,65
640,60	1226,73
640,79	1247,21
640,98	1316,84
641,17	1263,60
641,36	1300,46
641,55	1296,36
641,74	1228,78
641,92	1277,93
642,11	1343,47
642,30	1173,49
642,49	1234,93
642,68	1224,69
642,87	1347,56
643,06	1257,45
643,25	1261,55
643,44	1290,22
643,63	1353,71
643,82	1236,97
644,00	1220,59
644,19	1306,60
644,38	1304,56
644,57	1320,94
644,76	1288,17
644,95	1290,22
645,14	1259,50
645,33	1255,40
645,52	1218,54
645,71	1220,59
645,89	1243,12
646,08	1306,60
646,27	1288,17
646,46	1232,88
646,65	1214,45
646,84	1308,65
647,03	1294,32
647,22	1308,65
647,40	1296,36
647,59	1312,75
647,78	1230,83
647,97	1363,95
648,16	1329,13
648,35	1216,49
648,54	1329,13
648,73	1230,83
648,91	1245,16
649,10	1279,98
649,29	1282,03
649,48	1269,74
649,67	1273,84
649,86	1279,98
650,05	1310,70
650,23	1304,56
650,42	1302,51
650,61	1249,26
650,80	1247,21
650,99	1265,64
651,18	1329,13
651,36	1302,51
651,55	1271,79
651,74	1239,02
651,93	1261,55
652,12	1265,64
652,31	1314,80
652,49	1243,12
652,68	1249,26
652,87	1282,03
653,06	1216,49
653,25	1259,50
653,44	1257,45
653,62	1339,37
653,81	1273,84
654,00	1284,08
654,19	1288,17
654,38	1247,21
654,56	1277,93
654,75	1208,30
654,94	1230,83
655,13	1267,69
655,32	1232,88
655,51	1279,98
655,69	1243,12
655,88	1210,35
656,07	1320,94
656,26	1271,79
656,45	1349,61
656,63	1263,60
656,82	1191,92
657,01	1261,55
657,20	1288,17
657,38	1331,18
657,57	1265,64
657,76	1265,64
657,95	1275,88
658,14	1265,64
658,32	1269,74
658,51	1263,60
658,70	1357,80
658,89	1224,69
659,08	1286,12
659,26	1222,64
659,45	1277,93
659,64	1310,70
659,83	1279,98
660,01	1259,50
660,20	1318,89
660,39	1290,22
660,58	1200,11
660,76	1302,51
660,95	1288,17
661,14	1265,64
661,33	1300,46
661,51	1331,18
661,70	1234,93
661,89	1249,26
662,08	1298,41
662,26	1261,55
662,45	1277,93
662,64	1269,74
662,83	1337,32
663,01	1212,40
663,20	1232,88
663,39	1325,04
663,58	1318,89
663,76	1279,98
663,95	1253,36
664,14	1243,12
664,32	1214,45
664,51	1200,11
664,70	1257,45
664,89	1290,22
665,07	1257,45
665,26	1327,08
665,45	1290,22
665,64	1304,56
665,82	1216,49
666,01	1316,84
666,20	1247,21
666,38	1318,89
666,57	1200,11
666,76	1284,08
666,95	1282,03
667,13	1290,22
667,32	1288,17
667,51	1263,60
667,69	1282,03
667,88	1284,08
668,07	1265,64
668,25	1288,17
668,44	1322,99
668,63	1247,21
668,81	1290,22
669,00	1241,07
669,19	1279,98
669,38	1277,93
669,56	1337,32
669,75	1200,11
669,94	1261,55
670,12	1255,40
670,31	1224,69
670,50	1230,83
670,68	1327,08
670,87	1273,84
671,06	1294,32
671,24	1306,60
671,43	1423,34
671,62	1333,23
671,80	1220,59
671,99	1249,26
672,18	1314,80
672,36	1331,18
672,55	1284,08
672,74	1314,80
672,92	1318,89
673,11	1261,55
673,29	1228,78
673,48	1251,31
673,67	1245,16
673,85	1275,88
674,04	1214,45
674,23	1312,75
674,41	1271,79
674,60	1302,51
674,79	1304,56
674,97	1279,98
675,16	1282,03
675,34	1300,46
675,53	1251,31
675,72	1179,63
675,90	1349,61
676,09	1255,40
676,28	1300,46
676,46	1286,12
676,65	1257,45
676,83	1232,88
677,02	1298,41
677,21	1212,40
677,39	1284,08
677,58	1263,60
677,77	1255,40
677,95	1265,64
678,14	1271,79
678,32	1251,31
678,51	1292,27
678,70	1325,04
678,88	1228,78
679,07	1271,79
679,25	1263,60
679,44	1279,98
679,63	1247,21
679,81	1222,64
680,00	1255,40
680,18	1196,01
680,37	1273,84
680,55	1228,78
680,74	1271,79
680,93	1306,60
681,11	1286,12
681,30	1255,40
681,48	1306,60
681,67	1234,93
681,85	1316,84
682,04	1347,56
682,23	1255,40
682,41	1288,17
682,60	1251,31
682,78	1290,22
682,97	1290,22
683,15	1232,88
683,34	1296,36
683,53	1300,46
683,71	1290,22
683,90	1331,18
684,08	1261,55
684,27	1261,55
684,45	1331,18
684,64	1277,93
684,82	1302,51
685,01	1320,94
685,19	1271,79
685,38	1310,70
685,57	1372,14
685,75	1306,60
685,94	1282,03
686,12	1304,56
686,31	1232,88
686,49	1341,42
686,68	1271,79
686,86	1239,02
687,05	1239,02
687,23	1335,28
687,42	1314,80
687,60	1290,22
687,79	1269,74
687,97	1271,79
688,16	1263,60
688,34	1267,69
688,53	1327,08
688,71	1304,56
688,90	1253,36
689,08	1255,40
689,27	1329,13
689,45	1249,26
689,64	1277,93
689,82	1284,08
690,01	1292,27
690,19	1353,71
690,38	1200,11
690,56	1271,79
690,75	1226,73
690,93	1196,01
691,12	1322,99
691,30	1269,74
691,49	1243,12
691,67	1181,68
691,86	1271,79
692,04	1279,98
692,23	1284,08
692,41	1259,50
692,60	1325,04
692,78	1247,21
692,97	1327,08
693,15	1265,64
693,34	1302,51
693,52	1179,63
693,71	1255,40
693,89	1251,31
694,08	1267,69
694,26	1265,64
694,44	1286,12
694,63	1239,02
694,81	1380,33
695,00	1312,75
695,18	1253,36
695,37	1247,21
695,55	1224,69
695,74	1247,21
695,92	1259,50
696,10	1265,64
696,29	1265,64
696,47	1277,93
696,66	1300,46
696,84	1329,13
697,03	1273,84
697,21	1298,41
697,40	1275,88
697,58	1251,31
697,76	1228,78
697,95	1335,28
698,13	1259,50
698,32	1277,93
698,50	1208,30
698,68	1218,54
698,87	1255,40
699,05	1277,93
699,24	1249,26
699,42	1255,40
699,61	1222,64
699,79	1327,08
699,97	1265,64
700,16	1271,79
700,34	1284,08
700,53	1294,32
700,71	1230,83
700,89	1333,23
701,08	1257,45
701,26	1275,88
701,45	1366,00
701,63	1206,25
701,81	1239,02
702,00	1220,59
702,18	1298,41
702,37	1310,70
702,55	1259,50
702,73	1296,36
702,92	1245,16
703,10	1273,84
703,28	1296,36
703,47	1312,75
703,65	1288,17
703,84	1337,32
704,02	1310,70
704,20	1265,64
704,39	1253,36
704,57	1273,84
704,75	1253,36
704,94	1241,07
705,12	1261,55
705,30	1322,99
705,49	1234,93
705,67	1165,29
705,86	1253,36
706,04	1261,55
706,22	1271,79
706,41	1316,84
706,59	1245,16
706,77	1241,07
706,96	1230,83
707,14	1257,45
707,32	1271,79
707,51	1310,70
707,69	1245,16
707,87	1306,60
708,06	1277,93
708,24	1191,92
708,42	1249,26
708,61	1286,12
708,79	1271,79
708,97	1261,55
709,16	1224,69
709,34	1290,22
709,52	1341,42
709,71	1267,69
709,89	1247,21
710,07	1253,36
710,26	1247,21
710,44	1308,65
710,62	1269,74
710,80	1314,80
710,99	1218,54
711,17	1257,45
711,35	1300,46
711,54	1322,99
711,72	1259,50
711,90	1277,93
712,09	1275,88
712,27	1337,32
712,45	1245,16
712,63	1259,50
712,82	1226,73
713,00	1345,52
713,18	1236,97
713,37	1236,97
713,55	1286,12
713,73	1320,94
713,91	1267,69
714,10	1265,64
714,28	1253,36
714,46	1288,17
714,65	1214,45
714,83	1259,50
715,01	1277,93
715,19	1255,40
715,38	1224,69
715,56	1241,07
715,74	1257,45
715,92	1282,03
716,11	1300,46
716,29	1271,79
716,47	1292,27
716,65	1206,25
716,84	1290,22
717,02	1290,22
717,20	1329,13
717,38	1322,99
717,57	1277,93
717,75	1282,03
717,93	1310,70
718,11	1241,07
718,30	1255,40
718,48	1259,50
718,66	1222,64
718,84	1251,31
719,03	1226,73
719,21	1288,17
719,39	1333,23
719,57	1329,13
719,75	1374,19
719,94	1286,12
720,12	1224,69
720,30	1282,03
720,48	1222,64
720,67	1267,69
720,85	1298,41
721,03	1257,45
721,21	1314,80
721,39	1239,02
721,58	1232,88
721,76	1298,41
721,94	1310,70
722,12	1206,25
722,30	1343,47
722,49	1214,45
722,67	1306,60
722,85	1275,88
723,03	1212,40
723,21	1259,50
723,40	1163,25
723,58	1239,02
723,76	1236,97
723,94	1271,79
724,12	1196,01
724,30	1288,17
724,49	1290,22
724,67	1241,07
724,85	1279,98
725,03	1304,56
725,21	1269,74
725,40	1292,27
725,58	1249,26
725,76	1241,07
725,94	1241,07
726,12	1273,84
726,30	1294,32
726,49	1241,07
726,67	1290,22
726,85	1267,69
727,03	1239,02
727,21	1298,41
727,39	1290,22
727,57	1314,80
727,76	1251,31
727,94	1210,35
728,12	1204,21
728,30	1316,84
728,48	1245,16
728,66	1275,88
728,84	1245,16
729,03	1302,51
729,21	1329,13
729,39	1241,07
729,57	1187,82
729,75	1257,45
729,93	1230,83
730,11	1249,26
730,30	1230,83
730,48	1282,03
730,66	1292,27
730,84	1277,93
731,02	1222,64
731,20	1292,27
731,38	1185,77
731,56	1294,32
731,74	1269,74
731,93	1265,64
732,11	1304,56
732,29	1329,13
732,47	1329,13
732,65	1214,45
732,83	1320,94
733,01	1288,17
733,19	1265,64
733,37	1269,74
733,56	1296,36
733,74	1353,71
733,92	1277,93
734,10	1212,40
734,28	1290,22
734,46	1226,73
734,64	1265,64
734,82	1339,37
735,00	1359,85
735,18	1275,88
735,36	1312,75
735,54	1239,02
735,73	1204,21
735,91	1265,64
736,09	1267,69
736,27	1228,78
736,45	1257,45
736,63	1273,84
736,81	1245,16
736,99	1220,59
737,17	1290,22
737,35	1204,21
737,53	1359,85
737,71	1325,04
737,89	1273,84
738,07	1243,12
738,25	1228,78
738,43	1347,56
738,61	1241,07
738,80	1308,65
738,98	1286,12
739,16	1296,36
739,34	1290,22
739,52	1300,46
739,70	1310,70
739,88	1284,08
740,06	1265,64
740,24	1251,31
740,42	1279,98
740,60	1275,88
740,78	1259,50
740,96	1267,69
741,14	1206,25
741,32	1263,60
741,50	1275,88
741,68	1304,56
741,86	1294,32
742,04	1318,89
742,22	1232,88
742,40	1257,45
742,58	1277,93
742,76	1226,73
742,94	1234,93
743,12	1322,99
743,30	1286,12
743,48	1273,84
743,66	1322,99
743,84	1279,98
744,02	1265,64
744,20	1269,74
744,38	1245,16
744,56	1304,56
744,74	1247,21
744,92	1249,26
745,10	1282,03
745,28	1277,93
745,46	1290,22
745,64	1277,93
745,82	1208,30
746,00	1314,80
746,18	1245,16
746,36	1290,22
746,54	1218,54
746,72	1288,17
746,90	1271,79
747,08	1308,65
747,26	1257,45
747,44	1267,69
747,62	1247,21
747,80	1232,88
747,98	1245,16
748,15	1314,80
748,33	1300,46
748,51	1271,79
748,69	1210,35
748,87	1261,55
749,05	1263,60
749,23	1331,18
749,41	1279,98
749,59	1275,88
749,77	1310,70
749,95	1230,83
750,13	1253,36
750,31	1200,11
750,49	1290,22
750,67	1302,51
750,85	1294,32
751,03	1241,07
751,20	1273,84
751,38	1200,11
751,56	1304,56
751,74	1249,26
751,92	1275,88
752,10	1228,78
752,28	1310,70
752,46	1284,08
752,64	1239,02
752,82	1277,93
753,00	1271,79
753,18	1236,97
753,35	1249,26
753,53	1290,22
753,71	1249,26
753,89	1271,79
754,07	1236,97
754,25	1269,74
754,43	1284,08
754,61	1304,56
754,79	1273,84
754,97	1306,60
755,14	1294,32
755,32	1306,60
755,50	1251,31
755,68	1234,93
755,86	1286,12
756,04	1261,55
756,22	1234,93
756,40	1271,79
756,57	1349,61
756,75	1220,59
756,93	1286,12
757,11	1306,60
757,29	1249,26
757,47	1251,31
757,65	1216,49
757,82	1216,49
758,00	1284,08
758,18	1288,17
758,36	1288,17
758,54	1259,50
758,72	1255,40
758,90	1304,56
759,07	1296,36
759,25	1318,89
759,43	1167,34
759,61	1247,21
759,79	1370,09
759,97	1286,12
760,15	1275,88
760,32	1234,93
760,50	1257,45
760,68	1341,42
760,86	1251,31
761,04	1255,40
761,22	1247,21
761,39	1282,03
761,57	1251,31
761,75	1234,93
761,93	1296,36
762,11	1294,32
762,28	1329,13
762,46	1202,16
762,64	1308,65
762,82	1286,12
763,00	1290,22
763,18	1279,98
763,35	1226,73
763,53	1257,45
763,71	1259,50
763,89	1253,36
764,07	1282,03
764,24	1267,69
764,42	1327,08
764,60	1298,41
764,78	1292,27
764,96	1249,26
765,13	1302,51
765,31	1214,45
765,49	1257,45
765,67	1310,70
765,84	1239,02
766,02	1306,60
766,20	1261,55
766,38	1263,60
766,56	1245,16
766,73	1271,79
766,91	1247,21
767,09	1288,17
767,27	1202,16
767,44	1273,84
767,62	1198,06
767,80	1322,99
767,98	1288,17
768,15	1304,56
768,33	1255,40
768,51	1290,22
768,69	1265,64
768,87	1230,83
769,04	1271,79
769,22	1316,84
769,40	1263,60
769,58	1255,40
769,75	1339,37
769,93	1316,84
770,11	1218,54
770,28	1189,87
770,46	1273,84
770,64	1267,69
770,82	1261,55
770,99	1236,97
771,17	1212,40
771,35	1284,08
771,53	1310,70
771,70	1247,21
771,88	1214,45
772,06	1282,03
772,23	1288,17
772,41	1318,89
772,59	1216,49
772,77	1308,65
772,94	1296,36
773,12	1228,78
773,30	1253,36
773,47	1271,79
773,65	1343,47
773,83	1261,55
774,01	1249,26
774,18	1255,40
774,36	1185,77
774,54	1318,89
774,71	1245,16
774,89	1212,40
775,07	1337,32
775,24	1224,69
775,42	1306,60
775,60	1312,75
775,78	1249,26
775,95	1263,60
776,13	1234,93
776,31	1191,92
776,48	1249,26
776,66	1286,12
776,84	1257,45
777,01	1277,93
777,19	1296,36
777,37	1208,30
777,54	1290,22
777,72	1255,40
777,90	1251,31
778,07	1322,99
778,25	1249,26
778,43	1288,17
778,60	1288,17
778,78	1310,70
778,96	1337,32
779,13	1234,93
779,31	1247,21
779,49	1347,56
779,66	1288,17
779,84	1232,88
780,01	1249,26
780,19	1257,45
780,37	1314,80
780,54	1257,45
780,72	1298,41
780,90	1320,94
781,07	1232,88
781,25	1282,03
781,43	1259,50
781,60	1273,84
781,78	1355,76
781,95	1298,41
782,13	1312,75
782,31	1284,08
782,48	1292,27
782,66	1236,97
782,83	1230,83
783,01	1290,22
783,19	1308,65
783,36	1298,41
783,54	1222,64
783,72	1259,50
783,89	1320,94
784,07	1290,22
784,24	1302,51
784,42	1333,23
784,60	1279,98
784,77	1239,02
784,95	1212,40
785,12	1241,07
785,30	1267,69
785,47	1300,46
785,65	1228,78
785,83	1232,88
786,00	1257,45
786,18	1290,22
786,35	1206,25
786,53	1263,60
786,71	1191,92
786,88	1263,60
787,06	1247,21
787,23	1298,41
787,41	1159,15
787,58	1310,70
787,76	1239,02
787,94	1257,45
788,11	1372,14
788,29	1232,88
788,46	1279,98
788,64	1255,40
788,81	1288,17
788,99	1292,27
789,16	1226,73
789,34	1320,94
789,52	1255,40
789,69	1224,69
789,87	1216,49
790,04	1302,51
790,22	1286,12
790,39	1255,40
790,57	1257,45
790,74	1214,45
790,92	1318,89
791,09	1198,06
791,27	1265,64
791,44	1255,40
791,62	1236,97
791,79	1267,69
791,97	1290,22
792,15	1310,70
792,32	1267,69
792,50	1296,36
792,67	1327,08
792,85	1314,80
793,02	1290,22
793,20	1220,59
793,37	1243,12
793,55	1282,03
793,72	1261,55
793,90	1243,12
794,07	1243,12
794,25	1220,59
794,42	1282,03
794,60	1220,59
794,77	1310,70
794,95	1251,31
795,12	1279,98
795,30	1298,41
795,47	1302,51
795,65	1247,21
795,82	1251,31
796,00	1224,69
796,17	1249,26
796,34	1286,12
796,52	1271,79
796,69	1298,41
796,87	1292,27
797,04	1314,80
797,22	1316,84
797,39	1290,22
797,57	1312,75
797,74	1245,16
797,92	1300,46
798,09	1327,08
798,27	1239,02
798,44	1298,41
798,62	1251,31
798,79	1232,88
798,96	1327,08
799,14	1200,11
799,31	1312,75
799,49	1363,95
799,66	1232,88
799,84	1214,45
800,01	1302,51
800,19	1353,71
800,36	1247,21
800,53	1298,41
800,71	1300,46
800,88	1230,83
801,06	1277,93
801,23	1269,74
801,41	1296,36
801,58	1259,50
801,75	1228,78
801,93	1263,60
802,10	1216,49
802,28	1198,06
802,45	1304,56
802,63	1236,97
802,80	1265,64
802,97	1318,89
803,15	1294,32
803,32	1277,93
803,50	1230,83
803,67	1279,98
803,84	1261,55
804,02	1273,84
804,19	1239,02
804,37	1247,21
804,54	1245,16
804,71	1198,06
804,89	1255,40
805,06	1265,64
805,24	1247,21
805,41	1218,54
805,58	1337,32
805,76	1300,46
805,93	1296,36
806,10	1263,60
806,28	1314,80
806,45	1300,46
806,63	1279,98
806,80	1232,88
806,97	1265,64
807,15	1255,40
807,32	1263,60
807,49	1206,25
807,67	1226,73
807,84	1298,41
808,01	1220,59
808,19	1265,64
808,36	1232,88
808,54	1329,13
808,71	1294,32
808,88	1243,12
809,06	1265,64
809,23	1247,21
809,40	1261,55
809,58	1314,80
809,75	1339,37
809,92	1345,52
810,10	1282,03
810,27	1331,18
810,44	1296,36
810,62	1251,31
810,79	1253,36
810,96	1282,03
811,14	1249,26
811,31	1224,69
811,48	1316,84
811,66	1282,03
811,83	1275,88
812,00	1265,64
812,18	1261,55
812,35	1226,73
812,52	1296,36
812,69	1275,88
812,87	1245,16
813,04	1277,93
813,21	1302,51
813,39	1314,80
813,56	1257,45
813,73	1234,93
813,91	1236,97
814,08	1302,51
814,25	1294,32
814,42	1275,88
814,60	1312,75
814,77	1269,74
814,94	1232,88
815,12	1236,97
815,29	1359,85
815,46	1200,11
815,63	1189,87
815,81	1267,69
815,98	1251,31
816,15	1251,31
816,33	1306,60
816,50	1253,36
816,67	1277,93
816,84	1236,97
817,02	1318,89
817,19	1263,60
817,36	1290,22
817,53	1216,49
817,71	1370,09
817,88	1275,88
818,05	1243,12
818,22	1249,26
818,40	1271,79
818,57	1232,88
818,74	1312,75
818,91	1304,56
819,09	1222,64
819,26	1306,60
819,43	1269,74
819,60	1306,60
819,78	1296,36
819,95	1263,60
820,12	1202,16
820,29	1257,45
820,47	1277,93
820,64	1273,84
820,81	1263,60
820,98	1322,99
821,15	1335,28
821,33	1312,75
821,50	1204,21
821,67	1245,16
821,84	1288,17
822,02	1228,78
822,19	1243,12
822,36	1251,31
822,53	1284,08
822,70	1247,21
822,88	1257,45
823,05	1257,45
823,22	1224,69
823,39	1273,84
823,56	1234,93
823,74	1288,17
823,91	1304,56
824,08	1304,56
824,25	1261,55
824,42	1329,13
824,60	1243,12
824,77	1249,26
824,94	1269,74
825,11	1284,08
825,28	1216,49
825,45	1300,46
825,63	1273,84
825,80	1236,97
825,97	1257,45
826,14	1288,17
826,31	1351,66
826,48	1253,36
826,66	1312,75
826,83	1300,46
827,00	1318,89
827,17	1331,18
827,34	1263,60
827,51	1224,69
827,69	1263,60
827,86	1355,76
828,03	1269,74
828,20	1271,79
828,37	1284,08
828,54	1314,80
828,71	1331,18
828,89	1230,83
829,06	1296,36
829,23	1251,31
829,40	1234,93
829,57	1263,60
829,74	1290,22
829,91	1275,88
830,09	1271,79
830,26	1294,32
830,43	1222,64
830,60	1314,80
830,77	1282,03
830,94	1286,12
831,11	1294,32
831,28	1298,41
831,46	1282,03
831,63	1255,40
831,80	1259,50
831,97	1298,41
832,14	1275,88
832,31	1228,78
832,48	1288,17
832,65	1261,55
832,82	1251,31
832,99	1257,45
833,17	1163,25
833,34	1249,26
833,51	1386,47
833,68	1253,36
833,85	1273,84
834,02	1261,55
834,19	1222,64
834,36	1257,45
834,53	1263,60
834,70	1265,64
834,87	1310,70
835,04	1234,93
835,22	1279,98
835,39	1296,36
835,56	1189,87
835,73	1284,08
835,90	1261,55
836,07	1296,36
836,24	1273,84
836,41	1304,56
836,58	1269,74
836,75	1302,51
836,92	1239,02
837,09	1271,79
837,26	1286,12
837,43	1187,82
837,60	1234,93
837,77	1271,79
837,94	1290,22
838,12	1259,50
838,29	1226,73
838,46	1290,22
838,63	1263,60
838,80	1292,27
838,97	1189,87
839,14	1329,13
839,31	1214,45
839,48	1327,08
839,65	1298,41
839,82	1257,45
839,99	1175,53
840,16	1271,79
840,33	1232,88
840,50	1208,30
840,67	1277,93
840,84	1318,89
841,01	1232,88
841,18	1216,49
841,35	1296,36
841,52	1282,03
841,69	1284,08
841,86	1288,17
842,03	1261,55
842,20	1218,54
842,37	1282,03
842,54	1212,40
842,71	1255,40
842,88	1273,84
843,05	1304,56
843,22	1325,04
843,39	1271,79
843,56	1292,27
843,73	1234,93
843,90	1259,50
844,07	1218,54
844,24	1296,36
844,41	1288,17
844,58	1253,36
844,75	1191,92
844,92	1189,87
845,09	1220,59
845,26	1251,31
845,43	1277,93
845,60	1273,84
845,77	1230,83
845,94	1331,18
846,10	1243,12
846,27	1368,04
846,44	1224,69
846,61	1329,13
846,78	1327,08
846,95	1220,59
847,12	1249,26
847,29	1257,45
847,46	1200,11
847,63	1314,80
847,80	1204,21
847,97	1288,17
848,14	1277,93
848,31	1241,07
848,48	1226,73
848,65	1308,65
848,82	1292,27
848,98	1279,98
849,15	1236,97
849,32	1189,87
849,49	1214,45
849,66	1304,56
849,83	1267,69
850,00	1275,88
850,17	1185,77
850,34	1245,16
850,51	1249,26
850,68	1282,03
850,85	1296,36
851,01	1212,40
851,18	1273,84
851,35	1265,64
851,52	1312,75
851,69	1251,31
851,86	1241,07
852,03	1200,11
852,20	1259,50
852,37	1232,88
852,53	1241,07
852,70	1230,83
852,87	1251,31
853,04	1232,88
853,21	1351,66
853,38	1290,22
853,55	1337,32
853,72	1282,03
853,89	1325,04
854,05	1232,88
854,22	1241,07
854,39	1310,70
854,56	1269,74
854,73	1286,12
854,90	1251,31
855,07	1290,22
855,23	1263,60
855,40	1255,40
855,57	1292,27
855,74	1298,41
855,91	1249,26
856,08	1298,41
856,25	1253,36
856,41	1218,54
856,58	1292,27
856,75	1271,79
856,92	1261,55
857,09	1279,98
857,26	1234,93
857,42	1261,55
857,59	1208,30
857,76	1269,74
857,93	1214,45
858,10	1234,93
858,27	1306,60
858,43	1282,03
858,60	1325,04
858,77	1243,12
858,94	1230,83
859,11	1253,36
859,27	1286,12
859,44	1269,74
859,61	1222,64
859,78	1275,88
859,95	1282,03
860,12	1271,79
860,28	1249,26
860,45	1322,99
860,62	1210,35
860,79	1249,26
860,95	1222,64
861,12	1322,99
861,29	1267,69
861,46	1279,98
861,63	1226,73
861,79	1267,69
861,96	1255,40
862,13	1290,22
862,30	1310,70
862,47	1304,56
862,63	1308,65
862,80	1191,92
862,97	1249,26
863,14	1257,45
863,30	1298,41
863,47	1308,65
863,64	1277,93
863,81	1302,51
863,97	1253,36
864,14	1267,69
864,31	1208,30
864,48	1312,75
864,65	1212,40
864,81	1279,98
864,98	1298,41
865,15	1263,60
865,32	1245,16
865,48	1290,22
865,65	1296,36
865,82	1308,65
865,98	1269,74
866,15	1273,84
866,32	1273,84
866,49	1243,12
866,65	1247,21
866,82	1288,17
866,99	1241,07
867,16	1284,08
867,32	1310,70
867,49	1230,83
867,66	1314,80
867,83	1308,65
867,99	1239,02
868,16	1249,26
868,33	1251,31
868,49	1271,79
868,66	1277,93
868,83	1247,21
868,99	1253,36
869,16	1208,30
869,33	1286,12
869,50	1275,88
869,66	1288,17
869,83	1286,12
870,00	1210,35
870,16	1204,21
870,33	1247,21
870,50	1300,46
870,66	1245,16
870,83	1206,25
871,00	1300,46
871,17	1226,73
871,33	1310,70
871,50	1208,30
871,67	1189,87
871,83	1288,17
872,00	1316,84
872,17	1327,08
872,33	1249,26
872,50	1286,12
872,67	1279,98
872,83	1255,40
873,00	1232,88
873,17	1249,26
873,33	1271,79
873,50	1322,99
873,67	1245,16
873,83	1265,64
874,00	1155,05
874,16	1234,93
874,33	1269,74
874,50	1245,16
874,66	1318,89
874,83	1255,40
875,00	1316,84
875,16	1308,65
875,33	1230,83
875,50	1296,36
875,66	1255,40
875,83	1271,79
875,99	1247,21
876,16	1261,55
876,33	1257,45
876,49	1259,50
876,66	1247,21
876,83	1279,98
876,99	1218,54
877,16	1271,79
877,32	1292,27
877,49	1306,60
877,66	1359,85
877,82	1308,65
877,99	1222,64
878,15	1261,55
878,32	1253,36
878,49	1253,36
878,65	1232,88
878,82	1251,31
878,98	1290,22
879,15	1327,08
879,32	1275,88
879,48	1271,79
879,65	1214,45
879,81	1259,50
879,98	1296,36
880,15	1208,30
880,31	1202,16
880,48	1261,55
880,64	1286,12
880,81	1316,84
880,97	1232,88
881,14	1271,79
881,31	1239,02
881,47	1308,65
881,64	1243,12
881,80	1249,26
881,97	1189,87
882,13	1286,12
882,30	1284,08
882,47	1261,55
882,63	1304,56
882,80	1243,12
882,96	1310,70
883,13	1253,36
883,29	1216,49
883,46	1271,79
883,62	1273,84
883,79	1193,97
883,95	1292,27
884,12	1284,08
884,29	1325,04
884,45	1275,88
884,62	1232,88
884,78	1243,12
884,95	1257,45
885,11	1316,84
885,28	1275,88
885,44	1300,46
885,61	1241,07
885,77	1310,70
885,94	1310,70
886,10	1255,40
886,27	1359,85
886,43	1306,60
886,60	1282,03
886,76	1335,28
886,93	1308,65
887,09	1310,70
887,26	1300,46
887,42	1222,64
887,59	1302,51
887,75	1263,60
887,92	1277,93
888,08	1273,84
888,25	1222,64
888,41	1249,26
888,58	1191,92
888,74	1300,46
888,91	1310,70
>>>>>End Processed Spectral Data<<<<<
