SpectraSuite Data File
++++++++++++++++++++++++++++++++++++
Date: Sun Apr 03 13:45:34 CEST 2016
User: root
Dark Spectrum Present: No
Reference Spectrum Present: No
Number of Sampled Component Spectra: 1
Spectrometers: USB4C02835
Integration Time (usec): 10000 (USB4C02835)
Spectra Averaged: 1 (USB4C02835)
Boxcar Smoothing: 0 (USB4C02835)
Correct for Electrical Dark: No (USB4C02835)
Strobe/Lamp Enabled: No (USB4C02835)
Correct for Detector Non-linearity: No (USB4C02835)
Correct for Stray Light: No (USB4C02835)
Number of Pixels in Processed Spectrum: 3648
>>>>>Begin Processed Spectral Data<<<<<
177,47	1265,64
177,69	1265,64
177,91	1265,64
178,13	1267,69
178,36	1210,35
178,58	1288,17
178,80	1220,59
179,02	1263,60
179,24	1187,82
179,46	1306,60
179,68	1220,59
179,90	1312,75
180,13	1265,64
180,35	1193,97
180,57	1247,21
180,79	1239,02
181,01	1265,64
181,23	1267,69
181,45	1320,94
181,67	1241,07
181,90	1265,64
182,12	1206,25
182,34	1279,98
182,56	1218,54
182,78	1314,80
183,00	1318,89
183,22	1271,79
183,44	1304,56
183,66	1337,32
183,89	1239,02
184,11	1312,75
184,33	1269,74
184,55	1259,50
184,77	1312,75
184,99	1288,17
185,21	1239,02
185,43	1249,26
185,65	1251,31
185,87	1259,50
186,10	1255,40
186,32	1269,74
186,54	1267,69
186,76	1288,17
186,98	1243,12
187,20	1273,84
187,42	1282,03
187,64	1288,17
187,86	1269,74
188,08	1210,35
188,30	1257,45
188,52	1322,99
188,75	1327,08
188,97	1337,32
189,19	1329,13
189,41	1241,07
189,63	1302,51
189,85	1308,65
190,07	1234,93
190,29	1206,25
190,51	1320,94
190,73	1230,83
190,95	1296,36
191,17	1273,84
191,39	1279,98
191,61	1181,68
191,84	1247,21
192,06	1249,26
192,28	1267,69
192,50	1316,84
192,72	1312,75
192,94	1247,21
193,16	1322,99
193,38	1298,41
193,60	1273,84
193,82	1279,98
194,04	1210,35
194,26	1255,40
194,48	1261,55
194,70	1234,93
194,92	1300,46
195,14	1304,56
195,36	1189,87
195,58	1202,16
195,80	1216,49
196,02	1318,89
196,24	1193,97
196,46	1312,75
196,69	1282,03
196,91	1400,81
197,13	1300,46
197,35	1288,17
197,57	1282,03
197,79	1279,98
198,01	1224,69
198,23	1282,03
198,45	1298,41
198,67	1263,60
198,89	1284,08
199,11	1253,36
199,33	1273,84
199,55	1290,22
199,77	1243,12
199,99	1279,98
200,21	1232,88
200,43	1290,22
200,65	1234,93
200,87	1335,28
201,09	1300,46
201,31	1261,55
201,53	1284,08
201,75	1298,41
201,97	1398,76
202,19	1185,77
202,41	1255,40
202,63	1314,80
202,85	1271,79
203,07	1255,40
203,29	1378,28
203,51	1310,70
203,73	1275,88
203,95	1249,26
204,17	1253,36
204,39	1257,45
204,61	1277,93
204,83	1284,08
205,05	1253,36
205,27	1265,64
205,49	1308,65
205,71	1275,88
205,93	1267,69
206,15	1261,55
206,37	1263,60
206,59	1241,07
206,81	1204,21
207,03	1222,64
207,25	1312,75
207,47	1298,41
207,69	1322,99
207,91	1236,97
208,13	1304,56
208,34	1273,84
208,56	1298,41
208,78	1304,56
209,00	1265,64
209,22	1288,17
209,44	1288,17
209,66	1304,56
209,88	1224,69
210,10	1292,27
210,32	1314,80
210,54	1234,93
210,76	1277,93
210,98	1234,93
211,20	1234,93
211,42	1263,60
211,64	1286,12
211,86	1320,94
212,08	1366,00
212,30	1241,07
212,52	1290,22
212,74	1249,26
212,96	1273,84
213,17	1257,45
213,39	1388,52
213,61	1249,26
213,83	1294,32
214,05	1288,17
214,27	1216,49
214,49	1284,08
214,71	1329,13
214,93	1255,40
215,15	1253,36
215,37	1300,46
215,59	1220,59
215,81	1232,88
216,03	1288,17
216,24	1265,64
216,46	1290,22
216,68	1263,60
216,90	1277,93
217,12	1304,56
217,34	1247,21
217,56	1316,84
217,78	1292,27
218,00	1288,17
218,22	1312,75
218,44	1253,36
218,66	1239,02
218,87	1288,17
219,09	1282,03
219,31	1312,75
219,53	1282,03
219,75	1316,84
219,97	1224,69
220,19	1294,32
220,41	1275,88
220,63	1298,41
220,85	1249,26
221,06	1277,93
221,28	1216,49
221,50	1286,12
221,72	1241,07
221,94	1257,45
222,16	1263,60
222,38	1302,51
222,60	1333,23
222,82	1279,98
223,03	1343,47
223,25	1363,95
223,47	1245,16
223,69	1288,17
223,91	1210,35
224,13	1277,93
224,35	1284,08
224,57	1320,94
224,78	1298,41
225,00	1273,84
225,22	1290,22
225,44	1249,26
225,66	1296,36
225,88	1306,60
226,10	1282,03
226,32	1241,07
226,53	1228,78
226,75	1286,12
226,97	1302,51
227,19	1298,41
227,41	1290,22
227,63	1286,12
227,85	1222,64
228,06	1277,93
228,28	1247,21
228,50	1265,64
228,72	1243,12
228,94	1312,75
229,16	1257,45
229,37	1279,98
229,59	1298,41
229,81	1267,69
230,03	1279,98
230,25	1261,55
230,47	1294,32
230,69	1275,88
230,90	1275,88
231,12	1249,26
231,34	1288,17
231,56	1245,16
231,78	1361,90
232,00	1347,56
232,21	1271,79
232,43	1310,70
232,65	1214,45
232,87	1306,60
233,09	1284,08
233,30	1273,84
233,52	1279,98
233,74	1288,17
233,96	1290,22
234,18	1277,93
234,40	1257,45
234,61	1282,03
234,83	1269,74
235,05	1296,36
235,27	1312,75
235,49	1290,22
235,70	1284,08
235,92	1306,60
236,14	1241,07
236,36	1286,12
236,58	1290,22
236,79	1208,30
237,01	1329,13
237,23	1255,40
237,45	1312,75
237,67	1249,26
237,88	1282,03
238,10	1292,27
238,32	1277,93
238,54	1181,68
238,76	1269,74
238,97	1298,41
239,19	1234,93
239,41	1284,08
239,63	1257,45
239,85	1306,60
240,06	1263,60
240,28	1245,16
240,50	1204,21
240,72	1220,59
240,93	1257,45
241,15	1310,70
241,37	1296,36
241,59	1333,23
241,81	1253,36
242,02	1232,88
242,24	1314,80
242,46	1286,12
242,68	1245,16
242,89	1267,69
243,11	1296,36
243,33	1255,40
243,55	1228,78
243,76	1294,32
243,98	1335,28
244,20	1267,69
244,42	1343,47
244,64	1273,84
244,85	1310,70
245,07	1265,64
245,29	1288,17
245,51	1232,88
245,72	1269,74
245,94	1279,98
246,16	1245,16
246,38	1282,03
246,59	1306,60
246,81	1308,65
247,03	1292,27
247,24	1337,32
247,46	1230,83
247,68	1314,80
247,90	1296,36
248,11	1335,28
248,33	1302,51
248,55	1257,45
248,77	1239,02
248,98	1249,26
249,20	1271,79
249,42	1302,51
249,64	1290,22
249,85	1236,97
250,07	1269,74
250,29	1253,36
250,50	1308,65
250,72	1253,36
250,94	1263,60
251,16	1288,17
251,37	1212,40
251,59	1339,37
251,81	1251,31
252,02	1273,84
252,24	1279,98
252,46	1257,45
252,68	1318,89
252,89	1257,45
253,11	1267,69
253,33	1318,89
253,54	1265,64
253,76	1249,26
253,98	1308,65
254,20	1255,40
254,41	1214,45
254,63	1312,75
254,85	1288,17
255,06	1298,41
255,28	1292,27
255,50	1290,22
255,71	1300,46
255,93	1322,99
256,15	1308,65
256,36	1269,74
256,58	1218,54
256,80	1333,23
257,02	1269,74
257,23	1245,16
257,45	1306,60
257,67	1314,80
257,88	1296,36
258,10	1257,45
258,32	1267,69
258,53	1263,60
258,75	1230,83
258,97	1325,04
259,18	1259,50
259,40	1325,04
259,62	1316,84
259,83	1247,21
260,05	1251,31
260,27	1308,65
260,48	1212,40
260,70	1232,88
260,92	1263,60
261,13	1251,31
261,35	1286,12
261,57	1277,93
261,78	1308,65
262,00	1245,16
262,22	1236,97
262,43	1200,11
262,65	1339,37
262,86	1333,23
263,08	1284,08
263,30	1329,13
263,51	1292,27
263,73	1296,36
263,95	1341,42
264,16	1304,56
264,38	1306,60
264,60	1355,76
264,81	1341,42
265,03	1343,47
265,25	1296,36
265,46	1271,79
265,68	1325,04
265,89	1294,32
266,11	1279,98
266,33	1230,83
266,54	1267,69
266,76	1216,49
266,98	1273,84
267,19	1275,88
267,41	1312,75
267,62	1318,89
267,84	1243,12
268,06	1298,41
268,27	1230,83
268,49	1255,40
268,70	1216,49
268,92	1314,80
269,14	1282,03
269,35	1234,93
269,57	1241,07
269,79	1269,74
270,00	1277,93
270,22	1282,03
270,43	1296,36
270,65	1196,01
270,87	1331,18
271,08	1255,40
271,30	1241,07
271,51	1282,03
271,73	1288,17
271,95	1236,97
272,16	1245,16
272,38	1322,99
272,59	1298,41
272,81	1259,50
273,02	1298,41
273,24	1304,56
273,46	1320,94
273,67	1275,88
273,89	1288,17
274,10	1290,22
274,32	1224,69
274,54	1259,50
274,75	1282,03
274,97	1298,41
275,18	1374,19
275,40	1228,78
275,61	1255,40
275,83	1322,99
276,05	1298,41
276,26	1239,02
276,48	1290,22
276,69	1193,97
276,91	1193,97
277,12	1265,64
277,34	1230,83
277,55	1304,56
277,77	1218,54
277,99	1290,22
278,20	1185,77
278,42	1224,69
278,63	1286,12
278,85	1322,99
279,06	1198,06
279,28	1277,93
279,49	1290,22
279,71	1284,08
279,93	1355,76
280,14	1353,71
280,36	1368,04
280,57	1243,12
280,79	1255,40
281,00	1267,69
281,22	1345,52
281,43	1337,32
281,65	1298,41
281,86	1273,84
282,08	1255,40
282,29	1263,60
282,51	1310,70
282,73	1306,60
282,94	1241,07
283,16	1269,74
283,37	1185,77
283,59	1327,08
283,80	1247,21
284,02	1306,60
284,23	1288,17
284,45	1249,26
284,66	1265,64
284,88	1351,66
285,09	1255,40
285,31	1322,99
285,52	1312,75
285,74	1271,79
285,95	1331,18
286,17	1290,22
286,38	1302,51
286,60	1345,52
286,81	1259,50
287,03	1361,90
287,24	1255,40
287,46	1267,69
287,67	1255,40
287,89	1300,46
288,10	1296,36
288,32	1296,36
288,53	1282,03
288,75	1292,27
288,96	1269,74
289,18	1318,89
289,39	1206,25
289,61	1292,27
289,82	1277,93
290,04	1288,17
290,25	1282,03
290,47	1273,84
290,68	1228,78
290,90	1263,60
291,11	1253,36
291,33	1300,46
291,54	1222,64
291,76	1275,88
291,97	1316,84
292,18	1353,71
292,40	1259,50
292,61	1282,03
292,83	1286,12
293,04	1286,12
293,26	1298,41
293,47	1318,89
293,69	1298,41
293,90	1277,93
294,12	1294,32
294,33	1226,73
294,55	1306,60
294,76	1263,60
294,97	1243,12
295,19	1277,93
295,40	1335,28
295,62	1212,40
295,83	1320,94
296,05	1259,50
296,26	1222,64
296,48	1239,02
296,69	1267,69
296,90	1288,17
297,12	1286,12
297,33	1286,12
297,55	1302,51
297,76	1312,75
297,98	1302,51
298,19	1294,32
298,41	1263,60
298,62	1310,70
298,83	1269,74
299,05	1271,79
299,26	1232,88
299,48	1239,02
299,69	1253,36
299,90	1347,56
300,12	1251,31
300,33	1296,36
300,55	1230,83
300,76	1271,79
300,98	1255,40
301,19	1304,56
301,40	1263,60
301,62	1296,36
301,83	1220,59
302,05	1310,70
302,26	1314,80
302,47	1312,75
302,69	1239,02
302,90	1290,22
303,12	1310,70
303,33	1298,41
303,54	1224,69
303,76	1284,08
303,97	1327,08
304,19	1355,76
304,40	1310,70
304,61	1292,27
304,83	1302,51
305,04	1267,69
305,26	1306,60
305,47	1245,16
305,68	1322,99
305,90	1243,12
306,11	1271,79
306,33	1239,02
306,54	1345,52
306,75	1296,36
306,97	1286,12
307,18	1277,93
307,39	1251,31
307,61	1286,12
307,82	1259,50
308,04	1331,18
308,25	1230,83
308,46	1267,69
308,68	1253,36
308,89	1265,64
309,10	1300,46
309,32	1271,79
309,53	1279,98
309,74	1296,36
309,96	1236,97
310,17	1333,23
310,39	1286,12
310,60	1224,69
310,81	1286,12
311,03	1247,21
311,24	1261,55
311,45	1232,88
311,67	1275,88
311,88	1243,12
312,09	1298,41
312,31	1279,98
312,52	1308,65
312,73	1247,21
312,95	1282,03
313,16	1288,17
313,37	1302,51
313,59	1335,28
313,80	1247,21
314,01	1327,08
314,23	1310,70
314,44	1236,97
314,65	1183,73
314,87	1271,79
315,08	1282,03
315,29	1337,32
315,51	1298,41
315,72	1226,73
315,93	1312,75
316,15	1200,11
316,36	1269,74
316,57	1232,88
316,79	1302,51
317,00	1257,45
317,21	1247,21
317,43	1286,12
317,64	1245,16
317,85	1279,98
318,07	1390,57
318,28	1302,51
318,49	1331,18
318,70	1355,76
318,92	1275,88
319,13	1302,51
319,34	1341,42
319,56	1284,08
319,77	1224,69
319,98	1277,93
320,20	1304,56
320,41	1263,60
320,62	1239,02
320,83	1255,40
321,05	1230,83
321,26	1173,49
321,47	1331,18
321,69	1296,36
321,90	1249,26
322,11	1304,56
322,32	1294,32
322,54	1273,84
322,75	1247,21
322,96	1257,45
323,18	1261,55
323,39	1292,27
323,60	1224,69
323,81	1376,24
324,03	1312,75
324,24	1306,60
324,45	1222,64
324,66	1230,83
324,88	1200,11
325,09	1243,12
325,30	1296,36
325,52	1312,75
325,73	1249,26
325,94	1304,56
326,15	1296,36
326,37	1277,93
326,58	1290,22
326,79	1241,07
327,00	1271,79
327,22	1279,98
327,43	1329,13
327,64	1265,64
327,85	1302,51
328,07	1294,32
328,28	1341,42
328,49	1187,82
328,70	1277,93
328,92	1343,47
329,13	1302,51
329,34	1282,03
329,55	1265,64
329,76	1302,51
329,98	1339,37
330,19	1224,69
330,40	1257,45
330,61	1304,56
330,83	1251,31
331,04	1277,93
331,25	1228,78
331,46	1298,41
331,68	1218,54
331,89	1230,83
332,10	1339,37
332,31	1267,69
332,52	1220,59
332,74	1296,36
332,95	1267,69
333,16	1257,45
333,37	1282,03
333,58	1322,99
333,80	1296,36
334,01	1300,46
334,22	1312,75
334,43	1302,51
334,64	1273,84
334,86	1298,41
335,07	1302,51
335,28	1314,80
335,49	1271,79
335,70	1366,00
335,92	1247,21
336,13	1294,32
336,34	1306,60
336,55	1236,97
336,76	1230,83
336,98	1257,45
337,19	1239,02
337,40	1294,32
337,61	1275,88
337,82	1271,79
338,04	1335,28
338,25	1214,45
338,46	1251,31
338,67	1273,84
338,88	1273,84
339,09	1296,36
339,31	1310,70
339,52	1261,55
339,73	1339,37
339,94	1294,32
340,15	1234,93
340,36	1208,30
340,58	1316,84
340,79	1320,94
341,00	1327,08
341,21	1282,03
341,42	1292,27
341,63	1249,26
341,85	1312,75
342,06	1273,84
342,27	1376,24
342,48	1275,88
342,69	1263,60
342,90	1318,89
343,12	1271,79
343,33	1279,98
343,54	1265,64
343,75	1318,89
343,96	1322,99
344,17	1363,95
344,38	1187,82
344,60	1273,84
344,81	1292,27
345,02	1232,88
345,23	1304,56
345,44	1298,41
345,65	1228,78
345,86	1251,31
346,07	1310,70
346,29	1222,64
346,50	1312,75
346,71	1337,32
346,92	1224,69
347,13	1245,16
347,34	1239,02
347,55	1302,51
347,76	1259,50
347,98	1275,88
348,19	1275,88
348,40	1273,84
348,61	1339,37
348,82	1296,36
349,03	1234,93
349,24	1230,83
349,45	1304,56
349,66	1298,41
349,88	1247,21
350,09	1294,32
350,30	1241,07
350,51	1173,49
350,72	1261,55
350,93	1282,03
351,14	1255,40
351,35	1265,64
351,56	1286,12
351,77	1322,99
351,99	1277,93
352,20	1263,60
352,41	1263,60
352,62	1234,93
352,83	1298,41
353,04	1271,79
353,25	1263,60
353,46	1263,60
353,67	1257,45
353,88	1282,03
354,09	1312,75
354,30	1214,45
354,52	1216,49
354,73	1282,03
354,94	1159,15
355,15	1232,88
355,36	1329,13
355,57	1282,03
355,78	1259,50
355,99	1247,21
356,20	1300,46
356,41	1257,45
356,62	1255,40
356,83	1304,56
357,04	1308,65
357,25	1245,16
357,46	1318,89
357,68	1292,27
357,89	1167,34
358,10	1282,03
358,31	1236,97
358,52	1271,79
358,73	1214,45
358,94	1337,32
359,15	1232,88
359,36	1222,64
359,57	1259,50
359,78	1253,36
359,99	1331,18
360,20	1277,93
360,41	1290,22
360,62	1322,99
360,83	1312,75
361,04	1241,07
361,25	1234,93
361,46	1212,40
361,67	1224,69
361,88	1249,26
362,09	1310,70
362,30	1222,64
362,51	1294,32
362,72	1320,94
362,93	1343,47
363,14	1277,93
363,35	1277,93
363,56	1286,12
363,78	1234,93
363,99	1261,55
364,20	1288,17
364,41	1310,70
364,62	1298,41
364,83	1261,55
365,04	1329,13
365,25	1288,17
365,46	1234,93
365,67	1290,22
365,88	1306,60
366,09	1245,16
366,30	1302,51
366,51	1325,04
366,72	1327,08
366,93	1277,93
367,14	1251,31
367,35	1310,70
367,56	1282,03
367,77	1314,80
367,98	1200,11
368,18	1263,60
368,39	1273,84
368,60	1245,16
368,81	1312,75
369,02	1368,04
369,23	1304,56
369,44	1247,21
369,65	1236,97
369,86	1310,70
370,07	1273,84
370,28	1288,17
370,49	1249,26
370,70	1239,02
370,91	1261,55
371,12	1243,12
371,33	1298,41
371,54	1310,70
371,75	1200,11
371,96	1245,16
372,17	1282,03
372,38	1232,88
372,59	1320,94
372,80	1318,89
373,01	1277,93
373,22	1271,79
373,43	1325,04
373,64	1267,69
373,85	1288,17
374,06	1306,60
374,26	1284,08
374,47	1292,27
374,68	1214,45
374,89	1226,73
375,10	1312,75
375,31	1253,36
375,52	1292,27
375,73	1265,64
375,94	1265,64
376,15	1300,46
376,36	1300,46
376,57	1226,73
376,78	1286,12
376,99	1320,94
377,20	1236,97
377,40	1288,17
377,61	1251,31
377,82	1296,36
378,03	1325,04
378,24	1243,12
378,45	1312,75
378,66	1282,03
378,87	1187,82
379,08	1191,92
379,29	1220,59
379,50	1286,12
379,71	1284,08
379,91	1222,64
380,12	1218,54
380,33	1290,22
380,54	1298,41
380,75	1296,36
380,96	1251,31
381,17	1275,88
381,38	1288,17
381,59	1310,70
381,80	1275,88
382,00	1232,88
382,21	1265,64
382,42	1345,52
382,63	1290,22
382,84	1226,73
383,05	1243,12
383,26	1261,55
383,47	1245,16
383,68	1224,69
383,88	1261,55
384,09	1298,41
384,30	1308,65
384,51	1335,28
384,72	1259,50
384,93	1239,02
385,14	1300,46
385,35	1300,46
385,55	1230,83
385,76	1286,12
385,97	1329,13
386,18	1265,64
386,39	1329,13
386,60	1245,16
386,81	1298,41
387,02	1288,17
387,22	1263,60
387,43	1290,22
387,64	1191,92
387,85	1216,49
388,06	1337,32
388,27	1294,32
388,48	1318,89
388,68	1257,45
388,89	1286,12
389,10	1314,80
389,31	1329,13
389,52	1286,12
389,73	1277,93
389,93	1218,54
390,14	1282,03
390,35	1286,12
390,56	1253,36
390,77	1239,02
390,98	1279,98
391,18	1257,45
391,39	1255,40
391,60	1279,98
391,81	1241,07
392,02	1284,08
392,23	1331,18
392,43	1298,41
392,64	1339,37
392,85	1288,17
393,06	1314,80
393,27	1239,02
393,47	1230,83
393,68	1273,84
393,89	1290,22
394,10	1286,12
394,31	1173,49
394,52	1245,16
394,72	1265,64
394,93	1288,17
395,14	1245,16
395,35	1318,89
395,56	1294,32
395,76	1329,13
395,97	1320,94
396,18	1349,61
396,39	1288,17
396,60	1357,80
396,80	1312,75
397,01	1327,08
397,22	1282,03
397,43	1218,54
397,64	1261,55
397,84	1273,84
398,05	1273,84
398,26	1249,26
398,47	1277,93
398,67	1306,60
398,88	1216,49
399,09	1267,69
399,30	1243,12
399,51	1312,75
399,71	1300,46
399,92	1273,84
400,13	1265,64
400,34	1314,80
400,54	1273,84
400,75	1318,89
400,96	1279,98
401,17	1284,08
401,37	1294,32
401,58	1277,93
401,79	1257,45
402,00	1273,84
402,21	1279,98
402,41	1327,08
402,62	1292,27
402,83	1308,65
403,04	1310,70
403,24	1236,97
403,45	1282,03
403,66	1316,84
403,87	1271,79
404,07	1306,60
404,28	1218,54
404,49	1282,03
404,70	1325,04
404,90	1261,55
405,11	1347,56
405,32	1296,36
405,52	1304,56
405,73	1173,49
405,94	1245,16
406,15	1265,64
406,35	1255,40
406,56	1279,98
406,77	1320,94
406,98	1308,65
407,18	1206,25
407,39	1257,45
407,60	1257,45
407,80	1327,08
408,01	1269,74
408,22	1236,97
408,43	1265,64
408,63	1253,36
408,84	1232,88
409,05	1236,97
409,25	1243,12
409,46	1288,17
409,67	1251,31
409,88	1298,41
410,08	1267,69
410,29	1337,32
410,50	1279,98
410,70	1300,46
410,91	1230,83
411,12	1271,79
411,32	1236,97
411,53	1265,64
411,74	1241,07
411,95	1300,46
412,15	1222,64
412,36	1257,45
412,57	1294,32
412,77	1255,40
412,98	1304,56
413,19	1261,55
413,39	1286,12
413,60	1308,65
413,81	1277,93
414,01	1273,84
414,22	1214,45
414,43	1277,93
414,63	1331,18
414,84	1206,25
415,05	1269,74
415,25	1290,22
415,46	1304,56
415,67	1275,88
415,87	1273,84
416,08	1208,30
416,29	1249,26
416,49	1277,93
416,70	1257,45
416,91	1269,74
417,11	1232,88
417,32	1255,40
417,53	1265,64
417,73	1310,70
417,94	1267,69
418,15	1239,02
418,35	1259,50
418,56	1257,45
418,77	1269,74
418,97	1314,80
419,18	1325,04
419,38	1275,88
419,59	1232,88
419,80	1355,76
420,00	1259,50
420,21	1314,80
420,42	1308,65
420,62	1228,78
420,83	1269,74
421,04	1374,19
421,24	1200,11
421,45	1316,84
421,65	1261,55
421,86	1294,32
422,07	1316,84
422,27	1292,27
422,48	1294,32
422,69	1288,17
422,89	1294,32
423,10	1216,49
423,30	1349,61
423,51	1253,36
423,72	1316,84
423,92	1327,08
424,13	1253,36
424,33	1292,27
424,54	1224,69
424,75	1204,21
424,95	1302,51
425,16	1296,36
425,36	1255,40
425,57	1312,75
425,78	1222,64
425,98	1273,84
426,19	1236,97
426,39	1210,35
426,60	1378,28
426,81	1234,93
427,01	1298,41
427,22	1290,22
427,42	1218,54
427,63	1271,79
427,83	1218,54
428,04	1228,78
428,25	1339,37
428,45	1290,22
428,66	1290,22
428,86	1333,23
429,07	1282,03
429,28	1241,07
429,48	1239,02
429,69	1247,21
429,89	1279,98
430,10	1292,27
430,30	1345,52
430,51	1296,36
430,71	1222,64
430,92	1298,41
431,13	1241,07
431,33	1247,21
431,54	1312,75
431,74	1277,93
431,95	1241,07
432,15	1325,04
432,36	1185,77
432,56	1269,74
432,77	1294,32
432,98	1249,26
433,18	1255,40
433,39	1304,56
433,59	1279,98
433,80	1298,41
434,00	1296,36
434,21	1320,94
434,41	1267,69
434,62	1236,97
434,82	1288,17
435,03	1284,08
435,23	1288,17
435,44	1271,79
435,64	1239,02
435,85	1208,30
436,06	1290,22
436,26	1216,49
436,47	1302,51
436,67	1226,73
436,88	1302,51
437,08	1189,87
437,29	1312,75
437,49	1347,56
437,70	1263,60
437,90	1255,40
438,11	1286,12
438,31	1296,36
438,52	1277,93
438,72	1257,45
438,93	1269,74
439,13	1253,36
439,34	1304,56
439,54	1245,16
439,75	1200,11
439,95	1277,93
440,16	1382,38
440,36	1271,79
440,57	1275,88
440,77	1314,80
440,98	1282,03
441,18	1304,56
441,39	1269,74
441,59	1277,93
441,80	1230,83
442,00	1290,22
442,21	1200,11
442,41	1279,98
442,62	1241,07
442,82	1239,02
443,02	1298,41
443,23	1265,64
443,43	1212,40
443,64	1298,41
443,84	1198,06
444,05	1277,93
444,25	1288,17
444,46	1296,36
444,66	1279,98
444,87	1306,60
445,07	1296,36
445,28	1308,65
445,48	1277,93
445,69	1216,49
445,89	1279,98
446,09	1339,37
446,30	1261,55
446,50	1214,45
446,71	1290,22
446,91	1251,31
447,12	1279,98
447,32	1249,26
447,53	1273,84
447,73	1253,36
447,93	1249,26
448,14	1255,40
448,34	1275,88
448,55	1288,17
448,75	1298,41
448,96	1236,97
449,16	1294,32
449,36	1345,52
449,57	1316,84
449,77	1224,69
449,98	1208,30
450,18	1232,88
450,39	1257,45
450,59	1263,60
450,79	1245,16
451,00	1312,75
451,20	1320,94
451,41	1282,03
451,61	1306,60
451,81	1247,21
452,02	1339,37
452,22	1257,45
452,43	1269,74
452,63	1216,49
452,84	1267,69
453,04	1239,02
453,24	1253,36
453,45	1239,02
453,65	1241,07
453,86	1249,26
454,06	1257,45
454,26	1314,80
454,47	1191,92
454,67	1253,36
454,87	1230,83
455,08	1251,31
455,28	1265,64
455,49	1273,84
455,69	1251,31
455,89	1304,56
456,10	1279,98
456,30	1349,61
456,51	1294,32
456,71	1294,32
456,91	1294,32
457,12	1296,36
457,32	1279,98
457,52	1251,31
457,73	1243,12
457,93	1341,42
458,14	1216,49
458,34	1218,54
458,54	1290,22
458,75	1292,27
458,95	1275,88
459,15	1320,94
459,36	1277,93
459,56	1286,12
459,76	1298,41
459,97	1245,16
460,17	1267,69
460,37	1271,79
460,58	1263,60
460,78	1279,98
460,99	1273,84
461,19	1255,40
461,39	1290,22
461,60	1308,65
461,80	1232,88
462,00	1298,41
462,21	1232,88
462,41	1220,59
462,61	1257,45
462,82	1255,40
463,02	1382,38
463,22	1294,32
463,43	1294,32
463,63	1226,73
463,83	1245,16
464,04	1279,98
464,24	1275,88
464,44	1275,88
464,64	1275,88
464,85	1279,98
465,05	1253,36
465,25	1298,41
465,46	1263,60
465,66	1298,41
465,86	1243,12
466,07	1322,99
466,27	1306,60
466,47	1265,64
466,68	1232,88
466,88	1298,41
467,08	1216,49
467,29	1243,12
467,49	1282,03
467,69	1314,80
467,89	1236,97
468,10	1247,21
468,30	1255,40
468,50	1288,17
468,71	1284,08
468,91	1236,97
469,11	1243,12
469,31	1265,64
469,52	1302,51
469,72	1294,32
469,92	1275,88
470,13	1300,46
470,33	1247,21
470,53	1232,88
470,73	1224,69
470,94	1208,30
471,14	1308,65
471,34	1337,32
471,54	1306,60
471,75	1273,84
471,95	1314,80
472,15	1239,02
472,36	1249,26
472,56	1294,32
472,76	1267,69
472,96	1232,88
473,17	1304,56
473,37	1255,40
473,57	1236,97
473,77	1284,08
473,98	1320,94
474,18	1279,98
474,38	1308,65
474,58	1253,36
474,79	1216,49
474,99	1359,85
475,19	1269,74
475,39	1306,60
475,60	1257,45
475,80	1331,18
476,00	1294,32
476,20	1236,97
476,41	1249,26
476,61	1306,60
476,81	1230,83
477,01	1333,23
477,21	1273,84
477,42	1273,84
477,62	1310,70
477,82	1241,07
478,02	1236,97
478,23	1234,93
478,43	1300,46
478,63	1288,17
478,83	1290,22
479,03	1339,37
479,24	1312,75
479,44	1333,23
479,64	1269,74
479,84	1214,45
480,04	1171,44
480,25	1322,99
480,45	1234,93
480,65	1314,80
480,85	1300,46
481,06	1286,12
481,26	1265,64
481,46	1300,46
481,66	1284,08
481,86	1263,60
482,06	1282,03
482,27	1271,79
482,47	1353,71
482,67	1279,98
482,87	1277,93
483,07	1345,52
483,28	1298,41
483,48	1277,93
483,68	1243,12
483,88	1273,84
484,08	1261,55
484,29	1253,36
484,49	1292,27
484,69	1175,53
484,89	1224,69
485,09	1282,03
485,29	1212,40
485,50	1312,75
485,70	1325,04
485,90	1339,37
486,10	1200,11
486,30	1249,26
486,50	1222,64
486,71	1288,17
486,91	1279,98
487,11	1269,74
487,31	1271,79
487,51	1298,41
487,71	1224,69
487,91	1253,36
488,12	1288,17
488,32	1247,21
488,52	1261,55
488,72	1322,99
488,92	1259,50
489,12	1320,94
489,32	1325,04
489,53	1286,12
489,73	1212,40
489,93	1222,64
490,13	1294,32
490,33	1269,74
490,53	1290,22
490,73	1363,95
490,94	1288,17
491,14	1271,79
491,34	1292,27
491,54	1277,93
491,74	1191,92
491,94	1183,73
492,14	1253,36
492,34	1257,45
492,54	1300,46
492,75	1339,37
492,95	1275,88
493,15	1220,59
493,35	1314,80
493,55	1239,02
493,75	1298,41
493,95	1312,75
494,15	1271,79
494,35	1296,36
494,56	1292,27
494,76	1292,27
494,96	1286,12
495,16	1241,07
495,36	1306,60
495,56	1347,56
495,76	1284,08
495,96	1294,32
496,16	1298,41
496,36	1304,56
496,56	1204,21
496,77	1224,69
496,97	1241,07
497,17	1312,75
497,37	1249,26
497,57	1226,73
497,77	1239,02
497,97	1288,17
498,17	1294,32
498,37	1265,64
498,57	1241,07
498,77	1216,49
498,97	1345,52
499,17	1286,12
499,38	1300,46
499,58	1329,13
499,78	1339,37
499,98	1212,40
500,18	1216,49
500,38	1241,07
500,58	1273,84
500,78	1277,93
500,98	1251,31
501,18	1251,31
501,38	1302,51
501,58	1226,73
501,78	1302,51
501,98	1267,69
502,18	1339,37
502,38	1228,78
502,58	1275,88
502,78	1325,04
502,98	1292,27
503,18	1251,31
503,38	1228,78
503,59	1304,56
503,79	1269,74
503,99	1269,74
504,19	1204,21
504,39	1341,42
504,59	1198,06
504,79	1243,12
504,99	1269,74
505,19	1218,54
505,39	1275,88
505,59	1271,79
505,79	1269,74
505,99	1298,41
506,19	1347,56
506,39	1349,61
506,59	1277,93
506,79	1290,22
506,99	1269,74
507,19	1196,01
507,39	1249,26
507,59	1322,99
507,79	1294,32
507,99	1275,88
508,19	1263,60
508,39	1282,03
508,59	1249,26
508,79	1257,45
508,99	1249,26
509,19	1271,79
509,39	1222,64
509,59	1351,66
509,79	1282,03
509,99	1284,08
510,19	1259,50
510,39	1286,12
510,59	1284,08
510,79	1243,12
510,99	1282,03
511,19	1304,56
511,39	1306,60
511,59	1284,08
511,79	1275,88
511,99	1210,35
512,19	1298,41
512,38	1271,79
512,58	1277,93
512,78	1228,78
512,98	1284,08
513,18	1267,69
513,38	1236,97
513,58	1302,51
513,78	1243,12
513,98	1187,82
514,18	1263,60
514,38	1193,97
514,58	1277,93
514,78	1294,32
514,98	1353,71
515,18	1208,30
515,38	1234,93
515,58	1232,88
515,78	1222,64
515,98	1257,45
516,18	1306,60
516,38	1282,03
516,57	1282,03
516,77	1339,37
516,97	1286,12
517,17	1322,99
517,37	1202,16
517,57	1288,17
517,77	1312,75
517,97	1279,98
518,17	1265,64
518,37	1255,40
518,57	1265,64
518,77	1316,84
518,97	1347,56
519,16	1261,55
519,36	1210,35
519,56	1273,84
519,76	1282,03
519,96	1310,70
520,16	1279,98
520,36	1286,12
520,56	1236,97
520,76	1357,80
520,96	1288,17
521,16	1310,70
521,35	1265,64
521,55	1337,32
521,75	1286,12
521,95	1339,37
522,15	1263,60
522,35	1261,55
522,55	1251,31
522,75	1249,26
522,95	1216,49
523,14	1230,83
523,34	1304,56
523,54	1251,31
523,74	1300,46
523,94	1243,12
524,14	1232,88
524,34	1271,79
524,54	1325,04
524,73	1310,70
524,93	1329,13
525,13	1228,78
525,33	1265,64
525,53	1304,56
525,73	1259,50
525,93	1331,18
526,13	1294,32
526,32	1320,94
526,52	1353,71
526,72	1261,55
526,92	1220,59
527,12	1255,40
527,32	1249,26
527,52	1251,31
527,71	1296,36
527,91	1304,56
528,11	1304,56
528,31	1306,60
528,51	1312,75
528,71	1249,26
528,90	1296,36
529,10	1290,22
529,30	1261,55
529,50	1243,12
529,70	1253,36
529,90	1249,26
530,09	1310,70
530,29	1318,89
530,49	1249,26
530,69	1267,69
530,89	1306,60
531,09	1245,16
531,28	1261,55
531,48	1208,30
531,68	1253,36
531,88	1249,26
532,08	1318,89
532,28	1304,56
532,47	1269,74
532,67	1366,00
532,87	1343,47
533,07	1204,21
533,27	1269,74
533,46	1329,13
533,66	1247,21
533,86	1316,84
534,06	1243,12
534,26	1245,16
534,45	1331,18
534,65	1243,12
534,85	1241,07
535,05	1249,26
535,25	1247,21
535,44	1255,40
535,64	1316,84
535,84	1265,64
536,04	1224,69
536,24	1339,37
536,43	1261,55
536,63	1261,55
536,83	1302,51
537,03	1257,45
537,22	1257,45
537,42	1298,41
537,62	1210,35
537,82	1243,12
538,02	1314,80
538,21	1257,45
538,41	1351,66
538,61	1275,88
538,81	1239,02
539,00	1230,83
539,20	1277,93
539,40	1329,13
539,60	1329,13
539,79	1325,04
539,99	1273,84
540,19	1239,02
540,39	1273,84
540,58	1308,65
540,78	1308,65
540,98	1279,98
541,18	1273,84
541,37	1243,12
541,57	1292,27
541,77	1247,21
541,97	1347,56
542,16	1288,17
542,36	1198,06
542,56	1193,97
542,76	1251,31
542,95	1355,76
543,15	1171,44
543,35	1259,50
543,54	1241,07
543,74	1226,73
543,94	1275,88
544,14	1277,93
544,33	1273,84
544,53	1337,32
544,73	1314,80
544,93	1300,46
545,12	1261,55
545,32	1249,26
545,52	1236,97
545,71	1286,12
545,91	1241,07
546,11	1247,21
546,30	1279,98
546,50	1325,04
546,70	1351,66
546,90	1302,51
547,09	1239,02
547,29	1196,01
547,49	1236,97
547,68	1298,41
547,88	1245,16
548,08	1228,78
548,27	1363,95
548,47	1314,80
548,67	1277,93
548,87	1243,12
549,06	1314,80
549,26	1325,04
549,46	1306,60
549,65	1296,36
549,85	1300,46
550,05	1273,84
550,24	1222,64
550,44	1269,74
550,64	1269,74
550,83	1236,97
551,03	1277,93
551,23	1298,41
551,42	1230,83
551,62	1273,84
551,82	1284,08
552,01	1327,08
552,21	1214,45
552,41	1267,69
552,60	1245,16
552,80	1282,03
553,00	1220,59
553,19	1208,30
553,39	1290,22
553,59	1279,98
553,78	1239,02
553,98	1298,41
554,17	1335,28
554,37	1232,88
554,57	1320,94
554,76	1269,74
554,96	1243,12
555,16	1329,13
555,35	1273,84
555,55	1232,88
555,75	1302,51
555,94	1288,17
556,14	1259,50
556,33	1277,93
556,53	1236,97
556,73	1314,80
556,92	1236,97
557,12	1249,26
557,32	1267,69
557,51	1290,22
557,71	1230,83
557,90	1288,17
558,10	1286,12
558,30	1243,12
558,49	1247,21
558,69	1265,64
558,88	1318,89
559,08	1329,13
559,28	1279,98
559,47	1236,97
559,67	1228,78
559,86	1249,26
560,06	1224,69
560,26	1335,28
560,45	1288,17
560,65	1210,35
560,84	1253,36
561,04	1275,88
561,24	1204,21
561,43	1314,80
561,63	1243,12
561,82	1277,93
562,02	1191,92
562,22	1286,12
562,41	1239,02
562,61	1292,27
562,80	1206,25
563,00	1380,33
563,19	1277,93
563,39	1343,47
563,59	1284,08
563,78	1275,88
563,98	1216,49
564,17	1320,94
564,37	1245,16
564,56	1286,12
564,76	1271,79
564,96	1331,18
565,15	1275,88
565,35	1308,65
565,54	1271,79
565,74	1214,45
565,93	1275,88
566,13	1232,88
566,32	1306,60
566,52	1249,26
566,71	1243,12
566,91	1298,41
567,11	1277,93
567,30	1284,08
567,50	1245,16
567,69	1247,21
567,89	1310,70
568,08	1230,83
568,28	1239,02
568,47	1396,71
568,67	1269,74
568,86	1271,79
569,06	1253,36
569,25	1282,03
569,45	1320,94
569,64	1302,51
569,84	1257,45
570,04	1271,79
570,23	1179,63
570,43	1251,31
570,62	1279,98
570,82	1282,03
571,01	1226,73
571,21	1259,50
571,40	1263,60
571,60	1273,84
571,79	1216,49
571,99	1249,26
572,18	1173,49
572,38	1327,08
572,57	1316,84
572,77	1294,32
572,96	1269,74
573,16	1255,40
573,35	1288,17
573,55	1374,19
573,74	1245,16
573,94	1333,23
574,13	1208,30
574,33	1173,49
574,52	1282,03
574,71	1302,51
574,91	1183,73
575,10	1282,03
575,30	1265,64
575,49	1204,21
575,69	1247,21
575,88	1279,98
576,08	1282,03
576,27	1306,60
576,47	1288,17
576,66	1230,83
576,86	1304,56
577,05	1304,56
577,25	1300,46
577,44	1253,36
577,64	1277,93
577,83	1312,75
578,02	1277,93
578,22	1275,88
578,41	1294,32
578,61	1384,43
578,80	1220,59
579,00	1275,88
579,19	1314,80
579,39	1275,88
579,58	1337,32
579,77	1290,22
579,97	1275,88
580,16	1253,36
580,36	1220,59
580,55	1138,67
580,75	1241,07
580,94	1232,88
581,13	1335,28
581,33	1257,45
581,52	1269,74
581,72	1298,41
581,91	1243,12
582,11	1214,45
582,30	1296,36
582,49	1239,02
582,69	1275,88
582,88	1312,75
583,08	1318,89
583,27	1298,41
583,47	1296,36
583,66	1251,31
583,85	1290,22
584,05	1288,17
584,24	1290,22
584,44	1249,26
584,63	1265,64
584,82	1267,69
585,02	1279,98
585,21	1312,75
585,41	1320,94
585,60	1290,22
585,79	1288,17
585,99	1263,60
586,18	1329,13
586,37	1255,40
586,57	1296,36
586,76	1339,37
586,96	1273,84
587,15	1290,22
587,34	1277,93
587,54	1312,75
587,73	1290,22
587,93	1284,08
588,12	1259,50
588,31	1259,50
588,51	1193,97
588,70	1298,41
588,89	1181,68
589,09	1282,03
589,28	1298,41
589,47	1314,80
589,67	1224,69
589,86	1236,97
590,06	1189,87
590,25	1239,02
590,44	1308,65
590,64	1200,11
590,83	1243,12
591,02	1257,45
591,22	1300,46
591,41	1331,18
591,60	1282,03
591,80	1241,07
591,99	1308,65
592,18	1269,74
592,38	1333,23
592,57	1275,88
592,76	1292,27
592,96	1275,88
593,15	1226,73
593,34	1269,74
593,54	1282,03
593,73	1312,75
593,92	1275,88
594,12	1304,56
594,31	1273,84
594,50	1269,74
594,70	1355,76
594,89	1234,93
595,08	1275,88
595,28	1282,03
595,47	1275,88
595,66	1286,12
595,86	1216,49
596,05	1320,94
596,24	1234,93
596,43	1374,19
596,63	1220,59
596,82	1306,60
597,01	1220,59
597,21	1259,50
597,40	1279,98
597,59	1290,22
597,79	1355,76
597,98	1232,88
598,17	1333,23
598,36	1271,79
598,56	1191,92
598,75	1298,41
598,94	1247,21
599,14	1325,04
599,33	1288,17
599,52	1259,50
599,71	1269,74
599,91	1239,02
600,10	1302,51
600,29	1236,97
600,48	1384,43
600,68	1368,04
600,87	1259,50
601,06	1247,21
601,26	1269,74
601,45	1316,84
601,64	1255,40
601,83	1247,21
602,03	1269,74
602,22	1318,89
602,41	1222,64
602,60	1261,55
602,80	1259,50
602,99	1298,41
603,18	1232,88
603,37	1269,74
603,57	1239,02
603,76	1345,52
603,95	1253,36
604,14	1263,60
604,34	1265,64
604,53	1290,22
604,72	1292,27
604,91	1271,79
605,10	1257,45
605,30	1351,66
605,49	1267,69
605,68	1257,45
605,87	1284,08
606,07	1261,55
606,26	1265,64
606,45	1304,56
606,64	1265,64
606,84	1368,04
607,03	1275,88
607,22	1368,04
607,41	1265,64
607,60	1279,98
607,80	1302,51
607,99	1312,75
608,18	1210,35
608,37	1271,79
608,56	1220,59
608,76	1286,12
608,95	1327,08
609,14	1261,55
609,33	1224,69
609,52	1230,83
609,72	1245,16
609,91	1298,41
610,10	1273,84
610,29	1249,26
610,48	1255,40
610,68	1325,04
610,87	1298,41
611,06	1236,97
611,25	1327,08
611,44	1318,89
611,63	1261,55
611,83	1345,52
612,02	1236,97
612,21	1245,16
612,40	1243,12
612,59	1286,12
612,79	1181,68
612,98	1351,66
613,17	1380,33
613,36	1275,88
613,55	1249,26
613,74	1296,36
613,93	1212,40
614,13	1325,04
614,32	1300,46
614,51	1267,69
614,70	1312,75
614,89	1249,26
615,08	1247,21
615,28	1361,90
615,47	1363,95
615,66	1263,60
615,85	1257,45
616,04	1333,23
616,23	1236,97
616,42	1282,03
616,62	1304,56
616,81	1331,18
617,00	1226,73
617,19	1239,02
617,38	1288,17
617,57	1277,93
617,76	1341,42
617,95	1279,98
618,15	1232,88
618,34	1290,22
618,53	1296,36
618,72	1329,13
618,91	1234,93
619,10	1306,60
619,29	1275,88
619,48	1322,99
619,68	1230,83
619,87	1261,55
620,06	1325,04
620,25	1327,08
620,44	1284,08
620,63	1306,60
620,82	1286,12
621,01	1222,64
621,20	1267,69
621,39	1304,56
621,59	1292,27
621,78	1261,55
621,97	1230,83
622,16	1318,89
622,35	1253,36
622,54	1236,97
622,73	1288,17
622,92	1292,27
623,11	1288,17
623,30	1243,12
623,49	1212,40
623,68	1345,52
623,88	1318,89
624,07	1271,79
624,26	1331,18
624,45	1290,22
624,64	1204,21
624,83	1257,45
625,02	1329,13
625,21	1290,22
625,40	1267,69
625,59	1329,13
625,78	1310,70
625,97	1310,70
626,16	1306,60
626,35	1277,93
626,54	1310,70
626,74	1267,69
626,93	1302,51
627,12	1279,98
627,31	1333,23
627,50	1308,65
627,69	1343,47
627,88	1277,93
628,07	1224,69
628,26	1253,36
628,45	1251,31
628,64	1310,70
628,83	1333,23
629,02	1267,69
629,21	1279,98
629,40	1343,47
629,59	1241,07
629,78	1329,13
629,97	1273,84
630,16	1263,60
630,35	1265,64
630,54	1351,66
630,73	1355,76
630,92	1351,66
631,11	1312,75
631,30	1368,04
631,49	1384,43
631,68	1419,24
631,87	1366,00
632,06	1470,44
632,25	1511,40
632,44	1419,24
632,63	1363,95
632,82	1413,10
633,01	1413,10
633,20	1503,21
633,39	1368,04
633,58	1460,20
633,77	1419,24
633,96	1470,44
634,15	1476,59
634,34	1486,83
634,53	1386,47
634,72	1431,53
634,91	1468,39
635,10	1423,34
635,29	1490,92
635,48	1429,48
635,67	1392,62
635,86	1394,67
636,05	1341,42
636,24	1384,43
636,43	1409,00
636,62	1458,15
636,81	1419,24
637,00	1404,91
637,19	1343,47
637,38	1366,00
637,57	1322,99
637,76	1333,23
637,95	1243,12
638,14	1341,42
638,33	1314,80
638,52	1269,74
638,71	1277,93
638,89	1245,16
639,08	1392,62
639,27	1314,80
639,46	1351,66
639,65	1275,88
639,84	1310,70
640,03	1337,32
640,22	1292,27
640,41	1304,56
640,60	1282,03
640,79	1277,93
640,98	1294,32
641,17	1282,03
641,36	1298,41
641,55	1286,12
641,74	1288,17
641,92	1226,73
642,11	1269,74
642,30	1243,12
642,49	1243,12
642,68	1230,83
642,87	1288,17
643,06	1259,50
643,25	1267,69
643,44	1271,79
643,63	1239,02
643,82	1304,56
644,00	1243,12
644,19	1298,41
644,38	1191,92
644,57	1275,88
644,76	1284,08
644,95	1241,07
645,14	1200,11
645,33	1282,03
645,52	1243,12
645,71	1255,40
645,89	1288,17
646,08	1212,40
646,27	1275,88
646,46	1247,21
646,65	1314,80
646,84	1353,71
647,03	1255,40
647,22	1224,69
647,40	1228,78
647,59	1257,45
647,78	1224,69
647,97	1257,45
648,16	1325,04
648,35	1249,26
648,54	1318,89
648,73	1292,27
648,91	1269,74
649,10	1277,93
649,29	1212,40
649,48	1296,36
649,67	1269,74
649,86	1277,93
650,05	1253,36
650,23	1273,84
650,42	1241,07
650,61	1267,69
650,80	1298,41
650,99	1296,36
651,18	1298,41
651,36	1263,60
651,55	1269,74
651,74	1257,45
651,93	1335,28
652,12	1265,64
652,31	1208,30
652,49	1292,27
652,68	1261,55
652,87	1273,84
653,06	1265,64
653,25	1302,51
653,44	1271,79
653,62	1314,80
653,81	1322,99
654,00	1298,41
654,19	1349,61
654,38	1243,12
654,56	1218,54
654,75	1296,36
654,94	1290,22
655,13	1253,36
655,32	1257,45
655,51	1306,60
655,69	1222,64
655,88	1296,36
656,07	1282,03
656,26	1290,22
656,45	1286,12
656,63	1245,16
656,82	1271,79
657,01	1312,75
657,20	1304,56
657,38	1282,03
657,57	1273,84
657,76	1304,56
657,95	1292,27
658,14	1257,45
658,32	1220,59
658,51	1304,56
658,70	1206,25
658,89	1314,80
659,08	1288,17
659,26	1368,04
659,45	1210,35
659,64	1296,36
659,83	1292,27
660,01	1224,69
660,20	1290,22
660,39	1320,94
660,58	1322,99
660,76	1335,28
660,95	1279,98
661,14	1304,56
661,33	1337,32
661,51	1314,80
661,70	1275,88
661,89	1263,60
662,08	1318,89
662,26	1263,60
662,45	1290,22
662,64	1368,04
662,83	1298,41
663,01	1279,98
663,20	1206,25
663,39	1284,08
663,58	1290,22
663,76	1247,21
663,95	1259,50
664,14	1271,79
664,32	1294,32
664,51	1277,93
664,70	1314,80
664,89	1251,31
665,07	1253,36
665,26	1316,84
665,45	1333,23
665,64	1312,75
665,82	1263,60
666,01	1288,17
666,20	1265,64
666,38	1277,93
666,57	1343,47
666,76	1279,98
666,95	1255,40
667,13	1241,07
667,32	1298,41
667,51	1325,04
667,69	1259,50
667,88	1325,04
668,07	1279,98
668,25	1273,84
668,44	1296,36
668,63	1376,24
668,81	1288,17
669,00	1228,78
669,19	1187,82
669,38	1269,74
669,56	1247,21
669,75	1257,45
669,94	1325,04
670,12	1335,28
670,31	1296,36
670,50	1224,69
670,68	1241,07
670,87	1224,69
671,06	1265,64
671,24	1249,26
671,43	1327,08
671,62	1267,69
671,80	1341,42
671,99	1265,64
672,18	1290,22
672,36	1269,74
672,55	1273,84
672,74	1257,45
672,92	1259,50
673,11	1220,59
673,29	1267,69
673,48	1224,69
673,67	1255,40
673,85	1419,24
674,04	1245,16
674,23	1271,79
674,41	1284,08
674,60	1292,27
674,79	1277,93
674,97	1316,84
675,16	1177,58
675,34	1288,17
675,53	1284,08
675,72	1269,74
675,90	1351,66
676,09	1218,54
676,28	1327,08
676,46	1212,40
676,65	1161,20
676,83	1275,88
677,02	1275,88
677,21	1318,89
677,39	1239,02
677,58	1296,36
677,77	1298,41
677,95	1251,31
678,14	1312,75
678,32	1247,21
678,51	1275,88
678,70	1243,12
678,88	1245,16
679,07	1310,70
679,25	1261,55
679,44	1191,92
679,63	1243,12
679,81	1234,93
680,00	1300,46
680,18	1290,22
680,37	1308,65
680,55	1288,17
680,74	1212,40
680,93	1232,88
681,11	1300,46
681,30	1247,21
681,48	1236,97
681,67	1282,03
681,85	1239,02
682,04	1339,37
682,23	1255,40
682,41	1308,65
682,60	1239,02
682,78	1277,93
682,97	1251,31
683,15	1282,03
683,34	1306,60
683,53	1277,93
683,71	1290,22
683,90	1257,45
684,08	1316,84
684,27	1284,08
684,45	1259,50
684,64	1306,60
684,82	1234,93
685,01	1236,97
685,19	1267,69
685,38	1363,95
685,57	1216,49
685,75	1368,04
685,94	1241,07
686,12	1257,45
686,31	1261,55
686,49	1318,89
686,68	1304,56
686,86	1345,52
687,05	1306,60
687,23	1314,80
687,42	1239,02
687,60	1212,40
687,79	1284,08
687,97	1261,55
688,16	1269,74
688,34	1363,95
688,53	1284,08
688,71	1277,93
688,90	1234,93
689,08	1308,65
689,27	1318,89
689,45	1271,79
689,64	1290,22
689,82	1241,07
690,01	1288,17
690,19	1327,08
690,38	1282,03
690,56	1316,84
690,75	1216,49
690,93	1265,64
691,12	1257,45
691,30	1216,49
691,49	1316,84
691,67	1318,89
691,86	1267,69
692,04	1236,97
692,23	1234,93
692,41	1265,64
692,60	1257,45
692,78	1343,47
692,97	1275,88
693,15	1282,03
693,34	1275,88
693,52	1282,03
693,71	1271,79
693,89	1259,50
694,08	1296,36
694,26	1349,61
694,44	1224,69
694,63	1290,22
694,81	1271,79
695,00	1243,12
695,18	1306,60
695,37	1329,13
695,55	1259,50
695,74	1312,75
695,92	1241,07
696,10	1318,89
696,29	1331,18
696,47	1255,40
696,66	1329,13
696,84	1273,84
697,03	1286,12
697,21	1212,40
697,40	1318,89
697,58	1253,36
697,76	1277,93
697,95	1265,64
698,13	1279,98
698,32	1243,12
698,50	1257,45
698,68	1265,64
698,87	1193,97
699,05	1247,21
699,24	1298,41
699,42	1277,93
699,61	1277,93
699,79	1271,79
699,97	1253,36
700,16	1273,84
700,34	1286,12
700,53	1333,23
700,71	1253,36
700,89	1267,69
701,08	1312,75
701,26	1271,79
701,45	1275,88
701,63	1259,50
701,81	1316,84
702,00	1288,17
702,18	1210,35
702,37	1191,92
702,55	1298,41
702,73	1189,87
702,92	1269,74
703,10	1257,45
703,28	1282,03
703,47	1257,45
703,65	1277,93
703,84	1310,70
704,02	1341,42
704,20	1259,50
704,39	1234,93
704,57	1271,79
704,75	1302,51
704,94	1288,17
705,12	1245,16
705,30	1279,98
705,49	1298,41
705,67	1251,31
705,86	1255,40
706,04	1298,41
706,22	1302,51
706,41	1245,16
706,59	1257,45
706,77	1247,21
706,96	1220,59
707,14	1306,60
707,32	1236,97
707,51	1259,50
707,69	1279,98
707,87	1257,45
708,06	1265,64
708,24	1273,84
708,42	1261,55
708,61	1284,08
708,79	1322,99
708,97	1302,51
709,16	1191,92
709,34	1292,27
709,52	1218,54
709,71	1255,40
709,89	1277,93
710,07	1236,97
710,26	1263,60
710,44	1181,68
710,62	1253,36
710,80	1183,73
710,99	1300,46
711,17	1337,32
711,35	1286,12
711,54	1302,51
711,72	1308,65
711,90	1265,64
712,09	1294,32
712,27	1271,79
712,45	1284,08
712,63	1259,50
712,82	1329,13
713,00	1288,17
713,18	1228,78
713,37	1263,60
713,55	1286,12
713,73	1296,36
713,91	1249,26
714,10	1257,45
714,28	1273,84
714,46	1243,12
714,65	1261,55
714,83	1357,80
715,01	1253,36
715,19	1290,22
715,38	1275,88
715,56	1286,12
715,74	1224,69
715,92	1345,52
716,11	1310,70
716,29	1314,80
716,47	1249,26
716,65	1282,03
716,84	1236,97
717,02	1230,83
717,20	1271,79
717,38	1302,51
717,57	1267,69
717,75	1251,31
717,93	1288,17
718,11	1275,88
718,30	1279,98
718,48	1288,17
718,66	1253,36
718,84	1282,03
719,03	1314,80
719,21	1239,02
719,39	1372,14
719,57	1245,16
719,75	1263,60
719,94	1292,27
720,12	1273,84
720,30	1292,27
720,48	1296,36
720,67	1288,17
720,85	1251,31
721,03	1286,12
721,21	1236,97
721,39	1247,21
721,58	1286,12
721,76	1300,46
721,94	1173,49
722,12	1374,19
722,30	1284,08
722,49	1296,36
722,67	1269,74
722,85	1296,36
723,03	1230,83
723,21	1216,49
723,40	1243,12
723,58	1331,18
723,76	1241,07
723,94	1298,41
724,12	1247,21
724,30	1351,66
724,49	1308,65
724,67	1312,75
724,85	1265,64
725,03	1267,69
725,21	1253,36
725,40	1292,27
725,58	1329,13
725,76	1310,70
725,94	1282,03
726,12	1269,74
726,30	1265,64
726,49	1296,36
726,67	1290,22
726,85	1290,22
727,03	1298,41
727,21	1257,45
727,39	1292,27
727,57	1288,17
727,76	1318,89
727,94	1222,64
728,12	1294,32
728,30	1318,89
728,48	1255,40
728,66	1316,84
728,84	1284,08
729,03	1273,84
729,21	1298,41
729,39	1271,79
729,57	1236,97
729,75	1300,46
729,93	1269,74
730,11	1247,21
730,30	1224,69
730,48	1243,12
730,66	1331,18
730,84	1271,79
731,02	1257,45
731,20	1282,03
731,38	1292,27
731,56	1181,68
731,74	1249,26
731,93	1265,64
732,11	1316,84
732,29	1312,75
732,47	1230,83
732,65	1255,40
732,83	1329,13
733,01	1228,78
733,19	1267,69
733,37	1279,98
733,56	1296,36
733,74	1236,97
733,92	1239,02
734,10	1257,45
734,28	1322,99
734,46	1292,27
734,64	1257,45
734,82	1327,08
735,00	1241,07
735,18	1255,40
735,36	1271,79
735,54	1226,73
735,73	1361,90
735,91	1294,32
736,09	1292,27
736,27	1296,36
736,45	1302,51
736,63	1257,45
736,81	1206,25
736,99	1220,59
737,17	1300,46
737,35	1273,84
737,53	1300,46
737,71	1249,26
737,89	1288,17
738,07	1273,84
738,25	1222,64
738,43	1261,55
738,61	1306,60
738,80	1189,87
738,98	1292,27
739,16	1241,07
739,34	1249,26
739,52	1273,84
739,70	1279,98
739,88	1206,25
740,06	1239,02
740,24	1265,64
740,42	1275,88
740,60	1288,17
740,78	1263,60
740,96	1304,56
741,14	1271,79
741,32	1304,56
741,50	1200,11
741,68	1327,08
741,86	1259,50
742,04	1273,84
742,22	1298,41
742,40	1273,84
742,58	1306,60
742,76	1226,73
742,94	1284,08
743,12	1306,60
743,30	1302,51
743,48	1294,32
743,66	1269,74
743,84	1312,75
744,02	1249,26
744,20	1282,03
744,38	1288,17
744,56	1241,07
744,74	1177,58
744,92	1230,83
745,10	1304,56
745,28	1265,64
745,46	1310,70
745,64	1263,60
745,82	1218,54
746,00	1322,99
746,18	1273,84
746,36	1210,35
746,54	1255,40
746,72	1290,22
746,90	1282,03
747,08	1271,79
747,26	1236,97
747,44	1341,42
747,62	1325,04
747,80	1255,40
747,98	1259,50
748,15	1279,98
748,33	1239,02
748,51	1220,59
748,69	1255,40
748,87	1271,79
749,05	1245,16
749,23	1341,42
749,41	1269,74
749,59	1304,56
749,77	1298,41
749,95	1290,22
750,13	1325,04
750,31	1265,64
750,49	1288,17
750,67	1329,13
750,85	1265,64
751,03	1273,84
751,20	1286,12
751,38	1337,32
751,56	1247,21
751,74	1325,04
751,92	1255,40
752,10	1302,51
752,28	1279,98
752,46	1271,79
752,64	1226,73
752,82	1239,02
753,00	1210,35
753,18	1259,50
753,35	1284,08
753,53	1232,88
753,71	1290,22
753,89	1306,60
754,07	1218,54
754,25	1325,04
754,43	1255,40
754,61	1279,98
754,79	1318,89
754,97	1316,84
755,14	1310,70
755,32	1273,84
755,50	1304,56
755,68	1259,50
755,86	1267,69
756,04	1288,17
756,22	1329,13
756,40	1282,03
756,57	1302,51
756,75	1284,08
756,93	1267,69
757,11	1314,80
757,29	1247,21
757,47	1325,04
757,65	1308,65
757,82	1296,36
758,00	1310,70
758,18	1263,60
758,36	1239,02
758,54	1239,02
758,72	1277,93
758,90	1277,93
759,07	1286,12
759,25	1306,60
759,43	1308,65
759,61	1273,84
759,79	1253,36
759,97	1228,78
760,15	1306,60
760,32	1273,84
760,50	1306,60
760,68	1267,69
760,86	1234,93
761,04	1306,60
761,22	1234,93
761,39	1306,60
761,57	1275,88
761,75	1322,99
761,93	1320,94
762,11	1261,55
762,28	1322,99
762,46	1382,38
762,64	1286,12
762,82	1296,36
763,00	1239,02
763,18	1308,65
763,35	1286,12
763,53	1263,60
763,71	1288,17
763,89	1290,22
764,07	1296,36
764,24	1277,93
764,42	1236,97
764,60	1337,32
764,78	1298,41
764,96	1273,84
765,13	1292,27
765,31	1310,70
765,49	1247,21
765,67	1286,12
765,84	1290,22
766,02	1220,59
766,20	1247,21
766,38	1269,74
766,56	1220,59
766,73	1337,32
766,91	1236,97
767,09	1245,16
767,27	1241,07
767,44	1304,56
767,62	1290,22
767,80	1255,40
767,98	1175,53
768,15	1394,67
768,33	1300,46
768,51	1253,36
768,69	1265,64
768,87	1261,55
769,04	1316,84
769,22	1247,21
769,40	1226,73
769,58	1331,18
769,75	1228,78
769,93	1273,84
770,11	1224,69
770,28	1230,83
770,46	1243,12
770,64	1325,04
770,82	1243,12
770,99	1290,22
771,17	1267,69
771,35	1275,88
771,53	1284,08
771,70	1296,36
771,88	1261,55
772,06	1279,98
772,23	1312,75
772,41	1275,88
772,59	1296,36
772,77	1312,75
772,94	1216,49
773,12	1241,07
773,30	1310,70
773,47	1206,25
773,65	1288,17
773,83	1341,42
774,01	1331,18
774,18	1214,45
774,36	1273,84
774,54	1236,97
774,71	1314,80
774,89	1198,06
775,07	1314,80
775,24	1320,94
775,42	1306,60
775,60	1335,28
775,78	1286,12
775,95	1304,56
776,13	1261,55
776,31	1206,25
776,48	1271,79
776,66	1353,71
776,84	1226,73
777,01	1247,21
777,19	1255,40
777,37	1306,60
777,54	1220,59
777,72	1357,80
777,90	1202,16
778,07	1212,40
778,25	1304,56
778,43	1325,04
778,60	1296,36
778,78	1290,22
778,96	1310,70
779,13	1279,98
779,31	1279,98
779,49	1325,04
779,66	1310,70
779,84	1206,25
780,01	1290,22
780,19	1214,45
780,37	1290,22
780,54	1257,45
780,72	1267,69
780,90	1226,73
781,07	1273,84
781,25	1241,07
781,43	1265,64
781,60	1277,93
781,78	1271,79
781,95	1296,36
782,13	1263,60
782,31	1304,56
782,48	1349,61
782,66	1333,23
782,83	1279,98
783,01	1239,02
783,19	1239,02
783,36	1337,32
783,54	1265,64
783,72	1241,07
783,89	1239,02
784,07	1271,79
784,24	1275,88
784,42	1265,64
784,60	1255,40
784,77	1234,93
784,95	1286,12
785,12	1325,04
785,30	1232,88
785,47	1296,36
785,65	1255,40
785,83	1292,27
786,00	1253,36
786,18	1218,54
786,35	1230,83
786,53	1198,06
786,71	1271,79
786,88	1296,36
787,06	1267,69
787,23	1247,21
787,41	1284,08
787,58	1320,94
787,76	1200,11
787,94	1294,32
788,11	1284,08
788,29	1257,45
788,46	1296,36
788,64	1251,31
788,81	1265,64
788,99	1341,42
789,16	1273,84
789,34	1333,23
789,52	1275,88
789,69	1255,40
789,87	1241,07
790,04	1298,41
790,22	1224,69
790,39	1298,41
790,57	1214,45
790,74	1296,36
790,92	1282,03
791,09	1243,12
791,27	1314,80
791,44	1255,40
791,62	1261,55
791,79	1312,75
791,97	1245,16
792,15	1331,18
792,32	1265,64
792,50	1308,65
792,67	1277,93
792,85	1359,85
793,02	1277,93
793,20	1312,75
793,37	1290,22
793,55	1370,09
793,72	1251,31
793,90	1290,22
794,07	1341,42
794,25	1157,10
794,42	1245,16
794,60	1241,07
794,77	1275,88
794,95	1275,88
795,12	1308,65
795,30	1239,02
795,47	1347,56
795,65	1257,45
795,82	1255,40
796,00	1320,94
796,17	1320,94
796,34	1329,13
796,52	1228,78
796,69	1284,08
796,87	1286,12
797,04	1214,45
797,22	1267,69
797,39	1322,99
797,57	1232,88
797,74	1292,27
797,92	1271,79
798,09	1212,40
798,27	1255,40
798,44	1290,22
798,62	1251,31
798,79	1286,12
798,96	1275,88
799,14	1263,60
799,31	1241,07
799,49	1259,50
799,66	1277,93
799,84	1331,18
800,01	1239,02
800,19	1325,04
800,36	1273,84
800,53	1304,56
800,71	1269,74
800,88	1312,75
801,06	1277,93
801,23	1253,36
801,41	1208,30
801,58	1191,92
801,75	1241,07
801,93	1329,13
802,10	1298,41
802,28	1296,36
802,45	1230,83
802,63	1284,08
802,80	1271,79
802,97	1261,55
803,15	1314,80
803,32	1325,04
803,50	1290,22
803,67	1224,69
803,84	1230,83
804,02	1325,04
804,19	1308,65
804,37	1230,83
804,54	1275,88
804,71	1265,64
804,89	1230,83
805,06	1333,23
805,24	1306,60
805,41	1279,98
805,58	1312,75
805,76	1302,51
805,93	1290,22
806,10	1210,35
806,28	1265,64
806,45	1234,93
806,63	1185,77
806,80	1314,80
806,97	1275,88
807,15	1335,28
807,32	1204,21
807,49	1318,89
807,67	1232,88
807,84	1261,55
808,01	1282,03
808,19	1257,45
808,36	1286,12
808,54	1249,26
808,71	1200,11
808,88	1359,85
809,06	1286,12
809,23	1257,45
809,40	1310,70
809,58	1290,22
809,75	1271,79
809,92	1302,51
810,10	1245,16
810,27	1269,74
810,44	1361,90
810,62	1310,70
810,79	1300,46
810,96	1243,12
811,14	1259,50
811,31	1329,13
811,48	1208,30
811,66	1185,77
811,83	1353,71
812,00	1275,88
812,18	1247,21
812,35	1249,26
812,52	1247,21
812,69	1249,26
812,87	1277,93
813,04	1312,75
813,21	1263,60
813,39	1279,98
813,56	1306,60
813,73	1263,60
813,91	1333,23
814,08	1322,99
814,25	1243,12
814,42	1290,22
814,60	1318,89
814,77	1183,73
814,94	1327,08
815,12	1218,54
815,29	1322,99
815,46	1296,36
815,63	1366,00
815,81	1204,21
815,98	1282,03
816,15	1279,98
816,33	1318,89
816,50	1251,31
816,67	1220,59
816,84	1284,08
817,02	1247,21
817,19	1327,08
817,36	1329,13
817,53	1304,56
817,71	1300,46
817,88	1277,93
818,05	1267,69
818,22	1271,79
818,40	1292,27
818,57	1310,70
818,74	1312,75
818,91	1261,55
819,09	1355,76
819,26	1253,36
819,43	1279,98
819,60	1255,40
819,78	1245,16
819,95	1312,75
820,12	1284,08
820,29	1224,69
820,47	1247,21
820,64	1269,74
820,81	1273,84
820,98	1314,80
821,15	1255,40
821,33	1279,98
821,50	1253,36
821,67	1282,03
821,84	1314,80
822,02	1302,51
822,19	1216,49
822,36	1249,26
822,53	1370,09
822,70	1277,93
822,88	1331,18
823,05	1304,56
823,22	1241,07
823,39	1232,88
823,56	1169,39
823,74	1251,31
823,91	1232,88
824,08	1286,12
824,25	1255,40
824,42	1325,04
824,60	1247,21
824,77	1282,03
824,94	1253,36
825,11	1218,54
825,28	1232,88
825,45	1249,26
825,63	1236,97
825,80	1239,02
825,97	1257,45
826,14	1294,32
826,31	1271,79
826,48	1230,83
826,66	1230,83
826,83	1251,31
827,00	1279,98
827,17	1265,64
827,34	1243,12
827,51	1228,78
827,69	1327,08
827,86	1251,31
828,03	1277,93
828,20	1294,32
828,37	1247,21
828,54	1193,97
828,71	1257,45
828,89	1292,27
829,06	1275,88
829,23	1257,45
829,40	1290,22
829,57	1251,31
829,74	1271,79
829,91	1284,08
830,09	1306,60
830,26	1325,04
830,43	1349,61
830,60	1298,41
830,77	1284,08
830,94	1269,74
831,11	1282,03
831,28	1302,51
831,46	1183,73
831,63	1288,17
831,80	1279,98
831,97	1251,31
832,14	1247,21
832,31	1263,60
832,48	1245,16
832,65	1249,26
832,82	1304,56
832,99	1210,35
833,17	1241,07
833,34	1308,65
833,51	1228,78
833,68	1241,07
833,85	1232,88
834,02	1253,36
834,19	1292,27
834,36	1228,78
834,53	1286,12
834,70	1257,45
834,87	1241,07
835,04	1316,84
835,22	1294,32
835,39	1251,31
835,56	1232,88
835,73	1265,64
835,90	1308,65
836,07	1230,83
836,24	1243,12
836,41	1314,80
836,58	1171,44
836,75	1261,55
836,92	1220,59
837,09	1345,52
837,26	1214,45
837,43	1279,98
837,60	1302,51
837,77	1300,46
837,94	1288,17
838,12	1298,41
838,29	1329,13
838,46	1263,60
838,63	1288,17
838,80	1269,74
838,97	1222,64
839,14	1279,98
839,31	1247,21
839,48	1374,19
839,65	1247,21
839,82	1386,47
839,99	1314,80
840,16	1306,60
840,33	1267,69
840,50	1273,84
840,67	1255,40
840,84	1304,56
841,01	1204,21
841,18	1273,84
841,35	1247,21
841,52	1318,89
841,69	1257,45
841,86	1306,60
842,03	1255,40
842,20	1279,98
842,37	1167,34
842,54	1265,64
842,71	1312,75
842,88	1306,60
843,05	1230,83
843,22	1292,27
843,39	1271,79
843,56	1253,36
843,73	1269,74
843,90	1253,36
844,07	1224,69
844,24	1265,64
844,41	1314,80
844,58	1259,50
844,75	1265,64
844,92	1286,12
845,09	1292,27
845,26	1331,18
845,43	1312,75
845,60	1310,70
845,77	1282,03
845,94	1298,41
846,10	1167,34
846,27	1263,60
846,44	1286,12
846,61	1279,98
846,78	1294,32
846,95	1333,23
847,12	1249,26
847,29	1234,93
847,46	1372,14
847,63	1347,56
847,80	1292,27
847,97	1249,26
848,14	1257,45
848,31	1322,99
848,48	1239,02
848,65	1253,36
848,82	1310,70
848,98	1273,84
849,15	1337,32
849,32	1247,21
849,49	1284,08
849,66	1210,35
849,83	1376,24
850,00	1325,04
850,17	1286,12
850,34	1273,84
850,51	1241,07
850,68	1284,08
850,85	1335,28
851,01	1359,85
851,18	1255,40
851,35	1271,79
851,52	1288,17
851,69	1245,16
851,86	1339,37
852,03	1241,07
852,20	1265,64
852,37	1288,17
852,53	1263,60
852,70	1286,12
852,87	1279,98
853,04	1351,66
853,21	1302,51
853,38	1304,56
853,55	1243,12
853,72	1331,18
853,89	1269,74
854,05	1290,22
854,22	1232,88
854,39	1222,64
854,56	1187,82
854,73	1265,64
854,90	1243,12
855,07	1331,18
855,23	1286,12
855,40	1255,40
855,57	1325,04
855,74	1208,30
855,91	1284,08
856,08	1277,93
856,25	1288,17
856,41	1271,79
856,58	1249,26
856,75	1296,36
856,92	1230,83
857,09	1286,12
857,26	1286,12
857,42	1255,40
857,59	1204,21
857,76	1322,99
857,93	1206,25
858,10	1175,53
858,27	1265,64
858,43	1298,41
858,60	1236,97
858,77	1306,60
858,94	1284,08
859,11	1296,36
859,27	1284,08
859,44	1282,03
859,61	1239,02
859,78	1241,07
859,95	1339,37
860,12	1261,55
860,28	1275,88
860,45	1257,45
860,62	1335,28
860,79	1296,36
860,95	1255,40
861,12	1251,31
861,29	1216,49
861,46	1366,00
861,63	1230,83
861,79	1259,50
861,96	1247,21
862,13	1296,36
862,30	1267,69
862,47	1349,61
862,63	1269,74
862,80	1314,80
862,97	1212,40
863,14	1239,02
863,30	1259,50
863,47	1257,45
863,64	1296,36
863,81	1306,60
863,97	1257,45
864,14	1296,36
864,31	1241,07
864,48	1251,31
864,65	1310,70
864,81	1251,31
864,98	1255,40
865,15	1314,80
865,32	1241,07
865,48	1277,93
865,65	1224,69
865,82	1265,64
865,98	1269,74
866,15	1310,70
866,32	1288,17
866,49	1300,46
866,65	1253,36
866,82	1267,69
866,99	1327,08
867,16	1279,98
867,32	1290,22
867,49	1247,21
867,66	1404,91
867,83	1273,84
867,99	1220,59
868,16	1224,69
868,33	1265,64
868,49	1259,50
868,66	1284,08
868,83	1306,60
868,99	1306,60
869,16	1222,64
869,33	1247,21
869,50	1290,22
869,66	1183,73
869,83	1243,12
870,00	1284,08
870,16	1271,79
870,33	1275,88
870,50	1284,08
870,66	1198,06
870,83	1261,55
871,00	1255,40
871,17	1288,17
871,33	1239,02
871,50	1349,61
871,67	1273,84
871,83	1216,49
872,00	1257,45
872,17	1271,79
872,33	1249,26
872,50	1341,42
872,67	1263,60
872,83	1206,25
873,00	1255,40
873,17	1222,64
873,33	1198,06
873,50	1292,27
873,67	1218,54
873,83	1286,12
874,00	1288,17
874,16	1286,12
874,33	1265,64
874,50	1275,88
874,66	1275,88
874,83	1265,64
875,00	1304,56
875,16	1312,75
875,33	1306,60
875,50	1236,97
875,66	1200,11
875,83	1263,60
875,99	1314,80
876,16	1302,51
876,33	1288,17
876,49	1210,35
876,66	1255,40
876,83	1263,60
876,99	1259,50
877,16	1222,64
877,32	1300,46
877,49	1261,55
877,66	1257,45
877,82	1271,79
877,99	1284,08
878,15	1292,27
878,32	1286,12
878,49	1220,59
878,65	1249,26
878,82	1263,60
878,98	1300,46
879,15	1298,41
879,32	1241,07
879,48	1277,93
879,65	1255,40
879,81	1271,79
879,98	1263,60
880,15	1314,80
880,31	1263,60
880,48	1265,64
880,64	1286,12
880,81	1298,41
880,97	1275,88
881,14	1349,61
881,31	1290,22
881,47	1243,12
881,64	1273,84
881,80	1255,40
881,97	1279,98
882,13	1253,36
882,30	1355,76
882,47	1306,60
882,63	1249,26
882,80	1286,12
882,96	1269,74
883,13	1337,32
883,29	1261,55
883,46	1228,78
883,62	1314,80
883,79	1175,53
883,95	1263,60
884,12	1271,79
884,29	1243,12
884,45	1292,27
884,62	1243,12
884,78	1249,26
884,95	1271,79
885,11	1329,13
885,28	1277,93
885,44	1292,27
885,61	1286,12
885,77	1277,93
885,94	1304,56
886,10	1320,94
886,27	1347,56
886,43	1282,03
886,60	1263,60
886,76	1345,52
886,93	1284,08
887,09	1298,41
887,26	1263,60
887,42	1245,16
887,59	1193,97
887,75	1263,60
887,92	1267,69
888,08	1282,03
888,25	1222,64
888,41	1228,78
888,58	1265,64
888,74	1273,84
888,91	1261,55
>>>>>End Processed Spectral Data<<<<<
