SpectraSuite Data File
++++++++++++++++++++++++++++++++++++
Date: Sun Apr 03 13:40:04 CEST 2016
User: root
Dark Spectrum Present: No
Reference Spectrum Present: No
Number of Sampled Component Spectra: 1
Spectrometers: USB4C02835
Integration Time (usec): 10000 (USB4C02835)
Spectra Averaged: 1 (USB4C02835)
Boxcar Smoothing: 0 (USB4C02835)
Correct for Electrical Dark: No (USB4C02835)
Strobe/Lamp Enabled: No (USB4C02835)
Correct for Detector Non-linearity: No (USB4C02835)
Correct for Stray Light: No (USB4C02835)
Number of Pixels in Processed Spectrum: 3648
>>>>>Begin Processed Spectral Data<<<<<
177,47	1271,79
177,69	1271,79
177,91	1271,79
178,13	1216,49
178,36	1236,97
178,58	1314,80
178,80	1267,69
179,02	1251,31
179,24	1261,55
179,46	1290,22
179,68	1286,12
179,90	1228,78
180,13	1294,32
180,35	1247,21
180,57	1331,18
180,79	1300,46
181,01	1284,08
181,23	1316,84
181,45	1318,89
181,67	1304,56
181,90	1282,03
182,12	1257,45
182,34	1322,99
182,56	1273,84
182,78	1306,60
183,00	1249,26
183,22	1251,31
183,44	1247,21
183,66	1241,07
183,89	1296,36
184,11	1275,88
184,33	1265,64
184,55	1234,93
184,77	1331,18
184,99	1257,45
185,21	1255,40
185,43	1302,51
185,65	1259,50
185,87	1208,30
186,10	1263,60
186,32	1312,75
186,54	1273,84
186,76	1255,40
186,98	1277,93
187,20	1286,12
187,42	1347,56
187,64	1304,56
187,86	1255,40
188,08	1302,51
188,30	1331,18
188,52	1271,79
188,75	1239,02
188,97	1249,26
189,19	1257,45
189,41	1247,21
189,63	1320,94
189,85	1269,74
190,07	1249,26
190,29	1277,93
190,51	1300,46
190,73	1222,64
190,95	1294,32
191,17	1347,56
191,39	1241,07
191,61	1241,07
191,84	1212,40
192,06	1314,80
192,28	1282,03
192,50	1314,80
192,72	1232,88
192,94	1230,83
193,16	1259,50
193,38	1257,45
193,60	1271,79
193,82	1253,36
194,04	1329,13
194,26	1318,89
194,48	1316,84
194,70	1243,12
194,92	1243,12
195,14	1275,88
195,36	1271,79
195,58	1275,88
195,80	1320,94
196,02	1222,64
196,24	1247,21
196,46	1189,87
196,69	1214,45
196,91	1341,42
197,13	1277,93
197,35	1347,56
197,57	1320,94
197,79	1310,70
198,01	1329,13
198,23	1296,36
198,45	1325,04
198,67	1245,16
198,89	1251,31
199,11	1232,88
199,33	1320,94
199,55	1331,18
199,77	1261,55
199,99	1269,74
200,21	1249,26
200,43	1267,69
200,65	1265,64
200,87	1296,36
201,09	1288,17
201,31	1245,16
201,53	1304,56
201,75	1302,51
201,97	1361,90
202,19	1308,65
202,41	1277,93
202,63	1294,32
202,85	1263,60
203,07	1279,98
203,29	1327,08
203,51	1214,45
203,73	1257,45
203,95	1257,45
204,17	1230,83
204,39	1251,31
204,61	1261,55
204,83	1267,69
205,05	1263,60
205,27	1284,08
205,49	1277,93
205,71	1189,87
205,93	1284,08
206,15	1298,41
206,37	1239,02
206,59	1284,08
206,81	1255,40
207,03	1345,52
207,25	1294,32
207,47	1224,69
207,69	1294,32
207,91	1310,70
208,13	1327,08
208,34	1298,41
208,56	1196,01
208,78	1271,79
209,00	1290,22
209,22	1337,32
209,44	1261,55
209,66	1300,46
209,88	1282,03
210,10	1255,40
210,32	1314,80
210,54	1261,55
210,76	1224,69
210,98	1282,03
211,20	1247,21
211,42	1255,40
211,64	1306,60
211,86	1298,41
212,08	1314,80
212,30	1288,17
212,52	1304,56
212,74	1255,40
212,96	1263,60
213,17	1296,36
213,39	1191,92
213,61	1228,78
213,83	1284,08
214,05	1148,91
214,27	1316,84
214,49	1279,98
214,71	1286,12
214,93	1300,46
215,15	1339,37
215,37	1329,13
215,59	1353,71
215,81	1249,26
216,03	1241,07
216,24	1255,40
216,46	1267,69
216,68	1191,92
216,90	1279,98
217,12	1296,36
217,34	1298,41
217,56	1269,74
217,78	1249,26
218,00	1302,51
218,22	1320,94
218,44	1216,49
218,66	1298,41
218,87	1310,70
219,09	1298,41
219,31	1275,88
219,53	1271,79
219,75	1249,26
219,97	1292,27
220,19	1312,75
220,41	1329,13
220,63	1241,07
220,85	1222,64
221,06	1300,46
221,28	1212,40
221,50	1253,36
221,72	1310,70
221,94	1292,27
222,16	1241,07
222,38	1279,98
222,60	1214,45
222,82	1249,26
223,03	1253,36
223,25	1267,69
223,47	1206,25
223,69	1320,94
223,91	1265,64
224,13	1363,95
224,35	1257,45
224,57	1343,47
224,78	1193,97
225,00	1271,79
225,22	1239,02
225,44	1265,64
225,66	1333,23
225,88	1314,80
226,10	1331,18
226,32	1247,21
226,53	1255,40
226,75	1245,16
226,97	1296,36
227,19	1308,65
227,41	1236,97
227,63	1314,80
227,85	1273,84
228,06	1267,69
228,28	1200,11
228,50	1247,21
228,72	1230,83
228,94	1226,73
229,16	1257,45
229,37	1271,79
229,59	1300,46
229,81	1288,17
230,03	1212,40
230,25	1267,69
230,47	1257,45
230,69	1236,97
230,90	1249,26
231,12	1222,64
231,34	1320,94
231,56	1220,59
231,78	1316,84
232,00	1261,55
232,21	1357,80
232,43	1337,32
232,65	1275,88
232,87	1308,65
233,09	1257,45
233,30	1304,56
233,52	1275,88
233,74	1261,55
233,96	1257,45
234,18	1279,98
234,40	1253,36
234,61	1251,31
234,83	1282,03
235,05	1234,93
235,27	1310,70
235,49	1277,93
235,70	1284,08
235,92	1284,08
236,14	1292,27
236,36	1277,93
236,58	1271,79
236,79	1290,22
237,01	1273,84
237,23	1292,27
237,45	1306,60
237,67	1216,49
237,88	1349,61
238,10	1298,41
238,32	1290,22
238,54	1355,76
238,76	1198,06
238,97	1282,03
239,19	1251,31
239,41	1255,40
239,63	1288,17
239,85	1374,19
240,06	1304,56
240,28	1232,88
240,50	1245,16
240,72	1327,08
240,93	1267,69
241,15	1322,99
241,37	1304,56
241,59	1273,84
241,81	1320,94
242,02	1214,45
242,24	1193,97
242,46	1247,21
242,68	1257,45
242,89	1273,84
243,11	1300,46
243,33	1277,93
243,55	1265,64
243,76	1265,64
243,98	1255,40
244,20	1255,40
244,42	1204,21
244,64	1298,41
244,85	1269,74
245,07	1298,41
245,29	1245,16
245,51	1316,84
245,72	1349,61
245,94	1290,22
246,16	1226,73
246,38	1339,37
246,59	1251,31
246,81	1292,27
247,03	1277,93
247,24	1290,22
247,46	1193,97
247,68	1282,03
247,90	1239,02
248,11	1343,47
248,33	1230,83
248,55	1314,80
248,77	1271,79
248,98	1331,18
249,20	1300,46
249,42	1327,08
249,64	1239,02
249,85	1247,21
250,07	1267,69
250,29	1320,94
250,50	1279,98
250,72	1230,83
250,94	1290,22
251,16	1224,69
251,37	1265,64
251,59	1206,25
251,81	1224,69
252,02	1284,08
252,24	1259,50
252,46	1263,60
252,68	1273,84
252,89	1208,30
253,11	1290,22
253,33	1251,31
253,54	1224,69
253,76	1347,56
253,98	1292,27
254,20	1247,21
254,41	1273,84
254,63	1306,60
254,85	1302,51
255,06	1265,64
255,28	1232,88
255,50	1275,88
255,71	1304,56
255,93	1294,32
256,15	1204,21
256,36	1245,16
256,58	1292,27
256,80	1214,45
257,02	1316,84
257,23	1279,98
257,45	1222,64
257,67	1271,79
257,88	1277,93
258,10	1277,93
258,32	1269,74
258,53	1286,12
258,75	1290,22
258,97	1251,31
259,18	1241,07
259,40	1243,12
259,62	1253,36
259,83	1277,93
260,05	1273,84
260,27	1322,99
260,48	1294,32
260,70	1243,12
260,92	1279,98
261,13	1265,64
261,35	1286,12
261,57	1327,08
261,78	1275,88
262,00	1282,03
262,22	1273,84
262,43	1245,16
262,65	1282,03
262,86	1282,03
263,08	1224,69
263,30	1306,60
263,51	1263,60
263,73	1290,22
263,95	1306,60
264,16	1214,45
264,38	1296,36
264,60	1286,12
264,81	1275,88
265,03	1333,23
265,25	1241,07
265,46	1259,50
265,68	1277,93
265,89	1298,41
266,11	1294,32
266,33	1216,49
266,54	1273,84
266,76	1298,41
266,98	1380,33
267,19	1200,11
267,41	1216,49
267,62	1300,46
267,84	1302,51
268,06	1347,56
268,27	1228,78
268,49	1273,84
268,70	1355,76
268,92	1277,93
269,14	1314,80
269,35	1335,28
269,57	1331,18
269,79	1210,35
270,00	1267,69
270,22	1271,79
270,43	1206,25
270,65	1253,36
270,87	1316,84
271,08	1298,41
271,30	1236,97
271,51	1247,21
271,73	1257,45
271,95	1185,77
272,16	1271,79
272,38	1300,46
272,59	1294,32
272,81	1265,64
273,02	1263,60
273,24	1232,88
273,46	1318,89
273,67	1269,74
273,89	1208,30
274,10	1322,99
274,32	1304,56
274,54	1314,80
274,75	1265,64
274,97	1273,84
275,18	1239,02
275,40	1261,55
275,61	1282,03
275,83	1335,28
276,05	1222,64
276,26	1259,50
276,48	1255,40
276,69	1245,16
276,91	1290,22
277,12	1234,93
277,34	1353,71
277,55	1257,45
277,77	1355,76
277,99	1288,17
278,20	1331,18
278,42	1312,75
278,63	1296,36
278,85	1249,26
279,06	1261,55
279,28	1325,04
279,49	1255,40
279,71	1239,02
279,93	1234,93
280,14	1306,60
280,36	1234,93
280,57	1226,73
280,79	1273,84
281,00	1298,41
281,22	1337,32
281,43	1314,80
281,65	1265,64
281,86	1320,94
282,08	1271,79
282,29	1370,09
282,51	1261,55
282,73	1210,35
282,94	1296,36
283,16	1314,80
283,37	1322,99
283,59	1282,03
283,80	1243,12
284,02	1239,02
284,23	1234,93
284,45	1239,02
284,66	1267,69
284,88	1255,40
285,09	1214,45
285,31	1304,56
285,52	1169,39
285,74	1263,60
285,95	1263,60
286,17	1259,50
286,38	1216,49
286,60	1228,78
286,81	1247,21
287,03	1271,79
287,24	1271,79
287,46	1290,22
287,67	1259,50
287,89	1286,12
288,10	1320,94
288,32	1292,27
288,53	1353,71
288,75	1230,83
288,96	1249,26
289,18	1210,35
289,39	1312,75
289,61	1304,56
289,82	1263,60
290,04	1308,65
290,25	1267,69
290,47	1331,18
290,68	1253,36
290,90	1273,84
291,11	1279,98
291,33	1304,56
291,54	1269,74
291,76	1314,80
291,97	1277,93
292,18	1282,03
292,40	1282,03
292,61	1306,60
292,83	1267,69
293,04	1271,79
293,26	1282,03
293,47	1222,64
293,69	1337,32
293,90	1279,98
294,12	1286,12
294,33	1263,60
294,55	1308,65
294,76	1239,02
294,97	1308,65
295,19	1273,84
295,40	1282,03
295,62	1292,27
295,83	1347,56
296,05	1261,55
296,26	1251,31
296,48	1290,22
296,69	1290,22
296,90	1259,50
297,12	1241,07
297,33	1198,06
297,55	1282,03
297,76	1277,93
297,98	1239,02
298,19	1263,60
298,41	1335,28
298,62	1290,22
298,83	1257,45
299,05	1290,22
299,26	1245,16
299,48	1257,45
299,69	1279,98
299,90	1247,21
300,12	1284,08
300,33	1239,02
300,55	1236,97
300,76	1331,18
300,98	1300,46
301,19	1267,69
301,40	1337,32
301,62	1255,40
301,83	1286,12
302,05	1251,31
302,26	1253,36
302,47	1345,52
302,69	1286,12
302,90	1214,45
303,12	1236,97
303,33	1314,80
303,54	1331,18
303,76	1265,64
303,97	1216,49
304,19	1304,56
304,40	1271,79
304,61	1341,42
304,83	1259,50
305,04	1290,22
305,26	1265,64
305,47	1247,21
305,68	1296,36
305,90	1277,93
306,11	1366,00
306,33	1284,08
306,54	1320,94
306,75	1257,45
306,97	1322,99
307,18	1234,93
307,39	1277,93
307,61	1269,74
307,82	1306,60
308,04	1290,22
308,25	1245,16
308,46	1294,32
308,68	1234,93
308,89	1269,74
309,10	1298,41
309,32	1216,49
309,53	1243,12
309,74	1259,50
309,96	1294,32
310,17	1224,69
310,39	1282,03
310,60	1239,02
310,81	1279,98
311,03	1302,51
311,24	1255,40
311,45	1306,60
311,67	1320,94
311,88	1300,46
312,09	1277,93
312,31	1251,31
312,52	1306,60
312,73	1251,31
312,95	1224,69
313,16	1306,60
313,37	1245,16
313,59	1267,69
313,80	1320,94
314,01	1288,17
314,23	1290,22
314,44	1261,55
314,65	1284,08
314,87	1329,13
315,08	1304,56
315,29	1296,36
315,51	1249,26
315,72	1339,37
315,93	1294,32
316,15	1271,79
316,36	1263,60
316,57	1288,17
316,79	1347,56
317,00	1339,37
317,21	1259,50
317,43	1335,28
317,64	1318,89
317,85	1327,08
318,07	1343,47
318,28	1312,75
318,49	1286,12
318,70	1277,93
318,92	1310,70
319,13	1294,32
319,34	1212,40
319,56	1296,36
319,77	1269,74
319,98	1290,22
320,20	1245,16
320,41	1265,64
320,62	1302,51
320,83	1196,01
321,05	1251,31
321,26	1228,78
321,47	1257,45
321,69	1353,71
321,90	1232,88
322,11	1306,60
322,32	1290,22
322,54	1320,94
322,75	1224,69
322,96	1253,36
323,18	1257,45
323,39	1271,79
323,60	1183,73
323,81	1298,41
324,03	1232,88
324,24	1296,36
324,45	1253,36
324,66	1306,60
324,88	1204,21
325,09	1216,49
325,30	1325,04
325,52	1150,96
325,73	1275,88
325,94	1226,73
326,15	1284,08
326,37	1310,70
326,58	1372,14
326,79	1318,89
327,00	1249,26
327,22	1294,32
327,43	1345,52
327,64	1265,64
327,85	1277,93
328,07	1253,36
328,28	1257,45
328,49	1294,32
328,70	1331,18
328,92	1263,60
329,13	1312,75
329,34	1290,22
329,55	1267,69
329,76	1349,61
329,98	1175,53
330,19	1243,12
330,40	1191,92
330,61	1271,79
330,83	1236,97
331,04	1347,56
331,25	1243,12
331,46	1253,36
331,68	1329,13
331,89	1300,46
332,10	1277,93
332,31	1341,42
332,52	1226,73
332,74	1247,21
332,95	1271,79
333,16	1241,07
333,37	1296,36
333,58	1312,75
333,80	1257,45
334,01	1263,60
334,22	1273,84
334,43	1271,79
334,64	1236,97
334,86	1271,79
335,07	1286,12
335,28	1308,65
335,49	1234,93
335,70	1302,51
335,92	1302,51
336,13	1271,79
336,34	1273,84
336,55	1234,93
336,76	1308,65
336,98	1300,46
337,19	1288,17
337,40	1322,99
337,61	1310,70
337,82	1314,80
338,04	1220,59
338,25	1308,65
338,46	1228,78
338,67	1296,36
338,88	1331,18
339,09	1277,93
339,31	1161,20
339,52	1220,59
339,73	1312,75
339,94	1226,73
340,15	1259,50
340,36	1216,49
340,58	1234,93
340,79	1277,93
341,00	1279,98
341,21	1265,64
341,42	1279,98
341,63	1243,12
341,85	1298,41
342,06	1208,30
342,27	1214,45
342,48	1294,32
342,69	1290,22
342,90	1300,46
343,12	1271,79
343,33	1314,80
343,54	1208,30
343,75	1331,18
343,96	1296,36
344,17	1255,40
344,38	1239,02
344,60	1263,60
344,81	1228,78
345,02	1259,50
345,23	1259,50
345,44	1273,84
345,65	1312,75
345,86	1312,75
346,07	1261,55
346,29	1284,08
346,50	1347,56
346,71	1239,02
346,92	1261,55
347,13	1286,12
347,34	1251,31
347,55	1286,12
347,76	1286,12
347,98	1263,60
348,19	1228,78
348,40	1304,56
348,61	1310,70
348,82	1322,99
349,03	1257,45
349,24	1267,69
349,45	1271,79
349,66	1308,65
349,88	1366,00
350,09	1249,26
350,30	1292,27
350,51	1208,30
350,72	1357,80
350,93	1282,03
351,14	1253,36
351,35	1239,02
351,56	1271,79
351,77	1200,11
351,99	1224,69
352,20	1267,69
352,41	1382,38
352,62	1306,60
352,83	1243,12
353,04	1271,79
353,25	1282,03
353,46	1239,02
353,67	1177,58
353,88	1259,50
354,09	1269,74
354,30	1310,70
354,52	1269,74
354,73	1277,93
354,94	1298,41
355,15	1230,83
355,36	1310,70
355,57	1290,22
355,78	1308,65
355,99	1296,36
356,20	1255,40
356,41	1290,22
356,62	1277,93
356,83	1249,26
357,04	1284,08
357,25	1284,08
357,46	1251,31
357,68	1282,03
357,89	1271,79
358,10	1300,46
358,31	1308,65
358,52	1259,50
358,73	1265,64
358,94	1267,69
359,15	1249,26
359,36	1310,70
359,57	1249,26
359,78	1325,04
359,99	1261,55
360,20	1294,32
360,41	1290,22
360,62	1241,07
360,83	1308,65
361,04	1277,93
361,25	1165,29
361,46	1259,50
361,67	1232,88
361,88	1236,97
362,09	1327,08
362,30	1265,64
362,51	1327,08
362,72	1261,55
362,93	1279,98
363,14	1325,04
363,35	1294,32
363,56	1200,11
363,78	1228,78
363,99	1230,83
364,20	1259,50
364,41	1337,32
364,62	1239,02
364,83	1282,03
365,04	1181,68
365,25	1325,04
365,46	1320,94
365,67	1269,74
365,88	1329,13
366,09	1216,49
366,30	1234,93
366,51	1343,47
366,72	1314,80
366,93	1282,03
367,14	1288,17
367,35	1261,55
367,56	1261,55
367,77	1331,18
367,98	1331,18
368,18	1253,36
368,39	1269,74
368,60	1284,08
368,81	1333,23
369,02	1322,99
369,23	1279,98
369,44	1286,12
369,65	1298,41
369,86	1255,40
370,07	1294,32
370,28	1288,17
370,49	1337,32
370,70	1271,79
370,91	1288,17
371,12	1255,40
371,33	1269,74
371,54	1232,88
371,75	1249,26
371,96	1304,56
372,17	1292,27
372,38	1300,46
372,59	1208,30
372,80	1306,60
373,01	1376,24
373,22	1212,40
373,43	1265,64
373,64	1255,40
373,85	1261,55
374,06	1296,36
374,26	1226,73
374,47	1314,80
374,68	1273,84
374,89	1279,98
375,10	1257,45
375,31	1304,56
375,52	1239,02
375,73	1296,36
375,94	1304,56
376,15	1296,36
376,36	1241,07
376,57	1261,55
376,78	1212,40
376,99	1200,11
377,20	1255,40
377,40	1208,30
377,61	1320,94
377,82	1241,07
378,03	1263,60
378,24	1255,40
378,45	1277,93
378,66	1253,36
378,87	1298,41
379,08	1247,21
379,29	1245,16
379,50	1277,93
379,71	1308,65
379,91	1282,03
380,12	1325,04
380,33	1300,46
380,54	1234,93
380,75	1247,21
380,96	1271,79
381,17	1300,46
381,38	1271,79
381,59	1271,79
381,80	1359,85
382,00	1255,40
382,21	1234,93
382,42	1265,64
382,63	1251,31
382,84	1308,65
383,05	1261,55
383,26	1183,73
383,47	1255,40
383,68	1294,32
383,88	1275,88
384,09	1320,94
384,30	1234,93
384,51	1236,97
384,72	1245,16
384,93	1316,84
385,14	1288,17
385,35	1257,45
385,55	1196,01
385,76	1316,84
385,97	1335,28
386,18	1210,35
386,39	1247,21
386,60	1263,60
386,81	1226,73
387,02	1255,40
387,22	1296,36
387,43	1259,50
387,64	1310,70
387,85	1312,75
388,06	1296,36
388,27	1271,79
388,48	1316,84
388,68	1325,04
388,89	1275,88
389,10	1290,22
389,31	1355,76
389,52	1251,31
389,73	1234,93
389,93	1269,74
390,14	1253,36
390,35	1355,76
390,56	1255,40
390,77	1253,36
390,98	1255,40
391,18	1247,21
391,39	1224,69
391,60	1335,28
391,81	1232,88
392,02	1249,26
392,23	1302,51
392,43	1257,45
392,64	1232,88
392,85	1298,41
393,06	1282,03
393,27	1312,75
393,47	1273,84
393,68	1230,83
393,89	1230,83
394,10	1312,75
394,31	1263,60
394,52	1271,79
394,72	1263,60
394,93	1351,66
395,14	1224,69
395,35	1288,17
395,56	1206,25
395,76	1257,45
395,97	1288,17
396,18	1228,78
396,39	1304,56
396,60	1279,98
396,80	1261,55
397,01	1343,47
397,22	1263,60
397,43	1306,60
397,64	1230,83
397,84	1316,84
398,05	1312,75
398,26	1316,84
398,47	1239,02
398,67	1261,55
398,88	1265,64
399,09	1271,79
399,30	1253,36
399,51	1275,88
399,71	1196,01
399,92	1277,93
400,13	1263,60
400,34	1204,21
400,54	1273,84
400,75	1265,64
400,96	1245,16
401,17	1234,93
401,37	1263,60
401,58	1275,88
401,79	1288,17
402,00	1243,12
402,21	1298,41
402,41	1243,12
402,62	1247,21
402,83	1279,98
403,04	1247,21
403,24	1306,60
403,45	1253,36
403,66	1282,03
403,87	1341,42
404,07	1273,84
404,28	1224,69
404,49	1239,02
404,70	1304,56
404,90	1253,36
405,11	1181,68
405,32	1239,02
405,52	1230,83
405,73	1253,36
405,94	1290,22
406,15	1284,08
406,35	1386,47
406,56	1302,51
406,77	1251,31
406,98	1263,60
407,18	1347,56
407,39	1308,65
407,60	1286,12
407,80	1228,78
408,01	1245,16
408,22	1249,26
408,43	1290,22
408,63	1329,13
408,84	1257,45
409,05	1232,88
409,25	1247,21
409,46	1388,52
409,67	1331,18
409,88	1329,13
410,08	1306,60
410,29	1245,16
410,50	1286,12
410,70	1288,17
410,91	1263,60
411,12	1239,02
411,32	1206,25
411,53	1234,93
411,74	1318,89
411,95	1282,03
412,15	1366,00
412,36	1298,41
412,57	1269,74
412,77	1234,93
412,98	1275,88
413,19	1259,50
413,39	1249,26
413,60	1255,40
413,81	1267,69
414,01	1255,40
414,22	1226,73
414,43	1310,70
414,63	1275,88
414,84	1294,32
415,05	1222,64
415,25	1200,11
415,46	1257,45
415,67	1265,64
415,87	1265,64
416,08	1271,79
416,29	1341,42
416,49	1228,78
416,70	1216,49
416,91	1257,45
417,11	1312,75
417,32	1300,46
417,53	1239,02
417,73	1284,08
417,94	1312,75
418,15	1312,75
418,35	1314,80
418,56	1282,03
418,77	1322,99
418,97	1241,07
419,18	1310,70
419,38	1286,12
419,59	1298,41
419,80	1337,32
420,00	1267,69
420,21	1230,83
420,42	1269,74
420,62	1267,69
420,83	1300,46
421,04	1277,93
421,24	1306,60
421,45	1249,26
421,65	1236,97
421,86	1282,03
422,07	1241,07
422,27	1224,69
422,48	1236,97
422,69	1368,04
422,89	1267,69
423,10	1282,03
423,30	1269,74
423,51	1312,75
423,72	1273,84
423,92	1302,51
424,13	1245,16
424,33	1253,36
424,54	1271,79
424,75	1257,45
424,95	1290,22
425,16	1302,51
425,36	1345,52
425,57	1312,75
425,78	1298,41
425,98	1269,74
426,19	1253,36
426,39	1300,46
426,60	1275,88
426,81	1294,32
427,01	1331,18
427,22	1304,56
427,42	1310,70
427,63	1267,69
427,83	1247,21
428,04	1304,56
428,25	1271,79
428,45	1275,88
428,66	1224,69
428,86	1236,97
429,07	1271,79
429,28	1306,60
429,48	1200,11
429,69	1327,08
429,89	1218,54
430,10	1282,03
430,30	1341,42
430,51	1279,98
430,71	1277,93
430,92	1308,65
431,13	1302,51
431,33	1308,65
431,54	1224,69
431,74	1290,22
431,95	1251,31
432,15	1216,49
432,36	1296,36
432,56	1257,45
432,77	1318,89
432,98	1212,40
433,18	1277,93
433,39	1241,07
433,59	1286,12
433,80	1249,26
434,00	1267,69
434,21	1224,69
434,41	1298,41
434,62	1353,71
434,82	1345,52
435,03	1316,84
435,23	1253,36
435,44	1271,79
435,64	1327,08
435,85	1259,50
436,06	1284,08
436,26	1265,64
436,47	1222,64
436,67	1294,32
436,88	1185,77
437,08	1232,88
437,29	1296,36
437,49	1261,55
437,70	1320,94
437,90	1261,55
438,11	1269,74
438,31	1312,75
438,52	1257,45
438,72	1245,16
438,93	1271,79
439,13	1189,87
439,34	1275,88
439,54	1265,64
439,75	1325,04
439,95	1306,60
440,16	1249,26
440,36	1202,16
440,57	1290,22
440,77	1341,42
440,98	1279,98
441,18	1282,03
441,39	1234,93
441,59	1306,60
441,80	1296,36
442,00	1306,60
442,21	1269,74
442,41	1269,74
442,62	1200,11
442,82	1294,32
443,02	1228,78
443,23	1337,32
443,43	1286,12
443,64	1306,60
443,84	1267,69
444,05	1255,40
444,25	1363,95
444,46	1267,69
444,66	1306,60
444,87	1247,21
445,07	1243,12
445,28	1257,45
445,48	1310,70
445,69	1279,98
445,89	1263,60
446,09	1327,08
446,30	1282,03
446,50	1298,41
446,71	1216,49
446,91	1269,74
447,12	1286,12
447,32	1253,36
447,53	1314,80
447,73	1239,02
447,93	1236,97
448,14	1253,36
448,34	1339,37
448,55	1325,04
448,75	1255,40
448,96	1167,34
449,16	1327,08
449,36	1253,36
449,57	1339,37
449,77	1222,64
449,98	1284,08
450,18	1267,69
450,39	1298,41
450,59	1312,75
450,79	1279,98
451,00	1296,36
451,20	1249,26
451,41	1279,98
451,61	1390,57
451,81	1267,69
452,02	1290,22
452,22	1333,23
452,43	1322,99
452,63	1288,17
452,84	1206,25
453,04	1273,84
453,24	1241,07
453,45	1308,65
453,65	1351,66
453,86	1279,98
454,06	1314,80
454,26	1363,95
454,47	1314,80
454,67	1265,64
454,87	1243,12
455,08	1236,97
455,28	1318,89
455,49	1232,88
455,69	1255,40
455,89	1273,84
456,10	1310,70
456,30	1245,16
456,51	1247,21
456,71	1296,36
456,91	1333,23
457,12	1304,56
457,32	1261,55
457,52	1347,56
457,73	1286,12
457,93	1271,79
458,14	1294,32
458,34	1241,07
458,54	1312,75
458,75	1259,50
458,95	1253,36
459,15	1288,17
459,36	1241,07
459,56	1288,17
459,76	1275,88
459,97	1314,80
460,17	1275,88
460,37	1271,79
460,58	1284,08
460,78	1259,50
460,99	1273,84
461,19	1333,23
461,39	1261,55
461,60	1290,22
461,80	1243,12
462,00	1263,60
462,21	1241,07
462,41	1296,36
462,61	1341,42
462,82	1261,55
463,02	1290,22
463,22	1329,13
463,43	1329,13
463,63	1251,31
463,83	1255,40
464,04	1341,42
464,24	1249,26
464,44	1302,51
464,64	1257,45
464,85	1318,89
465,05	1306,60
465,25	1226,73
465,46	1271,79
465,66	1351,66
465,86	1310,70
466,07	1310,70
466,27	1296,36
466,47	1286,12
466,68	1314,80
466,88	1318,89
467,08	1249,26
467,29	1236,97
467,49	1296,36
467,69	1345,52
467,89	1331,18
468,10	1292,27
468,30	1253,36
468,50	1306,60
468,71	1318,89
468,91	1275,88
469,11	1261,55
469,31	1263,60
469,52	1279,98
469,72	1239,02
469,92	1245,16
470,13	1296,36
470,33	1296,36
470,53	1255,40
470,73	1247,21
470,94	1255,40
471,14	1259,50
471,34	1331,18
471,54	1308,65
471,75	1333,23
471,95	1286,12
472,15	1282,03
472,36	1355,76
472,56	1312,75
472,76	1277,93
472,96	1263,60
473,17	1263,60
473,37	1284,08
473,57	1290,22
473,77	1271,79
473,98	1279,98
474,18	1261,55
474,38	1347,56
474,58	1331,18
474,79	1259,50
474,99	1300,46
475,19	1263,60
475,39	1257,45
475,60	1277,93
475,80	1325,04
476,00	1294,32
476,20	1267,69
476,41	1267,69
476,61	1374,19
476,81	1275,88
477,01	1288,17
477,21	1300,46
477,42	1298,41
477,62	1292,27
477,82	1251,31
478,02	1247,21
478,23	1232,88
478,43	1294,32
478,63	1265,64
478,83	1351,66
479,03	1298,41
479,24	1304,56
479,44	1294,32
479,64	1173,49
479,84	1277,93
480,04	1322,99
480,25	1345,52
480,45	1220,59
480,65	1320,94
480,85	1284,08
481,06	1327,08
481,26	1269,74
481,46	1241,07
481,66	1267,69
481,86	1273,84
482,06	1292,27
482,27	1308,65
482,47	1271,79
482,67	1277,93
482,87	1288,17
483,07	1279,98
483,28	1286,12
483,48	1286,12
483,68	1294,32
483,88	1232,88
484,08	1253,36
484,29	1257,45
484,49	1275,88
484,69	1216,49
484,89	1253,36
485,09	1329,13
485,29	1232,88
485,50	1263,60
485,70	1259,50
485,90	1292,27
486,10	1273,84
486,30	1320,94
486,50	1224,69
486,71	1259,50
486,91	1220,59
487,11	1261,55
487,31	1247,21
487,51	1363,95
487,71	1300,46
487,91	1318,89
488,12	1253,36
488,32	1232,88
488,52	1273,84
488,72	1284,08
488,92	1249,26
489,12	1322,99
489,32	1294,32
489,53	1325,04
489,73	1279,98
489,93	1232,88
490,13	1226,73
490,33	1247,21
490,53	1273,84
490,73	1294,32
490,94	1271,79
491,14	1193,97
491,34	1257,45
491,54	1253,36
491,74	1310,70
491,94	1316,84
492,14	1310,70
492,34	1331,18
492,54	1273,84
492,75	1273,84
492,95	1322,99
493,15	1249,26
493,35	1273,84
493,55	1247,21
493,75	1296,36
493,95	1196,01
494,15	1322,99
494,35	1302,51
494,56	1259,50
494,76	1265,64
494,96	1249,26
495,16	1271,79
495,36	1294,32
495,56	1304,56
495,76	1290,22
495,96	1304,56
496,16	1290,22
496,36	1329,13
496,56	1249,26
496,77	1234,93
496,97	1277,93
497,17	1255,40
497,37	1245,16
497,57	1212,40
497,77	1200,11
497,97	1355,76
498,17	1290,22
498,37	1310,70
498,57	1253,36
498,77	1271,79
498,97	1255,40
499,17	1261,55
499,38	1263,60
499,58	1298,41
499,78	1245,16
499,98	1245,16
500,18	1282,03
500,38	1245,16
500,58	1212,40
500,78	1306,60
500,98	1245,16
501,18	1261,55
501,38	1298,41
501,58	1245,16
501,78	1245,16
501,98	1273,84
502,18	1359,85
502,38	1363,95
502,58	1239,02
502,78	1267,69
502,98	1224,69
503,18	1316,84
503,38	1294,32
503,59	1292,27
503,79	1314,80
503,99	1314,80
504,19	1239,02
504,39	1292,27
504,59	1267,69
504,79	1312,75
504,99	1300,46
505,19	1300,46
505,39	1298,41
505,59	1267,69
505,79	1255,40
505,99	1322,99
506,19	1314,80
506,39	1308,65
506,59	1255,40
506,79	1226,73
506,99	1261,55
507,19	1247,21
507,39	1273,84
507,59	1214,45
507,79	1292,27
507,99	1296,36
508,19	1267,69
508,39	1316,84
508,59	1241,07
508,79	1290,22
508,99	1300,46
509,19	1261,55
509,39	1300,46
509,59	1269,74
509,79	1312,75
509,99	1294,32
510,19	1243,12
510,39	1263,60
510,59	1269,74
510,79	1322,99
510,99	1198,06
511,19	1271,79
511,39	1292,27
511,59	1220,59
511,79	1294,32
511,99	1331,18
512,19	1304,56
512,38	1318,89
512,58	1296,36
512,78	1306,60
512,98	1241,07
513,18	1347,56
513,38	1302,51
513,58	1259,50
513,78	1273,84
513,98	1322,99
514,18	1261,55
514,38	1269,74
514,58	1355,76
514,78	1232,88
514,98	1314,80
515,18	1253,36
515,38	1284,08
515,58	1320,94
515,78	1271,79
515,98	1216,49
516,18	1259,50
516,38	1290,22
516,57	1312,75
516,77	1261,55
516,97	1290,22
517,17	1241,07
517,37	1284,08
517,57	1218,54
517,77	1247,21
517,97	1310,70
518,17	1308,65
518,37	1277,93
518,57	1269,74
518,77	1296,36
518,97	1378,28
519,16	1284,08
519,36	1226,73
519,56	1290,22
519,76	1261,55
519,96	1261,55
520,16	1277,93
520,36	1275,88
520,56	1251,31
520,76	1304,56
520,96	1318,89
521,16	1372,14
521,35	1271,79
521,55	1251,31
521,75	1255,40
521,95	1275,88
522,15	1290,22
522,35	1259,50
522,55	1267,69
522,75	1347,56
522,95	1267,69
523,14	1318,89
523,34	1372,14
523,54	1279,98
523,74	1335,28
523,94	1273,84
524,14	1261,55
524,34	1306,60
524,54	1310,70
524,73	1294,32
524,93	1284,08
525,13	1386,47
525,33	1265,64
525,53	1308,65
525,73	1322,99
525,93	1290,22
526,13	1288,17
526,32	1325,04
526,52	1345,52
526,72	1316,84
526,92	1257,45
527,12	1265,64
527,32	1261,55
527,52	1318,89
527,71	1259,50
527,91	1224,69
528,11	1263,60
528,31	1282,03
528,51	1300,46
528,71	1282,03
528,90	1224,69
529,10	1296,36
529,30	1263,60
529,50	1275,88
529,70	1300,46
529,90	1357,80
530,09	1286,12
530,29	1277,93
530,49	1259,50
530,69	1234,93
530,89	1273,84
531,09	1257,45
531,28	1282,03
531,48	1347,56
531,68	1257,45
531,88	1271,79
532,08	1322,99
532,28	1273,84
532,47	1282,03
532,67	1273,84
532,87	1329,13
533,07	1320,94
533,27	1247,21
533,46	1310,70
533,66	1282,03
533,86	1318,89
534,06	1294,32
534,26	1273,84
534,45	1265,64
534,65	1277,93
534,85	1273,84
535,05	1294,32
535,25	1339,37
535,44	1296,36
535,64	1327,08
535,84	1302,51
536,04	1243,12
536,24	1308,65
536,43	1247,21
536,63	1253,36
536,83	1312,75
537,03	1290,22
537,22	1290,22
537,42	1279,98
537,62	1251,31
537,82	1261,55
538,02	1273,84
538,21	1296,36
538,41	1298,41
538,61	1304,56
538,81	1357,80
539,00	1300,46
539,20	1257,45
539,40	1288,17
539,60	1271,79
539,79	1282,03
539,99	1263,60
540,19	1247,21
540,39	1265,64
540,58	1288,17
540,78	1308,65
540,98	1300,46
541,18	1257,45
541,37	1282,03
541,57	1226,73
541,77	1255,40
541,97	1290,22
542,16	1290,22
542,36	1277,93
542,56	1310,70
542,76	1263,60
542,95	1314,80
543,15	1363,95
543,35	1275,88
543,54	1259,50
543,74	1320,94
543,94	1296,36
544,14	1290,22
544,33	1282,03
544,53	1302,51
544,73	1312,75
544,93	1273,84
545,12	1329,13
545,32	1282,03
545,52	1269,74
545,71	1288,17
545,91	1380,33
546,11	1316,84
546,30	1257,45
546,50	1277,93
546,70	1269,74
546,90	1198,06
547,09	1230,83
547,29	1306,60
547,49	1247,21
547,68	1304,56
547,88	1277,93
548,08	1257,45
548,27	1370,09
548,47	1296,36
548,67	1370,09
548,87	1339,37
549,06	1294,32
549,26	1396,71
549,46	1279,98
549,65	1333,23
549,85	1300,46
550,05	1210,35
550,24	1290,22
550,44	1318,89
550,64	1255,40
550,83	1265,64
551,03	1265,64
551,23	1314,80
551,42	1357,80
551,62	1343,47
551,82	1318,89
552,01	1214,45
552,21	1189,87
552,41	1290,22
552,60	1255,40
552,80	1355,76
553,00	1341,42
553,19	1384,43
553,39	1253,36
553,59	1380,33
553,78	1329,13
553,98	1343,47
554,17	1359,85
554,37	1267,69
554,57	1294,32
554,76	1304,56
554,96	1234,93
555,16	1339,37
555,35	1306,60
555,55	1232,88
555,75	1318,89
555,94	1290,22
556,14	1228,78
556,33	1314,80
556,53	1249,26
556,73	1298,41
556,92	1355,76
557,12	1384,43
557,32	1306,60
557,51	1296,36
557,71	1339,37
557,90	1339,37
558,10	1263,60
558,30	1277,93
558,49	1247,21
558,69	1306,60
558,88	1271,79
559,08	1325,04
559,28	1259,50
559,47	1384,43
559,67	1259,50
559,86	1255,40
560,06	1341,42
560,26	1269,74
560,45	1296,36
560,65	1253,36
560,84	1263,60
561,04	1220,59
561,24	1347,56
561,43	1327,08
561,63	1298,41
561,82	1355,76
562,02	1339,37
562,22	1212,40
562,41	1275,88
562,61	1257,45
562,80	1304,56
563,00	1284,08
563,19	1345,52
563,39	1239,02
563,59	1286,12
563,78	1329,13
563,98	1298,41
564,17	1298,41
564,37	1294,32
564,56	1275,88
564,76	1282,03
564,96	1271,79
565,15	1208,30
565,35	1345,52
565,54	1322,99
565,74	1273,84
565,93	1267,69
566,13	1339,37
566,32	1306,60
566,52	1304,56
566,71	1261,55
566,91	1279,98
567,11	1333,23
567,30	1312,75
567,50	1282,03
567,69	1337,32
567,89	1327,08
568,08	1230,83
568,28	1382,38
568,47	1234,93
568,67	1282,03
568,86	1273,84
569,06	1394,67
569,25	1253,36
569,45	1275,88
569,64	1359,85
569,84	1279,98
570,04	1269,74
570,23	1292,27
570,43	1286,12
570,62	1249,26
570,82	1261,55
571,01	1239,02
571,21	1341,42
571,40	1232,88
571,60	1337,32
571,79	1304,56
571,99	1325,04
572,18	1226,73
572,38	1230,83
572,57	1322,99
572,77	1310,70
572,96	1316,84
573,16	1275,88
573,35	1353,71
573,55	1327,08
573,74	1304,56
573,94	1224,69
574,13	1290,22
574,33	1292,27
574,52	1308,65
574,71	1245,16
574,91	1296,36
575,10	1234,93
575,30	1282,03
575,49	1214,45
575,69	1302,51
575,88	1361,90
576,08	1331,18
576,27	1275,88
576,47	1333,23
576,66	1349,61
576,86	1257,45
577,05	1251,31
577,25	1243,12
577,44	1308,65
577,64	1284,08
577,83	1265,64
578,02	1339,37
578,22	1343,47
578,41	1298,41
578,61	1322,99
578,80	1294,32
579,00	1329,13
579,19	1216,49
579,39	1265,64
579,58	1263,60
579,77	1253,36
579,97	1322,99
580,16	1335,28
580,36	1325,04
580,55	1327,08
580,75	1275,88
580,94	1343,47
581,13	1257,45
581,33	1320,94
581,52	1284,08
581,72	1363,95
581,91	1304,56
582,11	1245,16
582,30	1265,64
582,49	1265,64
582,69	1318,89
582,88	1277,93
583,08	1318,89
583,27	1263,60
583,47	1304,56
583,66	1351,66
583,85	1279,98
584,05	1255,40
584,24	1255,40
584,44	1286,12
584,63	1253,36
584,82	1290,22
585,02	1279,98
585,21	1298,41
585,41	1294,32
585,60	1318,89
585,79	1286,12
585,99	1286,12
586,18	1298,41
586,37	1282,03
586,57	1232,88
586,76	1322,99
586,96	1290,22
587,15	1294,32
587,34	1284,08
587,54	1279,98
587,73	1286,12
587,93	1290,22
588,12	1331,18
588,31	1320,94
588,51	1312,75
588,70	1318,89
588,89	1277,93
589,09	1325,04
589,28	1292,27
589,47	1304,56
589,67	1204,21
589,86	1255,40
590,06	1312,75
590,25	1310,70
590,44	1329,13
590,64	1261,55
590,83	1265,64
591,02	1329,13
591,22	1275,88
591,41	1257,45
591,60	1214,45
591,80	1265,64
591,99	1308,65
592,18	1239,02
592,38	1284,08
592,57	1296,36
592,76	1302,51
592,96	1220,59
593,15	1239,02
593,34	1308,65
593,54	1247,21
593,73	1247,21
593,92	1308,65
594,12	1322,99
594,31	1286,12
594,50	1273,84
594,70	1316,84
594,89	1265,64
595,08	1310,70
595,28	1275,88
595,47	1370,09
595,66	1288,17
595,86	1341,42
596,05	1255,40
596,24	1282,03
596,43	1341,42
596,63	1253,36
596,82	1329,13
597,01	1251,31
597,21	1322,99
597,40	1331,18
597,59	1273,84
597,79	1284,08
597,98	1200,11
598,17	1296,36
598,36	1261,55
598,56	1308,65
598,75	1241,07
598,94	1353,71
599,14	1322,99
599,33	1255,40
599,52	1218,54
599,71	1316,84
599,91	1298,41
600,10	1282,03
600,29	1327,08
600,48	1304,56
600,68	1253,36
600,87	1265,64
601,06	1230,83
601,26	1261,55
601,45	1298,41
601,64	1308,65
601,83	1296,36
602,03	1261,55
602,22	1316,84
602,41	1282,03
602,60	1341,42
602,80	1263,60
602,99	1191,92
603,18	1300,46
603,37	1296,36
603,57	1302,51
603,76	1288,17
603,95	1298,41
604,14	1288,17
604,34	1253,36
604,53	1322,99
604,72	1337,32
604,91	1310,70
605,10	1327,08
605,30	1247,21
605,49	1277,93
605,68	1298,41
605,87	1312,75
606,07	1304,56
606,26	1302,51
606,45	1337,32
606,64	1273,84
606,84	1259,50
607,03	1290,22
607,22	1310,70
607,41	1282,03
607,60	1249,26
607,80	1249,26
607,99	1247,21
608,18	1249,26
608,37	1300,46
608,56	1282,03
608,76	1298,41
608,95	1341,42
609,14	1300,46
609,33	1316,84
609,52	1318,89
609,72	1302,51
609,91	1347,56
610,10	1230,83
610,29	1308,65
610,48	1279,98
610,68	1290,22
610,87	1302,51
611,06	1302,51
611,25	1247,21
611,44	1314,80
611,63	1245,16
611,83	1300,46
612,02	1298,41
612,21	1308,65
612,40	1224,69
612,59	1234,93
612,79	1265,64
612,98	1312,75
613,17	1273,84
613,36	1191,92
613,55	1347,56
613,74	1368,04
613,93	1263,60
614,13	1271,79
614,32	1222,64
614,51	1290,22
614,70	1310,70
614,89	1288,17
615,08	1306,60
615,28	1271,79
615,47	1271,79
615,66	1363,95
615,85	1273,84
616,04	1322,99
616,23	1282,03
616,42	1298,41
616,62	1263,60
616,81	1320,94
617,00	1318,89
617,19	1302,51
617,38	1290,22
617,57	1380,33
617,76	1327,08
617,95	1370,09
618,15	1234,93
618,34	1359,85
618,53	1263,60
618,72	1337,32
618,91	1314,80
619,10	1339,37
619,29	1320,94
619,48	1259,50
619,68	1282,03
619,87	1308,65
620,06	1187,82
620,25	1320,94
620,44	1294,32
620,63	1245,16
620,82	1273,84
621,01	1292,27
621,20	1288,17
621,39	1306,60
621,59	1314,80
621,78	1310,70
621,97	1292,27
622,16	1290,22
622,35	1282,03
622,54	1298,41
622,73	1234,93
622,92	1273,84
623,11	1322,99
623,30	1271,79
623,49	1310,70
623,68	1325,04
623,88	1286,12
624,07	1329,13
624,26	1282,03
624,45	1288,17
624,64	1279,98
624,83	1279,98
625,02	1351,66
625,21	1388,52
625,40	1263,60
625,59	1247,21
625,78	1298,41
625,97	1333,23
626,16	1392,62
626,35	1257,45
626,54	1263,60
626,74	1298,41
626,93	1245,16
627,12	1320,94
627,31	1263,60
627,50	1306,60
627,69	1249,26
627,88	1322,99
628,07	1333,23
628,26	1273,84
628,45	1251,31
628,64	1310,70
628,83	1298,41
629,02	1318,89
629,21	1304,56
629,40	1308,65
629,59	1320,94
629,78	1327,08
629,97	1290,22
630,16	1333,23
630,35	1355,76
630,54	1288,17
630,73	1224,69
630,92	1325,04
631,11	1277,93
631,30	1347,56
631,49	1310,70
631,68	1294,32
631,87	1439,72
632,06	1501,16
632,25	1384,43
632,44	1480,68
632,63	1456,11
632,82	1445,87
633,01	1392,62
633,20	1439,72
633,39	1425,39
633,58	1386,47
633,77	1470,44
633,96	1507,30
634,15	1581,03
634,34	1853,41
634,53	1949,67
634,72	1662,95
634,91	1435,63
635,10	1593,32
635,29	1820,64
635,48	1964,00
635,67	1961,95
635,86	1869,80
636,05	1767,40
636,24	1716,20
636,43	1519,59
636,62	1415,15
636,81	1466,35
637,00	1429,48
637,19	1333,23
637,38	1343,47
637,57	1382,38
637,76	1427,43
637,95	1368,04
638,14	1310,70
638,33	1277,93
638,52	1396,71
638,71	1325,04
638,89	1357,80
639,08	1306,60
639,27	1279,98
639,46	1308,65
639,65	1341,42
639,84	1284,08
640,03	1402,86
640,22	1331,18
640,41	1318,89
640,60	1312,75
640,79	1333,23
640,98	1331,18
641,17	1302,51
641,36	1243,12
641,55	1259,50
641,74	1304,56
641,92	1296,36
642,11	1259,50
642,30	1292,27
642,49	1230,83
642,68	1333,23
642,87	1165,29
643,06	1241,07
643,25	1294,32
643,44	1322,99
643,63	1271,79
643,82	1378,28
644,00	1318,89
644,19	1220,59
644,38	1259,50
644,57	1320,94
644,76	1286,12
644,95	1355,76
645,14	1304,56
645,33	1300,46
645,52	1218,54
645,71	1265,64
645,89	1331,18
646,08	1273,84
646,27	1249,26
646,46	1394,67
646,65	1269,74
646,84	1312,75
647,03	1333,23
647,22	1298,41
647,40	1269,74
647,59	1279,98
647,78	1310,70
647,97	1339,37
648,16	1302,51
648,35	1318,89
648,54	1310,70
648,73	1290,22
648,91	1294,32
649,10	1269,74
649,29	1247,21
649,48	1347,56
649,67	1251,31
649,86	1310,70
650,05	1277,93
650,23	1232,88
650,42	1294,32
650,61	1292,27
650,80	1290,22
650,99	1322,99
651,18	1277,93
651,36	1275,88
651,55	1333,23
651,74	1232,88
651,93	1251,31
652,12	1306,60
652,31	1236,97
652,49	1277,93
652,68	1210,35
652,87	1312,75
653,06	1271,79
653,25	1245,16
653,44	1288,17
653,62	1312,75
653,81	1290,22
654,00	1290,22
654,19	1249,26
654,38	1263,60
654,56	1337,32
654,75	1228,78
654,94	1288,17
655,13	1271,79
655,32	1282,03
655,51	1286,12
655,69	1255,40
655,88	1273,84
656,07	1275,88
656,26	1302,51
656,45	1265,64
656,63	1310,70
656,82	1241,07
657,01	1269,74
657,20	1341,42
657,38	1316,84
657,57	1282,03
657,76	1312,75
657,95	1345,52
658,14	1263,60
658,32	1259,50
658,51	1261,55
658,70	1241,07
658,89	1292,27
659,08	1241,07
659,26	1228,78
659,45	1312,75
659,64	1269,74
659,83	1261,55
660,01	1273,84
660,20	1284,08
660,39	1304,56
660,58	1363,95
660,76	1363,95
660,95	1263,60
661,14	1232,88
661,33	1284,08
661,51	1351,66
661,70	1269,74
661,89	1275,88
662,08	1193,97
662,26	1292,27
662,45	1267,69
662,64	1304,56
662,83	1318,89
663,01	1214,45
663,20	1273,84
663,39	1236,97
663,58	1269,74
663,76	1314,80
663,95	1308,65
664,14	1288,17
664,32	1279,98
664,51	1296,36
664,70	1327,08
664,89	1284,08
665,07	1236,97
665,26	1288,17
665,45	1300,46
665,64	1329,13
665,82	1292,27
666,01	1322,99
666,20	1292,27
666,38	1271,79
666,57	1245,16
666,76	1273,84
666,95	1304,56
667,13	1314,80
667,32	1304,56
667,51	1290,22
667,69	1269,74
667,88	1224,69
668,07	1267,69
668,25	1202,16
668,44	1216,49
668,63	1312,75
668,81	1261,55
669,00	1288,17
669,19	1171,44
669,38	1282,03
669,56	1269,74
669,75	1345,52
669,94	1316,84
670,12	1288,17
670,31	1251,31
670,50	1304,56
670,68	1273,84
670,87	1322,99
671,06	1277,93
671,24	1277,93
671,43	1230,83
671,62	1300,46
671,80	1284,08
671,99	1189,87
672,18	1298,41
672,36	1361,90
672,55	1304,56
672,74	1249,26
672,92	1239,02
673,11	1298,41
673,29	1275,88
673,48	1286,12
673,67	1273,84
673,85	1277,93
674,04	1259,50
674,23	1304,56
674,41	1263,60
674,60	1259,50
674,79	1249,26
674,97	1247,21
675,16	1228,78
675,34	1335,28
675,53	1259,50
675,72	1294,32
675,90	1286,12
676,09	1236,97
676,28	1320,94
676,46	1353,71
676,65	1331,18
676,83	1306,60
677,02	1245,16
677,21	1171,44
677,39	1245,16
677,58	1279,98
677,77	1288,17
677,95	1318,89
678,14	1304,56
678,32	1282,03
678,51	1273,84
678,70	1308,65
678,88	1282,03
679,07	1236,97
679,25	1239,02
679,44	1275,88
679,63	1234,93
679,81	1232,88
680,00	1331,18
680,18	1161,20
680,37	1284,08
680,55	1275,88
680,74	1279,98
680,93	1185,77
681,11	1243,12
681,30	1339,37
681,48	1310,70
681,67	1257,45
681,85	1288,17
682,04	1279,98
682,23	1171,44
682,41	1284,08
682,60	1302,51
682,78	1314,80
682,97	1337,32
683,15	1253,36
683,34	1255,40
683,53	1327,08
683,71	1341,42
683,90	1263,60
684,08	1232,88
684,27	1247,21
684,45	1347,56
684,64	1355,76
684,82	1302,51
685,01	1230,83
685,19	1218,54
685,38	1239,02
685,57	1288,17
685,75	1239,02
685,94	1284,08
686,12	1296,36
686,31	1234,93
686,49	1296,36
686,68	1279,98
686,86	1214,45
687,05	1261,55
687,23	1241,07
687,42	1263,60
687,60	1294,32
687,79	1290,22
687,97	1277,93
688,16	1247,21
688,34	1234,93
688,53	1325,04
688,71	1253,36
688,90	1208,30
689,08	1302,51
689,27	1318,89
689,45	1322,99
689,64	1253,36
689,82	1304,56
690,01	1339,37
690,19	1261,55
690,38	1312,75
690,56	1314,80
690,75	1236,97
690,93	1255,40
691,12	1204,21
691,30	1277,93
691,49	1282,03
691,67	1245,16
691,86	1333,23
692,04	1325,04
692,23	1298,41
692,41	1296,36
692,60	1298,41
692,78	1245,16
692,97	1259,50
693,15	1318,89
693,34	1347,56
693,52	1343,47
693,71	1255,40
693,89	1370,09
694,08	1236,97
694,26	1253,36
694,44	1181,68
694,63	1347,56
694,81	1259,50
695,00	1275,88
695,18	1320,94
695,37	1269,74
695,55	1277,93
695,74	1282,03
695,92	1206,25
696,10	1284,08
696,29	1275,88
696,47	1306,60
696,66	1234,93
696,84	1282,03
697,03	1245,16
697,21	1241,07
697,40	1302,51
697,58	1292,27
697,76	1204,21
697,95	1259,50
698,13	1230,83
698,32	1261,55
698,50	1279,98
698,68	1247,21
698,87	1320,94
699,05	1306,60
699,24	1183,73
699,42	1267,69
699,61	1269,74
699,79	1193,97
699,97	1196,01
700,16	1265,64
700,34	1271,79
700,53	1265,64
700,71	1392,62
700,89	1273,84
701,08	1241,07
701,26	1165,29
701,45	1296,36
701,63	1279,98
701,81	1245,16
702,00	1228,78
702,18	1282,03
702,37	1282,03
702,55	1306,60
702,73	1267,69
702,92	1257,45
703,10	1302,51
703,28	1282,03
703,47	1304,56
703,65	1298,41
703,84	1259,50
704,02	1275,88
704,20	1318,89
704,39	1236,97
704,57	1312,75
704,75	1257,45
704,94	1300,46
705,12	1200,11
705,30	1230,83
705,49	1253,36
705,67	1236,97
705,86	1261,55
706,04	1243,12
706,22	1249,26
706,41	1273,84
706,59	1275,88
706,77	1265,64
706,96	1212,40
707,14	1245,16
707,32	1316,84
707,51	1290,22
707,69	1292,27
707,87	1247,21
708,06	1302,51
708,24	1302,51
708,42	1282,03
708,61	1230,83
708,79	1224,69
708,97	1322,99
709,16	1232,88
709,34	1216,49
709,52	1251,31
709,71	1269,74
709,89	1261,55
710,07	1163,25
710,26	1263,60
710,44	1347,56
710,62	1327,08
710,80	1222,64
710,99	1216,49
711,17	1245,16
711,35	1224,69
711,54	1282,03
711,72	1277,93
711,90	1337,32
712,09	1232,88
712,27	1245,16
712,45	1331,18
712,63	1257,45
712,82	1253,36
713,00	1239,02
713,18	1333,23
713,37	1273,84
713,55	1314,80
713,73	1277,93
713,91	1263,60
714,10	1210,35
714,28	1234,93
714,46	1273,84
714,65	1279,98
714,83	1308,65
715,01	1259,50
715,19	1273,84
715,38	1224,69
715,56	1243,12
715,74	1282,03
715,92	1247,21
716,11	1290,22
716,29	1222,64
716,47	1228,78
716,65	1306,60
716,84	1234,93
717,02	1304,56
717,20	1263,60
717,38	1241,07
717,57	1269,74
717,75	1286,12
717,93	1249,26
718,11	1327,08
718,30	1279,98
718,48	1312,75
718,66	1269,74
718,84	1335,28
719,03	1241,07
719,21	1286,12
719,39	1275,88
719,57	1282,03
719,75	1351,66
719,94	1279,98
720,12	1302,51
720,30	1300,46
720,48	1370,09
720,67	1294,32
720,85	1257,45
721,03	1257,45
721,21	1232,88
721,39	1277,93
721,58	1294,32
721,76	1294,32
721,94	1226,73
722,12	1302,51
722,30	1366,00
722,49	1298,41
722,67	1314,80
722,85	1304,56
723,03	1239,02
723,21	1306,60
723,40	1284,08
723,58	1239,02
723,76	1296,36
723,94	1302,51
724,12	1222,64
724,30	1306,60
724,49	1245,16
724,67	1292,27
724,85	1306,60
725,03	1232,88
725,21	1273,84
725,40	1243,12
725,58	1236,97
725,76	1279,98
725,94	1314,80
726,12	1212,40
726,30	1249,26
726,49	1318,89
726,67	1292,27
726,85	1279,98
727,03	1245,16
727,21	1341,42
727,39	1286,12
727,57	1302,51
727,76	1257,45
727,94	1232,88
728,12	1327,08
728,30	1275,88
728,48	1284,08
728,66	1290,22
728,84	1263,60
729,03	1296,36
729,21	1329,13
729,39	1337,32
729,57	1288,17
729,75	1253,36
729,93	1345,52
730,11	1259,50
730,30	1302,51
730,48	1255,40
730,66	1275,88
730,84	1226,73
731,02	1282,03
731,20	1312,75
731,38	1275,88
731,56	1306,60
731,74	1277,93
731,93	1320,94
732,11	1288,17
732,29	1325,04
732,47	1220,59
732,65	1249,26
732,83	1290,22
733,01	1230,83
733,19	1212,40
733,37	1302,51
733,56	1222,64
733,74	1282,03
733,92	1331,18
734,10	1286,12
734,28	1290,22
734,46	1259,50
734,64	1275,88
734,82	1337,32
735,00	1243,12
735,18	1241,07
735,36	1286,12
735,54	1347,56
735,73	1249,26
735,91	1322,99
736,09	1302,51
736,27	1288,17
736,45	1286,12
736,63	1279,98
736,81	1292,27
736,99	1300,46
737,17	1273,84
737,35	1347,56
737,53	1300,46
737,71	1335,28
737,89	1253,36
738,07	1316,84
738,25	1331,18
738,43	1273,84
738,61	1302,51
738,80	1257,45
738,98	1308,65
739,16	1255,40
739,34	1296,36
739,52	1243,12
739,70	1292,27
739,88	1298,41
740,06	1294,32
740,24	1277,93
740,42	1318,89
740,60	1222,64
740,78	1206,25
740,96	1239,02
741,14	1241,07
741,32	1302,51
741,50	1247,21
741,68	1214,45
741,86	1263,60
742,04	1296,36
742,22	1222,64
742,40	1292,27
742,58	1314,80
742,76	1255,40
742,94	1255,40
743,12	1232,88
743,30	1302,51
743,48	1294,32
743,66	1230,83
743,84	1253,36
744,02	1273,84
744,20	1265,64
744,38	1255,40
744,56	1273,84
744,74	1226,73
744,92	1310,70
745,10	1312,75
745,28	1296,36
745,46	1273,84
745,64	1241,07
745,82	1288,17
746,00	1249,26
746,18	1310,70
746,36	1345,52
746,54	1226,73
746,72	1239,02
746,90	1271,79
747,08	1267,69
747,26	1296,36
747,44	1345,52
747,62	1218,54
747,80	1257,45
747,98	1226,73
748,15	1282,03
748,33	1306,60
748,51	1204,21
748,69	1265,64
748,87	1247,21
749,05	1384,43
749,23	1341,42
749,41	1294,32
749,59	1236,97
749,77	1304,56
749,95	1208,30
750,13	1228,78
750,31	1220,59
750,49	1318,89
750,67	1304,56
750,85	1249,26
751,03	1351,66
751,20	1316,84
751,38	1261,55
751,56	1216,49
751,74	1267,69
751,92	1267,69
752,10	1275,88
752,28	1273,84
752,46	1265,64
752,64	1245,16
752,82	1267,69
753,00	1241,07
753,18	1288,17
753,35	1327,08
753,53	1275,88
753,71	1220,59
753,89	1273,84
754,07	1282,03
754,25	1277,93
754,43	1314,80
754,61	1247,21
754,79	1286,12
754,97	1247,21
755,14	1275,88
755,32	1292,27
755,50	1239,02
755,68	1222,64
755,86	1322,99
756,04	1277,93
756,22	1202,16
756,40	1263,60
756,57	1339,37
756,75	1314,80
756,93	1236,97
757,11	1263,60
757,29	1308,65
757,47	1282,03
757,65	1165,29
757,82	1320,94
758,00	1277,93
758,18	1284,08
758,36	1210,35
758,54	1331,18
758,72	1292,27
758,90	1245,16
759,07	1247,21
759,25	1247,21
759,43	1187,82
759,61	1267,69
759,79	1333,23
759,97	1294,32
760,15	1312,75
760,32	1232,88
760,50	1216,49
760,68	1265,64
760,86	1273,84
761,04	1292,27
761,22	1245,16
761,39	1286,12
761,57	1228,78
761,75	1308,65
761,93	1265,64
762,11	1316,84
762,28	1247,21
762,46	1296,36
762,64	1259,50
762,82	1304,56
763,00	1298,41
763,18	1232,88
763,35	1263,60
763,53	1308,65
763,71	1232,88
763,89	1224,69
764,07	1251,31
764,24	1245,16
764,42	1253,36
764,60	1341,42
764,78	1329,13
764,96	1296,36
765,13	1255,40
765,31	1257,45
765,49	1224,69
765,67	1218,54
765,84	1191,92
766,02	1202,16
766,20	1257,45
766,38	1275,88
766,56	1288,17
766,73	1226,73
766,91	1214,45
767,09	1249,26
767,27	1271,79
767,44	1222,64
767,62	1290,22
767,80	1251,31
767,98	1236,97
768,15	1267,69
768,33	1327,08
768,51	1306,60
768,69	1279,98
768,87	1189,87
769,04	1296,36
769,22	1282,03
769,40	1249,26
769,58	1341,42
769,75	1318,89
769,93	1265,64
770,11	1284,08
770,28	1304,56
770,46	1325,04
770,64	1189,87
770,82	1290,22
770,99	1210,35
771,17	1298,41
771,35	1257,45
771,53	1286,12
771,70	1335,28
771,88	1318,89
772,06	1298,41
772,23	1277,93
772,41	1263,60
772,59	1288,17
772,77	1339,37
772,94	1267,69
773,12	1284,08
773,30	1298,41
773,47	1234,93
773,65	1236,97
773,83	1282,03
774,01	1241,07
774,18	1230,83
774,36	1249,26
774,54	1308,65
774,71	1232,88
774,89	1331,18
775,07	1298,41
775,24	1314,80
775,42	1210,35
775,60	1320,94
775,78	1273,84
775,95	1236,97
776,13	1339,37
776,31	1267,69
776,48	1275,88
776,66	1306,60
776,84	1269,74
777,01	1251,31
777,19	1243,12
777,37	1345,52
777,54	1308,65
777,72	1251,31
777,90	1222,64
778,07	1245,16
778,25	1220,59
778,43	1286,12
778,60	1331,18
778,78	1257,45
778,96	1286,12
779,13	1257,45
779,31	1228,78
779,49	1257,45
779,66	1275,88
779,84	1279,98
780,01	1214,45
780,19	1257,45
780,37	1282,03
780,54	1306,60
780,72	1224,69
780,90	1236,97
781,07	1265,64
781,25	1361,90
781,43	1292,27
781,60	1282,03
781,78	1202,16
781,95	1243,12
782,13	1290,22
782,31	1294,32
782,48	1187,82
782,66	1345,52
782,83	1249,26
783,01	1292,27
783,19	1306,60
783,36	1282,03
783,54	1267,69
783,72	1255,40
783,89	1302,51
784,07	1259,50
784,24	1310,70
784,42	1271,79
784,60	1271,79
784,77	1253,36
784,95	1243,12
785,12	1232,88
785,30	1279,98
785,47	1312,75
785,65	1339,37
785,83	1333,23
786,00	1290,22
786,18	1191,92
786,35	1245,16
786,53	1230,83
786,71	1249,26
786,88	1271,79
787,06	1257,45
787,23	1214,45
787,41	1267,69
787,58	1277,93
787,76	1255,40
787,94	1310,70
788,11	1308,65
788,29	1230,83
788,46	1245,16
788,64	1261,55
788,81	1306,60
788,99	1304,56
789,16	1271,79
789,34	1241,07
789,52	1196,01
789,69	1308,65
789,87	1288,17
790,04	1349,61
790,22	1273,84
790,39	1247,21
790,57	1333,23
790,74	1282,03
790,92	1212,40
791,09	1302,51
791,27	1241,07
791,44	1255,40
791,62	1224,69
791,79	1302,51
791,97	1300,46
792,15	1253,36
792,32	1294,32
792,50	1273,84
792,67	1255,40
792,85	1257,45
793,02	1251,31
793,20	1267,69
793,37	1294,32
793,55	1249,26
793,72	1198,06
793,90	1236,97
794,07	1230,83
794,25	1271,79
794,42	1306,60
794,60	1261,55
794,77	1322,99
794,95	1353,71
795,12	1347,56
795,30	1236,97
795,47	1292,27
795,65	1275,88
795,82	1198,06
796,00	1230,83
796,17	1275,88
796,34	1302,51
796,52	1236,97
796,69	1239,02
796,87	1251,31
797,04	1261,55
797,22	1318,89
797,39	1292,27
797,57	1214,45
797,74	1220,59
797,92	1257,45
798,09	1329,13
798,27	1320,94
798,44	1318,89
798,62	1279,98
798,79	1243,12
798,96	1339,37
799,14	1265,64
799,31	1294,32
799,49	1343,47
799,66	1271,79
799,84	1302,51
800,01	1257,45
800,19	1243,12
800,36	1320,94
800,53	1216,49
800,71	1236,97
800,88	1214,45
801,06	1249,26
801,23	1249,26
801,41	1247,21
801,58	1255,40
801,75	1277,93
801,93	1282,03
802,10	1290,22
802,28	1271,79
802,45	1243,12
802,63	1286,12
802,80	1247,21
802,97	1273,84
803,15	1228,78
803,32	1267,69
803,50	1273,84
803,67	1331,18
803,84	1257,45
804,02	1273,84
804,19	1247,21
804,37	1210,35
804,54	1320,94
804,71	1245,16
804,89	1290,22
805,06	1239,02
805,24	1245,16
805,41	1265,64
805,58	1296,36
805,76	1322,99
805,93	1284,08
806,10	1337,32
806,28	1302,51
806,45	1218,54
806,63	1304,56
806,80	1286,12
806,97	1273,84
807,15	1261,55
807,32	1247,21
807,49	1341,42
807,67	1273,84
807,84	1239,02
808,01	1226,73
808,19	1327,08
808,36	1327,08
808,54	1245,16
808,71	1304,56
808,88	1273,84
809,06	1257,45
809,23	1292,27
809,40	1183,73
809,58	1314,80
809,75	1241,07
809,92	1290,22
810,10	1292,27
810,27	1322,99
810,44	1265,64
810,62	1216,49
810,79	1224,69
810,96	1216,49
811,14	1245,16
811,31	1290,22
811,48	1296,36
811,66	1269,74
811,83	1228,78
812,00	1241,07
812,18	1282,03
812,35	1296,36
812,52	1249,26
812,69	1290,22
812,87	1259,50
813,04	1312,75
813,21	1261,55
813,39	1261,55
813,56	1298,41
813,73	1261,55
813,91	1308,65
814,08	1331,18
814,25	1298,41
814,42	1284,08
814,60	1265,64
814,77	1206,25
814,94	1265,64
815,12	1322,99
815,29	1296,36
815,46	1253,36
815,63	1306,60
815,81	1275,88
815,98	1241,07
816,15	1329,13
816,33	1183,73
816,50	1337,32
816,67	1316,84
816,84	1271,79
817,02	1251,31
817,19	1325,04
817,36	1255,40
817,53	1200,11
817,71	1292,27
817,88	1320,94
818,05	1247,21
818,22	1265,64
818,40	1257,45
818,57	1275,88
818,74	1300,46
818,91	1310,70
819,09	1253,36
819,26	1318,89
819,43	1265,64
819,60	1345,52
819,78	1308,65
819,95	1265,64
820,12	1269,74
820,29	1312,75
820,47	1302,51
820,64	1320,94
820,81	1314,80
820,98	1308,65
821,15	1239,02
821,33	1378,28
821,50	1257,45
821,67	1161,20
821,84	1265,64
822,02	1292,27
822,19	1245,16
822,36	1277,93
822,53	1239,02
822,70	1259,50
822,88	1269,74
823,05	1284,08
823,22	1275,88
823,39	1212,40
823,56	1290,22
823,74	1292,27
823,91	1263,60
824,08	1306,60
824,25	1286,12
824,42	1271,79
824,60	1234,93
824,77	1345,52
824,94	1216,49
825,11	1288,17
825,28	1267,69
825,45	1288,17
825,63	1255,40
825,80	1271,79
825,97	1349,61
826,14	1308,65
826,31	1263,60
826,48	1226,73
826,66	1370,09
826,83	1370,09
827,00	1267,69
827,17	1286,12
827,34	1218,54
827,51	1355,76
827,69	1251,31
827,86	1292,27
828,03	1257,45
828,20	1249,26
828,37	1304,56
828,54	1245,16
828,71	1288,17
828,89	1300,46
829,06	1275,88
829,23	1273,84
829,40	1273,84
829,57	1306,60
829,74	1234,93
829,91	1142,77
830,09	1245,16
830,26	1288,17
830,43	1282,03
830,60	1288,17
830,77	1228,78
830,94	1335,28
831,11	1253,36
831,28	1296,36
831,46	1277,93
831,63	1271,79
831,80	1257,45
831,97	1247,21
832,14	1288,17
832,31	1296,36
832,48	1298,41
832,65	1351,66
832,82	1220,59
832,99	1306,60
833,17	1267,69
833,34	1298,41
833,51	1249,26
833,68	1212,40
833,85	1255,40
834,02	1353,71
834,19	1249,26
834,36	1288,17
834,53	1290,22
834,70	1282,03
834,87	1230,83
835,04	1269,74
835,22	1277,93
835,39	1247,21
835,56	1257,45
835,73	1300,46
835,90	1271,79
836,07	1279,98
836,24	1265,64
836,41	1208,30
836,58	1331,18
836,75	1259,50
836,92	1253,36
837,09	1302,51
837,26	1216,49
837,43	1251,31
837,60	1216,49
837,77	1306,60
837,94	1288,17
838,12	1275,88
838,29	1279,98
838,46	1290,22
838,63	1257,45
838,80	1275,88
838,97	1296,36
839,14	1300,46
839,31	1269,74
839,48	1269,74
839,65	1271,79
839,82	1335,28
839,99	1314,80
840,16	1224,69
840,33	1302,51
840,50	1245,16
840,67	1271,79
840,84	1263,60
841,01	1273,84
841,18	1245,16
841,35	1228,78
841,52	1267,69
841,69	1234,93
841,86	1241,07
842,03	1234,93
842,20	1261,55
842,37	1257,45
842,54	1271,79
842,71	1284,08
842,88	1282,03
843,05	1347,56
843,22	1279,98
843,39	1255,40
843,56	1202,16
843,73	1241,07
843,90	1312,75
844,07	1245,16
844,24	1298,41
844,41	1302,51
844,58	1298,41
844,75	1320,94
844,92	1282,03
845,09	1275,88
845,26	1290,22
845,43	1312,75
845,60	1355,76
845,77	1245,16
845,94	1216,49
846,10	1282,03
846,27	1327,08
846,44	1286,12
846,61	1329,13
846,78	1277,93
846,95	1284,08
847,12	1290,22
847,29	1247,21
847,46	1282,03
847,63	1224,69
847,80	1271,79
847,97	1284,08
848,14	1277,93
848,31	1335,28
848,48	1179,63
848,65	1269,74
848,82	1335,28
848,98	1245,16
849,15	1241,07
849,32	1249,26
849,49	1294,32
849,66	1341,42
849,83	1288,17
850,00	1312,75
850,17	1277,93
850,34	1302,51
850,51	1206,25
850,68	1239,02
850,85	1224,69
851,01	1302,51
851,18	1329,13
851,35	1304,56
851,52	1314,80
851,69	1298,41
851,86	1312,75
852,03	1292,27
852,20	1253,36
852,37	1230,83
852,53	1300,46
852,70	1241,07
852,87	1296,36
853,04	1292,27
853,21	1245,16
853,38	1353,71
853,55	1298,41
853,72	1210,35
853,89	1236,97
854,05	1290,22
854,22	1239,02
854,39	1296,36
854,56	1249,26
854,73	1282,03
854,90	1271,79
855,07	1263,60
855,23	1247,21
855,40	1255,40
855,57	1257,45
855,74	1214,45
855,91	1214,45
856,08	1282,03
856,25	1335,28
856,41	1206,25
856,58	1189,87
856,75	1353,71
856,92	1241,07
857,09	1232,88
857,26	1275,88
857,42	1282,03
857,59	1259,50
857,76	1251,31
857,93	1320,94
858,10	1230,83
858,27	1275,88
858,43	1251,31
858,60	1300,46
858,77	1312,75
858,94	1249,26
859,11	1279,98
859,27	1271,79
859,44	1273,84
859,61	1277,93
859,78	1327,08
859,95	1255,40
860,12	1249,26
860,28	1302,51
860,45	1308,65
860,62	1275,88
860,79	1322,99
860,95	1257,45
861,12	1271,79
861,29	1310,70
861,46	1314,80
861,63	1269,74
861,79	1288,17
861,96	1284,08
862,13	1269,74
862,30	1271,79
862,47	1288,17
862,63	1310,70
862,80	1308,65
862,97	1222,64
863,14	1224,69
863,30	1232,88
863,47	1325,04
863,64	1316,84
863,81	1331,18
863,97	1294,32
864,14	1355,76
864,31	1226,73
864,48	1271,79
864,65	1286,12
864,81	1253,36
864,98	1271,79
865,15	1372,14
865,32	1163,25
865,48	1312,75
865,65	1320,94
865,82	1226,73
865,98	1259,50
866,15	1275,88
866,32	1302,51
866,49	1226,73
866,65	1279,98
866,82	1222,64
866,99	1286,12
867,16	1325,04
867,32	1304,56
867,49	1263,60
867,66	1265,64
867,83	1282,03
867,99	1253,36
868,16	1236,97
868,33	1275,88
868,49	1314,80
868,66	1247,21
868,83	1243,12
868,99	1312,75
869,16	1263,60
869,33	1257,45
869,50	1259,50
869,66	1279,98
869,83	1288,17
870,00	1284,08
870,16	1327,08
870,33	1329,13
870,50	1273,84
870,66	1245,16
870,83	1218,54
871,00	1243,12
871,17	1286,12
871,33	1282,03
871,50	1228,78
871,67	1372,14
871,83	1288,17
872,00	1253,36
872,17	1271,79
872,33	1253,36
872,50	1286,12
872,67	1236,97
872,83	1191,92
873,00	1300,46
873,17	1271,79
873,33	1277,93
873,50	1277,93
873,67	1269,74
873,83	1265,64
874,00	1304,56
874,16	1294,32
874,33	1255,40
874,50	1294,32
874,66	1296,36
874,83	1318,89
875,00	1273,84
875,16	1329,13
875,33	1331,18
875,50	1265,64
875,66	1234,93
875,83	1312,75
875,99	1347,56
876,16	1370,09
876,33	1284,08
876,49	1298,41
876,66	1232,88
876,83	1257,45
876,99	1341,42
877,16	1279,98
877,32	1206,25
877,49	1316,84
877,66	1292,27
877,82	1239,02
877,99	1255,40
878,15	1286,12
878,32	1257,45
878,49	1318,89
878,65	1214,45
878,82	1284,08
878,98	1279,98
879,15	1296,36
879,32	1273,84
879,48	1257,45
879,65	1239,02
879,81	1265,64
879,98	1234,93
880,15	1275,88
880,31	1245,16
880,48	1259,50
880,64	1310,70
880,81	1306,60
880,97	1282,03
881,14	1282,03
881,31	1306,60
881,47	1267,69
881,64	1329,13
881,80	1216,49
881,97	1316,84
882,13	1253,36
882,30	1279,98
882,47	1277,93
882,63	1245,16
882,80	1271,79
882,96	1255,40
883,13	1304,56
883,29	1175,53
883,46	1263,60
883,62	1286,12
883,79	1347,56
883,95	1236,97
884,12	1335,28
884,29	1269,74
884,45	1302,51
884,62	1232,88
884,78	1275,88
884,95	1269,74
885,11	1263,60
885,28	1312,75
885,44	1263,60
885,61	1202,16
885,77	1312,75
885,94	1263,60
886,10	1241,07
886,27	1216,49
886,43	1304,56
886,60	1232,88
886,76	1282,03
886,93	1177,58
887,09	1259,50
887,26	1282,03
887,42	1290,22
887,59	1284,08
887,75	1273,84
887,92	1284,08
888,08	1257,45
888,25	1308,65
888,41	1366,00
888,58	1288,17
888,74	1253,36
888,91	1284,08
>>>>>End Processed Spectral Data<<<<<
