SpectraSuite Data File
++++++++++++++++++++++++++++++++++++
Date: Sun Apr 03 15:07:34 CEST 2016
User: root
Dark Spectrum Present: No
Reference Spectrum Present: No
Number of Sampled Component Spectra: 1
Spectrometers: USB4C02835
Integration Time (usec): 10000 (USB4C02835)
Spectra Averaged: 1 (USB4C02835)
Boxcar Smoothing: 0 (USB4C02835)
Correct for Electrical Dark: No (USB4C02835)
Strobe/Lamp Enabled: No (USB4C02835)
Correct for Detector Non-linearity: No (USB4C02835)
Correct for Stray Light: No (USB4C02835)
Number of Pixels in Processed Spectrum: 3648
>>>>>Begin Processed Spectral Data<<<<<
177,47	1214,45
177,69	1214,45
177,91	1214,45
178,13	1243,12
178,36	1253,36
178,58	1259,50
178,80	1234,93
179,02	1329,13
179,24	1275,88
179,46	1230,83
179,68	1214,45
179,90	1257,45
180,13	1273,84
180,35	1265,64
180,57	1253,36
180,79	1265,64
181,01	1251,31
181,23	1265,64
181,45	1216,49
181,67	1265,64
181,90	1259,50
182,12	1271,79
182,34	1298,41
182,56	1243,12
182,78	1263,60
183,00	1282,03
183,22	1218,54
183,44	1200,11
183,66	1271,79
183,89	1239,02
184,11	1273,84
184,33	1218,54
184,55	1230,83
184,77	1288,17
184,99	1232,88
185,21	1277,93
185,43	1288,17
185,65	1218,54
185,87	1232,88
186,10	1247,21
186,32	1290,22
186,54	1251,31
186,76	1269,74
186,98	1279,98
187,20	1220,59
187,42	1269,74
187,64	1257,45
187,86	1312,75
188,08	1220,59
188,30	1265,64
188,52	1275,88
188,75	1290,22
188,97	1312,75
189,19	1329,13
189,41	1234,93
189,63	1308,65
189,85	1175,53
190,07	1312,75
190,29	1251,31
190,51	1349,61
190,73	1271,79
190,95	1247,21
191,17	1265,64
191,39	1226,73
191,61	1257,45
191,84	1257,45
192,06	1267,69
192,28	1259,50
192,50	1308,65
192,72	1257,45
192,94	1325,04
193,16	1277,93
193,38	1304,56
193,60	1200,11
193,82	1337,32
194,04	1265,64
194,26	1282,03
194,48	1288,17
194,70	1226,73
194,92	1312,75
195,14	1220,59
195,36	1308,65
195,58	1253,36
195,80	1279,98
196,02	1220,59
196,24	1259,50
196,46	1275,88
196,69	1300,46
196,91	1232,88
197,13	1232,88
197,35	1249,26
197,57	1320,94
197,79	1304,56
198,01	1290,22
198,23	1245,16
198,45	1290,22
198,67	1224,69
198,89	1312,75
199,11	1263,60
199,33	1269,74
199,55	1300,46
199,77	1325,04
199,99	1341,42
200,21	1271,79
200,43	1282,03
200,65	1327,08
200,87	1230,83
201,09	1271,79
201,31	1271,79
201,53	1279,98
201,75	1224,69
201,97	1263,60
202,19	1284,08
202,41	1277,93
202,63	1298,41
202,85	1222,64
203,07	1296,36
203,29	1271,79
203,51	1245,16
203,73	1318,89
203,95	1339,37
204,17	1212,40
204,39	1236,97
204,61	1310,70
204,83	1239,02
205,05	1300,46
205,27	1259,50
205,49	1263,60
205,71	1261,55
205,93	1265,64
206,15	1277,93
206,37	1249,26
206,59	1234,93
206,81	1239,02
207,03	1322,99
207,25	1249,26
207,47	1198,06
207,69	1286,12
207,91	1265,64
208,13	1296,36
208,34	1282,03
208,56	1308,65
208,78	1249,26
209,00	1286,12
209,22	1310,70
209,44	1345,52
209,66	1312,75
209,88	1308,65
210,10	1290,22
210,32	1277,93
210,54	1263,60
210,76	1275,88
210,98	1271,79
211,20	1298,41
211,42	1269,74
211,64	1310,70
211,86	1282,03
212,08	1234,93
212,30	1286,12
212,52	1255,40
212,74	1325,04
212,96	1257,45
213,17	1294,32
213,39	1298,41
213,61	1261,55
213,83	1275,88
214,05	1282,03
214,27	1220,59
214,49	1331,18
214,71	1271,79
214,93	1279,98
215,15	1251,31
215,37	1214,45
215,59	1306,60
215,81	1271,79
216,03	1257,45
216,24	1269,74
216,46	1267,69
216,68	1275,88
216,90	1236,97
217,12	1251,31
217,34	1343,47
217,56	1351,66
217,78	1265,64
218,00	1314,80
218,22	1243,12
218,44	1236,97
218,66	1351,66
218,87	1327,08
219,09	1322,99
219,31	1290,22
219,53	1284,08
219,75	1241,07
219,97	1277,93
220,19	1277,93
220,41	1314,80
220,63	1345,52
220,85	1318,89
221,06	1304,56
221,28	1267,69
221,50	1325,04
221,72	1288,17
221,94	1265,64
222,16	1300,46
222,38	1261,55
222,60	1251,31
222,82	1265,64
223,03	1302,51
223,25	1263,60
223,47	1257,45
223,69	1251,31
223,91	1204,21
224,13	1243,12
224,35	1241,07
224,57	1271,79
224,78	1232,88
225,00	1257,45
225,22	1304,56
225,44	1257,45
225,66	1345,52
225,88	1259,50
226,10	1284,08
226,32	1263,60
226,53	1267,69
226,75	1224,69
226,97	1259,50
227,19	1310,70
227,41	1243,12
227,63	1306,60
227,85	1353,71
228,06	1236,97
228,28	1263,60
228,50	1282,03
228,72	1267,69
228,94	1183,73
229,16	1286,12
229,37	1298,41
229,59	1290,22
229,81	1232,88
230,03	1202,16
230,25	1241,07
230,47	1306,60
230,69	1228,78
230,90	1181,68
231,12	1288,17
231,34	1396,71
231,56	1318,89
231,78	1298,41
232,00	1279,98
232,21	1320,94
232,43	1339,37
232,65	1269,74
232,87	1298,41
233,09	1290,22
233,30	1298,41
233,52	1304,56
233,74	1282,03
233,96	1241,07
234,18	1236,97
234,40	1271,79
234,61	1277,93
234,83	1308,65
235,05	1294,32
235,27	1372,14
235,49	1288,17
235,70	1286,12
235,92	1288,17
236,14	1288,17
236,36	1257,45
236,58	1228,78
236,79	1273,84
237,01	1265,64
237,23	1290,22
237,45	1245,16
237,67	1300,46
237,88	1310,70
238,10	1304,56
238,32	1257,45
238,54	1257,45
238,76	1253,36
238,97	1255,40
239,19	1275,88
239,41	1259,50
239,63	1320,94
239,85	1232,88
240,06	1304,56
240,28	1249,26
240,50	1363,95
240,72	1259,50
240,93	1292,27
241,15	1214,45
241,37	1275,88
241,59	1325,04
241,81	1251,31
242,02	1214,45
242,24	1253,36
242,46	1159,15
242,68	1286,12
242,89	1288,17
243,11	1298,41
243,33	1261,55
243,55	1253,36
243,76	1292,27
243,98	1331,18
244,20	1288,17
244,42	1249,26
244,64	1279,98
244,85	1269,74
245,07	1239,02
245,29	1275,88
245,51	1308,65
245,72	1224,69
245,94	1249,26
246,16	1189,87
246,38	1243,12
246,59	1234,93
246,81	1288,17
247,03	1300,46
247,24	1298,41
247,46	1288,17
247,68	1333,23
247,90	1206,25
248,11	1234,93
248,33	1302,51
248,55	1296,36
248,77	1236,97
248,98	1232,88
249,20	1245,16
249,42	1376,24
249,64	1279,98
249,85	1183,73
250,07	1322,99
250,29	1306,60
250,50	1298,41
250,72	1347,56
250,94	1247,21
251,16	1247,21
251,37	1261,55
251,59	1273,84
251,81	1230,83
252,02	1277,93
252,24	1269,74
252,46	1263,60
252,68	1263,60
252,89	1234,93
253,11	1361,90
253,33	1306,60
253,54	1325,04
253,76	1312,75
253,98	1277,93
254,20	1269,74
254,41	1275,88
254,63	1224,69
254,85	1255,40
255,06	1255,40
255,28	1279,98
255,50	1282,03
255,71	1290,22
255,93	1259,50
256,15	1273,84
256,36	1331,18
256,58	1167,34
256,80	1241,07
257,02	1267,69
257,23	1298,41
257,45	1361,90
257,67	1208,30
257,88	1189,87
258,10	1269,74
258,32	1296,36
258,53	1249,26
258,75	1263,60
258,97	1288,17
259,18	1320,94
259,40	1202,16
259,62	1345,52
259,83	1335,28
260,05	1245,16
260,27	1304,56
260,48	1255,40
260,70	1306,60
260,92	1284,08
261,13	1286,12
261,35	1247,21
261,57	1298,41
261,78	1255,40
262,00	1241,07
262,22	1314,80
262,43	1361,90
262,65	1228,78
262,86	1257,45
263,08	1271,79
263,30	1253,36
263,51	1263,60
263,73	1308,65
263,95	1329,13
264,16	1210,35
264,38	1277,93
264,60	1239,02
264,81	1212,40
265,03	1173,49
265,25	1249,26
265,46	1257,45
265,68	1279,98
265,89	1218,54
266,11	1189,87
266,33	1298,41
266,54	1312,75
266,76	1253,36
266,98	1269,74
267,19	1202,16
267,41	1261,55
267,62	1265,64
267,84	1316,84
268,06	1273,84
268,27	1320,94
268,49	1320,94
268,70	1337,32
268,92	1292,27
269,14	1306,60
269,35	1222,64
269,57	1257,45
269,79	1294,32
270,00	1267,69
270,22	1271,79
270,43	1277,93
270,65	1366,00
270,87	1214,45
271,08	1230,83
271,30	1239,02
271,51	1189,87
271,73	1271,79
271,95	1277,93
272,16	1265,64
272,38	1318,89
272,59	1320,94
272,81	1255,40
273,02	1273,84
273,24	1339,37
273,46	1320,94
273,67	1288,17
273,89	1308,65
274,10	1308,65
274,32	1265,64
274,54	1245,16
274,75	1253,36
274,97	1249,26
275,18	1318,89
275,40	1294,32
275,61	1304,56
275,83	1273,84
276,05	1300,46
276,26	1279,98
276,48	1245,16
276,69	1347,56
276,91	1279,98
277,12	1257,45
277,34	1273,84
277,55	1273,84
277,77	1292,27
277,99	1282,03
278,20	1265,64
278,42	1249,26
278,63	1267,69
278,85	1269,74
279,06	1259,50
279,28	1306,60
279,49	1296,36
279,71	1273,84
279,93	1279,98
280,14	1314,80
280,36	1257,45
280,57	1325,04
280,79	1331,18
281,00	1327,08
281,22	1288,17
281,43	1181,68
281,65	1220,59
281,86	1241,07
282,08	1253,36
282,29	1232,88
282,51	1331,18
282,73	1277,93
282,94	1253,36
283,16	1241,07
283,37	1255,40
283,59	1306,60
283,80	1236,97
284,02	1218,54
284,23	1279,98
284,45	1298,41
284,66	1284,08
284,88	1239,02
285,09	1220,59
285,31	1286,12
285,52	1251,31
285,74	1253,36
285,95	1304,56
286,17	1279,98
286,38	1241,07
286,60	1265,64
286,81	1208,30
287,03	1239,02
287,24	1263,60
287,46	1329,13
287,67	1327,08
287,89	1275,88
288,10	1265,64
288,32	1275,88
288,53	1230,83
288,75	1241,07
288,96	1298,41
289,18	1255,40
289,39	1308,65
289,61	1329,13
289,82	1296,36
290,04	1308,65
290,25	1284,08
290,47	1247,21
290,68	1122,29
290,90	1222,64
291,11	1157,10
291,33	1214,45
291,54	1331,18
291,76	1292,27
291,97	1222,64
292,18	1282,03
292,40	1288,17
292,61	1259,50
292,83	1337,32
293,04	1247,21
293,26	1255,40
293,47	1253,36
293,69	1196,01
293,90	1349,61
294,12	1286,12
294,33	1310,70
294,55	1288,17
294,76	1200,11
294,97	1239,02
295,19	1290,22
295,40	1210,35
295,62	1247,21
295,83	1236,97
296,05	1230,83
296,26	1263,60
296,48	1343,47
296,69	1243,12
296,90	1265,64
297,12	1302,51
297,33	1255,40
297,55	1263,60
297,76	1183,73
297,98	1282,03
298,19	1249,26
298,41	1282,03
298,62	1273,84
298,83	1226,73
299,05	1282,03
299,26	1349,61
299,48	1290,22
299,69	1306,60
299,90	1279,98
300,12	1298,41
300,33	1335,28
300,55	1200,11
300,76	1294,32
300,98	1271,79
301,19	1239,02
301,40	1292,27
301,62	1279,98
301,83	1204,21
302,05	1247,21
302,26	1261,55
302,47	1249,26
302,69	1269,74
302,90	1322,99
303,12	1312,75
303,33	1247,21
303,54	1261,55
303,76	1245,16
303,97	1261,55
304,19	1349,61
304,40	1249,26
304,61	1261,55
304,83	1236,97
305,04	1196,01
305,26	1249,26
305,47	1255,40
305,68	1226,73
305,90	1241,07
306,11	1257,45
306,33	1251,31
306,54	1306,60
306,75	1312,75
306,97	1253,36
307,18	1257,45
307,39	1173,49
307,61	1257,45
307,82	1282,03
308,04	1320,94
308,25	1255,40
308,46	1306,60
308,68	1275,88
308,89	1282,03
309,10	1304,56
309,32	1322,99
309,53	1234,93
309,74	1222,64
309,96	1261,55
310,17	1302,51
310,39	1265,64
310,60	1239,02
310,81	1187,82
311,03	1320,94
311,24	1339,37
311,45	1218,54
311,67	1329,13
311,88	1206,25
312,09	1259,50
312,31	1263,60
312,52	1249,26
312,73	1290,22
312,95	1337,32
313,16	1220,59
313,37	1331,18
313,59	1253,36
313,80	1224,69
314,01	1261,55
314,23	1290,22
314,44	1263,60
314,65	1226,73
314,87	1304,56
315,08	1189,87
315,29	1298,41
315,51	1318,89
315,72	1267,69
315,93	1271,79
316,15	1251,31
316,36	1239,02
316,57	1216,49
316,79	1277,93
317,00	1271,79
317,21	1167,34
317,43	1226,73
317,64	1296,36
317,85	1275,88
318,07	1322,99
318,28	1331,18
318,49	1200,11
318,70	1322,99
318,92	1279,98
319,13	1314,80
319,34	1224,69
319,56	1304,56
319,77	1306,60
319,98	1228,78
320,20	1306,60
320,41	1230,83
320,62	1245,16
320,83	1355,76
321,05	1277,93
321,26	1273,84
321,47	1257,45
321,69	1310,70
321,90	1263,60
322,11	1273,84
322,32	1212,40
322,54	1269,74
322,75	1259,50
322,96	1273,84
323,18	1290,22
323,39	1241,07
323,60	1273,84
323,81	1208,30
324,03	1198,06
324,24	1273,84
324,45	1234,93
324,66	1302,51
324,88	1273,84
325,09	1216,49
325,30	1314,80
325,52	1224,69
325,73	1259,50
325,94	1228,78
326,15	1202,16
326,37	1224,69
326,58	1314,80
326,79	1249,26
327,00	1239,02
327,22	1277,93
327,43	1269,74
327,64	1167,34
327,85	1329,13
328,07	1279,98
328,28	1322,99
328,49	1273,84
328,70	1239,02
328,92	1261,55
329,13	1261,55
329,34	1304,56
329,55	1277,93
329,76	1277,93
329,98	1208,30
330,19	1318,89
330,40	1232,88
330,61	1257,45
330,83	1286,12
331,04	1251,31
331,25	1368,04
331,46	1277,93
331,68	1312,75
331,89	1333,23
332,10	1286,12
332,31	1273,84
332,52	1210,35
332,74	1331,18
332,95	1327,08
333,16	1296,36
333,37	1204,21
333,58	1183,73
333,80	1310,70
334,01	1292,27
334,22	1202,16
334,43	1288,17
334,64	1316,84
334,86	1306,60
335,07	1312,75
335,28	1288,17
335,49	1296,36
335,70	1271,79
335,92	1329,13
336,13	1277,93
336,34	1277,93
336,55	1294,32
336,76	1284,08
336,98	1279,98
337,19	1288,17
337,40	1282,03
337,61	1316,84
337,82	1277,93
338,04	1286,12
338,25	1234,93
338,46	1325,04
338,67	1241,07
338,88	1230,83
339,09	1241,07
339,31	1249,26
339,52	1351,66
339,73	1243,12
339,94	1241,07
340,15	1359,85
340,36	1265,64
340,58	1322,99
340,79	1230,83
341,00	1306,60
341,21	1300,46
341,42	1273,84
341,63	1286,12
341,85	1322,99
342,06	1327,08
342,27	1230,83
342,48	1279,98
342,69	1275,88
342,90	1308,65
343,12	1341,42
343,33	1316,84
343,54	1230,83
343,75	1306,60
343,96	1253,36
344,17	1300,46
344,38	1284,08
344,60	1245,16
344,81	1282,03
345,02	1302,51
345,23	1214,45
345,44	1282,03
345,65	1320,94
345,86	1306,60
346,07	1185,77
346,29	1247,21
346,50	1255,40
346,71	1322,99
346,92	1302,51
347,13	1333,23
347,34	1269,74
347,55	1230,83
347,76	1351,66
347,98	1271,79
348,19	1267,69
348,40	1249,26
348,61	1318,89
348,82	1245,16
349,03	1310,70
349,24	1286,12
349,45	1353,71
349,66	1247,21
349,88	1306,60
350,09	1224,69
350,30	1314,80
350,51	1288,17
350,72	1216,49
350,93	1318,89
351,14	1224,69
351,35	1306,60
351,56	1314,80
351,77	1257,45
351,99	1284,08
352,20	1286,12
352,41	1335,28
352,62	1247,21
352,83	1314,80
353,04	1290,22
353,25	1259,50
353,46	1200,11
353,67	1325,04
353,88	1253,36
354,09	1347,56
354,30	1196,01
354,52	1327,08
354,73	1243,12
354,94	1290,22
355,15	1251,31
355,36	1310,70
355,57	1263,60
355,78	1236,97
355,99	1236,97
356,20	1282,03
356,41	1245,16
356,62	1288,17
356,83	1327,08
357,04	1245,16
357,25	1257,45
357,46	1249,26
357,68	1290,22
357,89	1277,93
358,10	1329,13
358,31	1249,26
358,52	1251,31
358,73	1222,64
358,94	1224,69
359,15	1306,60
359,36	1253,36
359,57	1259,50
359,78	1290,22
359,99	1255,40
360,20	1296,36
360,41	1277,93
360,62	1273,84
360,83	1261,55
361,04	1220,59
361,25	1327,08
361,46	1220,59
361,67	1298,41
361,88	1230,83
362,09	1296,36
362,30	1310,70
362,51	1294,32
362,72	1294,32
362,93	1298,41
363,14	1306,60
363,35	1263,60
363,56	1271,79
363,78	1263,60
363,99	1261,55
364,20	1267,69
364,41	1249,26
364,62	1296,36
364,83	1265,64
365,04	1300,46
365,25	1292,27
365,46	1220,59
365,67	1253,36
365,88	1232,88
366,09	1290,22
366,30	1271,79
366,51	1337,32
366,72	1251,31
366,93	1304,56
367,14	1286,12
367,35	1239,02
367,56	1314,80
367,77	1177,58
367,98	1265,64
368,18	1265,64
368,39	1269,74
368,60	1277,93
368,81	1206,25
369,02	1320,94
369,23	1294,32
369,44	1249,26
369,65	1163,25
369,86	1269,74
370,07	1214,45
370,28	1249,26
370,49	1255,40
370,70	1312,75
370,91	1290,22
371,12	1286,12
371,33	1216,49
371,54	1226,73
371,75	1204,21
371,96	1163,25
372,17	1339,37
372,38	1220,59
372,59	1148,91
372,80	1322,99
373,01	1316,84
373,22	1288,17
373,43	1298,41
373,64	1230,83
373,85	1228,78
374,06	1320,94
374,26	1298,41
374,47	1222,64
374,68	1320,94
374,89	1253,36
375,10	1284,08
375,31	1222,64
375,52	1269,74
375,73	1290,22
375,94	1187,82
376,15	1300,46
376,36	1302,51
376,57	1265,64
376,78	1234,93
376,99	1302,51
377,20	1263,60
377,40	1320,94
377,61	1275,88
377,82	1306,60
378,03	1279,98
378,24	1265,64
378,45	1302,51
378,66	1337,32
378,87	1236,97
379,08	1251,31
379,29	1255,40
379,50	1288,17
379,71	1275,88
379,91	1259,50
380,12	1249,26
380,33	1251,31
380,54	1310,70
380,75	1249,26
380,96	1187,82
381,17	1296,36
381,38	1357,80
381,59	1261,55
381,80	1216,49
382,00	1263,60
382,21	1300,46
382,42	1288,17
382,63	1333,23
382,84	1208,30
383,05	1263,60
383,26	1253,36
383,47	1228,78
383,68	1275,88
383,88	1224,69
384,09	1271,79
384,30	1253,36
384,51	1308,65
384,72	1355,76
384,93	1261,55
385,14	1224,69
385,35	1331,18
385,55	1239,02
385,76	1329,13
385,97	1247,21
386,18	1310,70
386,39	1314,80
386,60	1341,42
386,81	1286,12
387,02	1282,03
387,22	1308,65
387,43	1224,69
387,64	1267,69
387,85	1359,85
388,06	1296,36
388,27	1265,64
388,48	1314,80
388,68	1277,93
388,89	1210,35
389,10	1249,26
389,31	1241,07
389,52	1279,98
389,73	1241,07
389,93	1265,64
390,14	1290,22
390,35	1337,32
390,56	1300,46
390,77	1216,49
390,98	1282,03
391,18	1232,88
391,39	1277,93
391,60	1257,45
391,81	1193,97
392,02	1351,66
392,23	1257,45
392,43	1230,83
392,64	1255,40
392,85	1208,30
393,06	1216,49
393,27	1304,56
393,47	1236,97
393,68	1255,40
393,89	1255,40
394,10	1339,37
394,31	1200,11
394,52	1316,84
394,72	1294,32
394,93	1288,17
395,14	1337,32
395,35	1277,93
395,56	1294,32
395,76	1306,60
395,97	1279,98
396,18	1255,40
396,39	1241,07
396,60	1267,69
396,80	1353,71
397,01	1296,36
397,22	1308,65
397,43	1255,40
397,64	1306,60
397,84	1298,41
398,05	1185,77
398,26	1241,07
398,47	1267,69
398,67	1249,26
398,88	1355,76
399,09	1310,70
399,30	1253,36
399,51	1277,93
399,71	1294,32
399,92	1251,31
400,13	1228,78
400,34	1335,28
400,54	1236,97
400,75	1187,82
400,96	1277,93
401,17	1189,87
401,37	1271,79
401,58	1206,25
401,79	1234,93
402,00	1296,36
402,21	1241,07
402,41	1261,55
402,62	1230,83
402,83	1226,73
403,04	1239,02
403,24	1251,31
403,45	1247,21
403,66	1259,50
403,87	1267,69
404,07	1288,17
404,28	1249,26
404,49	1245,16
404,70	1218,54
404,90	1239,02
405,11	1218,54
405,32	1306,60
405,52	1300,46
405,73	1279,98
405,94	1263,60
406,15	1259,50
406,35	1249,26
406,56	1300,46
406,77	1191,92
406,98	1269,74
407,18	1343,47
407,39	1363,95
407,60	1241,07
407,80	1261,55
408,01	1277,93
408,22	1253,36
408,43	1327,08
408,63	1257,45
408,84	1271,79
409,05	1277,93
409,25	1241,07
409,46	1339,37
409,67	1300,46
409,88	1322,99
410,08	1294,32
410,29	1310,70
410,50	1302,51
410,70	1239,02
410,91	1241,07
411,12	1296,36
411,32	1259,50
411,53	1230,83
411,74	1202,16
411,95	1173,49
412,15	1296,36
412,36	1222,64
412,57	1275,88
412,77	1286,12
412,98	1273,84
413,19	1310,70
413,39	1226,73
413,60	1294,32
413,81	1187,82
414,01	1245,16
414,22	1368,04
414,43	1341,42
414,63	1224,69
414,84	1228,78
415,05	1183,73
415,25	1279,98
415,46	1239,02
415,67	1263,60
415,87	1298,41
416,08	1236,97
416,29	1255,40
416,49	1232,88
416,70	1302,51
416,91	1267,69
417,11	1224,69
417,32	1226,73
417,53	1216,49
417,73	1304,56
417,94	1218,54
418,15	1286,12
418,35	1224,69
418,56	1259,50
418,77	1261,55
418,97	1202,16
419,18	1232,88
419,38	1249,26
419,59	1245,16
419,80	1288,17
420,00	1312,75
420,21	1234,93
420,42	1267,69
420,62	1282,03
420,83	1259,50
421,04	1243,12
421,24	1228,78
421,45	1282,03
421,65	1329,13
421,86	1183,73
422,07	1257,45
422,27	1273,84
422,48	1298,41
422,69	1271,79
422,89	1189,87
423,10	1249,26
423,30	1253,36
423,51	1257,45
423,72	1294,32
423,92	1277,93
424,13	1222,64
424,33	1288,17
424,54	1294,32
424,75	1273,84
424,95	1245,16
425,16	1259,50
425,36	1187,82
425,57	1196,01
425,78	1198,06
425,98	1224,69
426,19	1351,66
426,39	1204,21
426,60	1261,55
426,81	1247,21
427,01	1331,18
427,22	1310,70
427,42	1259,50
427,63	1241,07
427,83	1232,88
428,04	1249,26
428,25	1249,26
428,45	1267,69
428,66	1247,21
428,86	1263,60
429,07	1257,45
429,28	1300,46
429,48	1255,40
429,69	1236,97
429,89	1214,45
430,10	1265,64
430,30	1243,12
430,51	1251,31
430,71	1208,30
430,92	1296,36
431,13	1265,64
431,33	1302,51
431,54	1308,65
431,74	1320,94
431,95	1308,65
432,15	1234,93
432,36	1298,41
432,56	1251,31
432,77	1275,88
432,98	1372,14
433,18	1294,32
433,39	1275,88
433,59	1187,82
433,80	1259,50
434,00	1351,66
434,21	1296,36
434,41	1257,45
434,62	1271,79
434,82	1265,64
435,03	1286,12
435,23	1322,99
435,44	1347,56
435,64	1249,26
435,85	1275,88
436,06	1335,28
436,26	1304,56
436,47	1282,03
436,67	1267,69
436,88	1320,94
437,08	1273,84
437,29	1263,60
437,49	1314,80
437,70	1228,78
437,90	1304,56
438,11	1288,17
438,31	1247,21
438,52	1271,79
438,72	1298,41
438,93	1177,58
439,13	1327,08
439,34	1236,97
439,54	1245,16
439,75	1257,45
439,95	1343,47
440,16	1226,73
440,36	1277,93
440,57	1290,22
440,77	1249,26
440,98	1337,32
441,18	1335,28
441,39	1331,18
441,59	1351,66
441,80	1220,59
442,00	1255,40
442,21	1286,12
442,41	1208,30
442,62	1325,04
442,82	1265,64
443,02	1271,79
443,23	1210,35
443,43	1245,16
443,64	1271,79
443,84	1325,04
444,05	1343,47
444,25	1273,84
444,46	1325,04
444,66	1267,69
444,87	1341,42
445,07	1239,02
445,28	1267,69
445,48	1277,93
445,69	1296,36
445,89	1261,55
446,09	1259,50
446,30	1275,88
446,50	1261,55
446,71	1212,40
446,91	1232,88
447,12	1249,26
447,32	1331,18
447,53	1255,40
447,73	1263,60
447,93	1282,03
448,14	1232,88
448,34	1335,28
448,55	1325,04
448,75	1284,08
448,96	1267,69
449,16	1304,56
449,36	1257,45
449,57	1261,55
449,77	1329,13
449,98	1226,73
450,18	1263,60
450,39	1224,69
450,59	1282,03
450,79	1292,27
451,00	1294,32
451,20	1226,73
451,41	1265,64
451,61	1314,80
451,81	1271,79
452,02	1292,27
452,22	1302,51
452,43	1302,51
452,63	1216,49
452,84	1202,16
453,04	1255,40
453,24	1306,60
453,45	1236,97
453,65	1239,02
453,86	1302,51
454,06	1206,25
454,26	1214,45
454,47	1245,16
454,67	1288,17
454,87	1239,02
455,08	1288,17
455,28	1308,65
455,49	1292,27
455,69	1261,55
455,89	1245,16
456,10	1251,31
456,30	1249,26
456,51	1282,03
456,71	1230,83
456,91	1298,41
457,12	1241,07
457,32	1243,12
457,52	1277,93
457,73	1222,64
457,93	1304,56
458,14	1300,46
458,34	1249,26
458,54	1253,36
458,75	1275,88
458,95	1261,55
459,15	1245,16
459,36	1251,31
459,56	1218,54
459,76	1265,64
459,97	1284,08
460,17	1269,74
460,37	1253,36
460,58	1277,93
460,78	1232,88
460,99	1327,08
461,19	1277,93
461,39	1347,56
461,60	1249,26
461,80	1282,03
462,00	1308,65
462,21	1282,03
462,41	1236,97
462,61	1212,40
462,82	1271,79
463,02	1314,80
463,22	1153,01
463,43	1220,59
463,63	1267,69
463,83	1288,17
464,04	1241,07
464,24	1275,88
464,44	1247,21
464,64	1265,64
464,85	1329,13
465,05	1296,36
465,25	1312,75
465,46	1234,93
465,66	1279,98
465,86	1257,45
466,07	1300,46
466,27	1232,88
466,47	1220,59
466,68	1212,40
466,88	1277,93
467,08	1292,27
467,29	1347,56
467,49	1224,69
467,69	1271,79
467,89	1292,27
468,10	1257,45
468,30	1253,36
468,50	1345,52
468,71	1251,31
468,91	1187,82
469,11	1331,18
469,31	1275,88
469,52	1294,32
469,72	1222,64
469,92	1222,64
470,13	1204,21
470,33	1202,16
470,53	1351,66
470,73	1261,55
470,94	1243,12
471,14	1253,36
471,34	1173,49
471,54	1243,12
471,75	1257,45
471,95	1208,30
472,15	1265,64
472,36	1290,22
472,56	1314,80
472,76	1288,17
472,96	1314,80
473,17	1271,79
473,37	1212,40
473,57	1257,45
473,77	1216,49
473,98	1288,17
474,18	1320,94
474,38	1224,69
474,58	1290,22
474,79	1214,45
474,99	1345,52
475,19	1277,93
475,39	1331,18
475,60	1185,77
475,80	1273,84
476,00	1300,46
476,20	1290,22
476,41	1279,98
476,61	1308,65
476,81	1261,55
477,01	1284,08
477,21	1232,88
477,42	1269,74
477,62	1296,36
477,82	1308,65
478,02	1267,69
478,23	1316,84
478,43	1273,84
478,63	1236,97
478,83	1282,03
479,03	1329,13
479,24	1261,55
479,44	1277,93
479,64	1236,97
479,84	1267,69
480,04	1284,08
480,25	1327,08
480,45	1269,74
480,65	1282,03
480,85	1257,45
481,06	1206,25
481,26	1267,69
481,46	1269,74
481,66	1259,50
481,86	1282,03
482,06	1208,30
482,27	1214,45
482,47	1269,74
482,67	1267,69
482,87	1150,96
483,07	1247,21
483,28	1359,85
483,48	1249,26
483,68	1265,64
483,88	1298,41
484,08	1267,69
484,29	1206,25
484,49	1288,17
484,69	1306,60
484,89	1318,89
485,09	1251,31
485,29	1296,36
485,50	1302,51
485,70	1331,18
485,90	1220,59
486,10	1267,69
486,30	1245,16
486,50	1206,25
486,71	1265,64
486,91	1224,69
487,11	1257,45
487,31	1282,03
487,51	1228,78
487,71	1269,74
487,91	1255,40
488,12	1265,64
488,32	1249,26
488,52	1263,60
488,72	1304,56
488,92	1269,74
489,12	1314,80
489,32	1263,60
489,53	1239,02
489,73	1273,84
489,93	1247,21
490,13	1322,99
490,33	1220,59
490,53	1372,14
490,73	1249,26
490,94	1234,93
491,14	1239,02
491,34	1284,08
491,54	1249,26
491,74	1245,16
491,94	1296,36
492,14	1279,98
492,34	1259,50
492,54	1261,55
492,75	1241,07
492,95	1202,16
493,15	1241,07
493,35	1232,88
493,55	1247,21
493,75	1298,41
493,95	1241,07
494,15	1253,36
494,35	1349,61
494,56	1298,41
494,76	1257,45
494,96	1282,03
495,16	1216,49
495,36	1255,40
495,56	1232,88
495,76	1265,64
495,96	1243,12
496,16	1239,02
496,36	1357,80
496,56	1210,35
496,77	1232,88
496,97	1302,51
497,17	1230,83
497,37	1282,03
497,57	1247,21
497,77	1239,02
497,97	1191,92
498,17	1296,36
498,37	1296,36
498,57	1329,13
498,77	1265,64
498,97	1294,32
499,17	1257,45
499,38	1263,60
499,58	1302,51
499,78	1292,27
499,98	1290,22
500,18	1263,60
500,38	1263,60
500,58	1185,77
500,78	1269,74
500,98	1253,36
501,18	1263,60
501,38	1198,06
501,58	1243,12
501,78	1277,93
501,98	1236,97
502,18	1245,16
502,38	1148,91
502,58	1271,79
502,78	1214,45
502,98	1241,07
503,18	1318,89
503,38	1279,98
503,59	1257,45
503,79	1204,21
503,99	1282,03
504,19	1261,55
504,39	1245,16
504,59	1202,16
504,79	1318,89
504,99	1277,93
505,19	1196,01
505,39	1257,45
505,59	1325,04
505,79	1220,59
505,99	1378,28
506,19	1290,22
506,39	1292,27
506,59	1220,59
506,79	1224,69
506,99	1267,69
507,19	1339,37
507,39	1196,01
507,59	1298,41
507,79	1253,36
507,99	1216,49
508,19	1208,30
508,39	1288,17
508,59	1320,94
508,79	1224,69
508,99	1320,94
509,19	1259,50
509,39	1263,60
509,59	1210,35
509,79	1277,93
509,99	1234,93
510,19	1279,98
510,39	1259,50
510,59	1228,78
510,79	1220,59
510,99	1265,64
511,19	1277,93
511,39	1298,41
511,59	1249,26
511,79	1230,83
511,99	1300,46
512,19	1312,75
512,38	1359,85
512,58	1314,80
512,78	1257,45
512,98	1263,60
513,18	1230,83
513,38	1296,36
513,58	1267,69
513,78	1179,63
513,98	1322,99
514,18	1273,84
514,38	1236,97
514,58	1298,41
514,78	1255,40
514,98	1234,93
515,18	1290,22
515,38	1255,40
515,58	1224,69
515,78	1257,45
515,98	1234,93
516,18	1277,93
516,38	1304,56
516,57	1314,80
516,77	1310,70
516,97	1228,78
517,17	1271,79
517,37	1267,69
517,57	1265,64
517,77	1302,51
517,97	1234,93
518,17	1234,93
518,37	1269,74
518,57	1294,32
518,77	1279,98
518,97	1198,06
519,16	1312,75
519,36	1177,58
519,56	1306,60
519,76	1279,98
519,96	1241,07
520,16	1359,85
520,36	1282,03
520,56	1273,84
520,76	1241,07
520,96	1232,88
521,16	1294,32
521,35	1243,12
521,55	1296,36
521,75	1271,79
521,95	1275,88
522,15	1247,21
522,35	1320,94
522,55	1245,16
522,75	1304,56
522,95	1236,97
523,14	1279,98
523,34	1273,84
523,54	1249,26
523,74	1261,55
523,94	1318,89
524,14	1249,26
524,34	1325,04
524,54	1322,99
524,73	1294,32
524,93	1247,21
525,13	1282,03
525,33	1218,54
525,53	1312,75
525,73	1284,08
525,93	1302,51
526,13	1277,93
526,32	1279,98
526,52	1267,69
526,72	1288,17
526,92	1269,74
527,12	1220,59
527,32	1275,88
527,52	1320,94
527,71	1257,45
527,91	1273,84
528,11	1245,16
528,31	1230,83
528,51	1331,18
528,71	1263,60
528,90	1273,84
529,10	1296,36
529,30	1294,32
529,50	1257,45
529,70	1200,11
529,90	1290,22
530,09	1333,23
530,29	1279,98
530,49	1257,45
530,69	1290,22
530,89	1198,06
531,09	1316,84
531,28	1234,93
531,48	1275,88
531,68	1271,79
531,88	1230,83
532,08	1322,99
532,28	1286,12
532,47	1171,44
532,67	1310,70
532,87	1273,84
533,07	1263,60
533,27	1310,70
533,46	1265,64
533,66	1259,50
533,86	1273,84
534,06	1267,69
534,26	1359,85
534,45	1269,74
534,65	1263,60
534,85	1243,12
535,05	1222,64
535,25	1216,49
535,44	1286,12
535,64	1257,45
535,84	1251,31
536,04	1265,64
536,24	1298,41
536,43	1282,03
536,63	1312,75
536,83	1322,99
537,03	1206,25
537,22	1204,21
537,42	1327,08
537,62	1206,25
537,82	1290,22
538,02	1214,45
538,21	1337,32
538,41	1275,88
538,61	1300,46
538,81	1253,36
539,00	1279,98
539,20	1271,79
539,40	1306,60
539,60	1255,40
539,79	1243,12
539,99	1255,40
540,19	1228,78
540,39	1261,55
540,58	1263,60
540,78	1247,21
540,98	1308,65
541,18	1337,32
541,37	1257,45
541,57	1247,21
541,77	1288,17
541,97	1216,49
542,16	1228,78
542,36	1241,07
542,56	1298,41
542,76	1331,18
542,95	1210,35
543,15	1210,35
543,35	1267,69
543,54	1304,56
543,74	1208,30
543,94	1271,79
544,14	1277,93
544,33	1341,42
544,53	1230,83
544,73	1196,01
544,93	1265,64
545,12	1196,01
545,32	1210,35
545,52	1298,41
545,71	1200,11
545,91	1214,45
546,11	1255,40
546,30	1277,93
546,50	1306,60
546,70	1288,17
546,90	1300,46
547,09	1263,60
547,29	1247,21
547,49	1277,93
547,68	1236,97
547,88	1243,12
548,08	1236,97
548,27	1318,89
548,47	1224,69
548,67	1232,88
548,87	1282,03
549,06	1224,69
549,26	1282,03
549,46	1284,08
549,65	1253,36
549,85	1208,30
550,05	1251,31
550,24	1273,84
550,44	1290,22
550,64	1208,30
550,83	1292,27
551,03	1378,28
551,23	1263,60
551,42	1318,89
551,62	1218,54
551,82	1247,21
552,01	1216,49
552,21	1277,93
552,41	1357,80
552,60	1290,22
552,80	1243,12
553,00	1265,64
553,19	1263,60
553,39	1349,61
553,59	1261,55
553,78	1325,04
553,98	1308,65
554,17	1290,22
554,37	1316,84
554,57	1327,08
554,76	1277,93
554,96	1210,35
555,16	1259,50
555,35	1193,97
555,55	1292,27
555,75	1298,41
555,94	1351,66
556,14	1239,02
556,33	1308,65
556,53	1177,58
556,73	1318,89
556,92	1253,36
557,12	1378,28
557,32	1310,70
557,51	1255,40
557,71	1273,84
557,90	1294,32
558,10	1249,26
558,30	1316,84
558,49	1267,69
558,69	1263,60
558,88	1298,41
559,08	1243,12
559,28	1286,12
559,47	1249,26
559,67	1275,88
559,86	1286,12
560,06	1306,60
560,26	1314,80
560,45	1255,40
560,65	1245,16
560,84	1241,07
561,04	1249,26
561,24	1337,32
561,43	1259,50
561,63	1357,80
561,82	1220,59
562,02	1269,74
562,22	1247,21
562,41	1243,12
562,61	1232,88
562,80	1253,36
563,00	1275,88
563,19	1329,13
563,39	1347,56
563,59	1329,13
563,78	1279,98
563,98	1312,75
564,17	1265,64
564,37	1273,84
564,56	1279,98
564,76	1308,65
564,96	1193,97
565,15	1249,26
565,35	1249,26
565,54	1257,45
565,74	1290,22
565,93	1366,00
566,13	1263,60
566,32	1284,08
566,52	1363,95
566,71	1255,40
566,91	1322,99
567,11	1245,16
567,30	1232,88
567,50	1325,04
567,69	1189,87
567,89	1263,60
568,08	1165,29
568,28	1263,60
568,47	1222,64
568,67	1327,08
568,86	1279,98
569,06	1372,14
569,25	1308,65
569,45	1284,08
569,64	1232,88
569,84	1189,87
570,04	1308,65
570,23	1179,63
570,43	1273,84
570,62	1359,85
570,82	1282,03
571,01	1294,32
571,21	1318,89
571,40	1198,06
571,60	1355,76
571,79	1310,70
571,99	1245,16
572,18	1277,93
572,38	1357,80
572,57	1318,89
572,77	1228,78
572,96	1253,36
573,16	1255,40
573,35	1273,84
573,55	1298,41
573,74	1259,50
573,94	1257,45
574,13	1277,93
574,33	1347,56
574,52	1286,12
574,71	1226,73
574,91	1277,93
575,10	1245,16
575,30	1265,64
575,49	1304,56
575,69	1175,53
575,88	1177,58
576,08	1290,22
576,27	1325,04
576,47	1271,79
576,66	1288,17
576,86	1224,69
577,05	1265,64
577,25	1228,78
577,44	1273,84
577,64	1310,70
577,83	1271,79
578,02	1212,40
578,22	1304,56
578,41	1288,17
578,61	1273,84
578,80	1251,31
579,00	1361,90
579,19	1284,08
579,39	1298,41
579,58	1345,52
579,77	1349,61
579,97	1329,13
580,16	1329,13
580,36	1267,69
580,55	1273,84
580,75	1322,99
580,94	1325,04
581,13	1279,98
581,33	1294,32
581,52	1267,69
581,72	1290,22
581,91	1304,56
582,11	1261,55
582,30	1253,36
582,49	1239,02
582,69	1282,03
582,88	1273,84
583,08	1277,93
583,27	1298,41
583,47	1298,41
583,66	1230,83
583,85	1263,60
584,05	1363,95
584,24	1304,56
584,44	1327,08
584,63	1271,79
584,82	1312,75
585,02	1251,31
585,21	1286,12
585,41	1220,59
585,60	1222,64
585,79	1236,97
585,99	1314,80
586,18	1220,59
586,37	1232,88
586,57	1204,21
586,76	1255,40
586,96	1286,12
587,15	1263,60
587,34	1218,54
587,54	1308,65
587,73	1284,08
587,93	1296,36
588,12	1279,98
588,31	1269,74
588,51	1265,64
588,70	1198,06
588,89	1286,12
589,09	1261,55
589,28	1196,01
589,47	1286,12
589,67	1239,02
589,86	1279,98
590,06	1243,12
590,25	1261,55
590,44	1275,88
590,64	1294,32
590,83	1193,97
591,02	1312,75
591,22	1255,40
591,41	1308,65
591,60	1308,65
591,80	1306,60
591,99	1265,64
592,18	1290,22
592,38	1230,83
592,57	1249,26
592,76	1308,65
592,96	1290,22
593,15	1279,98
593,34	1261,55
593,54	1294,32
593,73	1279,98
593,92	1255,40
594,12	1273,84
594,31	1228,78
594,50	1329,13
594,70	1306,60
594,89	1241,07
595,08	1277,93
595,28	1331,18
595,47	1239,02
595,66	1259,50
595,86	1298,41
596,05	1304,56
596,24	1228,78
596,43	1259,50
596,63	1357,80
596,82	1204,21
597,01	1236,97
597,21	1296,36
597,40	1376,24
597,59	1284,08
597,79	1290,22
597,98	1239,02
598,17	1290,22
598,36	1255,40
598,56	1257,45
598,75	1212,40
598,94	1265,64
599,14	1245,16
599,33	1245,16
599,52	1337,32
599,71	1296,36
599,91	1310,70
600,10	1202,16
600,29	1257,45
600,48	1316,84
600,68	1267,69
600,87	1259,50
601,06	1271,79
601,26	1279,98
601,45	1343,47
601,64	1210,35
601,83	1253,36
602,03	1335,28
602,22	1243,12
602,41	1284,08
602,60	1245,16
602,80	1261,55
602,99	1273,84
603,18	1193,97
603,37	1253,36
603,57	1267,69
603,76	1329,13
603,95	1269,74
604,14	1290,22
604,34	1173,49
604,53	1261,55
604,72	1363,95
604,91	1259,50
605,10	1310,70
605,30	1282,03
605,49	1245,16
605,68	1247,21
605,87	1257,45
606,07	1134,57
606,26	1234,93
606,45	1257,45
606,64	1261,55
606,84	1275,88
607,03	1282,03
607,22	1267,69
607,41	1243,12
607,60	1296,36
607,80	1339,37
607,99	1265,64
608,18	1255,40
608,37	1249,26
608,56	1239,02
608,76	1253,36
608,95	1279,98
609,14	1331,18
609,33	1279,98
609,52	1228,78
609,72	1216,49
609,91	1329,13
610,10	1277,93
610,29	1279,98
610,48	1304,56
610,68	1290,22
610,87	1224,69
611,06	1273,84
611,25	1290,22
611,44	1286,12
611,63	1224,69
611,83	1216,49
612,02	1210,35
612,21	1316,84
612,40	1251,31
612,59	1316,84
612,79	1279,98
612,98	1335,28
613,17	1331,18
613,36	1298,41
613,55	1269,74
613,74	1191,92
613,93	1286,12
614,13	1333,23
614,32	1282,03
614,51	1331,18
614,70	1300,46
614,89	1279,98
615,08	1253,36
615,28	1322,99
615,47	1322,99
615,66	1253,36
615,85	1230,83
616,04	1306,60
616,23	1279,98
616,42	1314,80
616,62	1302,51
616,81	1255,40
617,00	1259,50
617,19	1279,98
617,38	1179,63
617,57	1226,73
617,76	1243,12
617,95	1177,58
618,15	1335,28
618,34	1282,03
618,53	1263,60
618,72	1241,07
618,91	1329,13
619,10	1265,64
619,29	1210,35
619,48	1255,40
619,68	1286,12
619,87	1310,70
620,06	1302,51
620,25	1296,36
620,44	1290,22
620,63	1193,97
620,82	1282,03
621,01	1327,08
621,20	1284,08
621,39	1304,56
621,59	1290,22
621,78	1273,84
621,97	1288,17
622,16	1327,08
622,35	1308,65
622,54	1247,21
622,73	1241,07
622,92	1279,98
623,11	1277,93
623,30	1306,60
623,49	1263,60
623,68	1247,21
623,88	1314,80
624,07	1271,79
624,26	1277,93
624,45	1216,49
624,64	1249,26
624,83	1222,64
625,02	1187,82
625,21	1316,84
625,40	1236,97
625,59	1277,93
625,78	1308,65
625,97	1282,03
626,16	1269,74
626,35	1251,31
626,54	1241,07
626,74	1310,70
626,93	1331,18
627,12	1290,22
627,31	1257,45
627,50	1302,51
627,69	1239,02
627,88	1351,66
628,07	1247,21
628,26	1347,56
628,45	1343,47
628,64	1329,13
628,83	1292,27
629,02	1300,46
629,21	1302,51
629,40	1232,88
629,59	1300,46
629,78	1222,64
629,97	1273,84
630,16	1277,93
630,35	1277,93
630,54	1296,36
630,73	1351,66
630,92	1279,98
631,11	1322,99
631,30	1359,85
631,49	1382,38
631,68	1458,15
631,87	1798,12
632,06	2148,32
632,25	1839,08
632,44	1966,05
632,63	2207,71
632,82	2639,83
633,01	4210,62
633,20	3690,44
633,39	3444,68
633,58	2547,67
633,77	3092,43
633,96	4343,74
634,15	4960,18
634,34	4360,13
634,53	3399,63
634,72	2752,47
634,91	2363,36
635,10	2131,94
635,29	2023,39
635,48	1935,33
635,67	1955,81
635,86	1804,26
636,05	1572,84
636,24	1519,59
636,43	1390,57
636,62	1361,90
636,81	1398,76
637,00	1363,95
637,19	1386,47
637,38	1390,57
637,57	1316,84
637,76	1271,79
637,95	1460,20
638,14	1363,95
638,33	1335,28
638,52	1290,22
638,71	1333,23
638,89	1357,80
639,08	1263,60
639,27	1249,26
639,46	1316,84
639,65	1318,89
639,84	1288,17
640,03	1310,70
640,22	1366,00
640,41	1318,89
640,60	1284,08
640,79	1370,09
640,98	1273,84
641,17	1261,55
641,36	1212,40
641,55	1267,69
641,74	1202,16
641,92	1318,89
642,11	1251,31
642,30	1267,69
642,49	1263,60
642,68	1333,23
642,87	1298,41
643,06	1232,88
643,25	1271,79
643,44	1296,36
643,63	1210,35
643,82	1304,56
644,00	1335,28
644,19	1251,31
644,38	1282,03
644,57	1290,22
644,76	1282,03
644,95	1296,36
645,14	1349,61
645,33	1282,03
645,52	1304,56
645,71	1255,40
645,89	1243,12
646,08	1216,49
646,27	1314,80
646,46	1345,52
646,65	1277,93
646,84	1269,74
647,03	1161,20
647,22	1243,12
647,40	1265,64
647,59	1253,36
647,78	1279,98
647,97	1312,75
648,16	1226,73
648,35	1259,50
648,54	1282,03
648,73	1318,89
648,91	1247,21
649,10	1271,79
649,29	1294,32
649,48	1241,07
649,67	1220,59
649,86	1302,51
650,05	1232,88
650,23	1327,08
650,42	1279,98
650,61	1308,65
650,80	1200,11
650,99	1271,79
651,18	1259,50
651,36	1249,26
651,55	1153,01
651,74	1273,84
651,93	1265,64
652,12	1286,12
652,31	1288,17
652,49	1216,49
652,68	1218,54
652,87	1234,93
653,06	1263,60
653,25	1316,84
653,44	1318,89
653,62	1230,83
653,81	1361,90
654,00	1302,51
654,19	1265,64
654,38	1286,12
654,56	1206,25
654,75	1267,69
654,94	1241,07
655,13	1286,12
655,32	1198,06
655,51	1279,98
655,69	1265,64
655,88	1284,08
656,07	1277,93
656,26	1298,41
656,45	1304,56
656,63	1206,25
656,82	1241,07
657,01	1316,84
657,20	1234,93
657,38	1335,28
657,57	1327,08
657,76	1198,06
657,95	1273,84
658,14	1228,78
658,32	1259,50
658,51	1202,16
658,70	1294,32
658,89	1351,66
659,08	1294,32
659,26	1269,74
659,45	1304,56
659,64	1247,21
659,83	1191,92
660,01	1269,74
660,20	1277,93
660,39	1198,06
660,58	1236,97
660,76	1200,11
660,95	1228,78
661,14	1228,78
661,33	1263,60
661,51	1232,88
661,70	1214,45
661,89	1275,88
662,08	1290,22
662,26	1290,22
662,45	1294,32
662,64	1220,59
662,83	1322,99
663,01	1269,74
663,20	1257,45
663,39	1257,45
663,58	1224,69
663,76	1210,35
663,95	1290,22
664,14	1263,60
664,32	1259,50
664,51	1327,08
664,70	1286,12
664,89	1220,59
665,07	1320,94
665,26	1298,41
665,45	1224,69
665,64	1290,22
665,82	1198,06
666,01	1308,65
666,20	1198,06
666,38	1273,84
666,57	1286,12
666,76	1296,36
666,95	1341,42
667,13	1249,26
667,32	1208,30
667,51	1298,41
667,69	1247,21
667,88	1234,93
668,07	1241,07
668,25	1232,88
668,44	1302,51
668,63	1343,47
668,81	1339,37
669,00	1292,27
669,19	1318,89
669,38	1265,64
669,56	1230,83
669,75	1249,26
669,94	1247,21
670,12	1318,89
670,31	1208,30
670,50	1249,26
670,68	1265,64
670,87	1267,69
671,06	1292,27
671,24	1261,55
671,43	1296,36
671,62	1331,18
671,80	1245,16
671,99	1374,19
672,18	1257,45
672,36	1314,80
672,55	1243,12
672,74	1243,12
672,92	1196,01
673,11	1241,07
673,29	1312,75
673,48	1290,22
673,67	1261,55
673,85	1271,79
674,04	1279,98
674,23	1220,59
674,41	1243,12
674,60	1241,07
674,79	1312,75
674,97	1257,45
675,16	1306,60
675,34	1249,26
675,53	1255,40
675,72	1255,40
675,90	1282,03
676,09	1284,08
676,28	1294,32
676,46	1302,51
676,65	1310,70
676,83	1310,70
677,02	1298,41
677,21	1282,03
677,39	1273,84
677,58	1253,36
677,77	1261,55
677,95	1296,36
678,14	1273,84
678,32	1306,60
678,51	1257,45
678,70	1316,84
678,88	1263,60
679,07	1228,78
679,25	1279,98
679,44	1167,34
679,63	1230,83
679,81	1273,84
680,00	1222,64
680,18	1239,02
680,37	1298,41
680,55	1292,27
680,74	1255,40
680,93	1363,95
681,11	1286,12
681,30	1327,08
681,48	1292,27
681,67	1298,41
681,85	1251,31
682,04	1253,36
682,23	1222,64
682,41	1253,36
682,60	1267,69
682,78	1306,60
682,97	1228,78
683,15	1314,80
683,34	1265,64
683,53	1241,07
683,71	1196,01
683,90	1222,64
684,08	1210,35
684,27	1200,11
684,45	1284,08
684,64	1255,40
684,82	1288,17
685,01	1347,56
685,19	1316,84
685,38	1282,03
685,57	1290,22
685,75	1298,41
685,94	1261,55
686,12	1232,88
686,31	1284,08
686,49	1277,93
686,68	1239,02
686,86	1249,26
687,05	1243,12
687,23	1273,84
687,42	1275,88
687,60	1230,83
687,79	1329,13
687,97	1314,80
688,16	1247,21
688,34	1312,75
688,53	1241,07
688,71	1245,16
688,90	1300,46
689,08	1329,13
689,27	1273,84
689,45	1269,74
689,64	1282,03
689,82	1294,32
690,01	1298,41
690,19	1265,64
690,38	1380,33
690,56	1241,07
690,75	1290,22
690,93	1245,16
691,12	1234,93
691,30	1335,28
691,49	1241,07
691,67	1279,98
691,86	1306,60
692,04	1230,83
692,23	1271,79
692,41	1265,64
692,60	1255,40
692,78	1273,84
692,97	1236,97
693,15	1320,94
693,34	1318,89
693,52	1320,94
693,71	1279,98
693,89	1349,61
694,08	1284,08
694,26	1232,88
694,44	1271,79
694,63	1241,07
694,81	1298,41
695,00	1265,64
695,18	1339,37
695,37	1279,98
695,55	1257,45
695,74	1294,32
695,92	1269,74
696,10	1273,84
696,29	1308,65
696,47	1306,60
696,66	1218,54
696,84	1265,64
697,03	1239,02
697,21	1275,88
697,40	1298,41
697,58	1275,88
697,76	1314,80
697,95	1208,30
698,13	1230,83
698,32	1288,17
698,50	1269,74
698,68	1200,11
698,87	1298,41
699,05	1279,98
699,24	1255,40
699,42	1247,21
699,61	1282,03
699,79	1261,55
699,97	1308,65
700,16	1234,93
700,34	1224,69
700,53	1279,98
700,71	1275,88
700,89	1208,30
701,08	1267,69
701,26	1263,60
701,45	1357,80
701,63	1255,40
701,81	1218,54
702,00	1214,45
702,18	1298,41
702,37	1275,88
702,55	1261,55
702,73	1232,88
702,92	1302,51
703,10	1286,12
703,28	1286,12
703,47	1361,90
703,65	1288,17
703,84	1292,27
704,02	1316,84
704,20	1306,60
704,39	1273,84
704,57	1286,12
704,75	1249,26
704,94	1249,26
705,12	1265,64
705,30	1284,08
705,49	1290,22
705,67	1273,84
705,86	1292,27
706,04	1282,03
706,22	1290,22
706,41	1327,08
706,59	1263,60
706,77	1216,49
706,96	1331,18
707,14	1290,22
707,32	1296,36
707,51	1351,66
707,69	1325,04
707,87	1259,50
708,06	1249,26
708,24	1339,37
708,42	1294,32
708,61	1298,41
708,79	1220,59
708,97	1282,03
709,16	1243,12
709,34	1232,88
709,52	1228,78
709,71	1284,08
709,89	1290,22
710,07	1241,07
710,26	1247,21
710,44	1300,46
710,62	1253,36
710,80	1296,36
710,99	1286,12
711,17	1300,46
711,35	1202,16
711,54	1220,59
711,72	1239,02
711,90	1322,99
712,09	1318,89
712,27	1345,52
712,45	1247,21
712,63	1232,88
712,82	1288,17
713,00	1333,23
713,18	1220,59
713,37	1288,17
713,55	1212,40
713,73	1331,18
713,91	1222,64
714,10	1265,64
714,28	1275,88
714,46	1193,97
714,65	1335,28
714,83	1247,21
715,01	1267,69
715,19	1388,52
715,38	1265,64
715,56	1294,32
715,74	1279,98
715,92	1286,12
716,11	1220,59
716,29	1282,03
716,47	1282,03
716,65	1329,13
716,84	1325,04
717,02	1259,50
717,20	1288,17
717,38	1343,47
717,57	1257,45
717,75	1292,27
717,93	1372,14
718,11	1265,64
718,30	1341,42
718,48	1206,25
718,66	1218,54
718,84	1304,56
719,03	1265,64
719,21	1290,22
719,39	1236,97
719,57	1263,60
719,75	1325,04
719,94	1322,99
720,12	1241,07
720,30	1253,36
720,48	1243,12
720,67	1316,84
720,85	1196,01
721,03	1243,12
721,21	1212,40
721,39	1277,93
721,58	1275,88
721,76	1335,28
721,94	1230,83
722,12	1312,75
722,30	1269,74
722,49	1312,75
722,67	1288,17
722,85	1304,56
723,03	1275,88
723,21	1214,45
723,40	1214,45
723,58	1314,80
723,76	1302,51
723,94	1249,26
724,12	1284,08
724,30	1298,41
724,49	1316,84
724,67	1267,69
724,85	1218,54
725,03	1257,45
725,21	1265,64
725,40	1282,03
725,58	1271,79
725,76	1333,23
725,94	1200,11
726,12	1314,80
726,30	1327,08
726,49	1247,21
726,67	1222,64
726,85	1343,47
727,03	1269,74
727,21	1243,12
727,39	1308,65
727,57	1275,88
727,76	1204,21
727,94	1275,88
728,12	1267,69
728,30	1236,97
728,48	1294,32
728,66	1290,22
728,84	1269,74
729,03	1314,80
729,21	1245,16
729,39	1368,04
729,57	1239,02
729,75	1304,56
729,93	1265,64
730,11	1286,12
730,30	1271,79
730,48	1279,98
730,66	1257,45
730,84	1279,98
731,02	1310,70
731,20	1216,49
731,38	1175,53
731,56	1290,22
731,74	1327,08
731,93	1236,97
732,11	1279,98
732,29	1224,69
732,47	1210,35
732,65	1224,69
732,83	1253,36
733,01	1279,98
733,19	1282,03
733,37	1208,30
733,56	1284,08
733,74	1322,99
733,92	1222,64
734,10	1279,98
734,28	1220,59
734,46	1304,56
734,64	1206,25
734,82	1298,41
735,00	1241,07
735,18	1322,99
735,36	1265,64
735,54	1241,07
735,73	1247,21
735,91	1226,73
736,09	1228,78
736,27	1284,08
736,45	1245,16
736,63	1288,17
736,81	1300,46
736,99	1310,70
737,17	1302,51
737,35	1271,79
737,53	1259,50
737,71	1228,78
737,89	1245,16
738,07	1222,64
738,25	1224,69
738,43	1271,79
738,61	1304,56
738,80	1269,74
738,98	1312,75
739,16	1263,60
739,34	1255,40
739,52	1251,31
739,70	1327,08
739,88	1263,60
740,06	1206,25
740,24	1290,22
740,42	1275,88
740,60	1284,08
740,78	1208,30
740,96	1271,79
741,14	1288,17
741,32	1306,60
741,50	1302,51
741,68	1279,98
741,86	1247,21
742,04	1267,69
742,22	1232,88
742,40	1243,12
742,58	1265,64
742,76	1339,37
742,94	1302,51
743,12	1273,84
743,30	1218,54
743,48	1300,46
743,66	1263,60
743,84	1310,70
744,02	1259,50
744,20	1310,70
744,38	1261,55
744,56	1226,73
744,74	1286,12
744,92	1273,84
745,10	1212,40
745,28	1275,88
745,46	1306,60
745,64	1198,06
745,82	1273,84
746,00	1298,41
746,18	1230,83
746,36	1247,21
746,54	1275,88
746,72	1337,32
746,90	1245,16
747,08	1310,70
747,26	1271,79
747,44	1257,45
747,62	1339,37
747,80	1183,73
747,98	1257,45
748,15	1202,16
748,33	1269,74
748,51	1363,95
748,69	1241,07
748,87	1382,38
749,05	1243,12
749,23	1331,18
749,41	1310,70
749,59	1325,04
749,77	1165,29
749,95	1247,21
750,13	1314,80
750,31	1271,79
750,49	1228,78
750,67	1279,98
750,85	1370,09
751,03	1251,31
751,20	1212,40
751,38	1351,66
751,56	1253,36
751,74	1259,50
751,92	1273,84
752,10	1241,07
752,28	1251,31
752,46	1304,56
752,64	1296,36
752,82	1273,84
753,00	1263,60
753,18	1288,17
753,35	1245,16
753,53	1277,93
753,71	1216,49
753,89	1282,03
754,07	1284,08
754,25	1218,54
754,43	1310,70
754,61	1269,74
754,79	1267,69
754,97	1310,70
755,14	1232,88
755,32	1269,74
755,50	1349,61
755,68	1261,55
755,86	1265,64
756,04	1277,93
756,22	1191,92
756,40	1298,41
756,57	1261,55
756,75	1312,75
756,93	1271,79
757,11	1183,73
757,29	1251,31
757,47	1257,45
757,65	1232,88
757,82	1226,73
758,00	1232,88
758,18	1257,45
758,36	1218,54
758,54	1275,88
758,72	1222,64
758,90	1247,21
759,07	1198,06
759,25	1296,36
759,43	1216,49
759,61	1368,04
759,79	1341,42
759,97	1277,93
760,15	1230,83
760,32	1288,17
760,50	1187,82
760,68	1314,80
760,86	1234,93
761,04	1275,88
761,22	1304,56
761,39	1318,89
761,57	1234,93
761,75	1257,45
761,93	1290,22
762,11	1239,02
762,28	1261,55
762,46	1261,55
762,64	1290,22
762,82	1273,84
763,00	1230,83
763,18	1208,30
763,35	1224,69
763,53	1310,70
763,71	1277,93
763,89	1337,32
764,07	1292,27
764,24	1331,18
764,42	1353,71
764,60	1216,49
764,78	1279,98
764,96	1263,60
765,13	1296,36
765,31	1284,08
765,49	1288,17
765,67	1353,71
765,84	1249,26
766,02	1282,03
766,20	1210,35
766,38	1286,12
766,56	1329,13
766,73	1259,50
766,91	1247,21
767,09	1263,60
767,27	1347,56
767,44	1271,79
767,62	1241,07
767,80	1325,04
767,98	1251,31
768,15	1314,80
768,33	1286,12
768,51	1271,79
768,69	1228,78
768,87	1282,03
769,04	1234,93
769,22	1298,41
769,40	1187,82
769,58	1329,13
769,75	1234,93
769,93	1251,31
770,11	1265,64
770,28	1271,79
770,46	1341,42
770,64	1279,98
770,82	1304,56
770,99	1288,17
771,17	1214,45
771,35	1322,99
771,53	1200,11
771,70	1212,40
771,88	1243,12
772,06	1222,64
772,23	1286,12
772,41	1279,98
772,59	1312,75
772,77	1267,69
772,94	1273,84
773,12	1234,93
773,30	1249,26
773,47	1273,84
773,65	1155,05
773,83	1279,98
774,01	1261,55
774,18	1304,56
774,36	1236,97
774,54	1273,84
774,71	1265,64
774,89	1298,41
775,07	1271,79
775,24	1251,31
775,42	1286,12
775,60	1341,42
775,78	1292,27
775,95	1245,16
776,13	1208,30
776,31	1294,32
776,48	1271,79
776,66	1322,99
776,84	1314,80
777,01	1345,52
777,19	1214,45
777,37	1251,31
777,54	1292,27
777,72	1265,64
777,90	1353,71
778,07	1247,21
778,25	1290,22
778,43	1304,56
778,60	1306,60
778,78	1292,27
778,96	1310,70
779,13	1271,79
779,31	1251,31
779,49	1253,36
779,66	1322,99
779,84	1273,84
780,01	1271,79
780,19	1282,03
780,37	1185,77
780,54	1269,74
780,72	1310,70
780,90	1253,36
781,07	1288,17
781,25	1288,17
781,43	1290,22
781,60	1251,31
781,78	1177,58
781,95	1165,29
782,13	1255,40
782,31	1294,32
782,48	1251,31
782,66	1259,50
782,83	1226,73
783,01	1265,64
783,19	1173,49
783,36	1236,97
783,54	1296,36
783,72	1228,78
783,89	1282,03
784,07	1222,64
784,24	1247,21
784,42	1239,02
784,60	1247,21
784,77	1284,08
784,95	1267,69
785,12	1284,08
785,30	1277,93
785,47	1255,40
785,65	1218,54
785,83	1271,79
786,00	1318,89
786,18	1345,52
786,35	1214,45
786,53	1298,41
786,71	1245,16
786,88	1257,45
787,06	1284,08
787,23	1292,27
787,41	1234,93
787,58	1265,64
787,76	1282,03
787,94	1265,64
788,11	1306,60
788,29	1224,69
788,46	1236,97
788,64	1216,49
788,81	1247,21
788,99	1279,98
789,16	1249,26
789,34	1284,08
789,52	1255,40
789,69	1208,30
789,87	1304,56
790,04	1236,97
790,22	1241,07
790,39	1292,27
790,57	1286,12
790,74	1320,94
790,92	1335,28
791,09	1230,83
791,27	1290,22
791,44	1296,36
791,62	1259,50
791,79	1251,31
791,97	1204,21
792,15	1273,84
792,32	1267,69
792,50	1247,21
792,67	1202,16
792,85	1277,93
793,02	1251,31
793,20	1239,02
793,37	1306,60
793,55	1288,17
793,72	1234,93
793,90	1263,60
794,07	1212,40
794,25	1290,22
794,42	1226,73
794,60	1306,60
794,77	1218,54
794,95	1290,22
795,12	1196,01
795,30	1275,88
795,47	1298,41
795,65	1286,12
795,82	1249,26
796,00	1228,78
796,17	1249,26
796,34	1239,02
796,52	1275,88
796,69	1331,18
796,87	1257,45
797,04	1241,07
797,22	1247,21
797,39	1257,45
797,57	1288,17
797,74	1255,40
797,92	1261,55
798,09	1327,08
798,27	1259,50
798,44	1267,69
798,62	1273,84
798,79	1279,98
798,96	1212,40
799,14	1198,06
799,31	1312,75
799,49	1261,55
799,66	1247,21
799,84	1306,60
800,01	1304,56
800,19	1224,69
800,36	1273,84
800,53	1247,21
800,71	1236,97
800,88	1325,04
801,06	1288,17
801,23	1314,80
801,41	1277,93
801,58	1218,54
801,75	1269,74
801,93	1245,16
802,10	1273,84
802,28	1304,56
802,45	1300,46
802,63	1290,22
802,80	1316,84
802,97	1239,02
803,15	1290,22
803,32	1224,69
803,50	1257,45
803,67	1212,40
803,84	1331,18
804,02	1210,35
804,19	1236,97
804,37	1263,60
804,54	1269,74
804,71	1347,56
804,89	1234,93
805,06	1200,11
805,24	1212,40
805,41	1304,56
805,58	1269,74
805,76	1271,79
805,93	1308,65
806,10	1353,71
806,28	1271,79
806,45	1226,73
806,63	1282,03
806,80	1214,45
806,97	1277,93
807,15	1271,79
807,32	1286,12
807,49	1273,84
807,67	1298,41
807,84	1304,56
808,01	1308,65
808,19	1269,74
808,36	1265,64
808,54	1210,35
808,71	1282,03
808,88	1331,18
809,06	1341,42
809,23	1224,69
809,40	1284,08
809,58	1294,32
809,75	1222,64
809,92	1275,88
810,10	1298,41
810,27	1163,25
810,44	1267,69
810,62	1341,42
810,79	1318,89
810,96	1275,88
811,14	1241,07
811,31	1179,63
811,48	1357,80
811,66	1331,18
811,83	1267,69
812,00	1241,07
812,18	1234,93
812,35	1341,42
812,52	1234,93
812,69	1259,50
812,87	1322,99
813,04	1279,98
813,21	1216,49
813,39	1279,98
813,56	1273,84
813,73	1290,22
813,91	1310,70
814,08	1286,12
814,25	1290,22
814,42	1196,01
814,60	1226,73
814,77	1318,89
814,94	1226,73
815,12	1171,44
815,29	1318,89
815,46	1288,17
815,63	1241,07
815,81	1327,08
815,98	1230,83
816,15	1335,28
816,33	1218,54
816,50	1275,88
816,67	1282,03
816,84	1282,03
817,02	1241,07
817,19	1241,07
817,36	1333,23
817,53	1286,12
817,71	1310,70
817,88	1322,99
818,05	1216,49
818,22	1298,41
818,40	1320,94
818,57	1261,55
818,74	1228,78
818,91	1273,84
819,09	1261,55
819,26	1230,83
819,43	1267,69
819,60	1206,25
819,78	1290,22
819,95	1312,75
820,12	1267,69
820,29	1282,03
820,47	1282,03
820,64	1249,26
820,81	1224,69
820,98	1241,07
821,15	1224,69
821,33	1261,55
821,50	1277,93
821,67	1220,59
821,84	1243,12
822,02	1325,04
822,19	1259,50
822,36	1277,93
822,53	1261,55
822,70	1284,08
822,88	1265,64
823,05	1232,88
823,22	1286,12
823,39	1327,08
823,56	1265,64
823,74	1288,17
823,91	1265,64
824,08	1282,03
824,25	1200,11
824,42	1247,21
824,60	1224,69
824,77	1249,26
824,94	1230,83
825,11	1226,73
825,28	1312,75
825,45	1236,97
825,63	1282,03
825,80	1241,07
825,97	1212,40
826,14	1269,74
826,31	1296,36
826,48	1279,98
826,66	1251,31
826,83	1300,46
827,00	1294,32
827,17	1271,79
827,34	1341,42
827,51	1312,75
827,69	1308,65
827,86	1271,79
828,03	1212,40
828,20	1277,93
828,37	1304,56
828,54	1267,69
828,71	1275,88
828,89	1306,60
829,06	1241,07
829,23	1236,97
829,40	1265,64
829,57	1298,41
829,74	1279,98
829,91	1304,56
830,09	1253,36
830,26	1267,69
830,43	1269,74
830,60	1234,93
830,77	1300,46
830,94	1320,94
831,11	1288,17
831,28	1249,26
831,46	1257,45
831,63	1333,23
831,80	1302,51
831,97	1322,99
832,14	1261,55
832,31	1265,64
832,48	1198,06
832,65	1310,70
832,82	1290,22
832,99	1212,40
833,17	1275,88
833,34	1243,12
833,51	1314,80
833,68	1245,16
833,85	1226,73
834,02	1288,17
834,19	1247,21
834,36	1329,13
834,53	1222,64
834,70	1232,88
834,87	1257,45
835,04	1269,74
835,22	1290,22
835,39	1284,08
835,56	1271,79
835,73	1241,07
835,90	1263,60
836,07	1216,49
836,24	1302,51
836,41	1277,93
836,58	1322,99
836,75	1224,69
836,92	1294,32
837,09	1257,45
837,26	1232,88
837,43	1220,59
837,60	1214,45
837,77	1329,13
837,94	1251,31
838,12	1259,50
838,29	1232,88
838,46	1298,41
838,63	1232,88
838,80	1306,60
838,97	1314,80
839,14	1257,45
839,31	1290,22
839,48	1310,70
839,65	1296,36
839,82	1255,40
839,99	1275,88
840,16	1363,95
840,33	1259,50
840,50	1226,73
840,67	1271,79
840,84	1208,30
841,01	1349,61
841,18	1277,93
841,35	1282,03
841,52	1286,12
841,69	1214,45
841,86	1288,17
842,03	1322,99
842,20	1302,51
842,37	1249,26
842,54	1212,40
842,71	1298,41
842,88	1251,31
843,05	1245,16
843,22	1277,93
843,39	1325,04
843,56	1267,69
843,73	1294,32
843,90	1312,75
844,07	1294,32
844,24	1282,03
844,41	1263,60
844,58	1296,36
844,75	1236,97
844,92	1294,32
845,09	1300,46
845,26	1187,82
845,43	1294,32
845,60	1275,88
845,77	1249,26
845,94	1310,70
846,10	1230,83
846,27	1312,75
846,44	1290,22
846,61	1279,98
846,78	1290,22
846,95	1273,84
847,12	1257,45
847,29	1314,80
847,46	1239,02
847,63	1247,21
847,80	1284,08
847,97	1177,58
848,14	1288,17
848,31	1257,45
848,48	1243,12
848,65	1224,69
848,82	1310,70
848,98	1282,03
849,15	1267,69
849,32	1275,88
849,49	1239,02
849,66	1241,07
849,83	1271,79
850,00	1220,59
850,17	1279,98
850,34	1294,32
850,51	1322,99
850,68	1265,64
850,85	1261,55
851,01	1249,26
851,18	1232,88
851,35	1220,59
851,52	1288,17
851,69	1292,27
851,86	1224,69
852,03	1288,17
852,20	1277,93
852,37	1239,02
852,53	1241,07
852,70	1236,97
852,87	1310,70
853,04	1284,08
853,21	1290,22
853,38	1279,98
853,55	1236,97
853,72	1267,69
853,89	1310,70
854,05	1306,60
854,22	1245,16
854,39	1271,79
854,56	1259,50
854,73	1327,08
854,90	1308,65
855,07	1249,26
855,23	1239,02
855,40	1230,83
855,57	1267,69
855,74	1290,22
855,91	1333,23
856,08	1314,80
856,25	1376,24
856,41	1300,46
856,58	1322,99
856,75	1265,64
856,92	1236,97
857,09	1255,40
857,26	1341,42
857,42	1288,17
857,59	1290,22
857,76	1284,08
857,93	1239,02
858,10	1232,88
858,27	1302,51
858,43	1234,93
858,60	1275,88
858,77	1306,60
858,94	1294,32
859,11	1249,26
859,27	1198,06
859,44	1282,03
859,61	1257,45
859,78	1325,04
859,95	1351,66
860,12	1277,93
860,28	1232,88
860,45	1232,88
860,62	1200,11
860,79	1290,22
860,95	1257,45
861,12	1185,77
861,29	1277,93
861,46	1284,08
861,63	1249,26
861,79	1218,54
861,96	1337,32
862,13	1257,45
862,30	1312,75
862,47	1257,45
862,63	1279,98
862,80	1269,74
862,97	1294,32
863,14	1366,00
863,30	1228,78
863,47	1290,22
863,64	1243,12
863,81	1322,99
863,97	1267,69
864,14	1245,16
864,31	1267,69
864,48	1263,60
864,65	1265,64
864,81	1239,02
864,98	1343,47
865,15	1271,79
865,32	1282,03
865,48	1249,26
865,65	1316,84
865,82	1312,75
865,98	1239,02
866,15	1318,89
866,32	1220,59
866,49	1214,45
866,65	1267,69
866,82	1255,40
866,99	1286,12
867,16	1271,79
867,32	1331,18
867,49	1296,36
867,66	1251,31
867,83	1265,64
867,99	1298,41
868,16	1341,42
868,33	1341,42
868,49	1232,88
868,66	1257,45
868,83	1349,61
868,99	1286,12
869,16	1212,40
869,33	1228,78
869,50	1314,80
869,66	1251,31
869,83	1259,50
870,00	1275,88
870,16	1300,46
870,33	1220,59
870,50	1249,26
870,66	1275,88
870,83	1300,46
871,00	1306,60
871,17	1261,55
871,33	1261,55
871,50	1189,87
871,67	1271,79
871,83	1259,50
872,00	1284,08
872,17	1368,04
872,33	1247,21
872,50	1239,02
872,67	1210,35
872,83	1265,64
873,00	1218,54
873,17	1255,40
873,33	1222,64
873,50	1290,22
873,67	1239,02
873,83	1282,03
874,00	1259,50
874,16	1263,60
874,33	1298,41
874,50	1216,49
874,66	1245,16
874,83	1298,41
875,00	1335,28
875,16	1236,97
875,33	1277,93
875,50	1296,36
875,66	1243,12
875,83	1245,16
875,99	1255,40
876,16	1239,02
876,33	1316,84
876,49	1257,45
876,66	1236,97
876,83	1279,98
876,99	1294,32
877,16	1273,84
877,32	1267,69
877,49	1282,03
877,66	1347,56
877,82	1241,07
877,99	1296,36
878,15	1243,12
878,32	1224,69
878,49	1290,22
878,65	1312,75
878,82	1245,16
878,98	1298,41
879,15	1247,21
879,32	1245,16
879,48	1331,18
879,65	1322,99
879,81	1267,69
879,98	1339,37
880,15	1304,56
880,31	1288,17
880,48	1247,21
880,64	1257,45
880,81	1261,55
880,97	1271,79
881,14	1253,36
881,31	1335,28
881,47	1234,93
881,64	1255,40
881,80	1222,64
881,97	1284,08
882,13	1333,23
882,30	1275,88
882,47	1345,52
882,63	1284,08
882,80	1333,23
882,96	1279,98
883,13	1191,92
883,29	1224,69
883,46	1210,35
883,62	1255,40
883,79	1306,60
883,95	1277,93
884,12	1279,98
884,29	1296,36
884,45	1343,47
884,62	1306,60
884,78	1282,03
884,95	1224,69
885,11	1331,18
885,28	1316,84
885,44	1331,18
885,61	1249,26
885,77	1253,36
885,94	1279,98
886,10	1255,40
886,27	1228,78
886,43	1296,36
886,60	1214,45
886,76	1294,32
886,93	1290,22
887,09	1249,26
887,26	1294,32
887,42	1306,60
887,59	1271,79
887,75	1255,40
887,92	1228,78
888,08	1300,46
888,25	1261,55
888,41	1273,84
888,58	1316,84
888,74	1298,41
888,91	1232,88
>>>>>End Processed Spectral Data<<<<<
