SpectraSuite Data File
++++++++++++++++++++++++++++++++++++
Date: Sun Apr 03 19:28:04 CEST 2016
User: root
Dark Spectrum Present: No
Reference Spectrum Present: No
Number of Sampled Component Spectra: 1
Spectrometers: USB4C02835
Integration Time (usec): 10000 (USB4C02835)
Spectra Averaged: 1 (USB4C02835)
Boxcar Smoothing: 0 (USB4C02835)
Correct for Electrical Dark: No (USB4C02835)
Strobe/Lamp Enabled: No (USB4C02835)
Correct for Detector Non-linearity: No (USB4C02835)
Correct for Stray Light: No (USB4C02835)
Number of Pixels in Processed Spectrum: 3648
>>>>>Begin Processed Spectral Data<<<<<
177,47	1279,98
177,69	1279,98
177,91	1279,98
178,13	1249,26
178,36	1157,10
178,58	1308,65
178,80	1302,51
179,02	1302,51
179,24	1234,93
179,46	1292,27
179,68	1279,98
179,90	1224,69
180,13	1292,27
180,35	1282,03
180,57	1234,93
180,79	1318,89
181,01	1314,80
181,23	1271,79
181,45	1275,88
181,67	1150,96
181,90	1273,84
182,12	1282,03
182,34	1296,36
182,56	1273,84
182,78	1220,59
183,00	1224,69
183,22	1314,80
183,44	1255,40
183,66	1288,17
183,89	1298,41
184,11	1173,49
184,33	1290,22
184,55	1245,16
184,77	1271,79
184,99	1320,94
185,21	1290,22
185,43	1327,08
185,65	1304,56
185,87	1282,03
186,10	1275,88
186,32	1284,08
186,54	1263,60
186,76	1271,79
186,98	1294,32
187,20	1236,97
187,42	1304,56
187,64	1290,22
187,86	1241,07
188,08	1249,26
188,30	1312,75
188,52	1277,93
188,75	1269,74
188,97	1198,06
189,19	1247,21
189,41	1218,54
189,63	1290,22
189,85	1273,84
190,07	1208,30
190,29	1308,65
190,51	1216,49
190,73	1337,32
190,95	1212,40
191,17	1302,51
191,39	1282,03
191,61	1329,13
191,84	1200,11
192,06	1220,59
192,28	1271,79
192,50	1304,56
192,72	1249,26
192,94	1265,64
193,16	1316,84
193,38	1232,88
193,60	1253,36
193,82	1306,60
194,04	1193,97
194,26	1320,94
194,48	1347,56
194,70	1253,36
194,92	1290,22
195,14	1257,45
195,36	1296,36
195,58	1282,03
195,80	1318,89
196,02	1359,85
196,24	1243,12
196,46	1224,69
196,69	1329,13
196,91	1298,41
197,13	1259,50
197,35	1226,73
197,57	1296,36
197,79	1288,17
198,01	1263,60
198,23	1288,17
198,45	1234,93
198,67	1220,59
198,89	1265,64
199,11	1282,03
199,33	1296,36
199,55	1288,17
199,77	1230,83
199,99	1335,28
200,21	1306,60
200,43	1279,98
200,65	1210,35
200,87	1277,93
201,09	1253,36
201,31	1308,65
201,53	1257,45
201,75	1279,98
201,97	1275,88
202,19	1245,16
202,41	1249,26
202,63	1339,37
202,85	1263,60
203,07	1259,50
203,29	1298,41
203,51	1257,45
203,73	1292,27
203,95	1284,08
204,17	1269,74
204,39	1284,08
204,61	1245,16
204,83	1226,73
205,05	1271,79
205,27	1310,70
205,49	1267,69
205,71	1279,98
205,93	1261,55
206,15	1294,32
206,37	1265,64
206,59	1284,08
206,81	1214,45
207,03	1302,51
207,25	1337,32
207,47	1224,69
207,69	1269,74
207,91	1216,49
208,13	1320,94
208,34	1284,08
208,56	1275,88
208,78	1216,49
209,00	1310,70
209,22	1249,26
209,44	1232,88
209,66	1331,18
209,88	1288,17
210,10	1234,93
210,32	1308,65
210,54	1312,75
210,76	1224,69
210,98	1306,60
211,20	1249,26
211,42	1230,83
211,64	1230,83
211,86	1304,56
212,08	1236,97
212,30	1177,58
212,52	1265,64
212,74	1253,36
212,96	1206,25
213,17	1296,36
213,39	1263,60
213,61	1331,18
213,83	1241,07
214,05	1212,40
214,27	1275,88
214,49	1224,69
214,71	1243,12
214,93	1263,60
215,15	1320,94
215,37	1275,88
215,59	1265,64
215,81	1294,32
216,03	1314,80
216,24	1298,41
216,46	1312,75
216,68	1296,36
216,90	1249,26
217,12	1269,74
217,34	1279,98
217,56	1302,51
217,78	1222,64
218,00	1253,36
218,22	1198,06
218,44	1249,26
218,66	1253,36
218,87	1265,64
219,09	1316,84
219,31	1243,12
219,53	1245,16
219,75	1366,00
219,97	1306,60
220,19	1255,40
220,41	1216,49
220,63	1296,36
220,85	1261,55
221,06	1253,36
221,28	1298,41
221,50	1216,49
221,72	1331,18
221,94	1275,88
222,16	1222,64
222,38	1210,35
222,60	1247,21
222,82	1288,17
223,03	1282,03
223,25	1245,16
223,47	1316,84
223,69	1275,88
223,91	1290,22
224,13	1298,41
224,35	1269,74
224,57	1296,36
224,78	1267,69
225,00	1279,98
225,22	1296,36
225,44	1298,41
225,66	1279,98
225,88	1263,60
226,10	1265,64
226,32	1261,55
226,53	1267,69
226,75	1327,08
226,97	1247,21
227,19	1247,21
227,41	1290,22
227,63	1202,16
227,85	1185,77
228,06	1261,55
228,28	1273,84
228,50	1308,65
228,72	1300,46
228,94	1249,26
229,16	1300,46
229,37	1267,69
229,59	1245,16
229,81	1288,17
230,03	1255,40
230,25	1265,64
230,47	1275,88
230,69	1212,40
230,90	1284,08
231,12	1228,78
231,34	1267,69
231,56	1312,75
231,78	1187,82
232,00	1288,17
232,21	1155,05
232,43	1267,69
232,65	1247,21
232,87	1243,12
233,09	1196,01
233,30	1298,41
233,52	1210,35
233,74	1322,99
233,96	1245,16
234,18	1232,88
234,40	1304,56
234,61	1279,98
234,83	1255,40
235,05	1204,21
235,27	1265,64
235,49	1271,79
235,70	1290,22
235,92	1261,55
236,14	1212,40
236,36	1298,41
236,58	1302,51
236,79	1212,40
237,01	1296,36
237,23	1277,93
237,45	1302,51
237,67	1263,60
237,88	1232,88
238,10	1304,56
238,32	1259,50
238,54	1277,93
238,76	1296,36
238,97	1241,07
239,19	1212,40
239,41	1363,95
239,63	1247,21
239,85	1208,30
240,06	1243,12
240,28	1251,31
240,50	1253,36
240,72	1284,08
240,93	1300,46
241,15	1294,32
241,37	1228,78
241,59	1226,73
241,81	1302,51
242,02	1255,40
242,24	1232,88
242,46	1320,94
242,68	1279,98
242,89	1200,11
243,11	1212,40
243,33	1255,40
243,55	1284,08
243,76	1316,84
243,98	1261,55
244,20	1247,21
244,42	1292,27
244,64	1261,55
244,85	1374,19
245,07	1222,64
245,29	1263,60
245,51	1243,12
245,72	1314,80
245,94	1267,69
246,16	1298,41
246,38	1247,21
246,59	1284,08
246,81	1198,06
247,03	1255,40
247,24	1249,26
247,46	1204,21
247,68	1345,52
247,90	1230,83
248,11	1294,32
248,33	1208,30
248,55	1333,23
248,77	1247,21
248,98	1325,04
249,20	1298,41
249,42	1286,12
249,64	1271,79
249,85	1273,84
250,07	1243,12
250,29	1347,56
250,50	1257,45
250,72	1265,64
250,94	1261,55
251,16	1257,45
251,37	1318,89
251,59	1277,93
251,81	1247,21
252,02	1261,55
252,24	1314,80
252,46	1372,14
252,68	1224,69
252,89	1255,40
253,11	1275,88
253,33	1353,71
253,54	1290,22
253,76	1265,64
253,98	1269,74
254,20	1224,69
254,41	1234,93
254,63	1361,90
254,85	1177,58
255,06	1282,03
255,28	1273,84
255,50	1302,51
255,71	1325,04
255,93	1273,84
256,15	1249,26
256,36	1290,22
256,58	1245,16
256,80	1273,84
257,02	1202,16
257,23	1230,83
257,45	1312,75
257,67	1241,07
257,88	1300,46
258,10	1327,08
258,32	1294,32
258,53	1277,93
258,75	1271,79
258,97	1308,65
259,18	1290,22
259,40	1249,26
259,62	1247,21
259,83	1284,08
260,05	1310,70
260,27	1322,99
260,48	1253,36
260,70	1196,01
260,92	1230,83
261,13	1261,55
261,35	1241,07
261,57	1310,70
261,78	1249,26
262,00	1325,04
262,22	1236,97
262,43	1251,31
262,65	1292,27
262,86	1265,64
263,08	1249,26
263,30	1286,12
263,51	1267,69
263,73	1210,35
263,95	1296,36
264,16	1251,31
264,38	1249,26
264,60	1308,65
264,81	1263,60
265,03	1239,02
265,25	1253,36
265,46	1327,08
265,68	1320,94
265,89	1325,04
266,11	1224,69
266,33	1265,64
266,54	1267,69
266,76	1275,88
266,98	1314,80
267,19	1247,21
267,41	1251,31
267,62	1226,73
267,84	1187,82
268,06	1226,73
268,27	1320,94
268,49	1206,25
268,70	1204,21
268,92	1216,49
269,14	1314,80
269,35	1269,74
269,57	1236,97
269,79	1277,93
270,00	1298,41
270,22	1271,79
270,43	1261,55
270,65	1214,45
270,87	1282,03
271,08	1277,93
271,30	1267,69
271,51	1294,32
271,73	1320,94
271,95	1222,64
272,16	1232,88
272,38	1302,51
272,59	1271,79
272,81	1222,64
273,02	1255,40
273,24	1279,98
273,46	1286,12
273,67	1294,32
273,89	1296,36
274,10	1261,55
274,32	1288,17
274,54	1210,35
274,75	1224,69
274,97	1314,80
275,18	1241,07
275,40	1253,36
275,61	1310,70
275,83	1304,56
276,05	1284,08
276,26	1329,13
276,48	1230,83
276,69	1275,88
276,91	1216,49
277,12	1263,60
277,34	1302,51
277,55	1241,07
277,77	1261,55
277,99	1271,79
278,20	1234,93
278,42	1257,45
278,63	1255,40
278,85	1243,12
279,06	1224,69
279,28	1282,03
279,49	1273,84
279,71	1271,79
279,93	1185,77
280,14	1320,94
280,36	1277,93
280,57	1216,49
280,79	1220,59
281,00	1232,88
281,22	1273,84
281,43	1251,31
281,65	1232,88
281,86	1263,60
282,08	1251,31
282,29	1265,64
282,51	1320,94
282,73	1263,60
282,94	1349,61
283,16	1298,41
283,37	1239,02
283,59	1296,36
283,80	1247,21
284,02	1273,84
284,23	1308,65
284,45	1273,84
284,66	1279,98
284,88	1263,60
285,09	1251,31
285,31	1243,12
285,52	1265,64
285,74	1282,03
285,95	1341,42
286,17	1226,73
286,38	1218,54
286,60	1275,88
286,81	1263,60
287,03	1226,73
287,24	1253,36
287,46	1230,83
287,67	1288,17
287,89	1263,60
288,10	1212,40
288,32	1304,56
288,53	1341,42
288,75	1222,64
288,96	1245,16
289,18	1259,50
289,39	1259,50
289,61	1257,45
289,82	1241,07
290,04	1228,78
290,25	1265,64
290,47	1337,32
290,68	1273,84
290,90	1306,60
291,11	1187,82
291,33	1318,89
291,54	1300,46
291,76	1337,32
291,97	1273,84
292,18	1269,74
292,40	1290,22
292,61	1275,88
292,83	1269,74
293,04	1300,46
293,26	1234,93
293,47	1261,55
293,69	1212,40
293,90	1230,83
294,12	1314,80
294,33	1294,32
294,55	1288,17
294,76	1247,21
294,97	1228,78
295,19	1279,98
295,40	1308,65
295,62	1216,49
295,83	1290,22
296,05	1296,36
296,26	1290,22
296,48	1275,88
296,69	1279,98
296,90	1241,07
297,12	1286,12
297,33	1269,74
297,55	1253,36
297,76	1193,97
297,98	1234,93
298,19	1292,27
298,41	1218,54
298,62	1220,59
298,83	1290,22
299,05	1241,07
299,26	1216,49
299,48	1230,83
299,69	1318,89
299,90	1273,84
300,12	1208,30
300,33	1259,50
300,55	1249,26
300,76	1241,07
300,98	1247,21
301,19	1282,03
301,40	1298,41
301,62	1206,25
301,83	1327,08
302,05	1298,41
302,26	1253,36
302,47	1257,45
302,69	1230,83
302,90	1279,98
303,12	1251,31
303,33	1308,65
303,54	1273,84
303,76	1271,79
303,97	1214,45
304,19	1279,98
304,40	1279,98
304,61	1208,30
304,83	1253,36
305,04	1282,03
305,26	1314,80
305,47	1302,51
305,68	1218,54
305,90	1298,41
306,11	1288,17
306,33	1261,55
306,54	1298,41
306,75	1271,79
306,97	1269,74
307,18	1302,51
307,39	1220,59
307,61	1288,17
307,82	1290,22
308,04	1273,84
308,25	1232,88
308,46	1273,84
308,68	1189,87
308,89	1320,94
309,10	1290,22
309,32	1306,60
309,53	1271,79
309,74	1239,02
309,96	1275,88
310,17	1306,60
310,39	1292,27
310,60	1282,03
310,81	1263,60
311,03	1243,12
311,24	1265,64
311,45	1292,27
311,67	1234,93
311,88	1247,21
312,09	1249,26
312,31	1286,12
312,52	1306,60
312,73	1236,97
312,95	1236,97
313,16	1259,50
313,37	1269,74
313,59	1286,12
313,80	1263,60
314,01	1335,28
314,23	1198,06
314,44	1263,60
314,65	1273,84
314,87	1204,21
315,08	1232,88
315,29	1347,56
315,51	1245,16
315,72	1296,36
315,93	1318,89
316,15	1308,65
316,36	1296,36
316,57	1277,93
316,79	1257,45
317,00	1275,88
317,21	1249,26
317,43	1273,84
317,64	1257,45
317,85	1247,21
318,07	1271,79
318,28	1263,60
318,49	1257,45
318,70	1349,61
318,92	1279,98
319,13	1226,73
319,34	1265,64
319,56	1218,54
319,77	1320,94
319,98	1282,03
320,20	1265,64
320,41	1245,16
320,62	1269,74
320,83	1189,87
321,05	1277,93
321,26	1294,32
321,47	1228,78
321,69	1216,49
321,90	1232,88
322,11	1275,88
322,32	1325,04
322,54	1322,99
322,75	1245,16
322,96	1271,79
323,18	1251,31
323,39	1288,17
323,60	1273,84
323,81	1308,65
324,03	1245,16
324,24	1214,45
324,45	1212,40
324,66	1279,98
324,88	1255,40
325,09	1273,84
325,30	1265,64
325,52	1253,36
325,73	1269,74
325,94	1320,94
326,15	1247,21
326,37	1302,51
326,58	1259,50
326,79	1325,04
327,00	1224,69
327,22	1300,46
327,43	1306,60
327,64	1222,64
327,85	1230,83
328,07	1247,21
328,28	1277,93
328,49	1245,16
328,70	1273,84
328,92	1314,80
329,13	1232,88
329,34	1322,99
329,55	1243,12
329,76	1316,84
329,98	1183,73
330,19	1298,41
330,40	1294,32
330,61	1261,55
330,83	1294,32
331,04	1265,64
331,25	1279,98
331,46	1249,26
331,68	1210,35
331,89	1341,42
332,10	1288,17
332,31	1294,32
332,52	1208,30
332,74	1232,88
332,95	1284,08
333,16	1198,06
333,37	1290,22
333,58	1263,60
333,80	1271,79
334,01	1183,73
334,22	1304,56
334,43	1247,21
334,64	1288,17
334,86	1232,88
335,07	1282,03
335,28	1267,69
335,49	1257,45
335,70	1298,41
335,92	1269,74
336,13	1292,27
336,34	1247,21
336,55	1232,88
336,76	1263,60
336,98	1261,55
337,19	1292,27
337,40	1294,32
337,61	1226,73
337,82	1222,64
338,04	1306,60
338,25	1331,18
338,46	1245,16
338,67	1249,26
338,88	1263,60
339,09	1220,59
339,31	1241,07
339,52	1216,49
339,73	1286,12
339,94	1255,40
340,15	1204,21
340,36	1290,22
340,58	1271,79
340,79	1273,84
341,00	1341,42
341,21	1308,65
341,42	1292,27
341,63	1286,12
341,85	1257,45
342,06	1304,56
342,27	1263,60
342,48	1200,11
342,69	1212,40
342,90	1224,69
343,12	1316,84
343,33	1329,13
343,54	1296,36
343,75	1253,36
343,96	1228,78
344,17	1294,32
344,38	1275,88
344,60	1234,93
344,81	1224,69
345,02	1261,55
345,23	1253,36
345,44	1245,16
345,65	1216,49
345,86	1286,12
346,07	1261,55
346,29	1239,02
346,50	1282,03
346,71	1320,94
346,92	1308,65
347,13	1245,16
347,34	1277,93
347,55	1296,36
347,76	1302,51
347,98	1320,94
348,19	1204,21
348,40	1290,22
348,61	1257,45
348,82	1318,89
349,03	1333,23
349,24	1187,82
349,45	1331,18
349,66	1265,64
349,88	1306,60
350,09	1288,17
350,30	1214,45
350,51	1255,40
350,72	1271,79
350,93	1210,35
351,14	1273,84
351,35	1339,37
351,56	1325,04
351,77	1214,45
351,99	1333,23
352,20	1355,76
352,41	1327,08
352,62	1265,64
352,83	1263,60
353,04	1232,88
353,25	1308,65
353,46	1185,77
353,67	1249,26
353,88	1200,11
354,09	1271,79
354,30	1234,93
354,52	1286,12
354,73	1273,84
354,94	1249,26
355,15	1239,02
355,36	1304,56
355,57	1271,79
355,78	1312,75
355,99	1261,55
356,20	1263,60
356,41	1279,98
356,62	1261,55
356,83	1273,84
357,04	1279,98
357,25	1269,74
357,46	1290,22
357,68	1296,36
357,89	1269,74
358,10	1302,51
358,31	1245,16
358,52	1306,60
358,73	1290,22
358,94	1298,41
359,15	1245,16
359,36	1314,80
359,57	1275,88
359,78	1339,37
359,99	1222,64
360,20	1296,36
360,41	1206,25
360,62	1310,70
360,83	1263,60
361,04	1320,94
361,25	1177,58
361,46	1271,79
361,67	1267,69
361,88	1214,45
362,09	1253,36
362,30	1288,17
362,51	1304,56
362,72	1277,93
362,93	1327,08
363,14	1288,17
363,35	1263,60
363,56	1302,51
363,78	1296,36
363,99	1247,21
364,20	1288,17
364,41	1314,80
364,62	1265,64
364,83	1308,65
365,04	1290,22
365,25	1351,66
365,46	1312,75
365,67	1304,56
365,88	1296,36
366,09	1185,77
366,30	1298,41
366,51	1210,35
366,72	1304,56
366,93	1224,69
367,14	1210,35
367,35	1308,65
367,56	1257,45
367,77	1294,32
367,98	1255,40
368,18	1271,79
368,39	1239,02
368,60	1228,78
368,81	1216,49
369,02	1306,60
369,23	1284,08
369,44	1333,23
369,65	1269,74
369,86	1282,03
370,07	1275,88
370,28	1196,01
370,49	1255,40
370,70	1247,21
370,91	1259,50
371,12	1253,36
371,33	1267,69
371,54	1275,88
371,75	1243,12
371,96	1282,03
372,17	1259,50
372,38	1310,70
372,59	1177,58
372,80	1273,84
373,01	1273,84
373,22	1228,78
373,43	1284,08
373,64	1232,88
373,85	1216,49
374,06	1320,94
374,26	1255,40
374,47	1236,97
374,68	1230,83
374,89	1298,41
375,10	1366,00
375,31	1265,64
375,52	1218,54
375,73	1306,60
375,94	1320,94
376,15	1300,46
376,36	1282,03
376,57	1318,89
376,78	1273,84
376,99	1179,63
377,20	1241,07
377,40	1269,74
377,61	1275,88
377,82	1243,12
378,03	1257,45
378,24	1286,12
378,45	1234,93
378,66	1343,47
378,87	1286,12
379,08	1261,55
379,29	1249,26
379,50	1253,36
379,71	1214,45
379,91	1222,64
380,12	1230,83
380,33	1273,84
380,54	1239,02
380,75	1253,36
380,96	1269,74
381,17	1388,52
381,38	1267,69
381,59	1306,60
381,80	1245,16
382,00	1329,13
382,21	1273,84
382,42	1232,88
382,63	1325,04
382,84	1222,64
383,05	1284,08
383,26	1191,92
383,47	1208,30
383,68	1279,98
383,88	1310,70
384,09	1271,79
384,30	1241,07
384,51	1208,30
384,72	1279,98
384,93	1273,84
385,14	1282,03
385,35	1329,13
385,55	1331,18
385,76	1257,45
385,97	1191,92
386,18	1282,03
386,39	1255,40
386,60	1261,55
386,81	1286,12
387,02	1222,64
387,22	1271,79
387,43	1292,27
387,64	1318,89
387,85	1247,21
388,06	1259,50
388,27	1286,12
388,48	1298,41
388,68	1353,71
388,89	1265,64
389,10	1355,76
389,31	1257,45
389,52	1214,45
389,73	1224,69
389,93	1267,69
390,14	1302,51
390,35	1318,89
390,56	1241,07
390,77	1320,94
390,98	1234,93
391,18	1243,12
391,39	1249,26
391,60	1185,77
391,81	1417,19
392,02	1236,97
392,23	1370,09
392,43	1267,69
392,64	1316,84
392,85	1282,03
393,06	1236,97
393,27	1263,60
393,47	1284,08
393,68	1222,64
393,89	1236,97
394,10	1265,64
394,31	1220,59
394,52	1230,83
394,72	1308,65
394,93	1316,84
395,14	1253,36
395,35	1239,02
395,56	1273,84
395,76	1247,21
395,97	1314,80
396,18	1302,51
396,39	1275,88
396,60	1249,26
396,80	1263,60
397,01	1304,56
397,22	1257,45
397,43	1249,26
397,64	1308,65
397,84	1292,27
398,05	1284,08
398,26	1345,52
398,47	1288,17
398,67	1249,26
398,88	1265,64
399,09	1236,97
399,30	1224,69
399,51	1343,47
399,71	1232,88
399,92	1214,45
400,13	1298,41
400,34	1333,23
400,54	1288,17
400,75	1265,64
400,96	1273,84
401,17	1239,02
401,37	1243,12
401,58	1316,84
401,79	1273,84
402,00	1273,84
402,21	1271,79
402,41	1204,21
402,62	1300,46
402,83	1228,78
403,04	1296,36
403,24	1310,70
403,45	1241,07
403,66	1206,25
403,87	1247,21
404,07	1292,27
404,28	1247,21
404,49	1245,16
404,70	1308,65
404,90	1380,33
405,11	1257,45
405,32	1304,56
405,52	1241,07
405,73	1232,88
405,94	1294,32
406,15	1239,02
406,35	1290,22
406,56	1327,08
406,77	1243,12
406,98	1298,41
407,18	1282,03
407,39	1265,64
407,60	1241,07
407,80	1257,45
408,01	1306,60
408,22	1294,32
408,43	1275,88
408,63	1322,99
408,84	1224,69
409,05	1228,78
409,25	1331,18
409,46	1290,22
409,67	1251,31
409,88	1282,03
410,08	1247,21
410,29	1273,84
410,50	1275,88
410,70	1228,78
410,91	1239,02
411,12	1257,45
411,32	1292,27
411,53	1282,03
411,74	1282,03
411,95	1304,56
412,15	1327,08
412,36	1257,45
412,57	1271,79
412,77	1236,97
412,98	1245,16
413,19	1247,21
413,39	1257,45
413,60	1269,74
413,81	1220,59
414,01	1277,93
414,22	1236,97
414,43	1218,54
414,63	1255,40
414,84	1239,02
415,05	1243,12
415,25	1251,31
415,46	1271,79
415,67	1243,12
415,87	1193,97
416,08	1290,22
416,29	1232,88
416,49	1224,69
416,70	1249,26
416,91	1343,47
417,11	1286,12
417,32	1294,32
417,53	1202,16
417,73	1298,41
417,94	1214,45
418,15	1296,36
418,35	1298,41
418,56	1298,41
418,77	1269,74
418,97	1294,32
419,18	1288,17
419,38	1255,40
419,59	1206,25
419,80	1298,41
420,00	1214,45
420,21	1312,75
420,42	1265,64
420,62	1347,56
420,83	1269,74
421,04	1249,26
421,24	1232,88
421,45	1300,46
421,65	1282,03
421,86	1284,08
422,07	1239,02
422,27	1239,02
422,48	1325,04
422,69	1236,97
422,89	1259,50
423,10	1255,40
423,30	1196,01
423,51	1177,58
423,72	1239,02
423,92	1294,32
424,13	1269,74
424,33	1249,26
424,54	1275,88
424,75	1263,60
424,95	1189,87
425,16	1193,97
425,36	1316,84
425,57	1261,55
425,78	1263,60
425,98	1177,58
426,19	1312,75
426,39	1310,70
426,60	1335,28
426,81	1243,12
427,01	1286,12
427,22	1288,17
427,42	1236,97
427,63	1392,62
427,83	1290,22
428,04	1263,60
428,25	1327,08
428,45	1230,83
428,66	1271,79
428,86	1290,22
429,07	1294,32
429,28	1232,88
429,48	1265,64
429,69	1218,54
429,89	1261,55
430,10	1263,60
430,30	1247,21
430,51	1247,21
430,71	1261,55
430,92	1298,41
431,13	1241,07
431,33	1220,59
431,54	1257,45
431,74	1214,45
431,95	1333,23
432,15	1306,60
432,36	1294,32
432,56	1279,98
432,77	1241,07
432,98	1241,07
433,18	1255,40
433,39	1224,69
433,59	1249,26
433,80	1286,12
434,00	1271,79
434,21	1257,45
434,41	1282,03
434,62	1273,84
434,82	1257,45
435,03	1286,12
435,23	1271,79
435,44	1224,69
435,64	1220,59
435,85	1345,52
436,06	1271,79
436,26	1298,41
436,47	1308,65
436,67	1282,03
436,88	1163,25
437,08	1226,73
437,29	1316,84
437,49	1335,28
437,70	1236,97
437,90	1196,01
438,11	1241,07
438,31	1263,60
438,52	1267,69
438,72	1249,26
438,93	1284,08
439,13	1257,45
439,34	1275,88
439,54	1222,64
439,75	1230,83
439,95	1232,88
440,16	1239,02
440,36	1277,93
440,57	1300,46
440,77	1267,69
440,98	1329,13
441,18	1239,02
441,39	1200,11
441,59	1316,84
441,80	1267,69
442,00	1249,26
442,21	1220,59
442,41	1249,26
442,62	1267,69
442,82	1204,21
443,02	1269,74
443,23	1282,03
443,43	1275,88
443,64	1320,94
443,84	1331,18
444,05	1267,69
444,25	1267,69
444,46	1294,32
444,66	1279,98
444,87	1310,70
445,07	1261,55
445,28	1251,31
445,48	1294,32
445,69	1247,21
445,89	1331,18
446,09	1304,56
446,30	1302,51
446,50	1228,78
446,71	1234,93
446,91	1232,88
447,12	1228,78
447,32	1322,99
447,53	1236,97
447,73	1255,40
447,93	1296,36
448,14	1224,69
448,34	1269,74
448,55	1271,79
448,75	1273,84
448,96	1355,76
449,16	1200,11
449,36	1234,93
449,57	1282,03
449,77	1228,78
449,98	1257,45
450,18	1247,21
450,39	1241,07
450,59	1333,23
450,79	1265,64
451,00	1253,36
451,20	1251,31
451,41	1196,01
451,61	1163,25
451,81	1279,98
452,02	1263,60
452,22	1290,22
452,43	1259,50
452,63	1302,51
452,84	1249,26
453,04	1288,17
453,24	1249,26
453,45	1259,50
453,65	1275,88
453,86	1257,45
454,06	1218,54
454,26	1269,74
454,47	1308,65
454,67	1210,35
454,87	1206,25
455,08	1288,17
455,28	1255,40
455,49	1277,93
455,69	1261,55
455,89	1292,27
456,10	1206,25
456,30	1236,97
456,51	1261,55
456,71	1388,52
456,91	1232,88
457,12	1298,41
457,32	1308,65
457,52	1312,75
457,73	1308,65
457,93	1353,71
458,14	1318,89
458,34	1245,16
458,54	1185,77
458,75	1247,21
458,95	1286,12
459,15	1290,22
459,36	1261,55
459,56	1265,64
459,76	1269,74
459,97	1249,26
460,17	1312,75
460,37	1214,45
460,58	1300,46
460,78	1247,21
460,99	1236,97
461,19	1333,23
461,39	1239,02
461,60	1288,17
461,80	1247,21
462,00	1236,97
462,21	1249,26
462,41	1239,02
462,61	1239,02
462,82	1251,31
463,02	1271,79
463,22	1261,55
463,43	1298,41
463,63	1286,12
463,83	1322,99
464,04	1271,79
464,24	1294,32
464,44	1316,84
464,64	1196,01
464,85	1282,03
465,05	1265,64
465,25	1208,30
465,46	1206,25
465,66	1279,98
465,86	1241,07
466,07	1236,97
466,27	1304,56
466,47	1267,69
466,68	1265,64
466,88	1247,21
467,08	1322,99
467,29	1261,55
467,49	1267,69
467,69	1267,69
467,89	1310,70
468,10	1292,27
468,30	1253,36
468,50	1339,37
468,71	1335,28
468,91	1308,65
469,11	1253,36
469,31	1304,56
469,52	1191,92
469,72	1363,95
469,92	1296,36
470,13	1271,79
470,33	1275,88
470,53	1247,21
470,73	1300,46
470,94	1241,07
471,14	1306,60
471,34	1273,84
471,54	1302,51
471,75	1325,04
471,95	1304,56
472,15	1314,80
472,36	1298,41
472,56	1292,27
472,76	1241,07
472,96	1290,22
473,17	1277,93
473,37	1247,21
473,57	1255,40
473,77	1212,40
473,98	1251,31
474,18	1243,12
474,38	1261,55
474,58	1288,17
474,79	1243,12
474,99	1257,45
475,19	1269,74
475,39	1273,84
475,60	1243,12
475,80	1312,75
476,00	1290,22
476,20	1220,59
476,41	1196,01
476,61	1241,07
476,81	1294,32
477,01	1286,12
477,21	1288,17
477,42	1294,32
477,62	1261,55
477,82	1300,46
478,02	1284,08
478,23	1208,30
478,43	1236,97
478,63	1284,08
478,83	1277,93
479,03	1296,36
479,24	1267,69
479,44	1181,68
479,64	1236,97
479,84	1187,82
480,04	1302,51
480,25	1279,98
480,45	1331,18
480,65	1286,12
480,85	1337,32
481,06	1322,99
481,26	1253,36
481,46	1296,36
481,66	1376,24
481,86	1265,64
482,06	1249,26
482,27	1247,21
482,47	1224,69
482,67	1271,79
482,87	1218,54
483,07	1187,82
483,28	1245,16
483,48	1273,84
483,68	1282,03
483,88	1294,32
484,08	1302,51
484,29	1230,83
484,49	1202,16
484,69	1279,98
484,89	1232,88
485,09	1310,70
485,29	1310,70
485,50	1183,73
485,70	1249,26
485,90	1279,98
486,10	1245,16
486,30	1331,18
486,50	1273,84
486,71	1228,78
486,91	1275,88
487,11	1200,11
487,31	1273,84
487,51	1318,89
487,71	1255,40
487,91	1189,87
488,12	1204,21
488,32	1249,26
488,52	1222,64
488,72	1329,13
488,92	1341,42
489,12	1296,36
489,32	1249,26
489,53	1300,46
489,73	1286,12
489,93	1263,60
490,13	1220,59
490,33	1263,60
490,53	1302,51
490,73	1320,94
490,94	1279,98
491,14	1265,64
491,34	1271,79
491,54	1241,07
491,74	1253,36
491,94	1296,36
492,14	1322,99
492,34	1251,31
492,54	1253,36
492,75	1232,88
492,95	1210,35
493,15	1232,88
493,35	1312,75
493,55	1253,36
493,75	1320,94
493,95	1308,65
494,15	1226,73
494,35	1279,98
494,56	1255,40
494,76	1273,84
494,96	1171,44
495,16	1290,22
495,36	1306,60
495,56	1251,31
495,76	1335,28
495,96	1298,41
496,16	1265,64
496,36	1253,36
496,56	1249,26
496,77	1275,88
496,97	1259,50
497,17	1288,17
497,37	1236,97
497,57	1279,98
497,77	1314,80
497,97	1261,55
498,17	1253,36
498,37	1271,79
498,57	1310,70
498,77	1204,21
498,97	1314,80
499,17	1243,12
499,38	1249,26
499,58	1288,17
499,78	1331,18
499,98	1302,51
500,18	1224,69
500,38	1286,12
500,58	1318,89
500,78	1288,17
500,98	1257,45
501,18	1296,36
501,38	1292,27
501,58	1234,93
501,78	1218,54
501,98	1288,17
502,18	1277,93
502,38	1255,40
502,58	1273,84
502,78	1312,75
502,98	1279,98
503,18	1306,60
503,38	1198,06
503,59	1294,32
503,79	1302,51
503,99	1253,36
504,19	1273,84
504,39	1314,80
504,59	1286,12
504,79	1187,82
504,99	1210,35
505,19	1218,54
505,39	1269,74
505,59	1189,87
505,79	1331,18
505,99	1228,78
506,19	1208,30
506,39	1284,08
506,59	1208,30
506,79	1155,05
506,99	1306,60
507,19	1265,64
507,39	1245,16
507,59	1304,56
507,79	1239,02
507,99	1286,12
508,19	1247,21
508,39	1253,36
508,59	1230,83
508,79	1290,22
508,99	1261,55
509,19	1308,65
509,39	1277,93
509,59	1273,84
509,79	1241,07
509,99	1265,64
510,19	1314,80
510,39	1304,56
510,59	1275,88
510,79	1296,36
510,99	1269,74
511,19	1220,59
511,39	1380,33
511,59	1220,59
511,79	1265,64
511,99	1329,13
512,19	1298,41
512,38	1224,69
512,58	1249,26
512,78	1282,03
512,98	1290,22
513,18	1302,51
513,38	1196,01
513,58	1259,50
513,78	1322,99
513,98	1288,17
514,18	1234,93
514,38	1224,69
514,58	1169,39
514,78	1271,79
514,98	1218,54
515,18	1251,31
515,38	1253,36
515,58	1247,21
515,78	1282,03
515,98	1230,83
516,18	1284,08
516,38	1290,22
516,57	1224,69
516,77	1312,75
516,97	1343,47
517,17	1290,22
517,37	1316,84
517,57	1284,08
517,77	1288,17
517,97	1228,78
518,17	1294,32
518,37	1304,56
518,57	1220,59
518,77	1247,21
518,97	1306,60
519,16	1269,74
519,36	1267,69
519,56	1214,45
519,76	1333,23
519,96	1282,03
520,16	1204,21
520,36	1343,47
520,56	1236,97
520,76	1189,87
520,96	1269,74
521,16	1286,12
521,35	1294,32
521,55	1236,97
521,75	1322,99
521,95	1263,60
522,15	1249,26
522,35	1247,21
522,55	1290,22
522,75	1241,07
522,95	1255,40
523,14	1288,17
523,34	1185,77
523,54	1312,75
523,74	1257,45
523,94	1245,16
524,14	1292,27
524,34	1339,37
524,54	1318,89
524,73	1214,45
524,93	1294,32
525,13	1316,84
525,33	1255,40
525,53	1284,08
525,73	1241,07
525,93	1236,97
526,13	1253,36
526,32	1230,83
526,52	1243,12
526,72	1267,69
526,92	1265,64
527,12	1234,93
527,32	1245,16
527,52	1214,45
527,71	1288,17
527,91	1216,49
528,11	1322,99
528,31	1239,02
528,51	1277,93
528,71	1335,28
528,90	1267,69
529,10	1304,56
529,30	1253,36
529,50	1320,94
529,70	1230,83
529,90	1304,56
530,09	1277,93
530,29	1312,75
530,49	1185,77
530,69	1277,93
530,89	1290,22
531,09	1310,70
531,28	1243,12
531,48	1273,84
531,68	1314,80
531,88	1282,03
532,08	1277,93
532,28	1251,31
532,47	1277,93
532,67	1282,03
532,87	1214,45
533,07	1183,73
533,27	1282,03
533,46	1335,28
533,66	1269,74
533,86	1232,88
534,06	1267,69
534,26	1257,45
534,45	1294,32
534,65	1277,93
534,85	1296,36
535,05	1208,30
535,25	1265,64
535,44	1306,60
535,64	1296,36
535,84	1263,60
536,04	1269,74
536,24	1306,60
536,43	1245,16
536,63	1271,79
536,83	1234,93
537,03	1261,55
537,22	1218,54
537,42	1255,40
537,62	1239,02
537,82	1234,93
538,02	1341,42
538,21	1277,93
538,41	1243,12
538,61	1271,79
538,81	1185,77
539,00	1230,83
539,20	1296,36
539,40	1290,22
539,60	1292,27
539,79	1314,80
539,99	1204,21
540,19	1269,74
540,39	1232,88
540,58	1206,25
540,78	1302,51
540,98	1243,12
541,18	1249,26
541,37	1345,52
541,57	1273,84
541,77	1282,03
541,97	1279,98
542,16	1304,56
542,36	1282,03
542,56	1261,55
542,76	1277,93
542,95	1247,21
543,15	1236,97
543,35	1212,40
543,54	1224,69
543,74	1296,36
543,94	1259,50
544,14	1241,07
544,33	1279,98
544,53	1210,35
544,73	1273,84
544,93	1318,89
545,12	1255,40
545,32	1300,46
545,52	1259,50
545,71	1302,51
545,91	1245,16
546,11	1298,41
546,30	1271,79
546,50	1255,40
546,70	1255,40
546,90	1275,88
547,09	1263,60
547,29	1208,30
547,49	1216,49
547,68	1290,22
547,88	1282,03
548,08	1261,55
548,27	1249,26
548,47	1228,78
548,67	1269,74
548,87	1273,84
549,06	1224,69
549,26	1292,27
549,46	1286,12
549,65	1286,12
549,85	1296,36
550,05	1282,03
550,24	1228,78
550,44	1294,32
550,64	1308,65
550,83	1261,55
551,03	1239,02
551,23	1265,64
551,42	1271,79
551,62	1275,88
551,82	1288,17
552,01	1179,63
552,21	1251,31
552,41	1279,98
552,60	1366,00
552,80	1294,32
553,00	1230,83
553,19	1290,22
553,39	1171,44
553,59	1310,70
553,78	1300,46
553,98	1298,41
554,17	1284,08
554,37	1296,36
554,57	1271,79
554,76	1306,60
554,96	1290,22
555,16	1306,60
555,35	1263,60
555,55	1288,17
555,75	1345,52
555,94	1329,13
556,14	1298,41
556,33	1275,88
556,53	1261,55
556,73	1333,23
556,92	1220,59
557,12	1245,16
557,32	1245,16
557,51	1325,04
557,71	1271,79
557,90	1269,74
558,10	1279,98
558,30	1288,17
558,49	1275,88
558,69	1294,32
558,88	1288,17
559,08	1294,32
559,28	1298,41
559,47	1247,21
559,67	1234,93
559,86	1249,26
560,06	1236,97
560,26	1214,45
560,45	1216,49
560,65	1212,40
560,84	1304,56
561,04	1228,78
561,24	1273,84
561,43	1216,49
561,63	1267,69
561,82	1275,88
562,02	1210,35
562,22	1279,98
562,41	1202,16
562,61	1277,93
562,80	1232,88
563,00	1312,75
563,19	1296,36
563,39	1298,41
563,59	1198,06
563,78	1247,21
563,98	1251,31
564,17	1204,21
564,37	1216,49
564,56	1327,08
564,76	1218,54
564,96	1265,64
565,15	1290,22
565,35	1286,12
565,54	1263,60
565,74	1255,40
565,93	1271,79
566,13	1292,27
566,32	1200,11
566,52	1249,26
566,71	1284,08
566,91	1286,12
567,11	1200,11
567,30	1282,03
567,50	1249,26
567,69	1206,25
567,89	1253,36
568,08	1273,84
568,28	1290,22
568,47	1282,03
568,67	1357,80
568,86	1265,64
569,06	1204,21
569,25	1230,83
569,45	1214,45
569,64	1296,36
569,84	1198,06
570,04	1232,88
570,23	1304,56
570,43	1230,83
570,62	1310,70
570,82	1191,92
571,01	1212,40
571,21	1288,17
571,40	1214,45
571,60	1345,52
571,79	1253,36
571,99	1271,79
572,18	1259,50
572,38	1271,79
572,57	1298,41
572,77	1314,80
572,96	1255,40
573,16	1179,63
573,35	1271,79
573,55	1273,84
573,74	1351,66
573,94	1322,99
574,13	1163,25
574,33	1222,64
574,52	1259,50
574,71	1296,36
574,91	1216,49
575,10	1259,50
575,30	1265,64
575,49	1257,45
575,69	1320,94
575,88	1296,36
576,08	1228,78
576,27	1277,93
576,47	1279,98
576,66	1318,89
576,86	1300,46
577,05	1298,41
577,25	1212,40
577,44	1343,47
577,64	1296,36
577,83	1292,27
578,02	1261,55
578,22	1296,36
578,41	1314,80
578,61	1243,12
578,80	1269,74
579,00	1253,36
579,19	1284,08
579,39	1236,97
579,58	1243,12
579,77	1314,80
579,97	1259,50
580,16	1275,88
580,36	1273,84
580,55	1347,56
580,75	1245,16
580,94	1257,45
581,13	1335,28
581,33	1339,37
581,52	1343,47
581,72	1198,06
581,91	1263,60
582,11	1271,79
582,30	1320,94
582,49	1216,49
582,69	1253,36
582,88	1202,16
583,08	1325,04
583,27	1314,80
583,47	1198,06
583,66	1286,12
583,85	1318,89
584,05	1265,64
584,24	1261,55
584,44	1292,27
584,63	1222,64
584,82	1177,58
585,02	1331,18
585,21	1228,78
585,41	1234,93
585,60	1239,02
585,79	1236,97
585,99	1273,84
586,18	1302,51
586,37	1257,45
586,57	1259,50
586,76	1265,64
586,96	1290,22
587,15	1345,52
587,34	1259,50
587,54	1341,42
587,73	1198,06
587,93	1187,82
588,12	1261,55
588,31	1304,56
588,51	1290,22
588,70	1288,17
588,89	1267,69
589,09	1329,13
589,28	1298,41
589,47	1249,26
589,67	1210,35
589,86	1239,02
590,06	1271,79
590,25	1322,99
590,44	1214,45
590,64	1255,40
590,83	1269,74
591,02	1226,73
591,22	1282,03
591,41	1226,73
591,60	1314,80
591,80	1271,79
591,99	1249,26
592,18	1294,32
592,38	1288,17
592,57	1304,56
592,76	1257,45
592,96	1269,74
593,15	1249,26
593,34	1298,41
593,54	1247,21
593,73	1245,16
593,92	1269,74
594,12	1271,79
594,31	1236,97
594,50	1255,40
594,70	1261,55
594,89	1239,02
595,08	1265,64
595,28	1255,40
595,47	1228,78
595,66	1239,02
595,86	1230,83
596,05	1249,26
596,24	1241,07
596,43	1298,41
596,63	1210,35
596,82	1304,56
597,01	1279,98
597,21	1189,87
597,40	1220,59
597,59	1277,93
597,79	1314,80
597,98	1202,16
598,17	1314,80
598,36	1335,28
598,56	1232,88
598,75	1292,27
598,94	1224,69
599,14	1239,02
599,33	1232,88
599,52	1230,83
599,71	1263,60
599,91	1267,69
600,10	1247,21
600,29	1335,28
600,48	1331,18
600,68	1298,41
600,87	1265,64
601,06	1255,40
601,26	1292,27
601,45	1302,51
601,64	1196,01
601,83	1294,32
602,03	1277,93
602,22	1312,75
602,41	1284,08
602,60	1294,32
602,80	1296,36
602,99	1290,22
603,18	1302,51
603,37	1275,88
603,57	1251,31
603,76	1239,02
603,95	1337,32
604,14	1292,27
604,34	1234,93
604,53	1220,59
604,72	1277,93
604,91	1271,79
605,10	1257,45
605,30	1251,31
605,49	1294,32
605,68	1331,18
605,87	1275,88
606,07	1257,45
606,26	1232,88
606,45	1302,51
606,64	1226,73
606,84	1292,27
607,03	1247,21
607,22	1216,49
607,41	1286,12
607,60	1261,55
607,80	1269,74
607,99	1292,27
608,18	1282,03
608,37	1275,88
608,56	1232,88
608,76	1282,03
608,95	1216,49
609,14	1255,40
609,33	1236,97
609,52	1265,64
609,72	1282,03
609,91	1327,08
610,10	1271,79
610,29	1322,99
610,48	1275,88
610,68	1288,17
610,87	1271,79
611,06	1202,16
611,25	1349,61
611,44	1271,79
611,63	1249,26
611,83	1263,60
612,02	1253,36
612,21	1294,32
612,40	1263,60
612,59	1232,88
612,79	1322,99
612,98	1232,88
613,17	1331,18
613,36	1218,54
613,55	1308,65
613,74	1191,92
613,93	1306,60
614,13	1239,02
614,32	1241,07
614,51	1261,55
614,70	1316,84
614,89	1322,99
615,08	1275,88
615,28	1318,89
615,47	1220,59
615,66	1236,97
615,85	1210,35
616,04	1286,12
616,23	1294,32
616,42	1249,26
616,62	1271,79
616,81	1288,17
617,00	1294,32
617,19	1234,93
617,38	1263,60
617,57	1304,56
617,76	1290,22
617,95	1167,34
618,15	1269,74
618,34	1257,45
618,53	1243,12
618,72	1312,75
618,91	1218,54
619,10	1247,21
619,29	1273,84
619,48	1255,40
619,68	1255,40
619,87	1206,25
620,06	1304,56
620,25	1259,50
620,44	1286,12
620,63	1294,32
620,82	1312,75
621,01	1259,50
621,20	1236,97
621,39	1298,41
621,59	1275,88
621,78	1306,60
621,97	1288,17
622,16	1269,74
622,35	1261,55
622,54	1269,74
622,73	1302,51
622,92	1193,97
623,11	1290,22
623,30	1279,98
623,49	1187,82
623,68	1329,13
623,88	1245,16
624,07	1357,80
624,26	1267,69
624,45	1275,88
624,64	1263,60
624,83	1349,61
625,02	1202,16
625,21	1296,36
625,40	1316,84
625,59	1306,60
625,78	1320,94
625,97	1282,03
626,16	1300,46
626,35	1359,85
626,54	1171,44
626,74	1292,27
626,93	1294,32
627,12	1249,26
627,31	1363,95
627,50	1255,40
627,69	1318,89
627,88	1263,60
628,07	1277,93
628,26	1273,84
628,45	1210,35
628,64	1263,60
628,83	1341,42
629,02	1239,02
629,21	1294,32
629,40	1312,75
629,59	1239,02
629,78	1241,07
629,97	1316,84
630,16	1294,32
630,35	1204,21
630,54	1296,36
630,73	1310,70
630,92	1325,04
631,11	1349,61
631,30	1402,86
631,49	1409,00
631,68	1918,95
631,87	5287,86
632,06	20907,71
632,25	44123,49
632,44	33244,68
632,63	20573,89
632,82	19621,59
633,01	4919,22
633,20	3074,00
633,39	2621,40
633,58	2363,36
633,77	1951,71
633,96	1877,99
634,15	1863,65
634,34	1699,81
634,53	1689,57
634,72	1638,38
634,91	1550,31
635,10	1529,83
635,29	1499,11
635,48	1589,22
635,67	1480,68
635,86	1421,29
636,05	1431,53
636,24	1347,56
636,43	1411,05
636,62	1466,35
636,81	1361,90
637,00	1392,62
637,19	1370,09
637,38	1345,52
637,57	1331,18
637,76	1372,14
637,95	1394,67
638,14	1337,32
638,33	1331,18
638,52	1312,75
638,71	1239,02
638,89	1232,88
639,08	1275,88
639,27	1294,32
639,46	1236,97
639,65	1228,78
639,84	1296,36
640,03	1265,64
640,22	1259,50
640,41	1312,75
640,60	1320,94
640,79	1273,84
640,98	1230,83
641,17	1275,88
641,36	1273,84
641,55	1222,64
641,74	1279,98
641,92	1255,40
642,11	1210,35
642,30	1337,32
642,49	1267,69
642,68	1333,23
642,87	1239,02
643,06	1282,03
643,25	1343,47
643,44	1279,98
643,63	1292,27
643,82	1325,04
644,00	1249,26
644,19	1208,30
644,38	1286,12
644,57	1296,36
644,76	1312,75
644,95	1230,83
645,14	1273,84
645,33	1265,64
645,52	1249,26
645,71	1267,69
645,89	1306,60
646,08	1277,93
646,27	1304,56
646,46	1335,28
646,65	1241,07
646,84	1261,55
647,03	1218,54
647,22	1228,78
647,40	1198,06
647,59	1269,74
647,78	1247,21
647,97	1198,06
648,16	1284,08
648,35	1257,45
648,54	1259,50
648,73	1267,69
648,91	1265,64
649,10	1337,32
649,29	1306,60
649,48	1216,49
649,67	1267,69
649,86	1273,84
650,05	1277,93
650,23	1224,69
650,42	1294,32
650,61	1253,36
650,80	1196,01
650,99	1247,21
651,18	1343,47
651,36	1255,40
651,55	1296,36
651,74	1349,61
651,93	1271,79
652,12	1239,02
652,31	1271,79
652,49	1216,49
652,68	1232,88
652,87	1331,18
653,06	1296,36
653,25	1300,46
653,44	1304,56
653,62	1284,08
653,81	1290,22
654,00	1255,40
654,19	1251,31
654,38	1277,93
654,56	1282,03
654,75	1247,21
654,94	1253,36
655,13	1277,93
655,32	1265,64
655,51	1282,03
655,69	1236,97
655,88	1273,84
656,07	1333,23
656,26	1298,41
656,45	1239,02
656,63	1288,17
656,82	1286,12
657,01	1273,84
657,20	1218,54
657,38	1216,49
657,57	1253,36
657,76	1288,17
657,95	1253,36
658,14	1255,40
658,32	1214,45
658,51	1234,93
658,70	1212,40
658,89	1322,99
659,08	1200,11
659,26	1263,60
659,45	1302,51
659,64	1306,60
659,83	1282,03
660,01	1269,74
660,20	1255,40
660,39	1331,18
660,58	1257,45
660,76	1259,50
660,95	1261,55
661,14	1290,22
661,33	1261,55
661,51	1265,64
661,70	1198,06
661,89	1239,02
662,08	1308,65
662,26	1239,02
662,45	1282,03
662,64	1228,78
662,83	1298,41
663,01	1232,88
663,20	1296,36
663,39	1228,78
663,58	1339,37
663,76	1308,65
663,95	1308,65
664,14	1247,21
664,32	1277,93
664,51	1236,97
664,70	1247,21
664,89	1273,84
665,07	1241,07
665,26	1253,36
665,45	1279,98
665,64	1296,36
665,82	1296,36
666,01	1316,84
666,20	1243,12
666,38	1296,36
666,57	1304,56
666,76	1216,49
666,95	1275,88
667,13	1224,69
667,32	1241,07
667,51	1212,40
667,69	1263,60
667,88	1210,35
668,07	1282,03
668,25	1296,36
668,44	1224,69
668,63	1267,69
668,81	1288,17
669,00	1308,65
669,19	1275,88
669,38	1239,02
669,56	1300,46
669,75	1294,32
669,94	1298,41
670,12	1241,07
670,31	1226,73
670,50	1228,78
670,68	1241,07
670,87	1216,49
671,06	1261,55
671,24	1222,64
671,43	1331,18
671,62	1296,36
671,80	1230,83
671,99	1286,12
672,18	1261,55
672,36	1271,79
672,55	1239,02
672,74	1329,13
672,92	1236,97
673,11	1286,12
673,29	1325,04
673,48	1363,95
673,67	1265,64
673,85	1271,79
674,04	1335,28
674,23	1304,56
674,41	1251,31
674,60	1189,87
674,79	1282,03
674,97	1247,21
675,16	1275,88
675,34	1257,45
675,53	1206,25
675,72	1292,27
675,90	1259,50
676,09	1239,02
676,28	1239,02
676,46	1290,22
676,65	1257,45
676,83	1224,69
677,02	1279,98
677,21	1183,73
677,39	1265,64
677,58	1308,65
677,77	1296,36
677,95	1257,45
678,14	1292,27
678,32	1257,45
678,51	1282,03
678,70	1230,83
678,88	1271,79
679,07	1294,32
679,25	1234,93
679,44	1204,21
679,63	1302,51
679,81	1265,64
680,00	1204,21
680,18	1243,12
680,37	1277,93
680,55	1236,97
680,74	1306,60
680,93	1257,45
681,11	1355,76
681,30	1288,17
681,48	1304,56
681,67	1337,32
681,85	1318,89
682,04	1325,04
682,23	1236,97
682,41	1247,21
682,60	1234,93
682,78	1298,41
682,97	1261,55
683,15	1286,12
683,34	1210,35
683,53	1249,26
683,71	1294,32
683,90	1265,64
684,08	1247,21
684,27	1257,45
684,45	1228,78
684,64	1212,40
684,82	1320,94
685,01	1312,75
685,19	1200,11
685,38	1277,93
685,57	1251,31
685,75	1257,45
685,94	1304,56
686,12	1267,69
686,31	1265,64
686,49	1224,69
686,68	1290,22
686,86	1288,17
687,05	1206,25
687,23	1335,28
687,42	1255,40
687,60	1241,07
687,79	1318,89
687,97	1239,02
688,16	1259,50
688,34	1224,69
688,53	1230,83
688,71	1312,75
688,90	1234,93
689,08	1306,60
689,27	1236,97
689,45	1198,06
689,64	1216,49
689,82	1290,22
690,01	1304,56
690,19	1251,31
690,38	1206,25
690,56	1288,17
690,75	1251,31
690,93	1271,79
691,12	1187,82
691,30	1320,94
691,49	1288,17
691,67	1196,01
691,86	1314,80
692,04	1222,64
692,23	1286,12
692,41	1230,83
692,60	1322,99
692,78	1341,42
692,97	1302,51
693,15	1236,97
693,34	1245,16
693,52	1216,49
693,71	1267,69
693,89	1282,03
694,08	1290,22
694,26	1306,60
694,44	1214,45
694,63	1255,40
694,81	1308,65
695,00	1333,23
695,18	1183,73
695,37	1214,45
695,55	1318,89
695,74	1304,56
695,92	1273,84
696,10	1220,59
696,29	1273,84
696,47	1236,97
696,66	1267,69
696,84	1306,60
697,03	1241,07
697,21	1282,03
697,40	1327,08
697,58	1286,12
697,76	1314,80
697,95	1279,98
698,13	1353,71
698,32	1265,64
698,50	1271,79
698,68	1308,65
698,87	1208,30
699,05	1273,84
699,24	1234,93
699,42	1298,41
699,61	1204,21
699,79	1296,36
699,97	1292,27
700,16	1247,21
700,34	1259,50
700,53	1232,88
700,71	1306,60
700,89	1150,96
701,08	1243,12
701,26	1257,45
701,45	1310,70
701,63	1191,92
701,81	1249,26
702,00	1255,40
702,18	1333,23
702,37	1271,79
702,55	1255,40
702,73	1247,21
702,92	1296,36
703,10	1279,98
703,28	1232,88
703,47	1296,36
703,65	1284,08
703,84	1234,93
704,02	1212,40
704,20	1292,27
704,39	1290,22
704,57	1214,45
704,75	1273,84
704,94	1300,46
705,12	1191,92
705,30	1322,99
705,49	1286,12
705,67	1249,26
705,86	1253,36
706,04	1222,64
706,22	1290,22
706,41	1308,65
706,59	1277,93
706,77	1296,36
706,96	1247,21
707,14	1290,22
707,32	1314,80
707,51	1214,45
707,69	1234,93
707,87	1314,80
708,06	1292,27
708,24	1316,84
708,42	1251,31
708,61	1290,22
708,79	1183,73
708,97	1257,45
709,16	1277,93
709,34	1218,54
709,52	1269,74
709,71	1239,02
709,89	1347,56
710,07	1306,60
710,26	1183,73
710,44	1290,22
710,62	1241,07
710,80	1277,93
710,99	1243,12
711,17	1314,80
711,35	1155,05
711,54	1265,64
711,72	1277,93
711,90	1253,36
712,09	1312,75
712,27	1214,45
712,45	1257,45
712,63	1288,17
712,82	1294,32
713,00	1259,50
713,18	1284,08
713,37	1173,49
713,55	1320,94
713,73	1263,60
713,91	1171,44
714,10	1247,21
714,28	1320,94
714,46	1247,21
714,65	1243,12
714,83	1290,22
715,01	1308,65
715,19	1257,45
715,38	1345,52
715,56	1273,84
715,74	1222,64
715,92	1245,16
716,11	1308,65
716,29	1224,69
716,47	1247,21
716,65	1294,32
716,84	1261,55
717,02	1286,12
717,20	1253,36
717,38	1314,80
717,57	1216,49
717,75	1273,84
717,93	1277,93
718,11	1220,59
718,30	1275,88
718,48	1200,11
718,66	1267,69
718,84	1296,36
719,03	1206,25
719,21	1286,12
719,39	1275,88
719,57	1290,22
719,75	1310,70
719,94	1228,78
720,12	1243,12
720,30	1267,69
720,48	1247,21
720,67	1259,50
720,85	1228,78
721,03	1327,08
721,21	1261,55
721,39	1279,98
721,58	1232,88
721,76	1312,75
721,94	1251,31
722,12	1302,51
722,30	1210,35
722,49	1290,22
722,67	1357,80
722,85	1236,97
723,03	1288,17
723,21	1337,32
723,40	1345,52
723,58	1345,52
723,76	1253,36
723,94	1275,88
724,12	1216,49
724,30	1198,06
724,49	1318,89
724,67	1279,98
724,85	1263,60
725,03	1294,32
725,21	1275,88
725,40	1333,23
725,58	1359,85
725,76	1198,06
725,94	1224,69
726,12	1355,76
726,30	1282,03
726,49	1298,41
726,67	1177,58
726,85	1208,30
727,03	1267,69
727,21	1259,50
727,39	1279,98
727,57	1247,21
727,76	1241,07
727,94	1232,88
728,12	1228,78
728,30	1284,08
728,48	1212,40
728,66	1288,17
728,84	1312,75
729,03	1265,64
729,21	1271,79
729,39	1312,75
729,57	1286,12
729,75	1208,30
729,93	1257,45
730,11	1288,17
730,30	1177,58
730,48	1286,12
730,66	1210,35
730,84	1302,51
731,02	1310,70
731,20	1222,64
731,38	1241,07
731,56	1314,80
731,74	1275,88
731,93	1304,56
732,11	1294,32
732,29	1243,12
732,47	1239,02
732,65	1302,51
732,83	1245,16
733,01	1271,79
733,19	1265,64
733,37	1198,06
733,56	1257,45
733,74	1304,56
733,92	1312,75
734,10	1380,33
734,28	1241,07
734,46	1214,45
734,64	1230,83
734,82	1271,79
735,00	1259,50
735,18	1255,40
735,36	1243,12
735,54	1263,60
735,73	1273,84
735,91	1245,16
736,09	1247,21
736,27	1298,41
736,45	1275,88
736,63	1275,88
736,81	1247,21
736,99	1245,16
737,17	1290,22
737,35	1314,80
737,53	1282,03
737,71	1292,27
737,89	1298,41
738,07	1286,12
738,25	1230,83
738,43	1253,36
738,61	1263,60
738,80	1222,64
738,98	1208,30
739,16	1273,84
739,34	1214,45
739,52	1273,84
739,70	1259,50
739,88	1329,13
740,06	1322,99
740,24	1273,84
740,42	1298,41
740,60	1304,56
740,78	1294,32
740,96	1361,90
741,14	1288,17
741,32	1296,36
741,50	1251,31
741,68	1224,69
741,86	1236,97
742,04	1279,98
742,22	1327,08
742,40	1228,78
742,58	1249,26
742,76	1261,55
742,94	1236,97
743,12	1251,31
743,30	1310,70
743,48	1261,55
743,66	1265,64
743,84	1310,70
744,02	1234,93
744,20	1245,16
744,38	1277,93
744,56	1363,95
744,74	1269,74
744,92	1265,64
745,10	1251,31
745,28	1341,42
745,46	1216,49
745,64	1261,55
745,82	1269,74
746,00	1245,16
746,18	1243,12
746,36	1261,55
746,54	1196,01
746,72	1230,83
746,90	1200,11
747,08	1325,04
747,26	1228,78
747,44	1284,08
747,62	1282,03
747,80	1185,77
747,98	1325,04
748,15	1269,74
748,33	1286,12
748,51	1204,21
748,69	1212,40
748,87	1322,99
749,05	1255,40
749,23	1282,03
749,41	1304,56
749,59	1267,69
749,77	1236,97
749,95	1331,18
750,13	1304,56
750,31	1290,22
750,49	1243,12
750,67	1220,59
750,85	1277,93
751,03	1259,50
751,20	1228,78
751,38	1265,64
751,56	1191,92
751,74	1239,02
751,92	1366,00
752,10	1236,97
752,28	1263,60
752,46	1316,84
752,64	1271,79
752,82	1214,45
753,00	1279,98
753,18	1277,93
753,35	1279,98
753,53	1277,93
753,71	1228,78
753,89	1216,49
754,07	1298,41
754,25	1308,65
754,43	1253,36
754,61	1265,64
754,79	1224,69
754,97	1288,17
755,14	1257,45
755,32	1306,60
755,50	1226,73
755,68	1320,94
755,86	1269,74
756,04	1249,26
756,22	1224,69
756,40	1284,08
756,57	1273,84
756,75	1255,40
756,93	1269,74
757,11	1329,13
757,29	1224,69
757,47	1318,89
757,65	1230,83
757,82	1271,79
758,00	1247,21
758,18	1245,16
758,36	1202,16
758,54	1337,32
758,72	1318,89
758,90	1269,74
759,07	1234,93
759,25	1232,88
759,43	1275,88
759,61	1259,50
759,79	1241,07
759,97	1279,98
760,15	1265,64
760,32	1298,41
760,50	1263,60
760,68	1255,40
760,86	1224,69
761,04	1282,03
761,22	1322,99
761,39	1228,78
761,57	1230,83
761,75	1228,78
761,93	1284,08
762,11	1208,30
762,28	1241,07
762,46	1292,27
762,64	1314,80
762,82	1226,73
763,00	1208,30
763,18	1257,45
763,35	1267,69
763,53	1284,08
763,71	1216,49
763,89	1249,26
764,07	1204,21
764,24	1308,65
764,42	1255,40
764,60	1353,71
764,78	1267,69
764,96	1228,78
765,13	1226,73
765,31	1206,25
765,49	1253,36
765,67	1210,35
765,84	1333,23
766,02	1277,93
766,20	1239,02
766,38	1255,40
766,56	1294,32
766,73	1308,65
766,91	1253,36
767,09	1243,12
767,27	1230,83
767,44	1247,21
767,62	1282,03
767,80	1269,74
767,98	1341,42
768,15	1337,32
768,33	1318,89
768,51	1236,97
768,69	1239,02
768,87	1292,27
769,04	1335,28
769,22	1337,32
769,40	1226,73
769,58	1277,93
769,75	1259,50
769,93	1198,06
770,11	1245,16
770,28	1279,98
770,46	1296,36
770,64	1273,84
770,82	1265,64
770,99	1284,08
771,17	1275,88
771,35	1261,55
771,53	1220,59
771,70	1310,70
771,88	1241,07
772,06	1298,41
772,23	1275,88
772,41	1259,50
772,59	1265,64
772,77	1302,51
772,94	1310,70
773,12	1257,45
773,30	1232,88
773,47	1236,97
773,65	1265,64
773,83	1302,51
774,01	1247,21
774,18	1220,59
774,36	1335,28
774,54	1267,69
774,71	1329,13
774,89	1222,64
775,07	1232,88
775,24	1243,12
775,42	1257,45
775,60	1337,32
775,78	1343,47
775,95	1298,41
776,13	1279,98
776,31	1300,46
776,48	1255,40
776,66	1226,73
776,84	1320,94
777,01	1257,45
777,19	1224,69
777,37	1353,71
777,54	1236,97
777,72	1255,40
777,90	1302,51
778,07	1255,40
778,25	1226,73
778,43	1288,17
778,60	1218,54
778,78	1310,70
778,96	1249,26
779,13	1257,45
779,31	1232,88
779,49	1196,01
779,66	1275,88
779,84	1251,31
780,01	1290,22
780,19	1232,88
780,37	1218,54
780,54	1232,88
780,72	1232,88
780,90	1279,98
781,07	1269,74
781,25	1349,61
781,43	1267,69
781,60	1234,93
781,78	1294,32
781,95	1239,02
782,13	1251,31
782,31	1267,69
782,48	1261,55
782,66	1353,71
782,83	1196,01
783,01	1286,12
783,19	1279,98
783,36	1306,60
783,54	1243,12
783,72	1279,98
783,89	1255,40
784,07	1214,45
784,24	1275,88
784,42	1243,12
784,60	1290,22
784,77	1304,56
784,95	1265,64
785,12	1253,36
785,30	1361,90
785,47	1228,78
785,65	1288,17
785,83	1241,07
786,00	1214,45
786,18	1355,76
786,35	1234,93
786,53	1265,64
786,71	1327,08
786,88	1273,84
787,06	1318,89
787,23	1335,28
787,41	1290,22
787,58	1290,22
787,76	1196,01
787,94	1273,84
788,11	1318,89
788,29	1241,07
788,46	1322,99
788,64	1282,03
788,81	1249,26
788,99	1251,31
789,16	1308,65
789,34	1253,36
789,52	1314,80
789,69	1228,78
789,87	1261,55
790,04	1236,97
790,22	1277,93
790,39	1255,40
790,57	1257,45
790,74	1302,51
790,92	1251,31
791,09	1320,94
791,27	1253,36
791,44	1212,40
791,62	1320,94
791,79	1261,55
791,97	1200,11
792,15	1306,60
792,32	1288,17
792,50	1308,65
792,67	1273,84
792,85	1267,69
793,02	1179,63
793,20	1261,55
793,37	1206,25
793,55	1286,12
793,72	1220,59
793,90	1251,31
794,07	1316,84
794,25	1232,88
794,42	1230,83
794,60	1292,27
794,77	1302,51
794,95	1265,64
795,12	1257,45
795,30	1288,17
795,47	1220,59
795,65	1236,97
795,82	1232,88
796,00	1263,60
796,17	1294,32
796,34	1204,21
796,52	1316,84
796,69	1245,16
796,87	1241,07
797,04	1216,49
797,22	1243,12
797,39	1228,78
797,57	1202,16
797,74	1261,55
797,92	1198,06
798,09	1292,27
798,27	1245,16
798,44	1306,60
798,62	1316,84
798,79	1263,60
798,96	1292,27
799,14	1271,79
799,31	1224,69
799,49	1304,56
799,66	1198,06
799,84	1222,64
800,01	1251,31
800,19	1284,08
800,36	1236,97
800,53	1251,31
800,71	1265,64
800,88	1255,40
801,06	1230,83
801,23	1288,17
801,41	1267,69
801,58	1245,16
801,75	1298,41
801,93	1273,84
802,10	1247,21
802,28	1249,26
802,45	1226,73
802,63	1310,70
802,80	1298,41
802,97	1239,02
803,15	1214,45
803,32	1271,79
803,50	1200,11
803,67	1236,97
803,84	1265,64
804,02	1327,08
804,19	1257,45
804,37	1193,97
804,54	1249,26
804,71	1292,27
804,89	1236,97
805,06	1191,92
805,24	1243,12
805,41	1247,21
805,58	1218,54
805,76	1222,64
805,93	1259,50
806,10	1263,60
806,28	1230,83
806,45	1263,60
806,63	1255,40
806,80	1322,99
806,97	1288,17
807,15	1222,64
807,32	1247,21
807,49	1288,17
807,67	1249,26
807,84	1322,99
808,01	1318,89
808,19	1304,56
808,36	1286,12
808,54	1269,74
808,71	1282,03
808,88	1279,98
809,06	1310,70
809,23	1218,54
809,40	1200,11
809,58	1183,73
809,75	1314,80
809,92	1279,98
810,10	1267,69
810,27	1286,12
810,44	1185,77
810,62	1335,28
810,79	1224,69
810,96	1290,22
811,14	1249,26
811,31	1230,83
811,48	1318,89
811,66	1288,17
811,83	1253,36
812,00	1249,26
812,18	1173,49
812,35	1288,17
812,52	1228,78
812,69	1308,65
812,87	1271,79
813,04	1234,93
813,21	1300,46
813,39	1290,22
813,56	1335,28
813,73	1265,64
813,91	1269,74
814,08	1296,36
814,25	1271,79
814,42	1189,87
814,60	1245,16
814,77	1275,88
814,94	1302,51
815,12	1218,54
815,29	1286,12
815,46	1230,83
815,63	1273,84
815,81	1200,11
815,98	1241,07
816,15	1247,21
816,33	1279,98
816,50	1261,55
816,67	1284,08
816,84	1310,70
817,02	1286,12
817,19	1224,69
817,36	1208,30
817,53	1175,53
817,71	1359,85
817,88	1265,64
818,05	1245,16
818,22	1222,64
818,40	1261,55
818,57	1265,64
818,74	1269,74
818,91	1325,04
819,09	1261,55
819,26	1224,69
819,43	1275,88
819,60	1292,27
819,78	1249,26
819,95	1269,74
820,12	1273,84
820,29	1249,26
820,47	1273,84
820,64	1249,26
820,81	1292,27
820,98	1292,27
821,15	1251,31
821,33	1265,64
821,50	1277,93
821,67	1265,64
821,84	1290,22
822,02	1316,84
822,19	1288,17
822,36	1243,12
822,53	1245,16
822,70	1236,97
822,88	1202,16
823,05	1271,79
823,22	1284,08
823,39	1290,22
823,56	1296,36
823,74	1206,25
823,91	1228,78
824,08	1306,60
824,25	1273,84
824,42	1292,27
824,60	1298,41
824,77	1228,78
824,94	1277,93
825,11	1298,41
825,28	1251,31
825,45	1247,21
825,63	1259,50
825,80	1275,88
825,97	1257,45
826,14	1312,75
826,31	1277,93
826,48	1279,98
826,66	1214,45
826,83	1288,17
827,00	1255,40
827,17	1279,98
827,34	1220,59
827,51	1286,12
827,69	1243,12
827,86	1284,08
828,03	1236,97
828,20	1275,88
828,37	1243,12
828,54	1282,03
828,71	1273,84
828,89	1236,97
829,06	1318,89
829,23	1263,60
829,40	1259,50
829,57	1279,98
829,74	1257,45
829,91	1239,02
830,09	1331,18
830,26	1273,84
830,43	1273,84
830,60	1234,93
830,77	1325,04
830,94	1245,16
831,11	1236,97
831,28	1222,64
831,46	1282,03
831,63	1216,49
831,80	1218,54
831,97	1232,88
832,14	1298,41
832,31	1271,79
832,48	1325,04
832,65	1290,22
832,82	1304,56
832,99	1228,78
833,17	1228,78
833,34	1296,36
833,51	1284,08
833,68	1363,95
833,85	1247,21
834,02	1247,21
834,19	1230,83
834,36	1271,79
834,53	1251,31
834,70	1261,55
834,87	1187,82
835,04	1247,21
835,22	1239,02
835,39	1181,68
835,56	1284,08
835,73	1234,93
835,90	1275,88
836,07	1273,84
836,24	1255,40
836,41	1269,74
836,58	1220,59
836,75	1239,02
836,92	1288,17
837,09	1273,84
837,26	1304,56
837,43	1316,84
837,60	1286,12
837,77	1292,27
837,94	1239,02
838,12	1355,76
838,29	1273,84
838,46	1273,84
838,63	1286,12
838,80	1273,84
838,97	1279,98
839,14	1292,27
839,31	1312,75
839,48	1316,84
839,65	1259,50
839,82	1302,51
839,99	1191,92
840,16	1179,63
840,33	1259,50
840,50	1253,36
840,67	1216,49
840,84	1282,03
841,01	1302,51
841,18	1339,37
841,35	1275,88
841,52	1322,99
841,69	1290,22
841,86	1292,27
842,03	1312,75
842,20	1292,27
842,37	1259,50
842,54	1228,78
842,71	1204,21
842,88	1298,41
843,05	1249,26
843,22	1218,54
843,39	1230,83
843,56	1314,80
843,73	1267,69
843,90	1249,26
844,07	1179,63
844,24	1282,03
844,41	1267,69
844,58	1236,97
844,75	1282,03
844,92	1257,45
845,09	1251,31
845,26	1261,55
845,43	1255,40
845,60	1277,93
845,77	1214,45
845,94	1306,60
846,10	1208,30
846,27	1273,84
846,44	1261,55
846,61	1249,26
846,78	1183,73
846,95	1290,22
847,12	1298,41
847,29	1339,37
847,46	1236,97
847,63	1261,55
847,80	1282,03
847,97	1282,03
848,14	1234,93
848,31	1284,08
848,48	1269,74
848,65	1314,80
848,82	1247,21
848,98	1339,37
849,15	1302,51
849,32	1198,06
849,49	1232,88
849,66	1275,88
849,83	1263,60
850,00	1181,68
850,17	1314,80
850,34	1220,59
850,51	1294,32
850,68	1269,74
850,85	1198,06
851,01	1331,18
851,18	1298,41
851,35	1236,97
851,52	1257,45
851,69	1353,71
851,86	1282,03
852,03	1263,60
852,20	1263,60
852,37	1251,31
852,53	1302,51
852,70	1273,84
852,87	1224,69
853,04	1331,18
853,21	1288,17
853,38	1329,13
853,55	1277,93
853,72	1269,74
853,89	1292,27
854,05	1269,74
854,22	1257,45
854,39	1320,94
854,56	1261,55
854,73	1249,26
854,90	1239,02
855,07	1269,74
855,23	1327,08
855,40	1230,83
855,57	1279,98
855,74	1255,40
855,91	1277,93
856,08	1230,83
856,25	1298,41
856,41	1259,50
856,58	1257,45
856,75	1296,36
856,92	1212,40
857,09	1263,60
857,26	1320,94
857,42	1308,65
857,59	1279,98
857,76	1298,41
857,93	1220,59
858,10	1253,36
858,27	1204,21
858,43	1322,99
858,60	1245,16
858,77	1241,07
858,94	1232,88
859,11	1302,51
859,27	1257,45
859,44	1212,40
859,61	1347,56
859,78	1271,79
859,95	1298,41
860,12	1306,60
860,28	1243,12
860,45	1263,60
860,62	1222,64
860,79	1286,12
860,95	1263,60
861,12	1290,22
861,29	1241,07
861,46	1306,60
861,63	1269,74
861,79	1200,11
861,96	1275,88
862,13	1282,03
862,30	1308,65
862,47	1288,17
862,63	1304,56
862,80	1257,45
862,97	1322,99
863,14	1236,97
863,30	1314,80
863,47	1300,46
863,64	1239,02
863,81	1200,11
863,97	1316,84
864,14	1269,74
864,31	1310,70
864,48	1314,80
864,65	1220,59
864,81	1327,08
864,98	1239,02
865,15	1329,13
865,32	1337,32
865,48	1298,41
865,65	1290,22
865,82	1273,84
865,98	1259,50
866,15	1228,78
866,32	1292,27
866,49	1284,08
866,65	1327,08
866,82	1222,64
866,99	1286,12
867,16	1224,69
867,32	1249,26
867,49	1269,74
867,66	1337,32
867,83	1341,42
867,99	1206,25
868,16	1290,22
868,33	1263,60
868,49	1230,83
868,66	1255,40
868,83	1267,69
868,99	1253,36
869,16	1265,64
869,33	1263,60
869,50	1333,23
869,66	1234,93
869,83	1306,60
870,00	1173,49
870,16	1298,41
870,33	1255,40
870,50	1253,36
870,66	1290,22
870,83	1216,49
871,00	1292,27
871,17	1255,40
871,33	1292,27
871,50	1296,36
871,67	1255,40
871,83	1263,60
872,00	1312,75
872,17	1261,55
872,33	1271,79
872,50	1249,26
872,67	1302,51
872,83	1331,18
873,00	1232,88
873,17	1314,80
873,33	1249,26
873,50	1306,60
873,67	1224,69
873,83	1208,30
874,00	1234,93
874,16	1253,36
874,33	1277,93
874,50	1394,67
874,66	1253,36
874,83	1232,88
875,00	1222,64
875,16	1296,36
875,33	1230,83
875,50	1220,59
875,66	1302,51
875,83	1322,99
875,99	1228,78
876,16	1370,09
876,33	1259,50
876,49	1243,12
876,66	1263,60
876,83	1202,16
876,99	1259,50
877,16	1284,08
877,32	1279,98
877,49	1226,73
877,66	1306,60
877,82	1271,79
877,99	1249,26
878,15	1263,60
878,32	1259,50
878,49	1320,94
878,65	1220,59
878,82	1335,28
878,98	1222,64
879,15	1288,17
879,32	1263,60
879,48	1247,21
879,65	1306,60
879,81	1296,36
879,98	1255,40
880,15	1243,12
880,31	1234,93
880,48	1224,69
880,64	1204,21
880,81	1241,07
880,97	1265,64
881,14	1310,70
881,31	1226,73
881,47	1302,51
881,64	1296,36
881,80	1218,54
881,97	1210,35
882,13	1304,56
882,30	1261,55
882,47	1214,45
882,63	1247,21
882,80	1282,03
882,96	1263,60
883,13	1255,40
883,29	1282,03
883,46	1265,64
883,62	1206,25
883,79	1296,36
883,95	1255,40
884,12	1322,99
884,29	1306,60
884,45	1228,78
884,62	1294,32
884,78	1226,73
884,95	1216,49
885,11	1306,60
885,28	1249,26
885,44	1253,36
885,61	1249,26
885,77	1255,40
885,94	1279,98
886,10	1263,60
886,27	1290,22
886,43	1304,56
886,60	1277,93
886,76	1290,22
886,93	1282,03
887,09	1263,60
887,26	1241,07
887,42	1304,56
887,59	1243,12
887,75	1292,27
887,92	1216,49
888,08	1239,02
888,25	1196,01
888,41	1204,21
888,58	1304,56
888,74	1224,69
888,91	1275,88
>>>>>End Processed Spectral Data<<<<<
