SpectraSuite Data File
++++++++++++++++++++++++++++++++++++
Date: Sun Apr 03 17:18:34 CEST 2016
User: root
Dark Spectrum Present: No
Reference Spectrum Present: No
Number of Sampled Component Spectra: 1
Spectrometers: USB4C02835
Integration Time (usec): 10000 (USB4C02835)
Spectra Averaged: 1 (USB4C02835)
Boxcar Smoothing: 0 (USB4C02835)
Correct for Electrical Dark: No (USB4C02835)
Strobe/Lamp Enabled: No (USB4C02835)
Correct for Detector Non-linearity: No (USB4C02835)
Correct for Stray Light: No (USB4C02835)
Number of Pixels in Processed Spectrum: 3648
>>>>>Begin Processed Spectral Data<<<<<
177,47	1273,84
177,69	1273,84
177,91	1273,84
178,13	1253,36
178,36	1261,55
178,58	1251,31
178,80	1300,46
179,02	1243,12
179,24	1314,80
179,46	1298,41
179,68	1325,04
179,90	1288,17
180,13	1265,64
180,35	1302,51
180,57	1191,92
180,79	1263,60
181,01	1275,88
181,23	1267,69
181,45	1255,40
181,67	1298,41
181,90	1273,84
182,12	1294,32
182,34	1271,79
182,56	1241,07
182,78	1306,60
183,00	1298,41
183,22	1224,69
183,44	1275,88
183,66	1304,56
183,89	1316,84
184,11	1310,70
184,33	1243,12
184,55	1200,11
184,77	1312,75
184,99	1247,21
185,21	1249,26
185,43	1286,12
185,65	1286,12
185,87	1329,13
186,10	1277,93
186,32	1253,36
186,54	1304,56
186,76	1320,94
186,98	1341,42
187,20	1187,82
187,42	1220,59
187,64	1329,13
187,86	1294,32
188,08	1249,26
188,30	1212,40
188,52	1245,16
188,75	1318,89
188,97	1290,22
189,19	1249,26
189,41	1245,16
189,63	1275,88
189,85	1210,35
190,07	1273,84
190,29	1320,94
190,51	1265,64
190,73	1259,50
190,95	1286,12
191,17	1253,36
191,39	1269,74
191,61	1253,36
191,84	1275,88
192,06	1318,89
192,28	1269,74
192,50	1320,94
192,72	1275,88
192,94	1325,04
193,16	1316,84
193,38	1357,80
193,60	1198,06
193,82	1363,95
194,04	1269,74
194,26	1220,59
194,48	1230,83
194,70	1308,65
194,92	1247,21
195,14	1314,80
195,36	1204,21
195,58	1255,40
195,80	1318,89
196,02	1243,12
196,24	1232,88
196,46	1200,11
196,69	1212,40
196,91	1253,36
197,13	1261,55
197,35	1277,93
197,57	1245,16
197,79	1318,89
198,01	1241,07
198,23	1284,08
198,45	1284,08
198,67	1185,77
198,89	1255,40
199,11	1163,25
199,33	1288,17
199,55	1243,12
199,77	1308,65
199,99	1271,79
200,21	1292,27
200,43	1355,76
200,65	1247,21
200,87	1226,73
201,09	1206,25
201,31	1243,12
201,53	1322,99
201,75	1271,79
201,97	1318,89
202,19	1253,36
202,41	1220,59
202,63	1312,75
202,85	1257,45
203,07	1304,56
203,29	1296,36
203,51	1208,30
203,73	1253,36
203,95	1251,31
204,17	1306,60
204,39	1271,79
204,61	1234,93
204,83	1247,21
205,05	1286,12
205,27	1310,70
205,49	1208,30
205,71	1302,51
205,93	1265,64
206,15	1241,07
206,37	1290,22
206,59	1304,56
206,81	1230,83
207,03	1265,64
207,25	1275,88
207,47	1226,73
207,69	1345,52
207,91	1347,56
208,13	1296,36
208,34	1255,40
208,56	1243,12
208,78	1189,87
209,00	1316,84
209,22	1282,03
209,44	1300,46
209,66	1265,64
209,88	1265,64
210,10	1271,79
210,32	1267,69
210,54	1312,75
210,76	1269,74
210,98	1288,17
211,20	1230,83
211,42	1255,40
211,64	1284,08
211,86	1224,69
212,08	1251,31
212,30	1349,61
212,52	1224,69
212,74	1277,93
212,96	1261,55
213,17	1269,74
213,39	1241,07
213,61	1257,45
213,83	1290,22
214,05	1265,64
214,27	1224,69
214,49	1214,45
214,71	1286,12
214,93	1288,17
215,15	1357,80
215,37	1302,51
215,59	1298,41
215,81	1298,41
216,03	1263,60
216,24	1290,22
216,46	1296,36
216,68	1265,64
216,90	1279,98
217,12	1263,60
217,34	1333,23
217,56	1294,32
217,78	1296,36
218,00	1273,84
218,22	1253,36
218,44	1316,84
218,66	1271,79
218,87	1271,79
219,09	1214,45
219,31	1269,74
219,53	1304,56
219,75	1271,79
219,97	1200,11
220,19	1341,42
220,41	1234,93
220,63	1279,98
220,85	1343,47
221,06	1345,52
221,28	1243,12
221,50	1288,17
221,72	1243,12
221,94	1243,12
222,16	1277,93
222,38	1310,70
222,60	1345,52
222,82	1310,70
223,03	1222,64
223,25	1226,73
223,47	1259,50
223,69	1366,00
223,91	1282,03
224,13	1273,84
224,35	1286,12
224,57	1216,49
224,78	1302,51
225,00	1349,61
225,22	1273,84
225,44	1255,40
225,66	1306,60
225,88	1327,08
226,10	1232,88
226,32	1296,36
226,53	1220,59
226,75	1263,60
226,97	1282,03
227,19	1284,08
227,41	1275,88
227,63	1224,69
227,85	1159,15
228,06	1253,36
228,28	1255,40
228,50	1279,98
228,72	1265,64
228,94	1296,36
229,16	1271,79
229,37	1269,74
229,59	1282,03
229,81	1282,03
230,03	1245,16
230,25	1224,69
230,47	1245,16
230,69	1245,16
230,90	1267,69
231,12	1284,08
231,34	1292,27
231,56	1310,70
231,78	1306,60
232,00	1247,21
232,21	1253,36
232,43	1341,42
232,65	1296,36
232,87	1208,30
233,09	1361,90
233,30	1292,27
233,52	1232,88
233,74	1273,84
233,96	1296,36
234,18	1322,99
234,40	1267,69
234,61	1208,30
234,83	1318,89
235,05	1292,27
235,27	1357,80
235,49	1298,41
235,70	1249,26
235,92	1261,55
236,14	1257,45
236,36	1273,84
236,58	1286,12
236,79	1173,49
237,01	1193,97
237,23	1292,27
237,45	1316,84
237,67	1277,93
237,88	1329,13
238,10	1230,83
238,32	1337,32
238,54	1257,45
238,76	1216,49
238,97	1290,22
239,19	1320,94
239,41	1247,21
239,63	1347,56
239,85	1247,21
240,06	1341,42
240,28	1257,45
240,50	1335,28
240,72	1265,64
240,93	1228,78
241,15	1247,21
241,37	1310,70
241,59	1306,60
241,81	1263,60
242,02	1249,26
242,24	1251,31
242,46	1304,56
242,68	1265,64
242,89	1300,46
243,11	1251,31
243,33	1257,45
243,55	1198,06
243,76	1236,97
243,98	1261,55
244,20	1267,69
244,42	1279,98
244,64	1277,93
244,85	1249,26
245,07	1302,51
245,29	1308,65
245,51	1243,12
245,72	1220,59
245,94	1247,21
246,16	1300,46
246,38	1269,74
246,59	1155,05
246,81	1273,84
247,03	1298,41
247,24	1251,31
247,46	1202,16
247,68	1263,60
247,90	1277,93
248,11	1302,51
248,33	1234,93
248,55	1282,03
248,77	1263,60
248,98	1232,88
249,20	1249,26
249,42	1224,69
249,64	1224,69
249,85	1220,59
250,07	1249,26
250,29	1263,60
250,50	1249,26
250,72	1224,69
250,94	1275,88
251,16	1193,97
251,37	1259,50
251,59	1234,93
251,81	1259,50
252,02	1288,17
252,24	1251,31
252,46	1257,45
252,68	1302,51
252,89	1200,11
253,11	1273,84
253,33	1210,35
253,54	1279,98
253,76	1325,04
253,98	1208,30
254,20	1261,55
254,41	1261,55
254,63	1257,45
254,85	1249,26
255,06	1310,70
255,28	1267,69
255,50	1288,17
255,71	1310,70
255,93	1269,74
256,15	1206,25
256,36	1308,65
256,58	1325,04
256,80	1339,37
257,02	1249,26
257,23	1290,22
257,45	1341,42
257,67	1286,12
257,88	1265,64
258,10	1294,32
258,32	1216,49
258,53	1210,35
258,75	1284,08
258,97	1263,60
259,18	1224,69
259,40	1312,75
259,62	1298,41
259,83	1224,69
260,05	1236,97
260,27	1216,49
260,48	1206,25
260,70	1277,93
260,92	1292,27
261,13	1347,56
261,35	1247,21
261,57	1279,98
261,78	1296,36
262,00	1279,98
262,22	1236,97
262,43	1306,60
262,65	1263,60
262,86	1265,64
263,08	1159,15
263,30	1179,63
263,51	1271,79
263,73	1312,75
263,95	1296,36
264,16	1224,69
264,38	1298,41
264,60	1333,23
264,81	1228,78
265,03	1271,79
265,25	1222,64
265,46	1253,36
265,68	1165,29
265,89	1298,41
266,11	1312,75
266,33	1322,99
266,54	1288,17
266,76	1290,22
266,98	1288,17
267,19	1275,88
267,41	1255,40
267,62	1286,12
267,84	1267,69
268,06	1224,69
268,27	1247,21
268,49	1249,26
268,70	1286,12
268,92	1331,18
269,14	1316,84
269,35	1269,74
269,57	1202,16
269,79	1261,55
270,00	1267,69
270,22	1218,54
270,43	1191,92
270,65	1306,60
270,87	1251,31
271,08	1306,60
271,30	1294,32
271,51	1236,97
271,73	1271,79
271,95	1288,17
272,16	1239,02
272,38	1310,70
272,59	1310,70
272,81	1212,40
273,02	1282,03
273,24	1218,54
273,46	1279,98
273,67	1279,98
273,89	1277,93
274,10	1300,46
274,32	1361,90
274,54	1282,03
274,75	1185,77
274,97	1253,36
275,18	1234,93
275,40	1228,78
275,61	1320,94
275,83	1247,21
276,05	1228,78
276,26	1269,74
276,48	1335,28
276,69	1259,50
276,91	1263,60
277,12	1232,88
277,34	1259,50
277,55	1320,94
277,77	1247,21
277,99	1267,69
278,20	1298,41
278,42	1243,12
278,63	1239,02
278,85	1255,40
279,06	1296,36
279,28	1333,23
279,49	1245,16
279,71	1214,45
279,93	1216,49
280,14	1304,56
280,36	1302,51
280,57	1247,21
280,79	1241,07
281,00	1282,03
281,22	1249,26
281,43	1273,84
281,65	1228,78
281,86	1232,88
282,08	1232,88
282,29	1279,98
282,51	1261,55
282,73	1288,17
282,94	1292,27
283,16	1208,30
283,37	1189,87
283,59	1218,54
283,80	1335,28
284,02	1279,98
284,23	1247,21
284,45	1263,60
284,66	1189,87
284,88	1304,56
285,09	1263,60
285,31	1222,64
285,52	1241,07
285,74	1296,36
285,95	1288,17
286,17	1314,80
286,38	1257,45
286,60	1265,64
286,81	1279,98
287,03	1310,70
287,24	1208,30
287,46	1251,31
287,67	1294,32
287,89	1236,97
288,10	1318,89
288,32	1251,31
288,53	1355,76
288,75	1290,22
288,96	1216,49
289,18	1220,59
289,39	1316,84
289,61	1300,46
289,82	1257,45
290,04	1234,93
290,25	1257,45
290,47	1220,59
290,68	1277,93
290,90	1355,76
291,11	1304,56
291,33	1337,32
291,54	1206,25
291,76	1308,65
291,97	1214,45
292,18	1288,17
292,40	1226,73
292,61	1267,69
292,83	1277,93
293,04	1216,49
293,26	1282,03
293,47	1312,75
293,69	1290,22
293,90	1253,36
294,12	1243,12
294,33	1257,45
294,55	1294,32
294,76	1273,84
294,97	1290,22
295,19	1257,45
295,40	1329,13
295,62	1249,26
295,83	1245,16
296,05	1255,40
296,26	1222,64
296,48	1316,84
296,69	1249,26
296,90	1310,70
297,12	1292,27
297,33	1257,45
297,55	1282,03
297,76	1282,03
297,98	1312,75
298,19	1331,18
298,41	1261,55
298,62	1253,36
298,83	1267,69
299,05	1288,17
299,26	1318,89
299,48	1282,03
299,69	1275,88
299,90	1265,64
300,12	1226,73
300,33	1247,21
300,55	1286,12
300,76	1216,49
300,98	1286,12
301,19	1306,60
301,40	1298,41
301,62	1277,93
301,83	1210,35
302,05	1236,97
302,26	1239,02
302,47	1241,07
302,69	1226,73
302,90	1253,36
303,12	1228,78
303,33	1263,60
303,54	1259,50
303,76	1247,21
303,97	1236,97
304,19	1284,08
304,40	1286,12
304,61	1253,36
304,83	1241,07
305,04	1290,22
305,26	1314,80
305,47	1271,79
305,68	1290,22
305,90	1251,31
306,11	1275,88
306,33	1325,04
306,54	1206,25
306,75	1263,60
306,97	1177,58
307,18	1243,12
307,39	1263,60
307,61	1247,21
307,82	1228,78
308,04	1253,36
308,25	1294,32
308,46	1232,88
308,68	1292,27
308,89	1294,32
309,10	1271,79
309,32	1273,84
309,53	1296,36
309,74	1290,22
309,96	1275,88
310,17	1290,22
310,39	1300,46
310,60	1222,64
310,81	1261,55
311,03	1263,60
311,24	1259,50
311,45	1206,25
311,67	1310,70
311,88	1222,64
312,09	1239,02
312,31	1255,40
312,52	1265,64
312,73	1226,73
312,95	1286,12
313,16	1286,12
313,37	1314,80
313,59	1275,88
313,80	1251,31
314,01	1253,36
314,23	1224,69
314,44	1253,36
314,65	1318,89
314,87	1216,49
315,08	1306,60
315,29	1148,91
315,51	1290,22
315,72	1167,34
315,93	1269,74
316,15	1230,83
316,36	1296,36
316,57	1310,70
316,79	1304,56
317,00	1249,26
317,21	1226,73
317,43	1282,03
317,64	1292,27
317,85	1304,56
318,07	1239,02
318,28	1284,08
318,49	1353,71
318,70	1232,88
318,92	1226,73
319,13	1300,46
319,34	1304,56
319,56	1210,35
319,77	1202,16
319,98	1288,17
320,20	1255,40
320,41	1220,59
320,62	1296,36
320,83	1243,12
321,05	1337,32
321,26	1298,41
321,47	1202,16
321,69	1265,64
321,90	1316,84
322,11	1247,21
322,32	1234,93
322,54	1191,92
322,75	1337,32
322,96	1298,41
323,18	1216,49
323,39	1241,07
323,60	1290,22
323,81	1230,83
324,03	1214,45
324,24	1279,98
324,45	1294,32
324,66	1220,59
324,88	1302,51
325,09	1380,33
325,30	1273,84
325,52	1298,41
325,73	1245,16
325,94	1228,78
326,15	1208,30
326,37	1251,31
326,58	1228,78
326,79	1284,08
327,00	1249,26
327,22	1271,79
327,43	1216,49
327,64	1263,60
327,85	1273,84
328,07	1339,37
328,28	1277,93
328,49	1353,71
328,70	1277,93
328,92	1308,65
329,13	1253,36
329,34	1239,02
329,55	1314,80
329,76	1366,00
329,98	1290,22
330,19	1329,13
330,40	1310,70
330,61	1267,69
330,83	1236,97
331,04	1298,41
331,25	1310,70
331,46	1253,36
331,68	1234,93
331,89	1378,28
332,10	1263,60
332,31	1327,08
332,52	1230,83
332,74	1296,36
332,95	1275,88
333,16	1232,88
333,37	1263,60
333,58	1288,17
333,80	1198,06
334,01	1253,36
334,22	1210,35
334,43	1267,69
334,64	1282,03
334,86	1265,64
335,07	1300,46
335,28	1261,55
335,49	1257,45
335,70	1261,55
335,92	1210,35
336,13	1298,41
336,34	1232,88
336,55	1220,59
336,76	1251,31
336,98	1191,92
337,19	1290,22
337,40	1292,27
337,61	1275,88
337,82	1304,56
338,04	1318,89
338,25	1263,60
338,46	1236,97
338,67	1275,88
338,88	1277,93
339,09	1226,73
339,31	1228,78
339,52	1292,27
339,73	1296,36
339,94	1316,84
340,15	1284,08
340,36	1251,31
340,58	1212,40
340,79	1296,36
341,00	1322,99
341,21	1259,50
341,42	1304,56
341,63	1251,31
341,85	1271,79
342,06	1234,93
342,27	1255,40
342,48	1304,56
342,69	1265,64
342,90	1263,60
343,12	1339,37
343,33	1224,69
343,54	1316,84
343,75	1257,45
343,96	1206,25
344,17	1259,50
344,38	1234,93
344,60	1312,75
344,81	1245,16
345,02	1327,08
345,23	1249,26
345,44	1218,54
345,65	1241,07
345,86	1263,60
346,07	1208,30
346,29	1253,36
346,50	1265,64
346,71	1380,33
346,92	1292,27
347,13	1302,51
347,34	1271,79
347,55	1251,31
347,76	1312,75
347,98	1363,95
348,19	1304,56
348,40	1271,79
348,61	1292,27
348,82	1259,50
349,03	1271,79
349,24	1249,26
349,45	1269,74
349,66	1314,80
349,88	1245,16
350,09	1267,69
350,30	1314,80
350,51	1253,36
350,72	1322,99
350,93	1241,07
351,14	1275,88
351,35	1259,50
351,56	1269,74
351,77	1251,31
351,99	1245,16
352,20	1298,41
352,41	1263,60
352,62	1220,59
352,83	1228,78
353,04	1277,93
353,25	1282,03
353,46	1288,17
353,67	1206,25
353,88	1230,83
354,09	1245,16
354,30	1265,64
354,52	1232,88
354,73	1320,94
354,94	1222,64
355,15	1286,12
355,36	1304,56
355,57	1265,64
355,78	1191,92
355,99	1245,16
356,20	1259,50
356,41	1318,89
356,62	1306,60
356,83	1300,46
357,04	1306,60
357,25	1290,22
357,46	1247,21
357,68	1296,36
357,89	1193,97
358,10	1320,94
358,31	1263,60
358,52	1204,21
358,73	1226,73
358,94	1298,41
359,15	1292,27
359,36	1282,03
359,57	1337,32
359,78	1257,45
359,99	1284,08
360,20	1259,50
360,41	1249,26
360,62	1273,84
360,83	1277,93
361,04	1325,04
361,25	1253,36
361,46	1314,80
361,67	1255,40
361,88	1343,47
362,09	1179,63
362,30	1339,37
362,51	1228,78
362,72	1304,56
362,93	1239,02
363,14	1349,61
363,35	1259,50
363,56	1302,51
363,78	1241,07
363,99	1300,46
364,20	1271,79
364,41	1292,27
364,62	1255,40
364,83	1304,56
365,04	1251,31
365,25	1245,16
365,46	1355,76
365,67	1275,88
365,88	1261,55
366,09	1255,40
366,30	1259,50
366,51	1298,41
366,72	1232,88
366,93	1230,83
367,14	1265,64
367,35	1298,41
367,56	1263,60
367,77	1249,26
367,98	1261,55
368,18	1239,02
368,39	1294,32
368,60	1234,93
368,81	1243,12
369,02	1304,56
369,23	1253,36
369,44	1306,60
369,65	1271,79
369,86	1232,88
370,07	1257,45
370,28	1314,80
370,49	1263,60
370,70	1222,64
370,91	1257,45
371,12	1282,03
371,33	1247,21
371,54	1296,36
371,75	1204,21
371,96	1175,53
372,17	1234,93
372,38	1228,78
372,59	1318,89
372,80	1185,77
373,01	1253,36
373,22	1236,97
373,43	1320,94
373,64	1312,75
373,85	1232,88
374,06	1302,51
374,26	1269,74
374,47	1298,41
374,68	1294,32
374,89	1273,84
375,10	1316,84
375,31	1351,66
375,52	1220,59
375,73	1314,80
375,94	1308,65
376,15	1261,55
376,36	1226,73
376,57	1255,40
376,78	1212,40
376,99	1304,56
377,20	1288,17
377,40	1327,08
377,61	1316,84
377,82	1265,64
378,03	1302,51
378,24	1273,84
378,45	1279,98
378,66	1232,88
378,87	1288,17
379,08	1243,12
379,29	1316,84
379,50	1277,93
379,71	1275,88
379,91	1277,93
380,12	1257,45
380,33	1193,97
380,54	1234,93
380,75	1263,60
380,96	1255,40
381,17	1247,21
381,38	1282,03
381,59	1310,70
381,80	1290,22
382,00	1312,75
382,21	1306,60
382,42	1327,08
382,63	1243,12
382,84	1232,88
383,05	1220,59
383,26	1273,84
383,47	1247,21
383,68	1288,17
383,88	1282,03
384,09	1230,83
384,30	1304,56
384,51	1273,84
384,72	1286,12
384,93	1253,36
385,14	1267,69
385,35	1300,46
385,55	1277,93
385,76	1306,60
385,97	1249,26
386,18	1310,70
386,39	1259,50
386,60	1318,89
386,81	1327,08
387,02	1216,49
387,22	1228,78
387,43	1275,88
387,64	1261,55
387,85	1298,41
388,06	1249,26
388,27	1261,55
388,48	1265,64
388,68	1306,60
388,89	1322,99
389,10	1277,93
389,31	1288,17
389,52	1241,07
389,73	1196,01
389,93	1304,56
390,14	1245,16
390,35	1249,26
390,56	1318,89
390,77	1282,03
390,98	1255,40
391,18	1277,93
391,39	1298,41
391,60	1212,40
391,81	1275,88
392,02	1239,02
392,23	1294,32
392,43	1243,12
392,64	1273,84
392,85	1239,02
393,06	1269,74
393,27	1265,64
393,47	1251,31
393,68	1261,55
393,89	1269,74
394,10	1210,35
394,31	1191,92
394,52	1247,21
394,72	1249,26
394,93	1273,84
395,14	1271,79
395,35	1243,12
395,56	1269,74
395,76	1288,17
395,97	1296,36
396,18	1327,08
396,39	1245,16
396,60	1239,02
396,80	1292,27
397,01	1255,40
397,22	1296,36
397,43	1220,59
397,64	1290,22
397,84	1355,76
398,05	1261,55
398,26	1290,22
398,47	1253,36
398,67	1284,08
398,88	1306,60
399,09	1327,08
399,30	1232,88
399,51	1249,26
399,71	1257,45
399,92	1249,26
400,13	1300,46
400,34	1339,37
400,54	1277,93
400,75	1286,12
400,96	1320,94
401,17	1243,12
401,37	1322,99
401,58	1290,22
401,79	1212,40
402,00	1267,69
402,21	1286,12
402,41	1263,60
402,62	1216,49
402,83	1259,50
403,04	1159,15
403,24	1294,32
403,45	1247,21
403,66	1282,03
403,87	1345,52
404,07	1275,88
404,28	1304,56
404,49	1247,21
404,70	1329,13
404,90	1302,51
405,11	1204,21
405,32	1220,59
405,52	1257,45
405,73	1259,50
405,94	1333,23
406,15	1273,84
406,35	1220,59
406,56	1296,36
406,77	1296,36
406,98	1376,24
407,18	1277,93
407,39	1292,27
407,60	1206,25
407,80	1312,75
408,01	1245,16
408,22	1263,60
408,43	1202,16
408,63	1290,22
408,84	1253,36
409,05	1304,56
409,25	1263,60
409,46	1265,64
409,67	1300,46
409,88	1247,21
410,08	1251,31
410,29	1245,16
410,50	1320,94
410,70	1282,03
410,91	1290,22
411,12	1153,01
411,32	1218,54
411,53	1339,37
411,74	1253,36
411,95	1275,88
412,15	1312,75
412,36	1249,26
412,57	1228,78
412,77	1288,17
412,98	1183,73
413,19	1239,02
413,39	1288,17
413,60	1245,16
413,81	1245,16
414,01	1294,32
414,22	1286,12
414,43	1247,21
414,63	1253,36
414,84	1329,13
415,05	1263,60
415,25	1265,64
415,46	1214,45
415,67	1257,45
415,87	1329,13
416,08	1325,04
416,29	1265,64
416,49	1257,45
416,70	1265,64
416,91	1327,08
417,11	1333,23
417,32	1263,60
417,53	1218,54
417,73	1347,56
417,94	1239,02
418,15	1208,30
418,35	1282,03
418,56	1263,60
418,77	1247,21
418,97	1249,26
419,18	1294,32
419,38	1189,87
419,59	1269,74
419,80	1269,74
420,00	1327,08
420,21	1267,69
420,42	1255,40
420,62	1290,22
420,83	1279,98
421,04	1241,07
421,24	1257,45
421,45	1292,27
421,65	1312,75
421,86	1230,83
422,07	1300,46
422,27	1271,79
422,48	1222,64
422,69	1239,02
422,89	1300,46
423,10	1239,02
423,30	1247,21
423,51	1257,45
423,72	1255,40
423,92	1304,56
424,13	1331,18
424,33	1259,50
424,54	1243,12
424,75	1331,18
424,95	1261,55
425,16	1284,08
425,36	1300,46
425,57	1298,41
425,78	1239,02
425,98	1253,36
426,19	1234,93
426,39	1232,88
426,60	1239,02
426,81	1144,81
427,01	1267,69
427,22	1206,25
427,42	1263,60
427,63	1302,51
427,83	1210,35
428,04	1341,42
428,25	1318,89
428,45	1247,21
428,66	1267,69
428,86	1241,07
429,07	1271,79
429,28	1322,99
429,48	1224,69
429,69	1288,17
429,89	1218,54
430,10	1329,13
430,30	1236,97
430,51	1181,68
430,71	1249,26
430,92	1286,12
431,13	1243,12
431,33	1331,18
431,54	1267,69
431,74	1257,45
431,95	1282,03
432,15	1253,36
432,36	1241,07
432,56	1290,22
432,77	1261,55
432,98	1300,46
433,18	1310,70
433,39	1304,56
433,59	1288,17
433,80	1257,45
434,00	1341,42
434,21	1314,80
434,41	1284,08
434,62	1320,94
434,82	1273,84
435,03	1304,56
435,23	1269,74
435,44	1232,88
435,64	1288,17
435,85	1353,71
436,06	1220,59
436,26	1232,88
436,47	1308,65
436,67	1294,32
436,88	1294,32
437,08	1255,40
437,29	1331,18
437,49	1300,46
437,70	1257,45
437,90	1257,45
438,11	1247,21
438,31	1267,69
438,52	1277,93
438,72	1296,36
438,93	1290,22
439,13	1265,64
439,34	1232,88
439,54	1261,55
439,75	1216,49
439,95	1329,13
440,16	1265,64
440,36	1339,37
440,57	1220,59
440,77	1277,93
440,98	1241,07
441,18	1361,90
441,39	1304,56
441,59	1300,46
441,80	1286,12
442,00	1263,60
442,21	1277,93
442,41	1236,97
442,62	1271,79
442,82	1193,97
443,02	1210,35
443,23	1284,08
443,43	1257,45
443,64	1253,36
443,84	1282,03
444,05	1282,03
444,25	1310,70
444,46	1249,26
444,66	1306,60
444,87	1251,31
445,07	1298,41
445,28	1277,93
445,48	1277,93
445,69	1316,84
445,89	1269,74
446,09	1275,88
446,30	1226,73
446,50	1191,92
446,71	1277,93
446,91	1271,79
447,12	1343,47
447,32	1331,18
447,53	1171,44
447,73	1249,26
447,93	1239,02
448,14	1331,18
448,34	1277,93
448,55	1247,21
448,75	1277,93
448,96	1247,21
449,16	1212,40
449,36	1267,69
449,57	1312,75
449,77	1247,21
449,98	1351,66
450,18	1249,26
450,39	1251,31
450,59	1273,84
450,79	1267,69
451,00	1267,69
451,20	1271,79
451,41	1236,97
451,61	1269,74
451,81	1302,51
452,02	1257,45
452,22	1245,16
452,43	1236,97
452,63	1339,37
452,84	1228,78
453,04	1273,84
453,24	1257,45
453,45	1257,45
453,65	1259,50
453,86	1222,64
454,06	1253,36
454,26	1212,40
454,47	1286,12
454,67	1230,83
454,87	1312,75
455,08	1181,68
455,28	1236,97
455,49	1282,03
455,69	1241,07
455,89	1247,21
456,10	1249,26
456,30	1241,07
456,51	1249,26
456,71	1302,51
456,91	1273,84
457,12	1282,03
457,32	1267,69
457,52	1196,01
457,73	1269,74
457,93	1288,17
458,14	1251,31
458,34	1255,40
458,54	1198,06
458,75	1282,03
458,95	1245,16
459,15	1308,65
459,36	1306,60
459,56	1216,49
459,76	1257,45
459,97	1310,70
460,17	1331,18
460,37	1241,07
460,58	1302,51
460,78	1265,64
460,99	1271,79
461,19	1255,40
461,39	1290,22
461,60	1241,07
461,80	1322,99
462,00	1216,49
462,21	1271,79
462,41	1298,41
462,61	1247,21
462,82	1265,64
463,02	1378,28
463,22	1181,68
463,43	1241,07
463,63	1300,46
463,83	1257,45
464,04	1214,45
464,24	1318,89
464,44	1304,56
464,64	1236,97
464,85	1284,08
465,05	1284,08
465,25	1275,88
465,46	1261,55
465,66	1298,41
465,86	1279,98
466,07	1267,69
466,27	1296,36
466,47	1183,73
466,68	1286,12
466,88	1241,07
467,08	1259,50
467,29	1310,70
467,49	1273,84
467,69	1302,51
467,89	1282,03
468,10	1261,55
468,30	1257,45
468,50	1224,69
468,71	1253,36
468,91	1181,68
469,11	1249,26
469,31	1239,02
469,52	1198,06
469,72	1304,56
469,92	1249,26
470,13	1341,42
470,33	1183,73
470,53	1271,79
470,73	1230,83
470,94	1269,74
471,14	1298,41
471,34	1234,93
471,54	1245,16
471,75	1239,02
471,95	1208,30
472,15	1286,12
472,36	1308,65
472,56	1277,93
472,76	1253,36
472,96	1257,45
473,17	1290,22
473,37	1351,66
473,57	1230,83
473,77	1288,17
473,98	1286,12
474,18	1351,66
474,38	1284,08
474,58	1322,99
474,79	1300,46
474,99	1331,18
475,19	1314,80
475,39	1249,26
475,60	1224,69
475,80	1273,84
476,00	1228,78
476,20	1288,17
476,41	1224,69
476,61	1236,97
476,81	1243,12
477,01	1298,41
477,21	1298,41
477,42	1253,36
477,62	1290,22
477,82	1259,50
478,02	1286,12
478,23	1261,55
478,43	1298,41
478,63	1230,83
478,83	1218,54
479,03	1263,60
479,24	1290,22
479,44	1302,51
479,64	1286,12
479,84	1308,65
480,04	1290,22
480,25	1327,08
480,45	1308,65
480,65	1241,07
480,85	1277,93
481,06	1282,03
481,26	1259,50
481,46	1325,04
481,66	1271,79
481,86	1232,88
482,06	1275,88
482,27	1282,03
482,47	1261,55
482,67	1355,76
482,87	1308,65
483,07	1282,03
483,28	1267,69
483,48	1198,06
483,68	1243,12
483,88	1243,12
484,08	1236,97
484,29	1306,60
484,49	1312,75
484,69	1257,45
484,89	1292,27
485,09	1255,40
485,29	1222,64
485,50	1177,58
485,70	1239,02
485,90	1265,64
486,10	1286,12
486,30	1224,69
486,50	1269,74
486,71	1267,69
486,91	1312,75
487,11	1357,80
487,31	1165,29
487,51	1259,50
487,71	1232,88
487,91	1288,17
488,12	1267,69
488,32	1333,23
488,52	1282,03
488,72	1282,03
488,92	1310,70
489,12	1302,51
489,32	1247,21
489,53	1245,16
489,73	1255,40
489,93	1292,27
490,13	1265,64
490,33	1245,16
490,53	1198,06
490,73	1294,32
490,94	1245,16
491,14	1288,17
491,34	1273,84
491,54	1249,26
491,74	1284,08
491,94	1222,64
492,14	1277,93
492,34	1189,87
492,54	1341,42
492,75	1261,55
492,95	1200,11
493,15	1304,56
493,35	1249,26
493,55	1284,08
493,75	1347,56
493,95	1257,45
494,15	1257,45
494,35	1327,08
494,56	1177,58
494,76	1329,13
494,96	1288,17
495,16	1279,98
495,36	1226,73
495,56	1263,60
495,76	1273,84
495,96	1265,64
496,16	1230,83
496,36	1265,64
496,56	1322,99
496,77	1282,03
496,97	1312,75
497,17	1343,47
497,37	1239,02
497,57	1310,70
497,77	1286,12
497,97	1279,98
498,17	1206,25
498,37	1204,21
498,57	1304,56
498,77	1271,79
498,97	1220,59
499,17	1271,79
499,38	1271,79
499,58	1230,83
499,78	1273,84
499,98	1279,98
500,18	1296,36
500,38	1275,88
500,58	1300,46
500,78	1212,40
500,98	1251,31
501,18	1265,64
501,38	1304,56
501,58	1255,40
501,78	1273,84
501,98	1337,32
502,18	1273,84
502,38	1118,19
502,58	1292,27
502,78	1282,03
502,98	1261,55
503,18	1245,16
503,38	1255,40
503,59	1296,36
503,79	1214,45
503,99	1259,50
504,19	1267,69
504,39	1241,07
504,59	1232,88
504,79	1314,80
504,99	1294,32
505,19	1302,51
505,39	1232,88
505,59	1247,21
505,79	1275,88
505,99	1273,84
506,19	1228,78
506,39	1257,45
506,59	1288,17
506,79	1257,45
506,99	1325,04
507,19	1236,97
507,39	1265,64
507,59	1279,98
507,79	1284,08
507,99	1255,40
508,19	1286,12
508,39	1353,71
508,59	1312,75
508,79	1290,22
508,99	1189,87
509,19	1247,21
509,39	1249,26
509,59	1228,78
509,79	1294,32
509,99	1247,21
510,19	1269,74
510,39	1296,36
510,59	1275,88
510,79	1263,60
510,99	1206,25
511,19	1239,02
511,39	1243,12
511,59	1282,03
511,79	1220,59
511,99	1273,84
512,19	1220,59
512,38	1290,22
512,58	1239,02
512,78	1327,08
512,98	1277,93
513,18	1234,93
513,38	1298,41
513,58	1232,88
513,78	1302,51
513,98	1241,07
514,18	1282,03
514,38	1286,12
514,58	1339,37
514,78	1249,26
514,98	1310,70
515,18	1261,55
515,38	1322,99
515,58	1255,40
515,78	1300,46
515,98	1247,21
516,18	1224,69
516,38	1343,47
516,57	1259,50
516,77	1286,12
516,97	1251,31
517,17	1337,32
517,37	1265,64
517,57	1288,17
517,77	1290,22
517,97	1279,98
518,17	1267,69
518,37	1288,17
518,57	1253,36
518,77	1210,35
518,97	1232,88
519,16	1243,12
519,36	1245,16
519,56	1265,64
519,76	1302,51
519,96	1290,22
520,16	1292,27
520,36	1282,03
520,56	1298,41
520,76	1296,36
520,96	1245,16
521,16	1282,03
521,35	1302,51
521,55	1310,70
521,75	1185,77
521,95	1335,28
522,15	1298,41
522,35	1306,60
522,55	1218,54
522,75	1329,13
522,95	1216,49
523,14	1245,16
523,34	1284,08
523,54	1255,40
523,74	1275,88
523,94	1255,40
524,14	1279,98
524,34	1288,17
524,54	1318,89
524,73	1220,59
524,93	1140,72
525,13	1282,03
525,33	1279,98
525,53	1232,88
525,73	1318,89
525,93	1251,31
526,13	1271,79
526,32	1308,65
526,52	1220,59
526,72	1265,64
526,92	1261,55
527,12	1247,21
527,32	1310,70
527,52	1312,75
527,71	1361,90
527,91	1257,45
528,11	1255,40
528,31	1347,56
528,51	1290,22
528,71	1292,27
528,90	1216,49
529,10	1288,17
529,30	1325,04
529,50	1243,12
529,70	1288,17
529,90	1247,21
530,09	1304,56
530,29	1279,98
530,49	1282,03
530,69	1255,40
530,89	1200,11
531,09	1308,65
531,28	1234,93
531,48	1253,36
531,68	1249,26
531,88	1216,49
532,08	1306,60
532,28	1251,31
532,47	1249,26
532,67	1269,74
532,87	1273,84
533,07	1322,99
533,27	1218,54
533,46	1243,12
533,66	1302,51
533,86	1325,04
534,06	1325,04
534,26	1257,45
534,45	1228,78
534,65	1279,98
534,85	1232,88
535,05	1189,87
535,25	1279,98
535,44	1271,79
535,64	1269,74
535,84	1388,52
536,04	1322,99
536,24	1314,80
536,43	1216,49
536,63	1196,01
536,83	1288,17
537,03	1247,21
537,22	1290,22
537,42	1296,36
537,62	1210,35
537,82	1275,88
538,02	1306,60
538,21	1241,07
538,41	1257,45
538,61	1249,26
538,81	1286,12
539,00	1294,32
539,20	1261,55
539,40	1282,03
539,60	1335,28
539,79	1269,74
539,99	1249,26
540,19	1284,08
540,39	1294,32
540,58	1275,88
540,78	1241,07
540,98	1234,93
541,18	1255,40
541,37	1241,07
541,57	1193,97
541,77	1263,60
541,97	1255,40
542,16	1261,55
542,36	1232,88
542,56	1236,97
542,76	1251,31
542,95	1279,98
543,15	1232,88
543,35	1308,65
543,54	1259,50
543,74	1212,40
543,94	1247,21
544,14	1277,93
544,33	1312,75
544,53	1275,88
544,73	1247,21
544,93	1218,54
545,12	1251,31
545,32	1261,55
545,52	1257,45
545,71	1241,07
545,91	1263,60
546,11	1255,40
546,30	1271,79
546,50	1255,40
546,70	1306,60
546,90	1220,59
547,09	1269,74
547,29	1277,93
547,49	1314,80
547,68	1239,02
547,88	1271,79
548,08	1271,79
548,27	1239,02
548,47	1222,64
548,67	1286,12
548,87	1359,85
549,06	1302,51
549,26	1298,41
549,46	1243,12
549,65	1257,45
549,85	1261,55
550,05	1271,79
550,24	1259,50
550,44	1234,93
550,64	1277,93
550,83	1232,88
551,03	1273,84
551,23	1284,08
551,42	1277,93
551,62	1263,60
551,82	1302,51
552,01	1236,97
552,21	1312,75
552,41	1312,75
552,60	1306,60
552,80	1212,40
553,00	1277,93
553,19	1353,71
553,39	1277,93
553,59	1245,16
553,78	1269,74
553,98	1263,60
554,17	1265,64
554,37	1282,03
554,57	1218,54
554,76	1273,84
554,96	1232,88
555,16	1296,36
555,35	1257,45
555,55	1263,60
555,75	1249,26
555,94	1232,88
556,14	1251,31
556,33	1239,02
556,53	1257,45
556,73	1255,40
556,92	1212,40
557,12	1282,03
557,32	1351,66
557,51	1294,32
557,71	1271,79
557,90	1380,33
558,10	1290,22
558,30	1261,55
558,49	1296,36
558,69	1193,97
558,88	1329,13
559,08	1239,02
559,28	1331,18
559,47	1325,04
559,67	1267,69
559,86	1298,41
560,06	1232,88
560,26	1216,49
560,45	1271,79
560,65	1249,26
560,84	1218,54
561,04	1306,60
561,24	1232,88
561,43	1228,78
561,63	1300,46
561,82	1247,21
562,02	1271,79
562,22	1263,60
562,41	1296,36
562,61	1216,49
562,80	1277,93
563,00	1294,32
563,19	1251,31
563,39	1282,03
563,59	1210,35
563,78	1243,12
563,98	1277,93
564,17	1271,79
564,37	1284,08
564,56	1269,74
564,76	1265,64
564,96	1234,93
565,15	1232,88
565,35	1198,06
565,54	1298,41
565,74	1257,45
565,93	1263,60
566,13	1296,36
566,32	1271,79
566,52	1331,18
566,71	1288,17
566,91	1171,44
567,11	1222,64
567,30	1298,41
567,50	1335,28
567,69	1247,21
567,89	1269,74
568,08	1296,36
568,28	1208,30
568,47	1273,84
568,67	1292,27
568,86	1304,56
569,06	1189,87
569,25	1265,64
569,45	1288,17
569,64	1249,26
569,84	1245,16
570,04	1267,69
570,23	1286,12
570,43	1316,84
570,62	1345,52
570,82	1265,64
571,01	1255,40
571,21	1257,45
571,40	1279,98
571,60	1259,50
571,79	1267,69
571,99	1288,17
572,18	1247,21
572,38	1265,64
572,57	1169,39
572,77	1245,16
572,96	1232,88
573,16	1222,64
573,35	1236,97
573,55	1304,56
573,74	1241,07
573,94	1271,79
574,13	1255,40
574,33	1241,07
574,52	1288,17
574,71	1212,40
574,91	1257,45
575,10	1179,63
575,30	1253,36
575,49	1320,94
575,69	1224,69
575,88	1284,08
576,08	1255,40
576,27	1216,49
576,47	1214,45
576,66	1236,97
576,86	1232,88
577,05	1290,22
577,25	1269,74
577,44	1257,45
577,64	1249,26
577,83	1347,56
578,02	1275,88
578,22	1251,31
578,41	1273,84
578,61	1249,26
578,80	1363,95
579,00	1183,73
579,19	1220,59
579,39	1282,03
579,58	1239,02
579,77	1251,31
579,97	1294,32
580,16	1296,36
580,36	1232,88
580,55	1298,41
580,75	1257,45
580,94	1300,46
581,13	1302,51
581,33	1320,94
581,52	1308,65
581,72	1198,06
581,91	1279,98
582,11	1222,64
582,30	1245,16
582,49	1282,03
582,69	1212,40
582,88	1243,12
583,08	1249,26
583,27	1230,83
583,47	1255,40
583,66	1322,99
583,85	1224,69
584,05	1337,32
584,24	1241,07
584,44	1288,17
584,63	1239,02
584,82	1273,84
585,02	1306,60
585,21	1306,60
585,41	1216,49
585,60	1263,60
585,79	1247,21
585,99	1196,01
586,18	1243,12
586,37	1279,98
586,57	1228,78
586,76	1220,59
586,96	1282,03
587,15	1288,17
587,34	1236,97
587,54	1277,93
587,73	1288,17
587,93	1261,55
588,12	1204,21
588,31	1304,56
588,51	1212,40
588,70	1318,89
588,89	1247,21
589,09	1290,22
589,28	1265,64
589,47	1253,36
589,67	1302,51
589,86	1226,73
590,06	1224,69
590,25	1249,26
590,44	1316,84
590,64	1183,73
590,83	1294,32
591,02	1269,74
591,22	1284,08
591,41	1257,45
591,60	1304,56
591,80	1294,32
591,99	1286,12
592,18	1284,08
592,38	1261,55
592,57	1333,23
592,76	1224,69
592,96	1228,78
593,15	1208,30
593,34	1255,40
593,54	1261,55
593,73	1351,66
593,92	1282,03
594,12	1273,84
594,31	1302,51
594,50	1298,41
594,70	1232,88
594,89	1269,74
595,08	1306,60
595,28	1382,38
595,47	1304,56
595,66	1296,36
595,86	1234,93
596,05	1296,36
596,24	1312,75
596,43	1310,70
596,63	1275,88
596,82	1239,02
597,01	1347,56
597,21	1241,07
597,40	1220,59
597,59	1316,84
597,79	1222,64
597,98	1320,94
598,17	1310,70
598,36	1230,83
598,56	1269,74
598,75	1232,88
598,94	1265,64
599,14	1239,02
599,33	1175,53
599,52	1255,40
599,71	1286,12
599,91	1253,36
600,10	1288,17
600,29	1298,41
600,48	1279,98
600,68	1265,64
600,87	1210,35
601,06	1296,36
601,26	1306,60
601,45	1296,36
601,64	1300,46
601,83	1294,32
602,03	1171,44
602,22	1267,69
602,41	1265,64
602,60	1329,13
602,80	1226,73
602,99	1277,93
603,18	1269,74
603,37	1247,21
603,57	1267,69
603,76	1210,35
603,95	1331,18
604,14	1308,65
604,34	1216,49
604,53	1212,40
604,72	1310,70
604,91	1290,22
605,10	1347,56
605,30	1222,64
605,49	1335,28
605,68	1273,84
605,87	1294,32
606,07	1253,36
606,26	1251,31
606,45	1282,03
606,64	1298,41
606,84	1286,12
607,03	1212,40
607,22	1220,59
607,41	1325,04
607,60	1282,03
607,80	1284,08
607,99	1294,32
608,18	1314,80
608,37	1275,88
608,56	1288,17
608,76	1286,12
608,95	1245,16
609,14	1271,79
609,33	1224,69
609,52	1218,54
609,72	1271,79
609,91	1290,22
610,10	1298,41
610,29	1306,60
610,48	1193,97
610,68	1265,64
610,87	1236,97
611,06	1374,19
611,25	1247,21
611,44	1320,94
611,63	1232,88
611,83	1282,03
612,02	1316,84
612,21	1255,40
612,40	1300,46
612,59	1255,40
612,79	1261,55
612,98	1253,36
613,17	1249,26
613,36	1265,64
613,55	1335,28
613,74	1230,83
613,93	1275,88
614,13	1245,16
614,32	1253,36
614,51	1288,17
614,70	1275,88
614,89	1327,08
615,08	1263,60
615,28	1318,89
615,47	1314,80
615,66	1226,73
615,85	1228,78
616,04	1308,65
616,23	1179,63
616,42	1271,79
616,62	1308,65
616,81	1318,89
617,00	1218,54
617,19	1200,11
617,38	1245,16
617,57	1318,89
617,76	1304,56
617,95	1292,27
618,15	1282,03
618,34	1312,75
618,53	1314,80
618,72	1269,74
618,91	1271,79
619,10	1318,89
619,29	1261,55
619,48	1251,31
619,68	1306,60
619,87	1296,36
620,06	1239,02
620,25	1214,45
620,44	1241,07
620,63	1249,26
620,82	1325,04
621,01	1306,60
621,20	1284,08
621,39	1286,12
621,59	1273,84
621,78	1279,98
621,97	1310,70
622,16	1284,08
622,35	1294,32
622,54	1222,64
622,73	1284,08
622,92	1257,45
623,11	1253,36
623,30	1306,60
623,49	1284,08
623,68	1277,93
623,88	1314,80
624,07	1275,88
624,26	1259,50
624,45	1279,98
624,64	1224,69
624,83	1341,42
625,02	1329,13
625,21	1296,36
625,40	1306,60
625,59	1288,17
625,78	1196,01
625,97	1224,69
626,16	1261,55
626,35	1298,41
626,54	1327,08
626,74	1331,18
626,93	1316,84
627,12	1251,31
627,31	1306,60
627,50	1347,56
627,69	1351,66
627,88	1327,08
628,07	1230,83
628,26	1355,76
628,45	1271,79
628,64	1394,67
628,83	1308,65
629,02	1284,08
629,21	1363,95
629,40	1253,36
629,59	1292,27
629,78	1316,84
629,97	1232,88
630,16	1249,26
630,35	1286,12
630,54	1368,04
630,73	1300,46
630,92	1290,22
631,11	1366,00
631,30	1343,47
631,49	1435,63
631,68	2402,27
631,87	11286,36
632,06	43783,52
632,25	65535,00
632,44	65535,00
632,63	65535,00
632,82	65535,00
633,01	65535,00
633,20	48233,76
633,39	21718,71
633,58	3860,42
633,77	4093,89
633,96	3194,83
634,15	2539,48
634,34	2101,22
634,53	1945,57
634,72	1904,61
634,91	1562,60
635,10	1617,90
635,29	1527,78
635,48	1593,32
635,67	1548,26
635,86	1441,77
636,05	1402,86
636,24	1435,63
636,43	1333,23
636,62	1347,56
636,81	1288,17
637,00	1353,71
637,19	1357,80
637,38	1273,84
637,57	1308,65
637,76	1333,23
637,95	1288,17
638,14	1232,88
638,33	1376,24
638,52	1150,96
638,71	1277,93
638,89	1239,02
639,08	1331,18
639,27	1273,84
639,46	1271,79
639,65	1279,98
639,84	1355,76
640,03	1245,16
640,22	1261,55
640,41	1304,56
640,60	1282,03
640,79	1312,75
640,98	1251,31
641,17	1351,66
641,36	1331,18
641,55	1249,26
641,74	1267,69
641,92	1239,02
642,11	1284,08
642,30	1202,16
642,49	1357,80
642,68	1329,13
642,87	1267,69
643,06	1271,79
643,25	1257,45
643,44	1355,76
643,63	1298,41
643,82	1234,93
644,00	1304,56
644,19	1257,45
644,38	1259,50
644,57	1241,07
644,76	1271,79
644,95	1279,98
645,14	1247,21
645,33	1292,27
645,52	1388,52
645,71	1316,84
645,89	1232,88
646,08	1249,26
646,27	1316,84
646,46	1282,03
646,65	1253,36
646,84	1261,55
647,03	1279,98
647,22	1189,87
647,40	1286,12
647,59	1310,70
647,78	1265,64
647,97	1273,84
648,16	1333,23
648,35	1257,45
648,54	1282,03
648,73	1279,98
648,91	1187,82
649,10	1337,32
649,29	1251,31
649,48	1269,74
649,67	1316,84
649,86	1282,03
650,05	1290,22
650,23	1286,12
650,42	1255,40
650,61	1325,04
650,80	1251,31
650,99	1216,49
651,18	1251,31
651,36	1232,88
651,55	1271,79
651,74	1257,45
651,93	1277,93
652,12	1263,60
652,31	1214,45
652,49	1306,60
652,68	1236,97
652,87	1193,97
653,06	1277,93
653,25	1302,51
653,44	1208,30
653,62	1306,60
653,81	1341,42
654,00	1220,59
654,19	1306,60
654,38	1247,21
654,56	1290,22
654,75	1273,84
654,94	1265,64
655,13	1271,79
655,32	1279,98
655,51	1228,78
655,69	1275,88
655,88	1271,79
656,07	1284,08
656,26	1267,69
656,45	1275,88
656,63	1302,51
656,82	1308,65
657,01	1318,89
657,20	1259,50
657,38	1282,03
657,57	1263,60
657,76	1218,54
657,95	1316,84
658,14	1316,84
658,32	1279,98
658,51	1292,27
658,70	1226,73
658,89	1306,60
659,08	1302,51
659,26	1273,84
659,45	1279,98
659,64	1327,08
659,83	1249,26
660,01	1265,64
660,20	1259,50
660,39	1345,52
660,58	1236,97
660,76	1271,79
660,95	1261,55
661,14	1306,60
661,33	1196,01
661,51	1185,77
661,70	1232,88
661,89	1314,80
662,08	1214,45
662,26	1290,22
662,45	1232,88
662,64	1306,60
662,83	1245,16
663,01	1341,42
663,20	1298,41
663,39	1337,32
663,58	1218,54
663,76	1347,56
663,95	1232,88
664,14	1316,84
664,32	1228,78
664,51	1310,70
664,70	1241,07
664,89	1204,21
665,07	1220,59
665,26	1286,12
665,45	1251,31
665,64	1277,93
665,82	1275,88
666,01	1294,32
666,20	1261,55
666,38	1239,02
666,57	1279,98
666,76	1292,27
666,95	1298,41
667,13	1294,32
667,32	1282,03
667,51	1265,64
667,69	1273,84
667,88	1218,54
668,07	1247,21
668,25	1222,64
668,44	1271,79
668,63	1306,60
668,81	1236,97
669,00	1216,49
669,19	1206,25
669,38	1232,88
669,56	1294,32
669,75	1261,55
669,94	1206,25
670,12	1310,70
670,31	1273,84
670,50	1271,79
670,68	1259,50
670,87	1320,94
671,06	1234,93
671,24	1241,07
671,43	1275,88
671,62	1284,08
671,80	1243,12
671,99	1341,42
672,18	1208,30
672,36	1290,22
672,55	1210,35
672,74	1230,83
672,92	1220,59
673,11	1300,46
673,29	1202,16
673,48	1261,55
673,67	1269,74
673,85	1251,31
674,04	1269,74
674,23	1259,50
674,41	1257,45
674,60	1249,26
674,79	1265,64
674,97	1296,36
675,16	1257,45
675,34	1257,45
675,53	1327,08
675,72	1222,64
675,90	1292,27
676,09	1339,37
676,28	1208,30
676,46	1394,67
676,65	1288,17
676,83	1288,17
677,02	1269,74
677,21	1292,27
677,39	1226,73
677,58	1282,03
677,77	1329,13
677,95	1294,32
678,14	1257,45
678,32	1286,12
678,51	1306,60
678,70	1241,07
678,88	1241,07
679,07	1269,74
679,25	1325,04
679,44	1247,21
679,63	1204,21
679,81	1230,83
680,00	1273,84
680,18	1259,50
680,37	1251,31
680,55	1347,56
680,74	1241,07
680,93	1224,69
681,11	1290,22
681,30	1292,27
681,48	1337,32
681,67	1288,17
681,85	1251,31
682,04	1288,17
682,23	1318,89
682,41	1288,17
682,60	1290,22
682,78	1320,94
682,97	1234,93
683,15	1208,30
683,34	1298,41
683,53	1304,56
683,71	1257,45
683,90	1292,27
684,08	1296,36
684,27	1253,36
684,45	1273,84
684,64	1298,41
684,82	1282,03
685,01	1288,17
685,19	1230,83
685,38	1290,22
685,57	1247,21
685,75	1251,31
685,94	1269,74
686,12	1218,54
686,31	1294,32
686,49	1273,84
686,68	1312,75
686,86	1318,89
687,05	1220,59
687,23	1302,51
687,42	1322,99
687,60	1294,32
687,79	1331,18
687,97	1257,45
688,16	1298,41
688,34	1251,31
688,53	1298,41
688,71	1284,08
688,90	1325,04
689,08	1308,65
689,27	1236,97
689,45	1277,93
689,64	1269,74
689,82	1302,51
690,01	1177,58
690,19	1228,78
690,38	1273,84
690,56	1208,30
690,75	1239,02
690,93	1261,55
691,12	1257,45
691,30	1249,26
691,49	1279,98
691,67	1226,73
691,86	1314,80
692,04	1239,02
692,23	1239,02
692,41	1198,06
692,60	1282,03
692,78	1193,97
692,97	1288,17
693,15	1257,45
693,34	1300,46
693,52	1251,31
693,71	1314,80
693,89	1214,45
694,08	1298,41
694,26	1398,76
694,44	1255,40
694,63	1282,03
694,81	1263,60
695,00	1292,27
695,18	1263,60
695,37	1296,36
695,55	1382,38
695,74	1314,80
695,92	1241,07
696,10	1294,32
696,29	1284,08
696,47	1251,31
696,66	1286,12
696,84	1265,64
697,03	1239,02
697,21	1257,45
697,40	1329,13
697,58	1298,41
697,76	1273,84
697,95	1232,88
698,13	1239,02
698,32	1230,83
698,50	1269,74
698,68	1261,55
698,87	1267,69
699,05	1210,35
699,24	1290,22
699,42	1249,26
699,61	1228,78
699,79	1298,41
699,97	1320,94
700,16	1224,69
700,34	1304,56
700,53	1132,53
700,71	1241,07
700,89	1263,60
701,08	1271,79
701,26	1249,26
701,45	1304,56
701,63	1220,59
701,81	1306,60
702,00	1306,60
702,18	1290,22
702,37	1224,69
702,55	1263,60
702,73	1282,03
702,92	1314,80
703,10	1232,88
703,28	1239,02
703,47	1253,36
703,65	1302,51
703,84	1224,69
704,02	1337,32
704,20	1247,21
704,39	1249,26
704,57	1380,33
704,75	1337,32
704,94	1286,12
705,12	1300,46
705,30	1282,03
705,49	1343,47
705,67	1273,84
705,86	1269,74
706,04	1298,41
706,22	1216,49
706,41	1331,18
706,59	1183,73
706,77	1241,07
706,96	1302,51
707,14	1228,78
707,32	1236,97
707,51	1245,16
707,69	1277,93
707,87	1220,59
708,06	1245,16
708,24	1337,32
708,42	1286,12
708,61	1290,22
708,79	1343,47
708,97	1284,08
709,16	1187,82
709,34	1230,83
709,52	1251,31
709,71	1282,03
709,89	1212,40
710,07	1294,32
710,26	1339,37
710,44	1269,74
710,62	1322,99
710,80	1245,16
710,99	1337,32
711,17	1294,32
711,35	1286,12
711,54	1243,12
711,72	1253,36
711,90	1200,11
712,09	1333,23
712,27	1304,56
712,45	1271,79
712,63	1267,69
712,82	1275,88
713,00	1261,55
713,18	1277,93
713,37	1253,36
713,55	1300,46
713,73	1171,44
713,91	1255,40
714,10	1329,13
714,28	1228,78
714,46	1361,90
714,65	1386,47
714,83	1247,21
715,01	1245,16
715,19	1284,08
715,38	1251,31
715,56	1304,56
715,74	1255,40
715,92	1304,56
716,11	1275,88
716,29	1232,88
716,47	1329,13
716,65	1279,98
716,84	1247,21
717,02	1224,69
717,20	1255,40
717,38	1200,11
717,57	1204,21
717,75	1249,26
717,93	1286,12
718,11	1251,31
718,30	1286,12
718,48	1232,88
718,66	1298,41
718,84	1279,98
719,03	1294,32
719,21	1310,70
719,39	1261,55
719,57	1294,32
719,75	1251,31
719,94	1300,46
720,12	1236,97
720,30	1290,22
720,48	1308,65
720,67	1261,55
720,85	1269,74
721,03	1292,27
721,21	1241,07
721,39	1230,83
721,58	1255,40
721,76	1296,36
721,94	1300,46
722,12	1261,55
722,30	1284,08
722,49	1355,76
722,67	1247,21
722,85	1255,40
723,03	1245,16
723,21	1257,45
723,40	1306,60
723,58	1224,69
723,76	1284,08
723,94	1230,83
724,12	1230,83
724,30	1257,45
724,49	1214,45
724,67	1275,88
724,85	1273,84
725,03	1236,97
725,21	1261,55
725,40	1337,32
725,58	1241,07
725,76	1294,32
725,94	1220,59
726,12	1277,93
726,30	1267,69
726,49	1304,56
726,67	1259,50
726,85	1253,36
727,03	1300,46
727,21	1320,94
727,39	1329,13
727,57	1222,64
727,76	1255,40
727,94	1259,50
728,12	1353,71
728,30	1271,79
728,48	1286,12
728,66	1296,36
728,84	1284,08
729,03	1249,26
729,21	1230,83
729,39	1275,88
729,57	1263,60
729,75	1337,32
729,93	1257,45
730,11	1286,12
730,30	1304,56
730,48	1187,82
730,66	1290,22
730,84	1296,36
731,02	1331,18
731,20	1253,36
731,38	1243,12
731,56	1263,60
731,74	1230,83
731,93	1286,12
732,11	1255,40
732,29	1257,45
732,47	1251,31
732,65	1185,77
732,83	1279,98
733,01	1277,93
733,19	1198,06
733,37	1236,97
733,56	1337,32
733,74	1310,70
733,92	1318,89
734,10	1224,69
734,28	1290,22
734,46	1265,64
734,64	1302,51
734,82	1320,94
735,00	1300,46
735,18	1271,79
735,36	1253,36
735,54	1288,17
735,73	1253,36
735,91	1230,83
736,09	1318,89
736,27	1234,93
736,45	1322,99
736,63	1247,21
736,81	1234,93
736,99	1277,93
737,17	1275,88
737,35	1318,89
737,53	1185,77
737,71	1347,56
737,89	1247,21
738,07	1196,01
738,25	1294,32
738,43	1265,64
738,61	1212,40
738,80	1343,47
738,98	1312,75
739,16	1224,69
739,34	1269,74
739,52	1279,98
739,70	1273,84
739,88	1214,45
740,06	1331,18
740,24	1249,26
740,42	1226,73
740,60	1279,98
740,78	1200,11
740,96	1271,79
741,14	1265,64
741,32	1265,64
741,50	1300,46
741,68	1282,03
741,86	1239,02
742,04	1286,12
742,22	1290,22
742,40	1329,13
742,58	1341,42
742,76	1239,02
742,94	1204,21
743,12	1255,40
743,30	1220,59
743,48	1282,03
743,66	1351,66
743,84	1292,27
744,02	1282,03
744,20	1226,73
744,38	1271,79
744,56	1292,27
744,74	1267,69
744,92	1271,79
745,10	1191,92
745,28	1333,23
745,46	1183,73
745,64	1257,45
745,82	1247,21
746,00	1228,78
746,18	1191,92
746,36	1296,36
746,54	1236,97
746,72	1273,84
746,90	1271,79
747,08	1310,70
747,26	1273,84
747,44	1355,76
747,62	1275,88
747,80	1288,17
747,98	1288,17
748,15	1267,69
748,33	1277,93
748,51	1279,98
748,69	1245,16
748,87	1265,64
749,05	1245,16
749,23	1230,83
749,41	1232,88
749,59	1253,36
749,77	1259,50
749,95	1273,84
750,13	1253,36
750,31	1261,55
750,49	1341,42
750,67	1243,12
750,85	1249,26
751,03	1325,04
751,20	1292,27
751,38	1245,16
751,56	1273,84
751,74	1290,22
751,92	1249,26
752,10	1271,79
752,28	1226,73
752,46	1259,50
752,64	1220,59
752,82	1263,60
753,00	1247,21
753,18	1284,08
753,35	1230,83
753,53	1353,71
753,71	1296,36
753,89	1243,12
754,07	1239,02
754,25	1277,93
754,43	1288,17
754,61	1234,93
754,79	1273,84
754,97	1249,26
755,14	1249,26
755,32	1308,65
755,50	1236,97
755,68	1302,51
755,86	1298,41
756,04	1222,64
756,22	1241,07
756,40	1208,30
756,57	1320,94
756,75	1241,07
756,93	1306,60
757,11	1322,99
757,29	1236,97
757,47	1253,36
757,65	1239,02
757,82	1267,69
758,00	1310,70
758,18	1249,26
758,36	1273,84
758,54	1284,08
758,72	1322,99
758,90	1249,26
759,07	1234,93
759,25	1202,16
759,43	1265,64
759,61	1347,56
759,79	1292,27
759,97	1374,19
760,15	1333,23
760,32	1232,88
760,50	1273,84
760,68	1314,80
760,86	1300,46
761,04	1271,79
761,22	1288,17
761,39	1284,08
761,57	1286,12
761,75	1206,25
761,93	1224,69
762,11	1265,64
762,28	1290,22
762,46	1204,21
762,64	1279,98
762,82	1269,74
763,00	1234,93
763,18	1269,74
763,35	1224,69
763,53	1347,56
763,71	1191,92
763,89	1236,97
764,07	1265,64
764,24	1277,93
764,42	1249,26
764,60	1271,79
764,78	1196,01
764,96	1286,12
765,13	1316,84
765,31	1222,64
765,49	1222,64
765,67	1255,40
765,84	1304,56
766,02	1271,79
766,20	1265,64
766,38	1187,82
766,56	1282,03
766,73	1275,88
766,91	1222,64
767,09	1273,84
767,27	1306,60
767,44	1316,84
767,62	1279,98
767,80	1304,56
767,98	1265,64
768,15	1245,16
768,33	1234,93
768,51	1277,93
768,69	1284,08
768,87	1265,64
769,04	1361,90
769,22	1230,83
769,40	1327,08
769,58	1347,56
769,75	1320,94
769,93	1298,41
770,11	1228,78
770,28	1296,36
770,46	1284,08
770,64	1247,21
770,82	1275,88
770,99	1249,26
771,17	1216,49
771,35	1247,21
771,53	1222,64
771,70	1218,54
771,88	1249,26
772,06	1327,08
772,23	1273,84
772,41	1265,64
772,59	1236,97
772,77	1302,51
772,94	1204,21
773,12	1314,80
773,30	1241,07
773,47	1273,84
773,65	1185,77
773,83	1310,70
774,01	1279,98
774,18	1265,64
774,36	1279,98
774,54	1273,84
774,71	1339,37
774,89	1271,79
775,07	1277,93
775,24	1300,46
775,42	1304,56
775,60	1322,99
775,78	1214,45
775,95	1222,64
776,13	1259,50
776,31	1361,90
776,48	1261,55
776,66	1257,45
776,84	1208,30
777,01	1357,80
777,19	1304,56
777,37	1320,94
777,54	1265,64
777,72	1277,93
777,90	1296,36
778,07	1286,12
778,25	1247,21
778,43	1271,79
778,60	1284,08
778,78	1288,17
778,96	1275,88
779,13	1316,84
779,31	1279,98
779,49	1150,96
779,66	1255,40
779,84	1263,60
780,01	1273,84
780,19	1247,21
780,37	1253,36
780,54	1327,08
780,72	1200,11
780,90	1310,70
781,07	1228,78
781,25	1267,69
781,43	1247,21
781,60	1282,03
781,78	1216,49
781,95	1273,84
782,13	1290,22
782,31	1220,59
782,48	1218,54
782,66	1216,49
782,83	1316,84
783,01	1296,36
783,19	1243,12
783,36	1400,81
783,54	1288,17
783,72	1216,49
783,89	1183,73
784,07	1316,84
784,24	1277,93
784,42	1312,75
784,60	1275,88
784,77	1228,78
784,95	1267,69
785,12	1269,74
785,30	1277,93
785,47	1261,55
785,65	1236,97
785,83	1304,56
786,00	1189,87
786,18	1251,31
786,35	1265,64
786,53	1271,79
786,71	1220,59
786,88	1222,64
787,06	1212,40
787,23	1210,35
787,41	1265,64
787,58	1331,18
787,76	1196,01
787,94	1347,56
788,11	1277,93
788,29	1239,02
788,46	1230,83
788,64	1218,54
788,81	1290,22
788,99	1335,28
789,16	1271,79
789,34	1228,78
789,52	1241,07
789,69	1220,59
789,87	1290,22
790,04	1300,46
790,22	1239,02
790,39	1239,02
790,57	1265,64
790,74	1331,18
790,92	1282,03
791,09	1220,59
791,27	1359,85
791,44	1185,77
791,62	1368,04
791,79	1267,69
791,97	1265,64
792,15	1241,07
792,32	1296,36
792,50	1316,84
792,67	1290,22
792,85	1234,93
793,02	1298,41
793,20	1269,74
793,37	1265,64
793,55	1290,22
793,72	1292,27
793,90	1239,02
794,07	1316,84
794,25	1259,50
794,42	1259,50
794,60	1259,50
794,77	1286,12
794,95	1255,40
795,12	1259,50
795,30	1308,65
795,47	1353,71
795,65	1214,45
795,82	1282,03
796,00	1239,02
796,17	1253,36
796,34	1279,98
796,52	1245,16
796,69	1304,56
796,87	1257,45
797,04	1339,37
797,22	1302,51
797,39	1273,84
797,57	1224,69
797,74	1290,22
797,92	1245,16
798,09	1261,55
798,27	1284,08
798,44	1343,47
798,62	1245,16
798,79	1294,32
798,96	1175,53
799,14	1292,27
799,31	1310,70
799,49	1224,69
799,66	1259,50
799,84	1257,45
800,01	1224,69
800,19	1273,84
800,36	1263,60
800,53	1228,78
800,71	1241,07
800,88	1271,79
801,06	1271,79
801,23	1318,89
801,41	1345,52
801,58	1261,55
801,75	1279,98
801,93	1216,49
802,10	1253,36
802,28	1292,27
802,45	1263,60
802,63	1288,17
802,80	1265,64
802,97	1279,98
803,15	1206,25
803,32	1304,56
803,50	1222,64
803,67	1265,64
803,84	1286,12
804,02	1271,79
804,19	1255,40
804,37	1239,02
804,54	1312,75
804,71	1304,56
804,89	1273,84
805,06	1249,26
805,24	1249,26
805,41	1279,98
805,58	1257,45
805,76	1286,12
805,93	1249,26
806,10	1302,51
806,28	1312,75
806,45	1308,65
806,63	1265,64
806,80	1198,06
806,97	1234,93
807,15	1253,36
807,32	1306,60
807,49	1157,10
807,67	1257,45
807,84	1310,70
808,01	1273,84
808,19	1265,64
808,36	1294,32
808,54	1249,26
808,71	1273,84
808,88	1236,97
809,06	1257,45
809,23	1298,41
809,40	1277,93
809,58	1312,75
809,75	1228,78
809,92	1183,73
810,10	1212,40
810,27	1198,06
810,44	1261,55
810,62	1253,36
810,79	1320,94
810,96	1243,12
811,14	1337,32
811,31	1353,71
811,48	1269,74
811,66	1282,03
811,83	1273,84
812,00	1236,97
812,18	1279,98
812,35	1232,88
812,52	1216,49
812,69	1263,60
812,87	1255,40
813,04	1253,36
813,21	1277,93
813,39	1198,06
813,56	1241,07
813,73	1288,17
813,91	1214,45
814,08	1251,31
814,25	1329,13
814,42	1294,32
814,60	1232,88
814,77	1230,83
814,94	1236,97
815,12	1261,55
815,29	1279,98
815,46	1208,30
815,63	1282,03
815,81	1290,22
815,98	1300,46
816,15	1230,83
816,33	1251,31
816,50	1241,07
816,67	1298,41
816,84	1232,88
817,02	1294,32
817,19	1247,21
817,36	1327,08
817,53	1292,27
817,71	1320,94
817,88	1286,12
818,05	1208,30
818,22	1329,13
818,40	1294,32
818,57	1298,41
818,74	1265,64
818,91	1273,84
819,09	1247,21
819,26	1245,16
819,43	1263,60
819,60	1222,64
819,78	1296,36
819,95	1329,13
820,12	1239,02
820,29	1304,56
820,47	1253,36
820,64	1241,07
820,81	1204,21
820,98	1232,88
821,15	1275,88
821,33	1279,98
821,50	1218,54
821,67	1232,88
821,84	1253,36
822,02	1314,80
822,19	1290,22
822,36	1290,22
822,53	1302,51
822,70	1202,16
822,88	1263,60
823,05	1232,88
823,22	1251,31
823,39	1312,75
823,56	1249,26
823,74	1263,60
823,91	1269,74
824,08	1316,84
824,25	1263,60
824,42	1284,08
824,60	1296,36
824,77	1230,83
824,94	1298,41
825,11	1222,64
825,28	1284,08
825,45	1218,54
825,63	1308,65
825,80	1320,94
825,97	1327,08
826,14	1318,89
826,31	1212,40
826,48	1245,16
826,66	1257,45
826,83	1265,64
827,00	1294,32
827,17	1288,17
827,34	1243,12
827,51	1200,11
827,69	1327,08
827,86	1318,89
828,03	1290,22
828,20	1282,03
828,37	1290,22
828,54	1329,13
828,71	1329,13
828,89	1286,12
829,06	1329,13
829,23	1316,84
829,40	1222,64
829,57	1220,59
829,74	1343,47
829,91	1253,36
830,09	1267,69
830,26	1271,79
830,43	1286,12
830,60	1265,64
830,77	1265,64
830,94	1296,36
831,11	1292,27
831,28	1241,07
831,46	1239,02
831,63	1292,27
831,80	1259,50
831,97	1298,41
832,14	1234,93
832,31	1302,51
832,48	1263,60
832,65	1325,04
832,82	1288,17
832,99	1236,97
833,17	1275,88
833,34	1300,46
833,51	1257,45
833,68	1288,17
833,85	1259,50
834,02	1265,64
834,19	1271,79
834,36	1251,31
834,53	1183,73
834,70	1247,21
834,87	1290,22
835,04	1296,36
835,22	1339,37
835,39	1228,78
835,56	1273,84
835,73	1284,08
835,90	1218,54
836,07	1218,54
836,24	1294,32
836,41	1277,93
836,58	1265,64
836,75	1261,55
836,92	1255,40
837,09	1290,22
837,26	1306,60
837,43	1298,41
837,60	1331,18
837,77	1294,32
837,94	1214,45
838,12	1267,69
838,29	1222,64
838,46	1228,78
838,63	1292,27
838,80	1187,82
838,97	1224,69
839,14	1253,36
839,31	1320,94
839,48	1277,93
839,65	1230,83
839,82	1239,02
839,99	1243,12
840,16	1292,27
840,33	1310,70
840,50	1275,88
840,67	1271,79
840,84	1214,45
841,01	1282,03
841,18	1234,93
841,35	1325,04
841,52	1312,75
841,69	1284,08
841,86	1263,60
842,03	1261,55
842,20	1277,93
842,37	1282,03
842,54	1329,13
842,71	1222,64
842,88	1335,28
843,05	1210,35
843,22	1284,08
843,39	1253,36
843,56	1224,69
843,73	1337,32
843,90	1247,21
844,07	1249,26
844,24	1290,22
844,41	1302,51
844,58	1302,51
844,75	1241,07
844,92	1273,84
845,09	1216,49
845,26	1277,93
845,43	1255,40
845,60	1282,03
845,77	1220,59
845,94	1230,83
846,10	1277,93
846,27	1271,79
846,44	1210,35
846,61	1226,73
846,78	1261,55
846,95	1300,46
847,12	1284,08
847,29	1296,36
847,46	1300,46
847,63	1212,40
847,80	1282,03
847,97	1265,64
848,14	1243,12
848,31	1206,25
848,48	1220,59
848,65	1263,60
848,82	1271,79
848,98	1277,93
849,15	1249,26
849,32	1333,23
849,49	1267,69
849,66	1290,22
849,83	1169,39
850,00	1239,02
850,17	1304,56
850,34	1298,41
850,51	1232,88
850,68	1224,69
850,85	1251,31
851,01	1228,78
851,18	1216,49
851,35	1259,50
851,52	1265,64
851,69	1220,59
851,86	1177,58
852,03	1288,17
852,20	1288,17
852,37	1279,98
852,53	1247,21
852,70	1282,03
852,87	1298,41
853,04	1288,17
853,21	1294,32
853,38	1247,21
853,55	1271,79
853,72	1339,37
853,89	1316,84
854,05	1267,69
854,22	1224,69
854,39	1269,74
854,56	1212,40
854,73	1259,50
854,90	1269,74
855,07	1247,21
855,23	1259,50
855,40	1288,17
855,57	1273,84
855,74	1312,75
855,91	1208,30
856,08	1243,12
856,25	1288,17
856,41	1279,98
856,58	1314,80
856,75	1226,73
856,92	1247,21
857,09	1271,79
857,26	1261,55
857,42	1243,12
857,59	1298,41
857,76	1306,60
857,93	1245,16
858,10	1277,93
858,27	1257,45
858,43	1294,32
858,60	1265,64
858,77	1304,56
858,94	1228,78
859,11	1255,40
859,27	1279,98
859,44	1247,21
859,61	1265,64
859,78	1302,51
859,95	1279,98
860,12	1306,60
860,28	1261,55
860,45	1331,18
860,62	1292,27
860,79	1357,80
860,95	1279,98
861,12	1247,21
861,29	1259,50
861,46	1224,69
861,63	1265,64
861,79	1239,02
861,96	1279,98
862,13	1193,97
862,30	1312,75
862,47	1261,55
862,63	1228,78
862,80	1284,08
862,97	1267,69
863,14	1314,80
863,30	1298,41
863,47	1290,22
863,64	1222,64
863,81	1294,32
863,97	1290,22
864,14	1282,03
864,31	1320,94
864,48	1302,51
864,65	1265,64
864,81	1241,07
864,98	1232,88
865,15	1292,27
865,32	1296,36
865,48	1245,16
865,65	1271,79
865,82	1212,40
865,98	1236,97
866,15	1232,88
866,32	1257,45
866,49	1325,04
866,65	1257,45
866,82	1216,49
866,99	1187,82
867,16	1273,84
867,32	1284,08
867,49	1241,07
867,66	1232,88
867,83	1322,99
867,99	1224,69
868,16	1228,78
868,33	1318,89
868,49	1251,31
868,66	1300,46
868,83	1269,74
868,99	1259,50
869,16	1251,31
869,33	1304,56
869,50	1329,13
869,66	1322,99
869,83	1243,12
870,00	1259,50
870,16	1263,60
870,33	1308,65
870,50	1263,60
870,66	1234,93
870,83	1265,64
871,00	1288,17
871,17	1325,04
871,33	1312,75
871,50	1257,45
871,67	1224,69
871,83	1226,73
872,00	1243,12
872,17	1298,41
872,33	1236,97
872,50	1241,07
872,67	1290,22
872,83	1302,51
873,00	1245,16
873,17	1279,98
873,33	1269,74
873,50	1257,45
873,67	1208,30
873,83	1343,47
874,00	1279,98
874,16	1200,11
874,33	1267,69
874,50	1314,80
874,66	1277,93
874,83	1249,26
875,00	1306,60
875,16	1177,58
875,33	1277,93
875,50	1239,02
875,66	1290,22
875,83	1310,70
875,99	1247,21
876,16	1318,89
876,33	1257,45
876,49	1327,08
876,66	1277,93
876,83	1304,56
876,99	1247,21
877,16	1312,75
877,32	1241,07
877,49	1267,69
877,66	1286,12
877,82	1322,99
877,99	1286,12
878,15	1216,49
878,32	1296,36
878,49	1226,73
878,65	1234,93
878,82	1179,63
878,98	1255,40
879,15	1333,23
879,32	1316,84
879,48	1277,93
879,65	1257,45
879,81	1253,36
879,98	1335,28
880,15	1294,32
880,31	1232,88
880,48	1290,22
880,64	1210,35
880,81	1259,50
880,97	1247,21
881,14	1322,99
881,31	1325,04
881,47	1249,26
881,64	1228,78
881,80	1232,88
881,97	1275,88
882,13	1279,98
882,30	1343,47
882,47	1308,65
882,63	1275,88
882,80	1277,93
882,96	1261,55
883,13	1255,40
883,29	1333,23
883,46	1263,60
883,62	1265,64
883,79	1312,75
883,95	1282,03
884,12	1294,32
884,29	1271,79
884,45	1296,36
884,62	1259,50
884,78	1257,45
884,95	1263,60
885,11	1314,80
885,28	1347,56
885,44	1236,97
885,61	1368,04
885,77	1265,64
885,94	1228,78
886,10	1296,36
886,27	1228,78
886,43	1288,17
886,60	1251,31
886,76	1296,36
886,93	1208,30
887,09	1210,35
887,26	1279,98
887,42	1241,07
887,59	1218,54
887,75	1294,32
887,92	1265,64
888,08	1302,51
888,25	1206,25
888,41	1277,93
888,58	1282,03
888,74	1239,02
888,91	1230,83
>>>>>End Processed Spectral Data<<<<<
