SpectraSuite Data File
++++++++++++++++++++++++++++++++++++
Date: Sun Apr 03 16:25:34 CEST 2016
User: root
Dark Spectrum Present: No
Reference Spectrum Present: No
Number of Sampled Component Spectra: 1
Spectrometers: USB4C02835
Integration Time (usec): 10000 (USB4C02835)
Spectra Averaged: 1 (USB4C02835)
Boxcar Smoothing: 0 (USB4C02835)
Correct for Electrical Dark: No (USB4C02835)
Strobe/Lamp Enabled: No (USB4C02835)
Correct for Detector Non-linearity: No (USB4C02835)
Correct for Stray Light: No (USB4C02835)
Number of Pixels in Processed Spectrum: 3648
>>>>>Begin Processed Spectral Data<<<<<
177,47	1241,07
177,69	1241,07
177,91	1241,07
178,13	1257,45
178,36	1275,88
178,58	1304,56
178,80	1273,84
179,02	1239,02
179,24	1239,02
179,46	1193,97
179,68	1318,89
179,90	1247,21
180,13	1282,03
180,35	1267,69
180,57	1249,26
180,79	1249,26
181,01	1185,77
181,23	1277,93
181,45	1230,83
181,67	1202,16
181,90	1259,50
182,12	1306,60
182,34	1265,64
182,56	1200,11
182,78	1290,22
183,00	1247,21
183,22	1226,73
183,44	1257,45
183,66	1304,56
183,89	1210,35
184,11	1239,02
184,33	1214,45
184,55	1259,50
184,77	1204,21
184,99	1226,73
185,21	1257,45
185,43	1255,40
185,65	1208,30
185,87	1288,17
186,10	1261,55
186,32	1294,32
186,54	1234,93
186,76	1271,79
186,98	1224,69
187,20	1255,40
187,42	1277,93
187,64	1273,84
187,86	1269,74
188,08	1241,07
188,30	1267,69
188,52	1267,69
188,75	1310,70
188,97	1222,64
189,19	1241,07
189,41	1290,22
189,63	1243,12
189,85	1282,03
190,07	1298,41
190,29	1239,02
190,51	1271,79
190,73	1224,69
190,95	1316,84
191,17	1294,32
191,39	1312,75
191,61	1193,97
191,84	1314,80
192,06	1275,88
192,28	1296,36
192,50	1294,32
192,72	1214,45
192,94	1247,21
193,16	1228,78
193,38	1259,50
193,60	1271,79
193,82	1224,69
194,04	1239,02
194,26	1214,45
194,48	1218,54
194,70	1257,45
194,92	1253,36
195,14	1257,45
195,36	1230,83
195,58	1263,60
195,80	1304,56
196,02	1331,18
196,24	1331,18
196,46	1275,88
196,69	1253,36
196,91	1312,75
197,13	1273,84
197,35	1263,60
197,57	1228,78
197,79	1200,11
198,01	1300,46
198,23	1282,03
198,45	1286,12
198,67	1214,45
198,89	1302,51
199,11	1236,97
199,33	1275,88
199,55	1304,56
199,77	1257,45
199,99	1245,16
200,21	1263,60
200,43	1198,06
200,65	1230,83
200,87	1247,21
201,09	1298,41
201,31	1224,69
201,53	1320,94
201,75	1241,07
201,97	1232,88
202,19	1316,84
202,41	1228,78
202,63	1304,56
202,85	1261,55
203,07	1277,93
203,29	1282,03
203,51	1228,78
203,73	1292,27
203,95	1214,45
204,17	1320,94
204,39	1288,17
204,61	1265,64
204,83	1292,27
205,05	1310,70
205,27	1204,21
205,49	1294,32
205,71	1255,40
205,93	1226,73
206,15	1294,32
206,37	1318,89
206,59	1255,40
206,81	1265,64
207,03	1316,84
207,25	1179,63
207,47	1247,21
207,69	1331,18
207,91	1292,27
208,13	1294,32
208,34	1273,84
208,56	1304,56
208,78	1230,83
209,00	1204,21
209,22	1318,89
209,44	1318,89
209,66	1286,12
209,88	1294,32
210,10	1249,26
210,32	1259,50
210,54	1269,74
210,76	1251,31
210,98	1333,23
211,20	1218,54
211,42	1263,60
211,64	1259,50
211,86	1263,60
212,08	1253,36
212,30	1277,93
212,52	1255,40
212,74	1312,75
212,96	1284,08
213,17	1296,36
213,39	1263,60
213,61	1310,70
213,83	1300,46
214,05	1216,49
214,27	1200,11
214,49	1255,40
214,71	1296,36
214,93	1222,64
215,15	1214,45
215,37	1226,73
215,59	1302,51
215,81	1249,26
216,03	1245,16
216,24	1275,88
216,46	1251,31
216,68	1222,64
216,90	1241,07
217,12	1314,80
217,34	1261,55
217,56	1282,03
217,78	1294,32
218,00	1245,16
218,22	1253,36
218,44	1318,89
218,66	1226,73
218,87	1232,88
219,09	1290,22
219,31	1310,70
219,53	1239,02
219,75	1208,30
219,97	1320,94
220,19	1300,46
220,41	1282,03
220,63	1263,60
220,85	1222,64
221,06	1249,26
221,28	1265,64
221,50	1298,41
221,72	1255,40
221,94	1327,08
222,16	1255,40
222,38	1337,32
222,60	1251,31
222,82	1304,56
223,03	1267,69
223,25	1253,36
223,47	1322,99
223,69	1269,74
223,91	1351,66
224,13	1279,98
224,35	1290,22
224,57	1322,99
224,78	1337,32
225,00	1261,55
225,22	1261,55
225,44	1271,79
225,66	1279,98
225,88	1269,74
226,10	1249,26
226,32	1198,06
226,53	1302,51
226,75	1279,98
226,97	1255,40
227,19	1253,36
227,41	1263,60
227,63	1263,60
227,85	1265,64
228,06	1292,27
228,28	1271,79
228,50	1253,36
228,72	1230,83
228,94	1318,89
229,16	1284,08
229,37	1337,32
229,59	1275,88
229,81	1298,41
230,03	1200,11
230,25	1261,55
230,47	1378,28
230,69	1296,36
230,90	1347,56
231,12	1228,78
231,34	1286,12
231,56	1312,75
231,78	1255,40
232,00	1247,21
232,21	1249,26
232,43	1163,25
232,65	1239,02
232,87	1322,99
233,09	1290,22
233,30	1290,22
233,52	1322,99
233,74	1196,01
233,96	1255,40
234,18	1275,88
234,40	1271,79
234,61	1249,26
234,83	1329,13
235,05	1341,42
235,27	1300,46
235,49	1273,84
235,70	1290,22
235,92	1343,47
236,14	1275,88
236,36	1279,98
236,58	1230,83
236,79	1302,51
237,01	1253,36
237,23	1265,64
237,45	1322,99
237,67	1239,02
237,88	1331,18
238,10	1296,36
238,32	1234,93
238,54	1243,12
238,76	1265,64
238,97	1196,01
239,19	1302,51
239,41	1261,55
239,63	1327,08
239,85	1296,36
240,06	1253,36
240,28	1277,93
240,50	1251,31
240,72	1273,84
240,93	1251,31
241,15	1282,03
241,37	1279,98
241,59	1282,03
241,81	1261,55
242,02	1304,56
242,24	1253,36
242,46	1218,54
242,68	1241,07
242,89	1271,79
243,11	1286,12
243,33	1361,90
243,55	1273,84
243,76	1247,21
243,98	1312,75
244,20	1271,79
244,42	1265,64
244,64	1277,93
244,85	1277,93
245,07	1263,60
245,29	1224,69
245,51	1255,40
245,72	1316,84
245,94	1304,56
246,16	1232,88
246,38	1265,64
246,59	1261,55
246,81	1234,93
247,03	1239,02
247,24	1257,45
247,46	1302,51
247,68	1302,51
247,90	1265,64
248,11	1191,92
248,33	1304,56
248,55	1236,97
248,77	1173,49
248,98	1300,46
249,20	1265,64
249,42	1265,64
249,64	1265,64
249,85	1255,40
250,07	1228,78
250,29	1282,03
250,50	1300,46
250,72	1296,36
250,94	1318,89
251,16	1265,64
251,37	1296,36
251,59	1306,60
251,81	1288,17
252,02	1255,40
252,24	1292,27
252,46	1288,17
252,68	1343,47
252,89	1277,93
253,11	1294,32
253,33	1316,84
253,54	1361,90
253,76	1239,02
253,98	1267,69
254,20	1275,88
254,41	1284,08
254,63	1306,60
254,85	1271,79
255,06	1341,42
255,28	1269,74
255,50	1249,26
255,71	1304,56
255,93	1277,93
256,15	1210,35
256,36	1253,36
256,58	1292,27
256,80	1230,83
257,02	1265,64
257,23	1216,49
257,45	1284,08
257,67	1230,83
257,88	1302,51
258,10	1339,37
258,32	1218,54
258,53	1247,21
258,75	1222,64
258,97	1193,97
259,18	1329,13
259,40	1304,56
259,62	1312,75
259,83	1333,23
260,05	1322,99
260,27	1325,04
260,48	1282,03
260,70	1210,35
260,92	1220,59
261,13	1279,98
261,35	1261,55
261,57	1329,13
261,78	1161,20
262,00	1298,41
262,22	1292,27
262,43	1296,36
262,65	1251,31
262,86	1236,97
263,08	1298,41
263,30	1249,26
263,51	1255,40
263,73	1306,60
263,95	1290,22
264,16	1232,88
264,38	1253,36
264,60	1312,75
264,81	1259,50
265,03	1275,88
265,25	1290,22
265,46	1304,56
265,68	1296,36
265,89	1257,45
266,11	1279,98
266,33	1236,97
266,54	1286,12
266,76	1245,16
266,98	1265,64
267,19	1232,88
267,41	1282,03
267,62	1243,12
267,84	1271,79
268,06	1179,63
268,27	1232,88
268,49	1265,64
268,70	1273,84
268,92	1236,97
269,14	1239,02
269,35	1267,69
269,57	1263,60
269,79	1279,98
270,00	1347,56
270,22	1241,07
270,43	1208,30
270,65	1236,97
270,87	1251,31
271,08	1300,46
271,30	1294,32
271,51	1314,80
271,73	1243,12
271,95	1314,80
272,16	1259,50
272,38	1279,98
272,59	1300,46
272,81	1335,28
273,02	1185,77
273,24	1273,84
273,46	1331,18
273,67	1249,26
273,89	1271,79
274,10	1263,60
274,32	1259,50
274,54	1370,09
274,75	1232,88
274,97	1292,27
275,18	1386,47
275,40	1261,55
275,61	1261,55
275,83	1286,12
276,05	1257,45
276,26	1226,73
276,48	1282,03
276,69	1327,08
276,91	1265,64
277,12	1302,51
277,34	1214,45
277,55	1265,64
277,77	1259,50
277,99	1247,21
278,20	1208,30
278,42	1312,75
278,63	1279,98
278,85	1296,36
279,06	1177,58
279,28	1249,26
279,49	1234,93
279,71	1265,64
279,93	1298,41
280,14	1263,60
280,36	1259,50
280,57	1251,31
280,79	1243,12
281,00	1306,60
281,22	1245,16
281,43	1249,26
281,65	1241,07
281,86	1318,89
282,08	1292,27
282,29	1212,40
282,51	1351,66
282,73	1249,26
282,94	1228,78
283,16	1331,18
283,37	1277,93
283,59	1296,36
283,80	1282,03
284,02	1282,03
284,23	1282,03
284,45	1296,36
284,66	1294,32
284,88	1212,40
285,09	1290,22
285,31	1206,25
285,52	1277,93
285,74	1253,36
285,95	1206,25
286,17	1282,03
286,38	1288,17
286,60	1310,70
286,81	1292,27
287,03	1228,78
287,24	1292,27
287,46	1189,87
287,67	1245,16
287,89	1243,12
288,10	1253,36
288,32	1288,17
288,53	1294,32
288,75	1239,02
288,96	1294,32
289,18	1247,21
289,39	1226,73
289,61	1249,26
289,82	1310,70
290,04	1327,08
290,25	1290,22
290,47	1329,13
290,68	1249,26
290,90	1257,45
291,11	1282,03
291,33	1263,60
291,54	1234,93
291,76	1327,08
291,97	1320,94
292,18	1337,32
292,40	1222,64
292,61	1275,88
292,83	1198,06
293,04	1294,32
293,26	1263,60
293,47	1257,45
293,69	1265,64
293,90	1288,17
294,12	1239,02
294,33	1282,03
294,55	1290,22
294,76	1290,22
294,97	1349,61
295,19	1279,98
295,40	1253,36
295,62	1316,84
295,83	1329,13
296,05	1253,36
296,26	1257,45
296,48	1265,64
296,69	1304,56
296,90	1224,69
297,12	1275,88
297,33	1308,65
297,55	1239,02
297,76	1265,64
297,98	1247,21
298,19	1206,25
298,41	1314,80
298,62	1302,51
298,83	1218,54
299,05	1247,21
299,26	1253,36
299,48	1232,88
299,69	1286,12
299,90	1267,69
300,12	1245,16
300,33	1126,38
300,55	1255,40
300,76	1282,03
300,98	1228,78
301,19	1249,26
301,40	1222,64
301,62	1267,69
301,83	1337,32
302,05	1310,70
302,26	1218,54
302,47	1288,17
302,69	1273,84
302,90	1257,45
303,12	1284,08
303,33	1288,17
303,54	1341,42
303,76	1277,93
303,97	1251,31
304,19	1333,23
304,40	1304,56
304,61	1327,08
304,83	1265,64
305,04	1251,31
305,26	1273,84
305,47	1263,60
305,68	1296,36
305,90	1310,70
306,11	1226,73
306,33	1245,16
306,54	1249,26
306,75	1267,69
306,97	1208,30
307,18	1226,73
307,39	1310,70
307,61	1245,16
307,82	1212,40
308,04	1247,21
308,25	1298,41
308,46	1222,64
308,68	1253,36
308,89	1200,11
309,10	1322,99
309,32	1232,88
309,53	1265,64
309,74	1232,88
309,96	1243,12
310,17	1277,93
310,39	1271,79
310,60	1329,13
310,81	1310,70
311,03	1277,93
311,24	1214,45
311,45	1259,50
311,67	1298,41
311,88	1273,84
312,09	1296,36
312,31	1327,08
312,52	1273,84
312,73	1257,45
312,95	1241,07
313,16	1265,64
313,37	1210,35
313,59	1214,45
313,80	1257,45
314,01	1273,84
314,23	1226,73
314,44	1241,07
314,65	1232,88
314,87	1322,99
315,08	1208,30
315,29	1257,45
315,51	1224,69
315,72	1292,27
315,93	1200,11
316,15	1275,88
316,36	1222,64
316,57	1300,46
316,79	1269,74
317,00	1327,08
317,21	1230,83
317,43	1261,55
317,64	1236,97
317,85	1210,35
318,07	1247,21
318,28	1279,98
318,49	1284,08
318,70	1206,25
318,92	1302,51
319,13	1275,88
319,34	1179,63
319,56	1257,45
319,77	1322,99
319,98	1347,56
320,20	1261,55
320,41	1290,22
320,62	1271,79
320,83	1290,22
321,05	1294,32
321,26	1277,93
321,47	1239,02
321,69	1277,93
321,90	1298,41
322,11	1294,32
322,32	1245,16
322,54	1239,02
322,75	1314,80
322,96	1308,65
323,18	1261,55
323,39	1261,55
323,60	1257,45
323,81	1255,40
324,03	1218,54
324,24	1345,52
324,45	1292,27
324,66	1304,56
324,88	1282,03
325,09	1282,03
325,30	1329,13
325,52	1259,50
325,73	1200,11
325,94	1292,27
326,15	1282,03
326,37	1296,36
326,58	1214,45
326,79	1282,03
327,00	1277,93
327,22	1298,41
327,43	1239,02
327,64	1259,50
327,85	1304,56
328,07	1337,32
328,28	1267,69
328,49	1345,52
328,70	1296,36
328,92	1271,79
329,13	1263,60
329,34	1277,93
329,55	1275,88
329,76	1286,12
329,98	1296,36
330,19	1325,04
330,40	1234,93
330,61	1265,64
330,83	1253,36
331,04	1273,84
331,25	1353,71
331,46	1294,32
331,68	1273,84
331,89	1247,21
332,10	1308,65
332,31	1234,93
332,52	1320,94
332,74	1243,12
332,95	1196,01
333,16	1277,93
333,37	1284,08
333,58	1290,22
333,80	1249,26
334,01	1228,78
334,22	1214,45
334,43	1193,97
334,64	1257,45
334,86	1261,55
335,07	1265,64
335,28	1294,32
335,49	1245,16
335,70	1267,69
335,92	1320,94
336,13	1273,84
336,34	1265,64
336,55	1316,84
336,76	1196,01
336,98	1306,60
337,19	1265,64
337,40	1347,56
337,61	1261,55
337,82	1169,39
338,04	1245,16
338,25	1259,50
338,46	1249,26
338,67	1198,06
338,88	1286,12
339,09	1290,22
339,31	1234,93
339,52	1304,56
339,73	1267,69
339,94	1353,71
340,15	1275,88
340,36	1239,02
340,58	1355,76
340,79	1204,21
341,00	1249,26
341,21	1216,49
341,42	1185,77
341,63	1292,27
341,85	1277,93
342,06	1249,26
342,27	1269,74
342,48	1349,61
342,69	1228,78
342,90	1290,22
343,12	1273,84
343,33	1247,21
343,54	1253,36
343,75	1261,55
343,96	1302,51
344,17	1224,69
344,38	1290,22
344,60	1302,51
344,81	1245,16
345,02	1308,65
345,23	1300,46
345,44	1322,99
345,65	1294,32
345,86	1282,03
346,07	1279,98
346,29	1302,51
346,50	1284,08
346,71	1288,17
346,92	1294,32
347,13	1181,68
347,34	1220,59
347,55	1304,56
347,76	1286,12
347,98	1228,78
348,19	1308,65
348,40	1257,45
348,61	1236,97
348,82	1308,65
349,03	1177,58
349,24	1292,27
349,45	1277,93
349,66	1222,64
349,88	1206,25
350,09	1249,26
350,30	1267,69
350,51	1374,19
350,72	1236,97
350,93	1298,41
351,14	1310,70
351,35	1222,64
351,56	1255,40
351,77	1247,21
351,99	1304,56
352,20	1267,69
352,41	1314,80
352,62	1290,22
352,83	1267,69
353,04	1263,60
353,25	1284,08
353,46	1263,60
353,67	1282,03
353,88	1314,80
354,09	1267,69
354,30	1251,31
354,52	1198,06
354,73	1290,22
354,94	1265,64
355,15	1216,49
355,36	1296,36
355,57	1333,23
355,78	1296,36
355,99	1179,63
356,20	1253,36
356,41	1220,59
356,62	1253,36
356,83	1290,22
357,04	1290,22
357,25	1312,75
357,46	1320,94
357,68	1300,46
357,89	1224,69
358,10	1234,93
358,31	1218,54
358,52	1157,10
358,73	1265,64
358,94	1255,40
359,15	1226,73
359,36	1310,70
359,57	1251,31
359,78	1267,69
359,99	1269,74
360,20	1259,50
360,41	1331,18
360,62	1261,55
360,83	1204,21
361,04	1198,06
361,25	1277,93
361,46	1257,45
361,67	1286,12
361,88	1279,98
362,09	1279,98
362,30	1271,79
362,51	1351,66
362,72	1335,28
362,93	1247,21
363,14	1222,64
363,35	1271,79
363,56	1308,65
363,78	1304,56
363,99	1282,03
364,20	1220,59
364,41	1259,50
364,62	1300,46
364,83	1234,93
365,04	1251,31
365,25	1263,60
365,46	1234,93
365,67	1335,28
365,88	1284,08
366,09	1292,27
366,30	1226,73
366,51	1224,69
366,72	1216,49
366,93	1255,40
367,14	1294,32
367,35	1279,98
367,56	1261,55
367,77	1255,40
367,98	1286,12
368,18	1259,50
368,39	1236,97
368,60	1265,64
368,81	1288,17
369,02	1304,56
369,23	1259,50
369,44	1224,69
369,65	1218,54
369,86	1320,94
370,07	1222,64
370,28	1255,40
370,49	1216,49
370,70	1288,17
370,91	1284,08
371,12	1200,11
371,33	1351,66
371,54	1286,12
371,75	1239,02
371,96	1269,74
372,17	1288,17
372,38	1261,55
372,59	1247,21
372,80	1241,07
373,01	1222,64
373,22	1265,64
373,43	1245,16
373,64	1290,22
373,85	1273,84
374,06	1282,03
374,26	1269,74
374,47	1306,60
374,68	1325,04
374,89	1290,22
375,10	1245,16
375,31	1349,61
375,52	1277,93
375,73	1236,97
375,94	1286,12
376,15	1296,36
376,36	1247,21
376,57	1259,50
376,78	1232,88
376,99	1306,60
377,20	1232,88
377,40	1218,54
377,61	1243,12
377,82	1279,98
378,03	1275,88
378,24	1245,16
378,45	1277,93
378,66	1247,21
378,87	1251,31
379,08	1247,21
379,29	1251,31
379,50	1363,95
379,71	1202,16
379,91	1257,45
380,12	1228,78
380,33	1265,64
380,54	1259,50
380,75	1247,21
380,96	1286,12
381,17	1306,60
381,38	1282,03
381,59	1228,78
381,80	1288,17
382,00	1239,02
382,21	1302,51
382,42	1228,78
382,63	1196,01
382,84	1355,76
383,05	1263,60
383,26	1249,26
383,47	1314,80
383,68	1292,27
383,88	1265,64
384,09	1296,36
384,30	1279,98
384,51	1300,46
384,72	1251,31
384,93	1241,07
385,14	1275,88
385,35	1263,60
385,55	1308,65
385,76	1273,84
385,97	1284,08
386,18	1257,45
386,39	1271,79
386,60	1271,79
386,81	1216,49
387,02	1325,04
387,22	1230,83
387,43	1304,56
387,64	1261,55
387,85	1279,98
388,06	1257,45
388,27	1241,07
388,48	1269,74
388,68	1257,45
388,89	1267,69
389,10	1310,70
389,31	1206,25
389,52	1331,18
389,73	1165,29
389,93	1257,45
390,14	1282,03
390,35	1282,03
390,56	1251,31
390,77	1196,01
390,98	1247,21
391,18	1279,98
391,39	1191,92
391,60	1208,30
391,81	1224,69
392,02	1214,45
392,23	1271,79
392,43	1249,26
392,64	1251,31
392,85	1202,16
393,06	1275,88
393,27	1271,79
393,47	1249,26
393,68	1273,84
393,89	1361,90
394,10	1245,16
394,31	1206,25
394,52	1253,36
394,72	1193,97
394,93	1343,47
395,14	1232,88
395,35	1282,03
395,56	1249,26
395,76	1243,12
395,97	1245,16
396,18	1357,80
396,39	1224,69
396,60	1198,06
396,80	1226,73
397,01	1337,32
397,22	1325,04
397,43	1282,03
397,64	1316,84
397,84	1314,80
398,05	1249,26
398,26	1290,22
398,47	1216,49
398,67	1218,54
398,88	1243,12
399,09	1196,01
399,30	1320,94
399,51	1265,64
399,71	1263,60
399,92	1355,76
400,13	1206,25
400,34	1282,03
400,54	1325,04
400,75	1239,02
400,96	1218,54
401,17	1273,84
401,37	1202,16
401,58	1306,60
401,79	1284,08
402,00	1314,80
402,21	1239,02
402,41	1239,02
402,62	1259,50
402,83	1273,84
403,04	1290,22
403,24	1288,17
403,45	1234,93
403,66	1226,73
403,87	1232,88
404,07	1337,32
404,28	1263,60
404,49	1347,56
404,70	1255,40
404,90	1243,12
405,11	1210,35
405,32	1247,21
405,52	1273,84
405,73	1208,30
405,94	1214,45
406,15	1318,89
406,35	1271,79
406,56	1327,08
406,77	1263,60
406,98	1325,04
407,18	1259,50
407,39	1218,54
407,60	1265,64
407,80	1306,60
408,01	1296,36
408,22	1208,30
408,43	1245,16
408,63	1267,69
408,84	1265,64
409,05	1288,17
409,25	1216,49
409,46	1247,21
409,67	1261,55
409,88	1288,17
410,08	1284,08
410,29	1259,50
410,50	1220,59
410,70	1224,69
410,91	1220,59
411,12	1245,16
411,32	1245,16
411,53	1257,45
411,74	1243,12
411,95	1234,93
412,15	1265,64
412,36	1325,04
412,57	1271,79
412,77	1185,77
412,98	1263,60
413,19	1232,88
413,39	1277,93
413,60	1239,02
413,81	1290,22
414,01	1249,26
414,22	1220,59
414,43	1279,98
414,63	1269,74
414,84	1257,45
415,05	1269,74
415,25	1306,60
415,46	1253,36
415,67	1253,36
415,87	1241,07
416,08	1296,36
416,29	1302,51
416,49	1247,21
416,70	1322,99
416,91	1277,93
417,11	1318,89
417,32	1249,26
417,53	1269,74
417,73	1261,55
417,94	1220,59
418,15	1255,40
418,35	1261,55
418,56	1236,97
418,77	1329,13
418,97	1306,60
419,18	1335,28
419,38	1261,55
419,59	1353,71
419,80	1316,84
420,00	1296,36
420,21	1298,41
420,42	1312,75
420,62	1206,25
420,83	1267,69
421,04	1249,26
421,24	1306,60
421,45	1273,84
421,65	1339,37
421,86	1306,60
422,07	1220,59
422,27	1345,52
422,48	1273,84
422,69	1390,57
422,89	1255,40
423,10	1247,21
423,30	1263,60
423,51	1308,65
423,72	1343,47
423,92	1316,84
424,13	1314,80
424,33	1255,40
424,54	1269,74
424,75	1284,08
424,95	1255,40
425,16	1261,55
425,36	1290,22
425,57	1263,60
425,78	1273,84
425,98	1288,17
426,19	1251,31
426,39	1232,88
426,60	1296,36
426,81	1294,32
427,01	1193,97
427,22	1304,56
427,42	1253,36
427,63	1218,54
427,83	1296,36
428,04	1218,54
428,25	1265,64
428,45	1236,97
428,66	1331,18
428,86	1220,59
429,07	1257,45
429,28	1318,89
429,48	1251,31
429,69	1300,46
429,89	1310,70
430,10	1224,69
430,30	1296,36
430,51	1292,27
430,71	1286,12
430,92	1214,45
431,13	1245,16
431,33	1243,12
431,54	1257,45
431,74	1394,67
431,95	1310,70
432,15	1259,50
432,36	1239,02
432,56	1306,60
432,77	1226,73
432,98	1298,41
433,18	1279,98
433,39	1327,08
433,59	1216,49
433,80	1363,95
434,00	1257,45
434,21	1331,18
434,41	1249,26
434,62	1253,36
434,82	1263,60
435,03	1183,73
435,23	1314,80
435,44	1318,89
435,64	1257,45
435,85	1275,88
436,06	1228,78
436,26	1245,16
436,47	1275,88
436,67	1322,99
436,88	1234,93
437,08	1333,23
437,29	1304,56
437,49	1294,32
437,70	1306,60
437,90	1312,75
438,11	1288,17
438,31	1259,50
438,52	1284,08
438,72	1198,06
438,93	1302,51
439,13	1271,79
439,34	1251,31
439,54	1228,78
439,75	1308,65
439,95	1292,27
440,16	1277,93
440,36	1290,22
440,57	1329,13
440,77	1341,42
440,98	1255,40
441,18	1271,79
441,39	1310,70
441,59	1277,93
441,80	1306,60
442,00	1312,75
442,21	1241,07
442,41	1275,88
442,62	1292,27
442,82	1226,73
443,02	1224,69
443,23	1294,32
443,43	1253,36
443,64	1370,09
443,84	1255,40
444,05	1282,03
444,25	1310,70
444,46	1314,80
444,66	1259,50
444,87	1357,80
445,07	1296,36
445,28	1214,45
445,48	1257,45
445,69	1243,12
445,89	1222,64
446,09	1357,80
446,30	1282,03
446,50	1310,70
446,71	1277,93
446,91	1212,40
447,12	1202,16
447,32	1269,74
447,53	1282,03
447,73	1308,65
447,93	1363,95
448,14	1277,93
448,34	1273,84
448,55	1228,78
448,75	1277,93
448,96	1357,80
449,16	1234,93
449,36	1282,03
449,57	1331,18
449,77	1267,69
449,98	1220,59
450,18	1261,55
450,39	1257,45
450,59	1247,21
450,79	1269,74
451,00	1220,59
451,20	1234,93
451,41	1275,88
451,61	1282,03
451,81	1249,26
452,02	1257,45
452,22	1230,83
452,43	1249,26
452,63	1277,93
452,84	1236,97
453,04	1306,60
453,24	1255,40
453,45	1255,40
453,65	1232,88
453,86	1275,88
454,06	1290,22
454,26	1251,31
454,47	1241,07
454,67	1318,89
454,87	1267,69
455,08	1232,88
455,28	1263,60
455,49	1304,56
455,69	1327,08
455,89	1318,89
456,10	1304,56
456,30	1234,93
456,51	1183,73
456,71	1296,36
456,91	1208,30
457,12	1298,41
457,32	1312,75
457,52	1288,17
457,73	1312,75
457,93	1298,41
458,14	1239,02
458,34	1275,88
458,54	1261,55
458,75	1253,36
458,95	1298,41
459,15	1282,03
459,36	1263,60
459,56	1282,03
459,76	1277,93
459,97	1249,26
460,17	1306,60
460,37	1279,98
460,58	1212,40
460,78	1206,25
460,99	1292,27
461,19	1214,45
461,39	1249,26
461,60	1312,75
461,80	1247,21
462,00	1236,97
462,21	1267,69
462,41	1222,64
462,61	1273,84
462,82	1271,79
463,02	1290,22
463,22	1255,40
463,43	1314,80
463,63	1333,23
463,83	1220,59
464,04	1282,03
464,24	1314,80
464,44	1294,32
464,64	1243,12
464,85	1302,51
465,05	1269,74
465,25	1253,36
465,46	1290,22
465,66	1337,32
465,86	1325,04
466,07	1232,88
466,27	1232,88
466,47	1292,27
466,68	1245,16
466,88	1290,22
467,08	1228,78
467,29	1292,27
467,49	1265,64
467,69	1249,26
467,89	1239,02
468,10	1261,55
468,30	1306,60
468,50	1249,26
468,71	1234,93
468,91	1257,45
469,11	1245,16
469,31	1255,40
469,52	1296,36
469,72	1282,03
469,92	1304,56
470,13	1255,40
470,33	1265,64
470,53	1300,46
470,73	1314,80
470,94	1296,36
471,14	1196,01
471,34	1320,94
471,54	1241,07
471,75	1304,56
471,95	1265,64
472,15	1247,21
472,36	1290,22
472,56	1296,36
472,76	1265,64
472,96	1259,50
473,17	1253,36
473,37	1296,36
473,57	1216,49
473,77	1265,64
473,98	1298,41
474,18	1316,84
474,38	1200,11
474,58	1265,64
474,79	1228,78
474,99	1224,69
475,19	1232,88
475,39	1277,93
475,60	1279,98
475,80	1273,84
476,00	1265,64
476,20	1245,16
476,41	1249,26
476,61	1249,26
476,81	1208,30
477,01	1228,78
477,21	1296,36
477,42	1216,49
477,62	1284,08
477,82	1214,45
478,02	1366,00
478,23	1204,21
478,43	1294,32
478,63	1214,45
478,83	1239,02
479,03	1200,11
479,24	1263,60
479,44	1271,79
479,64	1208,30
479,84	1249,26
480,04	1288,17
480,25	1282,03
480,45	1210,35
480,65	1292,27
480,85	1271,79
481,06	1232,88
481,26	1284,08
481,46	1290,22
481,66	1284,08
481,86	1245,16
482,06	1245,16
482,27	1296,36
482,47	1265,64
482,67	1292,27
482,87	1263,60
483,07	1300,46
483,28	1286,12
483,48	1232,88
483,68	1259,50
483,88	1327,08
484,08	1302,51
484,29	1255,40
484,49	1261,55
484,69	1241,07
484,89	1187,82
485,09	1271,79
485,29	1257,45
485,50	1286,12
485,70	1249,26
485,90	1290,22
486,10	1331,18
486,30	1247,21
486,50	1167,34
486,71	1222,64
486,91	1261,55
487,11	1257,45
487,31	1243,12
487,51	1294,32
487,71	1253,36
487,91	1284,08
488,12	1245,16
488,32	1214,45
488,52	1220,59
488,72	1279,98
488,92	1249,26
489,12	1296,36
489,32	1253,36
489,53	1316,84
489,73	1271,79
489,93	1271,79
490,13	1271,79
490,33	1239,02
490,53	1241,07
490,73	1255,40
490,94	1314,80
491,14	1200,11
491,34	1257,45
491,54	1366,00
491,74	1279,98
491,94	1245,16
492,14	1249,26
492,34	1241,07
492,54	1288,17
492,75	1259,50
492,95	1316,84
493,15	1284,08
493,35	1257,45
493,55	1308,65
493,75	1357,80
493,95	1275,88
494,15	1259,50
494,35	1290,22
494,56	1304,56
494,76	1320,94
494,96	1286,12
495,16	1282,03
495,36	1265,64
495,56	1239,02
495,76	1286,12
495,96	1243,12
496,16	1279,98
496,36	1302,51
496,56	1318,89
496,77	1333,23
496,97	1269,74
497,17	1230,83
497,37	1288,17
497,57	1284,08
497,77	1241,07
497,97	1300,46
498,17	1232,88
498,37	1294,32
498,57	1327,08
498,77	1331,18
498,97	1224,69
499,17	1239,02
499,38	1251,31
499,58	1265,64
499,78	1261,55
499,98	1206,25
500,18	1400,81
500,38	1306,60
500,58	1300,46
500,78	1288,17
500,98	1196,01
501,18	1239,02
501,38	1247,21
501,58	1288,17
501,78	1294,32
501,98	1239,02
502,18	1310,70
502,38	1271,79
502,58	1275,88
502,78	1308,65
502,98	1282,03
503,18	1220,59
503,38	1320,94
503,59	1290,22
503,79	1226,73
503,99	1294,32
504,19	1228,78
504,39	1228,78
504,59	1306,60
504,79	1236,97
504,99	1263,60
505,19	1312,75
505,39	1234,93
505,59	1284,08
505,79	1275,88
505,99	1312,75
506,19	1241,07
506,39	1271,79
506,59	1271,79
506,79	1167,34
506,99	1335,28
507,19	1273,84
507,39	1206,25
507,59	1277,93
507,79	1290,22
507,99	1259,50
508,19	1322,99
508,39	1208,30
508,59	1257,45
508,79	1304,56
508,99	1302,51
509,19	1308,65
509,39	1298,41
509,59	1212,40
509,79	1267,69
509,99	1310,70
510,19	1363,95
510,39	1286,12
510,59	1359,85
510,79	1273,84
510,99	1230,83
511,19	1294,32
511,39	1296,36
511,59	1191,92
511,79	1210,35
511,99	1263,60
512,19	1265,64
512,38	1245,16
512,58	1292,27
512,78	1277,93
512,98	1277,93
513,18	1249,26
513,38	1249,26
513,58	1265,64
513,78	1308,65
513,98	1290,22
514,18	1212,40
514,38	1257,45
514,58	1247,21
514,78	1263,60
514,98	1296,36
515,18	1253,36
515,38	1261,55
515,58	1245,16
515,78	1218,54
515,98	1206,25
516,18	1294,32
516,38	1249,26
516,57	1304,56
516,77	1296,36
516,97	1288,17
517,17	1214,45
517,37	1241,07
517,57	1275,88
517,77	1245,16
517,97	1206,25
518,17	1318,89
518,37	1247,21
518,57	1257,45
518,77	1259,50
518,97	1322,99
519,16	1263,60
519,36	1269,74
519,56	1247,21
519,76	1241,07
519,96	1269,74
520,16	1277,93
520,36	1273,84
520,56	1200,11
520,76	1222,64
520,96	1265,64
521,16	1279,98
521,35	1249,26
521,55	1232,88
521,75	1232,88
521,95	1347,56
522,15	1327,08
522,35	1206,25
522,55	1249,26
522,75	1193,97
522,95	1257,45
523,14	1257,45
523,34	1243,12
523,54	1228,78
523,74	1243,12
523,94	1263,60
524,14	1318,89
524,34	1279,98
524,54	1198,06
524,73	1296,36
524,93	1253,36
525,13	1282,03
525,33	1253,36
525,53	1257,45
525,73	1220,59
525,93	1300,46
526,13	1218,54
526,32	1255,40
526,52	1183,73
526,72	1247,21
526,92	1302,51
527,12	1251,31
527,32	1294,32
527,52	1286,12
527,71	1261,55
527,91	1298,41
528,11	1290,22
528,31	1210,35
528,51	1269,74
528,71	1275,88
528,90	1245,16
529,10	1253,36
529,30	1257,45
529,50	1249,26
529,70	1261,55
529,90	1265,64
530,09	1187,82
530,29	1282,03
530,49	1325,04
530,69	1284,08
530,89	1183,73
531,09	1224,69
531,28	1241,07
531,48	1249,26
531,68	1279,98
531,88	1300,46
532,08	1243,12
532,28	1269,74
532,47	1239,02
532,67	1249,26
532,87	1257,45
533,07	1224,69
533,27	1255,40
533,46	1351,66
533,66	1308,65
533,86	1239,02
534,06	1220,59
534,26	1277,93
534,45	1202,16
534,65	1310,70
534,85	1251,31
535,05	1312,75
535,25	1249,26
535,44	1206,25
535,64	1292,27
535,84	1251,31
536,04	1232,88
536,24	1292,27
536,43	1298,41
536,63	1290,22
536,83	1286,12
537,03	1220,59
537,22	1241,07
537,42	1234,93
537,62	1232,88
537,82	1320,94
538,02	1257,45
538,21	1191,92
538,41	1263,60
538,61	1212,40
538,81	1234,93
539,00	1236,97
539,20	1226,73
539,40	1191,92
539,60	1298,41
539,79	1253,36
539,99	1236,97
540,19	1261,55
540,39	1325,04
540,58	1300,46
540,78	1265,64
540,98	1282,03
541,18	1271,79
541,37	1247,21
541,57	1239,02
541,77	1230,83
541,97	1257,45
542,16	1234,93
542,36	1286,12
542,56	1253,36
542,76	1253,36
542,95	1236,97
543,15	1202,16
543,35	1296,36
543,54	1249,26
543,74	1200,11
543,94	1204,21
544,14	1183,73
544,33	1294,32
544,53	1271,79
544,73	1234,93
544,93	1193,97
545,12	1251,31
545,32	1308,65
545,52	1263,60
545,71	1257,45
545,91	1230,83
546,11	1228,78
546,30	1241,07
546,50	1298,41
546,70	1269,74
546,90	1218,54
547,09	1236,97
547,29	1212,40
547,49	1331,18
547,68	1298,41
547,88	1249,26
548,08	1257,45
548,27	1275,88
548,47	1259,50
548,67	1251,31
548,87	1253,36
549,06	1269,74
549,26	1273,84
549,46	1200,11
549,65	1306,60
549,85	1269,74
550,05	1253,36
550,24	1245,16
550,44	1286,12
550,64	1218,54
550,83	1318,89
551,03	1249,26
551,23	1265,64
551,42	1181,68
551,62	1294,32
551,82	1288,17
552,01	1298,41
552,21	1327,08
552,41	1257,45
552,60	1241,07
552,80	1269,74
553,00	1224,69
553,19	1253,36
553,39	1267,69
553,59	1273,84
553,78	1273,84
553,98	1249,26
554,17	1208,30
554,37	1245,16
554,57	1312,75
554,76	1261,55
554,96	1284,08
555,16	1261,55
555,35	1271,79
555,55	1247,21
555,75	1210,35
555,94	1255,40
556,14	1286,12
556,33	1269,74
556,53	1286,12
556,73	1292,27
556,92	1325,04
557,12	1259,50
557,32	1222,64
557,51	1312,75
557,71	1253,36
557,90	1249,26
558,10	1255,40
558,30	1302,51
558,49	1214,45
558,69	1312,75
558,88	1220,59
559,08	1241,07
559,28	1277,93
559,47	1226,73
559,67	1196,01
559,86	1277,93
560,06	1243,12
560,26	1290,22
560,45	1263,60
560,65	1298,41
560,84	1245,16
561,04	1210,35
561,24	1234,93
561,43	1333,23
561,63	1259,50
561,82	1232,88
562,02	1284,08
562,22	1312,75
562,41	1257,45
562,61	1376,24
562,80	1290,22
563,00	1228,78
563,19	1265,64
563,39	1335,28
563,59	1241,07
563,78	1308,65
563,98	1316,84
564,17	1247,21
564,37	1181,68
564,56	1273,84
564,76	1294,32
564,96	1288,17
565,15	1226,73
565,35	1226,73
565,54	1245,16
565,74	1277,93
565,93	1267,69
566,13	1325,04
566,32	1310,70
566,52	1255,40
566,71	1261,55
566,91	1236,97
567,11	1275,88
567,30	1228,78
567,50	1220,59
567,69	1265,64
567,89	1341,42
568,08	1234,93
568,28	1314,80
568,47	1220,59
568,67	1234,93
568,86	1220,59
569,06	1271,79
569,25	1273,84
569,45	1265,64
569,64	1314,80
569,84	1210,35
570,04	1216,49
570,23	1255,40
570,43	1239,02
570,62	1265,64
570,82	1290,22
571,01	1210,35
571,21	1308,65
571,40	1249,26
571,60	1220,59
571,79	1277,93
571,99	1316,84
572,18	1300,46
572,38	1226,73
572,57	1257,45
572,77	1288,17
572,96	1300,46
573,16	1224,69
573,35	1236,97
573,55	1273,84
573,74	1263,60
573,94	1273,84
574,13	1267,69
574,33	1282,03
574,52	1322,99
574,71	1271,79
574,91	1222,64
575,10	1355,76
575,30	1265,64
575,49	1261,55
575,69	1273,84
575,88	1251,31
576,08	1286,12
576,27	1282,03
576,47	1243,12
576,66	1230,83
576,86	1302,51
577,05	1271,79
577,25	1202,16
577,44	1249,26
577,64	1245,16
577,83	1269,74
578,02	1224,69
578,22	1282,03
578,41	1320,94
578,61	1304,56
578,80	1226,73
579,00	1228,78
579,19	1296,36
579,39	1265,64
579,58	1351,66
579,77	1275,88
579,97	1327,08
580,16	1316,84
580,36	1259,50
580,55	1214,45
580,75	1169,39
580,94	1269,74
581,13	1179,63
581,33	1337,32
581,52	1253,36
581,72	1271,79
581,91	1312,75
582,11	1202,16
582,30	1200,11
582,49	1292,27
582,69	1308,65
582,88	1271,79
583,08	1220,59
583,27	1241,07
583,47	1273,84
583,66	1298,41
583,85	1275,88
584,05	1239,02
584,24	1208,30
584,44	1261,55
584,63	1290,22
584,82	1200,11
585,02	1193,97
585,21	1290,22
585,41	1290,22
585,60	1271,79
585,79	1294,32
585,99	1279,98
586,18	1284,08
586,37	1251,31
586,57	1279,98
586,76	1304,56
586,96	1230,83
587,15	1271,79
587,34	1243,12
587,54	1185,77
587,73	1220,59
587,93	1261,55
588,12	1333,23
588,31	1304,56
588,51	1202,16
588,70	1208,30
588,89	1306,60
589,09	1232,88
589,28	1208,30
589,47	1308,65
589,67	1220,59
589,86	1312,75
590,06	1314,80
590,25	1298,41
590,44	1230,83
590,64	1263,60
590,83	1329,13
591,02	1320,94
591,22	1331,18
591,41	1310,70
591,60	1267,69
591,80	1302,51
591,99	1302,51
592,18	1322,99
592,38	1239,02
592,57	1251,31
592,76	1218,54
592,96	1263,60
593,15	1318,89
593,34	1261,55
593,54	1208,30
593,73	1306,60
593,92	1159,15
594,12	1259,50
594,31	1298,41
594,50	1265,64
594,70	1271,79
594,89	1265,64
595,08	1314,80
595,28	1271,79
595,47	1259,50
595,66	1273,84
595,86	1222,64
596,05	1273,84
596,24	1298,41
596,43	1282,03
596,63	1253,36
596,82	1329,13
597,01	1257,45
597,21	1214,45
597,40	1290,22
597,59	1245,16
597,79	1204,21
597,98	1292,27
598,17	1273,84
598,36	1269,74
598,56	1290,22
598,75	1255,40
598,94	1210,35
599,14	1282,03
599,33	1290,22
599,52	1312,75
599,71	1294,32
599,91	1222,64
600,10	1335,28
600,29	1255,40
600,48	1308,65
600,68	1277,93
600,87	1243,12
601,06	1349,61
601,26	1193,97
601,45	1322,99
601,64	1251,31
601,83	1245,16
602,03	1243,12
602,22	1325,04
602,41	1208,30
602,60	1296,36
602,80	1335,28
602,99	1312,75
603,18	1314,80
603,37	1230,83
603,57	1236,97
603,76	1236,97
603,95	1212,40
604,14	1308,65
604,34	1241,07
604,53	1288,17
604,72	1251,31
604,91	1304,56
605,10	1214,45
605,30	1345,52
605,49	1208,30
605,68	1282,03
605,87	1257,45
606,07	1247,21
606,26	1290,22
606,45	1279,98
606,64	1335,28
606,84	1275,88
607,03	1214,45
607,22	1282,03
607,41	1308,65
607,60	1292,27
607,80	1322,99
607,99	1257,45
608,18	1255,40
608,37	1312,75
608,56	1288,17
608,76	1300,46
608,95	1193,97
609,14	1288,17
609,33	1220,59
609,52	1267,69
609,72	1273,84
609,91	1273,84
610,10	1277,93
610,29	1216,49
610,48	1269,74
610,68	1269,74
610,87	1245,16
611,06	1265,64
611,25	1269,74
611,44	1343,47
611,63	1261,55
611,83	1241,07
612,02	1232,88
612,21	1265,64
612,40	1298,41
612,59	1202,16
612,79	1296,36
612,98	1279,98
613,17	1284,08
613,36	1253,36
613,55	1298,41
613,74	1279,98
613,93	1337,32
614,13	1275,88
614,32	1185,77
614,51	1245,16
614,70	1193,97
614,89	1259,50
615,08	1185,77
615,28	1288,17
615,47	1247,21
615,66	1347,56
615,85	1198,06
616,04	1241,07
616,23	1292,27
616,42	1292,27
616,62	1306,60
616,81	1214,45
617,00	1228,78
617,19	1316,84
617,38	1269,74
617,57	1269,74
617,76	1228,78
617,95	1300,46
618,15	1247,21
618,34	1320,94
618,53	1212,40
618,72	1261,55
618,91	1251,31
619,10	1312,75
619,29	1218,54
619,48	1308,65
619,68	1304,56
619,87	1331,18
620,06	1214,45
620,25	1261,55
620,44	1277,93
620,63	1265,64
620,82	1232,88
621,01	1333,23
621,20	1310,70
621,39	1322,99
621,59	1288,17
621,78	1279,98
621,97	1243,12
622,16	1288,17
622,35	1333,23
622,54	1282,03
622,73	1296,36
622,92	1232,88
623,11	1329,13
623,30	1232,88
623,49	1239,02
623,68	1298,41
623,88	1257,45
624,07	1247,21
624,26	1308,65
624,45	1267,69
624,64	1269,74
624,83	1288,17
625,02	1210,35
625,21	1359,85
625,40	1351,66
625,59	1265,64
625,78	1269,74
625,97	1296,36
626,16	1249,26
626,35	1298,41
626,54	1320,94
626,74	1361,90
626,93	1335,28
627,12	1322,99
627,31	1249,26
627,50	1353,71
627,69	1230,83
627,88	1306,60
628,07	1277,93
628,26	1279,98
628,45	1259,50
628,64	1241,07
628,83	1239,02
629,02	1259,50
629,21	1286,12
629,40	1257,45
629,59	1275,88
629,78	1331,18
629,97	1333,23
630,16	1312,75
630,35	1327,08
630,54	1327,08
630,73	1290,22
630,92	1292,27
631,11	1333,23
631,30	1314,80
631,49	1314,80
631,68	1560,55
631,87	4947,89
632,06	19197,66
632,25	39077,29
632,44	27969,11
632,63	17446,65
632,82	15654,67
633,01	4655,03
633,20	2947,03
633,39	2234,33
633,58	2097,12
633,77	1861,60
633,96	1757,16
634,15	1757,16
634,34	1601,51
634,53	1601,51
634,72	1607,66
634,91	1538,02
635,10	1505,26
635,29	1468,39
635,48	1572,84
635,67	1447,91
635,86	1464,30
636,05	1437,67
636,24	1357,80
636,43	1284,08
636,62	1312,75
636,81	1318,89
637,00	1331,18
637,19	1318,89
637,38	1337,32
637,57	1271,79
637,76	1335,28
637,95	1314,80
638,14	1234,93
638,33	1288,17
638,52	1314,80
638,71	1296,36
638,89	1314,80
639,08	1271,79
639,27	1273,84
639,46	1269,74
639,65	1243,12
639,84	1331,18
640,03	1306,60
640,22	1296,36
640,41	1314,80
640,60	1263,60
640,79	1257,45
640,98	1263,60
641,17	1288,17
641,36	1247,21
641,55	1181,68
641,74	1292,27
641,92	1273,84
642,11	1275,88
642,30	1372,14
642,49	1273,84
642,68	1277,93
642,87	1314,80
643,06	1290,22
643,25	1294,32
643,44	1265,64
643,63	1247,21
643,82	1277,93
644,00	1288,17
644,19	1251,31
644,38	1230,83
644,57	1288,17
644,76	1366,00
644,95	1279,98
645,14	1245,16
645,33	1366,00
645,52	1284,08
645,71	1284,08
645,89	1253,36
646,08	1306,60
646,27	1308,65
646,46	1298,41
646,65	1232,88
646,84	1267,69
647,03	1296,36
647,22	1298,41
647,40	1312,75
647,59	1398,76
647,78	1279,98
647,97	1212,40
648,16	1290,22
648,35	1308,65
648,54	1253,36
648,73	1232,88
648,91	1241,07
649,10	1339,37
649,29	1343,47
649,48	1253,36
649,67	1257,45
649,86	1245,16
650,05	1261,55
650,23	1308,65
650,42	1208,30
650,61	1290,22
650,80	1273,84
650,99	1292,27
651,18	1298,41
651,36	1277,93
651,55	1263,60
651,74	1343,47
651,93	1247,21
652,12	1273,84
652,31	1232,88
652,49	1279,98
652,68	1261,55
652,87	1294,32
653,06	1224,69
653,25	1249,26
653,44	1239,02
653,62	1239,02
653,81	1241,07
654,00	1232,88
654,19	1251,31
654,38	1282,03
654,56	1232,88
654,75	1294,32
654,94	1263,60
655,13	1279,98
655,32	1259,50
655,51	1286,12
655,69	1241,07
655,88	1345,52
656,07	1245,16
656,26	1275,88
656,45	1318,89
656,63	1308,65
656,82	1261,55
657,01	1318,89
657,20	1318,89
657,38	1232,88
657,57	1230,83
657,76	1214,45
657,95	1245,16
658,14	1298,41
658,32	1292,27
658,51	1236,97
658,70	1265,64
658,89	1290,22
659,08	1284,08
659,26	1259,50
659,45	1325,04
659,64	1226,73
659,83	1304,56
660,01	1300,46
660,20	1279,98
660,39	1374,19
660,58	1183,73
660,76	1193,97
660,95	1208,30
661,14	1210,35
661,33	1290,22
661,51	1286,12
661,70	1259,50
661,89	1216,49
662,08	1265,64
662,26	1249,26
662,45	1230,83
662,64	1302,51
662,83	1261,55
663,01	1175,53
663,20	1263,60
663,39	1243,12
663,58	1306,60
663,76	1261,55
663,95	1247,21
664,14	1298,41
664,32	1193,97
664,51	1296,36
664,70	1310,70
664,89	1169,39
665,07	1279,98
665,26	1253,36
665,45	1275,88
665,64	1265,64
665,82	1279,98
666,01	1243,12
666,20	1325,04
666,38	1312,75
666,57	1206,25
666,76	1347,56
666,95	1251,31
667,13	1232,88
667,32	1273,84
667,51	1263,60
667,69	1255,40
667,88	1204,21
668,07	1275,88
668,25	1249,26
668,44	1253,36
668,63	1284,08
668,81	1279,98
669,00	1273,84
669,19	1267,69
669,38	1210,35
669,56	1290,22
669,75	1230,83
669,94	1277,93
670,12	1257,45
670,31	1267,69
670,50	1208,30
670,68	1310,70
670,87	1292,27
671,06	1210,35
671,24	1296,36
671,43	1193,97
671,62	1329,13
671,80	1210,35
671,99	1282,03
672,18	1222,64
672,36	1279,98
672,55	1279,98
672,74	1290,22
672,92	1230,83
673,11	1220,59
673,29	1206,25
673,48	1282,03
673,67	1302,51
673,85	1232,88
674,04	1232,88
674,23	1312,75
674,41	1259,50
674,60	1296,36
674,79	1314,80
674,97	1267,69
675,16	1304,56
675,34	1251,31
675,53	1294,32
675,72	1269,74
675,90	1343,47
676,09	1251,31
676,28	1294,32
676,46	1249,26
676,65	1273,84
676,83	1294,32
677,02	1236,97
677,21	1310,70
677,39	1214,45
677,58	1216,49
677,77	1290,22
677,95	1241,07
678,14	1255,40
678,32	1290,22
678,51	1196,01
678,70	1259,50
678,88	1279,98
679,07	1241,07
679,25	1243,12
679,44	1331,18
679,63	1267,69
679,81	1265,64
680,00	1245,16
680,18	1316,84
680,37	1263,60
680,55	1216,49
680,74	1292,27
680,93	1265,64
681,11	1284,08
681,30	1335,28
681,48	1294,32
681,67	1275,88
681,85	1292,27
682,04	1245,16
682,23	1265,64
682,41	1259,50
682,60	1239,02
682,78	1273,84
682,97	1247,21
683,15	1325,04
683,34	1253,36
683,53	1372,14
683,71	1265,64
683,90	1337,32
684,08	1322,99
684,27	1257,45
684,45	1224,69
684,64	1302,51
684,82	1206,25
685,01	1286,12
685,19	1302,51
685,38	1312,75
685,57	1247,21
685,75	1257,45
685,94	1347,56
686,12	1222,64
686,31	1257,45
686,49	1245,16
686,68	1236,97
686,86	1273,84
687,05	1329,13
687,23	1329,13
687,42	1247,21
687,60	1263,60
687,79	1279,98
687,97	1255,40
688,16	1179,63
688,34	1251,31
688,53	1243,12
688,71	1224,69
688,90	1257,45
689,08	1249,26
689,27	1298,41
689,45	1325,04
689,64	1296,36
689,82	1294,32
690,01	1273,84
690,19	1251,31
690,38	1335,28
690,56	1322,99
690,75	1337,32
690,93	1304,56
691,12	1247,21
691,30	1277,93
691,49	1273,84
691,67	1269,74
691,86	1230,83
692,04	1271,79
692,23	1253,36
692,41	1255,40
692,60	1296,36
692,78	1318,89
692,97	1279,98
693,15	1247,21
693,34	1251,31
693,52	1322,99
693,71	1206,25
693,89	1353,71
694,08	1257,45
694,26	1306,60
694,44	1302,51
694,63	1269,74
694,81	1273,84
695,00	1318,89
695,18	1236,97
695,37	1320,94
695,55	1259,50
695,74	1296,36
695,92	1271,79
696,10	1314,80
696,29	1275,88
696,47	1230,83
696,66	1322,99
696,84	1306,60
697,03	1245,16
697,21	1290,22
697,40	1277,93
697,58	1265,64
697,76	1175,53
697,95	1269,74
698,13	1292,27
698,32	1247,21
698,50	1277,93
698,68	1259,50
698,87	1265,64
699,05	1302,51
699,24	1259,50
699,42	1273,84
699,61	1304,56
699,79	1239,02
699,97	1310,70
700,16	1294,32
700,34	1247,21
700,53	1208,30
700,71	1320,94
700,89	1251,31
701,08	1239,02
701,26	1249,26
701,45	1284,08
701,63	1300,46
701,81	1288,17
702,00	1284,08
702,18	1255,40
702,37	1243,12
702,55	1245,16
702,73	1220,59
702,92	1308,65
703,10	1251,31
703,28	1284,08
703,47	1169,39
703,65	1269,74
703,84	1249,26
704,02	1290,22
704,20	1277,93
704,39	1232,88
704,57	1253,36
704,75	1298,41
704,94	1183,73
705,12	1329,13
705,30	1314,80
705,49	1189,87
705,67	1226,73
705,86	1341,42
706,04	1306,60
706,22	1249,26
706,41	1282,03
706,59	1275,88
706,77	1232,88
706,96	1236,97
707,14	1310,70
707,32	1239,02
707,51	1335,28
707,69	1216,49
707,87	1273,84
708,06	1292,27
708,24	1279,98
708,42	1208,30
708,61	1284,08
708,79	1269,74
708,97	1265,64
709,16	1277,93
709,34	1312,75
709,52	1208,30
709,71	1214,45
709,89	1304,56
710,07	1331,18
710,26	1320,94
710,44	1226,73
710,62	1269,74
710,80	1241,07
710,99	1243,12
711,17	1222,64
711,35	1304,56
711,54	1255,40
711,72	1212,40
711,90	1312,75
712,09	1331,18
712,27	1243,12
712,45	1224,69
712,63	1335,28
712,82	1288,17
713,00	1273,84
713,18	1155,05
713,37	1226,73
713,55	1296,36
713,73	1210,35
713,91	1247,21
714,10	1253,36
714,28	1202,16
714,46	1300,46
714,65	1245,16
714,83	1253,36
715,01	1298,41
715,19	1271,79
715,38	1253,36
715,56	1228,78
715,74	1263,60
715,92	1226,73
716,11	1273,84
716,29	1288,17
716,47	1214,45
716,65	1288,17
716,84	1329,13
717,02	1325,04
717,20	1267,69
717,38	1198,06
717,57	1259,50
717,75	1327,08
717,93	1267,69
718,11	1206,25
718,30	1308,65
718,48	1318,89
718,66	1228,78
718,84	1302,51
719,03	1267,69
719,21	1288,17
719,39	1269,74
719,57	1306,60
719,75	1196,01
719,94	1255,40
720,12	1249,26
720,30	1341,42
720,48	1306,60
720,67	1286,12
720,85	1236,97
721,03	1251,31
721,21	1253,36
721,39	1251,31
721,58	1261,55
721,76	1282,03
721,94	1269,74
722,12	1286,12
722,30	1279,98
722,49	1288,17
722,67	1196,01
722,85	1273,84
723,03	1288,17
723,21	1228,78
723,40	1296,36
723,58	1294,32
723,76	1200,11
723,94	1230,83
724,12	1282,03
724,30	1302,51
724,49	1298,41
724,67	1245,16
724,85	1300,46
725,03	1279,98
725,21	1294,32
725,40	1306,60
725,58	1222,64
725,76	1312,75
725,94	1286,12
726,12	1277,93
726,30	1257,45
726,49	1290,22
726,67	1261,55
726,85	1210,35
727,03	1269,74
727,21	1271,79
727,39	1284,08
727,57	1193,97
727,76	1267,69
727,94	1218,54
728,12	1267,69
728,30	1175,53
728,48	1243,12
728,66	1306,60
728,84	1257,45
729,03	1298,41
729,21	1228,78
729,39	1214,45
729,57	1279,98
729,75	1306,60
729,93	1269,74
730,11	1263,60
730,30	1306,60
730,48	1298,41
730,66	1279,98
730,84	1239,02
731,02	1257,45
731,20	1290,22
731,38	1253,36
731,56	1296,36
731,74	1243,12
731,93	1304,56
732,11	1255,40
732,29	1329,13
732,47	1282,03
732,65	1284,08
732,83	1253,36
733,01	1269,74
733,19	1288,17
733,37	1322,99
733,56	1292,27
733,74	1245,16
733,92	1226,73
734,10	1273,84
734,28	1284,08
734,46	1214,45
734,64	1335,28
734,82	1282,03
735,00	1284,08
735,18	1232,88
735,36	1239,02
735,54	1325,04
735,73	1271,79
735,91	1267,69
736,09	1273,84
736,27	1296,36
736,45	1290,22
736,63	1273,84
736,81	1308,65
736,99	1312,75
737,17	1288,17
737,35	1296,36
737,53	1296,36
737,71	1267,69
737,89	1284,08
738,07	1228,78
738,25	1253,36
738,43	1265,64
738,61	1267,69
738,80	1220,59
738,98	1288,17
739,16	1230,83
739,34	1230,83
739,52	1228,78
739,70	1294,32
739,88	1263,60
740,06	1196,01
740,24	1230,83
740,42	1202,16
740,60	1273,84
740,78	1271,79
740,96	1277,93
741,14	1218,54
741,32	1263,60
741,50	1220,59
741,68	1193,97
741,86	1239,02
742,04	1290,22
742,22	1257,45
742,40	1245,16
742,58	1277,93
742,76	1298,41
742,94	1312,75
743,12	1224,69
743,30	1335,28
743,48	1232,88
743,66	1243,12
743,84	1333,23
744,02	1261,55
744,20	1325,04
744,38	1273,84
744,56	1353,71
744,74	1253,36
744,92	1294,32
745,10	1253,36
745,28	1337,32
745,46	1275,88
745,64	1257,45
745,82	1187,82
746,00	1261,55
746,18	1292,27
746,36	1228,78
746,54	1273,84
746,72	1304,56
746,90	1310,70
747,08	1284,08
747,26	1294,32
747,44	1228,78
747,62	1253,36
747,80	1308,65
747,98	1232,88
748,15	1255,40
748,33	1290,22
748,51	1277,93
748,69	1234,93
748,87	1263,60
749,05	1331,18
749,23	1265,64
749,41	1300,46
749,59	1230,83
749,77	1298,41
749,95	1232,88
750,13	1294,32
750,31	1282,03
750,49	1345,52
750,67	1249,26
750,85	1310,70
751,03	1337,32
751,20	1247,21
751,38	1208,30
751,56	1230,83
751,74	1234,93
751,92	1327,08
752,10	1286,12
752,28	1320,94
752,46	1304,56
752,64	1304,56
752,82	1257,45
753,00	1269,74
753,18	1312,75
753,35	1288,17
753,53	1286,12
753,71	1249,26
753,89	1259,50
754,07	1234,93
754,25	1265,64
754,43	1275,88
754,61	1232,88
754,79	1236,97
754,97	1265,64
755,14	1193,97
755,32	1322,99
755,50	1259,50
755,68	1314,80
755,86	1282,03
756,04	1214,45
756,22	1271,79
756,40	1257,45
756,57	1347,56
756,75	1263,60
756,93	1288,17
757,11	1214,45
757,29	1228,78
757,47	1296,36
757,65	1239,02
757,82	1277,93
758,00	1322,99
758,18	1284,08
758,36	1277,93
758,54	1228,78
758,72	1298,41
758,90	1314,80
759,07	1232,88
759,25	1284,08
759,43	1312,75
759,61	1265,64
759,79	1271,79
759,97	1239,02
760,15	1236,97
760,32	1339,37
760,50	1310,70
760,68	1271,79
760,86	1253,36
761,04	1271,79
761,22	1232,88
761,39	1267,69
761,57	1308,65
761,75	1257,45
761,93	1314,80
762,11	1249,26
762,28	1210,35
762,46	1191,92
762,64	1282,03
762,82	1267,69
763,00	1271,79
763,18	1286,12
763,35	1214,45
763,53	1279,98
763,71	1327,08
763,89	1316,84
764,07	1337,32
764,24	1304,56
764,42	1230,83
764,60	1349,61
764,78	1204,21
764,96	1249,26
765,13	1302,51
765,31	1247,21
765,49	1220,59
765,67	1212,40
765,84	1288,17
766,02	1286,12
766,20	1220,59
766,38	1271,79
766,56	1247,21
766,73	1239,02
766,91	1257,45
767,09	1298,41
767,27	1263,60
767,44	1304,56
767,62	1273,84
767,80	1220,59
767,98	1290,22
768,15	1333,23
768,33	1239,02
768,51	1318,89
768,69	1292,27
768,87	1292,27
769,04	1273,84
769,22	1273,84
769,40	1339,37
769,58	1306,60
769,75	1259,50
769,93	1298,41
770,11	1282,03
770,28	1245,16
770,46	1304,56
770,64	1257,45
770,82	1228,78
770,99	1247,21
771,17	1269,74
771,35	1236,97
771,53	1314,80
771,70	1279,98
771,88	1312,75
772,06	1220,59
772,23	1255,40
772,41	1239,02
772,59	1273,84
772,77	1282,03
772,94	1249,26
773,12	1208,30
773,30	1251,31
773,47	1361,90
773,65	1249,26
773,83	1286,12
774,01	1251,31
774,18	1306,60
774,36	1214,45
774,54	1259,50
774,71	1253,36
774,89	1269,74
775,07	1318,89
775,24	1335,28
775,42	1269,74
775,60	1329,13
775,78	1300,46
775,95	1222,64
776,13	1277,93
776,31	1279,98
776,48	1196,01
776,66	1247,21
776,84	1241,07
777,01	1320,94
777,19	1271,79
777,37	1316,84
777,54	1275,88
777,72	1265,64
777,90	1222,64
778,07	1269,74
778,25	1282,03
778,43	1259,50
778,60	1255,40
778,78	1263,60
778,96	1230,83
779,13	1298,41
779,31	1296,36
779,49	1312,75
779,66	1214,45
779,84	1304,56
780,01	1226,73
780,19	1218,54
780,37	1339,37
780,54	1284,08
780,72	1208,30
780,90	1314,80
781,07	1265,64
781,25	1259,50
781,43	1261,55
781,60	1222,64
781,78	1302,51
781,95	1214,45
782,13	1329,13
782,31	1325,04
782,48	1224,69
782,66	1304,56
782,83	1282,03
783,01	1230,83
783,19	1347,56
783,36	1322,99
783,54	1245,16
783,72	1329,13
783,89	1273,84
784,07	1273,84
784,24	1341,42
784,42	1269,74
784,60	1243,12
784,77	1302,51
784,95	1263,60
785,12	1259,50
785,30	1320,94
785,47	1267,69
785,65	1372,14
785,83	1320,94
786,00	1292,27
786,18	1255,40
786,35	1265,64
786,53	1210,35
786,71	1253,36
786,88	1247,21
787,06	1294,32
787,23	1282,03
787,41	1249,26
787,58	1298,41
787,76	1288,17
787,94	1220,59
788,11	1331,18
788,29	1286,12
788,46	1202,16
788,64	1271,79
788,81	1292,27
788,99	1298,41
789,16	1273,84
789,34	1269,74
789,52	1267,69
789,69	1220,59
789,87	1284,08
790,04	1253,36
790,22	1251,31
790,39	1304,56
790,57	1257,45
790,74	1275,88
790,92	1273,84
791,09	1318,89
791,27	1308,65
791,44	1267,69
791,62	1259,50
791,79	1357,80
791,97	1269,74
792,15	1302,51
792,32	1273,84
792,50	1234,93
792,67	1265,64
792,85	1294,32
793,02	1302,51
793,20	1261,55
793,37	1271,79
793,55	1204,21
793,72	1304,56
793,90	1374,19
794,07	1275,88
794,25	1320,94
794,42	1306,60
794,60	1284,08
794,77	1216,49
794,95	1308,65
795,12	1236,97
795,30	1314,80
795,47	1265,64
795,65	1359,85
795,82	1279,98
796,00	1249,26
796,17	1232,88
796,34	1239,02
796,52	1331,18
796,69	1286,12
796,87	1269,74
797,04	1175,53
797,22	1304,56
797,39	1220,59
797,57	1208,30
797,74	1257,45
797,92	1296,36
798,09	1335,28
798,27	1249,26
798,44	1212,40
798,62	1290,22
798,79	1269,74
798,96	1234,93
799,14	1296,36
799,31	1290,22
799,49	1304,56
799,66	1271,79
799,84	1255,40
800,01	1206,25
800,19	1208,30
800,36	1279,98
800,53	1218,54
800,71	1218,54
800,88	1267,69
801,06	1222,64
801,23	1222,64
801,41	1282,03
801,58	1306,60
801,75	1187,82
801,93	1251,31
802,10	1298,41
802,28	1296,36
802,45	1236,97
802,63	1273,84
802,80	1298,41
802,97	1333,23
803,15	1329,13
803,32	1273,84
803,50	1277,93
803,67	1216,49
803,84	1294,32
804,02	1275,88
804,19	1288,17
804,37	1226,73
804,54	1171,44
804,71	1214,45
804,89	1269,74
805,06	1253,36
805,24	1202,16
805,41	1271,79
805,58	1294,32
805,76	1257,45
805,93	1294,32
806,10	1300,46
806,28	1265,64
806,45	1198,06
806,63	1331,18
806,80	1310,70
806,97	1193,97
807,15	1243,12
807,32	1273,84
807,49	1251,31
807,67	1316,84
807,84	1304,56
808,01	1282,03
808,19	1232,88
808,36	1292,27
808,54	1230,83
808,71	1341,42
808,88	1302,51
809,06	1300,46
809,23	1251,31
809,40	1277,93
809,58	1288,17
809,75	1265,64
809,92	1267,69
810,10	1224,69
810,27	1257,45
810,44	1314,80
810,62	1288,17
810,79	1304,56
810,96	1175,53
811,14	1271,79
811,31	1267,69
811,48	1255,40
811,66	1277,93
811,83	1304,56
812,00	1249,26
812,18	1222,64
812,35	1288,17
812,52	1331,18
812,69	1300,46
812,87	1234,93
813,04	1302,51
813,21	1300,46
813,39	1339,37
813,56	1257,45
813,73	1232,88
813,91	1241,07
814,08	1198,06
814,25	1279,98
814,42	1234,93
814,60	1232,88
814,77	1251,31
814,94	1239,02
815,12	1288,17
815,29	1253,36
815,46	1290,22
815,63	1181,68
815,81	1314,80
815,98	1161,20
816,15	1273,84
816,33	1351,66
816,50	1275,88
816,67	1288,17
816,84	1253,36
817,02	1249,26
817,19	1239,02
817,36	1279,98
817,53	1294,32
817,71	1302,51
817,88	1239,02
818,05	1286,12
818,22	1273,84
818,40	1327,08
818,57	1247,21
818,74	1337,32
818,91	1286,12
819,09	1232,88
819,26	1314,80
819,43	1339,37
819,60	1277,93
819,78	1290,22
819,95	1214,45
820,12	1245,16
820,29	1325,04
820,47	1388,52
820,64	1343,47
820,81	1253,36
820,98	1216,49
821,15	1273,84
821,33	1296,36
821,50	1259,50
821,67	1222,64
821,84	1269,74
822,02	1306,60
822,19	1273,84
822,36	1271,79
822,53	1261,55
822,70	1255,40
822,88	1267,69
823,05	1304,56
823,22	1269,74
823,39	1220,59
823,56	1265,64
823,74	1298,41
823,91	1234,93
824,08	1329,13
824,25	1198,06
824,42	1290,22
824,60	1290,22
824,77	1251,31
824,94	1298,41
825,11	1247,21
825,28	1294,32
825,45	1282,03
825,63	1239,02
825,80	1298,41
825,97	1234,93
826,14	1308,65
826,31	1294,32
826,48	1273,84
826,66	1243,12
826,83	1210,35
827,00	1259,50
827,17	1204,21
827,34	1257,45
827,51	1296,36
827,69	1206,25
827,86	1185,77
828,03	1263,60
828,20	1288,17
828,37	1286,12
828,54	1253,36
828,71	1331,18
828,89	1314,80
829,06	1220,59
829,23	1275,88
829,40	1275,88
829,57	1259,50
829,74	1222,64
829,91	1286,12
830,09	1286,12
830,26	1282,03
830,43	1239,02
830,60	1304,56
830,77	1308,65
830,94	1257,45
831,11	1314,80
831,28	1273,84
831,46	1329,13
831,63	1189,87
831,80	1288,17
831,97	1230,83
832,14	1318,89
832,31	1296,36
832,48	1253,36
832,65	1335,28
832,82	1214,45
832,99	1265,64
833,17	1241,07
833,34	1282,03
833,51	1214,45
833,68	1241,07
833,85	1320,94
834,02	1241,07
834,19	1234,93
834,36	1249,26
834,53	1193,97
834,70	1292,27
834,87	1282,03
835,04	1314,80
835,22	1243,12
835,39	1239,02
835,56	1224,69
835,73	1279,98
835,90	1257,45
836,07	1265,64
836,24	1249,26
836,41	1232,88
836,58	1193,97
836,75	1263,60
836,92	1245,16
837,09	1271,79
837,26	1314,80
837,43	1241,07
837,60	1257,45
837,77	1298,41
837,94	1312,75
838,12	1325,04
838,29	1294,32
838,46	1298,41
838,63	1249,26
838,80	1308,65
838,97	1290,22
839,14	1345,52
839,31	1312,75
839,48	1320,94
839,65	1290,22
839,82	1247,21
839,99	1277,93
840,16	1284,08
840,33	1339,37
840,50	1220,59
840,67	1271,79
840,84	1314,80
841,01	1284,08
841,18	1271,79
841,35	1263,60
841,52	1265,64
841,69	1304,56
841,86	1234,93
842,03	1224,69
842,20	1271,79
842,37	1284,08
842,54	1279,98
842,71	1198,06
842,88	1253,36
843,05	1167,34
843,22	1208,30
843,39	1263,60
843,56	1286,12
843,73	1322,99
843,90	1257,45
844,07	1236,97
844,24	1263,60
844,41	1271,79
844,58	1210,35
844,75	1335,28
844,92	1327,08
845,09	1320,94
845,26	1333,23
845,43	1171,44
845,60	1290,22
845,77	1245,16
845,94	1314,80
846,10	1296,36
846,27	1282,03
846,44	1253,36
846,61	1306,60
846,78	1275,88
846,95	1230,83
847,12	1277,93
847,29	1236,97
847,46	1265,64
847,63	1271,79
847,80	1214,45
847,97	1273,84
848,14	1255,40
848,31	1271,79
848,48	1234,93
848,65	1286,12
848,82	1241,07
848,98	1208,30
849,15	1325,04
849,32	1296,36
849,49	1286,12
849,66	1286,12
849,83	1304,56
850,00	1269,74
850,17	1253,36
850,34	1302,51
850,51	1322,99
850,68	1312,75
850,85	1292,27
851,01	1241,07
851,18	1212,40
851,35	1277,93
851,52	1318,89
851,69	1241,07
851,86	1333,23
852,03	1232,88
852,20	1259,50
852,37	1259,50
852,53	1198,06
852,70	1277,93
852,87	1271,79
853,04	1210,35
853,21	1239,02
853,38	1222,64
853,55	1257,45
853,72	1267,69
853,89	1282,03
854,05	1261,55
854,22	1292,27
854,39	1255,40
854,56	1222,64
854,73	1271,79
854,90	1245,16
855,07	1251,31
855,23	1304,56
855,40	1286,12
855,57	1220,59
855,74	1275,88
855,91	1249,26
856,08	1288,17
856,25	1187,82
856,41	1286,12
856,58	1286,12
856,75	1251,31
856,92	1253,36
857,09	1329,13
857,26	1261,55
857,42	1253,36
857,59	1241,07
857,76	1257,45
857,93	1243,12
858,10	1294,32
858,27	1290,22
858,43	1279,98
858,60	1292,27
858,77	1241,07
858,94	1214,45
859,11	1288,17
859,27	1234,93
859,44	1234,93
859,61	1257,45
859,78	1347,56
859,95	1337,32
860,12	1302,51
860,28	1269,74
860,45	1273,84
860,62	1282,03
860,79	1200,11
860,95	1232,88
861,12	1269,74
861,29	1228,78
861,46	1230,83
861,63	1290,22
861,79	1251,31
861,96	1216,49
862,13	1210,35
862,30	1284,08
862,47	1298,41
862,63	1277,93
862,80	1329,13
862,97	1198,06
863,14	1218,54
863,30	1308,65
863,47	1294,32
863,64	1234,93
863,81	1286,12
863,97	1249,26
864,14	1253,36
864,31	1230,83
864,48	1282,03
864,65	1316,84
864,81	1288,17
864,98	1241,07
865,15	1339,37
865,32	1181,68
865,48	1193,97
865,65	1249,26
865,82	1304,56
865,98	1245,16
866,15	1273,84
866,32	1300,46
866,49	1259,50
866,65	1239,02
866,82	1351,66
866,99	1296,36
867,16	1273,84
867,32	1234,93
867,49	1304,56
867,66	1228,78
867,83	1286,12
867,99	1271,79
868,16	1241,07
868,33	1277,93
868,49	1312,75
868,66	1208,30
868,83	1232,88
868,99	1273,84
869,16	1271,79
869,33	1318,89
869,50	1271,79
869,66	1206,25
869,83	1275,88
870,00	1273,84
870,16	1335,28
870,33	1204,21
870,50	1306,60
870,66	1275,88
870,83	1310,70
871,00	1212,40
871,17	1236,97
871,33	1271,79
871,50	1253,36
871,67	1269,74
871,83	1308,65
872,00	1196,01
872,17	1267,69
872,33	1257,45
872,50	1271,79
872,67	1310,70
872,83	1284,08
873,00	1282,03
873,17	1245,16
873,33	1288,17
873,50	1261,55
873,67	1271,79
873,83	1249,26
874,00	1263,60
874,16	1298,41
874,33	1267,69
874,50	1290,22
874,66	1265,64
874,83	1224,69
875,00	1269,74
875,16	1314,80
875,33	1314,80
875,50	1300,46
875,66	1363,95
875,83	1347,56
875,99	1269,74
876,16	1288,17
876,33	1300,46
876,49	1322,99
876,66	1316,84
876,83	1310,70
876,99	1265,64
877,16	1271,79
877,32	1308,65
877,49	1255,40
877,66	1169,39
877,82	1298,41
877,99	1173,49
878,15	1290,22
878,32	1241,07
878,49	1322,99
878,65	1232,88
878,82	1247,21
878,98	1222,64
879,15	1241,07
879,32	1337,32
879,48	1312,75
879,65	1232,88
879,81	1247,21
879,98	1304,56
880,15	1292,27
880,31	1273,84
880,48	1275,88
880,64	1312,75
880,81	1273,84
880,97	1329,13
881,14	1282,03
881,31	1296,36
881,47	1251,31
881,64	1273,84
881,80	1290,22
881,97	1249,26
882,13	1310,70
882,30	1232,88
882,47	1245,16
882,63	1271,79
882,80	1273,84
882,96	1267,69
883,13	1277,93
883,29	1304,56
883,46	1316,84
883,62	1292,27
883,79	1239,02
883,95	1304,56
884,12	1271,79
884,29	1267,69
884,45	1310,70
884,62	1310,70
884,78	1224,69
884,95	1267,69
885,11	1271,79
885,28	1347,56
885,44	1259,50
885,61	1322,99
885,77	1322,99
885,94	1294,32
886,10	1290,22
886,27	1294,32
886,43	1290,22
886,60	1294,32
886,76	1290,22
886,93	1290,22
887,09	1259,50
887,26	1277,93
887,42	1318,89
887,59	1179,63
887,75	1282,03
887,92	1277,93
888,08	1269,74
888,25	1253,36
888,41	1247,21
888,58	1279,98
888,74	1275,88
888,91	1230,83
>>>>>End Processed Spectral Data<<<<<
