SpectraSuite Data File
++++++++++++++++++++++++++++++++++++
Date: Sun Apr 03 19:39:34 CEST 2016
User: root
Dark Spectrum Present: No
Reference Spectrum Present: No
Number of Sampled Component Spectra: 1
Spectrometers: USB4C02835
Integration Time (usec): 10000 (USB4C02835)
Spectra Averaged: 1 (USB4C02835)
Boxcar Smoothing: 0 (USB4C02835)
Correct for Electrical Dark: No (USB4C02835)
Strobe/Lamp Enabled: No (USB4C02835)
Correct for Detector Non-linearity: No (USB4C02835)
Correct for Stray Light: No (USB4C02835)
Number of Pixels in Processed Spectrum: 3648
>>>>>Begin Processed Spectral Data<<<<<
177,47	1218,54
177,69	1218,54
177,91	1218,54
178,13	1191,92
178,36	1269,74
178,58	1257,45
178,80	1255,40
179,02	1249,26
179,24	1353,71
179,46	1193,97
179,68	1292,27
179,90	1306,60
180,13	1286,12
180,35	1253,36
180,57	1279,98
180,79	1228,78
181,01	1255,40
181,23	1314,80
181,45	1304,56
181,67	1234,93
181,90	1239,02
182,12	1257,45
182,34	1253,36
182,56	1275,88
182,78	1222,64
183,00	1175,53
183,22	1339,37
183,44	1245,16
183,66	1302,51
183,89	1263,60
184,11	1232,88
184,33	1265,64
184,55	1222,64
184,77	1290,22
184,99	1327,08
185,21	1271,79
185,43	1220,59
185,65	1347,56
185,87	1220,59
186,10	1255,40
186,32	1308,65
186,54	1298,41
186,76	1239,02
186,98	1286,12
187,20	1265,64
187,42	1296,36
187,64	1216,49
187,86	1296,36
188,08	1273,84
188,30	1214,45
188,52	1333,23
188,75	1271,79
188,97	1284,08
189,19	1298,41
189,41	1279,98
189,63	1263,60
189,85	1226,73
190,07	1277,93
190,29	1275,88
190,51	1282,03
190,73	1247,21
190,95	1253,36
191,17	1234,93
191,39	1310,70
191,61	1226,73
191,84	1320,94
192,06	1212,40
192,28	1228,78
192,50	1251,31
192,72	1265,64
192,94	1198,06
193,16	1279,98
193,38	1257,45
193,60	1263,60
193,82	1288,17
194,04	1267,69
194,26	1269,74
194,48	1261,55
194,70	1236,97
194,92	1155,05
195,14	1277,93
195,36	1232,88
195,58	1275,88
195,80	1286,12
196,02	1304,56
196,24	1232,88
196,46	1228,78
196,69	1261,55
196,91	1304,56
197,13	1284,08
197,35	1300,46
197,57	1269,74
197,79	1314,80
198,01	1339,37
198,23	1218,54
198,45	1253,36
198,67	1314,80
198,89	1277,93
199,11	1286,12
199,33	1247,21
199,55	1208,30
199,77	1351,66
199,99	1263,60
200,21	1255,40
200,43	1275,88
200,65	1239,02
200,87	1282,03
201,09	1253,36
201,31	1247,21
201,53	1302,51
201,75	1335,28
201,97	1222,64
202,19	1234,93
202,41	1263,60
202,63	1198,06
202,85	1316,84
203,07	1222,64
203,29	1226,73
203,51	1275,88
203,73	1316,84
203,95	1300,46
204,17	1245,16
204,39	1277,93
204,61	1228,78
204,83	1314,80
205,05	1259,50
205,27	1255,40
205,49	1179,63
205,71	1259,50
205,93	1290,22
206,15	1339,37
206,37	1277,93
206,59	1306,60
206,81	1290,22
207,03	1284,08
207,25	1257,45
207,47	1292,27
207,69	1345,52
207,91	1247,21
208,13	1306,60
208,34	1232,88
208,56	1282,03
208,78	1224,69
209,00	1284,08
209,22	1302,51
209,44	1261,55
209,66	1226,73
209,88	1210,35
210,10	1245,16
210,32	1249,26
210,54	1294,32
210,76	1320,94
210,98	1310,70
211,20	1257,45
211,42	1247,21
211,64	1241,07
211,86	1255,40
212,08	1204,21
212,30	1259,50
212,52	1277,93
212,74	1236,97
212,96	1253,36
213,17	1222,64
213,39	1257,45
213,61	1265,64
213,83	1196,01
214,05	1353,71
214,27	1284,08
214,49	1245,16
214,71	1286,12
214,93	1236,97
215,15	1202,16
215,37	1185,77
215,59	1271,79
215,81	1198,06
216,03	1312,75
216,24	1243,12
216,46	1204,21
216,68	1239,02
216,90	1251,31
217,12	1259,50
217,34	1320,94
217,56	1226,73
217,78	1216,49
218,00	1290,22
218,22	1269,74
218,44	1271,79
218,66	1230,83
218,87	1249,26
219,09	1290,22
219,31	1265,64
219,53	1220,59
219,75	1279,98
219,97	1216,49
220,19	1236,97
220,41	1316,84
220,63	1253,36
220,85	1349,61
221,06	1245,16
221,28	1302,51
221,50	1230,83
221,72	1259,50
221,94	1292,27
222,16	1318,89
222,38	1288,17
222,60	1294,32
222,82	1212,40
223,03	1228,78
223,25	1322,99
223,47	1230,83
223,69	1271,79
223,91	1282,03
224,13	1374,19
224,35	1279,98
224,57	1294,32
224,78	1308,65
225,00	1331,18
225,22	1251,31
225,44	1239,02
225,66	1228,78
225,88	1312,75
226,10	1298,41
226,32	1351,66
226,53	1239,02
226,75	1327,08
226,97	1224,69
227,19	1181,68
227,41	1226,73
227,63	1249,26
227,85	1187,82
228,06	1247,21
228,28	1263,60
228,50	1290,22
228,72	1257,45
228,94	1325,04
229,16	1247,21
229,37	1310,70
229,59	1302,51
229,81	1198,06
230,03	1265,64
230,25	1304,56
230,47	1253,36
230,69	1275,88
230,90	1269,74
231,12	1269,74
231,34	1214,45
231,56	1282,03
231,78	1380,33
232,00	1257,45
232,21	1277,93
232,43	1257,45
232,65	1290,22
232,87	1304,56
233,09	1255,40
233,30	1314,80
233,52	1331,18
233,74	1292,27
233,96	1255,40
234,18	1232,88
234,40	1302,51
234,61	1310,70
234,83	1261,55
235,05	1247,21
235,27	1257,45
235,49	1255,40
235,70	1282,03
235,92	1273,84
236,14	1257,45
236,36	1288,17
236,58	1318,89
236,79	1292,27
237,01	1173,49
237,23	1253,36
237,45	1300,46
237,67	1263,60
237,88	1224,69
238,10	1306,60
238,32	1239,02
238,54	1273,84
238,76	1277,93
238,97	1165,29
239,19	1320,94
239,41	1257,45
239,63	1277,93
239,85	1275,88
240,06	1275,88
240,28	1290,22
240,50	1224,69
240,72	1243,12
240,93	1247,21
241,15	1257,45
241,37	1294,32
241,59	1187,82
241,81	1314,80
242,02	1206,25
242,24	1302,51
242,46	1224,69
242,68	1132,53
242,89	1347,56
243,11	1286,12
243,33	1263,60
243,55	1253,36
243,76	1279,98
243,98	1298,41
244,20	1259,50
244,42	1269,74
244,64	1267,69
244,85	1263,60
245,07	1314,80
245,29	1232,88
245,51	1245,16
245,72	1208,30
245,94	1243,12
246,16	1314,80
246,38	1376,24
246,59	1290,22
246,81	1193,97
247,03	1267,69
247,24	1222,64
247,46	1216,49
247,68	1253,36
247,90	1247,21
248,11	1239,02
248,33	1335,28
248,55	1245,16
248,77	1339,37
248,98	1288,17
249,20	1300,46
249,42	1273,84
249,64	1353,71
249,85	1255,40
250,07	1261,55
250,29	1261,55
250,50	1290,22
250,72	1259,50
250,94	1232,88
251,16	1275,88
251,37	1290,22
251,59	1243,12
251,81	1243,12
252,02	1341,42
252,24	1232,88
252,46	1376,24
252,68	1208,30
252,89	1241,07
253,11	1263,60
253,33	1286,12
253,54	1259,50
253,76	1206,25
253,98	1206,25
254,20	1333,23
254,41	1255,40
254,63	1247,21
254,85	1263,60
255,06	1269,74
255,28	1261,55
255,50	1228,78
255,71	1236,97
255,93	1206,25
256,15	1255,40
256,36	1253,36
256,58	1355,76
256,80	1267,69
257,02	1273,84
257,23	1245,16
257,45	1294,32
257,67	1241,07
257,88	1228,78
258,10	1288,17
258,32	1277,93
258,53	1277,93
258,75	1316,84
258,97	1208,30
259,18	1298,41
259,40	1267,69
259,62	1306,60
259,83	1294,32
260,05	1302,51
260,27	1394,67
260,48	1243,12
260,70	1245,16
260,92	1202,16
261,13	1228,78
261,35	1251,31
261,57	1298,41
261,78	1193,97
262,00	1251,31
262,22	1253,36
262,43	1271,79
262,65	1318,89
262,86	1314,80
263,08	1251,31
263,30	1175,53
263,51	1306,60
263,73	1263,60
263,95	1261,55
264,16	1193,97
264,38	1232,88
264,60	1243,12
264,81	1187,82
265,03	1310,70
265,25	1224,69
265,46	1228,78
265,68	1251,31
265,89	1286,12
266,11	1296,36
266,33	1239,02
266,54	1337,32
266,76	1290,22
266,98	1298,41
267,19	1247,21
267,41	1314,80
267,62	1292,27
267,84	1284,08
268,06	1329,13
268,27	1269,74
268,49	1282,03
268,70	1243,12
268,92	1314,80
269,14	1273,84
269,35	1314,80
269,57	1253,36
269,79	1302,51
270,00	1288,17
270,22	1263,60
270,43	1216,49
270,65	1230,83
270,87	1279,98
271,08	1277,93
271,30	1298,41
271,51	1304,56
271,73	1275,88
271,95	1288,17
272,16	1239,02
272,38	1284,08
272,59	1284,08
272,81	1286,12
273,02	1247,21
273,24	1265,64
273,46	1259,50
273,67	1290,22
273,89	1263,60
274,10	1273,84
274,32	1241,07
274,54	1294,32
274,75	1236,97
274,97	1249,26
275,18	1212,40
275,40	1273,84
275,61	1269,74
275,83	1284,08
276,05	1271,79
276,26	1314,80
276,48	1216,49
276,69	1298,41
276,91	1271,79
277,12	1277,93
277,34	1271,79
277,55	1282,03
277,77	1245,16
277,99	1218,54
278,20	1290,22
278,42	1353,71
278,63	1269,74
278,85	1220,59
279,06	1263,60
279,28	1290,22
279,49	1222,64
279,71	1243,12
279,93	1214,45
280,14	1288,17
280,36	1290,22
280,57	1243,12
280,79	1304,56
281,00	1232,88
281,22	1247,21
281,43	1290,22
281,65	1263,60
281,86	1259,50
282,08	1228,78
282,29	1259,50
282,51	1236,97
282,73	1185,77
282,94	1241,07
283,16	1247,21
283,37	1282,03
283,59	1255,40
283,80	1378,28
284,02	1339,37
284,23	1249,26
284,45	1245,16
284,66	1292,27
284,88	1241,07
285,09	1277,93
285,31	1269,74
285,52	1261,55
285,74	1325,04
285,95	1267,69
286,17	1294,32
286,38	1253,36
286,60	1279,98
286,81	1239,02
287,03	1302,51
287,24	1200,11
287,46	1290,22
287,67	1302,51
287,89	1249,26
288,10	1310,70
288,32	1257,45
288,53	1245,16
288,75	1273,84
288,96	1294,32
289,18	1265,64
289,39	1257,45
289,61	1271,79
289,82	1273,84
290,04	1230,83
290,25	1241,07
290,47	1306,60
290,68	1339,37
290,90	1337,32
291,11	1263,60
291,33	1318,89
291,54	1251,31
291,76	1271,79
291,97	1191,92
292,18	1310,70
292,40	1257,45
292,61	1275,88
292,83	1255,40
293,04	1302,51
293,26	1253,36
293,47	1333,23
293,69	1191,92
293,90	1331,18
294,12	1331,18
294,33	1284,08
294,55	1253,36
294,76	1337,32
294,97	1300,46
295,19	1337,32
295,40	1255,40
295,62	1253,36
295,83	1320,94
296,05	1294,32
296,26	1310,70
296,48	1263,60
296,69	1239,02
296,90	1306,60
297,12	1279,98
297,33	1286,12
297,55	1208,30
297,76	1208,30
297,98	1269,74
298,19	1198,06
298,41	1335,28
298,62	1200,11
298,83	1290,22
299,05	1347,56
299,26	1224,69
299,48	1265,64
299,69	1224,69
299,90	1243,12
300,12	1316,84
300,33	1300,46
300,55	1245,16
300,76	1282,03
300,98	1234,93
301,19	1269,74
301,40	1210,35
301,62	1230,83
301,83	1316,84
302,05	1355,76
302,26	1208,30
302,47	1271,79
302,69	1306,60
302,90	1314,80
303,12	1247,21
303,33	1300,46
303,54	1226,73
303,76	1243,12
303,97	1294,32
304,19	1312,75
304,40	1257,45
304,61	1290,22
304,83	1267,69
305,04	1335,28
305,26	1267,69
305,47	1210,35
305,68	1263,60
305,90	1253,36
306,11	1273,84
306,33	1269,74
306,54	1153,01
306,75	1216,49
306,97	1318,89
307,18	1298,41
307,39	1226,73
307,61	1273,84
307,82	1189,87
308,04	1249,26
308,25	1243,12
308,46	1335,28
308,68	1228,78
308,89	1273,84
309,10	1282,03
309,32	1304,56
309,53	1308,65
309,74	1322,99
309,96	1273,84
310,17	1318,89
310,39	1294,32
310,60	1282,03
310,81	1212,40
311,03	1241,07
311,24	1312,75
311,45	1245,16
311,67	1310,70
311,88	1277,93
312,09	1187,82
312,31	1245,16
312,52	1271,79
312,73	1298,41
312,95	1273,84
313,16	1292,27
313,37	1296,36
313,59	1261,55
313,80	1249,26
314,01	1267,69
314,23	1204,21
314,44	1224,69
314,65	1298,41
314,87	1239,02
315,08	1282,03
315,29	1216,49
315,51	1232,88
315,72	1230,83
315,93	1269,74
316,15	1282,03
316,36	1271,79
316,57	1269,74
316,79	1216,49
317,00	1241,07
317,21	1263,60
317,43	1183,73
317,64	1286,12
317,85	1304,56
318,07	1249,26
318,28	1294,32
318,49	1265,64
318,70	1273,84
318,92	1300,46
319,13	1343,47
319,34	1282,03
319,56	1333,23
319,77	1316,84
319,98	1273,84
320,20	1298,41
320,41	1255,40
320,62	1306,60
320,83	1249,26
321,05	1302,51
321,26	1251,31
321,47	1257,45
321,69	1220,59
321,90	1200,11
322,11	1239,02
322,32	1282,03
322,54	1343,47
322,75	1255,40
322,96	1236,97
323,18	1265,64
323,39	1204,21
323,60	1196,01
323,81	1255,40
324,03	1255,40
324,24	1251,31
324,45	1251,31
324,66	1243,12
324,88	1265,64
325,09	1239,02
325,30	1265,64
325,52	1241,07
325,73	1302,51
325,94	1196,01
326,15	1351,66
326,37	1320,94
326,58	1226,73
326,79	1302,51
327,00	1253,36
327,22	1286,12
327,43	1253,36
327,64	1189,87
327,85	1263,60
328,07	1261,55
328,28	1290,22
328,49	1286,12
328,70	1208,30
328,92	1216,49
329,13	1286,12
329,34	1261,55
329,55	1286,12
329,76	1241,07
329,98	1230,83
330,19	1191,92
330,40	1249,26
330,61	1298,41
330,83	1263,60
331,04	1298,41
331,25	1357,80
331,46	1200,11
331,68	1310,70
331,89	1236,97
332,10	1198,06
332,31	1226,73
332,52	1282,03
332,74	1247,21
332,95	1204,21
333,16	1224,69
333,37	1234,93
333,58	1247,21
333,80	1302,51
334,01	1265,64
334,22	1239,02
334,43	1214,45
334,64	1273,84
334,86	1282,03
335,07	1322,99
335,28	1222,64
335,49	1279,98
335,70	1298,41
335,92	1341,42
336,13	1251,31
336,34	1277,93
336,55	1257,45
336,76	1214,45
336,98	1320,94
337,19	1329,13
337,40	1282,03
337,61	1290,22
337,82	1267,69
338,04	1296,36
338,25	1304,56
338,46	1277,93
338,67	1282,03
338,88	1275,88
339,09	1277,93
339,31	1286,12
339,52	1298,41
339,73	1279,98
339,94	1314,80
340,15	1228,78
340,36	1261,55
340,58	1292,27
340,79	1230,83
341,00	1294,32
341,21	1263,60
341,42	1220,59
341,63	1220,59
341,85	1232,88
342,06	1286,12
342,27	1259,50
342,48	1275,88
342,69	1251,31
342,90	1296,36
343,12	1306,60
343,33	1212,40
343,54	1267,69
343,75	1318,89
343,96	1294,32
344,17	1267,69
344,38	1329,13
344,60	1212,40
344,81	1284,08
345,02	1255,40
345,23	1294,32
345,44	1310,70
345,65	1273,84
345,86	1216,49
346,07	1320,94
346,29	1263,60
346,50	1253,36
346,71	1232,88
346,92	1275,88
347,13	1306,60
347,34	1316,84
347,55	1265,64
347,76	1290,22
347,98	1318,89
348,19	1273,84
348,40	1273,84
348,61	1282,03
348,82	1282,03
349,03	1249,26
349,24	1271,79
349,45	1296,36
349,66	1271,79
349,88	1277,93
350,09	1228,78
350,30	1302,51
350,51	1298,41
350,72	1185,77
350,93	1271,79
351,14	1306,60
351,35	1298,41
351,56	1294,32
351,77	1277,93
351,99	1265,64
352,20	1265,64
352,41	1271,79
352,62	1226,73
352,83	1263,60
353,04	1198,06
353,25	1290,22
353,46	1277,93
353,67	1298,41
353,88	1267,69
354,09	1245,16
354,30	1277,93
354,52	1224,69
354,73	1224,69
354,94	1298,41
355,15	1372,14
355,36	1202,16
355,57	1265,64
355,78	1294,32
355,99	1216,49
356,20	1294,32
356,41	1245,16
356,62	1286,12
356,83	1390,57
357,04	1294,32
357,25	1308,65
357,46	1212,40
357,68	1294,32
357,89	1220,59
358,10	1230,83
358,31	1308,65
358,52	1314,80
358,73	1292,27
358,94	1302,51
359,15	1282,03
359,36	1265,64
359,57	1263,60
359,78	1300,46
359,99	1251,31
360,20	1269,74
360,41	1259,50
360,62	1308,65
360,83	1241,07
361,04	1255,40
361,25	1343,47
361,46	1226,73
361,67	1271,79
361,88	1247,21
362,09	1255,40
362,30	1292,27
362,51	1261,55
362,72	1372,14
362,93	1251,31
363,14	1271,79
363,35	1216,49
363,56	1216,49
363,78	1316,84
363,99	1298,41
364,20	1296,36
364,41	1277,93
364,62	1335,28
364,83	1247,21
365,04	1312,75
365,25	1300,46
365,46	1257,45
365,67	1275,88
365,88	1253,36
366,09	1243,12
366,30	1259,50
366,51	1320,94
366,72	1214,45
366,93	1265,64
367,14	1224,69
367,35	1286,12
367,56	1277,93
367,77	1247,21
367,98	1279,98
368,18	1386,47
368,39	1308,65
368,60	1288,17
368,81	1243,12
369,02	1214,45
369,23	1249,26
369,44	1298,41
369,65	1222,64
369,86	1284,08
370,07	1253,36
370,28	1234,93
370,49	1320,94
370,70	1273,84
370,91	1284,08
371,12	1249,26
371,33	1208,30
371,54	1277,93
371,75	1222,64
371,96	1292,27
372,17	1286,12
372,38	1232,88
372,59	1257,45
372,80	1265,64
373,01	1267,69
373,22	1322,99
373,43	1277,93
373,64	1304,56
373,85	1249,26
374,06	1288,17
374,26	1314,80
374,47	1277,93
374,68	1286,12
374,89	1259,50
375,10	1282,03
375,31	1265,64
375,52	1296,36
375,73	1263,60
375,94	1265,64
376,15	1269,74
376,36	1290,22
376,57	1282,03
376,78	1179,63
376,99	1257,45
377,20	1357,80
377,40	1222,64
377,61	1327,08
377,82	1265,64
378,03	1273,84
378,24	1296,36
378,45	1214,45
378,66	1296,36
378,87	1312,75
379,08	1267,69
379,29	1265,64
379,50	1247,21
379,71	1306,60
379,91	1282,03
380,12	1282,03
380,33	1257,45
380,54	1232,88
380,75	1286,12
380,96	1226,73
381,17	1304,56
381,38	1239,02
381,59	1222,64
381,80	1259,50
382,00	1320,94
382,21	1243,12
382,42	1292,27
382,63	1296,36
382,84	1302,51
383,05	1251,31
383,26	1306,60
383,47	1372,14
383,68	1282,03
383,88	1265,64
384,09	1277,93
384,30	1286,12
384,51	1277,93
384,72	1236,97
384,93	1265,64
385,14	1296,36
385,35	1243,12
385,55	1304,56
385,76	1230,83
385,97	1208,30
386,18	1275,88
386,39	1253,36
386,60	1310,70
386,81	1259,50
387,02	1241,07
387,22	1187,82
387,43	1298,41
387,64	1273,84
387,85	1253,36
388,06	1257,45
388,27	1292,27
388,48	1220,59
388,68	1226,73
388,89	1249,26
389,10	1218,54
389,31	1198,06
389,52	1232,88
389,73	1181,68
389,93	1275,88
390,14	1308,65
390,35	1302,51
390,56	1279,98
390,77	1331,18
390,98	1232,88
391,18	1249,26
391,39	1271,79
391,60	1243,12
391,81	1234,93
392,02	1253,36
392,23	1273,84
392,43	1204,21
392,64	1310,70
392,85	1279,98
393,06	1243,12
393,27	1234,93
393,47	1228,78
393,68	1226,73
393,89	1243,12
394,10	1257,45
394,31	1257,45
394,52	1314,80
394,72	1271,79
394,93	1265,64
395,14	1341,42
395,35	1318,89
395,56	1251,31
395,76	1282,03
395,97	1265,64
396,18	1304,56
396,39	1222,64
396,60	1329,13
396,80	1294,32
397,01	1290,22
397,22	1271,79
397,43	1292,27
397,64	1292,27
397,84	1241,07
398,05	1243,12
398,26	1316,84
398,47	1243,12
398,67	1339,37
398,88	1286,12
399,09	1265,64
399,30	1187,82
399,51	1286,12
399,71	1320,94
399,92	1222,64
400,13	1279,98
400,34	1267,69
400,54	1294,32
400,75	1234,93
400,96	1236,97
401,17	1325,04
401,37	1228,78
401,58	1306,60
401,79	1288,17
402,00	1271,79
402,21	1288,17
402,41	1249,26
402,62	1271,79
402,83	1234,93
403,04	1189,87
403,24	1239,02
403,45	1255,40
403,66	1208,30
403,87	1239,02
404,07	1259,50
404,28	1226,73
404,49	1296,36
404,70	1306,60
404,90	1208,30
405,11	1230,83
405,32	1320,94
405,52	1282,03
405,73	1255,40
405,94	1200,11
406,15	1267,69
406,35	1261,55
406,56	1300,46
406,77	1304,56
406,98	1300,46
407,18	1300,46
407,39	1167,34
407,60	1257,45
407,80	1265,64
408,01	1232,88
408,22	1230,83
408,43	1224,69
408,63	1322,99
408,84	1265,64
409,05	1224,69
409,25	1277,93
409,46	1345,52
409,67	1310,70
409,88	1294,32
410,08	1267,69
410,29	1183,73
410,50	1294,32
410,70	1357,80
410,91	1314,80
411,12	1208,30
411,32	1271,79
411,53	1239,02
411,74	1253,36
411,95	1239,02
412,15	1210,35
412,36	1255,40
412,57	1374,19
412,77	1263,60
412,98	1277,93
413,19	1314,80
413,39	1261,55
413,60	1288,17
413,81	1255,40
414,01	1257,45
414,22	1290,22
414,43	1249,26
414,63	1273,84
414,84	1273,84
415,05	1282,03
415,25	1255,40
415,46	1150,96
415,67	1339,37
415,87	1290,22
416,08	1269,74
416,29	1220,59
416,49	1310,70
416,70	1253,36
416,91	1314,80
417,11	1306,60
417,32	1255,40
417,53	1292,27
417,73	1257,45
417,94	1210,35
418,15	1331,18
418,35	1241,07
418,56	1288,17
418,77	1243,12
418,97	1331,18
419,18	1275,88
419,38	1300,46
419,59	1232,88
419,80	1220,59
420,00	1175,53
420,21	1257,45
420,42	1230,83
420,62	1288,17
420,83	1247,21
421,04	1232,88
421,24	1312,75
421,45	1306,60
421,65	1179,63
421,86	1222,64
422,07	1273,84
422,27	1243,12
422,48	1269,74
422,69	1181,68
422,89	1312,75
423,10	1226,73
423,30	1312,75
423,51	1279,98
423,72	1304,56
423,92	1220,59
424,13	1245,16
424,33	1241,07
424,54	1259,50
424,75	1214,45
424,95	1343,47
425,16	1282,03
425,36	1273,84
425,57	1306,60
425,78	1261,55
425,98	1314,80
426,19	1269,74
426,39	1296,36
426,60	1228,78
426,81	1212,40
427,01	1243,12
427,22	1277,93
427,42	1245,16
427,63	1200,11
427,83	1288,17
428,04	1304,56
428,25	1271,79
428,45	1277,93
428,66	1290,22
428,86	1302,51
429,07	1251,31
429,28	1310,70
429,48	1341,42
429,69	1255,40
429,89	1255,40
430,10	1296,36
430,30	1318,89
430,51	1271,79
430,71	1257,45
430,92	1232,88
431,13	1314,80
431,33	1300,46
431,54	1230,83
431,74	1218,54
431,95	1251,31
432,15	1257,45
432,36	1282,03
432,56	1232,88
432,77	1212,40
432,98	1245,16
433,18	1347,56
433,39	1271,79
433,59	1247,21
433,80	1312,75
434,00	1189,87
434,21	1302,51
434,41	1296,36
434,62	1273,84
434,82	1277,93
435,03	1220,59
435,23	1218,54
435,44	1277,93
435,64	1187,82
435,85	1245,16
436,06	1236,97
436,26	1290,22
436,47	1228,78
436,67	1259,50
436,88	1236,97
437,08	1257,45
437,29	1263,60
437,49	1224,69
437,70	1210,35
437,90	1343,47
438,11	1230,83
438,31	1322,99
438,52	1273,84
438,72	1302,51
438,93	1241,07
439,13	1214,45
439,34	1275,88
439,54	1206,25
439,75	1300,46
439,95	1234,93
440,16	1296,36
440,36	1230,83
440,57	1288,17
440,77	1277,93
440,98	1284,08
441,18	1322,99
441,39	1304,56
441,59	1253,36
441,80	1259,50
442,00	1345,52
442,21	1193,97
442,41	1234,93
442,62	1269,74
442,82	1257,45
443,02	1275,88
443,23	1310,70
443,43	1292,27
443,64	1279,98
443,84	1337,32
444,05	1245,16
444,25	1230,83
444,46	1263,60
444,66	1243,12
444,87	1257,45
445,07	1312,75
445,28	1298,41
445,48	1322,99
445,69	1228,78
445,89	1279,98
446,09	1249,26
446,30	1255,40
446,50	1302,51
446,71	1232,88
446,91	1279,98
447,12	1261,55
447,32	1277,93
447,53	1288,17
447,73	1200,11
447,93	1327,08
448,14	1236,97
448,34	1261,55
448,55	1200,11
448,75	1257,45
448,96	1304,56
449,16	1318,89
449,36	1300,46
449,57	1312,75
449,77	1282,03
449,98	1314,80
450,18	1191,92
450,39	1216,49
450,59	1208,30
450,79	1310,70
451,00	1312,75
451,20	1316,84
451,41	1257,45
451,61	1228,78
451,81	1325,04
452,02	1284,08
452,22	1288,17
452,43	1183,73
452,63	1277,93
452,84	1245,16
453,04	1218,54
453,24	1259,50
453,45	1331,18
453,65	1284,08
453,86	1282,03
454,06	1304,56
454,26	1279,98
454,47	1273,84
454,67	1263,60
454,87	1347,56
455,08	1261,55
455,28	1327,08
455,49	1363,95
455,69	1343,47
455,89	1265,64
456,10	1261,55
456,30	1216,49
456,51	1216,49
456,71	1282,03
456,91	1243,12
457,12	1263,60
457,32	1302,51
457,52	1267,69
457,73	1271,79
457,93	1243,12
458,14	1236,97
458,34	1224,69
458,54	1232,88
458,75	1253,36
458,95	1286,12
459,15	1236,97
459,36	1259,50
459,56	1286,12
459,76	1236,97
459,97	1265,64
460,17	1271,79
460,37	1298,41
460,58	1257,45
460,78	1269,74
460,99	1230,83
461,19	1292,27
461,39	1263,60
461,60	1261,55
461,80	1249,26
462,00	1236,97
462,21	1284,08
462,41	1253,36
462,61	1261,55
462,82	1218,54
463,02	1253,36
463,22	1306,60
463,43	1265,64
463,63	1288,17
463,83	1296,36
464,04	1224,69
464,24	1304,56
464,44	1333,23
464,64	1304,56
464,85	1298,41
465,05	1273,84
465,25	1263,60
465,46	1228,78
465,66	1241,07
465,86	1214,45
466,07	1329,13
466,27	1284,08
466,47	1304,56
466,68	1255,40
466,88	1331,18
467,08	1288,17
467,29	1300,46
467,49	1241,07
467,69	1249,26
467,89	1265,64
468,10	1302,51
468,30	1243,12
468,50	1249,26
468,71	1249,26
468,91	1216,49
469,11	1290,22
469,31	1249,26
469,52	1271,79
469,72	1279,98
469,92	1257,45
470,13	1249,26
470,33	1302,51
470,53	1316,84
470,73	1343,47
470,94	1273,84
471,14	1202,16
471,34	1173,49
471,54	1269,74
471,75	1337,32
471,95	1306,60
472,15	1306,60
472,36	1290,22
472,56	1290,22
472,76	1312,75
472,96	1204,21
473,17	1236,97
473,37	1273,84
473,57	1265,64
473,77	1290,22
473,98	1161,20
474,18	1265,64
474,38	1239,02
474,58	1245,16
474,79	1216,49
474,99	1314,80
475,19	1292,27
475,39	1263,60
475,60	1300,46
475,80	1196,01
476,00	1310,70
476,20	1279,98
476,41	1251,31
476,61	1292,27
476,81	1306,60
477,01	1282,03
477,21	1232,88
477,42	1245,16
477,62	1239,02
477,82	1236,97
478,02	1224,69
478,23	1277,93
478,43	1200,11
478,63	1296,36
478,83	1265,64
479,03	1241,07
479,24	1253,36
479,44	1290,22
479,64	1290,22
479,84	1325,04
480,04	1290,22
480,25	1243,12
480,45	1226,73
480,65	1239,02
480,85	1230,83
481,06	1210,35
481,26	1286,12
481,46	1265,64
481,66	1282,03
481,86	1277,93
482,06	1290,22
482,27	1249,26
482,47	1251,31
482,67	1218,54
482,87	1257,45
483,07	1239,02
483,28	1271,79
483,48	1253,36
483,68	1294,32
483,88	1277,93
484,08	1277,93
484,29	1255,40
484,49	1216,49
484,69	1185,77
484,89	1269,74
485,09	1273,84
485,29	1273,84
485,50	1282,03
485,70	1257,45
485,90	1224,69
486,10	1230,83
486,30	1243,12
486,50	1236,97
486,71	1255,40
486,91	1259,50
487,11	1271,79
487,31	1251,31
487,51	1361,90
487,71	1347,56
487,91	1257,45
488,12	1273,84
488,32	1222,64
488,52	1230,83
488,72	1259,50
488,92	1341,42
489,12	1292,27
489,32	1206,25
489,53	1232,88
489,73	1306,60
489,93	1224,69
490,13	1236,97
490,33	1294,32
490,53	1284,08
490,73	1286,12
490,94	1210,35
491,14	1249,26
491,34	1296,36
491,54	1271,79
491,74	1282,03
491,94	1224,69
492,14	1228,78
492,34	1265,64
492,54	1273,84
492,75	1316,84
492,95	1277,93
493,15	1357,80
493,35	1251,31
493,55	1259,50
493,75	1236,97
493,95	1216,49
494,15	1226,73
494,35	1241,07
494,56	1288,17
494,76	1247,21
494,96	1267,69
495,16	1265,64
495,36	1245,16
495,56	1236,97
495,76	1361,90
495,96	1345,52
496,16	1257,45
496,36	1255,40
496,56	1318,89
496,77	1316,84
496,97	1310,70
497,17	1185,77
497,37	1271,79
497,57	1304,56
497,77	1279,98
497,97	1331,18
498,17	1210,35
498,37	1146,86
498,57	1259,50
498,77	1267,69
498,97	1308,65
499,17	1275,88
499,38	1239,02
499,58	1329,13
499,78	1337,32
499,98	1298,41
500,18	1189,87
500,38	1222,64
500,58	1302,51
500,78	1273,84
500,98	1257,45
501,18	1298,41
501,38	1312,75
501,58	1320,94
501,78	1232,88
501,98	1273,84
502,18	1220,59
502,38	1300,46
502,58	1226,73
502,78	1243,12
502,98	1257,45
503,18	1277,93
503,38	1288,17
503,59	1275,88
503,79	1298,41
503,99	1290,22
504,19	1275,88
504,39	1265,64
504,59	1202,16
504,79	1333,23
504,99	1259,50
505,19	1245,16
505,39	1300,46
505,59	1267,69
505,79	1253,36
505,99	1261,55
506,19	1261,55
506,39	1263,60
506,59	1320,94
506,79	1261,55
506,99	1269,74
507,19	1279,98
507,39	1302,51
507,59	1314,80
507,79	1245,16
507,99	1259,50
508,19	1228,78
508,39	1294,32
508,59	1273,84
508,79	1304,56
508,99	1279,98
509,19	1255,40
509,39	1318,89
509,59	1310,70
509,79	1271,79
509,99	1222,64
510,19	1288,17
510,39	1329,13
510,59	1267,69
510,79	1232,88
510,99	1275,88
511,19	1316,84
511,39	1247,21
511,59	1257,45
511,79	1296,36
511,99	1247,21
512,19	1247,21
512,38	1257,45
512,58	1282,03
512,78	1290,22
512,98	1181,68
513,18	1296,36
513,38	1302,51
513,58	1296,36
513,78	1253,36
513,98	1322,99
514,18	1222,64
514,38	1279,98
514,58	1310,70
514,78	1306,60
514,98	1210,35
515,18	1245,16
515,38	1165,29
515,58	1310,70
515,78	1241,07
515,98	1245,16
516,18	1224,69
516,38	1243,12
516,57	1243,12
516,77	1261,55
516,97	1171,44
517,17	1245,16
517,37	1308,65
517,57	1259,50
517,77	1322,99
517,97	1277,93
518,17	1277,93
518,37	1259,50
518,57	1247,21
518,77	1198,06
518,97	1239,02
519,16	1230,83
519,36	1302,51
519,56	1273,84
519,76	1312,75
519,96	1222,64
520,16	1261,55
520,36	1316,84
520,56	1259,50
520,76	1306,60
520,96	1245,16
521,16	1304,56
521,35	1239,02
521,55	1230,83
521,75	1245,16
521,95	1322,99
522,15	1269,74
522,35	1286,12
522,55	1245,16
522,75	1253,36
522,95	1253,36
523,14	1370,09
523,34	1294,32
523,54	1234,93
523,74	1257,45
523,94	1277,93
524,14	1251,31
524,34	1261,55
524,54	1251,31
524,73	1247,21
524,93	1304,56
525,13	1224,69
525,33	1230,83
525,53	1269,74
525,73	1236,97
525,93	1218,54
526,13	1273,84
526,32	1273,84
526,52	1298,41
526,72	1267,69
526,92	1257,45
527,12	1320,94
527,32	1267,69
527,52	1269,74
527,71	1241,07
527,91	1216,49
528,11	1234,93
528,31	1261,55
528,51	1249,26
528,71	1257,45
528,90	1286,12
529,10	1245,16
529,30	1241,07
529,50	1277,93
529,70	1277,93
529,90	1259,50
530,09	1249,26
530,29	1347,56
530,49	1220,59
530,69	1259,50
530,89	1288,17
531,09	1267,69
531,28	1294,32
531,48	1286,12
531,68	1169,39
531,88	1314,80
532,08	1198,06
532,28	1298,41
532,47	1304,56
532,67	1249,26
532,87	1288,17
533,07	1277,93
533,27	1132,53
533,46	1279,98
533,66	1398,76
533,86	1263,60
534,06	1179,63
534,26	1243,12
534,45	1263,60
534,65	1230,83
534,85	1241,07
535,05	1198,06
535,25	1216,49
535,44	1249,26
535,64	1284,08
535,84	1230,83
536,04	1148,91
536,24	1204,21
536,43	1292,27
536,63	1253,36
536,83	1259,50
537,03	1277,93
537,22	1271,79
537,42	1193,97
537,62	1286,12
537,82	1282,03
538,02	1253,36
538,21	1265,64
538,41	1249,26
538,61	1239,02
538,81	1322,99
539,00	1224,69
539,20	1304,56
539,40	1249,26
539,60	1284,08
539,79	1269,74
539,99	1265,64
540,19	1222,64
540,39	1224,69
540,58	1236,97
540,78	1206,25
540,98	1212,40
541,18	1218,54
541,37	1277,93
541,57	1247,21
541,77	1204,21
541,97	1255,40
542,16	1333,23
542,36	1208,30
542,56	1329,13
542,76	1243,12
542,95	1345,52
543,15	1325,04
543,35	1370,09
543,54	1218,54
543,74	1232,88
543,94	1353,71
544,14	1277,93
544,33	1236,97
544,53	1341,42
544,73	1300,46
544,93	1230,83
545,12	1265,64
545,32	1249,26
545,52	1255,40
545,71	1267,69
545,91	1284,08
546,11	1300,46
546,30	1284,08
546,50	1273,84
546,70	1277,93
546,90	1259,50
547,09	1187,82
547,29	1279,98
547,49	1284,08
547,68	1214,45
547,88	1241,07
548,08	1239,02
548,27	1310,70
548,47	1222,64
548,67	1220,59
548,87	1279,98
549,06	1232,88
549,26	1265,64
549,46	1259,50
549,65	1163,25
549,85	1288,17
550,05	1251,31
550,24	1286,12
550,44	1249,26
550,64	1314,80
550,83	1302,51
551,03	1292,27
551,23	1343,47
551,42	1255,40
551,62	1275,88
551,82	1304,56
552,01	1288,17
552,21	1294,32
552,41	1288,17
552,60	1185,77
552,80	1243,12
553,00	1279,98
553,19	1224,69
553,39	1204,21
553,59	1265,64
553,78	1241,07
553,98	1265,64
554,17	1249,26
554,37	1228,78
554,57	1234,93
554,76	1300,46
554,96	1230,83
555,16	1339,37
555,35	1228,78
555,55	1306,60
555,75	1228,78
555,94	1222,64
556,14	1204,21
556,33	1269,74
556,53	1329,13
556,73	1200,11
556,92	1183,73
557,12	1271,79
557,32	1236,97
557,51	1204,21
557,71	1236,97
557,90	1296,36
558,10	1255,40
558,30	1232,88
558,49	1288,17
558,69	1267,69
558,88	1251,31
559,08	1232,88
559,28	1302,51
559,47	1294,32
559,67	1253,36
559,86	1298,41
560,06	1269,74
560,26	1255,40
560,45	1230,83
560,65	1208,30
560,84	1282,03
561,04	1265,64
561,24	1273,84
561,43	1288,17
561,63	1267,69
561,82	1298,41
562,02	1230,83
562,22	1222,64
562,41	1279,98
562,61	1226,73
562,80	1259,50
563,00	1304,56
563,19	1314,80
563,39	1245,16
563,59	1273,84
563,78	1279,98
563,98	1220,59
564,17	1177,58
564,37	1296,36
564,56	1241,07
564,76	1312,75
564,96	1236,97
565,15	1216,49
565,35	1298,41
565,54	1279,98
565,74	1290,22
565,93	1243,12
566,13	1228,78
566,32	1236,97
566,52	1241,07
566,71	1263,60
566,91	1308,65
567,11	1239,02
567,30	1243,12
567,50	1261,55
567,69	1320,94
567,89	1208,30
568,08	1290,22
568,28	1310,70
568,47	1308,65
568,67	1181,68
568,86	1294,32
569,06	1308,65
569,25	1292,27
569,45	1298,41
569,64	1292,27
569,84	1269,74
570,04	1236,97
570,23	1277,93
570,43	1247,21
570,62	1232,88
570,82	1294,32
571,01	1310,70
571,21	1263,60
571,40	1290,22
571,60	1230,83
571,79	1329,13
571,99	1273,84
572,18	1239,02
572,38	1198,06
572,57	1226,73
572,77	1259,50
572,96	1239,02
573,16	1230,83
573,35	1314,80
573,55	1294,32
573,74	1263,60
573,94	1261,55
574,13	1232,88
574,33	1273,84
574,52	1279,98
574,71	1228,78
574,91	1224,69
575,10	1269,74
575,30	1257,45
575,49	1273,84
575,69	1310,70
575,88	1275,88
576,08	1255,40
576,27	1220,59
576,47	1304,56
576,66	1275,88
576,86	1224,69
577,05	1183,73
577,25	1288,17
577,44	1239,02
577,64	1226,73
577,83	1267,69
578,02	1191,92
578,22	1310,70
578,41	1228,78
578,61	1249,26
578,80	1218,54
579,00	1273,84
579,19	1277,93
579,39	1200,11
579,58	1265,64
579,77	1267,69
579,97	1255,40
580,16	1341,42
580,36	1265,64
580,55	1267,69
580,75	1298,41
580,94	1261,55
581,13	1282,03
581,33	1273,84
581,52	1279,98
581,72	1292,27
581,91	1294,32
582,11	1189,87
582,30	1255,40
582,49	1255,40
582,69	1247,21
582,88	1269,74
583,08	1290,22
583,27	1312,75
583,47	1302,51
583,66	1257,45
583,85	1261,55
584,05	1267,69
584,24	1243,12
584,44	1277,93
584,63	1294,32
584,82	1232,88
585,02	1339,37
585,21	1273,84
585,41	1314,80
585,60	1234,93
585,79	1259,50
585,99	1275,88
586,18	1304,56
586,37	1236,97
586,57	1302,51
586,76	1265,64
586,96	1304,56
587,15	1216,49
587,34	1300,46
587,54	1249,26
587,73	1263,60
587,93	1271,79
588,12	1228,78
588,31	1322,99
588,51	1234,93
588,70	1230,83
588,89	1189,87
589,09	1253,36
589,28	1345,52
589,47	1230,83
589,67	1294,32
589,86	1245,16
590,06	1296,36
590,25	1255,40
590,44	1251,31
590,64	1255,40
590,83	1290,22
591,02	1259,50
591,22	1243,12
591,41	1243,12
591,60	1253,36
591,80	1173,49
591,99	1263,60
592,18	1247,21
592,38	1226,73
592,57	1271,79
592,76	1267,69
592,96	1253,36
593,15	1259,50
593,34	1222,64
593,54	1263,60
593,73	1249,26
593,92	1310,70
594,12	1343,47
594,31	1314,80
594,50	1318,89
594,70	1245,16
594,89	1290,22
595,08	1232,88
595,28	1239,02
595,47	1204,21
595,66	1263,60
595,86	1191,92
596,05	1267,69
596,24	1214,45
596,43	1257,45
596,63	1273,84
596,82	1288,17
597,01	1216,49
597,21	1267,69
597,40	1261,55
597,59	1204,21
597,79	1300,46
597,98	1304,56
598,17	1206,25
598,36	1167,34
598,56	1282,03
598,75	1220,59
598,94	1257,45
599,14	1277,93
599,33	1251,31
599,52	1263,60
599,71	1273,84
599,91	1245,16
600,10	1263,60
600,29	1271,79
600,48	1265,64
600,68	1275,88
600,87	1288,17
601,06	1200,11
601,26	1210,35
601,45	1261,55
601,64	1267,69
601,83	1282,03
602,03	1251,31
602,22	1286,12
602,41	1304,56
602,60	1308,65
602,80	1218,54
602,99	1216,49
603,18	1284,08
603,37	1288,17
603,57	1263,60
603,76	1351,66
603,95	1302,51
604,14	1220,59
604,34	1322,99
604,53	1273,84
604,72	1314,80
604,91	1282,03
605,10	1296,36
605,30	1288,17
605,49	1232,88
605,68	1271,79
605,87	1273,84
606,07	1216,49
606,26	1279,98
606,45	1259,50
606,64	1294,32
606,84	1214,45
607,03	1239,02
607,22	1314,80
607,41	1241,07
607,60	1292,27
607,80	1314,80
607,99	1300,46
608,18	1302,51
608,37	1249,26
608,56	1269,74
608,76	1320,94
608,95	1196,01
609,14	1257,45
609,33	1234,93
609,52	1214,45
609,72	1271,79
609,91	1290,22
610,10	1234,93
610,29	1282,03
610,48	1335,28
610,68	1230,83
610,87	1286,12
611,06	1193,97
611,25	1224,69
611,44	1257,45
611,63	1241,07
611,83	1247,21
612,02	1198,06
612,21	1310,70
612,40	1257,45
612,59	1212,40
612,79	1302,51
612,98	1279,98
613,17	1269,74
613,36	1368,04
613,55	1251,31
613,74	1288,17
613,93	1263,60
614,13	1294,32
614,32	1236,97
614,51	1314,80
614,70	1279,98
614,89	1306,60
615,08	1269,74
615,28	1292,27
615,47	1267,69
615,66	1316,84
615,85	1351,66
616,04	1261,55
616,23	1255,40
616,42	1275,88
616,62	1261,55
616,81	1292,27
617,00	1294,32
617,19	1322,99
617,38	1251,31
617,57	1294,32
617,76	1208,30
617,95	1277,93
618,15	1226,73
618,34	1269,74
618,53	1222,64
618,72	1331,18
618,91	1247,21
619,10	1148,91
619,29	1189,87
619,48	1341,42
619,68	1239,02
619,87	1241,07
620,06	1286,12
620,25	1314,80
620,44	1290,22
620,63	1236,97
620,82	1294,32
621,01	1263,60
621,20	1224,69
621,39	1325,04
621,59	1310,70
621,78	1325,04
621,97	1269,74
622,16	1290,22
622,35	1322,99
622,54	1294,32
622,73	1230,83
622,92	1230,83
623,11	1236,97
623,30	1220,59
623,49	1271,79
623,68	1290,22
623,88	1290,22
624,07	1312,75
624,26	1308,65
624,45	1241,07
624,64	1273,84
624,83	1310,70
625,02	1290,22
625,21	1273,84
625,40	1253,36
625,59	1288,17
625,78	1316,84
625,97	1245,16
626,16	1347,56
626,35	1267,69
626,54	1384,43
626,74	1298,41
626,93	1329,13
627,12	1363,95
627,31	1271,79
627,50	1220,59
627,69	1349,61
627,88	1263,60
628,07	1376,24
628,26	1339,37
628,45	1331,18
628,64	1314,80
628,83	1294,32
629,02	1316,84
629,21	1296,36
629,40	1241,07
629,59	1230,83
629,78	1290,22
629,97	1273,84
630,16	1271,79
630,35	1290,22
630,54	1284,08
630,73	1273,84
630,92	1337,32
631,11	1290,22
631,30	1376,24
631,49	1318,89
631,68	1617,90
631,87	2113,50
632,06	3649,48
632,25	2971,60
632,44	3839,94
632,63	5038,00
632,82	9021,30
633,01	8710,01
633,20	18968,29
633,39	41751,94
633,58	58770,56
633,77	65535,00
633,96	65535,00
634,15	54125,77
634,34	33125,89
634,53	18208,49
634,72	9961,32
634,91	5017,52
635,10	2850,77
635,29	1984,48
635,48	1648,61
635,67	1509,35
635,86	1509,35
636,05	1394,67
636,24	1331,18
636,43	1355,76
636,62	1392,62
636,81	1376,24
637,00	1339,37
637,19	1290,22
637,38	1374,19
637,57	1380,33
637,76	1353,71
637,95	1327,08
638,14	1325,04
638,33	1296,36
638,52	1314,80
638,71	1294,32
638,89	1298,41
639,08	1234,93
639,27	1298,41
639,46	1306,60
639,65	1277,93
639,84	1265,64
640,03	1282,03
640,22	1208,30
640,41	1273,84
640,60	1310,70
640,79	1292,27
640,98	1351,66
641,17	1253,36
641,36	1310,70
641,55	1257,45
641,74	1261,55
641,92	1261,55
642,11	1341,42
642,30	1298,41
642,49	1282,03
642,68	1247,21
642,87	1228,78
643,06	1304,56
643,25	1282,03
643,44	1312,75
643,63	1239,02
643,82	1282,03
644,00	1290,22
644,19	1312,75
644,38	1353,71
644,57	1271,79
644,76	1265,64
644,95	1251,31
645,14	1310,70
645,33	1282,03
645,52	1351,66
645,71	1259,50
645,89	1239,02
646,08	1228,78
646,27	1304,56
646,46	1351,66
646,65	1214,45
646,84	1306,60
647,03	1249,26
647,22	1288,17
647,40	1253,36
647,59	1269,74
647,78	1249,26
647,97	1294,32
648,16	1251,31
648,35	1361,90
648,54	1325,04
648,73	1288,17
648,91	1292,27
649,10	1218,54
649,29	1234,93
649,48	1288,17
649,67	1251,31
649,86	1224,69
650,05	1263,60
650,23	1265,64
650,42	1247,21
650,61	1310,70
650,80	1245,16
650,99	1234,93
651,18	1239,02
651,36	1275,88
651,55	1279,98
651,74	1245,16
651,93	1251,31
652,12	1290,22
652,31	1232,88
652,49	1279,98
652,68	1284,08
652,87	1322,99
653,06	1214,45
653,25	1241,07
653,44	1310,70
653,62	1257,45
653,81	1245,16
654,00	1368,04
654,19	1290,22
654,38	1263,60
654,56	1228,78
654,75	1312,75
654,94	1320,94
655,13	1345,52
655,32	1253,36
655,51	1298,41
655,69	1306,60
655,88	1310,70
656,07	1353,71
656,26	1271,79
656,45	1271,79
656,63	1202,16
656,82	1204,21
657,01	1230,83
657,20	1286,12
657,38	1239,02
657,57	1310,70
657,76	1273,84
657,95	1261,55
658,14	1322,99
658,32	1226,73
658,51	1196,01
658,70	1220,59
658,89	1230,83
659,08	1255,40
659,26	1245,16
659,45	1273,84
659,64	1290,22
659,83	1249,26
660,01	1327,08
660,20	1327,08
660,39	1345,52
660,58	1314,80
660,76	1325,04
660,95	1320,94
661,14	1273,84
661,33	1212,40
661,51	1325,04
661,70	1216,49
661,89	1275,88
662,08	1185,77
662,26	1277,93
662,45	1251,31
662,64	1196,01
662,83	1275,88
663,01	1277,93
663,20	1320,94
663,39	1249,26
663,58	1271,79
663,76	1292,27
663,95	1267,69
664,14	1214,45
664,32	1298,41
664,51	1322,99
664,70	1275,88
664,89	1241,07
665,07	1339,37
665,26	1298,41
665,45	1302,51
665,64	1339,37
665,82	1239,02
666,01	1259,50
666,20	1261,55
666,38	1275,88
666,57	1261,55
666,76	1187,82
666,95	1239,02
667,13	1290,22
667,32	1261,55
667,51	1241,07
667,69	1288,17
667,88	1249,26
668,07	1290,22
668,25	1284,08
668,44	1265,64
668,63	1312,75
668,81	1267,69
669,00	1249,26
669,19	1306,60
669,38	1279,98
669,56	1257,45
669,75	1247,21
669,94	1308,65
670,12	1282,03
670,31	1263,60
670,50	1212,40
670,68	1290,22
670,87	1263,60
671,06	1200,11
671,24	1271,79
671,43	1269,74
671,62	1241,07
671,80	1279,98
671,99	1243,12
672,18	1273,84
672,36	1304,56
672,55	1261,55
672,74	1243,12
672,92	1181,68
673,11	1216,49
673,29	1290,22
673,48	1239,02
673,67	1210,35
673,85	1230,83
674,04	1259,50
674,23	1239,02
674,41	1345,52
674,60	1232,88
674,79	1253,36
674,97	1196,01
675,16	1306,60
675,34	1247,21
675,53	1298,41
675,72	1320,94
675,90	1279,98
676,09	1263,60
676,28	1257,45
676,46	1288,17
676,65	1187,82
676,83	1239,02
677,02	1277,93
677,21	1212,40
677,39	1298,41
677,58	1329,13
677,77	1257,45
677,95	1216,49
678,14	1253,36
678,32	1312,75
678,51	1290,22
678,70	1286,12
678,88	1314,80
679,07	1202,16
679,25	1302,51
679,44	1298,41
679,63	1253,36
679,81	1273,84
680,00	1284,08
680,18	1232,88
680,37	1279,98
680,55	1304,56
680,74	1271,79
680,93	1206,25
681,11	1257,45
681,30	1247,21
681,48	1216,49
681,67	1265,64
681,85	1298,41
682,04	1255,40
682,23	1222,64
682,41	1255,40
682,60	1249,26
682,78	1236,97
682,97	1325,04
683,15	1255,40
683,34	1150,96
683,53	1322,99
683,71	1269,74
683,90	1290,22
684,08	1224,69
684,27	1222,64
684,45	1243,12
684,64	1241,07
684,82	1277,93
685,01	1320,94
685,19	1259,50
685,38	1279,98
685,57	1300,46
685,75	1282,03
685,94	1230,83
686,12	1318,89
686,31	1253,36
686,49	1239,02
686,68	1298,41
686,86	1290,22
687,05	1271,79
687,23	1265,64
687,42	1337,32
687,60	1253,36
687,79	1247,21
687,97	1300,46
688,16	1271,79
688,34	1294,32
688,53	1232,88
688,71	1196,01
688,90	1290,22
689,08	1247,21
689,27	1251,31
689,45	1286,12
689,64	1339,37
689,82	1279,98
690,01	1269,74
690,19	1243,12
690,38	1286,12
690,56	1288,17
690,75	1220,59
690,93	1251,31
691,12	1269,74
691,30	1243,12
691,49	1259,50
691,67	1232,88
691,86	1277,93
692,04	1277,93
692,23	1236,97
692,41	1222,64
692,60	1325,04
692,78	1234,93
692,97	1245,16
693,15	1251,31
693,34	1253,36
693,52	1282,03
693,71	1204,21
693,89	1300,46
694,08	1239,02
694,26	1241,07
694,44	1277,93
694,63	1329,13
694,81	1286,12
695,00	1241,07
695,18	1204,21
695,37	1239,02
695,55	1284,08
695,74	1269,74
695,92	1216,49
696,10	1261,55
696,29	1212,40
696,47	1271,79
696,66	1200,11
696,84	1273,84
697,03	1196,01
697,21	1269,74
697,40	1275,88
697,58	1247,21
697,76	1286,12
697,95	1253,36
698,13	1282,03
698,32	1224,69
698,50	1314,80
698,68	1193,97
698,87	1284,08
699,05	1294,32
699,24	1279,98
699,42	1198,06
699,61	1288,17
699,79	1261,55
699,97	1306,60
700,16	1304,56
700,34	1284,08
700,53	1310,70
700,71	1277,93
700,89	1247,21
701,08	1265,64
701,26	1247,21
701,45	1314,80
701,63	1296,36
701,81	1261,55
702,00	1279,98
702,18	1230,83
702,37	1236,97
702,55	1306,60
702,73	1161,20
702,92	1288,17
703,10	1263,60
703,28	1236,97
703,47	1255,40
703,65	1208,30
703,84	1267,69
704,02	1300,46
704,20	1308,65
704,39	1232,88
704,57	1228,78
704,75	1290,22
704,94	1228,78
705,12	1275,88
705,30	1253,36
705,49	1247,21
705,67	1294,32
705,86	1335,28
706,04	1253,36
706,22	1349,61
706,41	1269,74
706,59	1216,49
706,77	1241,07
706,96	1286,12
707,14	1226,73
707,32	1257,45
707,51	1329,13
707,69	1206,25
707,87	1351,66
708,06	1308,65
708,24	1239,02
708,42	1257,45
708,61	1253,36
708,79	1277,93
708,97	1200,11
709,16	1247,21
709,34	1331,18
709,52	1265,64
709,71	1310,70
709,89	1236,97
710,07	1230,83
710,26	1277,93
710,44	1296,36
710,62	1361,90
710,80	1271,79
710,99	1189,87
711,17	1267,69
711,35	1273,84
711,54	1255,40
711,72	1245,16
711,90	1341,42
712,09	1304,56
712,27	1259,50
712,45	1325,04
712,63	1234,93
712,82	1247,21
713,00	1265,64
713,18	1282,03
713,37	1230,83
713,55	1259,50
713,73	1343,47
713,91	1327,08
714,10	1232,88
714,28	1255,40
714,46	1304,56
714,65	1245,16
714,83	1300,46
715,01	1212,40
715,19	1277,93
715,38	1277,93
715,56	1288,17
715,74	1204,21
715,92	1304,56
716,11	1228,78
716,29	1210,35
716,47	1306,60
716,65	1249,26
716,84	1241,07
717,02	1288,17
717,20	1306,60
717,38	1255,40
717,57	1263,60
717,75	1228,78
717,93	1210,35
718,11	1249,26
718,30	1294,32
718,48	1257,45
718,66	1253,36
718,84	1273,84
719,03	1316,84
719,21	1261,55
719,39	1288,17
719,57	1286,12
719,75	1329,13
719,94	1243,12
720,12	1214,45
720,30	1259,50
720,48	1239,02
720,67	1265,64
720,85	1343,47
721,03	1241,07
721,21	1255,40
721,39	1329,13
721,58	1271,79
721,76	1245,16
721,94	1253,36
722,12	1236,97
722,30	1204,21
722,49	1302,51
722,67	1234,93
722,85	1253,36
723,03	1273,84
723,21	1288,17
723,40	1263,60
723,58	1282,03
723,76	1298,41
723,94	1300,46
724,12	1308,65
724,30	1288,17
724,49	1163,25
724,67	1181,68
724,85	1304,56
725,03	1263,60
725,21	1312,75
725,40	1292,27
725,58	1234,93
725,76	1259,50
725,94	1253,36
726,12	1273,84
726,30	1269,74
726,49	1251,31
726,67	1279,98
726,85	1259,50
727,03	1261,55
727,21	1255,40
727,39	1232,88
727,57	1230,83
727,76	1191,92
727,94	1279,98
728,12	1257,45
728,30	1224,69
728,48	1245,16
728,66	1222,64
728,84	1331,18
729,03	1279,98
729,21	1216,49
729,39	1226,73
729,57	1241,07
729,75	1198,06
729,93	1214,45
730,11	1292,27
730,30	1249,26
730,48	1146,86
730,66	1257,45
730,84	1230,83
731,02	1259,50
731,20	1271,79
731,38	1292,27
731,56	1230,83
731,74	1308,65
731,93	1296,36
732,11	1282,03
732,29	1282,03
732,47	1261,55
732,65	1204,21
732,83	1271,79
733,01	1251,31
733,19	1181,68
733,37	1271,79
733,56	1239,02
733,74	1300,46
733,92	1251,31
734,10	1255,40
734,28	1327,08
734,46	1257,45
734,64	1228,78
734,82	1208,30
735,00	1275,88
735,18	1306,60
735,36	1312,75
735,54	1265,64
735,73	1220,59
735,91	1216,49
736,09	1255,40
736,27	1279,98
736,45	1236,97
736,63	1253,36
736,81	1275,88
736,99	1204,21
737,17	1191,92
737,35	1312,75
737,53	1236,97
737,71	1263,60
737,89	1191,92
738,07	1277,93
738,25	1253,36
738,43	1273,84
738,61	1282,03
738,80	1277,93
738,98	1251,31
739,16	1294,32
739,34	1261,55
739,52	1257,45
739,70	1245,16
739,88	1271,79
740,06	1390,57
740,24	1236,97
740,42	1216,49
740,60	1255,40
740,78	1273,84
740,96	1232,88
741,14	1267,69
741,32	1241,07
741,50	1290,22
741,68	1239,02
741,86	1269,74
742,04	1314,80
742,22	1234,93
742,40	1224,69
742,58	1312,75
742,76	1302,51
742,94	1226,73
743,12	1214,45
743,30	1277,93
743,48	1279,98
743,66	1234,93
743,84	1239,02
744,02	1275,88
744,20	1288,17
744,38	1230,83
744,56	1314,80
744,74	1241,07
744,92	1212,40
745,10	1228,78
745,28	1200,11
745,46	1236,97
745,64	1267,69
745,82	1279,98
746,00	1239,02
746,18	1279,98
746,36	1335,28
746,54	1226,73
746,72	1302,51
746,90	1255,40
747,08	1312,75
747,26	1277,93
747,44	1282,03
747,62	1322,99
747,80	1282,03
747,98	1271,79
748,15	1273,84
748,33	1230,83
748,51	1245,16
748,69	1284,08
748,87	1292,27
749,05	1230,83
749,23	1224,69
749,41	1322,99
749,59	1187,82
749,77	1290,22
749,95	1294,32
750,13	1273,84
750,31	1282,03
750,49	1230,83
750,67	1269,74
750,85	1251,31
751,03	1232,88
751,20	1255,40
751,38	1232,88
751,56	1284,08
751,74	1277,93
751,92	1284,08
752,10	1167,34
752,28	1253,36
752,46	1245,16
752,64	1265,64
752,82	1230,83
753,00	1210,35
753,18	1312,75
753,35	1269,74
753,53	1322,99
753,71	1220,59
753,89	1279,98
754,07	1286,12
754,25	1257,45
754,43	1312,75
754,61	1298,41
754,79	1204,21
754,97	1191,92
755,14	1241,07
755,32	1345,52
755,50	1294,32
755,68	1222,64
755,86	1273,84
756,04	1261,55
756,22	1187,82
756,40	1282,03
756,57	1273,84
756,75	1286,12
756,93	1257,45
757,11	1241,07
757,29	1267,69
757,47	1257,45
757,65	1247,21
757,82	1273,84
758,00	1279,98
758,18	1226,73
758,36	1261,55
758,54	1327,08
758,72	1253,36
758,90	1273,84
759,07	1218,54
759,25	1284,08
759,43	1286,12
759,61	1253,36
759,79	1284,08
759,97	1314,80
760,15	1290,22
760,32	1292,27
760,50	1316,84
760,68	1290,22
760,86	1228,78
761,04	1279,98
761,22	1337,32
761,39	1247,21
761,57	1220,59
761,75	1253,36
761,93	1277,93
762,11	1261,55
762,28	1200,11
762,46	1251,31
762,64	1226,73
762,82	1220,59
763,00	1267,69
763,18	1249,26
763,35	1292,27
763,53	1273,84
763,71	1222,64
763,89	1277,93
764,07	1230,83
764,24	1282,03
764,42	1247,21
764,60	1308,65
764,78	1232,88
764,96	1339,37
765,13	1265,64
765,31	1282,03
765,49	1183,73
765,67	1245,16
765,84	1269,74
766,02	1169,39
766,20	1284,08
766,38	1273,84
766,56	1273,84
766,73	1247,21
766,91	1200,11
767,09	1255,40
767,27	1191,92
767,44	1306,60
767,62	1304,56
767,80	1247,21
767,98	1298,41
768,15	1208,30
768,33	1269,74
768,51	1214,45
768,69	1378,28
768,87	1257,45
769,04	1222,64
769,22	1255,40
769,40	1236,97
769,58	1259,50
769,75	1249,26
769,93	1300,46
770,11	1275,88
770,28	1288,17
770,46	1271,79
770,64	1243,12
770,82	1290,22
770,99	1263,60
771,17	1327,08
771,35	1255,40
771,53	1226,73
771,70	1216,49
771,88	1329,13
772,06	1331,18
772,23	1218,54
772,41	1243,12
772,59	1316,84
772,77	1310,70
772,94	1320,94
773,12	1310,70
773,30	1234,93
773,47	1282,03
773,65	1275,88
773,83	1263,60
774,01	1265,64
774,18	1298,41
774,36	1218,54
774,54	1245,16
774,71	1251,31
774,89	1302,51
775,07	1273,84
775,24	1357,80
775,42	1249,26
775,60	1279,98
775,78	1243,12
775,95	1265,64
776,13	1292,27
776,31	1298,41
776,48	1277,93
776,66	1216,49
776,84	1212,40
777,01	1259,50
777,19	1304,56
777,37	1271,79
777,54	1222,64
777,72	1269,74
777,90	1304,56
778,07	1286,12
778,25	1273,84
778,43	1220,59
778,60	1275,88
778,78	1337,32
778,96	1312,75
779,13	1263,60
779,31	1329,13
779,49	1292,27
779,66	1271,79
779,84	1247,21
780,01	1228,78
780,19	1243,12
780,37	1249,26
780,54	1259,50
780,72	1282,03
780,90	1245,16
781,07	1306,60
781,25	1245,16
781,43	1216,49
781,60	1255,40
781,78	1232,88
781,95	1241,07
782,13	1331,18
782,31	1255,40
782,48	1269,74
782,66	1189,87
782,83	1290,22
783,01	1290,22
783,19	1294,32
783,36	1241,07
783,54	1275,88
783,72	1228,78
783,89	1347,56
784,07	1214,45
784,24	1249,26
784,42	1294,32
784,60	1306,60
784,77	1304,56
784,95	1316,84
785,12	1204,21
785,30	1267,69
785,47	1277,93
785,65	1261,55
785,83	1247,21
786,00	1259,50
786,18	1241,07
786,35	1251,31
786,53	1257,45
786,71	1232,88
786,88	1212,40
787,06	1257,45
787,23	1232,88
787,41	1202,16
787,58	1265,64
787,76	1228,78
787,94	1318,89
788,11	1228,78
788,29	1378,28
788,46	1255,40
788,64	1349,61
788,81	1271,79
788,99	1232,88
789,16	1275,88
789,34	1241,07
789,52	1228,78
789,69	1255,40
789,87	1308,65
790,04	1308,65
790,22	1228,78
790,39	1302,51
790,57	1273,84
790,74	1284,08
790,92	1282,03
791,09	1241,07
791,27	1216,49
791,44	1347,56
791,62	1302,51
791,79	1255,40
791,97	1243,12
792,15	1265,64
792,32	1210,35
792,50	1265,64
792,67	1259,50
792,85	1279,98
793,02	1249,26
793,20	1343,47
793,37	1208,30
793,55	1284,08
793,72	1253,36
793,90	1253,36
794,07	1243,12
794,25	1263,60
794,42	1327,08
794,60	1245,16
794,77	1265,64
794,95	1241,07
795,12	1286,12
795,30	1265,64
795,47	1247,21
795,65	1298,41
795,82	1251,31
796,00	1261,55
796,17	1286,12
796,34	1269,74
796,52	1208,30
796,69	1210,35
796,87	1290,22
797,04	1259,50
797,22	1259,50
797,39	1232,88
797,57	1310,70
797,74	1312,75
797,92	1224,69
798,09	1292,27
798,27	1275,88
798,44	1214,45
798,62	1183,73
798,79	1300,46
798,96	1290,22
799,14	1302,51
799,31	1251,31
799,49	1202,16
799,66	1249,26
799,84	1288,17
800,01	1249,26
800,19	1302,51
800,36	1247,21
800,53	1234,93
800,71	1306,60
800,88	1302,51
801,06	1228,78
801,23	1245,16
801,41	1224,69
801,58	1286,12
801,75	1224,69
801,93	1196,01
802,10	1290,22
802,28	1286,12
802,45	1206,25
802,63	1345,52
802,80	1271,79
802,97	1279,98
803,15	1236,97
803,32	1269,74
803,50	1245,16
803,67	1245,16
803,84	1247,21
804,02	1251,31
804,19	1273,84
804,37	1255,40
804,54	1220,59
804,71	1257,45
804,89	1253,36
805,06	1271,79
805,24	1232,88
805,41	1239,02
805,58	1239,02
805,76	1257,45
805,93	1200,11
806,10	1296,36
806,28	1257,45
806,45	1306,60
806,63	1290,22
806,80	1298,41
806,97	1271,79
807,15	1261,55
807,32	1206,25
807,49	1261,55
807,67	1288,17
807,84	1329,13
808,01	1277,93
808,19	1343,47
808,36	1304,56
808,54	1261,55
808,71	1228,78
808,88	1236,97
809,06	1239,02
809,23	1298,41
809,40	1236,97
809,58	1265,64
809,75	1187,82
809,92	1265,64
810,10	1269,74
810,27	1249,26
810,44	1226,73
810,62	1249,26
810,79	1337,32
810,96	1277,93
811,14	1259,50
811,31	1218,54
811,48	1228,78
811,66	1181,68
811,83	1261,55
812,00	1198,06
812,18	1208,30
812,35	1279,98
812,52	1275,88
812,69	1335,28
812,87	1277,93
813,04	1255,40
813,21	1224,69
813,39	1327,08
813,56	1185,77
813,73	1290,22
813,91	1255,40
814,08	1304,56
814,25	1243,12
814,42	1292,27
814,60	1255,40
814,77	1279,98
814,94	1271,79
815,12	1302,51
815,29	1202,16
815,46	1247,21
815,63	1230,83
815,81	1310,70
815,98	1214,45
816,15	1314,80
816,33	1277,93
816,50	1286,12
816,67	1206,25
816,84	1314,80
817,02	1325,04
817,19	1282,03
817,36	1275,88
817,53	1302,51
817,71	1183,73
817,88	1347,56
818,05	1361,90
818,22	1325,04
818,40	1312,75
818,57	1279,98
818,74	1271,79
818,91	1239,02
819,09	1282,03
819,26	1241,07
819,43	1263,60
819,60	1142,77
819,78	1288,17
819,95	1296,36
820,12	1273,84
820,29	1304,56
820,47	1277,93
820,64	1265,64
820,81	1292,27
820,98	1232,88
821,15	1232,88
821,33	1269,74
821,50	1263,60
821,67	1255,40
821,84	1296,36
822,02	1312,75
822,19	1253,36
822,36	1161,20
822,53	1224,69
822,70	1243,12
822,88	1316,84
823,05	1196,01
823,22	1312,75
823,39	1196,01
823,56	1257,45
823,74	1202,16
823,91	1263,60
824,08	1318,89
824,25	1253,36
824,42	1273,84
824,60	1282,03
824,77	1193,97
824,94	1298,41
825,11	1265,64
825,28	1279,98
825,45	1261,55
825,63	1269,74
825,80	1220,59
825,97	1320,94
826,14	1282,03
826,31	1267,69
826,48	1275,88
826,66	1294,32
826,83	1251,31
827,00	1294,32
827,17	1245,16
827,34	1310,70
827,51	1337,32
827,69	1241,07
827,86	1251,31
828,03	1277,93
828,20	1206,25
828,37	1206,25
828,54	1292,27
828,71	1253,36
828,89	1245,16
829,06	1239,02
829,23	1273,84
829,40	1298,41
829,57	1269,74
829,74	1271,79
829,91	1189,87
830,09	1261,55
830,26	1306,60
830,43	1304,56
830,60	1259,50
830,77	1288,17
830,94	1245,16
831,11	1294,32
831,28	1310,70
831,46	1245,16
831,63	1261,55
831,80	1286,12
831,97	1245,16
832,14	1255,40
832,31	1236,97
832,48	1292,27
832,65	1220,59
832,82	1208,30
832,99	1273,84
833,17	1228,78
833,34	1245,16
833,51	1251,31
833,68	1232,88
833,85	1347,56
834,02	1253,36
834,19	1216,49
834,36	1232,88
834,53	1263,60
834,70	1306,60
834,87	1279,98
835,04	1263,60
835,22	1204,21
835,39	1216,49
835,56	1175,53
835,73	1171,44
835,90	1191,92
836,07	1277,93
836,24	1259,50
836,41	1247,21
836,58	1232,88
836,75	1247,21
836,92	1265,64
837,09	1257,45
837,26	1208,30
837,43	1249,26
837,60	1300,46
837,77	1273,84
837,94	1257,45
838,12	1304,56
838,29	1239,02
838,46	1243,12
838,63	1251,31
838,80	1247,21
838,97	1306,60
839,14	1277,93
839,31	1189,87
839,48	1234,93
839,65	1282,03
839,82	1255,40
839,99	1366,00
840,16	1239,02
840,33	1341,42
840,50	1269,74
840,67	1288,17
840,84	1310,70
841,01	1228,78
841,18	1226,73
841,35	1310,70
841,52	1249,26
841,69	1259,50
841,86	1226,73
842,03	1300,46
842,20	1282,03
842,37	1263,60
842,54	1196,01
842,71	1224,69
842,88	1236,97
843,05	1263,60
843,22	1263,60
843,39	1277,93
843,56	1286,12
843,73	1310,70
843,90	1282,03
844,07	1220,59
844,24	1216,49
844,41	1308,65
844,58	1263,60
844,75	1318,89
844,92	1263,60
845,09	1282,03
845,26	1277,93
845,43	1165,29
845,60	1193,97
845,77	1255,40
845,94	1318,89
846,10	1302,51
846,27	1255,40
846,44	1202,16
846,61	1249,26
846,78	1230,83
846,95	1298,41
847,12	1243,12
847,29	1210,35
847,46	1173,49
847,63	1230,83
847,80	1322,99
847,97	1308,65
848,14	1241,07
848,31	1247,21
848,48	1273,84
848,65	1239,02
848,82	1298,41
848,98	1308,65
849,15	1294,32
849,32	1282,03
849,49	1230,83
849,66	1300,46
849,83	1202,16
850,00	1298,41
850,17	1273,84
850,34	1279,98
850,51	1222,64
850,68	1181,68
850,85	1265,64
851,01	1273,84
851,18	1222,64
851,35	1279,98
851,52	1216,49
851,69	1267,69
851,86	1298,41
852,03	1245,16
852,20	1232,88
852,37	1308,65
852,53	1294,32
852,70	1320,94
852,87	1228,78
853,04	1275,88
853,21	1241,07
853,38	1265,64
853,55	1261,55
853,72	1222,64
853,89	1304,56
854,05	1226,73
854,22	1306,60
854,39	1259,50
854,56	1230,83
854,73	1282,03
854,90	1249,26
855,07	1267,69
855,23	1296,36
855,40	1234,93
855,57	1226,73
855,74	1279,98
855,91	1220,59
856,08	1265,64
856,25	1218,54
856,41	1212,40
856,58	1413,10
856,75	1216,49
856,92	1249,26
857,09	1339,37
857,26	1279,98
857,42	1257,45
857,59	1214,45
857,76	1220,59
857,93	1312,75
858,10	1249,26
858,27	1234,93
858,43	1300,46
858,60	1302,51
858,77	1216,49
858,94	1306,60
859,11	1284,08
859,27	1255,40
859,44	1259,50
859,61	1212,40
859,78	1189,87
859,95	1243,12
860,12	1095,66
860,28	1288,17
860,45	1265,64
860,62	1222,64
860,79	1243,12
860,95	1282,03
861,12	1239,02
861,29	1267,69
861,46	1282,03
861,63	1236,97
861,79	1353,71
861,96	1271,79
862,13	1232,88
862,30	1206,25
862,47	1236,97
862,63	1255,40
862,80	1314,80
862,97	1298,41
863,14	1292,27
863,30	1249,26
863,47	1249,26
863,64	1290,22
863,81	1306,60
863,97	1245,16
864,14	1306,60
864,31	1335,28
864,48	1290,22
864,65	1284,08
864,81	1282,03
864,98	1302,51
865,15	1226,73
865,32	1329,13
865,48	1306,60
865,65	1220,59
865,82	1310,70
865,98	1312,75
866,15	1234,93
866,32	1279,98
866,49	1241,07
866,65	1263,60
866,82	1316,84
866,99	1312,75
867,16	1230,83
867,32	1245,16
867,49	1325,04
867,66	1222,64
867,83	1273,84
867,99	1306,60
868,16	1220,59
868,33	1191,92
868,49	1241,07
868,66	1265,64
868,83	1292,27
868,99	1339,37
869,16	1282,03
869,33	1265,64
869,50	1337,32
869,66	1202,16
869,83	1320,94
870,00	1259,50
870,16	1259,50
870,33	1263,60
870,50	1288,17
870,66	1239,02
870,83	1265,64
871,00	1267,69
871,17	1222,64
871,33	1284,08
871,50	1257,45
871,67	1222,64
871,83	1187,82
872,00	1279,98
872,17	1247,21
872,33	1230,83
872,50	1249,26
872,67	1302,51
872,83	1241,07
873,00	1236,97
873,17	1306,60
873,33	1206,25
873,50	1296,36
873,67	1265,64
873,83	1290,22
874,00	1273,84
874,16	1337,32
874,33	1251,31
874,50	1245,16
874,66	1236,97
874,83	1296,36
875,00	1343,47
875,16	1218,54
875,33	1265,64
875,50	1247,21
875,66	1288,17
875,83	1202,16
875,99	1337,32
876,16	1263,60
876,33	1216,49
876,49	1234,93
876,66	1236,97
876,83	1228,78
876,99	1191,92
877,16	1345,52
877,32	1218,54
877,49	1288,17
877,66	1294,32
877,82	1261,55
877,99	1265,64
878,15	1279,98
878,32	1222,64
878,49	1261,55
878,65	1210,35
878,82	1236,97
878,98	1298,41
879,15	1277,93
879,32	1239,02
879,48	1261,55
879,65	1277,93
879,81	1226,73
879,98	1282,03
880,15	1255,40
880,31	1277,93
880,48	1308,65
880,64	1220,59
880,81	1331,18
880,97	1310,70
881,14	1329,13
881,31	1275,88
881,47	1310,70
881,64	1232,88
881,80	1255,40
881,97	1308,65
882,13	1239,02
882,30	1304,56
882,47	1245,16
882,63	1306,60
882,80	1271,79
882,96	1198,06
883,13	1230,83
883,29	1290,22
883,46	1191,92
883,62	1294,32
883,79	1253,36
883,95	1232,88
884,12	1239,02
884,29	1230,83
884,45	1226,73
884,62	1241,07
884,78	1224,69
884,95	1226,73
885,11	1214,45
885,28	1142,77
885,44	1259,50
885,61	1247,21
885,77	1269,74
885,94	1253,36
886,10	1228,78
886,27	1312,75
886,43	1222,64
886,60	1298,41
886,76	1308,65
886,93	1198,06
887,09	1224,69
887,26	1204,21
887,42	1269,74
887,59	1314,80
887,75	1304,56
887,92	1249,26
888,08	1249,26
888,25	1322,99
888,41	1187,82
888,58	1226,73
888,74	1269,74
888,91	1226,73
>>>>>End Processed Spectral Data<<<<<
