SpectraSuite Data File
++++++++++++++++++++++++++++++++++++
Date: Sun Apr 03 18:59:04 CEST 2016
User: root
Dark Spectrum Present: No
Reference Spectrum Present: No
Number of Sampled Component Spectra: 1
Spectrometers: USB4C02835
Integration Time (usec): 10000 (USB4C02835)
Spectra Averaged: 1 (USB4C02835)
Boxcar Smoothing: 0 (USB4C02835)
Correct for Electrical Dark: No (USB4C02835)
Strobe/Lamp Enabled: No (USB4C02835)
Correct for Detector Non-linearity: No (USB4C02835)
Correct for Stray Light: No (USB4C02835)
Number of Pixels in Processed Spectrum: 3648
>>>>>Begin Processed Spectral Data<<<<<
177,47	1226,73
177,69	1226,73
177,91	1226,73
178,13	1198,06
178,36	1247,21
178,58	1308,65
178,80	1271,79
179,02	1234,93
179,24	1222,64
179,46	1302,51
179,68	1275,88
179,90	1198,06
180,13	1271,79
180,35	1265,64
180,57	1333,23
180,79	1214,45
181,01	1226,73
181,23	1251,31
181,45	1153,01
181,67	1288,17
181,90	1236,97
182,12	1271,79
182,34	1282,03
182,56	1286,12
182,78	1337,32
183,00	1314,80
183,22	1277,93
183,44	1263,60
183,66	1282,03
183,89	1277,93
184,11	1271,79
184,33	1308,65
184,55	1163,25
184,77	1198,06
184,99	1275,88
185,21	1275,88
185,43	1298,41
185,65	1282,03
185,87	1279,98
186,10	1312,75
186,32	1263,60
186,54	1341,42
186,76	1187,82
186,98	1241,07
187,20	1241,07
187,42	1269,74
187,64	1259,50
187,86	1191,92
188,08	1300,46
188,30	1228,78
188,52	1249,26
188,75	1241,07
188,97	1251,31
189,19	1185,77
189,41	1196,01
189,63	1226,73
189,85	1259,50
190,07	1224,69
190,29	1269,74
190,51	1228,78
190,73	1279,98
190,95	1247,21
191,17	1261,55
191,39	1249,26
191,61	1210,35
191,84	1236,97
192,06	1304,56
192,28	1277,93
192,50	1282,03
192,72	1241,07
192,94	1245,16
193,16	1368,04
193,38	1241,07
193,60	1288,17
193,82	1249,26
194,04	1304,56
194,26	1335,28
194,48	1247,21
194,70	1228,78
194,92	1284,08
195,14	1298,41
195,36	1331,18
195,58	1275,88
195,80	1257,45
196,02	1300,46
196,24	1279,98
196,46	1368,04
196,69	1222,64
196,91	1277,93
197,13	1286,12
197,35	1282,03
197,57	1263,60
197,79	1267,69
198,01	1298,41
198,23	1290,22
198,45	1310,70
198,67	1318,89
198,89	1236,97
199,11	1263,60
199,33	1292,27
199,55	1318,89
199,77	1234,93
199,99	1239,02
200,21	1275,88
200,43	1290,22
200,65	1245,16
200,87	1300,46
201,09	1230,83
201,31	1198,06
201,53	1271,79
201,75	1232,88
201,97	1290,22
202,19	1175,53
202,41	1193,97
202,63	1210,35
202,85	1288,17
203,07	1298,41
203,29	1269,74
203,51	1312,75
203,73	1161,20
203,95	1222,64
204,17	1259,50
204,39	1288,17
204,61	1279,98
204,83	1298,41
205,05	1271,79
205,27	1277,93
205,49	1277,93
205,71	1257,45
205,93	1224,69
206,15	1249,26
206,37	1257,45
206,59	1222,64
206,81	1275,88
207,03	1243,12
207,25	1234,93
207,47	1234,93
207,69	1351,66
207,91	1333,23
208,13	1277,93
208,34	1296,36
208,56	1239,02
208,78	1329,13
209,00	1335,28
209,22	1236,97
209,44	1241,07
209,66	1216,49
209,88	1329,13
210,10	1183,73
210,32	1224,69
210,54	1322,99
210,76	1198,06
210,98	1282,03
211,20	1316,84
211,42	1253,36
211,64	1247,21
211,86	1292,27
212,08	1273,84
212,30	1290,22
212,52	1230,83
212,74	1349,61
212,96	1245,16
213,17	1243,12
213,39	1341,42
213,61	1271,79
213,83	1236,97
214,05	1302,51
214,27	1228,78
214,49	1279,98
214,71	1290,22
214,93	1284,08
215,15	1247,21
215,37	1298,41
215,59	1273,84
215,81	1310,70
216,03	1267,69
216,24	1269,74
216,46	1271,79
216,68	1292,27
216,90	1144,81
217,12	1212,40
217,34	1331,18
217,56	1298,41
217,78	1288,17
218,00	1181,68
218,22	1265,64
218,44	1232,88
218,66	1214,45
218,87	1273,84
219,09	1271,79
219,31	1263,60
219,53	1271,79
219,75	1222,64
219,97	1239,02
220,19	1302,51
220,41	1275,88
220,63	1341,42
220,85	1288,17
221,06	1187,82
221,28	1282,03
221,50	1282,03
221,72	1265,64
221,94	1208,30
222,16	1255,40
222,38	1257,45
222,60	1318,89
222,82	1249,26
223,03	1257,45
223,25	1234,93
223,47	1255,40
223,69	1286,12
223,91	1306,60
224,13	1243,12
224,35	1234,93
224,57	1284,08
224,78	1236,97
225,00	1296,36
225,22	1310,70
225,44	1273,84
225,66	1314,80
225,88	1316,84
226,10	1245,16
226,32	1265,64
226,53	1234,93
226,75	1306,60
226,97	1267,69
227,19	1265,64
227,41	1300,46
227,63	1279,98
227,85	1241,07
228,06	1296,36
228,28	1277,93
228,50	1232,88
228,72	1312,75
228,94	1232,88
229,16	1261,55
229,37	1247,21
229,59	1263,60
229,81	1273,84
230,03	1150,96
230,25	1200,11
230,47	1269,74
230,69	1322,99
230,90	1191,92
231,12	1218,54
231,34	1294,32
231,56	1288,17
231,78	1185,77
232,00	1263,60
232,21	1296,36
232,43	1298,41
232,65	1189,87
232,87	1304,56
233,09	1232,88
233,30	1282,03
233,52	1271,79
233,74	1230,83
233,96	1261,55
234,18	1273,84
234,40	1312,75
234,61	1345,52
234,83	1218,54
235,05	1314,80
235,27	1282,03
235,49	1249,26
235,70	1230,83
235,92	1234,93
236,14	1259,50
236,36	1271,79
236,58	1273,84
236,79	1234,93
237,01	1273,84
237,23	1339,37
237,45	1210,35
237,67	1269,74
237,88	1322,99
238,10	1224,69
238,32	1271,79
238,54	1273,84
238,76	1286,12
238,97	1318,89
239,19	1271,79
239,41	1255,40
239,63	1273,84
239,85	1255,40
240,06	1267,69
240,28	1296,36
240,50	1208,30
240,72	1265,64
240,93	1239,02
241,15	1288,17
241,37	1255,40
241,59	1322,99
241,81	1243,12
242,02	1275,88
242,24	1230,83
242,46	1320,94
242,68	1265,64
242,89	1271,79
243,11	1267,69
243,33	1294,32
243,55	1331,18
243,76	1222,64
243,98	1269,74
244,20	1267,69
244,42	1204,21
244,64	1296,36
244,85	1146,86
245,07	1273,84
245,29	1263,60
245,51	1271,79
245,72	1239,02
245,94	1253,36
246,16	1220,59
246,38	1288,17
246,59	1236,97
246,81	1304,56
247,03	1310,70
247,24	1290,22
247,46	1263,60
247,68	1308,65
247,90	1202,16
248,11	1290,22
248,33	1208,30
248,55	1236,97
248,77	1251,31
248,98	1253,36
249,20	1263,60
249,42	1265,64
249,64	1249,26
249,85	1202,16
250,07	1239,02
250,29	1320,94
250,50	1310,70
250,72	1247,21
250,94	1312,75
251,16	1288,17
251,37	1273,84
251,59	1208,30
251,81	1298,41
252,02	1290,22
252,24	1282,03
252,46	1267,69
252,68	1277,93
252,89	1296,36
253,11	1316,84
253,33	1230,83
253,54	1206,25
253,76	1271,79
253,98	1257,45
254,20	1255,40
254,41	1253,36
254,63	1269,74
254,85	1269,74
255,06	1265,64
255,28	1255,40
255,50	1312,75
255,71	1253,36
255,93	1245,16
256,15	1302,51
256,36	1226,73
256,58	1300,46
256,80	1251,31
257,02	1204,21
257,23	1249,26
257,45	1251,31
257,67	1259,50
257,88	1261,55
258,10	1247,21
258,32	1251,31
258,53	1265,64
258,75	1245,16
258,97	1306,60
259,18	1247,21
259,40	1288,17
259,62	1179,63
259,83	1277,93
260,05	1288,17
260,27	1320,94
260,48	1279,98
260,70	1288,17
260,92	1318,89
261,13	1277,93
261,35	1236,97
261,57	1265,64
261,78	1286,12
262,00	1265,64
262,22	1259,50
262,43	1271,79
262,65	1329,13
262,86	1206,25
263,08	1259,50
263,30	1183,73
263,51	1312,75
263,73	1214,45
263,95	1200,11
264,16	1314,80
264,38	1310,70
264,60	1196,01
264,81	1257,45
265,03	1343,47
265,25	1298,41
265,46	1343,47
265,68	1249,26
265,89	1247,21
266,11	1220,59
266,33	1286,12
266,54	1236,97
266,76	1204,21
266,98	1206,25
267,19	1267,69
267,41	1232,88
267,62	1200,11
267,84	1306,60
268,06	1261,55
268,27	1224,69
268,49	1265,64
268,70	1200,11
268,92	1314,80
269,14	1263,60
269,35	1292,27
269,57	1257,45
269,79	1265,64
270,00	1249,26
270,22	1335,28
270,43	1243,12
270,65	1251,31
270,87	1200,11
271,08	1269,74
271,30	1286,12
271,51	1282,03
271,73	1318,89
271,95	1298,41
272,16	1302,51
272,38	1282,03
272,59	1310,70
272,81	1345,52
273,02	1339,37
273,24	1306,60
273,46	1259,50
273,67	1220,59
273,89	1265,64
274,10	1208,30
274,32	1214,45
274,54	1241,07
274,75	1232,88
274,97	1247,21
275,18	1210,35
275,40	1282,03
275,61	1257,45
275,83	1300,46
276,05	1320,94
276,26	1282,03
276,48	1296,36
276,69	1286,12
276,91	1337,32
277,12	1212,40
277,34	1279,98
277,55	1230,83
277,77	1257,45
277,99	1279,98
278,20	1214,45
278,42	1257,45
278,63	1206,25
278,85	1363,95
279,06	1261,55
279,28	1222,64
279,49	1251,31
279,71	1312,75
279,93	1245,16
280,14	1216,49
280,36	1312,75
280,57	1269,74
280,79	1257,45
281,00	1310,70
281,22	1329,13
281,43	1218,54
281,65	1232,88
281,86	1363,95
282,08	1335,28
282,29	1304,56
282,51	1263,60
282,73	1224,69
282,94	1271,79
283,16	1251,31
283,37	1304,56
283,59	1302,51
283,80	1263,60
284,02	1230,83
284,23	1333,23
284,45	1300,46
284,66	1232,88
284,88	1279,98
285,09	1220,59
285,31	1300,46
285,52	1222,64
285,74	1296,36
285,95	1251,31
286,17	1273,84
286,38	1273,84
286,60	1308,65
286,81	1255,40
287,03	1255,40
287,24	1304,56
287,46	1271,79
287,67	1284,08
287,89	1230,83
288,10	1224,69
288,32	1226,73
288,53	1284,08
288,75	1214,45
288,96	1277,93
289,18	1249,26
289,39	1288,17
289,61	1282,03
289,82	1294,32
290,04	1286,12
290,25	1247,21
290,47	1234,93
290,68	1226,73
290,90	1230,83
291,11	1239,02
291,33	1234,93
291,54	1335,28
291,76	1273,84
291,97	1300,46
292,18	1273,84
292,40	1265,64
292,61	1261,55
292,83	1286,12
293,04	1277,93
293,26	1232,88
293,47	1212,40
293,69	1271,79
293,90	1224,69
294,12	1261,55
294,33	1265,64
294,55	1251,31
294,76	1243,12
294,97	1206,25
295,19	1241,07
295,40	1357,80
295,62	1322,99
295,83	1224,69
296,05	1279,98
296,26	1255,40
296,48	1284,08
296,69	1341,42
296,90	1300,46
297,12	1298,41
297,33	1314,80
297,55	1279,98
297,76	1347,56
297,98	1255,40
298,19	1236,97
298,41	1243,12
298,62	1204,21
298,83	1327,08
299,05	1296,36
299,26	1273,84
299,48	1341,42
299,69	1267,69
299,90	1282,03
300,12	1292,27
300,33	1241,07
300,55	1310,70
300,76	1300,46
300,98	1282,03
301,19	1331,18
301,40	1245,16
301,62	1185,77
301,83	1277,93
302,05	1222,64
302,26	1363,95
302,47	1169,39
302,69	1206,25
302,90	1214,45
303,12	1255,40
303,33	1314,80
303,54	1187,82
303,76	1263,60
303,97	1243,12
304,19	1249,26
304,40	1226,73
304,61	1241,07
304,83	1308,65
305,04	1294,32
305,26	1341,42
305,47	1234,93
305,68	1331,18
305,90	1339,37
306,11	1236,97
306,33	1265,64
306,54	1282,03
306,75	1288,17
306,97	1300,46
307,18	1277,93
307,39	1253,36
307,61	1302,51
307,82	1271,79
308,04	1228,78
308,25	1222,64
308,46	1220,59
308,68	1290,22
308,89	1284,08
309,10	1325,04
309,32	1308,65
309,53	1216,49
309,74	1275,88
309,96	1259,50
310,17	1288,17
310,39	1253,36
310,60	1312,75
310,81	1253,36
311,03	1296,36
311,24	1300,46
311,45	1275,88
311,67	1300,46
311,88	1228,78
312,09	1236,97
312,31	1304,56
312,52	1251,31
312,73	1263,60
312,95	1271,79
313,16	1224,69
313,37	1314,80
313,59	1396,71
313,80	1302,51
314,01	1343,47
314,23	1300,46
314,44	1347,56
314,65	1269,74
314,87	1320,94
315,08	1312,75
315,29	1300,46
315,51	1157,10
315,72	1296,36
315,93	1282,03
316,15	1196,01
316,36	1269,74
316,57	1345,52
316,79	1249,26
317,00	1296,36
317,21	1273,84
317,43	1284,08
317,64	1304,56
317,85	1298,41
318,07	1236,97
318,28	1249,26
318,49	1304,56
318,70	1288,17
318,92	1277,93
319,13	1230,83
319,34	1257,45
319,56	1273,84
319,77	1269,74
319,98	1314,80
320,20	1292,27
320,41	1259,50
320,62	1294,32
320,83	1314,80
321,05	1241,07
321,26	1249,26
321,47	1226,73
321,69	1314,80
321,90	1294,32
322,11	1347,56
322,32	1259,50
322,54	1218,54
322,75	1267,69
322,96	1290,22
323,18	1310,70
323,39	1312,75
323,60	1241,07
323,81	1292,27
324,03	1275,88
324,24	1314,80
324,45	1247,21
324,66	1306,60
324,88	1220,59
325,09	1271,79
325,30	1228,78
325,52	1271,79
325,73	1245,16
325,94	1282,03
326,15	1308,65
326,37	1239,02
326,58	1239,02
326,79	1322,99
327,00	1249,26
327,22	1290,22
327,43	1267,69
327,64	1298,41
327,85	1279,98
328,07	1220,59
328,28	1279,98
328,49	1273,84
328,70	1335,28
328,92	1296,36
329,13	1175,53
329,34	1279,98
329,55	1294,32
329,76	1312,75
329,98	1312,75
330,19	1347,56
330,40	1277,93
330,61	1322,99
330,83	1234,93
331,04	1273,84
331,25	1290,22
331,46	1257,45
331,68	1296,36
331,89	1341,42
332,10	1200,11
332,31	1239,02
332,52	1294,32
332,74	1245,16
332,95	1222,64
333,16	1263,60
333,37	1249,26
333,58	1353,71
333,80	1329,13
334,01	1261,55
334,22	1310,70
334,43	1169,39
334,64	1312,75
334,86	1353,71
335,07	1204,21
335,28	1208,30
335,49	1220,59
335,70	1269,74
335,92	1298,41
336,13	1316,84
336,34	1232,88
336,55	1347,56
336,76	1212,40
336,98	1243,12
337,19	1277,93
337,40	1302,51
337,61	1218,54
337,82	1241,07
338,04	1230,83
338,25	1331,18
338,46	1327,08
338,67	1306,60
338,88	1222,64
339,09	1269,74
339,31	1327,08
339,52	1249,26
339,73	1279,98
339,94	1300,46
340,15	1267,69
340,36	1255,40
340,58	1208,30
340,79	1279,98
341,00	1224,69
341,21	1296,36
341,42	1196,01
341,63	1277,93
341,85	1234,93
342,06	1239,02
342,27	1290,22
342,48	1327,08
342,69	1216,49
342,90	1253,36
343,12	1212,40
343,33	1361,90
343,54	1318,89
343,75	1337,32
343,96	1284,08
344,17	1267,69
344,38	1292,27
344,60	1230,83
344,81	1245,16
345,02	1261,55
345,23	1220,59
345,44	1320,94
345,65	1241,07
345,86	1331,18
346,07	1257,45
346,29	1277,93
346,50	1232,88
346,71	1314,80
346,92	1243,12
347,13	1282,03
347,34	1265,64
347,55	1273,84
347,76	1337,32
347,98	1263,60
348,19	1161,20
348,40	1265,64
348,61	1292,27
348,82	1298,41
349,03	1361,90
349,24	1288,17
349,45	1245,16
349,66	1220,59
349,88	1206,25
350,09	1230,83
350,30	1261,55
350,51	1282,03
350,72	1339,37
350,93	1308,65
351,14	1239,02
351,35	1265,64
351,56	1308,65
351,77	1265,64
351,99	1234,93
352,20	1312,75
352,41	1337,32
352,62	1265,64
352,83	1196,01
353,04	1277,93
353,25	1261,55
353,46	1275,88
353,67	1263,60
353,88	1298,41
354,09	1263,60
354,30	1282,03
354,52	1243,12
354,73	1230,83
354,94	1239,02
355,15	1314,80
355,36	1267,69
355,57	1320,94
355,78	1288,17
355,99	1271,79
356,20	1200,11
356,41	1292,27
356,62	1251,31
356,83	1239,02
357,04	1284,08
357,25	1271,79
357,46	1239,02
357,68	1243,12
357,89	1290,22
358,10	1279,98
358,31	1279,98
358,52	1253,36
358,73	1282,03
358,94	1273,84
359,15	1318,89
359,36	1232,88
359,57	1247,21
359,78	1333,23
359,99	1322,99
360,20	1212,40
360,41	1310,70
360,62	1232,88
360,83	1302,51
361,04	1236,97
361,25	1232,88
361,46	1298,41
361,67	1263,60
361,88	1269,74
362,09	1251,31
362,30	1263,60
362,51	1230,83
362,72	1331,18
362,93	1286,12
363,14	1259,50
363,35	1306,60
363,56	1312,75
363,78	1277,93
363,99	1243,12
364,20	1298,41
364,41	1277,93
364,62	1210,35
364,83	1296,36
365,04	1228,78
365,25	1255,40
365,46	1245,16
365,67	1277,93
365,88	1279,98
366,09	1265,64
366,30	1239,02
366,51	1275,88
366,72	1312,75
366,93	1204,21
367,14	1234,93
367,35	1298,41
367,56	1222,64
367,77	1247,21
367,98	1222,64
368,18	1255,40
368,39	1196,01
368,60	1239,02
368,81	1261,55
369,02	1251,31
369,23	1212,40
369,44	1224,69
369,65	1181,68
369,86	1236,97
370,07	1306,60
370,28	1347,56
370,49	1253,36
370,70	1312,75
370,91	1193,97
371,12	1218,54
371,33	1312,75
371,54	1214,45
371,75	1220,59
371,96	1304,56
372,17	1216,49
372,38	1253,36
372,59	1253,36
372,80	1198,06
373,01	1257,45
373,22	1255,40
373,43	1177,58
373,64	1257,45
373,85	1245,16
374,06	1253,36
374,26	1288,17
374,47	1279,98
374,68	1269,74
374,89	1273,84
375,10	1230,83
375,31	1296,36
375,52	1204,21
375,73	1224,69
375,94	1275,88
376,15	1212,40
376,36	1251,31
376,57	1300,46
376,78	1329,13
376,99	1267,69
377,20	1251,31
377,40	1267,69
377,61	1247,21
377,82	1333,23
378,03	1267,69
378,24	1253,36
378,45	1275,88
378,66	1353,71
378,87	1241,07
379,08	1255,40
379,29	1216,49
379,50	1294,32
379,71	1212,40
379,91	1224,69
380,12	1228,78
380,33	1300,46
380,54	1275,88
380,75	1294,32
380,96	1251,31
381,17	1269,74
381,38	1218,54
381,59	1286,12
381,80	1247,21
382,00	1271,79
382,21	1224,69
382,42	1314,80
382,63	1296,36
382,84	1322,99
383,05	1241,07
383,26	1290,22
383,47	1245,16
383,68	1277,93
383,88	1181,68
384,09	1257,45
384,30	1290,22
384,51	1271,79
384,72	1290,22
384,93	1347,56
385,14	1267,69
385,35	1267,69
385,55	1253,36
385,76	1224,69
385,97	1257,45
386,18	1275,88
386,39	1224,69
386,60	1296,36
386,81	1282,03
387,02	1261,55
387,22	1282,03
387,43	1200,11
387,64	1224,69
387,85	1259,50
388,06	1236,97
388,27	1257,45
388,48	1263,60
388,68	1247,21
388,89	1306,60
389,10	1232,88
389,31	1257,45
389,52	1214,45
389,73	1204,21
389,93	1282,03
390,14	1267,69
390,35	1267,69
390,56	1210,35
390,77	1306,60
390,98	1247,21
391,18	1333,23
391,39	1236,97
391,60	1263,60
391,81	1288,17
392,02	1216,49
392,23	1265,64
392,43	1273,84
392,64	1296,36
392,85	1296,36
393,06	1245,16
393,27	1322,99
393,47	1259,50
393,68	1284,08
393,89	1239,02
394,10	1304,56
394,31	1277,93
394,52	1269,74
394,72	1294,32
394,93	1294,32
395,14	1249,26
395,35	1310,70
395,56	1243,12
395,76	1236,97
395,97	1273,84
396,18	1245,16
396,39	1206,25
396,60	1333,23
396,80	1257,45
397,01	1296,36
397,22	1304,56
397,43	1185,77
397,64	1325,04
397,84	1239,02
398,05	1243,12
398,26	1228,78
398,47	1181,68
398,67	1241,07
398,88	1282,03
399,09	1345,52
399,30	1277,93
399,51	1267,69
399,71	1292,27
399,92	1232,88
400,13	1327,08
400,34	1265,64
400,54	1322,99
400,75	1296,36
400,96	1218,54
401,17	1249,26
401,37	1277,93
401,58	1263,60
401,79	1253,36
402,00	1265,64
402,21	1169,39
402,41	1265,64
402,62	1243,12
402,83	1204,21
403,04	1259,50
403,24	1224,69
403,45	1290,22
403,66	1288,17
403,87	1322,99
404,07	1277,93
404,28	1189,87
404,49	1249,26
404,70	1271,79
404,90	1271,79
405,11	1282,03
405,32	1308,65
405,52	1234,93
405,73	1261,55
405,94	1263,60
406,15	1175,53
406,35	1265,64
406,56	1234,93
406,77	1236,97
406,98	1232,88
407,18	1279,98
407,39	1265,64
407,60	1347,56
407,80	1183,73
408,01	1298,41
408,22	1302,51
408,43	1220,59
408,63	1292,27
408,84	1261,55
409,05	1294,32
409,25	1220,59
409,46	1222,64
409,67	1263,60
409,88	1298,41
410,08	1187,82
410,29	1306,60
410,50	1265,64
410,70	1241,07
410,91	1282,03
411,12	1347,56
411,32	1286,12
411,53	1294,32
411,74	1241,07
411,95	1253,36
412,15	1255,40
412,36	1294,32
412,57	1273,84
412,77	1265,64
412,98	1284,08
413,19	1191,92
413,39	1253,36
413,60	1187,82
413,81	1306,60
414,01	1230,83
414,22	1261,55
414,43	1232,88
414,63	1179,63
414,84	1269,74
415,05	1294,32
415,25	1228,78
415,46	1337,32
415,67	1275,88
415,87	1271,79
416,08	1241,07
416,29	1222,64
416,49	1249,26
416,70	1284,08
416,91	1245,16
417,11	1300,46
417,32	1241,07
417,53	1226,73
417,73	1296,36
417,94	1150,96
418,15	1308,65
418,35	1228,78
418,56	1294,32
418,77	1261,55
418,97	1265,64
419,18	1359,85
419,38	1251,31
419,59	1300,46
419,80	1251,31
420,00	1265,64
420,21	1312,75
420,42	1284,08
420,62	1273,84
420,83	1263,60
421,04	1288,17
421,24	1296,36
421,45	1212,40
421,65	1302,51
421,86	1312,75
422,07	1261,55
422,27	1253,36
422,48	1277,93
422,69	1200,11
422,89	1230,83
423,10	1322,99
423,30	1255,40
423,51	1236,97
423,72	1224,69
423,92	1265,64
424,13	1261,55
424,33	1279,98
424,54	1173,49
424,75	1302,51
424,95	1277,93
425,16	1318,89
425,36	1265,64
425,57	1361,90
425,78	1267,69
425,98	1337,32
426,19	1247,21
426,39	1206,25
426,60	1300,46
426,81	1206,25
427,01	1234,93
427,22	1222,64
427,42	1214,45
427,63	1232,88
427,83	1204,21
428,04	1271,79
428,25	1290,22
428,45	1282,03
428,66	1275,88
428,86	1310,70
429,07	1269,74
429,28	1208,30
429,48	1335,28
429,69	1239,02
429,89	1224,69
430,10	1273,84
430,30	1314,80
430,51	1265,64
430,71	1290,22
430,92	1269,74
431,13	1292,27
431,33	1298,41
431,54	1257,45
431,74	1261,55
431,95	1284,08
432,15	1296,36
432,36	1198,06
432,56	1296,36
432,77	1267,69
432,98	1335,28
433,18	1339,37
433,39	1302,51
433,59	1312,75
433,80	1325,04
434,00	1310,70
434,21	1314,80
434,41	1181,68
434,62	1263,60
434,82	1249,26
435,03	1204,21
435,23	1189,87
435,44	1255,40
435,64	1198,06
435,85	1208,30
436,06	1265,64
436,26	1292,27
436,47	1316,84
436,67	1290,22
436,88	1232,88
437,08	1310,70
437,29	1220,59
437,49	1243,12
437,70	1331,18
437,90	1232,88
438,11	1296,36
438,31	1259,50
438,52	1300,46
438,72	1296,36
438,93	1308,65
439,13	1232,88
439,34	1296,36
439,54	1318,89
439,75	1261,55
439,95	1341,42
440,16	1312,75
440,36	1269,74
440,57	1290,22
440,77	1271,79
440,98	1282,03
441,18	1255,40
441,39	1161,20
441,59	1261,55
441,80	1265,64
442,00	1327,08
442,21	1314,80
442,41	1294,32
442,62	1253,36
442,82	1386,47
443,02	1306,60
443,23	1245,16
443,43	1322,99
443,64	1298,41
443,84	1198,06
444,05	1292,27
444,25	1226,73
444,46	1224,69
444,66	1282,03
444,87	1230,83
445,07	1239,02
445,28	1267,69
445,48	1296,36
445,69	1249,26
445,89	1218,54
446,09	1208,30
446,30	1212,40
446,50	1196,01
446,71	1306,60
446,91	1298,41
447,12	1228,78
447,32	1257,45
447,53	1220,59
447,73	1271,79
447,93	1245,16
448,14	1347,56
448,34	1257,45
448,55	1208,30
448,75	1333,23
448,96	1226,73
449,16	1257,45
449,36	1310,70
449,57	1259,50
449,77	1265,64
449,98	1267,69
450,18	1275,88
450,39	1310,70
450,59	1312,75
450,79	1288,17
451,00	1220,59
451,20	1232,88
451,41	1259,50
451,61	1241,07
451,81	1296,36
452,02	1277,93
452,22	1271,79
452,43	1255,40
452,63	1249,26
452,84	1259,50
453,04	1275,88
453,24	1218,54
453,45	1271,79
453,65	1251,31
453,86	1304,56
454,06	1318,89
454,26	1292,27
454,47	1247,21
454,67	1306,60
454,87	1316,84
455,08	1202,16
455,28	1259,50
455,49	1267,69
455,69	1196,01
455,89	1335,28
456,10	1241,07
456,30	1245,16
456,51	1247,21
456,71	1204,21
456,91	1368,04
457,12	1271,79
457,32	1259,50
457,52	1284,08
457,73	1331,18
457,93	1279,98
458,14	1304,56
458,34	1255,40
458,54	1245,16
458,75	1296,36
458,95	1312,75
459,15	1275,88
459,36	1296,36
459,56	1239,02
459,76	1261,55
459,97	1196,01
460,17	1236,97
460,37	1271,79
460,58	1226,73
460,78	1327,08
460,99	1316,84
461,19	1198,06
461,39	1345,52
461,60	1245,16
461,80	1265,64
462,00	1331,18
462,21	1302,51
462,41	1271,79
462,61	1282,03
462,82	1292,27
463,02	1292,27
463,22	1316,84
463,43	1290,22
463,63	1259,50
463,83	1214,45
464,04	1282,03
464,24	1243,12
464,44	1337,32
464,64	1239,02
464,85	1292,27
465,05	1300,46
465,25	1337,32
465,46	1200,11
465,66	1239,02
465,86	1224,69
466,07	1310,70
466,27	1304,56
466,47	1353,71
466,68	1265,64
466,88	1216,49
467,08	1241,07
467,29	1306,60
467,49	1261,55
467,69	1187,82
467,89	1320,94
468,10	1239,02
468,30	1275,88
468,50	1253,36
468,71	1253,36
468,91	1318,89
469,11	1277,93
469,31	1259,50
469,52	1232,88
469,72	1222,64
469,92	1290,22
470,13	1263,60
470,33	1263,60
470,53	1320,94
470,73	1249,26
470,94	1165,29
471,14	1249,26
471,34	1296,36
471,54	1232,88
471,75	1302,51
471,95	1241,07
472,15	1241,07
472,36	1277,93
472,56	1288,17
472,76	1224,69
472,96	1261,55
473,17	1277,93
473,37	1263,60
473,57	1163,25
473,77	1284,08
473,98	1239,02
474,18	1245,16
474,38	1322,99
474,58	1255,40
474,79	1220,59
474,99	1241,07
475,19	1234,93
475,39	1298,41
475,60	1230,83
475,80	1286,12
476,00	1267,69
476,20	1306,60
476,41	1277,93
476,61	1302,51
476,81	1322,99
477,01	1302,51
477,21	1265,64
477,42	1269,74
477,62	1214,45
477,82	1257,45
478,02	1239,02
478,23	1296,36
478,43	1224,69
478,63	1310,70
478,83	1267,69
479,03	1292,27
479,24	1277,93
479,44	1275,88
479,64	1210,35
479,84	1273,84
480,04	1294,32
480,25	1224,69
480,45	1265,64
480,65	1304,56
480,85	1261,55
481,06	1296,36
481,26	1239,02
481,46	1300,46
481,66	1310,70
481,86	1271,79
482,06	1253,36
482,27	1296,36
482,47	1191,92
482,67	1331,18
482,87	1241,07
483,07	1275,88
483,28	1310,70
483,48	1245,16
483,68	1218,54
483,88	1306,60
484,08	1353,71
484,29	1275,88
484,49	1284,08
484,69	1226,73
484,89	1218,54
485,09	1269,74
485,29	1257,45
485,50	1212,40
485,70	1239,02
485,90	1296,36
486,10	1345,52
486,30	1279,98
486,50	1187,82
486,71	1267,69
486,91	1288,17
487,11	1273,84
487,31	1269,74
487,51	1277,93
487,71	1224,69
487,91	1245,16
488,12	1343,47
488,32	1298,41
488,52	1300,46
488,72	1288,17
488,92	1239,02
489,12	1232,88
489,32	1339,37
489,53	1322,99
489,73	1251,31
489,93	1241,07
490,13	1286,12
490,33	1206,25
490,53	1304,56
490,73	1251,31
490,94	1224,69
491,14	1267,69
491,34	1220,59
491,54	1247,21
491,74	1253,36
491,94	1232,88
492,14	1273,84
492,34	1198,06
492,54	1288,17
492,75	1253,36
492,95	1273,84
493,15	1259,50
493,35	1263,60
493,55	1329,13
493,75	1271,79
493,95	1312,75
494,15	1288,17
494,35	1265,64
494,56	1236,97
494,76	1210,35
494,96	1261,55
495,16	1222,64
495,36	1249,26
495,56	1273,84
495,76	1294,32
495,96	1331,18
496,16	1290,22
496,36	1273,84
496,56	1228,78
496,77	1259,50
496,97	1224,69
497,17	1183,73
497,37	1230,83
497,57	1232,88
497,77	1222,64
497,97	1277,93
498,17	1322,99
498,37	1214,45
498,57	1322,99
498,77	1239,02
498,97	1259,50
499,17	1269,74
499,38	1220,59
499,58	1284,08
499,78	1267,69
499,98	1314,80
500,18	1292,27
500,38	1239,02
500,58	1241,07
500,78	1282,03
500,98	1302,51
501,18	1236,97
501,38	1275,88
501,58	1292,27
501,78	1265,64
501,98	1288,17
502,18	1314,80
502,38	1306,60
502,58	1241,07
502,78	1286,12
502,98	1263,60
503,18	1175,53
503,38	1255,40
503,59	1304,56
503,79	1388,52
503,99	1236,97
504,19	1288,17
504,39	1271,79
504,59	1284,08
504,79	1320,94
504,99	1304,56
505,19	1261,55
505,39	1220,59
505,59	1314,80
505,79	1286,12
505,99	1300,46
506,19	1322,99
506,39	1298,41
506,59	1232,88
506,79	1185,77
506,99	1255,40
507,19	1261,55
507,39	1228,78
507,59	1269,74
507,79	1282,03
507,99	1329,13
508,19	1220,59
508,39	1196,01
508,59	1279,98
508,79	1259,50
508,99	1304,56
509,19	1251,31
509,39	1185,77
509,59	1255,40
509,79	1290,22
509,99	1296,36
510,19	1357,80
510,39	1363,95
510,59	1351,66
510,79	1239,02
510,99	1296,36
511,19	1275,88
511,39	1310,70
511,59	1314,80
511,79	1261,55
511,99	1335,28
512,19	1196,01
512,38	1339,37
512,58	1300,46
512,78	1275,88
512,98	1292,27
513,18	1273,84
513,38	1275,88
513,58	1257,45
513,78	1322,99
513,98	1282,03
514,18	1357,80
514,38	1263,60
514,58	1183,73
514,78	1226,73
514,98	1239,02
515,18	1337,32
515,38	1247,21
515,58	1269,74
515,78	1306,60
515,98	1193,97
516,18	1275,88
516,38	1245,16
516,57	1261,55
516,77	1212,40
516,97	1294,32
517,17	1259,50
517,37	1216,49
517,57	1296,36
517,77	1212,40
517,97	1308,65
518,17	1243,12
518,37	1202,16
518,57	1294,32
518,77	1310,70
518,97	1290,22
519,16	1314,80
519,36	1296,36
519,56	1267,69
519,76	1224,69
519,96	1308,65
520,16	1304,56
520,36	1220,59
520,56	1304,56
520,76	1247,21
520,96	1239,02
521,16	1306,60
521,35	1247,21
521,55	1304,56
521,75	1269,74
521,95	1312,75
522,15	1247,21
522,35	1245,16
522,55	1267,69
522,75	1251,31
522,95	1263,60
523,14	1284,08
523,34	1286,12
523,54	1249,26
523,74	1286,12
523,94	1212,40
524,14	1267,69
524,34	1329,13
524,54	1277,93
524,73	1273,84
524,93	1304,56
525,13	1265,64
525,33	1245,16
525,53	1327,08
525,73	1279,98
525,93	1243,12
526,13	1259,50
526,32	1218,54
526,52	1230,83
526,72	1230,83
526,92	1269,74
527,12	1241,07
527,32	1220,59
527,52	1294,32
527,71	1263,60
527,91	1316,84
528,11	1335,28
528,31	1320,94
528,51	1290,22
528,71	1306,60
528,90	1284,08
529,10	1267,69
529,30	1320,94
529,50	1210,35
529,70	1193,97
529,90	1292,27
530,09	1320,94
530,29	1251,31
530,49	1275,88
530,69	1228,78
530,89	1263,60
531,09	1312,75
531,28	1253,36
531,48	1241,07
531,68	1236,97
531,88	1226,73
532,08	1282,03
532,28	1214,45
532,47	1292,27
532,67	1249,26
532,87	1218,54
533,07	1239,02
533,27	1234,93
533,46	1257,45
533,66	1259,50
533,86	1292,27
534,06	1259,50
534,26	1257,45
534,45	1296,36
534,65	1265,64
534,85	1335,28
535,05	1292,27
535,25	1243,12
535,44	1226,73
535,64	1249,26
535,84	1257,45
536,04	1320,94
536,24	1179,63
536,43	1345,52
536,63	1247,21
536,83	1220,59
537,03	1241,07
537,22	1253,36
537,42	1296,36
537,62	1232,88
537,82	1279,98
538,02	1277,93
538,21	1284,08
538,41	1206,25
538,61	1236,97
538,81	1302,51
539,00	1198,06
539,20	1261,55
539,40	1267,69
539,60	1239,02
539,79	1290,22
539,99	1249,26
540,19	1216,49
540,39	1228,78
540,58	1290,22
540,78	1267,69
540,98	1210,35
541,18	1212,40
541,37	1359,85
541,57	1251,31
541,77	1277,93
541,97	1202,16
542,16	1222,64
542,36	1271,79
542,56	1224,69
542,76	1275,88
542,95	1306,60
543,15	1263,60
543,35	1296,36
543,54	1284,08
543,74	1198,06
543,94	1318,89
544,14	1290,22
544,33	1333,23
544,53	1259,50
544,73	1288,17
544,93	1290,22
545,12	1294,32
545,32	1220,59
545,52	1239,02
545,71	1269,74
545,91	1255,40
546,11	1298,41
546,30	1224,69
546,50	1290,22
546,70	1261,55
546,90	1279,98
547,09	1261,55
547,29	1230,83
547,49	1363,95
547,68	1312,75
547,88	1300,46
548,08	1339,37
548,27	1320,94
548,47	1253,36
548,67	1277,93
548,87	1294,32
549,06	1255,40
549,26	1275,88
549,46	1257,45
549,65	1253,36
549,85	1335,28
550,05	1241,07
550,24	1294,32
550,44	1191,92
550,64	1261,55
550,83	1284,08
551,03	1239,02
551,23	1325,04
551,42	1339,37
551,62	1282,03
551,82	1275,88
552,01	1251,31
552,21	1300,46
552,41	1255,40
552,60	1239,02
552,80	1236,97
553,00	1224,69
553,19	1251,31
553,39	1298,41
553,59	1325,04
553,78	1263,60
553,98	1267,69
554,17	1290,22
554,37	1279,98
554,57	1286,12
554,76	1271,79
554,96	1247,21
555,16	1255,40
555,35	1322,99
555,55	1314,80
555,75	1312,75
555,94	1279,98
556,14	1222,64
556,33	1273,84
556,53	1294,32
556,73	1275,88
556,92	1269,74
557,12	1325,04
557,32	1234,93
557,51	1318,89
557,71	1288,17
557,90	1298,41
558,10	1275,88
558,30	1292,27
558,49	1259,50
558,69	1255,40
558,88	1310,70
559,08	1302,51
559,28	1294,32
559,47	1273,84
559,67	1230,83
559,86	1320,94
560,06	1208,30
560,26	1261,55
560,45	1239,02
560,65	1216,49
560,84	1331,18
561,04	1273,84
561,24	1277,93
561,43	1257,45
561,63	1359,85
561,82	1191,92
562,02	1333,23
562,22	1232,88
562,41	1230,83
562,61	1253,36
562,80	1310,70
563,00	1333,23
563,19	1222,64
563,39	1279,98
563,59	1288,17
563,78	1208,30
563,98	1273,84
564,17	1275,88
564,37	1273,84
564,56	1263,60
564,76	1279,98
564,96	1214,45
565,15	1290,22
565,35	1298,41
565,54	1245,16
565,74	1296,36
565,93	1333,23
566,13	1296,36
566,32	1245,16
566,52	1359,85
566,71	1271,79
566,91	1257,45
567,11	1294,32
567,30	1345,52
567,50	1286,12
567,69	1267,69
567,89	1273,84
568,08	1339,37
568,28	1279,98
568,47	1263,60
568,67	1234,93
568,86	1243,12
569,06	1259,50
569,25	1282,03
569,45	1208,30
569,64	1245,16
569,84	1251,31
570,04	1312,75
570,23	1269,74
570,43	1224,69
570,62	1239,02
570,82	1169,39
571,01	1349,61
571,21	1251,31
571,40	1222,64
571,60	1214,45
571,79	1220,59
571,99	1269,74
572,18	1232,88
572,38	1251,31
572,57	1286,12
572,77	1241,07
572,96	1241,07
573,16	1269,74
573,35	1249,26
573,55	1204,21
573,74	1275,88
573,94	1282,03
574,13	1243,12
574,33	1247,21
574,52	1259,50
574,71	1314,80
574,91	1214,45
575,10	1327,08
575,30	1306,60
575,49	1282,03
575,69	1277,93
575,88	1331,18
576,08	1308,65
576,27	1241,07
576,47	1208,30
576,66	1236,97
576,86	1290,22
577,05	1239,02
577,25	1251,31
577,44	1286,12
577,64	1261,55
577,83	1302,51
578,02	1191,92
578,22	1226,73
578,41	1214,45
578,61	1228,78
578,80	1284,08
579,00	1253,36
579,19	1243,12
579,39	1257,45
579,58	1224,69
579,77	1232,88
579,97	1216,49
580,16	1316,84
580,36	1329,13
580,55	1165,29
580,75	1245,16
580,94	1288,17
581,13	1327,08
581,33	1271,79
581,52	1318,89
581,72	1282,03
581,91	1273,84
582,11	1200,11
582,30	1228,78
582,49	1224,69
582,69	1347,56
582,88	1298,41
583,08	1239,02
583,27	1247,21
583,47	1296,36
583,66	1269,74
583,85	1171,44
584,05	1234,93
584,24	1318,89
584,44	1259,50
584,63	1245,16
584,82	1288,17
585,02	1312,75
585,21	1290,22
585,41	1247,21
585,60	1253,36
585,79	1296,36
585,99	1222,64
586,18	1279,98
586,37	1312,75
586,57	1230,83
586,76	1222,64
586,96	1265,64
587,15	1290,22
587,34	1273,84
587,54	1294,32
587,73	1292,27
587,93	1267,69
588,12	1312,75
588,31	1257,45
588,51	1228,78
588,70	1228,78
588,89	1265,64
589,09	1286,12
589,28	1290,22
589,47	1261,55
589,67	1290,22
589,86	1277,93
590,06	1284,08
590,25	1273,84
590,44	1200,11
590,64	1322,99
590,83	1296,36
591,02	1257,45
591,22	1277,93
591,41	1335,28
591,60	1288,17
591,80	1269,74
591,99	1247,21
592,18	1257,45
592,38	1322,99
592,57	1247,21
592,76	1171,44
592,96	1273,84
593,15	1253,36
593,34	1216,49
593,54	1253,36
593,73	1249,26
593,92	1253,36
594,12	1277,93
594,31	1191,92
594,50	1263,60
594,70	1249,26
594,89	1175,53
595,08	1282,03
595,28	1284,08
595,47	1253,36
595,66	1230,83
595,86	1333,23
596,05	1226,73
596,24	1202,16
596,43	1351,66
596,63	1265,64
596,82	1306,60
597,01	1263,60
597,21	1216,49
597,40	1228,78
597,59	1271,79
597,79	1298,41
597,98	1273,84
598,17	1290,22
598,36	1251,31
598,56	1298,41
598,75	1216,49
598,94	1314,80
599,14	1302,51
599,33	1265,64
599,52	1247,21
599,71	1261,55
599,91	1271,79
600,10	1206,25
600,29	1286,12
600,48	1290,22
600,68	1304,56
600,87	1206,25
601,06	1279,98
601,26	1286,12
601,45	1277,93
601,64	1196,01
601,83	1331,18
602,03	1269,74
602,22	1318,89
602,41	1239,02
602,60	1284,08
602,80	1273,84
602,99	1198,06
603,18	1269,74
603,37	1243,12
603,57	1241,07
603,76	1253,36
603,95	1255,40
604,14	1257,45
604,34	1204,21
604,53	1318,89
604,72	1269,74
604,91	1292,27
605,10	1269,74
605,30	1277,93
605,49	1200,11
605,68	1390,57
605,87	1247,21
606,07	1193,97
606,26	1267,69
606,45	1247,21
606,64	1245,16
606,84	1239,02
607,03	1290,22
607,22	1314,80
607,41	1316,84
607,60	1265,64
607,80	1296,36
607,99	1269,74
608,18	1269,74
608,37	1273,84
608,56	1259,50
608,76	1306,60
608,95	1290,22
609,14	1331,18
609,33	1314,80
609,52	1277,93
609,72	1300,46
609,91	1286,12
610,10	1337,32
610,29	1298,41
610,48	1277,93
610,68	1245,16
610,87	1245,16
611,06	1200,11
611,25	1273,84
611,44	1300,46
611,63	1241,07
611,83	1345,52
612,02	1257,45
612,21	1357,80
612,40	1261,55
612,59	1241,07
612,79	1267,69
612,98	1310,70
613,17	1257,45
613,36	1282,03
613,55	1247,21
613,74	1282,03
613,93	1318,89
614,13	1292,27
614,32	1290,22
614,51	1351,66
614,70	1322,99
614,89	1347,56
615,08	1198,06
615,28	1271,79
615,47	1314,80
615,66	1286,12
615,85	1275,88
616,04	1267,69
616,23	1300,46
616,42	1200,11
616,62	1349,61
616,81	1302,51
617,00	1228,78
617,19	1277,93
617,38	1224,69
617,57	1288,17
617,76	1372,14
617,95	1234,93
618,15	1306,60
618,34	1181,68
618,53	1259,50
618,72	1290,22
618,91	1259,50
619,10	1282,03
619,29	1257,45
619,48	1298,41
619,68	1322,99
619,87	1304,56
620,06	1230,83
620,25	1329,13
620,44	1185,77
620,63	1294,32
620,82	1265,64
621,01	1259,50
621,20	1277,93
621,39	1290,22
621,59	1271,79
621,78	1265,64
621,97	1349,61
622,16	1241,07
622,35	1290,22
622,54	1202,16
622,73	1259,50
622,92	1241,07
623,11	1312,75
623,30	1273,84
623,49	1359,85
623,68	1282,03
623,88	1331,18
624,07	1296,36
624,26	1261,55
624,45	1277,93
624,64	1234,93
624,83	1320,94
625,02	1284,08
625,21	1300,46
625,40	1269,74
625,59	1275,88
625,78	1269,74
625,97	1329,13
626,16	1314,80
626,35	1310,70
626,54	1327,08
626,74	1294,32
626,93	1232,88
627,12	1343,47
627,31	1284,08
627,50	1302,51
627,69	1322,99
627,88	1279,98
628,07	1277,93
628,26	1308,65
628,45	1267,69
628,64	1279,98
628,83	1316,84
629,02	1255,40
629,21	1243,12
629,40	1263,60
629,59	1243,12
629,78	1296,36
629,97	1247,21
630,16	1304,56
630,35	1300,46
630,54	1282,03
630,73	1275,88
630,92	1343,47
631,11	1271,79
631,30	1380,33
631,49	1353,71
631,68	1429,48
631,87	1538,02
632,06	1650,66
632,25	1587,18
632,44	1621,99
632,63	1454,06
632,82	1538,02
633,01	1615,85
633,20	1550,31
633,39	1636,33
633,58	1558,50
633,77	1566,70
633,96	1546,22
634,15	1656,81
634,34	1703,91
634,53	1650,66
634,72	1621,99
634,91	1601,51
635,10	1724,39
635,29	1609,70
635,48	1626,09
635,67	1572,84
635,86	1574,89
636,05	1615,85
636,24	1626,09
636,43	1628,14
636,62	1609,70
636,81	1544,17
637,00	1572,84
637,19	1472,49
637,38	1476,59
637,57	1370,09
637,76	1361,90
637,95	1316,84
638,14	1327,08
638,33	1361,90
638,52	1302,51
638,71	1230,83
638,89	1279,98
639,08	1269,74
639,27	1288,17
639,46	1282,03
639,65	1259,50
639,84	1267,69
640,03	1241,07
640,22	1239,02
640,41	1298,41
640,60	1288,17
640,79	1183,73
640,98	1247,21
641,17	1329,13
641,36	1306,60
641,55	1263,60
641,74	1241,07
641,92	1320,94
642,11	1239,02
642,30	1286,12
642,49	1306,60
642,68	1261,55
642,87	1273,84
643,06	1236,97
643,25	1208,30
643,44	1218,54
643,63	1277,93
643,82	1247,21
644,00	1286,12
644,19	1267,69
644,38	1253,36
644,57	1296,36
644,76	1226,73
644,95	1269,74
645,14	1298,41
645,33	1290,22
645,52	1259,50
645,71	1271,79
645,89	1257,45
646,08	1316,84
646,27	1253,36
646,46	1212,40
646,65	1230,83
646,84	1302,51
647,03	1232,88
647,22	1259,50
647,40	1292,27
647,59	1265,64
647,78	1308,65
647,97	1357,80
648,16	1257,45
648,35	1296,36
648,54	1290,22
648,73	1247,21
648,91	1298,41
649,10	1308,65
649,29	1263,60
649,48	1363,95
649,67	1292,27
649,86	1288,17
650,05	1228,78
650,23	1286,12
650,42	1294,32
650,61	1247,21
650,80	1312,75
650,99	1339,37
651,18	1300,46
651,36	1335,28
651,55	1232,88
651,74	1290,22
651,93	1322,99
652,12	1259,50
652,31	1337,32
652,49	1329,13
652,68	1294,32
652,87	1279,98
653,06	1353,71
653,25	1249,26
653,44	1284,08
653,62	1202,16
653,81	1247,21
654,00	1241,07
654,19	1241,07
654,38	1273,84
654,56	1308,65
654,75	1300,46
654,94	1212,40
655,13	1290,22
655,32	1296,36
655,51	1271,79
655,69	1247,21
655,88	1298,41
656,07	1251,31
656,26	1236,97
656,45	1290,22
656,63	1271,79
656,82	1247,21
657,01	1292,27
657,20	1279,98
657,38	1251,31
657,57	1314,80
657,76	1200,11
657,95	1249,26
658,14	1294,32
658,32	1234,93
658,51	1296,36
658,70	1208,30
658,89	1306,60
659,08	1339,37
659,26	1236,97
659,45	1320,94
659,64	1314,80
659,83	1245,16
660,01	1329,13
660,20	1249,26
660,39	1232,88
660,58	1314,80
660,76	1263,60
660,95	1253,36
661,14	1228,78
661,33	1288,17
661,51	1249,26
661,70	1267,69
661,89	1265,64
662,08	1253,36
662,26	1245,16
662,45	1249,26
662,64	1249,26
662,83	1294,32
663,01	1306,60
663,20	1249,26
663,39	1259,50
663,58	1325,04
663,76	1271,79
663,95	1255,40
664,14	1316,84
664,32	1249,26
664,51	1306,60
664,70	1220,59
664,89	1325,04
665,07	1249,26
665,26	1249,26
665,45	1314,80
665,64	1234,93
665,82	1343,47
666,01	1259,50
666,20	1304,56
666,38	1292,27
666,57	1251,31
666,76	1290,22
666,95	1185,77
667,13	1304,56
667,32	1284,08
667,51	1300,46
667,69	1212,40
667,88	1259,50
668,07	1265,64
668,25	1206,25
668,44	1241,07
668,63	1249,26
668,81	1277,93
669,00	1257,45
669,19	1247,21
669,38	1279,98
669,56	1251,31
669,75	1265,64
669,94	1269,74
670,12	1267,69
670,31	1286,12
670,50	1271,79
670,68	1277,93
670,87	1218,54
671,06	1255,40
671,24	1269,74
671,43	1232,88
671,62	1304,56
671,80	1239,02
671,99	1327,08
672,18	1275,88
672,36	1292,27
672,55	1253,36
672,74	1232,88
672,92	1267,69
673,11	1277,93
673,29	1331,18
673,48	1290,22
673,67	1298,41
673,85	1325,04
674,04	1273,84
674,23	1300,46
674,41	1339,37
674,60	1302,51
674,79	1249,26
674,97	1284,08
675,16	1302,51
675,34	1302,51
675,53	1298,41
675,72	1261,55
675,90	1247,21
676,09	1312,75
676,28	1271,79
676,46	1200,11
676,65	1310,70
676,83	1310,70
677,02	1136,62
677,21	1310,70
677,39	1277,93
677,58	1273,84
677,77	1292,27
677,95	1241,07
678,14	1294,32
678,32	1290,22
678,51	1220,59
678,70	1234,93
678,88	1196,01
679,07	1249,26
679,25	1304,56
679,44	1314,80
679,63	1320,94
679,81	1257,45
680,00	1261,55
680,18	1226,73
680,37	1245,16
680,55	1263,60
680,74	1230,83
680,93	1245,16
681,11	1241,07
681,30	1279,98
681,48	1239,02
681,67	1218,54
681,85	1290,22
682,04	1239,02
682,23	1312,75
682,41	1191,92
682,60	1181,68
682,78	1193,97
682,97	1251,31
683,15	1245,16
683,34	1241,07
683,53	1282,03
683,71	1288,17
683,90	1255,40
684,08	1275,88
684,27	1284,08
684,45	1241,07
684,64	1292,27
684,82	1294,32
685,01	1277,93
685,19	1265,64
685,38	1271,79
685,57	1263,60
685,75	1306,60
685,94	1275,88
686,12	1259,50
686,31	1279,98
686,49	1298,41
686,68	1224,69
686,86	1322,99
687,05	1202,16
687,23	1275,88
687,42	1212,40
687,60	1236,97
687,79	1230,83
687,97	1306,60
688,16	1150,96
688,34	1327,08
688,53	1245,16
688,71	1306,60
688,90	1327,08
689,08	1322,99
689,27	1187,82
689,45	1290,22
689,64	1167,34
689,82	1265,64
690,01	1284,08
690,19	1226,73
690,38	1322,99
690,56	1279,98
690,75	1277,93
690,93	1290,22
691,12	1247,21
691,30	1298,41
691,49	1288,17
691,67	1214,45
691,86	1232,88
692,04	1265,64
692,23	1236,97
692,41	1204,21
692,60	1296,36
692,78	1253,36
692,97	1284,08
693,15	1267,69
693,34	1232,88
693,52	1234,93
693,71	1335,28
693,89	1241,07
694,08	1263,60
694,26	1312,75
694,44	1306,60
694,63	1226,73
694,81	1169,39
695,00	1269,74
695,18	1290,22
695,37	1370,09
695,55	1273,84
695,74	1302,51
695,92	1318,89
696,10	1288,17
696,29	1282,03
696,47	1232,88
696,66	1214,45
696,84	1202,16
697,03	1245,16
697,21	1282,03
697,40	1351,66
697,58	1271,79
697,76	1247,21
697,95	1304,56
698,13	1236,97
698,32	1302,51
698,50	1304,56
698,68	1306,60
698,87	1261,55
699,05	1263,60
699,24	1267,69
699,42	1279,98
699,61	1290,22
699,79	1236,97
699,97	1257,45
700,16	1273,84
700,34	1267,69
700,53	1236,97
700,71	1234,93
700,89	1294,32
701,08	1275,88
701,26	1249,26
701,45	1302,51
701,63	1208,30
701,81	1279,98
702,00	1265,64
702,18	1277,93
702,37	1265,64
702,55	1316,84
702,73	1228,78
702,92	1214,45
703,10	1259,50
703,28	1230,83
703,47	1208,30
703,65	1325,04
703,84	1269,74
704,02	1337,32
704,20	1216,49
704,39	1220,59
704,57	1288,17
704,75	1277,93
704,94	1222,64
705,12	1282,03
705,30	1241,07
705,49	1331,18
705,67	1368,04
705,86	1265,64
706,04	1239,02
706,22	1320,94
706,41	1271,79
706,59	1253,36
706,77	1241,07
706,96	1259,50
707,14	1230,83
707,32	1265,64
707,51	1292,27
707,69	1214,45
707,87	1267,69
708,06	1247,21
708,24	1312,75
708,42	1191,92
708,61	1296,36
708,79	1282,03
708,97	1226,73
709,16	1251,31
709,34	1288,17
709,52	1253,36
709,71	1296,36
709,89	1320,94
710,07	1261,55
710,26	1198,06
710,44	1279,98
710,62	1263,60
710,80	1239,02
710,99	1249,26
711,17	1339,37
711,35	1263,60
711,54	1263,60
711,72	1193,97
711,90	1345,52
712,09	1257,45
712,27	1267,69
712,45	1259,50
712,63	1220,59
712,82	1232,88
713,00	1306,60
713,18	1226,73
713,37	1230,83
713,55	1302,51
713,73	1255,40
713,91	1269,74
714,10	1271,79
714,28	1228,78
714,46	1265,64
714,65	1286,12
714,83	1288,17
715,01	1286,12
715,19	1181,68
715,38	1249,26
715,56	1302,51
715,74	1296,36
715,92	1312,75
716,11	1294,32
716,29	1310,70
716,47	1204,21
716,65	1247,21
716,84	1222,64
717,02	1224,69
717,20	1202,16
717,38	1257,45
717,57	1243,12
717,75	1300,46
717,93	1208,30
718,11	1306,60
718,30	1218,54
718,48	1290,22
718,66	1341,42
718,84	1261,55
719,03	1169,39
719,21	1290,22
719,39	1253,36
719,57	1277,93
719,75	1327,08
719,94	1296,36
720,12	1298,41
720,30	1269,74
720,48	1277,93
720,67	1306,60
720,85	1239,02
721,03	1257,45
721,21	1304,56
721,39	1296,36
721,58	1249,26
721,76	1294,32
721,94	1245,16
722,12	1232,88
722,30	1310,70
722,49	1296,36
722,67	1302,51
722,85	1273,84
723,03	1228,78
723,21	1191,92
723,40	1284,08
723,58	1241,07
723,76	1165,29
723,94	1275,88
724,12	1288,17
724,30	1296,36
724,49	1202,16
724,67	1259,50
724,85	1232,88
725,03	1212,40
725,21	1255,40
725,40	1337,32
725,58	1243,12
725,76	1247,21
725,94	1253,36
726,12	1300,46
726,30	1222,64
726,49	1239,02
726,67	1267,69
726,85	1239,02
727,03	1277,93
727,21	1261,55
727,39	1300,46
727,57	1253,36
727,76	1253,36
727,94	1312,75
728,12	1243,12
728,30	1255,40
728,48	1286,12
728,66	1230,83
728,84	1222,64
729,03	1282,03
729,21	1200,11
729,39	1241,07
729,57	1228,78
729,75	1325,04
729,93	1322,99
730,11	1306,60
730,30	1255,40
730,48	1216,49
730,66	1306,60
730,84	1355,76
731,02	1261,55
731,20	1247,21
731,38	1261,55
731,56	1241,07
731,74	1273,84
731,93	1206,25
732,11	1298,41
732,29	1228,78
732,47	1282,03
732,65	1263,60
732,83	1255,40
733,01	1277,93
733,19	1230,83
733,37	1230,83
733,56	1357,80
733,74	1292,27
733,92	1290,22
734,10	1316,84
734,28	1298,41
734,46	1214,45
734,64	1232,88
734,82	1288,17
735,00	1279,98
735,18	1241,07
735,36	1345,52
735,54	1288,17
735,73	1247,21
735,91	1249,26
736,09	1271,79
736,27	1282,03
736,45	1247,21
736,63	1308,65
736,81	1275,88
736,99	1267,69
737,17	1296,36
737,35	1261,55
737,53	1255,40
737,71	1206,25
737,89	1249,26
738,07	1277,93
738,25	1253,36
738,43	1261,55
738,61	1310,70
738,80	1245,16
738,98	1245,16
739,16	1265,64
739,34	1241,07
739,52	1218,54
739,70	1243,12
739,88	1222,64
740,06	1265,64
740,24	1263,60
740,42	1259,50
740,60	1290,22
740,78	1294,32
740,96	1279,98
741,14	1275,88
741,32	1298,41
741,50	1308,65
741,68	1271,79
741,86	1298,41
742,04	1226,73
742,22	1337,32
742,40	1236,97
742,58	1202,16
742,76	1327,08
742,94	1245,16
743,12	1302,51
743,30	1230,83
743,48	1255,40
743,66	1234,93
743,84	1275,88
744,02	1232,88
744,20	1273,84
744,38	1247,21
744,56	1239,02
744,74	1226,73
744,92	1288,17
745,10	1210,35
745,28	1269,74
745,46	1224,69
745,64	1361,90
745,82	1265,64
746,00	1329,13
746,18	1290,22
746,36	1320,94
746,54	1279,98
746,72	1214,45
746,90	1265,64
747,08	1335,28
747,26	1271,79
747,44	1288,17
747,62	1282,03
747,80	1310,70
747,98	1347,56
748,15	1224,69
748,33	1286,12
748,51	1267,69
748,69	1263,60
748,87	1294,32
749,05	1306,60
749,23	1288,17
749,41	1257,45
749,59	1247,21
749,77	1327,08
749,95	1263,60
750,13	1302,51
750,31	1257,45
750,49	1247,21
750,67	1294,32
750,85	1310,70
751,03	1265,64
751,20	1191,92
751,38	1249,26
751,56	1277,93
751,74	1296,36
751,92	1243,12
752,10	1271,79
752,28	1255,40
752,46	1327,08
752,64	1226,73
752,82	1265,64
753,00	1232,88
753,18	1234,93
753,35	1300,46
753,53	1204,21
753,71	1271,79
753,89	1214,45
754,07	1228,78
754,25	1193,97
754,43	1265,64
754,61	1216,49
754,79	1232,88
754,97	1261,55
755,14	1304,56
755,32	1331,18
755,50	1208,30
755,68	1304,56
755,86	1183,73
756,04	1239,02
756,22	1261,55
756,40	1222,64
756,57	1271,79
756,75	1183,73
756,93	1300,46
757,11	1241,07
757,29	1228,78
757,47	1224,69
757,65	1193,97
757,82	1239,02
758,00	1286,12
758,18	1185,77
758,36	1220,59
758,54	1312,75
758,72	1263,60
758,90	1269,74
759,07	1286,12
759,25	1316,84
759,43	1255,40
759,61	1175,53
759,79	1282,03
759,97	1286,12
760,15	1239,02
760,32	1304,56
760,50	1327,08
760,68	1245,16
760,86	1224,69
761,04	1249,26
761,22	1269,74
761,39	1290,22
761,57	1316,84
761,75	1222,64
761,93	1222,64
762,11	1263,60
762,28	1292,27
762,46	1224,69
762,64	1226,73
762,82	1243,12
763,00	1304,56
763,18	1273,84
763,35	1230,83
763,53	1306,60
763,71	1173,49
763,89	1320,94
764,07	1220,59
764,24	1273,84
764,42	1294,32
764,60	1214,45
764,78	1253,36
764,96	1206,25
765,13	1320,94
765,31	1269,74
765,49	1255,40
765,67	1304,56
765,84	1232,88
766,02	1210,35
766,20	1255,40
766,38	1253,36
766,56	1292,27
766,73	1325,04
766,91	1273,84
767,09	1255,40
767,27	1228,78
767,44	1267,69
767,62	1325,04
767,80	1322,99
767,98	1232,88
768,15	1320,94
768,33	1312,75
768,51	1345,52
768,69	1204,21
768,87	1236,97
769,04	1196,01
769,22	1310,70
769,40	1327,08
769,58	1302,51
769,75	1304,56
769,93	1286,12
770,11	1351,66
770,28	1292,27
770,46	1198,06
770,64	1265,64
770,82	1212,40
770,99	1214,45
771,17	1292,27
771,35	1288,17
771,53	1253,36
771,70	1214,45
771,88	1249,26
772,06	1288,17
772,23	1218,54
772,41	1232,88
772,59	1308,65
772,77	1288,17
772,94	1257,45
773,12	1222,64
773,30	1263,60
773,47	1228,78
773,65	1245,16
773,83	1261,55
774,01	1196,01
774,18	1245,16
774,36	1284,08
774,54	1253,36
774,71	1300,46
774,89	1286,12
775,07	1279,98
775,24	1228,78
775,42	1220,59
775,60	1339,37
775,78	1308,65
775,95	1218,54
776,13	1320,94
776,31	1271,79
776,48	1224,69
776,66	1275,88
776,84	1302,51
777,01	1249,26
777,19	1306,60
777,37	1310,70
777,54	1275,88
777,72	1275,88
777,90	1273,84
778,07	1294,32
778,25	1257,45
778,43	1298,41
778,60	1247,21
778,78	1259,50
778,96	1263,60
779,13	1265,64
779,31	1230,83
779,49	1304,56
779,66	1288,17
779,84	1267,69
780,01	1275,88
780,19	1300,46
780,37	1267,69
780,54	1251,31
780,72	1298,41
780,90	1239,02
781,07	1322,99
781,25	1263,60
781,43	1286,12
781,60	1210,35
781,78	1179,63
781,95	1310,70
782,13	1232,88
782,31	1273,84
782,48	1181,68
782,66	1236,97
782,83	1351,66
783,01	1247,21
783,19	1232,88
783,36	1263,60
783,54	1239,02
783,72	1290,22
783,89	1320,94
784,07	1298,41
784,24	1255,40
784,42	1298,41
784,60	1284,08
784,77	1159,15
784,95	1214,45
785,12	1306,60
785,30	1329,13
785,47	1302,51
785,65	1314,80
785,83	1269,74
786,00	1259,50
786,18	1294,32
786,35	1263,60
786,53	1294,32
786,71	1191,92
786,88	1198,06
787,06	1247,21
787,23	1310,70
787,41	1304,56
787,58	1263,60
787,76	1296,36
787,94	1253,36
788,11	1204,21
788,29	1322,99
788,46	1300,46
788,64	1247,21
788,81	1230,83
788,99	1247,21
789,16	1273,84
789,34	1318,89
789,52	1189,87
789,69	1253,36
789,87	1224,69
790,04	1220,59
790,22	1255,40
790,39	1249,26
790,57	1335,28
790,74	1232,88
790,92	1286,12
791,09	1230,83
791,27	1222,64
791,44	1316,84
791,62	1228,78
791,79	1273,84
791,97	1271,79
792,15	1277,93
792,32	1253,36
792,50	1212,40
792,67	1294,32
792,85	1249,26
793,02	1277,93
793,20	1259,50
793,37	1286,12
793,55	1251,31
793,72	1257,45
793,90	1259,50
794,07	1181,68
794,25	1263,60
794,42	1239,02
794,60	1263,60
794,77	1257,45
794,95	1228,78
795,12	1300,46
795,30	1253,36
795,47	1255,40
795,65	1277,93
795,82	1265,64
796,00	1327,08
796,17	1196,01
796,34	1306,60
796,52	1220,59
796,69	1253,36
796,87	1249,26
797,04	1245,16
797,22	1294,32
797,39	1279,98
797,57	1320,94
797,74	1271,79
797,92	1222,64
798,09	1245,16
798,27	1243,12
798,44	1247,21
798,62	1282,03
798,79	1279,98
798,96	1288,17
799,14	1269,74
799,31	1222,64
799,49	1339,37
799,66	1275,88
799,84	1279,98
800,01	1331,18
800,19	1341,42
800,36	1175,53
800,53	1300,46
800,71	1259,50
800,88	1337,32
801,06	1257,45
801,23	1224,69
801,41	1247,21
801,58	1222,64
801,75	1216,49
801,93	1251,31
802,10	1222,64
802,28	1234,93
802,45	1241,07
802,63	1257,45
802,80	1226,73
802,97	1298,41
803,15	1325,04
803,32	1208,30
803,50	1271,79
803,67	1316,84
803,84	1290,22
804,02	1228,78
804,19	1265,64
804,37	1273,84
804,54	1271,79
804,71	1325,04
804,89	1267,69
805,06	1300,46
805,24	1234,93
805,41	1226,73
805,58	1388,52
805,76	1200,11
805,93	1224,69
806,10	1226,73
806,28	1282,03
806,45	1263,60
806,63	1298,41
806,80	1302,51
806,97	1253,36
807,15	1230,83
807,32	1302,51
807,49	1290,22
807,67	1236,97
807,84	1228,78
808,01	1257,45
808,19	1282,03
808,36	1304,56
808,54	1241,07
808,71	1271,79
808,88	1284,08
809,06	1224,69
809,23	1284,08
809,40	1259,50
809,58	1206,25
809,75	1279,98
809,92	1275,88
810,10	1273,84
810,27	1279,98
810,44	1318,89
810,62	1243,12
810,79	1329,13
810,96	1331,18
811,14	1286,12
811,31	1263,60
811,48	1284,08
811,66	1277,93
811,83	1316,84
812,00	1259,50
812,18	1257,45
812,35	1286,12
812,52	1286,12
812,69	1282,03
812,87	1222,64
813,04	1271,79
813,21	1251,31
813,39	1249,26
813,56	1257,45
813,73	1294,32
813,91	1290,22
814,08	1257,45
814,25	1273,84
814,42	1255,40
814,60	1236,97
814,77	1288,17
814,94	1210,35
815,12	1275,88
815,29	1196,01
815,46	1320,94
815,63	1259,50
815,81	1298,41
815,98	1200,11
816,15	1210,35
816,33	1282,03
816,50	1279,98
816,67	1220,59
816,84	1220,59
817,02	1232,88
817,19	1208,30
817,36	1300,46
817,53	1167,34
817,71	1259,50
817,88	1261,55
818,05	1175,53
818,22	1261,55
818,40	1275,88
818,57	1322,99
818,74	1204,21
818,91	1286,12
819,09	1294,32
819,26	1271,79
819,43	1318,89
819,60	1265,64
819,78	1245,16
819,95	1196,01
820,12	1239,02
820,29	1298,41
820,47	1169,39
820,64	1279,98
820,81	1300,46
820,98	1261,55
821,15	1261,55
821,33	1271,79
821,50	1294,32
821,67	1259,50
821,84	1261,55
822,02	1259,50
822,19	1296,36
822,36	1308,65
822,53	1259,50
822,70	1308,65
822,88	1277,93
823,05	1247,21
823,22	1236,97
823,39	1271,79
823,56	1296,36
823,74	1275,88
823,91	1245,16
824,08	1288,17
824,25	1236,97
824,42	1210,35
824,60	1263,60
824,77	1290,22
824,94	1263,60
825,11	1196,01
825,28	1290,22
825,45	1230,83
825,63	1212,40
825,80	1290,22
825,97	1247,21
826,14	1236,97
826,31	1277,93
826,48	1259,50
826,66	1325,04
826,83	1343,47
827,00	1282,03
827,17	1214,45
827,34	1282,03
827,51	1288,17
827,69	1202,16
827,86	1220,59
828,03	1269,74
828,20	1273,84
828,37	1275,88
828,54	1269,74
828,71	1271,79
828,89	1183,73
829,06	1249,26
829,23	1232,88
829,40	1236,97
829,57	1353,71
829,74	1255,40
829,91	1288,17
830,09	1226,73
830,26	1222,64
830,43	1200,11
830,60	1259,50
830,77	1241,07
830,94	1302,51
831,11	1269,74
831,28	1232,88
831,46	1290,22
831,63	1236,97
831,80	1316,84
831,97	1284,08
832,14	1255,40
832,31	1298,41
832,48	1275,88
832,65	1312,75
832,82	1196,01
832,99	1271,79
833,17	1286,12
833,34	1322,99
833,51	1216,49
833,68	1286,12
833,85	1298,41
834,02	1341,42
834,19	1292,27
834,36	1243,12
834,53	1282,03
834,70	1271,79
834,87	1259,50
835,04	1304,56
835,22	1249,26
835,39	1290,22
835,56	1331,18
835,73	1193,97
835,90	1372,14
836,07	1206,25
836,24	1253,36
836,41	1349,61
836,58	1218,54
836,75	1247,21
836,92	1343,47
837,09	1304,56
837,26	1286,12
837,43	1255,40
837,60	1243,12
837,77	1245,16
837,94	1269,74
838,12	1331,18
838,29	1353,71
838,46	1279,98
838,63	1243,12
838,80	1320,94
838,97	1294,32
839,14	1322,99
839,31	1183,73
839,48	1300,46
839,65	1314,80
839,82	1277,93
839,99	1236,97
840,16	1341,42
840,33	1249,26
840,50	1298,41
840,67	1267,69
840,84	1292,27
841,01	1251,31
841,18	1226,73
841,35	1277,93
841,52	1275,88
841,69	1331,18
841,86	1196,01
842,03	1267,69
842,20	1265,64
842,37	1177,58
842,54	1275,88
842,71	1253,36
842,88	1304,56
843,05	1284,08
843,22	1308,65
843,39	1318,89
843,56	1249,26
843,73	1239,02
843,90	1183,73
844,07	1228,78
844,24	1282,03
844,41	1226,73
844,58	1296,36
844,75	1241,07
844,92	1228,78
845,09	1282,03
845,26	1198,06
845,43	1253,36
845,60	1247,21
845,77	1249,26
845,94	1306,60
846,10	1304,56
846,27	1253,36
846,44	1224,69
846,61	1234,93
846,78	1265,64
846,95	1296,36
847,12	1177,58
847,29	1247,21
847,46	1220,59
847,63	1271,79
847,80	1216,49
847,97	1286,12
848,14	1310,70
848,31	1267,69
848,48	1208,30
848,65	1255,40
848,82	1294,32
848,98	1257,45
849,15	1198,06
849,32	1329,13
849,49	1282,03
849,66	1341,42
849,83	1251,31
850,00	1308,65
850,17	1234,93
850,34	1284,08
850,51	1275,88
850,68	1312,75
850,85	1267,69
851,01	1271,79
851,18	1296,36
851,35	1306,60
851,52	1347,56
851,69	1257,45
851,86	1210,35
852,03	1304,56
852,20	1210,35
852,37	1296,36
852,53	1204,21
852,70	1273,84
852,87	1236,97
853,04	1247,21
853,21	1234,93
853,38	1257,45
853,55	1257,45
853,72	1298,41
853,89	1257,45
854,05	1230,83
854,22	1232,88
854,39	1243,12
854,56	1236,97
854,73	1216,49
854,90	1218,54
855,07	1265,64
855,23	1218,54
855,40	1273,84
855,57	1335,28
855,74	1273,84
855,91	1298,41
856,08	1265,64
856,25	1282,03
856,41	1249,26
856,58	1255,40
856,75	1255,40
856,92	1294,32
857,09	1298,41
857,26	1261,55
857,42	1267,69
857,59	1234,93
857,76	1282,03
857,93	1261,55
858,10	1286,12
858,27	1337,32
858,43	1286,12
858,60	1204,21
858,77	1335,28
858,94	1275,88
859,11	1196,01
859,27	1300,46
859,44	1284,08
859,61	1286,12
859,78	1292,27
859,95	1251,31
860,12	1226,73
860,28	1304,56
860,45	1277,93
860,62	1206,25
860,79	1255,40
860,95	1286,12
861,12	1269,74
861,29	1284,08
861,46	1212,40
861,63	1292,27
861,79	1230,83
861,96	1302,51
862,13	1241,07
862,30	1296,36
862,47	1306,60
862,63	1241,07
862,80	1304,56
862,97	1255,40
863,14	1265,64
863,30	1271,79
863,47	1269,74
863,64	1245,16
863,81	1271,79
863,97	1257,45
864,14	1259,50
864,31	1304,56
864,48	1292,27
864,65	1265,64
864,81	1298,41
864,98	1331,18
865,15	1249,26
865,32	1282,03
865,48	1236,97
865,65	1275,88
865,82	1282,03
865,98	1271,79
866,15	1224,69
866,32	1279,98
866,49	1224,69
866,65	1361,90
866,82	1267,69
866,99	1290,22
867,16	1251,31
867,32	1290,22
867,49	1175,53
867,66	1251,31
867,83	1294,32
867,99	1236,97
868,16	1273,84
868,33	1335,28
868,49	1277,93
868,66	1292,27
868,83	1210,35
868,99	1273,84
869,16	1300,46
869,33	1222,64
869,50	1347,56
869,66	1261,55
869,83	1292,27
870,00	1265,64
870,16	1241,07
870,33	1286,12
870,50	1222,64
870,66	1208,30
870,83	1249,26
871,00	1310,70
871,17	1273,84
871,33	1220,59
871,50	1312,75
871,67	1306,60
871,83	1226,73
872,00	1345,52
872,17	1269,74
872,33	1210,35
872,50	1300,46
872,67	1214,45
872,83	1241,07
873,00	1206,25
873,17	1269,74
873,33	1279,98
873,50	1275,88
873,67	1230,83
873,83	1347,56
874,00	1243,12
874,16	1353,71
874,33	1298,41
874,50	1320,94
874,66	1294,32
874,83	1241,07
875,00	1279,98
875,16	1204,21
875,33	1255,40
875,50	1302,51
875,66	1263,60
875,83	1249,26
875,99	1222,64
876,16	1232,88
876,33	1269,74
876,49	1288,17
876,66	1312,75
876,83	1249,26
876,99	1286,12
877,16	1232,88
877,32	1249,26
877,49	1255,40
877,66	1228,78
877,82	1298,41
877,99	1273,84
878,15	1298,41
878,32	1306,60
878,49	1271,79
878,65	1245,16
878,82	1312,75
878,98	1290,22
879,15	1333,23
879,32	1200,11
879,48	1345,52
879,65	1312,75
879,81	1247,21
879,98	1302,51
880,15	1339,37
880,31	1255,40
880,48	1284,08
880,64	1249,26
880,81	1210,35
880,97	1308,65
881,14	1284,08
881,31	1232,88
881,47	1284,08
881,64	1296,36
881,80	1277,93
881,97	1269,74
882,13	1245,16
882,30	1296,36
882,47	1208,30
882,63	1232,88
882,80	1306,60
882,96	1306,60
883,13	1318,89
883,29	1267,69
883,46	1273,84
883,62	1320,94
883,79	1288,17
883,95	1351,66
884,12	1318,89
884,29	1222,64
884,45	1273,84
884,62	1282,03
884,78	1214,45
884,95	1296,36
885,11	1210,35
885,28	1241,07
885,44	1279,98
885,61	1298,41
885,77	1273,84
885,94	1298,41
886,10	1269,74
886,27	1275,88
886,43	1306,60
886,60	1206,25
886,76	1253,36
886,93	1263,60
887,09	1304,56
887,26	1327,08
887,42	1314,80
887,59	1247,21
887,75	1220,59
887,92	1273,84
888,08	1343,47
888,25	1236,97
888,41	1290,22
888,58	1351,66
888,74	1204,21
888,91	1228,78
>>>>>End Processed Spectral Data<<<<<
