SpectraSuite Data File
++++++++++++++++++++++++++++++++++++
Date: Sun Apr 03 15:43:04 CEST 2016
User: root
Dark Spectrum Present: No
Reference Spectrum Present: No
Number of Sampled Component Spectra: 1
Spectrometers: USB4C02835
Integration Time (usec): 10000 (USB4C02835)
Spectra Averaged: 1 (USB4C02835)
Boxcar Smoothing: 0 (USB4C02835)
Correct for Electrical Dark: No (USB4C02835)
Strobe/Lamp Enabled: No (USB4C02835)
Correct for Detector Non-linearity: No (USB4C02835)
Correct for Stray Light: No (USB4C02835)
Number of Pixels in Processed Spectrum: 3648
>>>>>Begin Processed Spectral Data<<<<<
177,47	1245,16
177,69	1245,16
177,91	1245,16
178,13	1245,16
178,36	1202,16
178,58	1234,93
178,80	1284,08
179,02	1193,97
179,24	1308,65
179,46	1300,46
179,68	1329,13
179,90	1269,74
180,13	1277,93
180,35	1290,22
180,57	1288,17
180,79	1300,46
181,01	1286,12
181,23	1259,50
181,45	1269,74
181,67	1222,64
181,90	1286,12
182,12	1241,07
182,34	1216,49
182,56	1329,13
182,78	1286,12
183,00	1339,37
183,22	1239,02
183,44	1247,21
183,66	1279,98
183,89	1251,31
184,11	1198,06
184,33	1234,93
184,55	1267,69
184,77	1263,60
184,99	1296,36
185,21	1234,93
185,43	1222,64
185,65	1259,50
185,87	1343,47
186,10	1275,88
186,32	1277,93
186,54	1282,03
186,76	1325,04
186,98	1314,80
187,20	1294,32
187,42	1189,87
187,64	1300,46
187,86	1243,12
188,08	1251,31
188,30	1253,36
188,52	1263,60
188,75	1267,69
188,97	1261,55
189,19	1239,02
189,41	1298,41
189,63	1253,36
189,85	1327,08
190,07	1251,31
190,29	1230,83
190,51	1300,46
190,73	1214,45
190,95	1265,64
191,17	1331,18
191,39	1222,64
191,61	1212,40
191,84	1267,69
192,06	1296,36
192,28	1292,27
192,50	1282,03
192,72	1292,27
192,94	1224,69
193,16	1253,36
193,38	1353,71
193,60	1185,77
193,82	1255,40
194,04	1282,03
194,26	1271,79
194,48	1236,97
194,70	1222,64
194,92	1282,03
195,14	1249,26
195,36	1234,93
195,58	1290,22
195,80	1224,69
196,02	1253,36
196,24	1259,50
196,46	1378,28
196,69	1275,88
196,91	1349,61
197,13	1269,74
197,35	1265,64
197,57	1308,65
197,79	1183,73
198,01	1273,84
198,23	1263,60
198,45	1261,55
198,67	1239,02
198,89	1265,64
199,11	1249,26
199,33	1304,56
199,55	1269,74
199,77	1253,36
199,99	1245,16
200,21	1314,80
200,43	1232,88
200,65	1286,12
200,87	1312,75
201,09	1269,74
201,31	1245,16
201,53	1243,12
201,75	1286,12
201,97	1306,60
202,19	1277,93
202,41	1277,93
202,63	1279,98
202,85	1230,83
203,07	1271,79
203,29	1296,36
203,51	1253,36
203,73	1259,50
203,95	1243,12
204,17	1294,32
204,39	1288,17
204,61	1177,58
204,83	1284,08
205,05	1249,26
205,27	1265,64
205,49	1245,16
205,71	1232,88
205,93	1277,93
206,15	1222,64
206,37	1277,93
206,59	1286,12
206,81	1306,60
207,03	1286,12
207,25	1290,22
207,47	1191,92
207,69	1230,83
207,91	1277,93
208,13	1263,60
208,34	1247,21
208,56	1234,93
208,78	1292,27
209,00	1269,74
209,22	1261,55
209,44	1314,80
209,66	1277,93
209,88	1275,88
210,10	1320,94
210,32	1300,46
210,54	1277,93
210,76	1312,75
210,98	1267,69
211,20	1232,88
211,42	1306,60
211,64	1206,25
211,86	1279,98
212,08	1310,70
212,30	1310,70
212,52	1282,03
212,74	1259,50
212,96	1318,89
213,17	1294,32
213,39	1257,45
213,61	1259,50
213,83	1255,40
214,05	1222,64
214,27	1232,88
214,49	1282,03
214,71	1273,84
214,93	1202,16
215,15	1347,56
215,37	1245,16
215,59	1204,21
215,81	1284,08
216,03	1224,69
216,24	1265,64
216,46	1261,55
216,68	1279,98
216,90	1318,89
217,12	1241,07
217,34	1335,28
217,56	1245,16
217,78	1277,93
218,00	1267,69
218,22	1273,84
218,44	1228,78
218,66	1222,64
218,87	1316,84
219,09	1255,40
219,31	1316,84
219,53	1310,70
219,75	1241,07
219,97	1243,12
220,19	1378,28
220,41	1284,08
220,63	1284,08
220,85	1265,64
221,06	1302,51
221,28	1253,36
221,50	1257,45
221,72	1327,08
221,94	1290,22
222,16	1314,80
222,38	1232,88
222,60	1265,64
222,82	1247,21
223,03	1302,51
223,25	1302,51
223,47	1259,50
223,69	1298,41
223,91	1279,98
224,13	1290,22
224,35	1196,01
224,57	1312,75
224,78	1265,64
225,00	1302,51
225,22	1306,60
225,44	1251,31
225,66	1302,51
225,88	1292,27
226,10	1228,78
226,32	1241,07
226,53	1277,93
226,75	1257,45
226,97	1261,55
227,19	1249,26
227,41	1259,50
227,63	1259,50
227,85	1226,73
228,06	1245,16
228,28	1259,50
228,50	1279,98
228,72	1259,50
228,94	1296,36
229,16	1216,49
229,37	1200,11
229,59	1253,36
229,81	1298,41
230,03	1273,84
230,25	1282,03
230,47	1261,55
230,69	1206,25
230,90	1294,32
231,12	1247,21
231,34	1196,01
231,56	1267,69
231,78	1306,60
232,00	1271,79
232,21	1249,26
232,43	1294,32
232,65	1216,49
232,87	1265,64
233,09	1208,30
233,30	1189,87
233,52	1288,17
233,74	1284,08
233,96	1288,17
234,18	1325,04
234,40	1196,01
234,61	1245,16
234,83	1241,07
235,05	1284,08
235,27	1286,12
235,49	1279,98
235,70	1316,84
235,92	1306,60
236,14	1249,26
236,36	1294,32
236,58	1218,54
236,79	1331,18
237,01	1279,98
237,23	1247,21
237,45	1271,79
237,67	1259,50
237,88	1234,93
238,10	1269,74
238,32	1165,29
238,54	1261,55
238,76	1200,11
238,97	1282,03
239,19	1277,93
239,41	1255,40
239,63	1204,21
239,85	1247,21
240,06	1214,45
240,28	1282,03
240,50	1286,12
240,72	1232,88
240,93	1294,32
241,15	1304,56
241,37	1304,56
241,59	1279,98
241,81	1214,45
242,02	1212,40
242,24	1282,03
242,46	1294,32
242,68	1255,40
242,89	1208,30
243,11	1261,55
243,33	1191,92
243,55	1220,59
243,76	1298,41
243,98	1251,31
244,20	1196,01
244,42	1286,12
244,64	1273,84
244,85	1345,52
245,07	1292,27
245,29	1318,89
245,51	1232,88
245,72	1308,65
245,94	1222,64
246,16	1241,07
246,38	1243,12
246,59	1243,12
246,81	1282,03
247,03	1165,29
247,24	1230,83
247,46	1327,08
247,68	1236,97
247,90	1261,55
248,11	1251,31
248,33	1282,03
248,55	1294,32
248,77	1259,50
248,98	1263,60
249,20	1298,41
249,42	1306,60
249,64	1263,60
249,85	1263,60
250,07	1277,93
250,29	1347,56
250,50	1255,40
250,72	1273,84
250,94	1212,40
251,16	1288,17
251,37	1312,75
251,59	1261,55
251,81	1193,97
252,02	1173,49
252,24	1271,79
252,46	1316,84
252,68	1224,69
252,89	1361,90
253,11	1308,65
253,33	1314,80
253,54	1386,47
253,76	1296,36
253,98	1267,69
254,20	1290,22
254,41	1310,70
254,63	1253,36
254,85	1269,74
255,06	1271,79
255,28	1331,18
255,50	1230,83
255,71	1198,06
255,93	1284,08
256,15	1228,78
256,36	1277,93
256,58	1267,69
256,80	1261,55
257,02	1296,36
257,23	1282,03
257,45	1308,65
257,67	1271,79
257,88	1331,18
258,10	1220,59
258,32	1282,03
258,53	1298,41
258,75	1282,03
258,97	1320,94
259,18	1267,69
259,40	1390,57
259,62	1327,08
259,83	1284,08
260,05	1318,89
260,27	1247,21
260,48	1302,51
260,70	1286,12
260,92	1267,69
261,13	1286,12
261,35	1204,21
261,57	1245,16
261,78	1271,79
262,00	1224,69
262,22	1196,01
262,43	1286,12
262,65	1290,22
262,86	1218,54
263,08	1257,45
263,30	1249,26
263,51	1269,74
263,73	1279,98
263,95	1298,41
264,16	1220,59
264,38	1273,84
264,60	1259,50
264,81	1236,97
265,03	1247,21
265,25	1288,17
265,46	1302,51
265,68	1275,88
265,89	1298,41
266,11	1314,80
266,33	1239,02
266,54	1257,45
266,76	1236,97
266,98	1322,99
267,19	1271,79
267,41	1302,51
267,62	1306,60
267,84	1263,60
268,06	1302,51
268,27	1216,49
268,49	1282,03
268,70	1327,08
268,92	1269,74
269,14	1302,51
269,35	1337,32
269,57	1284,08
269,79	1294,32
270,00	1179,63
270,22	1294,32
270,43	1298,41
270,65	1263,60
270,87	1255,40
271,08	1226,73
271,30	1271,79
271,51	1271,79
271,73	1279,98
271,95	1308,65
272,16	1322,99
272,38	1396,71
272,59	1277,93
272,81	1290,22
273,02	1216,49
273,24	1277,93
273,46	1263,60
273,67	1230,83
273,89	1236,97
274,10	1288,17
274,32	1253,36
274,54	1279,98
274,75	1265,64
274,97	1306,60
275,18	1212,40
275,40	1255,40
275,61	1263,60
275,83	1345,52
276,05	1318,89
276,26	1275,88
276,48	1261,55
276,69	1279,98
276,91	1261,55
277,12	1312,75
277,34	1277,93
277,55	1230,83
277,77	1245,16
277,99	1216,49
278,20	1226,73
278,42	1304,56
278,63	1267,69
278,85	1269,74
279,06	1263,60
279,28	1308,65
279,49	1275,88
279,71	1214,45
279,93	1202,16
280,14	1282,03
280,36	1214,45
280,57	1325,04
280,79	1310,70
281,00	1253,36
281,22	1275,88
281,43	1224,69
281,65	1232,88
281,86	1349,61
282,08	1171,44
282,29	1298,41
282,51	1263,60
282,73	1312,75
282,94	1239,02
283,16	1294,32
283,37	1277,93
283,59	1302,51
283,80	1173,49
284,02	1265,64
284,23	1247,21
284,45	1255,40
284,66	1218,54
284,88	1325,04
285,09	1290,22
285,31	1273,84
285,52	1261,55
285,74	1214,45
285,95	1249,26
286,17	1275,88
286,38	1288,17
286,60	1273,84
286,81	1296,36
287,03	1304,56
287,24	1259,50
287,46	1279,98
287,67	1222,64
287,89	1325,04
288,10	1263,60
288,32	1306,60
288,53	1232,88
288,75	1302,51
288,96	1263,60
289,18	1271,79
289,39	1200,11
289,61	1265,64
289,82	1230,83
290,04	1282,03
290,25	1243,12
290,47	1304,56
290,68	1263,60
290,90	1269,74
291,11	1304,56
291,33	1331,18
291,54	1204,21
291,76	1363,95
291,97	1273,84
292,18	1290,22
292,40	1259,50
292,61	1230,83
292,83	1275,88
293,04	1290,22
293,26	1290,22
293,47	1292,27
293,69	1239,02
293,90	1304,56
294,12	1286,12
294,33	1288,17
294,55	1275,88
294,76	1288,17
294,97	1288,17
295,19	1341,42
295,40	1300,46
295,62	1228,78
295,83	1222,64
296,05	1189,87
296,26	1265,64
296,48	1304,56
296,69	1288,17
296,90	1310,70
297,12	1294,32
297,33	1288,17
297,55	1286,12
297,76	1230,83
297,98	1306,60
298,19	1310,70
298,41	1269,74
298,62	1224,69
298,83	1282,03
299,05	1208,30
299,26	1292,27
299,48	1288,17
299,69	1239,02
299,90	1218,54
300,12	1279,98
300,33	1230,83
300,55	1279,98
300,76	1277,93
300,98	1277,93
301,19	1224,69
301,40	1255,40
301,62	1247,21
301,83	1198,06
302,05	1239,02
302,26	1269,74
302,47	1366,00
302,69	1322,99
302,90	1271,79
303,12	1363,95
303,33	1290,22
303,54	1339,37
303,76	1216,49
303,97	1230,83
304,19	1216,49
304,40	1214,45
304,61	1196,01
304,83	1306,60
305,04	1335,28
305,26	1302,51
305,47	1335,28
305,68	1236,97
305,90	1198,06
306,11	1191,92
306,33	1265,64
306,54	1292,27
306,75	1284,08
306,97	1251,31
307,18	1222,64
307,39	1273,84
307,61	1251,31
307,82	1314,80
308,04	1241,07
308,25	1257,45
308,46	1298,41
308,68	1269,74
308,89	1224,69
309,10	1263,60
309,32	1333,23
309,53	1216,49
309,74	1232,88
309,96	1255,40
310,17	1220,59
310,39	1232,88
310,60	1277,93
310,81	1290,22
311,03	1165,29
311,24	1239,02
311,45	1298,41
311,67	1271,79
311,88	1361,90
312,09	1282,03
312,31	1208,30
312,52	1236,97
312,73	1273,84
312,95	1261,55
313,16	1310,70
313,37	1216,49
313,59	1322,99
313,80	1300,46
314,01	1298,41
314,23	1193,97
314,44	1284,08
314,65	1267,69
314,87	1290,22
315,08	1279,98
315,29	1277,93
315,51	1224,69
315,72	1312,75
315,93	1228,78
316,15	1271,79
316,36	1245,16
316,57	1300,46
316,79	1275,88
317,00	1345,52
317,21	1277,93
317,43	1298,41
317,64	1255,40
317,85	1282,03
318,07	1239,02
318,28	1284,08
318,49	1234,93
318,70	1318,89
318,92	1308,65
319,13	1239,02
319,34	1253,36
319,56	1251,31
319,77	1232,88
319,98	1234,93
320,20	1300,46
320,41	1282,03
320,62	1337,32
320,83	1232,88
321,05	1253,36
321,26	1271,79
321,47	1230,83
321,69	1210,35
321,90	1286,12
322,11	1279,98
322,32	1294,32
322,54	1261,55
322,75	1286,12
322,96	1302,51
323,18	1261,55
323,39	1273,84
323,60	1314,80
323,81	1222,64
324,03	1271,79
324,24	1255,40
324,45	1314,80
324,66	1265,64
324,88	1282,03
325,09	1312,75
325,30	1259,50
325,52	1267,69
325,73	1273,84
325,94	1253,36
326,15	1292,27
326,37	1214,45
326,58	1236,97
326,79	1331,18
327,00	1236,97
327,22	1255,40
327,43	1282,03
327,64	1318,89
327,85	1265,64
328,07	1304,56
328,28	1322,99
328,49	1298,41
328,70	1277,93
328,92	1316,84
329,13	1255,40
329,34	1265,64
329,55	1245,16
329,76	1333,23
329,98	1312,75
330,19	1355,76
330,40	1329,13
330,61	1224,69
330,83	1224,69
331,04	1267,69
331,25	1275,88
331,46	1204,21
331,68	1251,31
331,89	1298,41
332,10	1241,07
332,31	1263,60
332,52	1282,03
332,74	1232,88
332,95	1263,60
333,16	1191,92
333,37	1183,73
333,58	1230,83
333,80	1292,27
334,01	1316,84
334,22	1263,60
334,43	1259,50
334,64	1169,39
334,86	1261,55
335,07	1257,45
335,28	1292,27
335,49	1210,35
335,70	1292,27
335,92	1302,51
336,13	1308,65
336,34	1312,75
336,55	1331,18
336,76	1232,88
336,98	1253,36
337,19	1220,59
337,40	1249,26
337,61	1273,84
337,82	1298,41
338,04	1312,75
338,25	1282,03
338,46	1325,04
338,67	1232,88
338,88	1220,59
339,09	1282,03
339,31	1275,88
339,52	1269,74
339,73	1216,49
339,94	1265,64
340,15	1302,51
340,36	1239,02
340,58	1294,32
340,79	1300,46
341,00	1208,30
341,21	1359,85
341,42	1279,98
341,63	1294,32
341,85	1241,07
342,06	1265,64
342,27	1228,78
342,48	1247,21
342,69	1187,82
342,90	1312,75
343,12	1253,36
343,33	1337,32
343,54	1212,40
343,75	1253,36
343,96	1189,87
344,17	1241,07
344,38	1288,17
344,60	1222,64
344,81	1302,51
345,02	1331,18
345,23	1294,32
345,44	1312,75
345,65	1228,78
345,86	1218,54
346,07	1312,75
346,29	1265,64
346,50	1345,52
346,71	1230,83
346,92	1259,50
347,13	1300,46
347,34	1261,55
347,55	1296,36
347,76	1302,51
347,98	1265,64
348,19	1224,69
348,40	1322,99
348,61	1241,07
348,82	1337,32
349,03	1318,89
349,24	1279,98
349,45	1322,99
349,66	1187,82
349,88	1257,45
350,09	1329,13
350,30	1288,17
350,51	1249,26
350,72	1310,70
350,93	1189,87
351,14	1257,45
351,35	1290,22
351,56	1345,52
351,77	1302,51
351,99	1314,80
352,20	1181,68
352,41	1257,45
352,62	1251,31
352,83	1259,50
353,04	1306,60
353,25	1304,56
353,46	1320,94
353,67	1286,12
353,88	1220,59
354,09	1214,45
354,30	1314,80
354,52	1230,83
354,73	1345,52
354,94	1224,69
355,15	1286,12
355,36	1277,93
355,57	1269,74
355,78	1208,30
355,99	1249,26
356,20	1202,16
356,41	1300,46
356,62	1282,03
356,83	1300,46
357,04	1230,83
357,25	1288,17
357,46	1288,17
357,68	1308,65
357,89	1253,36
358,10	1273,84
358,31	1316,84
358,52	1249,26
358,73	1282,03
358,94	1349,61
359,15	1232,88
359,36	1257,45
359,57	1302,51
359,78	1312,75
359,99	1239,02
360,20	1247,21
360,41	1290,22
360,62	1212,40
360,83	1296,36
361,04	1245,16
361,25	1179,63
361,46	1239,02
361,67	1228,78
361,88	1269,74
362,09	1243,12
362,30	1320,94
362,51	1298,41
362,72	1298,41
362,93	1247,21
363,14	1271,79
363,35	1318,89
363,56	1275,88
363,78	1318,89
363,99	1302,51
364,20	1275,88
364,41	1216,49
364,62	1284,08
364,83	1257,45
365,04	1349,61
365,25	1255,40
365,46	1277,93
365,67	1310,70
365,88	1298,41
366,09	1273,84
366,30	1322,99
366,51	1257,45
366,72	1245,16
366,93	1294,32
367,14	1247,21
367,35	1322,99
367,56	1263,60
367,77	1296,36
367,98	1290,22
368,18	1298,41
368,39	1314,80
368,60	1296,36
368,81	1355,76
369,02	1286,12
369,23	1228,78
369,44	1304,56
369,65	1251,31
369,86	1306,60
370,07	1187,82
370,28	1265,64
370,49	1304,56
370,70	1243,12
370,91	1320,94
371,12	1261,55
371,33	1265,64
371,54	1198,06
371,75	1263,60
371,96	1226,73
372,17	1312,75
372,38	1263,60
372,59	1224,69
372,80	1286,12
373,01	1279,98
373,22	1273,84
373,43	1302,51
373,64	1271,79
373,85	1349,61
374,06	1327,08
374,26	1269,74
374,47	1347,56
374,68	1241,07
374,89	1304,56
375,10	1249,26
375,31	1277,93
375,52	1239,02
375,73	1251,31
375,94	1286,12
376,15	1298,41
376,36	1259,50
376,57	1249,26
376,78	1302,51
376,99	1243,12
377,20	1302,51
377,40	1236,97
377,61	1187,82
377,82	1257,45
378,03	1208,30
378,24	1234,93
378,45	1218,54
378,66	1275,88
378,87	1271,79
379,08	1275,88
379,29	1312,75
379,50	1273,84
379,71	1286,12
379,91	1175,53
380,12	1314,80
380,33	1269,74
380,54	1316,84
380,75	1282,03
380,96	1304,56
381,17	1218,54
381,38	1269,74
381,59	1212,40
381,80	1279,98
382,00	1259,50
382,21	1279,98
382,42	1292,27
382,63	1290,22
382,84	1290,22
383,05	1183,73
383,26	1212,40
383,47	1284,08
383,68	1265,64
383,88	1247,21
384,09	1279,98
384,30	1239,02
384,51	1228,78
384,72	1269,74
384,93	1234,93
385,14	1241,07
385,35	1298,41
385,55	1269,74
385,76	1249,26
385,97	1243,12
386,18	1239,02
386,39	1277,93
386,60	1216,49
386,81	1234,93
387,02	1249,26
387,22	1185,77
387,43	1284,08
387,64	1232,88
387,85	1257,45
388,06	1314,80
388,27	1372,14
388,48	1304,56
388,68	1257,45
388,89	1339,37
389,10	1304,56
389,31	1290,22
389,52	1345,52
389,73	1263,60
389,93	1208,30
390,14	1255,40
390,35	1300,46
390,56	1304,56
390,77	1263,60
390,98	1236,97
391,18	1304,56
391,39	1255,40
391,60	1312,75
391,81	1253,36
392,02	1245,16
392,23	1234,93
392,43	1257,45
392,64	1210,35
392,85	1314,80
393,06	1234,93
393,27	1275,88
393,47	1306,60
393,68	1331,18
393,89	1322,99
394,10	1298,41
394,31	1304,56
394,52	1316,84
394,72	1273,84
394,93	1257,45
395,14	1255,40
395,35	1228,78
395,56	1282,03
395,76	1302,51
395,97	1322,99
396,18	1314,80
396,39	1224,69
396,60	1300,46
396,80	1181,68
397,01	1279,98
397,22	1296,36
397,43	1277,93
397,64	1247,21
397,84	1220,59
398,05	1273,84
398,26	1232,88
398,47	1347,56
398,67	1245,16
398,88	1318,89
399,09	1257,45
399,30	1331,18
399,51	1245,16
399,71	1314,80
399,92	1224,69
400,13	1296,36
400,34	1327,08
400,54	1325,04
400,75	1226,73
400,96	1216,49
401,17	1212,40
401,37	1304,56
401,58	1267,69
401,79	1322,99
402,00	1224,69
402,21	1236,97
402,41	1269,74
402,62	1298,41
402,83	1275,88
403,04	1243,12
403,24	1296,36
403,45	1251,31
403,66	1265,64
403,87	1230,83
404,07	1247,21
404,28	1282,03
404,49	1257,45
404,70	1230,83
404,90	1198,06
405,11	1335,28
405,32	1310,70
405,52	1220,59
405,73	1312,75
405,94	1232,88
406,15	1261,55
406,35	1198,06
406,56	1236,97
406,77	1251,31
406,98	1249,26
407,18	1271,79
407,39	1239,02
407,60	1251,31
407,80	1239,02
408,01	1261,55
408,22	1296,36
408,43	1275,88
408,63	1282,03
408,84	1273,84
409,05	1279,98
409,25	1224,69
409,46	1257,45
409,67	1228,78
409,88	1251,31
410,08	1230,83
410,29	1271,79
410,50	1333,23
410,70	1175,53
410,91	1257,45
411,12	1265,64
411,32	1261,55
411,53	1304,56
411,74	1257,45
411,95	1206,25
412,15	1198,06
412,36	1265,64
412,57	1275,88
412,77	1312,75
412,98	1261,55
413,19	1255,40
413,39	1265,64
413,60	1234,93
413,81	1259,50
414,01	1298,41
414,22	1310,70
414,43	1214,45
414,63	1347,56
414,84	1310,70
415,05	1265,64
415,25	1296,36
415,46	1251,31
415,67	1241,07
415,87	1245,16
416,08	1234,93
416,29	1279,98
416,49	1279,98
416,70	1322,99
416,91	1251,31
417,11	1277,93
417,32	1294,32
417,53	1275,88
417,73	1263,60
417,94	1241,07
418,15	1304,56
418,35	1279,98
418,56	1245,16
418,77	1282,03
418,97	1318,89
419,18	1273,84
419,38	1183,73
419,59	1265,64
419,80	1294,32
420,00	1226,73
420,21	1277,93
420,42	1204,21
420,62	1359,85
420,83	1230,83
421,04	1224,69
421,24	1257,45
421,45	1335,28
421,65	1273,84
421,86	1228,78
422,07	1314,80
422,27	1239,02
422,48	1253,36
422,69	1230,83
422,89	1228,78
423,10	1380,33
423,30	1245,16
423,51	1271,79
423,72	1251,31
423,92	1300,46
424,13	1298,41
424,33	1216,49
424,54	1325,04
424,75	1306,60
424,95	1273,84
425,16	1261,55
425,36	1298,41
425,57	1232,88
425,78	1216,49
425,98	1239,02
426,19	1304,56
426,39	1236,97
426,60	1363,95
426,81	1230,83
427,01	1265,64
427,22	1263,60
427,42	1247,21
427,63	1304,56
427,83	1220,59
428,04	1261,55
428,25	1253,36
428,45	1249,26
428,66	1247,21
428,86	1267,69
429,07	1273,84
429,28	1241,07
429,48	1234,93
429,69	1265,64
429,89	1275,88
430,10	1320,94
430,30	1304,56
430,51	1282,03
430,71	1288,17
430,92	1302,51
431,13	1316,84
431,33	1255,40
431,54	1200,11
431,74	1267,69
431,95	1243,12
432,15	1294,32
432,36	1241,07
432,56	1310,70
432,77	1269,74
432,98	1277,93
433,18	1259,50
433,39	1218,54
433,59	1277,93
433,80	1300,46
434,00	1335,28
434,21	1255,40
434,41	1255,40
434,62	1267,69
434,82	1279,98
435,03	1236,97
435,23	1282,03
435,44	1261,55
435,64	1271,79
435,85	1302,51
436,06	1261,55
436,26	1226,73
436,47	1241,07
436,67	1284,08
436,88	1284,08
437,08	1308,65
437,29	1282,03
437,49	1249,26
437,70	1333,23
437,90	1316,84
438,11	1282,03
438,31	1247,21
438,52	1300,46
438,72	1228,78
438,93	1257,45
439,13	1316,84
439,34	1249,26
439,54	1255,40
439,75	1351,66
439,95	1236,97
440,16	1259,50
440,36	1320,94
440,57	1290,22
440,77	1263,60
440,98	1284,08
441,18	1249,26
441,39	1294,32
441,59	1261,55
441,80	1302,51
442,00	1241,07
442,21	1198,06
442,41	1284,08
442,62	1245,16
442,82	1294,32
443,02	1243,12
443,23	1302,51
443,43	1296,36
443,64	1255,40
443,84	1284,08
444,05	1263,60
444,25	1247,21
444,46	1230,83
444,66	1175,53
444,87	1275,88
445,07	1259,50
445,28	1259,50
445,48	1279,98
445,69	1290,22
445,89	1316,84
446,09	1286,12
446,30	1239,02
446,50	1265,64
446,71	1277,93
446,91	1322,99
447,12	1247,21
447,32	1265,64
447,53	1222,64
447,73	1269,74
447,93	1282,03
448,14	1290,22
448,34	1322,99
448,55	1255,40
448,75	1251,31
448,96	1312,75
449,16	1232,88
449,36	1298,41
449,57	1296,36
449,77	1275,88
449,98	1249,26
450,18	1261,55
450,39	1351,66
450,59	1337,32
450,79	1173,49
451,00	1290,22
451,20	1234,93
451,41	1259,50
451,61	1239,02
451,81	1155,05
452,02	1226,73
452,22	1292,27
452,43	1247,21
452,63	1239,02
452,84	1255,40
453,04	1263,60
453,24	1361,90
453,45	1245,16
453,65	1298,41
453,86	1216,49
454,06	1212,40
454,26	1316,84
454,47	1329,13
454,67	1228,78
454,87	1310,70
455,08	1275,88
455,28	1247,21
455,49	1257,45
455,69	1296,36
455,89	1296,36
456,10	1282,03
456,30	1214,45
456,51	1261,55
456,71	1284,08
456,91	1275,88
457,12	1249,26
457,32	1300,46
457,52	1204,21
457,73	1257,45
457,93	1310,70
458,14	1302,51
458,34	1335,28
458,54	1245,16
458,75	1296,36
458,95	1318,89
459,15	1286,12
459,36	1150,96
459,56	1335,28
459,76	1290,22
459,97	1333,23
460,17	1353,71
460,37	1275,88
460,58	1292,27
460,78	1259,50
460,99	1259,50
461,19	1335,28
461,39	1216,49
461,60	1261,55
461,80	1230,83
462,00	1155,05
462,21	1275,88
462,41	1279,98
462,61	1216,49
462,82	1243,12
463,02	1267,69
463,22	1329,13
463,43	1288,17
463,63	1222,64
463,83	1279,98
464,04	1331,18
464,24	1267,69
464,44	1208,30
464,64	1312,75
464,85	1298,41
465,05	1243,12
465,25	1212,40
465,46	1241,07
465,66	1298,41
465,86	1322,99
466,07	1312,75
466,27	1275,88
466,47	1212,40
466,68	1257,45
466,88	1320,94
467,08	1335,28
467,29	1261,55
467,49	1294,32
467,69	1210,35
467,89	1284,08
468,10	1261,55
468,30	1296,36
468,50	1322,99
468,71	1214,45
468,91	1236,97
469,11	1189,87
469,31	1288,17
469,52	1259,50
469,72	1290,22
469,92	1279,98
470,13	1163,25
470,33	1361,90
470,53	1331,18
470,73	1284,08
470,94	1239,02
471,14	1208,30
471,34	1228,78
471,54	1245,16
471,75	1216,49
471,95	1253,36
472,15	1275,88
472,36	1331,18
472,56	1357,80
472,76	1337,32
472,96	1271,79
473,17	1277,93
473,37	1247,21
473,57	1257,45
473,77	1325,04
473,98	1275,88
474,18	1339,37
474,38	1284,08
474,58	1259,50
474,79	1294,32
474,99	1320,94
475,19	1255,40
475,39	1271,79
475,60	1353,71
475,80	1331,18
476,00	1214,45
476,20	1349,61
476,41	1290,22
476,61	1206,25
476,81	1306,60
477,01	1284,08
477,21	1267,69
477,42	1249,26
477,62	1341,42
477,82	1236,97
478,02	1234,93
478,23	1243,12
478,43	1253,36
478,63	1310,70
478,83	1255,40
479,03	1183,73
479,24	1279,98
479,44	1273,84
479,64	1218,54
479,84	1296,36
480,04	1146,86
480,25	1269,74
480,45	1349,61
480,65	1257,45
480,85	1261,55
481,06	1241,07
481,26	1245,16
481,46	1310,70
481,66	1341,42
481,86	1269,74
482,06	1277,93
482,27	1241,07
482,47	1261,55
482,67	1239,02
482,87	1269,74
483,07	1294,32
483,28	1212,40
483,48	1282,03
483,68	1308,65
483,88	1179,63
484,08	1288,17
484,29	1320,94
484,49	1228,78
484,69	1306,60
484,89	1277,93
485,09	1282,03
485,29	1220,59
485,50	1239,02
485,70	1212,40
485,90	1230,83
486,10	1239,02
486,30	1218,54
486,50	1386,47
486,71	1232,88
486,91	1245,16
487,11	1320,94
487,31	1241,07
487,51	1220,59
487,71	1290,22
487,91	1286,12
488,12	1316,84
488,32	1267,69
488,52	1316,84
488,72	1288,17
488,92	1273,84
489,12	1263,60
489,32	1247,21
489,53	1241,07
489,73	1286,12
489,93	1259,50
490,13	1247,21
490,33	1261,55
490,53	1251,31
490,73	1329,13
490,94	1282,03
491,14	1282,03
491,34	1243,12
491,54	1292,27
491,74	1275,88
491,94	1308,65
492,14	1275,88
492,34	1271,79
492,54	1263,60
492,75	1318,89
492,95	1257,45
493,15	1282,03
493,35	1288,17
493,55	1275,88
493,75	1249,26
493,95	1288,17
494,15	1318,89
494,35	1241,07
494,56	1259,50
494,76	1214,45
494,96	1343,47
495,16	1253,36
495,36	1294,32
495,56	1288,17
495,76	1243,12
495,96	1320,94
496,16	1198,06
496,36	1308,65
496,56	1185,77
496,77	1347,56
496,97	1218,54
497,17	1421,29
497,37	1222,64
497,57	1343,47
497,77	1294,32
497,97	1218,54
498,17	1263,60
498,37	1275,88
498,57	1265,64
498,77	1302,51
498,97	1277,93
499,17	1341,42
499,38	1239,02
499,58	1298,41
499,78	1271,79
499,98	1257,45
500,18	1259,50
500,38	1216,49
500,58	1271,79
500,78	1247,21
500,98	1298,41
501,18	1277,93
501,38	1312,75
501,58	1269,74
501,78	1368,04
501,98	1343,47
502,18	1296,36
502,38	1292,27
502,58	1265,64
502,78	1239,02
502,98	1251,31
503,18	1222,64
503,38	1314,80
503,59	1257,45
503,79	1337,32
503,99	1302,51
504,19	1249,26
504,39	1220,59
504,59	1322,99
504,79	1333,23
504,99	1341,42
505,19	1236,97
505,39	1261,55
505,59	1361,90
505,79	1214,45
505,99	1316,84
506,19	1255,40
506,39	1302,51
506,59	1286,12
506,79	1269,74
506,99	1228,78
507,19	1196,01
507,39	1265,64
507,59	1298,41
507,79	1255,40
507,99	1296,36
508,19	1298,41
508,39	1241,07
508,59	1230,83
508,79	1304,56
508,99	1382,38
509,19	1218,54
509,39	1302,51
509,59	1259,50
509,79	1351,66
509,99	1312,75
510,19	1241,07
510,39	1308,65
510,59	1273,84
510,79	1308,65
510,99	1259,50
511,19	1320,94
511,39	1247,21
511,59	1322,99
511,79	1251,31
511,99	1259,50
512,19	1318,89
512,38	1247,21
512,58	1292,27
512,78	1339,37
512,98	1275,88
513,18	1191,92
513,38	1214,45
513,58	1288,17
513,78	1218,54
513,98	1312,75
514,18	1228,78
514,38	1265,64
514,58	1228,78
514,78	1243,12
514,98	1277,93
515,18	1275,88
515,38	1243,12
515,58	1300,46
515,78	1286,12
515,98	1341,42
516,18	1341,42
516,38	1259,50
516,57	1286,12
516,77	1288,17
516,97	1241,07
517,17	1255,40
517,37	1257,45
517,57	1325,04
517,77	1273,84
517,97	1251,31
518,17	1265,64
518,37	1335,28
518,57	1282,03
518,77	1216,49
518,97	1335,28
519,16	1271,79
519,36	1320,94
519,56	1259,50
519,76	1261,55
519,96	1298,41
520,16	1302,51
520,36	1310,70
520,56	1286,12
520,76	1253,36
520,96	1247,21
521,16	1329,13
521,35	1288,17
521,55	1253,36
521,75	1263,60
521,95	1320,94
522,15	1255,40
522,35	1226,73
522,55	1241,07
522,75	1224,69
522,95	1249,26
523,14	1208,30
523,34	1236,97
523,54	1318,89
523,74	1279,98
523,94	1318,89
524,14	1282,03
524,34	1341,42
524,54	1249,26
524,73	1249,26
524,93	1216,49
525,13	1253,36
525,33	1292,27
525,53	1304,56
525,73	1284,08
525,93	1255,40
526,13	1320,94
526,32	1271,79
526,52	1249,26
526,72	1222,64
526,92	1320,94
527,12	1196,01
527,32	1243,12
527,52	1294,32
527,71	1275,88
527,91	1202,16
528,11	1312,75
528,31	1249,26
528,51	1265,64
528,71	1279,98
528,90	1282,03
529,10	1290,22
529,30	1236,97
529,50	1150,96
529,70	1263,60
529,90	1282,03
530,09	1279,98
530,29	1232,88
530,49	1236,97
530,69	1292,27
530,89	1302,51
531,09	1265,64
531,28	1228,78
531,48	1226,73
531,68	1292,27
531,88	1329,13
532,08	1208,30
532,28	1269,74
532,47	1322,99
532,67	1255,40
532,87	1296,36
533,07	1206,25
533,27	1282,03
533,46	1245,16
533,66	1286,12
533,86	1341,42
534,06	1228,78
534,26	1288,17
534,45	1269,74
534,65	1329,13
534,85	1286,12
535,05	1245,16
535,25	1277,93
535,44	1245,16
535,64	1314,80
535,84	1312,75
536,04	1239,02
536,24	1263,60
536,43	1304,56
536,63	1228,78
536,83	1261,55
537,03	1263,60
537,22	1273,84
537,42	1247,21
537,62	1261,55
537,82	1296,36
538,02	1239,02
538,21	1251,31
538,41	1322,99
538,61	1259,50
538,81	1265,64
539,00	1214,45
539,20	1318,89
539,40	1245,16
539,60	1294,32
539,79	1310,70
539,99	1230,83
540,19	1292,27
540,39	1273,84
540,58	1265,64
540,78	1224,69
540,98	1331,18
541,18	1265,64
541,37	1329,13
541,57	1302,51
541,77	1294,32
541,97	1196,01
542,16	1290,22
542,36	1255,40
542,56	1236,97
542,76	1224,69
542,95	1282,03
543,15	1257,45
543,35	1267,69
543,54	1318,89
543,74	1200,11
543,94	1275,88
544,14	1290,22
544,33	1335,28
544,53	1216,49
544,73	1261,55
544,93	1259,50
545,12	1320,94
545,32	1265,64
545,52	1224,69
545,71	1290,22
545,91	1316,84
546,11	1304,56
546,30	1251,31
546,50	1277,93
546,70	1279,98
546,90	1259,50
547,09	1239,02
547,29	1322,99
547,49	1343,47
547,68	1363,95
547,88	1308,65
548,08	1333,23
548,27	1245,16
548,47	1255,40
548,67	1210,35
548,87	1273,84
549,06	1277,93
549,26	1271,79
549,46	1204,21
549,65	1282,03
549,85	1322,99
550,05	1325,04
550,24	1245,16
550,44	1337,32
550,64	1267,69
550,83	1259,50
551,03	1257,45
551,23	1239,02
551,42	1331,18
551,62	1290,22
551,82	1249,26
552,01	1263,60
552,21	1316,84
552,41	1216,49
552,60	1304,56
552,80	1265,64
553,00	1355,76
553,19	1279,98
553,39	1269,74
553,59	1271,79
553,78	1193,97
553,98	1214,45
554,17	1259,50
554,37	1265,64
554,57	1259,50
554,76	1298,41
554,96	1241,07
555,16	1361,90
555,35	1259,50
555,55	1245,16
555,75	1234,93
555,94	1361,90
556,14	1265,64
556,33	1269,74
556,53	1249,26
556,73	1292,27
556,92	1314,80
557,12	1261,55
557,32	1314,80
557,51	1277,93
557,71	1261,55
557,90	1296,36
558,10	1257,45
558,30	1325,04
558,49	1316,84
558,69	1277,93
558,88	1171,44
559,08	1222,64
559,28	1269,74
559,47	1261,55
559,67	1196,01
559,86	1269,74
560,06	1202,16
560,26	1222,64
560,45	1208,30
560,65	1298,41
560,84	1282,03
561,04	1236,97
561,24	1288,17
561,43	1290,22
561,63	1292,27
561,82	1267,69
562,02	1329,13
562,22	1265,64
562,41	1341,42
562,61	1273,84
562,80	1314,80
563,00	1251,31
563,19	1261,55
563,39	1236,97
563,59	1243,12
563,78	1214,45
563,98	1247,21
564,17	1320,94
564,37	1290,22
564,56	1245,16
564,76	1282,03
564,96	1292,27
565,15	1318,89
565,35	1304,56
565,54	1193,97
565,74	1279,98
565,93	1275,88
566,13	1361,90
566,32	1226,73
566,52	1265,64
566,71	1320,94
566,91	1226,73
567,11	1241,07
567,30	1296,36
567,50	1277,93
567,69	1310,70
567,89	1241,07
568,08	1247,21
568,28	1259,50
568,47	1241,07
568,67	1288,17
568,86	1318,89
569,06	1269,74
569,25	1290,22
569,45	1210,35
569,64	1206,25
569,84	1329,13
570,04	1282,03
570,23	1282,03
570,43	1329,13
570,62	1167,34
570,82	1329,13
571,01	1300,46
571,21	1245,16
571,40	1257,45
571,60	1277,93
571,79	1269,74
571,99	1279,98
572,18	1288,17
572,38	1286,12
572,57	1261,55
572,77	1269,74
572,96	1304,56
573,16	1234,93
573,35	1255,40
573,55	1228,78
573,74	1308,65
573,94	1298,41
574,13	1279,98
574,33	1312,75
574,52	1206,25
574,71	1263,60
574,91	1269,74
575,10	1226,73
575,30	1273,84
575,49	1226,73
575,69	1239,02
575,88	1247,21
576,08	1222,64
576,27	1253,36
576,47	1298,41
576,66	1277,93
576,86	1245,16
577,05	1249,26
577,25	1290,22
577,44	1279,98
577,64	1243,12
577,83	1241,07
578,02	1310,70
578,22	1261,55
578,41	1247,21
578,61	1267,69
578,80	1255,40
579,00	1236,97
579,19	1292,27
579,39	1345,52
579,58	1279,98
579,77	1247,21
579,97	1292,27
580,16	1208,30
580,36	1275,88
580,55	1198,06
580,75	1253,36
580,94	1265,64
581,13	1247,21
581,33	1277,93
581,52	1302,51
581,72	1208,30
581,91	1277,93
582,11	1236,97
582,30	1288,17
582,49	1263,60
582,69	1275,88
582,88	1259,50
583,08	1273,84
583,27	1251,31
583,47	1222,64
583,66	1226,73
583,85	1279,98
584,05	1255,40
584,24	1212,40
584,44	1222,64
584,63	1279,98
584,82	1210,35
585,02	1286,12
585,21	1314,80
585,41	1296,36
585,60	1243,12
585,79	1236,97
585,99	1279,98
586,18	1222,64
586,37	1322,99
586,57	1288,17
586,76	1239,02
586,96	1226,73
587,15	1292,27
587,34	1292,27
587,54	1265,64
587,73	1290,22
587,93	1347,56
588,12	1243,12
588,31	1249,26
588,51	1208,30
588,70	1279,98
588,89	1310,70
589,09	1308,65
589,28	1304,56
589,47	1300,46
589,67	1255,40
589,86	1273,84
590,06	1290,22
590,25	1277,93
590,44	1335,28
590,64	1265,64
590,83	1257,45
591,02	1275,88
591,22	1255,40
591,41	1308,65
591,60	1288,17
591,80	1292,27
591,99	1200,11
592,18	1247,21
592,38	1288,17
592,57	1298,41
592,76	1314,80
592,96	1329,13
593,15	1251,31
593,34	1372,14
593,54	1296,36
593,73	1286,12
593,92	1306,60
594,12	1322,99
594,31	1314,80
594,50	1271,79
594,70	1298,41
594,89	1239,02
595,08	1236,97
595,28	1232,88
595,47	1292,27
595,66	1257,45
595,86	1253,36
596,05	1236,97
596,24	1306,60
596,43	1236,97
596,63	1320,94
596,82	1318,89
597,01	1226,73
597,21	1257,45
597,40	1220,59
597,59	1269,74
597,79	1282,03
597,98	1200,11
598,17	1290,22
598,36	1202,16
598,56	1241,07
598,75	1409,00
598,94	1300,46
599,14	1226,73
599,33	1277,93
599,52	1294,32
599,71	1232,88
599,91	1259,50
600,10	1228,78
600,29	1257,45
600,48	1181,68
600,68	1259,50
600,87	1189,87
601,06	1304,56
601,26	1230,83
601,45	1249,26
601,64	1333,23
601,83	1363,95
602,03	1282,03
602,22	1239,02
602,41	1298,41
602,60	1331,18
602,80	1318,89
602,99	1286,12
603,18	1294,32
603,37	1273,84
603,57	1234,93
603,76	1226,73
603,95	1312,75
604,14	1279,98
604,34	1265,64
604,53	1257,45
604,72	1327,08
604,91	1241,07
605,10	1304,56
605,30	1228,78
605,49	1177,58
605,68	1308,65
605,87	1273,84
606,07	1279,98
606,26	1226,73
606,45	1298,41
606,64	1302,51
606,84	1255,40
607,03	1232,88
607,22	1277,93
607,41	1302,51
607,60	1267,69
607,80	1304,56
607,99	1279,98
608,18	1306,60
608,37	1263,60
608,56	1288,17
608,76	1255,40
608,95	1284,08
609,14	1290,22
609,33	1310,70
609,52	1306,60
609,72	1249,26
609,91	1290,22
610,10	1269,74
610,29	1290,22
610,48	1288,17
610,68	1263,60
610,87	1257,45
611,06	1220,59
611,25	1249,26
611,44	1304,56
611,63	1286,12
611,83	1257,45
612,02	1286,12
612,21	1251,31
612,40	1290,22
612,59	1279,98
612,79	1347,56
612,98	1232,88
613,17	1243,12
613,36	1318,89
613,55	1318,89
613,74	1239,02
613,93	1304,56
614,13	1269,74
614,32	1279,98
614,51	1257,45
614,70	1265,64
614,89	1271,79
615,08	1308,65
615,28	1329,13
615,47	1296,36
615,66	1290,22
615,85	1243,12
616,04	1343,47
616,23	1286,12
616,42	1343,47
616,62	1236,97
616,81	1265,64
617,00	1306,60
617,19	1269,74
617,38	1265,64
617,57	1288,17
617,76	1314,80
617,95	1179,63
618,15	1234,93
618,34	1243,12
618,53	1314,80
618,72	1282,03
618,91	1271,79
619,10	1331,18
619,29	1232,88
619,48	1245,16
619,68	1234,93
619,87	1306,60
620,06	1259,50
620,25	1290,22
620,44	1282,03
620,63	1245,16
620,82	1226,73
621,01	1277,93
621,20	1259,50
621,39	1263,60
621,59	1296,36
621,78	1327,08
621,97	1298,41
622,16	1269,74
622,35	1316,84
622,54	1228,78
622,73	1318,89
622,92	1304,56
623,11	1249,26
623,30	1339,37
623,49	1271,79
623,68	1333,23
623,88	1269,74
624,07	1306,60
624,26	1306,60
624,45	1349,61
624,64	1208,30
624,83	1232,88
625,02	1300,46
625,21	1302,51
625,40	1189,87
625,59	1288,17
625,78	1314,80
625,97	1294,32
626,16	1304,56
626,35	1279,98
626,54	1347,56
626,74	1196,01
626,93	1263,60
627,12	1251,31
627,31	1247,21
627,50	1259,50
627,69	1300,46
627,88	1333,23
628,07	1234,93
628,26	1230,83
628,45	1290,22
628,64	1247,21
628,83	1243,12
629,02	1214,45
629,21	1216,49
629,40	1300,46
629,59	1316,84
629,78	1286,12
629,97	1294,32
630,16	1288,17
630,35	1312,75
630,54	1271,79
630,73	1355,76
630,92	1273,84
631,11	1312,75
631,30	1290,22
631,49	1337,32
631,68	1441,77
631,87	2465,75
632,06	5359,53
632,25	8929,14
632,44	15918,86
632,63	26789,48
632,82	37590,47
633,01	22548,14
633,20	7964,55
633,39	4827,06
633,58	3504,07
633,77	2574,30
633,96	2263,01
634,15	2234,33
634,34	2197,47
634,53	2064,35
634,72	1886,18
634,91	1697,77
635,10	1802,21
635,29	1742,82
635,48	1679,33
635,67	1714,15
635,86	1552,36
636,05	1484,78
636,24	1490,92
636,43	1437,67
636,62	1417,19
636,81	1482,73
637,00	1392,62
637,19	1419,24
637,38	1392,62
637,57	1400,81
637,76	1368,04
637,95	1349,61
638,14	1320,94
638,33	1347,56
638,52	1359,85
638,71	1355,76
638,89	1320,94
639,08	1294,32
639,27	1275,88
639,46	1322,99
639,65	1290,22
639,84	1239,02
640,03	1335,28
640,22	1267,69
640,41	1288,17
640,60	1341,42
640,79	1275,88
640,98	1294,32
641,17	1247,21
641,36	1320,94
641,55	1249,26
641,74	1298,41
641,92	1327,08
642,11	1273,84
642,30	1277,93
642,49	1216,49
642,68	1294,32
642,87	1279,98
643,06	1245,16
643,25	1290,22
643,44	1263,60
643,63	1300,46
643,82	1343,47
644,00	1333,23
644,19	1357,80
644,38	1224,69
644,57	1290,22
644,76	1296,36
644,95	1273,84
645,14	1230,83
645,33	1325,04
645,52	1247,21
645,71	1296,36
645,89	1325,04
646,08	1273,84
646,27	1292,27
646,46	1249,26
646,65	1218,54
646,84	1290,22
647,03	1196,01
647,22	1288,17
647,40	1247,21
647,59	1296,36
647,78	1306,60
647,97	1241,07
648,16	1290,22
648,35	1265,64
648,54	1271,79
648,73	1308,65
648,91	1304,56
649,10	1296,36
649,29	1331,18
649,48	1222,64
649,67	1265,64
649,86	1277,93
650,05	1322,99
650,23	1253,36
650,42	1255,40
650,61	1273,84
650,80	1302,51
650,99	1288,17
651,18	1294,32
651,36	1273,84
651,55	1306,60
651,74	1271,79
651,93	1202,16
652,12	1288,17
652,31	1322,99
652,49	1286,12
652,68	1310,70
652,87	1290,22
653,06	1273,84
653,25	1245,16
653,44	1314,80
653,62	1325,04
653,81	1273,84
654,00	1273,84
654,19	1282,03
654,38	1279,98
654,56	1269,74
654,75	1329,13
654,94	1359,85
655,13	1290,22
655,32	1255,40
655,51	1236,97
655,69	1333,23
655,88	1286,12
656,07	1316,84
656,26	1286,12
656,45	1259,50
656,63	1257,45
656,82	1357,80
657,01	1306,60
657,20	1294,32
657,38	1296,36
657,57	1298,41
657,76	1175,53
657,95	1290,22
658,14	1232,88
658,32	1288,17
658,51	1294,32
658,70	1286,12
658,89	1269,74
659,08	1308,65
659,26	1284,08
659,45	1263,60
659,64	1345,52
659,83	1224,69
660,01	1249,26
660,20	1279,98
660,39	1277,93
660,58	1294,32
660,76	1288,17
660,95	1302,51
661,14	1265,64
661,33	1232,88
661,51	1316,84
661,70	1310,70
661,89	1261,55
662,08	1241,07
662,26	1343,47
662,45	1271,79
662,64	1181,68
662,83	1288,17
663,01	1314,80
663,20	1304,56
663,39	1202,16
663,58	1239,02
663,76	1279,98
663,95	1191,92
664,14	1271,79
664,32	1259,50
664,51	1271,79
664,70	1327,08
664,89	1220,59
665,07	1171,44
665,26	1273,84
665,45	1255,40
665,64	1267,69
665,82	1304,56
666,01	1294,32
666,20	1284,08
666,38	1228,78
666,57	1284,08
666,76	1376,24
666,95	1282,03
667,13	1288,17
667,32	1265,64
667,51	1316,84
667,69	1271,79
667,88	1257,45
668,07	1241,07
668,25	1275,88
668,44	1288,17
668,63	1282,03
668,81	1257,45
669,00	1275,88
669,19	1243,12
669,38	1245,16
669,56	1277,93
669,75	1288,17
669,94	1322,99
670,12	1263,60
670,31	1361,90
670,50	1273,84
670,68	1165,29
670,87	1138,67
671,06	1292,27
671,24	1218,54
671,43	1304,56
671,62	1288,17
671,80	1292,27
671,99	1222,64
672,18	1290,22
672,36	1306,60
672,55	1277,93
672,74	1265,64
672,92	1251,31
673,11	1241,07
673,29	1269,74
673,48	1288,17
673,67	1243,12
673,85	1290,22
674,04	1257,45
674,23	1357,80
674,41	1322,99
674,60	1277,93
674,79	1292,27
674,97	1236,97
675,16	1153,01
675,34	1331,18
675,53	1282,03
675,72	1294,32
675,90	1269,74
676,09	1343,47
676,28	1257,45
676,46	1302,51
676,65	1181,68
676,83	1271,79
677,02	1306,60
677,21	1308,65
677,39	1214,45
677,58	1255,40
677,77	1257,45
677,95	1347,56
678,14	1273,84
678,32	1273,84
678,51	1286,12
678,70	1296,36
678,88	1249,26
679,07	1306,60
679,25	1255,40
679,44	1277,93
679,63	1282,03
679,81	1228,78
680,00	1249,26
680,18	1286,12
680,37	1273,84
680,55	1253,36
680,74	1306,60
680,93	1306,60
681,11	1220,59
681,30	1294,32
681,48	1277,93
681,67	1259,50
681,85	1241,07
682,04	1255,40
682,23	1345,52
682,41	1325,04
682,60	1269,74
682,78	1290,22
682,97	1230,83
683,15	1267,69
683,34	1261,55
683,53	1271,79
683,71	1271,79
683,90	1300,46
684,08	1273,84
684,27	1357,80
684,45	1249,26
684,64	1294,32
684,82	1294,32
685,01	1288,17
685,19	1282,03
685,38	1279,98
685,57	1302,51
685,75	1269,74
685,94	1302,51
686,12	1273,84
686,31	1284,08
686,49	1234,93
686,68	1269,74
686,86	1284,08
687,05	1294,32
687,23	1247,21
687,42	1224,69
687,60	1366,00
687,79	1236,97
687,97	1294,32
688,16	1273,84
688,34	1241,07
688,53	1239,02
688,71	1294,32
688,90	1279,98
689,08	1267,69
689,27	1263,60
689,45	1251,31
689,64	1286,12
689,82	1288,17
690,01	1279,98
690,19	1302,51
690,38	1314,80
690,56	1302,51
690,75	1286,12
690,93	1241,07
691,12	1243,12
691,30	1241,07
691,49	1271,79
691,67	1224,69
691,86	1232,88
692,04	1257,45
692,23	1218,54
692,41	1247,21
692,60	1255,40
692,78	1255,40
692,97	1253,36
693,15	1204,21
693,34	1243,12
693,52	1265,64
693,71	1218,54
693,89	1239,02
694,08	1277,93
694,26	1277,93
694,44	1253,36
694,63	1255,40
694,81	1208,30
695,00	1253,36
695,18	1249,26
695,37	1239,02
695,55	1290,22
695,74	1273,84
695,92	1216,49
696,10	1288,17
696,29	1273,84
696,47	1302,51
696,66	1216,49
696,84	1204,21
697,03	1247,21
697,21	1259,50
697,40	1325,04
697,58	1353,71
697,76	1318,89
697,95	1259,50
698,13	1255,40
698,32	1314,80
698,50	1210,35
698,68	1318,89
698,87	1279,98
699,05	1306,60
699,24	1304,56
699,42	1294,32
699,61	1343,47
699,79	1273,84
699,97	1265,64
700,16	1257,45
700,34	1325,04
700,53	1228,78
700,71	1279,98
700,89	1243,12
701,08	1253,36
701,26	1300,46
701,45	1267,69
701,63	1277,93
701,81	1337,32
702,00	1249,26
702,18	1269,74
702,37	1267,69
702,55	1263,60
702,73	1228,78
702,92	1261,55
703,10	1279,98
703,28	1243,12
703,47	1253,36
703,65	1214,45
703,84	1173,49
704,02	1202,16
704,20	1300,46
704,39	1212,40
704,57	1263,60
704,75	1300,46
704,94	1265,64
705,12	1243,12
705,30	1265,64
705,49	1322,99
705,67	1236,97
705,86	1370,09
706,04	1294,32
706,22	1298,41
706,41	1255,40
706,59	1306,60
706,77	1216,49
706,96	1259,50
707,14	1247,21
707,32	1251,31
707,51	1290,22
707,69	1290,22
707,87	1249,26
708,06	1302,51
708,24	1222,64
708,42	1245,16
708,61	1337,32
708,79	1290,22
708,97	1282,03
709,16	1236,97
709,34	1249,26
709,52	1239,02
709,71	1273,84
709,89	1300,46
710,07	1306,60
710,26	1265,64
710,44	1265,64
710,62	1312,75
710,80	1234,93
710,99	1325,04
711,17	1222,64
711,35	1257,45
711,54	1271,79
711,72	1263,60
711,90	1255,40
712,09	1296,36
712,27	1335,28
712,45	1320,94
712,63	1226,73
712,82	1243,12
713,00	1247,21
713,18	1331,18
713,37	1241,07
713,55	1273,84
713,73	1234,93
713,91	1294,32
714,10	1308,65
714,28	1259,50
714,46	1282,03
714,65	1267,69
714,83	1241,07
715,01	1226,73
715,19	1214,45
715,38	1224,69
715,56	1294,32
715,74	1204,21
715,92	1296,36
716,11	1271,79
716,29	1253,36
716,47	1216,49
716,65	1239,02
716,84	1208,30
717,02	1286,12
717,20	1220,59
717,38	1263,60
717,57	1296,36
717,75	1320,94
717,93	1241,07
718,11	1300,46
718,30	1312,75
718,48	1284,08
718,66	1267,69
718,84	1359,85
719,03	1232,88
719,21	1316,84
719,39	1265,64
719,57	1314,80
719,75	1282,03
719,94	1290,22
720,12	1257,45
720,30	1247,21
720,48	1296,36
720,67	1298,41
720,85	1232,88
721,03	1255,40
721,21	1253,36
721,39	1290,22
721,58	1294,32
721,76	1267,69
721,94	1255,40
722,12	1275,88
722,30	1220,59
722,49	1249,26
722,67	1320,94
722,85	1267,69
723,03	1267,69
723,21	1247,21
723,40	1310,70
723,58	1388,52
723,76	1298,41
723,94	1284,08
724,12	1245,16
724,30	1306,60
724,49	1327,08
724,67	1277,93
724,85	1312,75
725,03	1173,49
725,21	1275,88
725,40	1282,03
725,58	1322,99
725,76	1284,08
725,94	1239,02
726,12	1269,74
726,30	1259,50
726,49	1275,88
726,67	1314,80
726,85	1288,17
727,03	1282,03
727,21	1232,88
727,39	1236,97
727,57	1200,11
727,76	1345,52
727,94	1339,37
728,12	1302,51
728,30	1239,02
728,48	1290,22
728,66	1241,07
728,84	1275,88
729,03	1247,21
729,21	1337,32
729,39	1279,98
729,57	1310,70
729,75	1269,74
729,93	1169,39
730,11	1335,28
730,30	1239,02
730,48	1279,98
730,66	1265,64
730,84	1236,97
731,02	1282,03
731,20	1271,79
731,38	1273,84
731,56	1253,36
731,74	1263,60
731,93	1181,68
732,11	1279,98
732,29	1290,22
732,47	1232,88
732,65	1294,32
732,83	1208,30
733,01	1255,40
733,19	1247,21
733,37	1282,03
733,56	1191,92
733,74	1292,27
733,92	1339,37
734,10	1322,99
734,28	1243,12
734,46	1222,64
734,64	1265,64
734,82	1325,04
735,00	1308,65
735,18	1304,56
735,36	1275,88
735,54	1290,22
735,73	1300,46
735,91	1277,93
736,09	1337,32
736,27	1318,89
736,45	1279,98
736,63	1294,32
736,81	1273,84
736,99	1241,07
737,17	1236,97
737,35	1279,98
737,53	1267,69
737,71	1335,28
737,89	1239,02
738,07	1308,65
738,25	1222,64
738,43	1183,73
738,61	1218,54
738,80	1279,98
738,98	1333,23
739,16	1288,17
739,34	1261,55
739,52	1179,63
739,70	1279,98
739,88	1239,02
740,06	1222,64
740,24	1279,98
740,42	1277,93
740,60	1286,12
740,78	1222,64
740,96	1306,60
741,14	1239,02
741,32	1298,41
741,50	1265,64
741,68	1259,50
741,86	1335,28
742,04	1314,80
742,22	1333,23
742,40	1318,89
742,58	1329,13
742,76	1261,55
742,94	1267,69
743,12	1292,27
743,30	1220,59
743,48	1288,17
743,66	1275,88
743,84	1267,69
744,02	1292,27
744,20	1218,54
744,38	1251,31
744,56	1318,89
744,74	1253,36
744,92	1308,65
745,10	1302,51
745,28	1312,75
745,46	1290,22
745,64	1322,99
745,82	1345,52
746,00	1339,37
746,18	1239,02
746,36	1298,41
746,54	1290,22
746,72	1263,60
746,90	1253,36
747,08	1290,22
747,26	1273,84
747,44	1232,88
747,62	1277,93
747,80	1265,64
747,98	1236,97
748,15	1294,32
748,33	1251,31
748,51	1316,84
748,69	1269,74
748,87	1214,45
749,05	1290,22
749,23	1239,02
749,41	1243,12
749,59	1320,94
749,77	1255,40
749,95	1302,51
750,13	1318,89
750,31	1279,98
750,49	1294,32
750,67	1255,40
750,85	1230,83
751,03	1279,98
751,20	1308,65
751,38	1316,84
751,56	1247,21
751,74	1310,70
751,92	1249,26
752,10	1222,64
752,28	1312,75
752,46	1275,88
752,64	1345,52
752,82	1253,36
753,00	1269,74
753,18	1306,60
753,35	1279,98
753,53	1243,12
753,71	1245,16
753,89	1316,84
754,07	1308,65
754,25	1282,03
754,43	1302,51
754,61	1247,21
754,79	1234,93
754,97	1290,22
755,14	1304,56
755,32	1294,32
755,50	1179,63
755,68	1296,36
755,86	1300,46
756,04	1282,03
756,22	1245,16
756,40	1214,45
756,57	1261,55
756,75	1230,83
756,93	1239,02
757,11	1232,88
757,29	1214,45
757,47	1322,99
757,65	1306,60
757,82	1286,12
758,00	1269,74
758,18	1253,36
758,36	1271,79
758,54	1290,22
758,72	1249,26
758,90	1275,88
759,07	1349,61
759,25	1263,60
759,43	1310,70
759,61	1273,84
759,79	1243,12
759,97	1269,74
760,15	1241,07
760,32	1239,02
760,50	1218,54
760,68	1300,46
760,86	1265,64
761,04	1243,12
761,22	1290,22
761,39	1232,88
761,57	1298,41
761,75	1273,84
761,93	1277,93
762,11	1277,93
762,28	1316,84
762,46	1212,40
762,64	1310,70
762,82	1306,60
763,00	1257,45
763,18	1261,55
763,35	1255,40
763,53	1230,83
763,71	1243,12
763,89	1226,73
764,07	1239,02
764,24	1230,83
764,42	1359,85
764,60	1253,36
764,78	1277,93
764,96	1308,65
765,13	1257,45
765,31	1318,89
765,49	1224,69
765,67	1200,11
765,84	1249,26
766,02	1228,78
766,20	1304,56
766,38	1304,56
766,56	1322,99
766,73	1261,55
766,91	1234,93
767,09	1271,79
767,27	1269,74
767,44	1329,13
767,62	1341,42
767,80	1322,99
767,98	1261,55
768,15	1263,60
768,33	1288,17
768,51	1304,56
768,69	1314,80
768,87	1275,88
769,04	1216,49
769,22	1318,89
769,40	1265,64
769,58	1308,65
769,75	1279,98
769,93	1222,64
770,11	1273,84
770,28	1294,32
770,46	1298,41
770,64	1247,21
770,82	1341,42
770,99	1249,26
771,17	1269,74
771,35	1288,17
771,53	1226,73
771,70	1286,12
771,88	1273,84
772,06	1265,64
772,23	1304,56
772,41	1294,32
772,59	1345,52
772,77	1241,07
772,94	1277,93
773,12	1249,26
773,30	1335,28
773,47	1298,41
773,65	1312,75
773,83	1228,78
774,01	1253,36
774,18	1325,04
774,36	1224,69
774,54	1239,02
774,71	1163,25
774,89	1226,73
775,07	1298,41
775,24	1308,65
775,42	1241,07
775,60	1304,56
775,78	1218,54
775,95	1275,88
776,13	1271,79
776,31	1269,74
776,48	1259,50
776,66	1261,55
776,84	1204,21
777,01	1273,84
777,19	1288,17
777,37	1300,46
777,54	1306,60
777,72	1318,89
777,90	1202,16
778,07	1312,75
778,25	1249,26
778,43	1210,35
778,60	1175,53
778,78	1296,36
778,96	1265,64
779,13	1271,79
779,31	1220,59
779,49	1284,08
779,66	1232,88
779,84	1247,21
780,01	1220,59
780,19	1269,74
780,37	1245,16
780,54	1316,84
780,72	1294,32
780,90	1271,79
781,07	1245,16
781,25	1251,31
781,43	1288,17
781,60	1302,51
781,78	1290,22
781,95	1224,69
782,13	1267,69
782,31	1277,93
782,48	1259,50
782,66	1298,41
782,83	1347,56
783,01	1196,01
783,19	1239,02
783,36	1261,55
783,54	1269,74
783,72	1284,08
783,89	1198,06
784,07	1193,97
784,24	1228,78
784,42	1333,23
784,60	1286,12
784,77	1279,98
784,95	1239,02
785,12	1239,02
785,30	1302,51
785,47	1271,79
785,65	1337,32
785,83	1224,69
786,00	1331,18
786,18	1339,37
786,35	1284,08
786,53	1337,32
786,71	1224,69
786,88	1265,64
787,06	1302,51
787,23	1236,97
787,41	1325,04
787,58	1263,60
787,76	1241,07
787,94	1273,84
788,11	1279,98
788,29	1228,78
788,46	1318,89
788,64	1253,36
788,81	1282,03
788,99	1222,64
789,16	1273,84
789,34	1271,79
789,52	1245,16
789,69	1302,51
789,87	1286,12
790,04	1298,41
790,22	1263,60
790,39	1206,25
790,57	1257,45
790,74	1341,42
790,92	1265,64
791,09	1267,69
791,27	1177,58
791,44	1259,50
791,62	1230,83
791,79	1296,36
791,97	1290,22
792,15	1314,80
792,32	1296,36
792,50	1290,22
792,67	1263,60
792,85	1300,46
793,02	1325,04
793,20	1290,22
793,37	1196,01
793,55	1302,51
793,72	1224,69
793,90	1241,07
794,07	1232,88
794,25	1296,36
794,42	1257,45
794,60	1183,73
794,77	1294,32
794,95	1279,98
795,12	1224,69
795,30	1380,33
795,47	1296,36
795,65	1259,50
795,82	1275,88
796,00	1271,79
796,17	1230,83
796,34	1257,45
796,52	1341,42
796,69	1271,79
796,87	1148,91
797,04	1300,46
797,22	1271,79
797,39	1357,80
797,57	1284,08
797,74	1224,69
797,92	1228,78
798,09	1247,21
798,27	1288,17
798,44	1212,40
798,62	1247,21
798,79	1296,36
798,96	1261,55
799,14	1279,98
799,31	1310,70
799,49	1259,50
799,66	1302,51
799,84	1216,49
800,01	1243,12
800,19	1304,56
800,36	1222,64
800,53	1279,98
800,71	1288,17
800,88	1300,46
801,06	1243,12
801,23	1314,80
801,41	1257,45
801,58	1284,08
801,75	1247,21
801,93	1277,93
802,10	1232,88
802,28	1220,59
802,45	1257,45
802,63	1265,64
802,80	1261,55
802,97	1308,65
803,15	1304,56
803,32	1245,16
803,50	1279,98
803,67	1259,50
803,84	1318,89
804,02	1290,22
804,19	1220,59
804,37	1320,94
804,54	1216,49
804,71	1298,41
804,89	1247,21
805,06	1269,74
805,24	1271,79
805,41	1290,22
805,58	1228,78
805,76	1257,45
805,93	1261,55
806,10	1220,59
806,28	1273,84
806,45	1271,79
806,63	1275,88
806,80	1304,56
806,97	1255,40
807,15	1212,40
807,32	1296,36
807,49	1277,93
807,67	1243,12
807,84	1249,26
808,01	1269,74
808,19	1253,36
808,36	1241,07
808,54	1310,70
808,71	1261,55
808,88	1279,98
809,06	1279,98
809,23	1224,69
809,40	1210,35
809,58	1284,08
809,75	1320,94
809,92	1259,50
810,10	1202,16
810,27	1232,88
810,44	1271,79
810,62	1320,94
810,79	1239,02
810,96	1327,08
811,14	1251,31
811,31	1239,02
811,48	1271,79
811,66	1286,12
811,83	1279,98
812,00	1269,74
812,18	1282,03
812,35	1208,30
812,52	1269,74
812,69	1267,69
812,87	1257,45
813,04	1255,40
813,21	1308,65
813,39	1288,17
813,56	1243,12
813,73	1290,22
813,91	1234,93
814,08	1241,07
814,25	1218,54
814,42	1232,88
814,60	1265,64
814,77	1273,84
814,94	1310,70
815,12	1265,64
815,29	1257,45
815,46	1210,35
815,63	1327,08
815,81	1277,93
815,98	1304,56
816,15	1286,12
816,33	1239,02
816,50	1294,32
816,67	1183,73
816,84	1286,12
817,02	1296,36
817,19	1247,21
817,36	1265,64
817,53	1314,80
817,71	1269,74
817,88	1230,83
818,05	1245,16
818,22	1269,74
818,40	1300,46
818,57	1251,31
818,74	1337,32
818,91	1294,32
819,09	1296,36
819,26	1316,84
819,43	1296,36
819,60	1220,59
819,78	1261,55
819,95	1308,65
820,12	1263,60
820,29	1318,89
820,47	1257,45
820,64	1265,64
820,81	1241,07
820,98	1247,21
821,15	1275,88
821,33	1298,41
821,50	1243,12
821,67	1247,21
821,84	1310,70
822,02	1284,08
822,19	1269,74
822,36	1196,01
822,53	1206,25
822,70	1273,84
822,88	1243,12
823,05	1308,65
823,22	1249,26
823,39	1222,64
823,56	1279,98
823,74	1322,99
823,91	1265,64
824,08	1257,45
824,25	1263,60
824,42	1292,27
824,60	1206,25
824,77	1271,79
824,94	1247,21
825,11	1337,32
825,28	1327,08
825,45	1263,60
825,63	1214,45
825,80	1279,98
825,97	1275,88
826,14	1204,21
826,31	1269,74
826,48	1257,45
826,66	1255,40
826,83	1279,98
827,00	1269,74
827,17	1282,03
827,34	1245,16
827,51	1282,03
827,69	1282,03
827,86	1259,50
828,03	1265,64
828,20	1298,41
828,37	1325,04
828,54	1271,79
828,71	1230,83
828,89	1247,21
829,06	1253,36
829,23	1298,41
829,40	1241,07
829,57	1288,17
829,74	1204,21
829,91	1222,64
830,09	1189,87
830,26	1253,36
830,43	1302,51
830,60	1261,55
830,77	1286,12
830,94	1251,31
831,11	1325,04
831,28	1249,26
831,46	1322,99
831,63	1261,55
831,80	1282,03
831,97	1247,21
832,14	1261,55
832,31	1263,60
832,48	1318,89
832,65	1253,36
832,82	1208,30
832,99	1290,22
833,17	1261,55
833,34	1220,59
833,51	1208,30
833,68	1279,98
833,85	1228,78
834,02	1228,78
834,19	1265,64
834,36	1271,79
834,53	1271,79
834,70	1277,93
834,87	1181,68
835,04	1220,59
835,22	1181,68
835,39	1286,12
835,56	1261,55
835,73	1236,97
835,90	1288,17
836,07	1230,83
836,24	1253,36
836,41	1245,16
836,58	1265,64
836,75	1241,07
836,92	1239,02
837,09	1335,28
837,26	1263,60
837,43	1263,60
837,60	1253,36
837,77	1269,74
837,94	1247,21
838,12	1220,59
838,29	1298,41
838,46	1255,40
838,63	1183,73
838,80	1335,28
838,97	1200,11
839,14	1288,17
839,31	1212,40
839,48	1355,76
839,65	1327,08
839,82	1368,04
839,99	1304,56
840,16	1263,60
840,33	1239,02
840,50	1286,12
840,67	1257,45
840,84	1257,45
841,01	1251,31
841,18	1228,78
841,35	1279,98
841,52	1257,45
841,69	1288,17
841,86	1331,18
842,03	1247,21
842,20	1243,12
842,37	1185,77
842,54	1220,59
842,71	1230,83
842,88	1296,36
843,05	1247,21
843,22	1224,69
843,39	1333,23
843,56	1282,03
843,73	1202,16
843,90	1236,97
844,07	1306,60
844,24	1253,36
844,41	1232,88
844,58	1263,60
844,75	1267,69
844,92	1247,21
845,09	1286,12
845,26	1279,98
845,43	1300,46
845,60	1247,21
845,77	1267,69
845,94	1282,03
846,10	1234,93
846,27	1222,64
846,44	1265,64
846,61	1239,02
846,78	1302,51
846,95	1261,55
847,12	1267,69
847,29	1193,97
847,46	1290,22
847,63	1308,65
847,80	1300,46
847,97	1245,16
848,14	1228,78
848,31	1306,60
848,48	1255,40
848,65	1230,83
848,82	1347,56
848,98	1286,12
849,15	1245,16
849,32	1304,56
849,49	1316,84
849,66	1257,45
849,83	1263,60
850,00	1347,56
850,17	1232,88
850,34	1220,59
850,51	1294,32
850,68	1267,69
850,85	1275,88
851,01	1277,93
851,18	1275,88
851,35	1239,02
851,52	1247,21
851,69	1322,99
851,86	1251,31
852,03	1257,45
852,20	1300,46
852,37	1298,41
852,53	1288,17
852,70	1220,59
852,87	1275,88
853,04	1290,22
853,21	1306,60
853,38	1198,06
853,55	1304,56
853,72	1304,56
853,89	1255,40
854,05	1224,69
854,22	1261,55
854,39	1243,12
854,56	1218,54
854,73	1265,64
854,90	1331,18
855,07	1277,93
855,23	1261,55
855,40	1286,12
855,57	1265,64
855,74	1275,88
855,91	1314,80
856,08	1279,98
856,25	1290,22
856,41	1290,22
856,58	1300,46
856,75	1249,26
856,92	1247,21
857,09	1216,49
857,26	1257,45
857,42	1243,12
857,59	1253,36
857,76	1251,31
857,93	1337,32
858,10	1251,31
858,27	1232,88
858,43	1290,22
858,60	1198,06
858,77	1239,02
858,94	1306,60
859,11	1306,60
859,27	1355,76
859,44	1279,98
859,61	1273,84
859,78	1230,83
859,95	1251,31
860,12	1312,75
860,28	1282,03
860,45	1269,74
860,62	1218,54
860,79	1298,41
860,95	1279,98
861,12	1263,60
861,29	1320,94
861,46	1279,98
861,63	1304,56
861,79	1271,79
861,96	1241,07
862,13	1259,50
862,30	1279,98
862,47	1263,60
862,63	1265,64
862,80	1298,41
862,97	1312,75
863,14	1257,45
863,30	1239,02
863,47	1271,79
863,64	1277,93
863,81	1329,13
863,97	1245,16
864,14	1259,50
864,31	1355,76
864,48	1302,51
864,65	1159,15
864,81	1271,79
864,98	1267,69
865,15	1267,69
865,32	1273,84
865,48	1212,40
865,65	1261,55
865,82	1204,21
865,98	1298,41
866,15	1257,45
866,32	1273,84
866,49	1271,79
866,65	1304,56
866,82	1269,74
866,99	1251,31
867,16	1339,37
867,32	1236,97
867,49	1275,88
867,66	1294,32
867,83	1337,32
867,99	1290,22
868,16	1282,03
868,33	1243,12
868,49	1257,45
868,66	1302,51
868,83	1341,42
868,99	1230,83
869,16	1261,55
869,33	1310,70
869,50	1200,11
869,66	1351,66
869,83	1290,22
870,00	1261,55
870,16	1320,94
870,33	1236,97
870,50	1275,88
870,66	1286,12
870,83	1337,32
871,00	1239,02
871,17	1327,08
871,33	1259,50
871,50	1263,60
871,67	1249,26
871,83	1306,60
872,00	1271,79
872,17	1261,55
872,33	1263,60
872,50	1206,25
872,67	1247,21
872,83	1296,36
873,00	1245,16
873,17	1259,50
873,33	1292,27
873,50	1265,64
873,67	1298,41
873,83	1279,98
874,00	1257,45
874,16	1245,16
874,33	1247,21
874,50	1322,99
874,66	1294,32
874,83	1218,54
875,00	1288,17
875,16	1286,12
875,33	1312,75
875,50	1249,26
875,66	1279,98
875,83	1259,50
875,99	1284,08
876,16	1269,74
876,33	1282,03
876,49	1273,84
876,66	1257,45
876,83	1269,74
876,99	1306,60
877,16	1249,26
877,32	1253,36
877,49	1249,26
877,66	1208,30
877,82	1380,33
877,99	1296,36
878,15	1228,78
878,32	1282,03
878,49	1327,08
878,65	1218,54
878,82	1310,70
878,98	1296,36
879,15	1335,28
879,32	1312,75
879,48	1226,73
879,65	1253,36
879,81	1296,36
879,98	1263,60
880,15	1261,55
880,31	1222,64
880,48	1308,65
880,64	1259,50
880,81	1230,83
880,97	1204,21
881,14	1269,74
881,31	1257,45
881,47	1269,74
881,64	1257,45
881,80	1380,33
881,97	1296,36
882,13	1284,08
882,30	1255,40
882,47	1294,32
882,63	1267,69
882,80	1304,56
882,96	1290,22
883,13	1228,78
883,29	1214,45
883,46	1335,28
883,62	1312,75
883,79	1296,36
883,95	1239,02
884,12	1349,61
884,29	1253,36
884,45	1282,03
884,62	1284,08
884,78	1230,83
884,95	1255,40
885,11	1341,42
885,28	1208,30
885,44	1245,16
885,61	1310,70
885,77	1220,59
885,94	1267,69
886,10	1255,40
886,27	1230,83
886,43	1220,59
886,60	1251,31
886,76	1306,60
886,93	1300,46
887,09	1314,80
887,26	1232,88
887,42	1277,93
887,59	1277,93
887,75	1322,99
887,92	1247,21
888,08	1255,40
888,25	1296,36
888,41	1290,22
888,58	1234,93
888,74	1329,13
888,91	1243,12
>>>>>End Processed Spectral Data<<<<<
