SpectraSuite Data File
++++++++++++++++++++++++++++++++++++
Date: Sun Apr 03 16:44:04 CEST 2016
User: root
Dark Spectrum Present: No
Reference Spectrum Present: No
Number of Sampled Component Spectra: 1
Spectrometers: USB4C02835
Integration Time (usec): 10000 (USB4C02835)
Spectra Averaged: 1 (USB4C02835)
Boxcar Smoothing: 0 (USB4C02835)
Correct for Electrical Dark: No (USB4C02835)
Strobe/Lamp Enabled: No (USB4C02835)
Correct for Detector Non-linearity: No (USB4C02835)
Correct for Stray Light: No (USB4C02835)
Number of Pixels in Processed Spectrum: 3648
>>>>>Begin Processed Spectral Data<<<<<
177,47	1241,07
177,69	1241,07
177,91	1241,07
178,13	1247,21
178,36	1247,21
178,58	1144,81
178,80	1288,17
179,02	1187,82
179,24	1310,70
179,46	1253,36
179,68	1318,89
179,90	1241,07
180,13	1271,79
180,35	1284,08
180,57	1320,94
180,79	1314,80
181,01	1269,74
181,23	1265,64
181,45	1247,21
181,67	1187,82
181,90	1267,69
182,12	1191,92
182,34	1228,78
182,56	1284,08
182,78	1245,16
183,00	1222,64
183,22	1232,88
183,44	1212,40
183,66	1284,08
183,89	1243,12
184,11	1347,56
184,33	1189,87
184,55	1290,22
184,77	1327,08
184,99	1243,12
185,21	1277,93
185,43	1353,71
185,65	1325,04
185,87	1318,89
186,10	1234,93
186,32	1284,08
186,54	1306,60
186,76	1251,31
186,98	1269,74
187,20	1226,73
187,42	1366,00
187,64	1249,26
187,86	1269,74
188,08	1286,12
188,30	1269,74
188,52	1273,84
188,75	1300,46
188,97	1273,84
189,19	1210,35
189,41	1247,21
189,63	1310,70
189,85	1222,64
190,07	1302,51
190,29	1273,84
190,51	1241,07
190,73	1335,28
190,95	1253,36
191,17	1294,32
191,39	1286,12
191,61	1318,89
191,84	1216,49
192,06	1232,88
192,28	1247,21
192,50	1222,64
192,72	1239,02
192,94	1251,31
193,16	1220,59
193,38	1271,79
193,60	1286,12
193,82	1304,56
194,04	1292,27
194,26	1290,22
194,48	1247,21
194,70	1241,07
194,92	1255,40
195,14	1251,31
195,36	1271,79
195,58	1253,36
195,80	1302,51
196,02	1322,99
196,24	1273,84
196,46	1210,35
196,69	1343,47
196,91	1206,25
197,13	1200,11
197,35	1261,55
197,57	1224,69
197,79	1241,07
198,01	1222,64
198,23	1292,27
198,45	1284,08
198,67	1337,32
198,89	1318,89
199,11	1316,84
199,33	1210,35
199,55	1273,84
199,77	1239,02
199,99	1222,64
200,21	1236,97
200,43	1308,65
200,65	1306,60
200,87	1279,98
201,09	1232,88
201,31	1273,84
201,53	1269,74
201,75	1208,30
201,97	1333,23
202,19	1261,55
202,41	1243,12
202,63	1316,84
202,85	1265,64
203,07	1341,42
203,29	1173,49
203,51	1249,26
203,73	1302,51
203,95	1267,69
204,17	1310,70
204,39	1234,93
204,61	1263,60
204,83	1286,12
205,05	1241,07
205,27	1236,97
205,49	1286,12
205,71	1261,55
205,93	1230,83
206,15	1241,07
206,37	1279,98
206,59	1269,74
206,81	1218,54
207,03	1296,36
207,25	1329,13
207,47	1247,21
207,69	1257,45
207,91	1286,12
208,13	1222,64
208,34	1322,99
208,56	1263,60
208,78	1245,16
209,00	1234,93
209,22	1312,75
209,44	1230,83
209,66	1353,71
209,88	1290,22
210,10	1243,12
210,32	1273,84
210,54	1212,40
210,76	1255,40
210,98	1312,75
211,20	1218,54
211,42	1210,35
211,64	1261,55
211,86	1282,03
212,08	1292,27
212,30	1353,71
212,52	1327,08
212,74	1247,21
212,96	1351,66
213,17	1298,41
213,39	1294,32
213,61	1286,12
213,83	1251,31
214,05	1230,83
214,27	1275,88
214,49	1279,98
214,71	1234,93
214,93	1298,41
215,15	1267,69
215,37	1232,88
215,59	1241,07
215,81	1271,79
216,03	1236,97
216,24	1294,32
216,46	1241,07
216,68	1271,79
216,90	1331,18
217,12	1267,69
217,34	1226,73
217,56	1329,13
217,78	1288,17
218,00	1318,89
218,22	1304,56
218,44	1273,84
218,66	1296,36
218,87	1329,13
219,09	1300,46
219,31	1298,41
219,53	1337,32
219,75	1294,32
219,97	1243,12
220,19	1210,35
220,41	1259,50
220,63	1267,69
220,85	1247,21
221,06	1251,31
221,28	1187,82
221,50	1284,08
221,72	1273,84
221,94	1251,31
222,16	1325,04
222,38	1218,54
222,60	1243,12
222,82	1279,98
223,03	1271,79
223,25	1288,17
223,47	1265,64
223,69	1298,41
223,91	1282,03
224,13	1265,64
224,35	1316,84
224,57	1267,69
224,78	1277,93
225,00	1341,42
225,22	1253,36
225,44	1230,83
225,66	1257,45
225,88	1302,51
226,10	1245,16
226,32	1361,90
226,53	1288,17
226,75	1290,22
226,97	1263,60
227,19	1282,03
227,41	1259,50
227,63	1282,03
227,85	1239,02
228,06	1286,12
228,28	1230,83
228,50	1228,78
228,72	1218,54
228,94	1261,55
229,16	1273,84
229,37	1263,60
229,59	1202,16
229,81	1347,56
230,03	1335,28
230,25	1224,69
230,47	1329,13
230,69	1265,64
230,90	1341,42
231,12	1349,61
231,34	1245,16
231,56	1212,40
231,78	1241,07
232,00	1316,84
232,21	1290,22
232,43	1253,36
232,65	1243,12
232,87	1331,18
233,09	1284,08
233,30	1232,88
233,52	1310,70
233,74	1314,80
233,96	1296,36
234,18	1302,51
234,40	1314,80
234,61	1239,02
234,83	1314,80
235,05	1320,94
235,27	1245,16
235,49	1339,37
235,70	1245,16
235,92	1312,75
236,14	1261,55
236,36	1247,21
236,58	1239,02
236,79	1265,64
237,01	1253,36
237,23	1261,55
237,45	1228,78
237,67	1239,02
237,88	1292,27
238,10	1273,84
238,32	1210,35
238,54	1253,36
238,76	1261,55
238,97	1222,64
239,19	1316,84
239,41	1316,84
239,63	1310,70
239,85	1306,60
240,06	1314,80
240,28	1302,51
240,50	1261,55
240,72	1247,21
240,93	1275,88
241,15	1302,51
241,37	1288,17
241,59	1198,06
241,81	1247,21
242,02	1288,17
242,24	1296,36
242,46	1273,84
242,68	1216,49
242,89	1304,56
243,11	1234,93
243,33	1286,12
243,55	1259,50
243,76	1312,75
243,98	1204,21
244,20	1255,40
244,42	1263,60
244,64	1343,47
244,85	1337,32
245,07	1241,07
245,29	1282,03
245,51	1290,22
245,72	1206,25
245,94	1318,89
246,16	1271,79
246,38	1306,60
246,59	1292,27
246,81	1322,99
247,03	1316,84
247,24	1232,88
247,46	1314,80
247,68	1310,70
247,90	1224,69
248,11	1255,40
248,33	1224,69
248,55	1329,13
248,77	1226,73
248,98	1284,08
249,20	1249,26
249,42	1232,88
249,64	1265,64
249,85	1282,03
250,07	1259,50
250,29	1316,84
250,50	1269,74
250,72	1255,40
250,94	1282,03
251,16	1314,80
251,37	1327,08
251,59	1308,65
251,81	1339,37
252,02	1257,45
252,24	1282,03
252,46	1277,93
252,68	1269,74
252,89	1226,73
253,11	1167,34
253,33	1269,74
253,54	1263,60
253,76	1200,11
253,98	1216,49
254,20	1312,75
254,41	1255,40
254,63	1304,56
254,85	1282,03
255,06	1310,70
255,28	1269,74
255,50	1273,84
255,71	1241,07
255,93	1294,32
256,15	1269,74
256,36	1273,84
256,58	1220,59
256,80	1304,56
257,02	1191,92
257,23	1255,40
257,45	1286,12
257,67	1306,60
257,88	1257,45
258,10	1216,49
258,32	1298,41
258,53	1331,18
258,75	1314,80
258,97	1322,99
259,18	1347,56
259,40	1239,02
259,62	1259,50
259,83	1312,75
260,05	1282,03
260,27	1279,98
260,48	1245,16
260,70	1206,25
260,92	1349,61
261,13	1208,30
261,35	1212,40
261,57	1288,17
261,78	1282,03
262,00	1351,66
262,22	1200,11
262,43	1312,75
262,65	1286,12
262,86	1243,12
263,08	1300,46
263,30	1251,31
263,51	1290,22
263,73	1331,18
263,95	1257,45
264,16	1269,74
264,38	1255,40
264,60	1212,40
264,81	1224,69
265,03	1263,60
265,25	1239,02
265,46	1294,32
265,68	1265,64
265,89	1271,79
266,11	1304,56
266,33	1243,12
266,54	1234,93
266,76	1224,69
266,98	1216,49
267,19	1306,60
267,41	1292,27
267,62	1259,50
267,84	1220,59
268,06	1189,87
268,27	1294,32
268,49	1306,60
268,70	1337,32
268,92	1273,84
269,14	1261,55
269,35	1234,93
269,57	1228,78
269,79	1296,36
270,00	1263,60
270,22	1277,93
270,43	1279,98
270,65	1277,93
270,87	1255,40
271,08	1202,16
271,30	1282,03
271,51	1251,31
271,73	1259,50
271,95	1263,60
272,16	1271,79
272,38	1247,21
272,59	1204,21
272,81	1290,22
273,02	1212,40
273,24	1320,94
273,46	1267,69
273,67	1314,80
273,89	1265,64
274,10	1312,75
274,32	1279,98
274,54	1310,70
274,75	1179,63
274,97	1302,51
275,18	1234,93
275,40	1241,07
275,61	1251,31
275,83	1282,03
276,05	1216,49
276,26	1308,65
276,48	1322,99
276,69	1312,75
276,91	1296,36
277,12	1265,64
277,34	1314,80
277,55	1322,99
277,77	1273,84
277,99	1220,59
278,20	1302,51
278,42	1251,31
278,63	1253,36
278,85	1269,74
279,06	1253,36
279,28	1288,17
279,49	1282,03
279,71	1288,17
279,93	1228,78
280,14	1230,83
280,36	1273,84
280,57	1253,36
280,79	1298,41
281,00	1249,26
281,22	1230,83
281,43	1292,27
281,65	1300,46
281,86	1208,30
282,08	1269,74
282,29	1277,93
282,51	1269,74
282,73	1230,83
282,94	1232,88
283,16	1282,03
283,37	1277,93
283,59	1263,60
283,80	1218,54
284,02	1249,26
284,23	1292,27
284,45	1265,64
284,66	1314,80
284,88	1265,64
285,09	1236,97
285,31	1279,98
285,52	1249,26
285,74	1220,59
285,95	1265,64
286,17	1322,99
286,38	1320,94
286,60	1275,88
286,81	1322,99
287,03	1259,50
287,24	1304,56
287,46	1269,74
287,67	1265,64
287,89	1236,97
288,10	1302,51
288,32	1273,84
288,53	1314,80
288,75	1261,55
288,96	1243,12
289,18	1226,73
289,39	1275,88
289,61	1236,97
289,82	1292,27
290,04	1228,78
290,25	1249,26
290,47	1263,60
290,68	1236,97
290,90	1189,87
291,11	1241,07
291,33	1296,36
291,54	1234,93
291,76	1230,83
291,97	1290,22
292,18	1249,26
292,40	1306,60
292,61	1329,13
292,83	1239,02
293,04	1273,84
293,26	1339,37
293,47	1202,16
293,69	1251,31
293,90	1236,97
294,12	1275,88
294,33	1300,46
294,55	1255,40
294,76	1310,70
294,97	1271,79
295,19	1279,98
295,40	1208,30
295,62	1282,03
295,83	1216,49
296,05	1232,88
296,26	1310,70
296,48	1279,98
296,69	1298,41
296,90	1312,75
297,12	1282,03
297,33	1257,45
297,55	1282,03
297,76	1294,32
297,98	1282,03
298,19	1265,64
298,41	1267,69
298,62	1220,59
298,83	1273,84
299,05	1263,60
299,26	1271,79
299,48	1163,25
299,69	1230,83
299,90	1306,60
300,12	1335,28
300,33	1322,99
300,55	1263,60
300,76	1247,21
300,98	1265,64
301,19	1300,46
301,40	1245,16
301,62	1359,85
301,83	1306,60
302,05	1241,07
302,26	1245,16
302,47	1277,93
302,69	1193,97
302,90	1265,64
303,12	1290,22
303,33	1251,31
303,54	1337,32
303,76	1167,34
303,97	1228,78
304,19	1273,84
304,40	1298,41
304,61	1288,17
304,83	1298,41
305,04	1255,40
305,26	1249,26
305,47	1273,84
305,68	1275,88
305,90	1359,85
306,11	1314,80
306,33	1255,40
306,54	1282,03
306,75	1331,18
306,97	1253,36
307,18	1290,22
307,39	1253,36
307,61	1325,04
307,82	1271,79
308,04	1296,36
308,25	1232,88
308,46	1153,01
308,68	1296,36
308,89	1202,16
309,10	1327,08
309,32	1263,60
309,53	1257,45
309,74	1347,56
309,96	1261,55
310,17	1310,70
310,39	1241,07
310,60	1271,79
310,81	1259,50
311,03	1230,83
311,24	1251,31
311,45	1290,22
311,67	1331,18
311,88	1279,98
312,09	1322,99
312,31	1251,31
312,52	1312,75
312,73	1263,60
312,95	1294,32
313,16	1265,64
313,37	1322,99
313,59	1251,31
313,80	1243,12
314,01	1243,12
314,23	1314,80
314,44	1255,40
314,65	1243,12
314,87	1236,97
315,08	1253,36
315,29	1355,76
315,51	1286,12
315,72	1322,99
315,93	1320,94
316,15	1284,08
316,36	1261,55
316,57	1318,89
316,79	1284,08
317,00	1200,11
317,21	1302,51
317,43	1241,07
317,64	1255,40
317,85	1277,93
318,07	1286,12
318,28	1247,21
318,49	1282,03
318,70	1361,90
318,92	1271,79
319,13	1259,50
319,34	1269,74
319,56	1259,50
319,77	1232,88
319,98	1191,92
320,20	1267,69
320,41	1282,03
320,62	1279,98
320,83	1271,79
321,05	1267,69
321,26	1302,51
321,47	1296,36
321,69	1359,85
321,90	1275,88
322,11	1304,56
322,32	1304,56
322,54	1298,41
322,75	1263,60
322,96	1273,84
323,18	1228,78
323,39	1279,98
323,60	1222,64
323,81	1294,32
324,03	1310,70
324,24	1175,53
324,45	1275,88
324,66	1345,52
324,88	1333,23
325,09	1294,32
325,30	1290,22
325,52	1286,12
325,73	1265,64
325,94	1220,59
326,15	1302,51
326,37	1316,84
326,58	1279,98
326,79	1363,95
327,00	1208,30
327,22	1234,93
327,43	1310,70
327,64	1220,59
327,85	1236,97
328,07	1261,55
328,28	1234,93
328,49	1282,03
328,70	1288,17
328,92	1343,47
329,13	1286,12
329,34	1232,88
329,55	1347,56
329,76	1300,46
329,98	1341,42
330,19	1329,13
330,40	1277,93
330,61	1310,70
330,83	1310,70
331,04	1292,27
331,25	1253,36
331,46	1261,55
331,68	1216,49
331,89	1286,12
332,10	1263,60
332,31	1277,93
332,52	1327,08
332,74	1196,01
332,95	1294,32
333,16	1271,79
333,37	1236,97
333,58	1253,36
333,80	1277,93
334,01	1300,46
334,22	1241,07
334,43	1282,03
334,64	1292,27
334,86	1322,99
335,07	1249,26
335,28	1257,45
335,49	1228,78
335,70	1279,98
335,92	1298,41
336,13	1245,16
336,34	1265,64
336,55	1322,99
336,76	1294,32
336,98	1239,02
337,19	1259,50
337,40	1196,01
337,61	1271,79
337,82	1263,60
338,04	1269,74
338,25	1241,07
338,46	1257,45
338,67	1310,70
338,88	1185,77
339,09	1269,74
339,31	1294,32
339,52	1259,50
339,73	1159,15
339,94	1290,22
340,15	1298,41
340,36	1298,41
340,58	1271,79
340,79	1263,60
341,00	1259,50
341,21	1198,06
341,42	1310,70
341,63	1341,42
341,85	1245,16
342,06	1253,36
342,27	1300,46
342,48	1257,45
342,69	1247,21
342,90	1316,84
343,12	1249,26
343,33	1263,60
343,54	1267,69
343,75	1187,82
343,96	1218,54
344,17	1261,55
344,38	1286,12
344,60	1302,51
344,81	1257,45
345,02	1298,41
345,23	1261,55
345,44	1282,03
345,65	1290,22
345,86	1277,93
346,07	1232,88
346,29	1282,03
346,50	1251,31
346,71	1316,84
346,92	1236,97
347,13	1230,83
347,34	1314,80
347,55	1292,27
347,76	1271,79
347,98	1200,11
348,19	1312,75
348,40	1382,38
348,61	1234,93
348,82	1277,93
349,03	1263,60
349,24	1232,88
349,45	1279,98
349,66	1306,60
349,88	1228,78
350,09	1271,79
350,30	1322,99
350,51	1286,12
350,72	1257,45
350,93	1255,40
351,14	1302,51
351,35	1286,12
351,56	1261,55
351,77	1306,60
351,99	1267,69
352,20	1310,70
352,41	1322,99
352,62	1236,97
352,83	1302,51
353,04	1337,32
353,25	1239,02
353,46	1263,60
353,67	1333,23
353,88	1214,45
354,09	1249,26
354,30	1277,93
354,52	1308,65
354,73	1243,12
354,94	1277,93
355,15	1304,56
355,36	1288,17
355,57	1279,98
355,78	1241,07
355,99	1251,31
356,20	1284,08
356,41	1243,12
356,62	1253,36
356,83	1331,18
357,04	1300,46
357,25	1279,98
357,46	1277,93
357,68	1232,88
357,89	1290,22
358,10	1302,51
358,31	1210,35
358,52	1300,46
358,73	1234,93
358,94	1286,12
359,15	1222,64
359,36	1325,04
359,57	1275,88
359,78	1273,84
359,99	1202,16
360,20	1327,08
360,41	1255,40
360,62	1275,88
360,83	1322,99
361,04	1265,64
361,25	1234,93
361,46	1216,49
361,67	1261,55
361,88	1267,69
362,09	1296,36
362,30	1290,22
362,51	1198,06
362,72	1239,02
362,93	1249,26
363,14	1282,03
363,35	1220,59
363,56	1306,60
363,78	1208,30
363,99	1282,03
364,20	1234,93
364,41	1239,02
364,62	1288,17
364,83	1277,93
365,04	1181,68
365,25	1214,45
365,46	1275,88
365,67	1314,80
365,88	1257,45
366,09	1359,85
366,30	1183,73
366,51	1216,49
366,72	1310,70
366,93	1263,60
367,14	1232,88
367,35	1269,74
367,56	1216,49
367,77	1308,65
367,98	1351,66
368,18	1357,80
368,39	1310,70
368,60	1255,40
368,81	1196,01
369,02	1316,84
369,23	1228,78
369,44	1288,17
369,65	1265,64
369,86	1249,26
370,07	1286,12
370,28	1304,56
370,49	1241,07
370,70	1273,84
370,91	1275,88
371,12	1290,22
371,33	1236,97
371,54	1251,31
371,75	1259,50
371,96	1327,08
372,17	1279,98
372,38	1251,31
372,59	1206,25
372,80	1359,85
373,01	1296,36
373,22	1298,41
373,43	1302,51
373,64	1224,69
373,85	1269,74
374,06	1263,60
374,26	1218,54
374,47	1263,60
374,68	1255,40
374,89	1228,78
375,10	1210,35
375,31	1310,70
375,52	1339,37
375,73	1312,75
375,94	1279,98
376,15	1269,74
376,36	1204,21
376,57	1212,40
376,78	1402,86
376,99	1251,31
377,20	1286,12
377,40	1261,55
377,61	1265,64
377,82	1304,56
378,03	1284,08
378,24	1308,65
378,45	1296,36
378,66	1290,22
378,87	1259,50
379,08	1273,84
379,29	1302,51
379,50	1257,45
379,71	1296,36
379,91	1243,12
380,12	1292,27
380,33	1273,84
380,54	1183,73
380,75	1279,98
380,96	1308,65
381,17	1331,18
381,38	1302,51
381,59	1189,87
381,80	1245,16
382,00	1320,94
382,21	1284,08
382,42	1263,60
382,63	1245,16
382,84	1304,56
383,05	1327,08
383,26	1247,21
383,47	1245,16
383,68	1239,02
383,88	1245,16
384,09	1232,88
384,30	1241,07
384,51	1261,55
384,72	1308,65
384,93	1247,21
385,14	1249,26
385,35	1253,36
385,55	1277,93
385,76	1265,64
385,97	1314,80
386,18	1224,69
386,39	1339,37
386,60	1257,45
386,81	1302,51
387,02	1341,42
387,22	1302,51
387,43	1267,69
387,64	1304,56
387,85	1368,04
388,06	1208,30
388,27	1345,52
388,48	1175,53
388,68	1200,11
388,89	1292,27
389,10	1255,40
389,31	1296,36
389,52	1343,47
389,73	1300,46
389,93	1261,55
390,14	1247,21
390,35	1333,23
390,56	1216,49
390,77	1284,08
390,98	1253,36
391,18	1273,84
391,39	1296,36
391,60	1263,60
391,81	1275,88
392,02	1236,97
392,23	1259,50
392,43	1284,08
392,64	1206,25
392,85	1232,88
393,06	1253,36
393,27	1251,31
393,47	1279,98
393,68	1241,07
393,89	1185,77
394,10	1245,16
394,31	1243,12
394,52	1253,36
394,72	1304,56
394,93	1230,83
395,14	1239,02
395,35	1271,79
395,56	1288,17
395,76	1241,07
395,97	1241,07
396,18	1234,93
396,39	1288,17
396,60	1308,65
396,80	1193,97
397,01	1275,88
397,22	1236,97
397,43	1232,88
397,64	1253,36
397,84	1288,17
398,05	1331,18
398,26	1306,60
398,47	1310,70
398,67	1306,60
398,88	1265,64
399,09	1257,45
399,30	1275,88
399,51	1302,51
399,71	1314,80
399,92	1241,07
400,13	1314,80
400,34	1286,12
400,54	1249,26
400,75	1282,03
400,96	1247,21
401,17	1222,64
401,37	1224,69
401,58	1284,08
401,79	1327,08
402,00	1329,13
402,21	1337,32
402,41	1298,41
402,62	1220,59
402,83	1239,02
403,04	1255,40
403,24	1259,50
403,45	1261,55
403,66	1312,75
403,87	1251,31
404,07	1300,46
404,28	1193,97
404,49	1298,41
404,70	1302,51
404,90	1298,41
405,11	1265,64
405,32	1216,49
405,52	1286,12
405,73	1232,88
405,94	1212,40
406,15	1232,88
406,35	1216,49
406,56	1296,36
406,77	1257,45
406,98	1271,79
407,18	1232,88
407,39	1329,13
407,60	1320,94
407,80	1249,26
408,01	1263,60
408,22	1271,79
408,43	1222,64
408,63	1286,12
408,84	1275,88
409,05	1247,21
409,25	1298,41
409,46	1304,56
409,67	1267,69
409,88	1277,93
410,08	1267,69
410,29	1259,50
410,50	1269,74
410,70	1302,51
410,91	1253,36
411,12	1255,40
411,32	1263,60
411,53	1269,74
411,74	1292,27
411,95	1265,64
412,15	1384,43
412,36	1259,50
412,57	1216,49
412,77	1316,84
412,98	1345,52
413,19	1298,41
413,39	1316,84
413,60	1302,51
413,81	1216,49
414,01	1245,16
414,22	1224,69
414,43	1257,45
414,63	1286,12
414,84	1277,93
415,05	1251,31
415,25	1253,36
415,46	1275,88
415,67	1279,98
415,87	1222,64
416,08	1310,70
416,29	1230,83
416,49	1312,75
416,70	1267,69
416,91	1302,51
417,11	1251,31
417,32	1312,75
417,53	1241,07
417,73	1296,36
417,94	1239,02
418,15	1245,16
418,35	1290,22
418,56	1247,21
418,77	1286,12
418,97	1279,98
419,18	1294,32
419,38	1306,60
419,59	1337,32
419,80	1193,97
420,00	1267,69
420,21	1286,12
420,42	1239,02
420,62	1341,42
420,83	1333,23
421,04	1245,16
421,24	1224,69
421,45	1218,54
421,65	1239,02
421,86	1357,80
422,07	1277,93
422,27	1206,25
422,48	1251,31
422,69	1212,40
422,89	1271,79
423,10	1339,37
423,30	1290,22
423,51	1279,98
423,72	1230,83
423,92	1298,41
424,13	1243,12
424,33	1220,59
424,54	1239,02
424,75	1265,64
424,95	1333,23
425,16	1236,97
425,36	1366,00
425,57	1288,17
425,78	1247,21
425,98	1261,55
426,19	1257,45
426,39	1259,50
426,60	1345,52
426,81	1302,51
427,01	1224,69
427,22	1304,56
427,42	1255,40
427,63	1286,12
427,83	1263,60
428,04	1232,88
428,25	1282,03
428,45	1271,79
428,66	1304,56
428,86	1263,60
429,07	1232,88
429,28	1331,18
429,48	1288,17
429,69	1282,03
429,89	1241,07
430,10	1288,17
430,30	1357,80
430,51	1304,56
430,71	1232,88
430,92	1226,73
431,13	1251,31
431,33	1294,32
431,54	1273,84
431,74	1243,12
431,95	1269,74
432,15	1267,69
432,36	1335,28
432,56	1298,41
432,77	1286,12
432,98	1249,26
433,18	1277,93
433,39	1310,70
433,59	1282,03
433,80	1228,78
434,00	1220,59
434,21	1304,56
434,41	1249,26
434,62	1284,08
434,82	1308,65
435,03	1300,46
435,23	1228,78
435,44	1263,60
435,64	1263,60
435,85	1206,25
436,06	1306,60
436,26	1294,32
436,47	1249,26
436,67	1304,56
436,88	1357,80
437,08	1288,17
437,29	1308,65
437,49	1224,69
437,70	1282,03
437,90	1247,21
438,11	1310,70
438,31	1279,98
438,52	1230,83
438,72	1251,31
438,93	1277,93
439,13	1290,22
439,34	1226,73
439,54	1308,65
439,75	1216,49
439,95	1343,47
440,16	1228,78
440,36	1239,02
440,57	1271,79
440,77	1298,41
440,98	1269,74
441,18	1255,40
441,39	1284,08
441,59	1253,36
441,80	1282,03
442,00	1212,40
442,21	1198,06
442,41	1267,69
442,62	1322,99
442,82	1279,98
443,02	1279,98
443,23	1273,84
443,43	1255,40
443,64	1337,32
443,84	1290,22
444,05	1249,26
444,25	1251,31
444,46	1263,60
444,66	1243,12
444,87	1239,02
445,07	1251,31
445,28	1253,36
445,48	1257,45
445,69	1228,78
445,89	1294,32
446,09	1271,79
446,30	1296,36
446,50	1249,26
446,71	1298,41
446,91	1183,73
447,12	1165,29
447,32	1304,56
447,53	1243,12
447,73	1251,31
447,93	1230,83
448,14	1241,07
448,34	1267,69
448,55	1269,74
448,75	1290,22
448,96	1363,95
449,16	1236,97
449,36	1288,17
449,57	1251,31
449,77	1296,36
449,98	1284,08
450,18	1208,30
450,39	1286,12
450,59	1232,88
450,79	1267,69
451,00	1214,45
451,20	1236,97
451,41	1222,64
451,61	1290,22
451,81	1347,56
452,02	1261,55
452,22	1232,88
452,43	1290,22
452,63	1202,16
452,84	1298,41
453,04	1306,60
453,24	1261,55
453,45	1271,79
453,65	1300,46
453,86	1308,65
454,06	1304,56
454,26	1304,56
454,47	1290,22
454,67	1290,22
454,87	1218,54
455,08	1216,49
455,28	1247,21
455,49	1296,36
455,69	1234,93
455,89	1284,08
456,10	1267,69
456,30	1243,12
456,51	1185,77
456,71	1245,16
456,91	1333,23
457,12	1298,41
457,32	1277,93
457,52	1320,94
457,73	1263,60
457,93	1243,12
458,14	1243,12
458,34	1304,56
458,54	1279,98
458,75	1298,41
458,95	1277,93
459,15	1347,56
459,36	1351,66
459,56	1245,16
459,76	1288,17
459,97	1271,79
460,17	1304,56
460,37	1316,84
460,58	1224,69
460,78	1284,08
460,99	1277,93
461,19	1337,32
461,39	1310,70
461,60	1249,26
461,80	1204,21
462,00	1208,30
462,21	1288,17
462,41	1279,98
462,61	1269,74
462,82	1288,17
463,02	1368,04
463,22	1382,38
463,43	1230,83
463,63	1322,99
463,83	1306,60
464,04	1232,88
464,24	1255,40
464,44	1290,22
464,64	1271,79
464,85	1257,45
465,05	1275,88
465,25	1239,02
465,46	1282,03
465,66	1327,08
465,86	1146,86
466,07	1331,18
466,27	1214,45
466,47	1271,79
466,68	1236,97
466,88	1198,06
467,08	1273,84
467,29	1255,40
467,49	1310,70
467,69	1216,49
467,89	1236,97
468,10	1269,74
468,30	1261,55
468,50	1255,40
468,71	1247,21
468,91	1345,52
469,11	1279,98
469,31	1339,37
469,52	1179,63
469,72	1259,50
469,92	1265,64
470,13	1253,36
470,33	1247,21
470,53	1275,88
470,73	1267,69
470,94	1228,78
471,14	1255,40
471,34	1263,60
471,54	1241,07
471,75	1245,16
471,95	1279,98
472,15	1257,45
472,36	1288,17
472,56	1218,54
472,76	1220,59
472,96	1310,70
473,17	1322,99
473,37	1322,99
473,57	1263,60
473,77	1269,74
473,98	1325,04
474,18	1279,98
474,38	1259,50
474,58	1298,41
474,79	1257,45
474,99	1245,16
475,19	1263,60
475,39	1257,45
475,60	1298,41
475,80	1292,27
476,00	1247,21
476,20	1247,21
476,41	1284,08
476,61	1288,17
476,81	1243,12
477,01	1255,40
477,21	1234,93
477,42	1282,03
477,62	1259,50
477,82	1277,93
478,02	1224,69
478,23	1232,88
478,43	1267,69
478,63	1314,80
478,83	1261,55
479,03	1239,02
479,24	1304,56
479,44	1273,84
479,64	1263,60
479,84	1267,69
480,04	1302,51
480,25	1249,26
480,45	1298,41
480,65	1216,49
480,85	1261,55
481,06	1339,37
481,26	1292,27
481,46	1216,49
481,66	1228,78
481,86	1318,89
482,06	1279,98
482,27	1282,03
482,47	1245,16
482,67	1243,12
482,87	1265,64
483,07	1263,60
483,28	1232,88
483,48	1294,32
483,68	1306,60
483,88	1277,93
484,08	1202,16
484,29	1290,22
484,49	1306,60
484,69	1292,27
484,89	1251,31
485,09	1298,41
485,29	1269,74
485,50	1224,69
485,70	1224,69
485,90	1265,64
486,10	1263,60
486,30	1239,02
486,50	1220,59
486,71	1220,59
486,91	1310,70
487,11	1257,45
487,31	1316,84
487,51	1300,46
487,71	1306,60
487,91	1255,40
488,12	1282,03
488,32	1208,30
488,52	1232,88
488,72	1222,64
488,92	1271,79
489,12	1265,64
489,32	1189,87
489,53	1290,22
489,73	1273,84
489,93	1279,98
490,13	1279,98
490,33	1153,01
490,53	1331,18
490,73	1390,57
490,94	1361,90
491,14	1271,79
491,34	1290,22
491,54	1243,12
491,74	1333,23
491,94	1236,97
492,14	1292,27
492,34	1292,27
492,54	1245,16
492,75	1253,36
492,95	1271,79
493,15	1222,64
493,35	1249,26
493,55	1232,88
493,75	1288,17
493,95	1282,03
494,15	1277,93
494,35	1322,99
494,56	1198,06
494,76	1320,94
494,96	1273,84
495,16	1226,73
495,36	1333,23
495,56	1224,69
495,76	1200,11
495,96	1257,45
496,16	1294,32
496,36	1286,12
496,56	1271,79
496,77	1212,40
496,97	1314,80
497,17	1310,70
497,37	1259,50
497,57	1288,17
497,77	1296,36
497,97	1232,88
498,17	1253,36
498,37	1220,59
498,57	1179,63
498,77	1208,30
498,97	1286,12
499,17	1171,44
499,38	1265,64
499,58	1249,26
499,78	1259,50
499,98	1318,89
500,18	1271,79
500,38	1261,55
500,58	1273,84
500,78	1261,55
500,98	1306,60
501,18	1216,49
501,38	1290,22
501,58	1265,64
501,78	1241,07
501,98	1249,26
502,18	1320,94
502,38	1282,03
502,58	1267,69
502,78	1230,83
502,98	1185,77
503,18	1255,40
503,38	1220,59
503,59	1298,41
503,79	1349,61
503,99	1257,45
504,19	1284,08
504,39	1234,93
504,59	1261,55
504,79	1284,08
504,99	1282,03
505,19	1269,74
505,39	1325,04
505,59	1247,21
505,79	1261,55
505,99	1228,78
506,19	1277,93
506,39	1353,71
506,59	1327,08
506,79	1298,41
506,99	1308,65
507,19	1251,31
507,39	1232,88
507,59	1290,22
507,79	1183,73
507,99	1257,45
508,19	1245,16
508,39	1306,60
508,59	1333,23
508,79	1232,88
508,99	1310,70
509,19	1351,66
509,39	1265,64
509,59	1314,80
509,79	1335,28
509,99	1300,46
510,19	1261,55
510,39	1247,21
510,59	1333,23
510,79	1228,78
510,99	1220,59
511,19	1251,31
511,39	1288,17
511,59	1253,36
511,79	1304,56
511,99	1255,40
512,19	1245,16
512,38	1230,83
512,58	1277,93
512,78	1230,83
512,98	1226,73
513,18	1257,45
513,38	1245,16
513,58	1279,98
513,78	1247,21
513,98	1175,53
514,18	1261,55
514,38	1255,40
514,58	1286,12
514,78	1275,88
514,98	1257,45
515,18	1204,21
515,38	1228,78
515,58	1316,84
515,78	1327,08
515,98	1282,03
516,18	1273,84
516,38	1239,02
516,57	1249,26
516,77	1298,41
516,97	1269,74
517,17	1316,84
517,37	1294,32
517,57	1304,56
517,77	1335,28
517,97	1288,17
518,17	1267,69
518,37	1267,69
518,57	1286,12
518,77	1226,73
518,97	1224,69
519,16	1302,51
519,36	1261,55
519,56	1271,79
519,76	1257,45
519,96	1208,30
520,16	1271,79
520,36	1310,70
520,56	1290,22
520,76	1296,36
520,96	1269,74
521,16	1275,88
521,35	1304,56
521,55	1265,64
521,75	1210,35
521,95	1257,45
522,15	1218,54
522,35	1177,58
522,55	1189,87
522,75	1249,26
522,95	1245,16
523,14	1267,69
523,34	1257,45
523,54	1259,50
523,74	1318,89
523,94	1249,26
524,14	1298,41
524,34	1267,69
524,54	1296,36
524,73	1243,12
524,93	1257,45
525,13	1284,08
525,33	1261,55
525,53	1224,69
525,73	1296,36
525,93	1193,97
526,13	1302,51
526,32	1257,45
526,52	1290,22
526,72	1265,64
526,92	1241,07
527,12	1255,40
527,32	1255,40
527,52	1212,40
527,71	1312,75
527,91	1284,08
528,11	1282,03
528,31	1277,93
528,51	1312,75
528,71	1325,04
528,90	1279,98
529,10	1241,07
529,30	1249,26
529,50	1169,39
529,70	1206,25
529,90	1228,78
530,09	1257,45
530,29	1279,98
530,49	1255,40
530,69	1302,51
530,89	1230,83
531,09	1267,69
531,28	1314,80
531,48	1226,73
531,68	1232,88
531,88	1200,11
532,08	1212,40
532,28	1286,12
532,47	1234,93
532,67	1294,32
532,87	1243,12
533,07	1294,32
533,27	1189,87
533,46	1269,74
533,66	1286,12
533,86	1265,64
534,06	1251,31
534,26	1271,79
534,45	1234,93
534,65	1253,36
534,85	1257,45
535,05	1310,70
535,25	1241,07
535,44	1249,26
535,64	1253,36
535,84	1284,08
536,04	1312,75
536,24	1366,00
536,43	1257,45
536,63	1308,65
536,83	1241,07
537,03	1277,93
537,22	1286,12
537,42	1302,51
537,62	1286,12
537,82	1230,83
538,02	1298,41
538,21	1263,60
538,41	1333,23
538,61	1261,55
538,81	1284,08
539,00	1273,84
539,20	1298,41
539,40	1253,36
539,60	1251,31
539,79	1331,18
539,99	1210,35
540,19	1255,40
540,39	1236,97
540,58	1298,41
540,78	1275,88
540,98	1236,97
541,18	1249,26
541,37	1247,21
541,57	1267,69
541,77	1277,93
541,97	1282,03
542,16	1351,66
542,36	1286,12
542,56	1241,07
542,76	1286,12
542,95	1306,60
543,15	1273,84
543,35	1245,16
543,54	1239,02
543,74	1343,47
543,94	1284,08
544,14	1312,75
544,33	1339,37
544,53	1290,22
544,73	1263,60
544,93	1312,75
545,12	1226,73
545,32	1296,36
545,52	1279,98
545,71	1271,79
545,91	1314,80
546,11	1216,49
546,30	1304,56
546,50	1273,84
546,70	1216,49
546,90	1234,93
547,09	1234,93
547,29	1239,02
547,49	1310,70
547,68	1282,03
547,88	1269,74
548,08	1230,83
548,27	1372,14
548,47	1290,22
548,67	1136,62
548,87	1284,08
549,06	1202,16
549,26	1343,47
549,46	1208,30
549,65	1279,98
549,85	1228,78
550,05	1245,16
550,24	1304,56
550,44	1361,90
550,64	1239,02
550,83	1273,84
551,03	1327,08
551,23	1275,88
551,42	1265,64
551,62	1236,97
551,82	1318,89
552,01	1236,97
552,21	1236,97
552,41	1271,79
552,60	1318,89
552,80	1271,79
553,00	1300,46
553,19	1314,80
553,39	1277,93
553,59	1257,45
553,78	1388,52
553,98	1296,36
554,17	1286,12
554,37	1265,64
554,57	1193,97
554,76	1282,03
554,96	1261,55
555,16	1294,32
555,35	1200,11
555,55	1320,94
555,75	1253,36
555,94	1347,56
556,14	1193,97
556,33	1273,84
556,53	1325,04
556,73	1300,46
556,92	1304,56
557,12	1333,23
557,32	1277,93
557,51	1298,41
557,71	1261,55
557,90	1271,79
558,10	1198,06
558,30	1255,40
558,49	1310,70
558,69	1234,93
558,88	1275,88
559,08	1249,26
559,28	1214,45
559,47	1189,87
559,67	1261,55
559,86	1253,36
560,06	1241,07
560,26	1288,17
560,45	1279,98
560,65	1292,27
560,84	1261,55
561,04	1206,25
561,24	1239,02
561,43	1263,60
561,63	1243,12
561,82	1302,51
562,02	1267,69
562,22	1271,79
562,41	1282,03
562,61	1247,21
562,80	1247,21
563,00	1288,17
563,19	1273,84
563,39	1329,13
563,59	1269,74
563,78	1302,51
563,98	1253,36
564,17	1310,70
564,37	1218,54
564,56	1212,40
564,76	1265,64
564,96	1296,36
565,15	1243,12
565,35	1292,27
565,54	1267,69
565,74	1310,70
565,93	1265,64
566,13	1255,40
566,32	1316,84
566,52	1253,36
566,71	1257,45
566,91	1310,70
567,11	1212,40
567,30	1249,26
567,50	1228,78
567,69	1292,27
567,89	1257,45
568,08	1292,27
568,28	1271,79
568,47	1273,84
568,67	1288,17
568,86	1247,21
569,06	1290,22
569,25	1261,55
569,45	1290,22
569,64	1314,80
569,84	1259,50
570,04	1175,53
570,23	1296,36
570,43	1200,11
570,62	1255,40
570,82	1304,56
571,01	1239,02
571,21	1224,69
571,40	1204,21
571,60	1337,32
571,79	1269,74
571,99	1279,98
572,18	1249,26
572,38	1247,21
572,57	1333,23
572,77	1284,08
572,96	1269,74
573,16	1275,88
573,35	1247,21
573,55	1263,60
573,74	1257,45
573,94	1273,84
574,13	1294,32
574,33	1302,51
574,52	1286,12
574,71	1304,56
574,91	1282,03
575,10	1243,12
575,30	1236,97
575,49	1298,41
575,69	1306,60
575,88	1202,16
576,08	1204,21
576,27	1290,22
576,47	1294,32
576,66	1322,99
576,86	1243,12
577,05	1300,46
577,25	1304,56
577,44	1255,40
577,64	1247,21
577,83	1224,69
578,02	1261,55
578,22	1273,84
578,41	1302,51
578,61	1232,88
578,80	1282,03
579,00	1255,40
579,19	1269,74
579,39	1247,21
579,58	1253,36
579,77	1296,36
579,97	1318,89
580,16	1249,26
580,36	1265,64
580,55	1269,74
580,75	1218,54
580,94	1255,40
581,13	1302,51
581,33	1243,12
581,52	1286,12
581,72	1232,88
581,91	1286,12
582,11	1296,36
582,30	1253,36
582,49	1286,12
582,69	1271,79
582,88	1263,60
583,08	1257,45
583,27	1249,26
583,47	1257,45
583,66	1228,78
583,85	1234,93
584,05	1236,97
584,24	1298,41
584,44	1282,03
584,63	1206,25
584,82	1212,40
585,02	1273,84
585,21	1239,02
585,41	1286,12
585,60	1271,79
585,79	1275,88
585,99	1208,30
586,18	1253,36
586,37	1224,69
586,57	1316,84
586,76	1259,50
586,96	1257,45
587,15	1253,36
587,34	1294,32
587,54	1259,50
587,73	1286,12
587,93	1259,50
588,12	1220,59
588,31	1290,22
588,51	1277,93
588,70	1263,60
588,89	1341,42
589,09	1286,12
589,28	1290,22
589,47	1220,59
589,67	1292,27
589,86	1214,45
590,06	1263,60
590,25	1220,59
590,44	1310,70
590,64	1316,84
590,83	1277,93
591,02	1267,69
591,22	1271,79
591,41	1243,12
591,60	1296,36
591,80	1277,93
591,99	1265,64
592,18	1247,21
592,38	1290,22
592,57	1290,22
592,76	1214,45
592,96	1306,60
593,15	1251,31
593,34	1253,36
593,54	1282,03
593,73	1216,49
593,92	1359,85
594,12	1263,60
594,31	1347,56
594,50	1243,12
594,70	1243,12
594,89	1275,88
595,08	1232,88
595,28	1230,83
595,47	1320,94
595,66	1271,79
595,86	1263,60
596,05	1216,49
596,24	1257,45
596,43	1327,08
596,63	1310,70
596,82	1271,79
597,01	1249,26
597,21	1327,08
597,40	1329,13
597,59	1284,08
597,79	1245,16
597,98	1267,69
598,17	1253,36
598,36	1226,73
598,56	1320,94
598,75	1279,98
598,94	1318,89
599,14	1286,12
599,33	1251,31
599,52	1306,60
599,71	1298,41
599,91	1279,98
600,10	1320,94
600,29	1257,45
600,48	1259,50
600,68	1271,79
600,87	1310,70
601,06	1263,60
601,26	1304,56
601,45	1243,12
601,64	1251,31
601,83	1230,83
602,03	1138,67
602,22	1308,65
602,41	1273,84
602,60	1245,16
602,80	1271,79
602,99	1243,12
603,18	1269,74
603,37	1312,75
603,57	1345,52
603,76	1300,46
603,95	1279,98
604,14	1208,30
604,34	1304,56
604,53	1241,07
604,72	1282,03
604,91	1230,83
605,10	1202,16
605,30	1372,14
605,49	1243,12
605,68	1271,79
605,87	1277,93
606,07	1288,17
606,26	1220,59
606,45	1271,79
606,64	1202,16
606,84	1222,64
607,03	1261,55
607,22	1355,76
607,41	1259,50
607,60	1230,83
607,80	1341,42
607,99	1292,27
608,18	1370,09
608,37	1212,40
608,56	1234,93
608,76	1325,04
608,95	1200,11
609,14	1257,45
609,33	1261,55
609,52	1253,36
609,72	1241,07
609,91	1286,12
610,10	1308,65
610,29	1368,04
610,48	1253,36
610,68	1224,69
610,87	1277,93
611,06	1333,23
611,25	1284,08
611,44	1273,84
611,63	1261,55
611,83	1216,49
612,02	1279,98
612,21	1241,07
612,40	1228,78
612,59	1329,13
612,79	1282,03
612,98	1171,44
613,17	1226,73
613,36	1267,69
613,55	1331,18
613,74	1239,02
613,93	1314,80
614,13	1216,49
614,32	1320,94
614,51	1327,08
614,70	1288,17
614,89	1306,60
615,08	1318,89
615,28	1363,95
615,47	1302,51
615,66	1325,04
615,85	1249,26
616,04	1327,08
616,23	1341,42
616,42	1261,55
616,62	1288,17
616,81	1267,69
617,00	1224,69
617,19	1243,12
617,38	1224,69
617,57	1279,98
617,76	1257,45
617,95	1259,50
618,15	1357,80
618,34	1220,59
618,53	1282,03
618,72	1284,08
618,91	1327,08
619,10	1310,70
619,29	1322,99
619,48	1322,99
619,68	1296,36
619,87	1277,93
620,06	1300,46
620,25	1212,40
620,44	1300,46
620,63	1345,52
620,82	1286,12
621,01	1257,45
621,20	1247,21
621,39	1216,49
621,59	1271,79
621,78	1267,69
621,97	1302,51
622,16	1359,85
622,35	1273,84
622,54	1300,46
622,73	1251,31
622,92	1273,84
623,11	1325,04
623,30	1300,46
623,49	1198,06
623,68	1310,70
623,88	1320,94
624,07	1337,32
624,26	1296,36
624,45	1234,93
624,64	1284,08
624,83	1296,36
625,02	1212,40
625,21	1257,45
625,40	1220,59
625,59	1263,60
625,78	1308,65
625,97	1269,74
626,16	1245,16
626,35	1296,36
626,54	1339,37
626,74	1333,23
626,93	1331,18
627,12	1230,83
627,31	1259,50
627,50	1282,03
627,69	1247,21
627,88	1269,74
628,07	1282,03
628,26	1269,74
628,45	1232,88
628,64	1271,79
628,83	1292,27
629,02	1249,26
629,21	1294,32
629,40	1333,23
629,59	1282,03
629,78	1347,56
629,97	1304,56
630,16	1339,37
630,35	1277,93
630,54	1329,13
630,73	1390,57
630,92	1271,79
631,11	1308,65
631,30	1343,47
631,49	1335,28
631,68	1304,56
631,87	1431,53
632,06	1609,70
632,25	1429,48
632,44	1458,15
632,63	1699,81
632,82	2125,79
633,01	3885,00
633,20	3475,40
633,39	3330,00
633,58	2201,57
633,77	2027,49
633,96	3033,04
634,15	4530,11
634,34	4409,28
634,53	3516,36
634,72	2379,74
634,91	1933,28
635,10	1658,85
635,29	1599,46
635,48	1533,93
635,67	1472,49
635,86	1558,50
636,05	1425,39
636,24	1421,29
636,43	1366,00
636,62	1355,76
636,81	1239,02
637,00	1363,95
637,19	1316,84
637,38	1259,50
637,57	1253,36
637,76	1353,71
637,95	1296,36
638,14	1286,12
638,33	1345,52
638,52	1314,80
638,71	1269,74
638,89	1253,36
639,08	1286,12
639,27	1310,70
639,46	1239,02
639,65	1380,33
639,84	1259,50
640,03	1290,22
640,22	1208,30
640,41	1224,69
640,60	1267,69
640,79	1261,55
640,98	1210,35
641,17	1357,80
641,36	1314,80
641,55	1314,80
641,74	1277,93
641,92	1304,56
642,11	1347,56
642,30	1284,08
642,49	1216,49
642,68	1247,21
642,87	1214,45
643,06	1273,84
643,25	1290,22
643,44	1273,84
643,63	1339,37
643,82	1304,56
644,00	1341,42
644,19	1284,08
644,38	1282,03
644,57	1284,08
644,76	1212,40
644,95	1306,60
645,14	1282,03
645,33	1296,36
645,52	1257,45
645,71	1310,70
645,89	1273,84
646,08	1282,03
646,27	1294,32
646,46	1204,21
646,65	1282,03
646,84	1308,65
647,03	1310,70
647,22	1282,03
647,40	1228,78
647,59	1296,36
647,78	1273,84
647,97	1273,84
648,16	1314,80
648,35	1282,03
648,54	1253,36
648,73	1198,06
648,91	1222,64
649,10	1267,69
649,29	1245,16
649,48	1263,60
649,67	1249,26
649,86	1288,17
650,05	1261,55
650,23	1300,46
650,42	1277,93
650,61	1269,74
650,80	1316,84
650,99	1265,64
651,18	1320,94
651,36	1269,74
651,55	1255,40
651,74	1302,51
651,93	1271,79
652,12	1273,84
652,31	1267,69
652,49	1279,98
652,68	1224,69
652,87	1265,64
653,06	1222,64
653,25	1310,70
653,44	1259,50
653,62	1247,21
653,81	1249,26
654,00	1253,36
654,19	1236,97
654,38	1343,47
654,56	1279,98
654,75	1275,88
654,94	1302,51
655,13	1300,46
655,32	1234,93
655,51	1288,17
655,69	1269,74
655,88	1226,73
656,07	1271,79
656,26	1208,30
656,45	1298,41
656,63	1200,11
656,82	1327,08
657,01	1265,64
657,20	1359,85
657,38	1269,74
657,57	1292,27
657,76	1271,79
657,95	1263,60
658,14	1310,70
658,32	1290,22
658,51	1265,64
658,70	1345,52
658,89	1302,51
659,08	1294,32
659,26	1263,60
659,45	1212,40
659,64	1290,22
659,83	1288,17
660,01	1308,65
660,20	1290,22
660,39	1294,32
660,58	1282,03
660,76	1316,84
660,95	1257,45
661,14	1339,37
661,33	1337,32
661,51	1234,93
661,70	1255,40
661,89	1294,32
662,08	1277,93
662,26	1263,60
662,45	1277,93
662,64	1294,32
662,83	1212,40
663,01	1269,74
663,20	1269,74
663,39	1306,60
663,58	1243,12
663,76	1224,69
663,95	1296,36
664,14	1298,41
664,32	1191,92
664,51	1230,83
664,70	1263,60
664,89	1310,70
665,07	1230,83
665,26	1306,60
665,45	1251,31
665,64	1243,12
665,82	1243,12
666,01	1296,36
666,20	1294,32
666,38	1255,40
666,57	1222,64
666,76	1255,40
666,95	1239,02
667,13	1249,26
667,32	1177,58
667,51	1290,22
667,69	1198,06
667,88	1329,13
668,07	1243,12
668,25	1241,07
668,44	1220,59
668,63	1329,13
668,81	1267,69
669,00	1265,64
669,19	1300,46
669,38	1214,45
669,56	1269,74
669,75	1325,04
669,94	1279,98
670,12	1284,08
670,31	1271,79
670,50	1376,24
670,68	1294,32
670,87	1318,89
671,06	1277,93
671,24	1224,69
671,43	1261,55
671,62	1273,84
671,80	1310,70
671,99	1263,60
672,18	1257,45
672,36	1347,56
672,55	1353,71
672,74	1290,22
672,92	1310,70
673,11	1265,64
673,29	1206,25
673,48	1296,36
673,67	1261,55
673,85	1263,60
674,04	1298,41
674,23	1259,50
674,41	1277,93
674,60	1308,65
674,79	1269,74
674,97	1329,13
675,16	1169,39
675,34	1282,03
675,53	1263,60
675,72	1236,97
675,90	1267,69
676,09	1259,50
676,28	1196,01
676,46	1234,93
676,65	1245,16
676,83	1292,27
677,02	1206,25
677,21	1206,25
677,39	1218,54
677,58	1288,17
677,77	1284,08
677,95	1259,50
678,14	1214,45
678,32	1279,98
678,51	1263,60
678,70	1220,59
678,88	1290,22
679,07	1282,03
679,25	1263,60
679,44	1271,79
679,63	1269,74
679,81	1271,79
680,00	1234,93
680,18	1271,79
680,37	1263,60
680,55	1269,74
680,74	1257,45
680,93	1241,07
681,11	1212,40
681,30	1294,32
681,48	1243,12
681,67	1273,84
681,85	1230,83
682,04	1267,69
682,23	1249,26
682,41	1273,84
682,60	1277,93
682,78	1269,74
682,97	1202,16
683,15	1308,65
683,34	1263,60
683,53	1241,07
683,71	1335,28
683,90	1339,37
684,08	1337,32
684,27	1210,35
684,45	1292,27
684,64	1245,16
684,82	1220,59
685,01	1257,45
685,19	1249,26
685,38	1304,56
685,57	1210,35
685,75	1234,93
685,94	1239,02
686,12	1306,60
686,31	1220,59
686,49	1245,16
686,68	1261,55
686,86	1265,64
687,05	1277,93
687,23	1249,26
687,42	1210,35
687,60	1222,64
687,79	1292,27
687,97	1271,79
688,16	1226,73
688,34	1329,13
688,53	1284,08
688,71	1196,01
688,90	1308,65
689,08	1300,46
689,27	1212,40
689,45	1251,31
689,64	1337,32
689,82	1273,84
690,01	1224,69
690,19	1310,70
690,38	1214,45
690,56	1279,98
690,75	1255,40
690,93	1232,88
691,12	1275,88
691,30	1347,56
691,49	1257,45
691,67	1306,60
691,86	1302,51
692,04	1179,63
692,23	1251,31
692,41	1210,35
692,60	1318,89
692,78	1304,56
692,97	1249,26
693,15	1222,64
693,34	1234,93
693,52	1265,64
693,71	1261,55
693,89	1261,55
694,08	1306,60
694,26	1263,60
694,44	1296,36
694,63	1363,95
694,81	1263,60
695,00	1296,36
695,18	1243,12
695,37	1290,22
695,55	1288,17
695,74	1247,21
695,92	1245,16
696,10	1263,60
696,29	1298,41
696,47	1198,06
696,66	1191,92
696,84	1222,64
697,03	1261,55
697,21	1222,64
697,40	1331,18
697,58	1228,78
697,76	1236,97
697,95	1265,64
698,13	1175,53
698,32	1282,03
698,50	1333,23
698,68	1277,93
698,87	1292,27
699,05	1218,54
699,24	1292,27
699,42	1228,78
699,61	1259,50
699,79	1247,21
699,97	1282,03
700,16	1251,31
700,34	1232,88
700,53	1298,41
700,71	1312,75
700,89	1284,08
701,08	1265,64
701,26	1273,84
701,45	1314,80
701,63	1236,97
701,81	1320,94
702,00	1230,83
702,18	1202,16
702,37	1259,50
702,55	1277,93
702,73	1273,84
702,92	1282,03
703,10	1288,17
703,28	1259,50
703,47	1271,79
703,65	1265,64
703,84	1279,98
704,02	1282,03
704,20	1277,93
704,39	1279,98
704,57	1273,84
704,75	1261,55
704,94	1357,80
705,12	1208,30
705,30	1288,17
705,49	1245,16
705,67	1273,84
705,86	1243,12
706,04	1351,66
706,22	1308,65
706,41	1286,12
706,59	1234,93
706,77	1284,08
706,96	1206,25
707,14	1294,32
707,32	1273,84
707,51	1314,80
707,69	1214,45
707,87	1271,79
708,06	1294,32
708,24	1277,93
708,42	1267,69
708,61	1275,88
708,79	1300,46
708,97	1298,41
709,16	1290,22
709,34	1263,60
709,52	1249,26
709,71	1263,60
709,89	1308,65
710,07	1310,70
710,26	1202,16
710,44	1337,32
710,62	1247,21
710,80	1204,21
710,99	1304,56
711,17	1249,26
711,35	1304,56
711,54	1249,26
711,72	1279,98
711,90	1306,60
712,09	1222,64
712,27	1304,56
712,45	1243,12
712,63	1318,89
712,82	1257,45
713,00	1335,28
713,18	1300,46
713,37	1239,02
713,55	1204,21
713,73	1257,45
713,91	1304,56
714,10	1273,84
714,28	1345,52
714,46	1271,79
714,65	1298,41
714,83	1306,60
715,01	1259,50
715,19	1269,74
715,38	1261,55
715,56	1163,25
715,74	1208,30
715,92	1322,99
716,11	1312,75
716,29	1245,16
716,47	1230,83
716,65	1331,18
716,84	1271,79
717,02	1345,52
717,20	1222,64
717,38	1196,01
717,57	1191,92
717,75	1251,31
717,93	1306,60
718,11	1269,74
718,30	1273,84
718,48	1298,41
718,66	1265,64
718,84	1273,84
719,03	1267,69
719,21	1275,88
719,39	1331,18
719,57	1224,69
719,75	1257,45
719,94	1275,88
720,12	1277,93
720,30	1290,22
720,48	1306,60
720,67	1261,55
720,85	1308,65
721,03	1271,79
721,21	1288,17
721,39	1316,84
721,58	1302,51
721,76	1226,73
721,94	1191,92
722,12	1259,50
722,30	1337,32
722,49	1302,51
722,67	1263,60
722,85	1263,60
723,03	1232,88
723,21	1279,98
723,40	1277,93
723,58	1273,84
723,76	1300,46
723,94	1288,17
724,12	1245,16
724,30	1294,32
724,49	1310,70
724,67	1247,21
724,85	1310,70
725,03	1267,69
725,21	1253,36
725,40	1271,79
725,58	1286,12
725,76	1273,84
725,94	1222,64
726,12	1271,79
726,30	1261,55
726,49	1265,64
726,67	1310,70
726,85	1239,02
727,03	1282,03
727,21	1298,41
727,39	1236,97
727,57	1290,22
727,76	1232,88
727,94	1286,12
728,12	1189,87
728,30	1273,84
728,48	1210,35
728,66	1253,36
728,84	1314,80
729,03	1273,84
729,21	1265,64
729,39	1222,64
729,57	1286,12
729,75	1282,03
729,93	1239,02
730,11	1239,02
730,30	1284,08
730,48	1247,21
730,66	1228,78
730,84	1271,79
731,02	1187,82
731,20	1316,84
731,38	1212,40
731,56	1374,19
731,74	1255,40
731,93	1273,84
732,11	1277,93
732,29	1173,49
732,47	1265,64
732,65	1306,60
732,83	1286,12
733,01	1288,17
733,19	1271,79
733,37	1329,13
733,56	1288,17
733,74	1327,08
733,92	1208,30
734,10	1300,46
734,28	1282,03
734,46	1302,51
734,64	1290,22
734,82	1224,69
735,00	1224,69
735,18	1239,02
735,36	1267,69
735,54	1345,52
735,73	1245,16
735,91	1177,58
736,09	1232,88
736,27	1239,02
736,45	1306,60
736,63	1230,83
736,81	1310,70
736,99	1249,26
737,17	1239,02
737,35	1261,55
737,53	1349,61
737,71	1279,98
737,89	1241,07
738,07	1230,83
738,25	1314,80
738,43	1304,56
738,61	1253,36
738,80	1298,41
738,98	1302,51
739,16	1212,40
739,34	1226,73
739,52	1257,45
739,70	1296,36
739,88	1259,50
740,06	1304,56
740,24	1322,99
740,42	1302,51
740,60	1261,55
740,78	1329,13
740,96	1226,73
741,14	1228,78
741,32	1222,64
741,50	1212,40
741,68	1312,75
741,86	1232,88
742,04	1183,73
742,22	1261,55
742,40	1222,64
742,58	1212,40
742,76	1273,84
742,94	1325,04
743,12	1271,79
743,30	1265,64
743,48	1202,16
743,66	1251,31
743,84	1255,40
744,02	1314,80
744,20	1204,21
744,38	1298,41
744,56	1228,78
744,74	1208,30
744,92	1306,60
745,10	1288,17
745,28	1308,65
745,46	1208,30
745,64	1251,31
745,82	1335,28
746,00	1312,75
746,18	1290,22
746,36	1304,56
746,54	1232,88
746,72	1226,73
746,90	1210,35
747,08	1308,65
747,26	1331,18
747,44	1279,98
747,62	1247,21
747,80	1286,12
747,98	1273,84
748,15	1241,07
748,33	1329,13
748,51	1279,98
748,69	1277,93
748,87	1275,88
749,05	1224,69
749,23	1357,80
749,41	1212,40
749,59	1245,16
749,77	1286,12
749,95	1329,13
750,13	1232,88
750,31	1298,41
750,49	1247,21
750,67	1345,52
750,85	1294,32
751,03	1277,93
751,20	1288,17
751,38	1318,89
751,56	1228,78
751,74	1296,36
751,92	1247,21
752,10	1277,93
752,28	1251,31
752,46	1290,22
752,64	1277,93
752,82	1261,55
753,00	1294,32
753,18	1331,18
753,35	1247,21
753,53	1265,64
753,71	1263,60
753,89	1263,60
754,07	1236,97
754,25	1265,64
754,43	1265,64
754,61	1226,73
754,79	1271,79
754,97	1275,88
755,14	1220,59
755,32	1314,80
755,50	1298,41
755,68	1247,21
755,86	1247,21
756,04	1296,36
756,22	1296,36
756,40	1265,64
756,57	1224,69
756,75	1290,22
756,93	1265,64
757,11	1310,70
757,29	1232,88
757,47	1206,25
757,65	1331,18
757,82	1189,87
758,00	1222,64
758,18	1247,21
758,36	1261,55
758,54	1294,32
758,72	1210,35
758,90	1271,79
759,07	1302,51
759,25	1269,74
759,43	1288,17
759,61	1198,06
759,79	1376,24
759,97	1241,07
760,15	1206,25
760,32	1210,35
760,50	1292,27
760,68	1294,32
760,86	1245,16
761,04	1263,60
761,22	1335,28
761,39	1273,84
761,57	1249,26
761,75	1304,56
761,93	1329,13
762,11	1202,16
762,28	1316,84
762,46	1255,40
762,64	1259,50
762,82	1327,08
763,00	1300,46
763,18	1290,22
763,35	1210,35
763,53	1290,22
763,71	1232,88
763,89	1347,56
764,07	1265,64
764,24	1306,60
764,42	1269,74
764,60	1247,21
764,78	1296,36
764,96	1331,18
765,13	1306,60
765,31	1279,98
765,49	1232,88
765,67	1300,46
765,84	1277,93
766,02	1218,54
766,20	1232,88
766,38	1288,17
766,56	1277,93
766,73	1304,56
766,91	1322,99
767,09	1294,32
767,27	1255,40
767,44	1241,07
767,62	1265,64
767,80	1226,73
767,98	1243,12
768,15	1249,26
768,33	1218,54
768,51	1226,73
768,69	1308,65
768,87	1271,79
769,04	1312,75
769,22	1245,16
769,40	1265,64
769,58	1257,45
769,75	1279,98
769,93	1339,37
770,11	1288,17
770,28	1298,41
770,46	1261,55
770,64	1312,75
770,82	1275,88
770,99	1298,41
771,17	1228,78
771,35	1251,31
771,53	1282,03
771,70	1320,94
771,88	1302,51
772,06	1271,79
772,23	1277,93
772,41	1298,41
772,59	1273,84
772,77	1271,79
772,94	1200,11
773,12	1259,50
773,30	1286,12
773,47	1255,40
773,65	1253,36
773,83	1298,41
774,01	1288,17
774,18	1298,41
774,36	1255,40
774,54	1259,50
774,71	1327,08
774,89	1335,28
775,07	1232,88
775,24	1247,21
775,42	1282,03
775,60	1273,84
775,78	1259,50
775,95	1288,17
776,13	1284,08
776,31	1296,36
776,48	1292,27
776,66	1279,98
776,84	1294,32
777,01	1273,84
777,19	1167,34
777,37	1224,69
777,54	1247,21
777,72	1282,03
777,90	1253,36
778,07	1271,79
778,25	1241,07
778,43	1224,69
778,60	1212,40
778,78	1265,64
778,96	1314,80
779,13	1271,79
779,31	1275,88
779,49	1269,74
779,66	1224,69
779,84	1265,64
780,01	1216,49
780,19	1167,34
780,37	1212,40
780,54	1261,55
780,72	1220,59
780,90	1243,12
781,07	1236,97
781,25	1234,93
781,43	1202,16
781,60	1241,07
781,78	1290,22
781,95	1265,64
782,13	1234,93
782,31	1298,41
782,48	1294,32
782,66	1206,25
782,83	1282,03
783,01	1316,84
783,19	1257,45
783,36	1251,31
783,54	1261,55
783,72	1236,97
783,89	1202,16
784,07	1302,51
784,24	1306,60
784,42	1263,60
784,60	1232,88
784,77	1228,78
784,95	1275,88
785,12	1271,79
785,30	1296,36
785,47	1296,36
785,65	1298,41
785,83	1249,26
786,00	1253,36
786,18	1331,18
786,35	1269,74
786,53	1337,32
786,71	1290,22
786,88	1322,99
787,06	1304,56
787,23	1335,28
787,41	1224,69
787,58	1304,56
787,76	1269,74
787,94	1239,02
788,11	1282,03
788,29	1275,88
788,46	1208,30
788,64	1320,94
788,81	1261,55
788,99	1159,15
789,16	1265,64
789,34	1306,60
789,52	1183,73
789,69	1322,99
789,87	1302,51
790,04	1271,79
790,22	1300,46
790,39	1249,26
790,57	1253,36
790,74	1247,21
790,92	1298,41
791,09	1265,64
791,27	1234,93
791,44	1331,18
791,62	1208,30
791,79	1325,04
791,97	1290,22
792,15	1271,79
792,32	1239,02
792,50	1245,16
792,67	1314,80
792,85	1236,97
793,02	1218,54
793,20	1282,03
793,37	1331,18
793,55	1310,70
793,72	1241,07
793,90	1306,60
794,07	1220,59
794,25	1306,60
794,42	1277,93
794,60	1249,26
794,77	1208,30
794,95	1306,60
795,12	1341,42
795,30	1277,93
795,47	1277,93
795,65	1214,45
795,82	1273,84
796,00	1206,25
796,17	1314,80
796,34	1247,21
796,52	1284,08
796,69	1228,78
796,87	1267,69
797,04	1304,56
797,22	1265,64
797,39	1320,94
797,57	1245,16
797,74	1265,64
797,92	1275,88
798,09	1310,70
798,27	1290,22
798,44	1249,26
798,62	1286,12
798,79	1273,84
798,96	1245,16
799,14	1241,07
799,31	1314,80
799,49	1232,88
799,66	1282,03
799,84	1316,84
800,01	1304,56
800,19	1212,40
800,36	1296,36
800,53	1284,08
800,71	1271,79
800,88	1249,26
801,06	1277,93
801,23	1267,69
801,41	1247,21
801,58	1335,28
801,75	1259,50
801,93	1318,89
802,10	1312,75
802,28	1351,66
802,45	1243,12
802,63	1284,08
802,80	1212,40
802,97	1273,84
803,15	1308,65
803,32	1327,08
803,50	1245,16
803,67	1300,46
803,84	1206,25
804,02	1292,27
804,19	1304,56
804,37	1230,83
804,54	1337,32
804,71	1273,84
804,89	1236,97
805,06	1271,79
805,24	1296,36
805,41	1300,46
805,58	1251,31
805,76	1279,98
805,93	1230,83
806,10	1247,21
806,28	1310,70
806,45	1251,31
806,63	1241,07
806,80	1234,93
806,97	1279,98
807,15	1341,42
807,32	1277,93
807,49	1193,97
807,67	1290,22
807,84	1306,60
808,01	1236,97
808,19	1312,75
808,36	1269,74
808,54	1279,98
808,71	1337,32
808,88	1230,83
809,06	1206,25
809,23	1335,28
809,40	1290,22
809,58	1327,08
809,75	1306,60
809,92	1222,64
810,10	1306,60
810,27	1296,36
810,44	1239,02
810,62	1245,16
810,79	1286,12
810,96	1318,89
811,14	1359,85
811,31	1288,17
811,48	1228,78
811,66	1314,80
811,83	1261,55
812,00	1294,32
812,18	1265,64
812,35	1253,36
812,52	1284,08
812,69	1288,17
812,87	1310,70
813,04	1300,46
813,21	1271,79
813,39	1286,12
813,56	1327,08
813,73	1349,61
813,91	1261,55
814,08	1267,69
814,25	1239,02
814,42	1230,83
814,60	1318,89
814,77	1298,41
814,94	1236,97
815,12	1220,59
815,29	1257,45
815,46	1216,49
815,63	1265,64
815,81	1341,42
815,98	1255,40
816,15	1265,64
816,33	1279,98
816,50	1292,27
816,67	1300,46
816,84	1318,89
817,02	1196,01
817,19	1279,98
817,36	1269,74
817,53	1312,75
817,71	1230,83
817,88	1275,88
818,05	1257,45
818,22	1312,75
818,40	1239,02
818,57	1300,46
818,74	1228,78
818,91	1320,94
819,09	1294,32
819,26	1245,16
819,43	1216,49
819,60	1312,75
819,78	1249,26
819,95	1282,03
820,12	1243,12
820,29	1310,70
820,47	1241,07
820,64	1253,36
820,81	1245,16
820,98	1230,83
821,15	1339,37
821,33	1294,32
821,50	1265,64
821,67	1232,88
821,84	1232,88
822,02	1275,88
822,19	1210,35
822,36	1226,73
822,53	1257,45
822,70	1345,52
822,88	1257,45
823,05	1230,83
823,22	1286,12
823,39	1208,30
823,56	1239,02
823,74	1273,84
823,91	1277,93
824,08	1232,88
824,25	1271,79
824,42	1245,16
824,60	1314,80
824,77	1318,89
824,94	1277,93
825,11	1216,49
825,28	1310,70
825,45	1279,98
825,63	1288,17
825,80	1236,97
825,97	1265,64
826,14	1286,12
826,31	1255,40
826,48	1275,88
826,66	1226,73
826,83	1228,78
827,00	1325,04
827,17	1193,97
827,34	1277,93
827,51	1206,25
827,69	1212,40
827,86	1255,40
828,03	1269,74
828,20	1320,94
828,37	1267,69
828,54	1265,64
828,71	1206,25
828,89	1314,80
829,06	1232,88
829,23	1232,88
829,40	1228,78
829,57	1286,12
829,74	1302,51
829,91	1265,64
830,09	1282,03
830,26	1249,26
830,43	1275,88
830,60	1259,50
830,77	1191,92
830,94	1298,41
831,11	1322,99
831,28	1249,26
831,46	1298,41
831,63	1261,55
831,80	1263,60
831,97	1308,65
832,14	1247,21
832,31	1314,80
832,48	1359,85
832,65	1325,04
832,82	1204,21
832,99	1241,07
833,17	1181,68
833,34	1218,54
833,51	1282,03
833,68	1259,50
833,85	1212,40
834,02	1247,21
834,19	1239,02
834,36	1335,28
834,53	1232,88
834,70	1245,16
834,87	1249,26
835,04	1298,41
835,22	1329,13
835,39	1185,77
835,56	1255,40
835,73	1230,83
835,90	1294,32
836,07	1222,64
836,24	1271,79
836,41	1228,78
836,58	1245,16
836,75	1228,78
836,92	1216,49
837,09	1304,56
837,26	1304,56
837,43	1296,36
837,60	1251,31
837,77	1259,50
837,94	1202,16
838,12	1351,66
838,29	1232,88
838,46	1310,70
838,63	1236,97
838,80	1320,94
838,97	1290,22
839,14	1290,22
839,31	1249,26
839,48	1218,54
839,65	1290,22
839,82	1325,04
839,99	1245,16
840,16	1255,40
840,33	1220,59
840,50	1288,17
840,67	1265,64
840,84	1255,40
841,01	1239,02
841,18	1271,79
841,35	1290,22
841,52	1298,41
841,69	1282,03
841,86	1259,50
842,03	1257,45
842,20	1234,93
842,37	1255,40
842,54	1198,06
842,71	1259,50
842,88	1265,64
843,05	1279,98
843,22	1208,30
843,39	1286,12
843,56	1222,64
843,73	1226,73
843,90	1220,59
844,07	1308,65
844,24	1230,83
844,41	1318,89
844,58	1288,17
844,75	1351,66
844,92	1241,07
845,09	1263,60
845,26	1304,56
845,43	1261,55
845,60	1249,26
845,77	1290,22
845,94	1193,97
846,10	1249,26
846,27	1318,89
846,44	1259,50
846,61	1302,51
846,78	1234,93
846,95	1273,84
847,12	1214,45
847,29	1288,17
847,46	1282,03
847,63	1245,16
847,80	1335,28
847,97	1312,75
848,14	1339,37
848,31	1298,41
848,48	1216,49
848,65	1306,60
848,82	1245,16
848,98	1310,70
849,15	1279,98
849,32	1249,26
849,49	1269,74
849,66	1265,64
849,83	1316,84
850,00	1314,80
850,17	1279,98
850,34	1341,42
850,51	1322,99
850,68	1212,40
850,85	1335,28
851,01	1273,84
851,18	1345,52
851,35	1265,64
851,52	1208,30
851,69	1265,64
851,86	1300,46
852,03	1249,26
852,20	1345,52
852,37	1318,89
852,53	1222,64
852,70	1300,46
852,87	1308,65
853,04	1249,26
853,21	1239,02
853,38	1263,60
853,55	1226,73
853,72	1218,54
853,89	1277,93
854,05	1206,25
854,22	1286,12
854,39	1347,56
854,56	1208,30
854,73	1290,22
854,90	1269,74
855,07	1288,17
855,23	1249,26
855,40	1284,08
855,57	1234,93
855,74	1302,51
855,91	1277,93
856,08	1193,97
856,25	1304,56
856,41	1273,84
856,58	1327,08
856,75	1304,56
856,92	1345,52
857,09	1269,74
857,26	1300,46
857,42	1241,07
857,59	1210,35
857,76	1277,93
857,93	1271,79
858,10	1257,45
858,27	1261,55
858,43	1261,55
858,60	1279,98
858,77	1277,93
858,94	1245,16
859,11	1253,36
859,27	1302,51
859,44	1302,51
859,61	1306,60
859,78	1202,16
859,95	1267,69
860,12	1347,56
860,28	1255,40
860,45	1327,08
860,62	1314,80
860,79	1226,73
860,95	1230,83
861,12	1261,55
861,29	1327,08
861,46	1224,69
861,63	1193,97
861,79	1263,60
861,96	1284,08
862,13	1290,22
862,30	1271,79
862,47	1341,42
862,63	1265,64
862,80	1286,12
862,97	1284,08
863,14	1259,50
863,30	1253,36
863,47	1288,17
863,64	1239,02
863,81	1294,32
863,97	1306,60
864,14	1261,55
864,31	1255,40
864,48	1234,93
864,65	1302,51
864,81	1288,17
864,98	1271,79
865,15	1306,60
865,32	1241,07
865,48	1288,17
865,65	1279,98
865,82	1232,88
865,98	1257,45
866,15	1284,08
866,32	1279,98
866,49	1286,12
866,65	1279,98
866,82	1204,21
866,99	1306,60
867,16	1243,12
867,32	1234,93
867,49	1300,46
867,66	1247,21
867,83	1286,12
867,99	1282,03
868,16	1183,73
868,33	1261,55
868,49	1282,03
868,66	1320,94
868,83	1277,93
868,99	1251,31
869,16	1318,89
869,33	1308,65
869,50	1286,12
869,66	1255,40
869,83	1282,03
870,00	1269,74
870,16	1271,79
870,33	1327,08
870,50	1239,02
870,66	1251,31
870,83	1257,45
871,00	1253,36
871,17	1271,79
871,33	1314,80
871,50	1271,79
871,67	1284,08
871,83	1247,21
872,00	1261,55
872,17	1249,26
872,33	1208,30
872,50	1253,36
872,67	1288,17
872,83	1312,75
873,00	1294,32
873,17	1261,55
873,33	1269,74
873,50	1255,40
873,67	1296,36
873,83	1218,54
874,00	1261,55
874,16	1282,03
874,33	1298,41
874,50	1181,68
874,66	1263,60
874,83	1196,01
875,00	1224,69
875,16	1279,98
875,33	1265,64
875,50	1236,97
875,66	1218,54
875,83	1306,60
875,99	1269,74
876,16	1306,60
876,33	1247,21
876,49	1232,88
876,66	1247,21
876,83	1277,93
876,99	1300,46
877,16	1388,52
877,32	1249,26
877,49	1288,17
877,66	1275,88
877,82	1275,88
877,99	1251,31
878,15	1304,56
878,32	1271,79
878,49	1275,88
878,65	1288,17
878,82	1279,98
878,98	1253,36
879,15	1253,36
879,32	1261,55
879,48	1273,84
879,65	1284,08
879,81	1255,40
879,98	1216,49
880,15	1255,40
880,31	1288,17
880,48	1320,94
880,64	1255,40
880,81	1306,60
880,97	1343,47
881,14	1275,88
881,31	1279,98
881,47	1277,93
881,64	1218,54
881,80	1189,87
881,97	1230,83
882,13	1282,03
882,30	1294,32
882,47	1296,36
882,63	1253,36
882,80	1318,89
882,96	1277,93
883,13	1300,46
883,29	1257,45
883,46	1200,11
883,62	1304,56
883,79	1230,83
883,95	1224,69
884,12	1247,21
884,29	1243,12
884,45	1320,94
884,62	1224,69
884,78	1329,13
884,95	1259,50
885,11	1208,30
885,28	1335,28
885,44	1320,94
885,61	1296,36
885,77	1271,79
885,94	1298,41
886,10	1263,60
886,27	1306,60
886,43	1345,52
886,60	1239,02
886,76	1290,22
886,93	1273,84
887,09	1257,45
887,26	1241,07
887,42	1224,69
887,59	1322,99
887,75	1335,28
887,92	1171,44
888,08	1234,93
888,25	1308,65
888,41	1232,88
888,58	1329,13
888,74	1298,41
888,91	1251,31
>>>>>End Processed Spectral Data<<<<<
