SpectraSuite Data File
++++++++++++++++++++++++++++++++++++
Date: Sun Apr 03 17:28:04 CEST 2016
User: root
Dark Spectrum Present: No
Reference Spectrum Present: No
Number of Sampled Component Spectra: 1
Spectrometers: USB4C02835
Integration Time (usec): 10000 (USB4C02835)
Spectra Averaged: 1 (USB4C02835)
Boxcar Smoothing: 0 (USB4C02835)
Correct for Electrical Dark: No (USB4C02835)
Strobe/Lamp Enabled: No (USB4C02835)
Correct for Detector Non-linearity: No (USB4C02835)
Correct for Stray Light: No (USB4C02835)
Number of Pixels in Processed Spectrum: 3648
>>>>>Begin Processed Spectral Data<<<<<
177,47	1306,60
177,69	1306,60
177,91	1306,60
178,13	1275,88
178,36	1267,69
178,58	1249,26
178,80	1275,88
179,02	1236,97
179,24	1257,45
179,46	1312,75
179,68	1259,50
179,90	1304,56
180,13	1267,69
180,35	1263,60
180,57	1310,70
180,79	1331,18
181,01	1204,21
181,23	1253,36
181,45	1230,83
181,67	1273,84
181,90	1337,32
182,12	1200,11
182,34	1288,17
182,56	1257,45
182,78	1331,18
183,00	1234,93
183,22	1282,03
183,44	1325,04
183,66	1279,98
183,89	1316,84
184,11	1279,98
184,33	1288,17
184,55	1351,66
184,77	1208,30
184,99	1261,55
185,21	1294,32
185,43	1222,64
185,65	1304,56
185,87	1191,92
186,10	1249,26
186,32	1271,79
186,54	1257,45
186,76	1255,40
186,98	1267,69
187,20	1257,45
187,42	1269,74
187,64	1327,08
187,86	1251,31
188,08	1304,56
188,30	1275,88
188,52	1251,31
188,75	1253,36
188,97	1212,40
189,19	1296,36
189,41	1306,60
189,63	1286,12
189,85	1249,26
190,07	1282,03
190,29	1279,98
190,51	1286,12
190,73	1232,88
190,95	1335,28
191,17	1316,84
191,39	1214,45
191,61	1224,69
191,84	1259,50
192,06	1298,41
192,28	1165,29
192,50	1249,26
192,72	1273,84
192,94	1239,02
193,16	1290,22
193,38	1355,76
193,60	1243,12
193,82	1255,40
194,04	1296,36
194,26	1212,40
194,48	1345,52
194,70	1308,65
194,92	1329,13
195,14	1202,16
195,36	1269,74
195,58	1302,51
195,80	1236,97
196,02	1232,88
196,24	1249,26
196,46	1279,98
196,69	1265,64
196,91	1329,13
197,13	1230,83
197,35	1294,32
197,57	1269,74
197,79	1255,40
198,01	1382,38
198,23	1275,88
198,45	1263,60
198,67	1284,08
198,89	1269,74
199,11	1349,61
199,33	1310,70
199,55	1271,79
199,77	1261,55
199,99	1296,36
200,21	1275,88
200,43	1300,46
200,65	1185,77
200,87	1253,36
201,09	1218,54
201,31	1322,99
201,53	1259,50
201,75	1212,40
201,97	1234,93
202,19	1228,78
202,41	1257,45
202,63	1269,74
202,85	1327,08
203,07	1243,12
203,29	1271,79
203,51	1288,17
203,73	1226,73
203,95	1265,64
204,17	1292,27
204,39	1333,23
204,61	1179,63
204,83	1253,36
205,05	1304,56
205,27	1275,88
205,49	1234,93
205,71	1288,17
205,93	1288,17
206,15	1296,36
206,37	1267,69
206,59	1298,41
206,81	1214,45
207,03	1347,56
207,25	1226,73
207,47	1275,88
207,69	1269,74
207,91	1257,45
208,13	1345,52
208,34	1269,74
208,56	1202,16
208,78	1269,74
209,00	1228,78
209,22	1241,07
209,44	1286,12
209,66	1251,31
209,88	1277,93
210,10	1327,08
210,32	1216,49
210,54	1349,61
210,76	1204,21
210,98	1228,78
211,20	1290,22
211,42	1286,12
211,64	1314,80
211,86	1286,12
212,08	1222,64
212,30	1273,84
212,52	1275,88
212,74	1236,97
212,96	1294,32
213,17	1263,60
213,39	1232,88
213,61	1327,08
213,83	1294,32
214,05	1232,88
214,27	1310,70
214,49	1353,71
214,71	1273,84
214,93	1296,36
215,15	1302,51
215,37	1282,03
215,59	1226,73
215,81	1234,93
216,03	1265,64
216,24	1261,55
216,46	1314,80
216,68	1273,84
216,90	1269,74
217,12	1249,26
217,34	1284,08
217,56	1263,60
217,78	1259,50
218,00	1316,84
218,22	1157,10
218,44	1257,45
218,66	1253,36
218,87	1269,74
219,09	1228,78
219,31	1279,98
219,53	1257,45
219,75	1318,89
219,97	1265,64
220,19	1232,88
220,41	1279,98
220,63	1327,08
220,85	1292,27
221,06	1243,12
221,28	1212,40
221,50	1312,75
221,72	1269,74
221,94	1292,27
222,16	1247,21
222,38	1261,55
222,60	1273,84
222,82	1265,64
223,03	1288,17
223,25	1251,31
223,47	1257,45
223,69	1298,41
223,91	1290,22
224,13	1271,79
224,35	1265,64
224,57	1232,88
224,78	1269,74
225,00	1239,02
225,22	1253,36
225,44	1253,36
225,66	1249,26
225,88	1275,88
226,10	1290,22
226,32	1314,80
226,53	1302,51
226,75	1232,88
226,97	1312,75
227,19	1183,73
227,41	1216,49
227,63	1306,60
227,85	1265,64
228,06	1282,03
228,28	1265,64
228,50	1273,84
228,72	1269,74
228,94	1282,03
229,16	1294,32
229,37	1255,40
229,59	1249,26
229,81	1249,26
230,03	1294,32
230,25	1265,64
230,47	1263,60
230,69	1257,45
230,90	1284,08
231,12	1273,84
231,34	1255,40
231,56	1204,21
231,78	1255,40
232,00	1265,64
232,21	1259,50
232,43	1196,01
232,65	1245,16
232,87	1247,21
233,09	1282,03
233,30	1292,27
233,52	1269,74
233,74	1253,36
233,96	1212,40
234,18	1245,16
234,40	1214,45
234,61	1290,22
234,83	1279,98
235,05	1288,17
235,27	1253,36
235,49	1271,79
235,70	1277,93
235,92	1282,03
236,14	1253,36
236,36	1263,60
236,58	1300,46
236,79	1288,17
237,01	1275,88
237,23	1302,51
237,45	1214,45
237,67	1261,55
237,88	1247,21
238,10	1331,18
238,32	1302,51
238,54	1298,41
238,76	1267,69
238,97	1224,69
239,19	1294,32
239,41	1277,93
239,63	1296,36
239,85	1292,27
240,06	1282,03
240,28	1273,84
240,50	1261,55
240,72	1259,50
240,93	1228,78
241,15	1261,55
241,37	1275,88
241,59	1292,27
241,81	1288,17
242,02	1208,30
242,24	1286,12
242,46	1236,97
242,68	1277,93
242,89	1325,04
243,11	1257,45
243,33	1282,03
243,55	1224,69
243,76	1275,88
243,98	1298,41
244,20	1189,87
244,42	1239,02
244,64	1298,41
244,85	1316,84
245,07	1232,88
245,29	1263,60
245,51	1316,84
245,72	1241,07
245,94	1279,98
246,16	1220,59
246,38	1282,03
246,59	1314,80
246,81	1212,40
247,03	1316,84
247,24	1255,40
247,46	1255,40
247,68	1294,32
247,90	1308,65
248,11	1277,93
248,33	1294,32
248,55	1271,79
248,77	1228,78
248,98	1257,45
249,20	1304,56
249,42	1241,07
249,64	1267,69
249,85	1349,61
250,07	1183,73
250,29	1279,98
250,50	1189,87
250,72	1236,97
250,94	1239,02
251,16	1277,93
251,37	1304,56
251,59	1239,02
251,81	1245,16
252,02	1257,45
252,24	1298,41
252,46	1322,99
252,68	1230,83
252,89	1322,99
253,11	1259,50
253,33	1279,98
253,54	1212,40
253,76	1271,79
253,98	1296,36
254,20	1253,36
254,41	1275,88
254,63	1239,02
254,85	1234,93
255,06	1271,79
255,28	1265,64
255,50	1325,04
255,71	1271,79
255,93	1261,55
256,15	1202,16
256,36	1179,63
256,58	1273,84
256,80	1189,87
257,02	1308,65
257,23	1265,64
257,45	1263,60
257,67	1294,32
257,88	1316,84
258,10	1322,99
258,32	1239,02
258,53	1257,45
258,75	1212,40
258,97	1277,93
259,18	1308,65
259,40	1138,67
259,62	1314,80
259,83	1202,16
260,05	1230,83
260,27	1306,60
260,48	1290,22
260,70	1255,40
260,92	1318,89
261,13	1275,88
261,35	1243,12
261,57	1296,36
261,78	1302,51
262,00	1290,22
262,22	1245,16
262,43	1263,60
262,65	1222,64
262,86	1265,64
263,08	1292,27
263,30	1284,08
263,51	1269,74
263,73	1239,02
263,95	1239,02
264,16	1275,88
264,38	1279,98
264,60	1327,08
264,81	1302,51
265,03	1243,12
265,25	1298,41
265,46	1310,70
265,68	1322,99
265,89	1208,30
266,11	1316,84
266,33	1345,52
266,54	1253,36
266,76	1298,41
266,98	1222,64
267,19	1247,21
267,41	1316,84
267,62	1325,04
267,84	1296,36
268,06	1339,37
268,27	1234,93
268,49	1300,46
268,70	1310,70
268,92	1259,50
269,14	1224,69
269,35	1273,84
269,57	1220,59
269,79	1214,45
270,00	1298,41
270,22	1230,83
270,43	1249,26
270,65	1257,45
270,87	1153,01
271,08	1232,88
271,30	1206,25
271,51	1239,02
271,73	1374,19
271,95	1253,36
272,16	1241,07
272,38	1263,60
272,59	1249,26
272,81	1282,03
273,02	1234,93
273,24	1230,83
273,46	1271,79
273,67	1265,64
273,89	1286,12
274,10	1314,80
274,32	1257,45
274,54	1273,84
274,75	1284,08
274,97	1273,84
275,18	1232,88
275,40	1198,06
275,61	1327,08
275,83	1263,60
276,05	1226,73
276,26	1263,60
276,48	1257,45
276,69	1236,97
276,91	1255,40
277,12	1308,65
277,34	1339,37
277,55	1239,02
277,77	1275,88
277,99	1294,32
278,20	1368,04
278,42	1302,51
278,63	1312,75
278,85	1267,69
279,06	1271,79
279,28	1310,70
279,49	1204,21
279,71	1300,46
279,93	1310,70
280,14	1288,17
280,36	1322,99
280,57	1249,26
280,79	1249,26
281,00	1269,74
281,22	1292,27
281,43	1300,46
281,65	1243,12
281,86	1279,98
282,08	1224,69
282,29	1261,55
282,51	1263,60
282,73	1296,36
282,94	1239,02
283,16	1261,55
283,37	1306,60
283,59	1208,30
283,80	1265,64
284,02	1312,75
284,23	1308,65
284,45	1290,22
284,66	1226,73
284,88	1198,06
285,09	1267,69
285,31	1261,55
285,52	1191,92
285,74	1232,88
285,95	1267,69
286,17	1296,36
286,38	1318,89
286,60	1314,80
286,81	1191,92
287,03	1288,17
287,24	1222,64
287,46	1173,49
287,67	1224,69
287,89	1214,45
288,10	1277,93
288,32	1282,03
288,53	1322,99
288,75	1230,83
288,96	1335,28
289,18	1304,56
289,39	1239,02
289,61	1263,60
289,82	1269,74
290,04	1253,36
290,25	1341,42
290,47	1339,37
290,68	1259,50
290,90	1322,99
291,11	1308,65
291,33	1380,33
291,54	1241,07
291,76	1273,84
291,97	1277,93
292,18	1271,79
292,40	1228,78
292,61	1325,04
292,83	1325,04
293,04	1175,53
293,26	1169,39
293,47	1353,71
293,69	1187,82
293,90	1220,59
294,12	1267,69
294,33	1220,59
294,55	1290,22
294,76	1277,93
294,97	1298,41
295,19	1230,83
295,40	1265,64
295,62	1265,64
295,83	1318,89
296,05	1243,12
296,26	1347,56
296,48	1234,93
296,69	1214,45
296,90	1214,45
297,12	1241,07
297,33	1216,49
297,55	1239,02
297,76	1259,50
297,98	1224,69
298,19	1261,55
298,41	1316,84
298,62	1277,93
298,83	1241,07
299,05	1306,60
299,26	1202,16
299,48	1298,41
299,69	1234,93
299,90	1282,03
300,12	1257,45
300,33	1304,56
300,55	1269,74
300,76	1312,75
300,98	1249,26
301,19	1259,50
301,40	1259,50
301,62	1163,25
301,83	1224,69
302,05	1296,36
302,26	1314,80
302,47	1302,51
302,69	1331,18
302,90	1296,36
303,12	1279,98
303,33	1298,41
303,54	1239,02
303,76	1316,84
303,97	1241,07
304,19	1284,08
304,40	1249,26
304,61	1288,17
304,83	1263,60
305,04	1214,45
305,26	1243,12
305,47	1302,51
305,68	1282,03
305,90	1286,12
306,11	1179,63
306,33	1292,27
306,54	1263,60
306,75	1216,49
306,97	1310,70
307,18	1273,84
307,39	1269,74
307,61	1355,76
307,82	1255,40
308,04	1343,47
308,25	1228,78
308,46	1327,08
308,68	1298,41
308,89	1329,13
309,10	1275,88
309,32	1251,31
309,53	1288,17
309,74	1236,97
309,96	1265,64
310,17	1279,98
310,39	1234,93
310,60	1245,16
310,81	1282,03
311,03	1273,84
311,24	1312,75
311,45	1232,88
311,67	1247,21
311,88	1216,49
312,09	1288,17
312,31	1292,27
312,52	1220,59
312,73	1239,02
312,95	1298,41
313,16	1273,84
313,37	1245,16
313,59	1366,00
313,80	1234,93
314,01	1269,74
314,23	1282,03
314,44	1251,31
314,65	1232,88
314,87	1232,88
315,08	1241,07
315,29	1226,73
315,51	1296,36
315,72	1259,50
315,93	1265,64
316,15	1263,60
316,36	1255,40
316,57	1232,88
316,79	1292,27
317,00	1327,08
317,21	1255,40
317,43	1271,79
317,64	1255,40
317,85	1257,45
318,07	1322,99
318,28	1314,80
318,49	1255,40
318,70	1245,16
318,92	1292,27
319,13	1306,60
319,34	1216,49
319,56	1189,87
319,77	1335,28
319,98	1265,64
320,20	1355,76
320,41	1314,80
320,62	1284,08
320,83	1179,63
321,05	1286,12
321,26	1269,74
321,47	1267,69
321,69	1376,24
321,90	1228,78
322,11	1224,69
322,32	1247,21
322,54	1288,17
322,75	1253,36
322,96	1241,07
323,18	1286,12
323,39	1222,64
323,60	1320,94
323,81	1255,40
324,03	1245,16
324,24	1312,75
324,45	1220,59
324,66	1298,41
324,88	1224,69
325,09	1251,31
325,30	1277,93
325,52	1331,18
325,73	1296,36
325,94	1282,03
326,15	1302,51
326,37	1337,32
326,58	1273,84
326,79	1284,08
327,00	1279,98
327,22	1267,69
327,43	1273,84
327,64	1222,64
327,85	1214,45
328,07	1277,93
328,28	1259,50
328,49	1257,45
328,70	1263,60
328,92	1271,79
329,13	1243,12
329,34	1255,40
329,55	1341,42
329,76	1261,55
329,98	1210,35
330,19	1265,64
330,40	1306,60
330,61	1288,17
330,83	1249,26
331,04	1224,69
331,25	1214,45
331,46	1249,26
331,68	1261,55
331,89	1279,98
332,10	1239,02
332,31	1337,32
332,52	1292,27
332,74	1273,84
332,95	1247,21
333,16	1314,80
333,37	1331,18
333,58	1257,45
333,80	1292,27
334,01	1282,03
334,22	1314,80
334,43	1167,34
334,64	1282,03
334,86	1232,88
335,07	1214,45
335,28	1318,89
335,49	1259,50
335,70	1337,32
335,92	1298,41
336,13	1292,27
336,34	1279,98
336,55	1214,45
336,76	1220,59
336,98	1257,45
337,19	1243,12
337,40	1290,22
337,61	1267,69
337,82	1241,07
338,04	1284,08
338,25	1271,79
338,46	1224,69
338,67	1282,03
338,88	1251,31
339,09	1251,31
339,31	1263,60
339,52	1189,87
339,73	1310,70
339,94	1318,89
340,15	1263,60
340,36	1275,88
340,58	1208,30
340,79	1308,65
341,00	1265,64
341,21	1257,45
341,42	1243,12
341,63	1251,31
341,85	1249,26
342,06	1230,83
342,27	1224,69
342,48	1251,31
342,69	1331,18
342,90	1202,16
343,12	1282,03
343,33	1294,32
343,54	1198,06
343,75	1224,69
343,96	1298,41
344,17	1318,89
344,38	1312,75
344,60	1212,40
344,81	1290,22
345,02	1234,93
345,23	1249,26
345,44	1300,46
345,65	1241,07
345,86	1259,50
346,07	1267,69
346,29	1308,65
346,50	1255,40
346,71	1265,64
346,92	1322,99
347,13	1310,70
347,34	1257,45
347,55	1327,08
347,76	1241,07
347,98	1243,12
348,19	1183,73
348,40	1261,55
348,61	1343,47
348,82	1296,36
349,03	1306,60
349,24	1216,49
349,45	1275,88
349,66	1224,69
349,88	1292,27
350,09	1198,06
350,30	1253,36
350,51	1263,60
350,72	1347,56
350,93	1286,12
351,14	1241,07
351,35	1183,73
351,56	1288,17
351,77	1265,64
351,99	1208,30
352,20	1216,49
352,41	1333,23
352,62	1271,79
352,83	1286,12
353,04	1222,64
353,25	1255,40
353,46	1249,26
353,67	1224,69
353,88	1230,83
354,09	1331,18
354,30	1300,46
354,52	1236,97
354,73	1193,97
354,94	1273,84
355,15	1263,60
355,36	1200,11
355,57	1296,36
355,78	1251,31
355,99	1212,40
356,20	1257,45
356,41	1329,13
356,62	1267,69
356,83	1257,45
357,04	1224,69
357,25	1265,64
357,46	1230,83
357,68	1275,88
357,89	1216,49
358,10	1253,36
358,31	1265,64
358,52	1212,40
358,73	1245,16
358,94	1230,83
359,15	1265,64
359,36	1322,99
359,57	1279,98
359,78	1325,04
359,99	1228,78
360,20	1210,35
360,41	1243,12
360,62	1245,16
360,83	1290,22
361,04	1261,55
361,25	1185,77
361,46	1212,40
361,67	1253,36
361,88	1294,32
362,09	1255,40
362,30	1325,04
362,51	1208,30
362,72	1222,64
362,93	1314,80
363,14	1298,41
363,35	1298,41
363,56	1234,93
363,78	1286,12
363,99	1333,23
364,20	1347,56
364,41	1257,45
364,62	1247,21
364,83	1224,69
365,04	1345,52
365,25	1261,55
365,46	1314,80
365,67	1273,84
365,88	1339,37
366,09	1261,55
366,30	1296,36
366,51	1275,88
366,72	1312,75
366,93	1204,21
367,14	1245,16
367,35	1298,41
367,56	1245,16
367,77	1245,16
367,98	1245,16
368,18	1282,03
368,39	1296,36
368,60	1216,49
368,81	1255,40
369,02	1298,41
369,23	1228,78
369,44	1206,25
369,65	1214,45
369,86	1296,36
370,07	1294,32
370,28	1294,32
370,49	1318,89
370,70	1290,22
370,91	1222,64
371,12	1234,93
371,33	1265,64
371,54	1210,35
371,75	1288,17
371,96	1241,07
372,17	1265,64
372,38	1282,03
372,59	1288,17
372,80	1304,56
373,01	1163,25
373,22	1286,12
373,43	1224,69
373,64	1273,84
373,85	1185,77
374,06	1202,16
374,26	1284,08
374,47	1245,16
374,68	1294,32
374,89	1277,93
375,10	1290,22
375,31	1366,00
375,52	1247,21
375,73	1329,13
375,94	1294,32
376,15	1298,41
376,36	1290,22
376,57	1296,36
376,78	1169,39
376,99	1325,04
377,20	1355,76
377,40	1177,58
377,61	1226,73
377,82	1286,12
378,03	1234,93
378,24	1322,99
378,45	1294,32
378,66	1271,79
378,87	1263,60
379,08	1269,74
379,29	1331,18
379,50	1282,03
379,71	1294,32
379,91	1277,93
380,12	1255,40
380,33	1298,41
380,54	1234,93
380,75	1249,26
380,96	1224,69
381,17	1322,99
381,38	1236,97
381,59	1286,12
381,80	1292,27
382,00	1329,13
382,21	1339,37
382,42	1284,08
382,63	1269,74
382,84	1218,54
383,05	1241,07
383,26	1239,02
383,47	1187,82
383,68	1263,60
383,88	1288,17
384,09	1290,22
384,30	1245,16
384,51	1310,70
384,72	1193,97
384,93	1312,75
385,14	1239,02
385,35	1282,03
385,55	1277,93
385,76	1220,59
385,97	1241,07
386,18	1286,12
386,39	1294,32
386,60	1314,80
386,81	1322,99
387,02	1355,76
387,22	1263,60
387,43	1257,45
387,64	1286,12
387,85	1255,40
388,06	1271,79
388,27	1185,77
388,48	1275,88
388,68	1310,70
388,89	1314,80
389,10	1222,64
389,31	1284,08
389,52	1216,49
389,73	1279,98
389,93	1296,36
390,14	1228,78
390,35	1271,79
390,56	1300,46
390,77	1245,16
390,98	1351,66
391,18	1314,80
391,39	1255,40
391,60	1271,79
391,81	1292,27
392,02	1284,08
392,23	1306,60
392,43	1312,75
392,64	1296,36
392,85	1273,84
393,06	1267,69
393,27	1316,84
393,47	1327,08
393,68	1265,64
393,89	1232,88
394,10	1228,78
394,31	1275,88
394,52	1290,22
394,72	1214,45
394,93	1263,60
395,14	1249,26
395,35	1345,52
395,56	1253,36
395,76	1218,54
395,97	1273,84
396,18	1304,56
396,39	1306,60
396,60	1329,13
396,80	1224,69
397,01	1232,88
397,22	1316,84
397,43	1265,64
397,64	1279,98
397,84	1275,88
398,05	1212,40
398,26	1183,73
398,47	1302,51
398,67	1228,78
398,88	1298,41
399,09	1263,60
399,30	1234,93
399,51	1312,75
399,71	1241,07
399,92	1249,26
400,13	1331,18
400,34	1325,04
400,54	1298,41
400,75	1273,84
400,96	1335,28
401,17	1216,49
401,37	1333,23
401,58	1306,60
401,79	1288,17
402,00	1288,17
402,21	1232,88
402,41	1296,36
402,62	1300,46
402,83	1255,40
403,04	1222,64
403,24	1298,41
403,45	1263,60
403,66	1273,84
403,87	1239,02
404,07	1290,22
404,28	1290,22
404,49	1304,56
404,70	1261,55
404,90	1239,02
405,11	1224,69
405,32	1275,88
405,52	1275,88
405,73	1241,07
405,94	1277,93
406,15	1386,47
406,35	1275,88
406,56	1204,21
406,77	1288,17
406,98	1265,64
407,18	1261,55
407,39	1208,30
407,60	1265,64
407,80	1331,18
408,01	1304,56
408,22	1257,45
408,43	1267,69
408,63	1243,12
408,84	1257,45
409,05	1249,26
409,25	1271,79
409,46	1224,69
409,67	1325,04
409,88	1261,55
410,08	1310,70
410,29	1288,17
410,50	1202,16
410,70	1292,27
410,91	1247,21
411,12	1314,80
411,32	1269,74
411,53	1288,17
411,74	1226,73
411,95	1216,49
412,15	1271,79
412,36	1300,46
412,57	1296,36
412,77	1206,25
412,98	1220,59
413,19	1349,61
413,39	1247,21
413,60	1263,60
413,81	1275,88
414,01	1298,41
414,22	1255,40
414,43	1247,21
414,63	1241,07
414,84	1322,99
415,05	1370,09
415,25	1308,65
415,46	1241,07
415,67	1327,08
415,87	1378,28
416,08	1257,45
416,29	1308,65
416,49	1230,83
416,70	1349,61
416,91	1329,13
417,11	1298,41
417,32	1269,74
417,53	1220,59
417,73	1288,17
417,94	1286,12
418,15	1304,56
418,35	1271,79
418,56	1243,12
418,77	1316,84
418,97	1191,92
419,18	1253,36
419,38	1236,97
419,59	1343,47
419,80	1298,41
420,00	1220,59
420,21	1304,56
420,42	1275,88
420,62	1322,99
420,83	1290,22
421,04	1206,25
421,24	1236,97
421,45	1245,16
421,65	1267,69
421,86	1318,89
422,07	1216,49
422,27	1279,98
422,48	1277,93
422,69	1343,47
422,89	1249,26
423,10	1304,56
423,30	1138,67
423,51	1282,03
423,72	1150,96
423,92	1300,46
424,13	1226,73
424,33	1282,03
424,54	1290,22
424,75	1269,74
424,95	1308,65
425,16	1255,40
425,36	1251,31
425,57	1275,88
425,78	1243,12
425,98	1310,70
426,19	1296,36
426,39	1292,27
426,60	1302,51
426,81	1314,80
427,01	1284,08
427,22	1267,69
427,42	1269,74
427,63	1292,27
427,83	1279,98
428,04	1290,22
428,25	1284,08
428,45	1368,04
428,66	1329,13
428,86	1181,68
429,07	1210,35
429,28	1294,32
429,48	1277,93
429,69	1279,98
429,89	1208,30
430,10	1236,97
430,30	1251,31
430,51	1273,84
430,71	1308,65
430,92	1239,02
431,13	1277,93
431,33	1241,07
431,54	1214,45
431,74	1341,42
431,95	1277,93
432,15	1232,88
432,36	1228,78
432,56	1286,12
432,77	1298,41
432,98	1271,79
433,18	1273,84
433,39	1271,79
433,59	1257,45
433,80	1316,84
434,00	1267,69
434,21	1335,28
434,41	1302,51
434,62	1261,55
434,82	1200,11
435,03	1302,51
435,23	1345,52
435,44	1220,59
435,64	1253,36
435,85	1271,79
436,06	1290,22
436,26	1275,88
436,47	1290,22
436,67	1269,74
436,88	1314,80
437,08	1189,87
437,29	1206,25
437,49	1206,25
437,70	1273,84
437,90	1241,07
438,11	1290,22
438,31	1263,60
438,52	1247,21
438,72	1359,85
438,93	1298,41
439,13	1277,93
439,34	1288,17
439,54	1282,03
439,75	1232,88
439,95	1273,84
440,16	1316,84
440,36	1286,12
440,57	1296,36
440,77	1279,98
440,98	1286,12
441,18	1204,21
441,39	1310,70
441,59	1224,69
441,80	1296,36
442,00	1282,03
442,21	1253,36
442,41	1335,28
442,62	1251,31
442,82	1275,88
443,02	1296,36
443,23	1271,79
443,43	1179,63
443,64	1275,88
443,84	1204,21
444,05	1304,56
444,25	1245,16
444,46	1306,60
444,66	1302,51
444,87	1249,26
445,07	1269,74
445,28	1279,98
445,48	1251,31
445,69	1232,88
445,89	1318,89
446,09	1206,25
446,30	1302,51
446,50	1288,17
446,71	1308,65
446,91	1249,26
447,12	1261,55
447,32	1245,16
447,53	1288,17
447,73	1349,61
447,93	1277,93
448,14	1255,40
448,34	1253,36
448,55	1255,40
448,75	1232,88
448,96	1271,79
449,16	1327,08
449,36	1247,21
449,57	1247,21
449,77	1241,07
449,98	1236,97
450,18	1290,22
450,39	1267,69
450,59	1196,01
450,79	1255,40
451,00	1257,45
451,20	1302,51
451,41	1269,74
451,61	1337,32
451,81	1275,88
452,02	1331,18
452,22	1224,69
452,43	1243,12
452,63	1257,45
452,84	1277,93
453,04	1290,22
453,24	1263,60
453,45	1251,31
453,65	1257,45
453,86	1261,55
454,06	1236,97
454,26	1279,98
454,47	1290,22
454,67	1312,75
454,87	1222,64
455,08	1253,36
455,28	1290,22
455,49	1269,74
455,69	1290,22
455,89	1290,22
456,10	1279,98
456,30	1261,55
456,51	1292,27
456,71	1271,79
456,91	1333,23
457,12	1312,75
457,32	1200,11
457,52	1257,45
457,73	1300,46
457,93	1286,12
458,14	1234,93
458,34	1298,41
458,54	1257,45
458,75	1282,03
458,95	1257,45
459,15	1273,84
459,36	1218,54
459,56	1292,27
459,76	1275,88
459,97	1249,26
460,17	1322,99
460,37	1320,94
460,58	1267,69
460,78	1275,88
460,99	1226,73
461,19	1284,08
461,39	1294,32
461,60	1230,83
461,80	1208,30
462,00	1335,28
462,21	1236,97
462,41	1292,27
462,61	1257,45
462,82	1222,64
463,02	1241,07
463,22	1294,32
463,43	1249,26
463,63	1273,84
463,83	1335,28
464,04	1220,59
464,24	1204,21
464,44	1255,40
464,64	1279,98
464,85	1239,02
465,05	1306,60
465,25	1277,93
465,46	1249,26
465,66	1302,51
465,86	1247,21
466,07	1277,93
466,27	1310,70
466,47	1302,51
466,68	1257,45
466,88	1267,69
467,08	1230,83
467,29	1282,03
467,49	1249,26
467,69	1249,26
467,89	1265,64
468,10	1224,69
468,30	1243,12
468,50	1282,03
468,71	1282,03
468,91	1275,88
469,11	1275,88
469,31	1232,88
469,52	1282,03
469,72	1255,40
469,92	1279,98
470,13	1232,88
470,33	1245,16
470,53	1378,28
470,73	1208,30
470,94	1273,84
471,14	1269,74
471,34	1306,60
471,54	1251,31
471,75	1300,46
471,95	1208,30
472,15	1241,07
472,36	1288,17
472,56	1355,76
472,76	1224,69
472,96	1345,52
473,17	1265,64
473,37	1239,02
473,57	1304,56
473,77	1273,84
473,98	1255,40
474,18	1312,75
474,38	1259,50
474,58	1265,64
474,79	1259,50
474,99	1261,55
475,19	1193,97
475,39	1292,27
475,60	1300,46
475,80	1294,32
476,00	1282,03
476,20	1351,66
476,41	1318,89
476,61	1245,16
476,81	1363,95
477,01	1284,08
477,21	1271,79
477,42	1259,50
477,62	1296,36
477,82	1253,36
478,02	1271,79
478,23	1284,08
478,43	1302,51
478,63	1345,52
478,83	1222,64
479,03	1222,64
479,24	1294,32
479,44	1288,17
479,64	1261,55
479,84	1314,80
480,04	1279,98
480,25	1271,79
480,45	1310,70
480,65	1279,98
480,85	1169,39
481,06	1263,60
481,26	1265,64
481,46	1290,22
481,66	1275,88
481,86	1243,12
482,06	1320,94
482,27	1292,27
482,47	1259,50
482,67	1279,98
482,87	1220,59
483,07	1308,65
483,28	1204,21
483,48	1230,83
483,68	1265,64
483,88	1312,75
484,08	1259,50
484,29	1220,59
484,49	1265,64
484,69	1282,03
484,89	1273,84
485,09	1279,98
485,29	1316,84
485,50	1286,12
485,70	1282,03
485,90	1257,45
486,10	1355,76
486,30	1339,37
486,50	1312,75
486,71	1316,84
486,91	1257,45
487,11	1284,08
487,31	1267,69
487,51	1251,31
487,71	1286,12
487,91	1198,06
488,12	1253,36
488,32	1290,22
488,52	1269,74
488,72	1320,94
488,92	1271,79
489,12	1329,13
489,32	1265,64
489,53	1298,41
489,73	1251,31
489,93	1298,41
490,13	1261,55
490,33	1257,45
490,53	1228,78
490,73	1335,28
490,94	1292,27
491,14	1257,45
491,34	1288,17
491,54	1288,17
491,74	1273,84
491,94	1275,88
492,14	1255,40
492,34	1265,64
492,54	1275,88
492,75	1271,79
492,95	1249,26
493,15	1243,12
493,35	1284,08
493,55	1181,68
493,75	1279,98
493,95	1357,80
494,15	1294,32
494,35	1245,16
494,56	1196,01
494,76	1226,73
494,96	1277,93
495,16	1320,94
495,36	1230,83
495,56	1230,83
495,76	1308,65
495,96	1288,17
496,16	1261,55
496,36	1335,28
496,56	1267,69
496,77	1228,78
496,97	1146,86
497,17	1284,08
497,37	1300,46
497,57	1273,84
497,77	1249,26
497,97	1275,88
498,17	1234,93
498,37	1259,50
498,57	1265,64
498,77	1265,64
498,97	1286,12
499,17	1243,12
499,38	1261,55
499,58	1269,74
499,78	1267,69
499,98	1292,27
500,18	1271,79
500,38	1269,74
500,58	1331,18
500,78	1249,26
500,98	1249,26
501,18	1312,75
501,38	1347,56
501,58	1228,78
501,78	1339,37
501,98	1259,50
502,18	1316,84
502,38	1230,83
502,58	1241,07
502,78	1288,17
502,98	1212,40
503,18	1337,32
503,38	1230,83
503,59	1292,27
503,79	1247,21
503,99	1277,93
504,19	1331,18
504,39	1259,50
504,59	1304,56
504,79	1232,88
504,99	1269,74
505,19	1183,73
505,39	1259,50
505,59	1298,41
505,79	1290,22
505,99	1243,12
506,19	1241,07
506,39	1339,37
506,59	1282,03
506,79	1290,22
506,99	1335,28
507,19	1294,32
507,39	1253,36
507,59	1320,94
507,79	1259,50
507,99	1284,08
508,19	1249,26
508,39	1245,16
508,59	1271,79
508,79	1322,99
508,99	1300,46
509,19	1273,84
509,39	1224,69
509,59	1279,98
509,79	1218,54
509,99	1255,40
510,19	1247,21
510,39	1282,03
510,59	1249,26
510,79	1327,08
510,99	1255,40
511,19	1253,36
511,39	1286,12
511,59	1298,41
511,79	1267,69
511,99	1210,35
512,19	1282,03
512,38	1247,21
512,58	1263,60
512,78	1298,41
512,98	1286,12
513,18	1253,36
513,38	1263,60
513,58	1288,17
513,78	1308,65
513,98	1249,26
514,18	1218,54
514,38	1275,88
514,58	1255,40
514,78	1257,45
514,98	1288,17
515,18	1306,60
515,38	1327,08
515,58	1230,83
515,78	1269,74
515,98	1216,49
516,18	1224,69
516,38	1269,74
516,57	1253,36
516,77	1249,26
516,97	1271,79
517,17	1228,78
517,37	1179,63
517,57	1343,47
517,77	1292,27
517,97	1261,55
518,17	1245,16
518,37	1251,31
518,57	1296,36
518,77	1306,60
518,97	1243,12
519,16	1232,88
519,36	1185,77
519,56	1277,93
519,76	1312,75
519,96	1214,45
520,16	1179,63
520,36	1298,41
520,56	1271,79
520,76	1263,60
520,96	1251,31
521,16	1279,98
521,35	1263,60
521,55	1228,78
521,75	1294,32
521,95	1271,79
522,15	1222,64
522,35	1177,58
522,55	1228,78
522,75	1259,50
522,95	1298,41
523,14	1298,41
523,34	1316,84
523,54	1310,70
523,74	1228,78
523,94	1261,55
524,14	1208,30
524,34	1273,84
524,54	1312,75
524,73	1263,60
524,93	1361,90
525,13	1257,45
525,33	1286,12
525,53	1255,40
525,73	1232,88
525,93	1306,60
526,13	1318,89
526,32	1261,55
526,52	1181,68
526,72	1298,41
526,92	1251,31
527,12	1265,64
527,32	1282,03
527,52	1308,65
527,71	1257,45
527,91	1239,02
528,11	1312,75
528,31	1282,03
528,51	1284,08
528,71	1263,60
528,90	1322,99
529,10	1353,71
529,30	1312,75
529,50	1275,88
529,70	1255,40
529,90	1294,32
530,09	1226,73
530,29	1284,08
530,49	1294,32
530,69	1312,75
530,89	1200,11
531,09	1265,64
531,28	1308,65
531,48	1359,85
531,68	1282,03
531,88	1232,88
532,08	1288,17
532,28	1247,21
532,47	1239,02
532,67	1363,95
532,87	1279,98
533,07	1292,27
533,27	1220,59
533,46	1292,27
533,66	1304,56
533,86	1200,11
534,06	1243,12
534,26	1245,16
534,45	1271,79
534,65	1306,60
534,85	1271,79
535,05	1314,80
535,25	1243,12
535,44	1243,12
535,64	1228,78
535,84	1267,69
536,04	1271,79
536,24	1220,59
536,43	1214,45
536,63	1216,49
536,83	1312,75
537,03	1310,70
537,22	1298,41
537,42	1236,97
537,62	1273,84
537,82	1259,50
538,02	1312,75
538,21	1247,21
538,41	1269,74
538,61	1286,12
538,81	1359,85
539,00	1253,36
539,20	1222,64
539,40	1247,21
539,60	1191,92
539,79	1232,88
539,99	1325,04
540,19	1351,66
540,39	1200,11
540,58	1302,51
540,78	1290,22
540,98	1273,84
541,18	1298,41
541,37	1279,98
541,57	1228,78
541,77	1298,41
541,97	1241,07
542,16	1243,12
542,36	1255,40
542,56	1265,64
542,76	1298,41
542,95	1300,46
543,15	1210,35
543,35	1312,75
543,54	1279,98
543,74	1327,08
543,94	1275,88
544,14	1290,22
544,33	1236,97
544,53	1236,97
544,73	1228,78
544,93	1251,31
545,12	1222,64
545,32	1257,45
545,52	1331,18
545,71	1265,64
545,91	1312,75
546,11	1335,28
546,30	1232,88
546,50	1175,53
546,70	1216,49
546,90	1239,02
547,09	1298,41
547,29	1288,17
547,49	1277,93
547,68	1357,80
547,88	1310,70
548,08	1304,56
548,27	1294,32
548,47	1298,41
548,67	1241,07
548,87	1302,51
549,06	1300,46
549,26	1239,02
549,46	1259,50
549,65	1216,49
549,85	1230,83
550,05	1322,99
550,24	1257,45
550,44	1232,88
550,64	1316,84
550,83	1257,45
551,03	1191,92
551,23	1275,88
551,42	1245,16
551,62	1279,98
551,82	1265,64
552,01	1306,60
552,21	1271,79
552,41	1300,46
552,60	1179,63
552,80	1325,04
553,00	1306,60
553,19	1294,32
553,39	1239,02
553,59	1216,49
553,78	1144,81
553,98	1255,40
554,17	1304,56
554,37	1275,88
554,57	1267,69
554,76	1263,60
554,96	1288,17
555,16	1247,21
555,35	1314,80
555,55	1239,02
555,75	1257,45
555,94	1290,22
556,14	1277,93
556,33	1294,32
556,53	1298,41
556,73	1318,89
556,92	1216,49
557,12	1214,45
557,32	1234,93
557,51	1263,60
557,71	1212,40
557,90	1259,50
558,10	1271,79
558,30	1294,32
558,49	1200,11
558,69	1267,69
558,88	1282,03
559,08	1257,45
559,28	1267,69
559,47	1347,56
559,67	1267,69
559,86	1226,73
560,06	1214,45
560,26	1282,03
560,45	1253,36
560,65	1251,31
560,84	1251,31
561,04	1253,36
561,24	1236,97
561,43	1269,74
561,63	1255,40
561,82	1335,28
562,02	1304,56
562,22	1310,70
562,41	1286,12
562,61	1259,50
562,80	1265,64
563,00	1241,07
563,19	1253,36
563,39	1167,34
563,59	1234,93
563,78	1257,45
563,98	1222,64
564,17	1222,64
564,37	1259,50
564,56	1322,99
564,76	1249,26
564,96	1288,17
565,15	1310,70
565,35	1304,56
565,54	1308,65
565,74	1267,69
565,93	1294,32
566,13	1265,64
566,32	1322,99
566,52	1253,36
566,71	1310,70
566,91	1277,93
567,11	1253,36
567,30	1312,75
567,50	1251,31
567,69	1220,59
567,89	1277,93
568,08	1331,18
568,28	1228,78
568,47	1243,12
568,67	1249,26
568,86	1318,89
569,06	1306,60
569,25	1245,16
569,45	1228,78
569,64	1222,64
569,84	1232,88
570,04	1236,97
570,23	1234,93
570,43	1314,80
570,62	1218,54
570,82	1343,47
571,01	1298,41
571,21	1193,97
571,40	1247,21
571,60	1265,64
571,79	1275,88
571,99	1247,21
572,18	1261,55
572,38	1222,64
572,57	1322,99
572,77	1282,03
572,96	1218,54
573,16	1296,36
573,35	1267,69
573,55	1247,21
573,74	1255,40
573,94	1216,49
574,13	1245,16
574,33	1253,36
574,52	1255,40
574,71	1259,50
574,91	1173,49
575,10	1230,83
575,30	1175,53
575,49	1196,01
575,69	1224,69
575,88	1222,64
576,08	1220,59
576,27	1251,31
576,47	1282,03
576,66	1296,36
576,86	1288,17
577,05	1277,93
577,25	1255,40
577,44	1232,88
577,64	1232,88
577,83	1263,60
578,02	1222,64
578,22	1318,89
578,41	1239,02
578,61	1320,94
578,80	1271,79
579,00	1282,03
579,19	1279,98
579,39	1230,83
579,58	1214,45
579,77	1255,40
579,97	1255,40
580,16	1196,01
580,36	1275,88
580,55	1294,32
580,75	1239,02
580,94	1273,84
581,13	1284,08
581,33	1282,03
581,52	1279,98
581,72	1282,03
581,91	1222,64
582,11	1259,50
582,30	1249,26
582,49	1265,64
582,69	1204,21
582,88	1277,93
583,08	1236,97
583,27	1347,56
583,47	1302,51
583,66	1234,93
583,85	1294,32
584,05	1232,88
584,24	1259,50
584,44	1343,47
584,63	1329,13
584,82	1263,60
585,02	1320,94
585,21	1230,83
585,41	1267,69
585,60	1222,64
585,79	1300,46
585,99	1255,40
586,18	1259,50
586,37	1314,80
586,57	1263,60
586,76	1243,12
586,96	1173,49
587,15	1296,36
587,34	1271,79
587,54	1255,40
587,73	1318,89
587,93	1306,60
588,12	1228,78
588,31	1273,84
588,51	1191,92
588,70	1273,84
588,89	1247,21
589,09	1296,36
589,28	1181,68
589,47	1300,46
589,67	1204,21
589,86	1314,80
590,06	1286,12
590,25	1247,21
590,44	1273,84
590,64	1288,17
590,83	1306,60
591,02	1273,84
591,22	1327,08
591,41	1279,98
591,60	1322,99
591,80	1282,03
591,99	1282,03
592,18	1228,78
592,38	1267,69
592,57	1277,93
592,76	1302,51
592,96	1255,40
593,15	1286,12
593,34	1230,83
593,54	1257,45
593,73	1249,26
593,92	1267,69
594,12	1327,08
594,31	1302,51
594,50	1230,83
594,70	1214,45
594,89	1271,79
595,08	1269,74
595,28	1304,56
595,47	1294,32
595,66	1288,17
595,86	1294,32
596,05	1306,60
596,24	1265,64
596,43	1329,13
596,63	1279,98
596,82	1232,88
597,01	1306,60
597,21	1292,27
597,40	1298,41
597,59	1222,64
597,79	1273,84
597,98	1314,80
598,17	1300,46
598,36	1243,12
598,56	1216,49
598,75	1265,64
598,94	1204,21
599,14	1284,08
599,33	1329,13
599,52	1341,42
599,71	1290,22
599,91	1300,46
600,10	1294,32
600,29	1290,22
600,48	1243,12
600,68	1286,12
600,87	1253,36
601,06	1267,69
601,26	1310,70
601,45	1247,21
601,64	1306,60
601,83	1284,08
602,03	1198,06
602,22	1222,64
602,41	1296,36
602,60	1259,50
602,80	1298,41
602,99	1232,88
603,18	1290,22
603,37	1206,25
603,57	1279,98
603,76	1296,36
603,95	1277,93
604,14	1214,45
604,34	1263,60
604,53	1265,64
604,72	1271,79
604,91	1357,80
605,10	1327,08
605,30	1261,55
605,49	1255,40
605,68	1277,93
605,87	1267,69
606,07	1239,02
606,26	1298,41
606,45	1243,12
606,64	1337,32
606,84	1292,27
607,03	1277,93
607,22	1267,69
607,41	1247,21
607,60	1275,88
607,80	1251,31
607,99	1232,88
608,18	1210,35
608,37	1277,93
608,56	1310,70
608,76	1273,84
608,95	1279,98
609,14	1249,26
609,33	1279,98
609,52	1267,69
609,72	1290,22
609,91	1226,73
610,10	1249,26
610,29	1306,60
610,48	1296,36
610,68	1318,89
610,87	1214,45
611,06	1318,89
611,25	1214,45
611,44	1263,60
611,63	1239,02
611,83	1245,16
612,02	1261,55
612,21	1261,55
612,40	1232,88
612,59	1304,56
612,79	1263,60
612,98	1202,16
613,17	1212,40
613,36	1261,55
613,55	1271,79
613,74	1275,88
613,93	1261,55
614,13	1257,45
614,32	1286,12
614,51	1349,61
614,70	1286,12
614,89	1267,69
615,08	1337,32
615,28	1286,12
615,47	1239,02
615,66	1234,93
615,85	1290,22
616,04	1265,64
616,23	1220,59
616,42	1269,74
616,62	1265,64
616,81	1263,60
617,00	1282,03
617,19	1263,60
617,38	1251,31
617,57	1269,74
617,76	1216,49
617,95	1232,88
618,15	1300,46
618,34	1329,13
618,53	1265,64
618,72	1241,07
618,91	1275,88
619,10	1298,41
619,29	1294,32
619,48	1261,55
619,68	1253,36
619,87	1267,69
620,06	1222,64
620,25	1372,14
620,44	1286,12
620,63	1310,70
620,82	1257,45
621,01	1339,37
621,20	1261,55
621,39	1316,84
621,59	1279,98
621,78	1247,21
621,97	1196,01
622,16	1302,51
622,35	1222,64
622,54	1236,97
622,73	1234,93
622,92	1245,16
623,11	1290,22
623,30	1284,08
623,49	1329,13
623,68	1226,73
623,88	1308,65
624,07	1294,32
624,26	1277,93
624,45	1290,22
624,64	1257,45
624,83	1241,07
625,02	1269,74
625,21	1265,64
625,40	1257,45
625,59	1304,56
625,78	1316,84
625,97	1263,60
626,16	1318,89
626,35	1306,60
626,54	1275,88
626,74	1322,99
626,93	1253,36
627,12	1302,51
627,31	1261,55
627,50	1304,56
627,69	1306,60
627,88	1218,54
628,07	1345,52
628,26	1259,50
628,45	1302,51
628,64	1183,73
628,83	1335,28
629,02	1316,84
629,21	1343,47
629,40	1306,60
629,59	1312,75
629,78	1300,46
629,97	1298,41
630,16	1282,03
630,35	1306,60
630,54	1347,56
630,73	1296,36
630,92	1306,60
631,11	1288,17
631,30	1349,61
631,49	1419,24
631,68	1796,07
631,87	2639,83
632,06	5703,59
632,25	8413,06
632,44	16080,65
632,63	25849,46
632,82	42950,00
633,01	40218,01
633,20	16682,75
633,39	6752,15
633,58	3948,48
633,77	3346,38
633,96	2822,10
634,15	2312,16
634,34	1943,52
634,53	1800,16
634,72	1757,16
634,91	1564,65
635,10	1568,74
635,29	1470,44
635,48	1517,54
635,67	1470,44
635,86	1449,96
636,05	1402,86
636,24	1386,47
636,43	1411,05
636,62	1308,65
636,81	1380,33
637,00	1302,51
637,19	1333,23
637,38	1333,23
637,57	1277,93
637,76	1236,97
637,95	1304,56
638,14	1255,40
638,33	1267,69
638,52	1286,12
638,71	1234,93
638,89	1347,56
639,08	1284,08
639,27	1247,21
639,46	1230,83
639,65	1306,60
639,84	1271,79
640,03	1298,41
640,22	1224,69
640,41	1331,18
640,60	1273,84
640,79	1271,79
640,98	1247,21
641,17	1202,16
641,36	1251,31
641,55	1222,64
641,74	1288,17
641,92	1202,16
642,11	1232,88
642,30	1300,46
642,49	1214,45
642,68	1265,64
642,87	1259,50
643,06	1310,70
643,25	1271,79
643,44	1282,03
643,63	1247,21
643,82	1249,26
644,00	1253,36
644,19	1298,41
644,38	1288,17
644,57	1236,97
644,76	1329,13
644,95	1329,13
645,14	1232,88
645,33	1298,41
645,52	1251,31
645,71	1277,93
645,89	1320,94
646,08	1347,56
646,27	1273,84
646,46	1318,89
646,65	1257,45
646,84	1296,36
647,03	1267,69
647,22	1282,03
647,40	1310,70
647,59	1251,31
647,78	1339,37
647,97	1277,93
648,16	1282,03
648,35	1282,03
648,54	1296,36
648,73	1206,25
648,91	1255,40
649,10	1220,59
649,29	1275,88
649,48	1183,73
649,67	1267,69
649,86	1294,32
650,05	1239,02
650,23	1308,65
650,42	1263,60
650,61	1257,45
650,80	1220,59
650,99	1298,41
651,18	1318,89
651,36	1271,79
651,55	1232,88
651,74	1277,93
651,93	1304,56
652,12	1296,36
652,31	1300,46
652,49	1325,04
652,68	1314,80
652,87	1306,60
653,06	1267,69
653,25	1216,49
653,44	1320,94
653,62	1271,79
653,81	1290,22
654,00	1339,37
654,19	1257,45
654,38	1249,26
654,56	1261,55
654,75	1224,69
654,94	1271,79
655,13	1296,36
655,32	1253,36
655,51	1273,84
655,69	1247,21
655,88	1314,80
656,07	1312,75
656,26	1232,88
656,45	1255,40
656,63	1320,94
656,82	1294,32
657,01	1253,36
657,20	1236,97
657,38	1261,55
657,57	1212,40
657,76	1284,08
657,95	1308,65
658,14	1271,79
658,32	1189,87
658,51	1241,07
658,70	1261,55
658,89	1363,95
659,08	1302,51
659,26	1296,36
659,45	1277,93
659,64	1191,92
659,83	1236,97
660,01	1267,69
660,20	1273,84
660,39	1310,70
660,58	1298,41
660,76	1249,26
660,95	1253,36
661,14	1282,03
661,33	1308,65
661,51	1218,54
661,70	1210,35
661,89	1265,64
662,08	1232,88
662,26	1271,79
662,45	1251,31
662,64	1269,74
662,83	1253,36
663,01	1243,12
663,20	1267,69
663,39	1312,75
663,58	1314,80
663,76	1222,64
663,95	1294,32
664,14	1230,83
664,32	1273,84
664,51	1185,77
664,70	1173,49
664,89	1228,78
665,07	1239,02
665,26	1277,93
665,45	1236,97
665,64	1241,07
665,82	1234,93
666,01	1302,51
666,20	1253,36
666,38	1322,99
666,57	1200,11
666,76	1269,74
666,95	1200,11
667,13	1308,65
667,32	1279,98
667,51	1298,41
667,69	1200,11
667,88	1257,45
668,07	1366,00
668,25	1239,02
668,44	1234,93
668,63	1282,03
668,81	1347,56
669,00	1286,12
669,19	1230,83
669,38	1312,75
669,56	1230,83
669,75	1251,31
669,94	1269,74
670,12	1163,25
670,31	1259,50
670,50	1241,07
670,68	1249,26
670,87	1232,88
671,06	1236,97
671,24	1288,17
671,43	1247,21
671,62	1288,17
671,80	1257,45
671,99	1263,60
672,18	1343,47
672,36	1208,30
672,55	1290,22
672,74	1243,12
672,92	1230,83
673,11	1263,60
673,29	1204,21
673,48	1263,60
673,67	1290,22
673,85	1241,07
674,04	1273,84
674,23	1261,55
674,41	1226,73
674,60	1222,64
674,79	1320,94
674,97	1279,98
675,16	1306,60
675,34	1247,21
675,53	1243,12
675,72	1318,89
675,90	1222,64
676,09	1271,79
676,28	1279,98
676,46	1279,98
676,65	1185,77
676,83	1228,78
677,02	1253,36
677,21	1230,83
677,39	1212,40
677,58	1314,80
677,77	1224,69
677,95	1249,26
678,14	1288,17
678,32	1286,12
678,51	1265,64
678,70	1177,58
678,88	1325,04
679,07	1253,36
679,25	1316,84
679,44	1251,31
679,63	1302,51
679,81	1261,55
680,00	1331,18
680,18	1271,79
680,37	1279,98
680,55	1224,69
680,74	1308,65
680,93	1187,82
681,11	1304,56
681,30	1361,90
681,48	1292,27
681,67	1279,98
681,85	1171,44
682,04	1224,69
682,23	1206,25
682,41	1259,50
682,60	1290,22
682,78	1275,88
682,97	1259,50
683,15	1222,64
683,34	1196,01
683,53	1314,80
683,71	1241,07
683,90	1314,80
684,08	1247,21
684,27	1253,36
684,45	1310,70
684,64	1230,83
684,82	1273,84
685,01	1318,89
685,19	1189,87
685,38	1236,97
685,57	1234,93
685,75	1226,73
685,94	1257,45
686,12	1218,54
686,31	1255,40
686,49	1290,22
686,68	1253,36
686,86	1290,22
687,05	1277,93
687,23	1304,56
687,42	1198,06
687,60	1275,88
687,79	1218,54
687,97	1232,88
688,16	1337,32
688,34	1247,21
688,53	1286,12
688,71	1312,75
688,90	1206,25
689,08	1228,78
689,27	1318,89
689,45	1202,16
689,64	1308,65
689,82	1265,64
690,01	1232,88
690,19	1245,16
690,38	1273,84
690,56	1279,98
690,75	1292,27
690,93	1241,07
691,12	1292,27
691,30	1226,73
691,49	1226,73
691,67	1286,12
691,86	1230,83
692,04	1304,56
692,23	1265,64
692,41	1275,88
692,60	1290,22
692,78	1341,42
692,97	1290,22
693,15	1259,50
693,34	1232,88
693,52	1265,64
693,71	1228,78
693,89	1247,21
694,08	1263,60
694,26	1306,60
694,44	1263,60
694,63	1208,30
694,81	1245,16
695,00	1331,18
695,18	1331,18
695,37	1226,73
695,55	1298,41
695,74	1253,36
695,92	1298,41
696,10	1282,03
696,29	1222,64
696,47	1220,59
696,66	1269,74
696,84	1263,60
697,03	1277,93
697,21	1318,89
697,40	1327,08
697,58	1308,65
697,76	1148,91
697,95	1263,60
698,13	1251,31
698,32	1214,45
698,50	1269,74
698,68	1304,56
698,87	1269,74
699,05	1232,88
699,24	1345,52
699,42	1339,37
699,61	1224,69
699,79	1316,84
699,97	1374,19
700,16	1224,69
700,34	1255,40
700,53	1263,60
700,71	1226,73
700,89	1232,88
701,08	1257,45
701,26	1224,69
701,45	1263,60
701,63	1312,75
701,81	1232,88
702,00	1318,89
702,18	1298,41
702,37	1273,84
702,55	1259,50
702,73	1286,12
702,92	1218,54
703,10	1265,64
703,28	1173,49
703,47	1249,26
703,65	1259,50
703,84	1247,21
704,02	1261,55
704,20	1296,36
704,39	1226,73
704,57	1279,98
704,75	1255,40
704,94	1286,12
705,12	1288,17
705,30	1273,84
705,49	1224,69
705,67	1273,84
705,86	1327,08
706,04	1304,56
706,22	1316,84
706,41	1314,80
706,59	1277,93
706,77	1165,29
706,96	1314,80
707,14	1251,31
707,32	1292,27
707,51	1189,87
707,69	1243,12
707,87	1241,07
708,06	1232,88
708,24	1204,21
708,42	1288,17
708,61	1239,02
708,79	1245,16
708,97	1177,58
709,16	1206,25
709,34	1189,87
709,52	1218,54
709,71	1230,83
709,89	1224,69
710,07	1277,93
710,26	1327,08
710,44	1290,22
710,62	1239,02
710,80	1222,64
710,99	1216,49
711,17	1267,69
711,35	1241,07
711,54	1320,94
711,72	1255,40
711,90	1275,88
712,09	1249,26
712,27	1210,35
712,45	1308,65
712,63	1200,11
712,82	1228,78
713,00	1208,30
713,18	1245,16
713,37	1265,64
713,55	1349,61
713,73	1310,70
713,91	1257,45
714,10	1222,64
714,28	1308,65
714,46	1251,31
714,65	1271,79
714,83	1239,02
715,01	1284,08
715,19	1310,70
715,38	1220,59
715,56	1224,69
715,74	1331,18
715,92	1193,97
716,11	1261,55
716,29	1224,69
716,47	1234,93
716,65	1318,89
716,84	1220,59
717,02	1253,36
717,20	1298,41
717,38	1302,51
717,57	1247,21
717,75	1253,36
717,93	1290,22
718,11	1261,55
718,30	1282,03
718,48	1263,60
718,66	1228,78
718,84	1230,83
719,03	1267,69
719,21	1325,04
719,39	1236,97
719,57	1366,00
719,75	1292,27
719,94	1239,02
720,12	1310,70
720,30	1337,32
720,48	1200,11
720,67	1290,22
720,85	1251,31
721,03	1341,42
721,21	1267,69
721,39	1282,03
721,58	1279,98
721,76	1249,26
721,94	1218,54
722,12	1292,27
722,30	1234,93
722,49	1286,12
722,67	1320,94
722,85	1224,69
723,03	1308,65
723,21	1249,26
723,40	1312,75
723,58	1310,70
723,76	1234,93
723,94	1210,35
724,12	1161,20
724,30	1288,17
724,49	1349,61
724,67	1247,21
724,85	1222,64
725,03	1226,73
725,21	1294,32
725,40	1288,17
725,58	1304,56
725,76	1216,49
725,94	1351,66
726,12	1277,93
726,30	1263,60
726,49	1265,64
726,67	1175,53
726,85	1253,36
727,03	1314,80
727,21	1292,27
727,39	1257,45
727,57	1265,64
727,76	1282,03
727,94	1320,94
728,12	1189,87
728,30	1269,74
728,48	1282,03
728,66	1265,64
728,84	1296,36
729,03	1259,50
729,21	1312,75
729,39	1318,89
729,57	1267,69
729,75	1265,64
729,93	1275,88
730,11	1245,16
730,30	1312,75
730,48	1357,80
730,66	1234,93
730,84	1302,51
731,02	1249,26
731,20	1273,84
731,38	1284,08
731,56	1282,03
731,74	1222,64
731,93	1312,75
732,11	1187,82
732,29	1257,45
732,47	1304,56
732,65	1220,59
732,83	1198,06
733,01	1224,69
733,19	1294,32
733,37	1251,31
733,56	1308,65
733,74	1359,85
733,92	1253,36
734,10	1245,16
734,28	1341,42
734,46	1257,45
734,64	1292,27
734,82	1284,08
735,00	1296,36
735,18	1198,06
735,36	1277,93
735,54	1308,65
735,73	1232,88
735,91	1308,65
736,09	1304,56
736,27	1294,32
736,45	1261,55
736,63	1331,18
736,81	1253,36
736,99	1265,64
737,17	1273,84
737,35	1236,97
737,53	1261,55
737,71	1298,41
737,89	1277,93
738,07	1236,97
738,25	1257,45
738,43	1282,03
738,61	1214,45
738,80	1271,79
738,98	1257,45
739,16	1187,82
739,34	1247,21
739,52	1316,84
739,70	1298,41
739,88	1298,41
740,06	1251,31
740,24	1271,79
740,42	1265,64
740,60	1208,30
740,78	1273,84
740,96	1236,97
741,14	1279,98
741,32	1175,53
741,50	1232,88
741,68	1232,88
741,86	1290,22
742,04	1331,18
742,22	1236,97
742,40	1189,87
742,58	1302,51
742,76	1271,79
742,94	1292,27
743,12	1275,88
743,30	1171,44
743,48	1241,07
743,66	1271,79
743,84	1267,69
744,02	1333,23
744,20	1245,16
744,38	1263,60
744,56	1220,59
744,74	1310,70
744,92	1286,12
745,10	1220,59
745,28	1257,45
745,46	1271,79
745,64	1261,55
745,82	1296,36
746,00	1306,60
746,18	1290,22
746,36	1261,55
746,54	1236,97
746,72	1327,08
746,90	1259,50
747,08	1222,64
747,26	1257,45
747,44	1239,02
747,62	1341,42
747,80	1316,84
747,98	1277,93
748,15	1275,88
748,33	1212,40
748,51	1239,02
748,69	1282,03
748,87	1271,79
749,05	1314,80
749,23	1202,16
749,41	1286,12
749,59	1249,26
749,77	1267,69
749,95	1236,97
750,13	1284,08
750,31	1273,84
750,49	1251,31
750,67	1247,21
750,85	1232,88
751,03	1251,31
751,20	1243,12
751,38	1257,45
751,56	1265,64
751,74	1257,45
751,92	1363,95
752,10	1296,36
752,28	1212,40
752,46	1224,69
752,64	1234,93
752,82	1241,07
753,00	1234,93
753,18	1232,88
753,35	1193,97
753,53	1234,93
753,71	1222,64
753,89	1216,49
754,07	1279,98
754,25	1318,89
754,43	1247,21
754,61	1292,27
754,79	1273,84
754,97	1275,88
755,14	1267,69
755,32	1255,40
755,50	1251,31
755,68	1212,40
755,86	1265,64
756,04	1275,88
756,22	1220,59
756,40	1327,08
756,57	1265,64
756,75	1208,30
756,93	1257,45
757,11	1277,93
757,29	1282,03
757,47	1294,32
757,65	1208,30
757,82	1245,16
758,00	1288,17
758,18	1171,44
758,36	1226,73
758,54	1273,84
758,72	1173,49
758,90	1349,61
759,07	1257,45
759,25	1284,08
759,43	1269,74
759,61	1243,12
759,79	1314,80
759,97	1261,55
760,15	1253,36
760,32	1226,73
760,50	1275,88
760,68	1296,36
760,86	1245,16
761,04	1261,55
761,22	1284,08
761,39	1345,52
761,57	1267,69
761,75	1279,98
761,93	1282,03
762,11	1339,37
762,28	1267,69
762,46	1255,40
762,64	1275,88
762,82	1271,79
763,00	1296,36
763,18	1304,56
763,35	1271,79
763,53	1310,70
763,71	1259,50
763,89	1261,55
764,07	1167,34
764,24	1284,08
764,42	1267,69
764,60	1271,79
764,78	1316,84
764,96	1376,24
765,13	1216,49
765,31	1239,02
765,49	1198,06
765,67	1245,16
765,84	1306,60
766,02	1314,80
766,20	1202,16
766,38	1259,50
766,56	1257,45
766,73	1329,13
766,91	1236,97
767,09	1320,94
767,27	1282,03
767,44	1269,74
767,62	1273,84
767,80	1347,56
767,98	1275,88
768,15	1257,45
768,33	1222,64
768,51	1224,69
768,69	1308,65
768,87	1230,83
769,04	1243,12
769,22	1208,30
769,40	1206,25
769,58	1241,07
769,75	1314,80
769,93	1208,30
770,11	1298,41
770,28	1251,31
770,46	1253,36
770,64	1263,60
770,82	1300,46
770,99	1343,47
771,17	1236,97
771,35	1251,31
771,53	1308,65
771,70	1245,16
771,88	1243,12
772,06	1247,21
772,23	1261,55
772,41	1239,02
772,59	1343,47
772,77	1255,40
772,94	1243,12
773,12	1294,32
773,30	1318,89
773,47	1318,89
773,65	1222,64
773,83	1286,12
774,01	1275,88
774,18	1294,32
774,36	1247,21
774,54	1277,93
774,71	1288,17
774,89	1302,51
775,07	1290,22
775,24	1236,97
775,42	1273,84
775,60	1257,45
775,78	1159,15
775,95	1273,84
776,13	1318,89
776,31	1249,26
776,48	1292,27
776,66	1232,88
776,84	1257,45
777,01	1267,69
777,19	1189,87
777,37	1335,28
777,54	1210,35
777,72	1316,84
777,90	1230,83
778,07	1236,97
778,25	1331,18
778,43	1306,60
778,60	1263,60
778,78	1282,03
778,96	1292,27
779,13	1255,40
779,31	1351,66
779,49	1236,97
779,66	1312,75
779,84	1337,32
780,01	1222,64
780,19	1269,74
780,37	1224,69
780,54	1241,07
780,72	1318,89
780,90	1263,60
781,07	1267,69
781,25	1236,97
781,43	1267,69
781,60	1241,07
781,78	1300,46
781,95	1282,03
782,13	1226,73
782,31	1277,93
782,48	1271,79
782,66	1243,12
782,83	1306,60
783,01	1239,02
783,19	1335,28
783,36	1249,26
783,54	1200,11
783,72	1290,22
783,89	1288,17
784,07	1214,45
784,24	1273,84
784,42	1222,64
784,60	1232,88
784,77	1314,80
784,95	1224,69
785,12	1220,59
785,30	1208,30
785,47	1239,02
785,65	1251,31
785,83	1294,32
786,00	1327,08
786,18	1255,40
786,35	1271,79
786,53	1259,50
786,71	1239,02
786,88	1288,17
787,06	1216,49
787,23	1306,60
787,41	1259,50
787,58	1273,84
787,76	1239,02
787,94	1368,04
788,11	1298,41
788,29	1257,45
788,46	1275,88
788,64	1265,64
788,81	1306,60
788,99	1294,32
789,16	1351,66
789,34	1247,21
789,52	1300,46
789,69	1282,03
789,87	1286,12
790,04	1314,80
790,22	1275,88
790,39	1273,84
790,57	1171,44
790,74	1239,02
790,92	1261,55
791,09	1253,36
791,27	1247,21
791,44	1236,97
791,62	1286,12
791,79	1318,89
791,97	1251,31
792,15	1261,55
792,32	1263,60
792,50	1243,12
792,67	1253,36
792,85	1251,31
793,02	1226,73
793,20	1282,03
793,37	1245,16
793,55	1271,79
793,72	1228,78
793,90	1226,73
794,07	1269,74
794,25	1265,64
794,42	1230,83
794,60	1179,63
794,77	1255,40
794,95	1290,22
795,12	1320,94
795,30	1251,31
795,47	1257,45
795,65	1296,36
795,82	1273,84
796,00	1265,64
796,17	1308,65
796,34	1253,36
796,52	1286,12
796,69	1275,88
796,87	1253,36
797,04	1232,88
797,22	1267,69
797,39	1247,21
797,57	1308,65
797,74	1284,08
797,92	1282,03
798,09	1288,17
798,27	1263,60
798,44	1208,30
798,62	1325,04
798,79	1241,07
798,96	1376,24
799,14	1253,36
799,31	1308,65
799,49	1302,51
799,66	1234,93
799,84	1304,56
800,01	1288,17
800,19	1265,64
800,36	1273,84
800,53	1257,45
800,71	1253,36
800,88	1249,26
801,06	1296,36
801,23	1261,55
801,41	1290,22
801,58	1329,13
801,75	1220,59
801,93	1249,26
802,10	1255,40
802,28	1236,97
802,45	1282,03
802,63	1241,07
802,80	1290,22
802,97	1251,31
803,15	1247,21
803,32	1320,94
803,50	1304,56
803,67	1273,84
803,84	1255,40
804,02	1331,18
804,19	1294,32
804,37	1296,36
804,54	1271,79
804,71	1277,93
804,89	1245,16
805,06	1263,60
805,24	1277,93
805,41	1284,08
805,58	1241,07
805,76	1245,16
805,93	1292,27
806,10	1140,72
806,28	1279,98
806,45	1255,40
806,63	1206,25
806,80	1245,16
806,97	1273,84
807,15	1191,92
807,32	1183,73
807,49	1318,89
807,67	1269,74
807,84	1202,16
808,01	1263,60
808,19	1257,45
808,36	1255,40
808,54	1222,64
808,71	1337,32
808,88	1296,36
809,06	1263,60
809,23	1239,02
809,40	1226,73
809,58	1212,40
809,75	1232,88
809,92	1269,74
810,10	1265,64
810,27	1298,41
810,44	1327,08
810,62	1259,50
810,79	1202,16
810,96	1302,51
811,14	1271,79
811,31	1265,64
811,48	1320,94
811,66	1337,32
811,83	1277,93
812,00	1312,75
812,18	1282,03
812,35	1269,74
812,52	1284,08
812,69	1353,71
812,87	1255,40
813,04	1316,84
813,21	1273,84
813,39	1261,55
813,56	1273,84
813,73	1267,69
813,91	1236,97
814,08	1292,27
814,25	1222,64
814,42	1226,73
814,60	1249,26
814,77	1308,65
814,94	1290,22
815,12	1290,22
815,29	1320,94
815,46	1279,98
815,63	1263,60
815,81	1247,21
815,98	1298,41
816,15	1243,12
816,33	1306,60
816,50	1263,60
816,67	1261,55
816,84	1279,98
817,02	1275,88
817,19	1339,37
817,36	1269,74
817,53	1263,60
817,71	1222,64
817,88	1183,73
818,05	1255,40
818,22	1284,08
818,40	1255,40
818,57	1230,83
818,74	1296,36
818,91	1257,45
819,09	1259,50
819,26	1306,60
819,43	1236,97
819,60	1361,90
819,78	1228,78
819,95	1296,36
820,12	1257,45
820,29	1322,99
820,47	1251,31
820,64	1294,32
820,81	1279,98
820,98	1206,25
821,15	1202,16
821,33	1239,02
821,50	1298,41
821,67	1255,40
821,84	1261,55
822,02	1335,28
822,19	1253,36
822,36	1224,69
822,53	1230,83
822,70	1265,64
822,88	1286,12
823,05	1275,88
823,22	1245,16
823,39	1263,60
823,56	1312,75
823,74	1241,07
823,91	1265,64
824,08	1183,73
824,25	1230,83
824,42	1200,11
824,60	1245,16
824,77	1204,21
824,94	1251,31
825,11	1363,95
825,28	1214,45
825,45	1294,32
825,63	1282,03
825,80	1232,88
825,97	1290,22
826,14	1300,46
826,31	1249,26
826,48	1236,97
826,66	1277,93
826,83	1239,02
827,00	1304,56
827,17	1288,17
827,34	1243,12
827,51	1247,21
827,69	1230,83
827,86	1255,40
828,03	1329,13
828,20	1341,42
828,37	1247,21
828,54	1247,21
828,71	1236,97
828,89	1312,75
829,06	1302,51
829,23	1236,97
829,40	1279,98
829,57	1269,74
829,74	1302,51
829,91	1267,69
830,09	1255,40
830,26	1249,26
830,43	1230,83
830,60	1286,12
830,77	1257,45
830,94	1273,84
831,11	1269,74
831,28	1296,36
831,46	1277,93
831,63	1306,60
831,80	1316,84
831,97	1277,93
832,14	1236,97
832,31	1294,32
832,48	1245,16
832,65	1290,22
832,82	1222,64
832,99	1304,56
833,17	1241,07
833,34	1243,12
833,51	1279,98
833,68	1292,27
833,85	1232,88
834,02	1292,27
834,19	1273,84
834,36	1290,22
834,53	1302,51
834,70	1206,25
834,87	1222,64
835,04	1261,55
835,22	1306,60
835,39	1245,16
835,56	1277,93
835,73	1327,08
835,90	1302,51
836,07	1269,74
836,24	1204,21
836,41	1236,97
836,58	1304,56
836,75	1253,36
836,92	1230,83
837,09	1310,70
837,26	1271,79
837,43	1243,12
837,60	1341,42
837,77	1277,93
837,94	1253,36
838,12	1249,26
838,29	1257,45
838,46	1259,50
838,63	1257,45
838,80	1298,41
838,97	1304,56
839,14	1261,55
839,31	1224,69
839,48	1263,60
839,65	1279,98
839,82	1279,98
839,99	1212,40
840,16	1214,45
840,33	1257,45
840,50	1232,88
840,67	1191,92
840,84	1275,88
841,01	1214,45
841,18	1284,08
841,35	1263,60
841,52	1265,64
841,69	1302,51
841,86	1257,45
842,03	1251,31
842,20	1255,40
842,37	1247,21
842,54	1259,50
842,71	1267,69
842,88	1239,02
843,05	1273,84
843,22	1282,03
843,39	1202,16
843,56	1302,51
843,73	1306,60
843,90	1288,17
844,07	1206,25
844,24	1257,45
844,41	1308,65
844,58	1261,55
844,75	1251,31
844,92	1249,26
845,09	1232,88
845,26	1255,40
845,43	1277,93
845,60	1265,64
845,77	1316,84
845,94	1222,64
846,10	1214,45
846,27	1239,02
846,44	1239,02
846,61	1249,26
846,78	1279,98
846,95	1273,84
847,12	1279,98
847,29	1216,49
847,46	1349,61
847,63	1216,49
847,80	1251,31
847,97	1255,40
848,14	1251,31
848,31	1279,98
848,48	1241,07
848,65	1232,88
848,82	1302,51
848,98	1286,12
849,15	1257,45
849,32	1232,88
849,49	1222,64
849,66	1243,12
849,83	1296,36
850,00	1300,46
850,17	1269,74
850,34	1234,93
850,51	1232,88
850,68	1267,69
850,85	1208,30
851,01	1282,03
851,18	1269,74
851,35	1273,84
851,52	1275,88
851,69	1261,55
851,86	1255,40
852,03	1212,40
852,20	1304,56
852,37	1320,94
852,53	1236,97
852,70	1230,83
852,87	1220,59
853,04	1275,88
853,21	1245,16
853,38	1218,54
853,55	1273,84
853,72	1271,79
853,89	1357,80
854,05	1300,46
854,22	1314,80
854,39	1279,98
854,56	1251,31
854,73	1361,90
854,90	1261,55
855,07	1263,60
855,23	1290,22
855,40	1292,27
855,57	1206,25
855,74	1290,22
855,91	1282,03
856,08	1304,56
856,25	1286,12
856,41	1275,88
856,58	1296,36
856,75	1245,16
856,92	1208,30
857,09	1327,08
857,26	1308,65
857,42	1302,51
857,59	1208,30
857,76	1181,68
857,93	1228,78
858,10	1337,32
858,27	1306,60
858,43	1259,50
858,60	1327,08
858,77	1187,82
858,94	1302,51
859,11	1279,98
859,27	1204,21
859,44	1288,17
859,61	1310,70
859,78	1271,79
859,95	1314,80
860,12	1140,72
860,28	1290,22
860,45	1343,47
860,62	1327,08
860,79	1239,02
860,95	1359,85
861,12	1312,75
861,29	1279,98
861,46	1263,60
861,63	1193,97
861,79	1304,56
861,96	1265,64
862,13	1279,98
862,30	1318,89
862,47	1320,94
862,63	1290,22
862,80	1275,88
862,97	1265,64
863,14	1294,32
863,30	1249,26
863,47	1271,79
863,64	1288,17
863,81	1263,60
863,97	1224,69
864,14	1271,79
864,31	1165,29
864,48	1306,60
864,65	1308,65
864,81	1249,26
864,98	1253,36
865,15	1265,64
865,32	1263,60
865,48	1304,56
865,65	1310,70
865,82	1243,12
865,98	1337,32
866,15	1304,56
866,32	1251,31
866,49	1288,17
866,65	1279,98
866,82	1198,06
866,99	1220,59
867,16	1222,64
867,32	1306,60
867,49	1255,40
867,66	1216,49
867,83	1271,79
867,99	1224,69
868,16	1310,70
868,33	1224,69
868,49	1234,93
868,66	1228,78
868,83	1284,08
868,99	1245,16
869,16	1259,50
869,33	1279,98
869,50	1234,93
869,66	1181,68
869,83	1241,07
870,00	1279,98
870,16	1269,74
870,33	1259,50
870,50	1284,08
870,66	1265,64
870,83	1247,21
871,00	1241,07
871,17	1210,35
871,33	1300,46
871,50	1312,75
871,67	1271,79
871,83	1251,31
872,00	1304,56
872,17	1277,93
872,33	1269,74
872,50	1169,39
872,67	1290,22
872,83	1345,52
873,00	1329,13
873,17	1316,84
873,33	1277,93
873,50	1320,94
873,67	1273,84
873,83	1265,64
874,00	1247,21
874,16	1261,55
874,33	1282,03
874,50	1277,93
874,66	1212,40
874,83	1239,02
875,00	1302,51
875,16	1294,32
875,33	1300,46
875,50	1236,97
875,66	1249,26
875,83	1333,23
875,99	1304,56
876,16	1288,17
876,33	1288,17
876,49	1253,36
876,66	1218,54
876,83	1200,11
876,99	1202,16
877,16	1304,56
877,32	1320,94
877,49	1306,60
877,66	1224,69
877,82	1288,17
877,99	1218,54
878,15	1296,36
878,32	1239,02
878,49	1255,40
878,65	1318,89
878,82	1214,45
878,98	1247,21
879,15	1255,40
879,32	1290,22
879,48	1243,12
879,65	1196,01
879,81	1243,12
879,98	1251,31
880,15	1316,84
880,31	1222,64
880,48	1245,16
880,64	1239,02
880,81	1359,85
880,97	1220,59
881,14	1292,27
881,31	1236,97
881,47	1243,12
881,64	1214,45
881,80	1290,22
881,97	1304,56
882,13	1288,17
882,30	1275,88
882,47	1198,06
882,63	1253,36
882,80	1228,78
882,96	1296,36
883,13	1232,88
883,29	1208,30
883,46	1322,99
883,62	1247,21
883,79	1249,26
883,95	1279,98
884,12	1306,60
884,29	1335,28
884,45	1320,94
884,62	1257,45
884,78	1296,36
884,95	1249,26
885,11	1247,21
885,28	1267,69
885,44	1277,93
885,61	1300,46
885,77	1239,02
885,94	1265,64
886,10	1169,39
886,27	1306,60
886,43	1284,08
886,60	1265,64
886,76	1320,94
886,93	1210,35
887,09	1284,08
887,26	1259,50
887,42	1302,51
887,59	1265,64
887,75	1177,58
887,92	1310,70
888,08	1251,31
888,25	1390,57
888,41	1253,36
888,58	1331,18
888,74	1298,41
888,91	1310,70
>>>>>End Processed Spectral Data<<<<<
