SpectraSuite Data File
++++++++++++++++++++++++++++++++++++
Date: Sun Apr 03 16:04:04 CEST 2016
User: root
Dark Spectrum Present: No
Reference Spectrum Present: No
Number of Sampled Component Spectra: 1
Spectrometers: USB4C02835
Integration Time (usec): 10000 (USB4C02835)
Spectra Averaged: 1 (USB4C02835)
Boxcar Smoothing: 0 (USB4C02835)
Correct for Electrical Dark: No (USB4C02835)
Strobe/Lamp Enabled: No (USB4C02835)
Correct for Detector Non-linearity: No (USB4C02835)
Correct for Stray Light: No (USB4C02835)
Number of Pixels in Processed Spectrum: 3648
>>>>>Begin Processed Spectral Data<<<<<
177,47	1232,88
177,69	1232,88
177,91	1232,88
178,13	1232,88
178,36	1220,59
178,58	1267,69
178,80	1267,69
179,02	1247,21
179,24	1232,88
179,46	1249,26
179,68	1271,79
179,90	1210,35
180,13	1286,12
180,35	1214,45
180,57	1210,35
180,79	1208,30
181,01	1318,89
181,23	1296,36
181,45	1239,02
181,67	1312,75
181,90	1308,65
182,12	1247,21
182,34	1253,36
182,56	1298,41
182,78	1341,42
183,00	1126,38
183,22	1298,41
183,44	1241,07
183,66	1273,84
183,89	1191,92
184,11	1288,17
184,33	1273,84
184,55	1273,84
184,77	1329,13
184,99	1294,32
185,21	1212,40
185,43	1288,17
185,65	1335,28
185,87	1214,45
186,10	1273,84
186,32	1304,56
186,54	1308,65
186,76	1288,17
186,98	1251,31
187,20	1288,17
187,42	1271,79
187,64	1239,02
187,86	1259,50
188,08	1249,26
188,30	1294,32
188,52	1249,26
188,75	1257,45
188,97	1298,41
189,19	1288,17
189,41	1234,93
189,63	1271,79
189,85	1298,41
190,07	1343,47
190,29	1253,36
190,51	1277,93
190,73	1279,98
190,95	1310,70
191,17	1212,40
191,39	1271,79
191,61	1339,37
191,84	1263,60
192,06	1288,17
192,28	1243,12
192,50	1304,56
192,72	1241,07
192,94	1218,54
193,16	1245,16
193,38	1263,60
193,60	1376,24
193,82	1222,64
194,04	1251,31
194,26	1290,22
194,48	1288,17
194,70	1294,32
194,92	1247,21
195,14	1320,94
195,36	1171,44
195,58	1193,97
195,80	1220,59
196,02	1294,32
196,24	1236,97
196,46	1267,69
196,69	1230,83
196,91	1206,25
197,13	1288,17
197,35	1322,99
197,57	1241,07
197,79	1251,31
198,01	1210,35
198,23	1382,38
198,45	1290,22
198,67	1269,74
198,89	1294,32
199,11	1296,36
199,33	1265,64
199,55	1230,83
199,77	1292,27
199,99	1286,12
200,21	1275,88
200,43	1325,04
200,65	1230,83
200,87	1232,88
201,09	1253,36
201,31	1312,75
201,53	1232,88
201,75	1310,70
201,97	1331,18
202,19	1314,80
202,41	1372,14
202,63	1277,93
202,85	1282,03
203,07	1337,32
203,29	1269,74
203,51	1288,17
203,73	1290,22
203,95	1286,12
204,17	1239,02
204,39	1267,69
204,61	1355,76
204,83	1234,93
205,05	1296,36
205,27	1212,40
205,49	1206,25
205,71	1228,78
205,93	1232,88
206,15	1298,41
206,37	1288,17
206,59	1290,22
206,81	1290,22
207,03	1247,21
207,25	1236,97
207,47	1255,40
207,69	1200,11
207,91	1257,45
208,13	1284,08
208,34	1279,98
208,56	1202,16
208,78	1261,55
209,00	1247,21
209,22	1261,55
209,44	1304,56
209,66	1247,21
209,88	1202,16
210,10	1263,60
210,32	1269,74
210,54	1206,25
210,76	1253,36
210,98	1257,45
211,20	1288,17
211,42	1224,69
211,64	1251,31
211,86	1261,55
212,08	1269,74
212,30	1286,12
212,52	1300,46
212,74	1230,83
212,96	1325,04
213,17	1310,70
213,39	1284,08
213,61	1300,46
213,83	1286,12
214,05	1312,75
214,27	1290,22
214,49	1185,77
214,71	1222,64
214,93	1310,70
215,15	1339,37
215,37	1273,84
215,59	1226,73
215,81	1333,23
216,03	1265,64
216,24	1288,17
216,46	1267,69
216,68	1300,46
216,90	1191,92
217,12	1247,21
217,34	1241,07
217,56	1245,16
217,78	1277,93
218,00	1228,78
218,22	1265,64
218,44	1265,64
218,66	1236,97
218,87	1236,97
219,09	1257,45
219,31	1329,13
219,53	1302,51
219,75	1255,40
219,97	1308,65
220,19	1325,04
220,41	1337,32
220,63	1320,94
220,85	1273,84
221,06	1257,45
221,28	1245,16
221,50	1339,37
221,72	1247,21
221,94	1251,31
222,16	1230,83
222,38	1247,21
222,60	1306,60
222,82	1247,21
223,03	1249,26
223,25	1345,52
223,47	1277,93
223,69	1304,56
223,91	1271,79
224,13	1263,60
224,35	1224,69
224,57	1267,69
224,78	1296,36
225,00	1357,80
225,22	1261,55
225,44	1300,46
225,66	1267,69
225,88	1257,45
226,10	1273,84
226,32	1273,84
226,53	1255,40
226,75	1357,80
226,97	1286,12
227,19	1261,55
227,41	1298,41
227,63	1273,84
227,85	1310,70
228,06	1296,36
228,28	1275,88
228,50	1314,80
228,72	1257,45
228,94	1298,41
229,16	1310,70
229,37	1259,50
229,59	1247,21
229,81	1298,41
230,03	1198,06
230,25	1310,70
230,47	1167,34
230,69	1294,32
230,90	1284,08
231,12	1259,50
231,34	1316,84
231,56	1366,00
231,78	1214,45
232,00	1316,84
232,21	1183,73
232,43	1232,88
232,65	1302,51
232,87	1230,83
233,09	1286,12
233,30	1241,07
233,52	1269,74
233,74	1206,25
233,96	1234,93
234,18	1241,07
234,40	1282,03
234,61	1218,54
234,83	1232,88
235,05	1269,74
235,27	1298,41
235,49	1353,71
235,70	1300,46
235,92	1230,83
236,14	1294,32
236,36	1232,88
236,58	1181,68
236,79	1286,12
237,01	1388,52
237,23	1292,27
237,45	1257,45
237,67	1271,79
237,88	1284,08
238,10	1224,69
238,32	1290,22
238,54	1337,32
238,76	1230,83
238,97	1247,21
239,19	1220,59
239,41	1345,52
239,63	1322,99
239,85	1243,12
240,06	1277,93
240,28	1288,17
240,50	1284,08
240,72	1279,98
240,93	1218,54
241,15	1320,94
241,37	1249,26
241,59	1204,21
241,81	1288,17
242,02	1277,93
242,24	1257,45
242,46	1288,17
242,68	1130,48
242,89	1294,32
243,11	1232,88
243,33	1312,75
243,55	1286,12
243,76	1277,93
243,98	1320,94
244,20	1310,70
244,42	1220,59
244,64	1355,76
244,85	1257,45
245,07	1243,12
245,29	1265,64
245,51	1226,73
245,72	1191,92
245,94	1322,99
246,16	1296,36
246,38	1331,18
246,59	1228,78
246,81	1200,11
247,03	1243,12
247,24	1322,99
247,46	1290,22
247,68	1290,22
247,90	1267,69
248,11	1251,31
248,33	1286,12
248,55	1282,03
248,77	1232,88
248,98	1243,12
249,20	1234,93
249,42	1279,98
249,64	1236,97
249,85	1294,32
250,07	1239,02
250,29	1343,47
250,50	1347,56
250,72	1288,17
250,94	1267,69
251,16	1271,79
251,37	1239,02
251,59	1263,60
251,81	1259,50
252,02	1277,93
252,24	1320,94
252,46	1259,50
252,68	1284,08
252,89	1216,49
253,11	1261,55
253,33	1275,88
253,54	1325,04
253,76	1322,99
253,98	1226,73
254,20	1318,89
254,41	1257,45
254,63	1320,94
254,85	1296,36
255,06	1353,71
255,28	1181,68
255,50	1245,16
255,71	1294,32
255,93	1241,07
256,15	1306,60
256,36	1251,31
256,58	1230,83
256,80	1282,03
257,02	1218,54
257,23	1279,98
257,45	1265,64
257,67	1263,60
257,88	1284,08
258,10	1206,25
258,32	1290,22
258,53	1304,56
258,75	1284,08
258,97	1333,23
259,18	1322,99
259,40	1222,64
259,62	1261,55
259,83	1228,78
260,05	1265,64
260,27	1263,60
260,48	1216,49
260,70	1249,26
260,92	1306,60
261,13	1255,40
261,35	1179,63
261,57	1253,36
261,78	1228,78
262,00	1230,83
262,22	1300,46
262,43	1345,52
262,65	1245,16
262,86	1294,32
263,08	1282,03
263,30	1290,22
263,51	1222,64
263,73	1308,65
263,95	1298,41
264,16	1359,85
264,38	1257,45
264,60	1239,02
264,81	1298,41
265,03	1259,50
265,25	1333,23
265,46	1245,16
265,68	1247,21
265,89	1204,21
266,11	1251,31
266,33	1239,02
266,54	1224,69
266,76	1239,02
266,98	1325,04
267,19	1294,32
267,41	1304,56
267,62	1179,63
267,84	1263,60
268,06	1288,17
268,27	1261,55
268,49	1275,88
268,70	1310,70
268,92	1282,03
269,14	1284,08
269,35	1259,50
269,57	1298,41
269,79	1230,83
270,00	1269,74
270,22	1259,50
270,43	1208,30
270,65	1290,22
270,87	1310,70
271,08	1243,12
271,30	1232,88
271,51	1236,97
271,73	1277,93
271,95	1286,12
272,16	1290,22
272,38	1214,45
272,59	1218,54
272,81	1273,84
273,02	1282,03
273,24	1277,93
273,46	1282,03
273,67	1277,93
273,89	1224,69
274,10	1181,68
274,32	1208,30
274,54	1290,22
274,75	1263,60
274,97	1253,36
275,18	1306,60
275,40	1296,36
275,61	1228,78
275,83	1282,03
276,05	1249,26
276,26	1284,08
276,48	1286,12
276,69	1306,60
276,91	1327,08
277,12	1267,69
277,34	1265,64
277,55	1343,47
277,77	1306,60
277,99	1284,08
278,20	1282,03
278,42	1265,64
278,63	1343,47
278,85	1320,94
279,06	1282,03
279,28	1255,40
279,49	1239,02
279,71	1337,32
279,93	1282,03
280,14	1277,93
280,36	1286,12
280,57	1255,40
280,79	1279,98
281,00	1288,17
281,22	1269,74
281,43	1265,64
281,65	1304,56
281,86	1298,41
282,08	1261,55
282,29	1263,60
282,51	1314,80
282,73	1271,79
282,94	1284,08
283,16	1228,78
283,37	1282,03
283,59	1355,76
283,80	1318,89
284,02	1318,89
284,23	1337,32
284,45	1239,02
284,66	1255,40
284,88	1355,76
285,09	1302,51
285,31	1265,64
285,52	1269,74
285,74	1232,88
285,95	1200,11
286,17	1290,22
286,38	1263,60
286,60	1284,08
286,81	1247,21
287,03	1253,36
287,24	1269,74
287,46	1288,17
287,67	1243,12
287,89	1159,15
288,10	1286,12
288,32	1263,60
288,53	1366,00
288,75	1236,97
288,96	1282,03
289,18	1236,97
289,39	1286,12
289,61	1261,55
289,82	1298,41
290,04	1214,45
290,25	1245,16
290,47	1234,93
290,68	1247,21
290,90	1294,32
291,11	1204,21
291,33	1351,66
291,54	1306,60
291,76	1294,32
291,97	1232,88
292,18	1296,36
292,40	1251,31
292,61	1236,97
292,83	1243,12
293,04	1206,25
293,26	1263,60
293,47	1351,66
293,69	1318,89
293,90	1257,45
294,12	1298,41
294,33	1337,32
294,55	1267,69
294,76	1331,18
294,97	1296,36
295,19	1290,22
295,40	1275,88
295,62	1282,03
295,83	1277,93
296,05	1296,36
296,26	1273,84
296,48	1339,37
296,69	1294,32
296,90	1259,50
297,12	1204,21
297,33	1210,35
297,55	1200,11
297,76	1322,99
297,98	1230,83
298,19	1263,60
298,41	1251,31
298,62	1241,07
298,83	1220,59
299,05	1288,17
299,26	1296,36
299,48	1345,52
299,69	1249,26
299,90	1257,45
300,12	1249,26
300,33	1265,64
300,55	1282,03
300,76	1249,26
300,98	1271,79
301,19	1351,66
301,40	1224,69
301,62	1259,50
301,83	1216,49
302,05	1216,49
302,26	1310,70
302,47	1300,46
302,69	1347,56
302,90	1271,79
303,12	1243,12
303,33	1267,69
303,54	1284,08
303,76	1298,41
303,97	1212,40
304,19	1345,52
304,40	1267,69
304,61	1300,46
304,83	1261,55
305,04	1312,75
305,26	1300,46
305,47	1345,52
305,68	1271,79
305,90	1290,22
306,11	1224,69
306,33	1259,50
306,54	1206,25
306,75	1286,12
306,97	1341,42
307,18	1345,52
307,39	1322,99
307,61	1290,22
307,82	1273,84
308,04	1263,60
308,25	1275,88
308,46	1275,88
308,68	1286,12
308,89	1312,75
309,10	1247,21
309,32	1279,98
309,53	1224,69
309,74	1257,45
309,96	1320,94
310,17	1363,95
310,39	1286,12
310,60	1279,98
310,81	1173,49
311,03	1273,84
311,24	1294,32
311,45	1265,64
311,67	1290,22
311,88	1173,49
312,09	1273,84
312,31	1259,50
312,52	1273,84
312,73	1282,03
312,95	1255,40
313,16	1331,18
313,37	1290,22
313,59	1290,22
313,80	1224,69
314,01	1288,17
314,23	1288,17
314,44	1284,08
314,65	1277,93
314,87	1282,03
315,08	1263,60
315,29	1265,64
315,51	1234,93
315,72	1269,74
315,93	1249,26
316,15	1241,07
316,36	1265,64
316,57	1241,07
316,79	1253,36
317,00	1261,55
317,21	1241,07
317,43	1263,60
317,64	1251,31
317,85	1286,12
318,07	1247,21
318,28	1263,60
318,49	1316,84
318,70	1318,89
318,92	1284,08
319,13	1310,70
319,34	1294,32
319,56	1306,60
319,77	1335,28
319,98	1239,02
320,20	1236,97
320,41	1191,92
320,62	1189,87
320,83	1349,61
321,05	1288,17
321,26	1222,64
321,47	1230,83
321,69	1345,52
321,90	1259,50
322,11	1196,01
322,32	1279,98
322,54	1312,75
322,75	1282,03
322,96	1302,51
323,18	1226,73
323,39	1277,93
323,60	1275,88
323,81	1314,80
324,03	1273,84
324,24	1271,79
324,45	1265,64
324,66	1279,98
324,88	1241,07
325,09	1329,13
325,30	1320,94
325,52	1296,36
325,73	1210,35
325,94	1251,31
326,15	1220,59
326,37	1275,88
326,58	1353,71
326,79	1279,98
327,00	1241,07
327,22	1249,26
327,43	1249,26
327,64	1259,50
327,85	1304,56
328,07	1243,12
328,28	1251,31
328,49	1243,12
328,70	1294,32
328,92	1239,02
329,13	1314,80
329,34	1316,84
329,55	1208,30
329,76	1239,02
329,98	1284,08
330,19	1232,88
330,40	1300,46
330,61	1251,31
330,83	1259,50
331,04	1310,70
331,25	1290,22
331,46	1210,35
331,68	1335,28
331,89	1267,69
332,10	1275,88
332,31	1241,07
332,52	1290,22
332,74	1296,36
332,95	1230,83
333,16	1267,69
333,37	1284,08
333,58	1298,41
333,80	1286,12
334,01	1273,84
334,22	1253,36
334,43	1279,98
334,64	1273,84
334,86	1183,73
335,07	1275,88
335,28	1298,41
335,49	1185,77
335,70	1345,52
335,92	1259,50
336,13	1220,59
336,34	1257,45
336,55	1310,70
336,76	1253,36
336,98	1249,26
337,19	1282,03
337,40	1265,64
337,61	1325,04
337,82	1228,78
338,04	1247,21
338,25	1253,36
338,46	1339,37
338,67	1208,30
338,88	1296,36
339,09	1249,26
339,31	1288,17
339,52	1241,07
339,73	1273,84
339,94	1257,45
340,15	1259,50
340,36	1363,95
340,58	1304,56
340,79	1247,21
341,00	1267,69
341,21	1261,55
341,42	1296,36
341,63	1247,21
341,85	1277,93
342,06	1294,32
342,27	1265,64
342,48	1296,36
342,69	1284,08
342,90	1247,21
343,12	1146,86
343,33	1277,93
343,54	1220,59
343,75	1351,66
343,96	1284,08
344,17	1253,36
344,38	1228,78
344,60	1282,03
344,81	1294,32
345,02	1265,64
345,23	1290,22
345,44	1265,64
345,65	1306,60
345,86	1218,54
346,07	1271,79
346,29	1269,74
346,50	1253,36
346,71	1265,64
346,92	1255,40
347,13	1273,84
347,34	1257,45
347,55	1261,55
347,76	1247,21
347,98	1241,07
348,19	1361,90
348,40	1304,56
348,61	1245,16
348,82	1290,22
349,03	1284,08
349,24	1220,59
349,45	1275,88
349,66	1318,89
349,88	1277,93
350,09	1277,93
350,30	1257,45
350,51	1290,22
350,72	1187,82
350,93	1257,45
351,14	1290,22
351,35	1245,16
351,56	1251,31
351,77	1322,99
351,99	1292,27
352,20	1288,17
352,41	1290,22
352,62	1247,21
352,83	1277,93
353,04	1275,88
353,25	1269,74
353,46	1329,13
353,67	1288,17
353,88	1257,45
354,09	1198,06
354,30	1269,74
354,52	1249,26
354,73	1273,84
354,94	1345,52
355,15	1263,60
355,36	1226,73
355,57	1265,64
355,78	1216,49
355,99	1230,83
356,20	1269,74
356,41	1282,03
356,62	1265,64
356,83	1247,21
357,04	1306,60
357,25	1243,12
357,46	1181,68
357,68	1247,21
357,89	1345,52
358,10	1292,27
358,31	1249,26
358,52	1257,45
358,73	1230,83
358,94	1247,21
359,15	1325,04
359,36	1239,02
359,57	1230,83
359,78	1257,45
359,99	1345,52
360,20	1198,06
360,41	1265,64
360,62	1214,45
360,83	1284,08
361,04	1314,80
361,25	1249,26
361,46	1257,45
361,67	1296,36
361,88	1220,59
362,09	1232,88
362,30	1259,50
362,51	1273,84
362,72	1273,84
362,93	1204,21
363,14	1183,73
363,35	1279,98
363,56	1214,45
363,78	1173,49
363,99	1249,26
364,20	1255,40
364,41	1247,21
364,62	1288,17
364,83	1277,93
365,04	1306,60
365,25	1226,73
365,46	1286,12
365,67	1196,01
365,88	1277,93
366,09	1181,68
366,30	1292,27
366,51	1284,08
366,72	1294,32
366,93	1228,78
367,14	1253,36
367,35	1298,41
367,56	1187,82
367,77	1236,97
367,98	1218,54
368,18	1277,93
368,39	1327,08
368,60	1220,59
368,81	1249,26
369,02	1357,80
369,23	1234,93
369,44	1341,42
369,65	1265,64
369,86	1271,79
370,07	1261,55
370,28	1243,12
370,49	1253,36
370,70	1345,52
370,91	1249,26
371,12	1284,08
371,33	1257,45
371,54	1247,21
371,75	1335,28
371,96	1261,55
372,17	1275,88
372,38	1253,36
372,59	1322,99
372,80	1314,80
373,01	1191,92
373,22	1239,02
373,43	1273,84
373,64	1259,50
373,85	1216,49
374,06	1292,27
374,26	1282,03
374,47	1304,56
374,68	1341,42
374,89	1232,88
375,10	1312,75
375,31	1245,16
375,52	1220,59
375,73	1290,22
375,94	1322,99
376,15	1251,31
376,36	1296,36
376,57	1322,99
376,78	1302,51
376,99	1241,07
377,20	1275,88
377,40	1312,75
377,61	1347,56
377,82	1279,98
378,03	1312,75
378,24	1226,73
378,45	1339,37
378,66	1296,36
378,87	1282,03
379,08	1208,30
379,29	1290,22
379,50	1331,18
379,71	1279,98
379,91	1284,08
380,12	1294,32
380,33	1304,56
380,54	1286,12
380,75	1294,32
380,96	1234,93
381,17	1337,32
381,38	1298,41
381,59	1243,12
381,80	1167,34
382,00	1290,22
382,21	1253,36
382,42	1267,69
382,63	1275,88
382,84	1243,12
383,05	1251,31
383,26	1286,12
383,47	1249,26
383,68	1249,26
383,88	1277,93
384,09	1318,89
384,30	1286,12
384,51	1273,84
384,72	1216,49
384,93	1208,30
385,14	1339,37
385,35	1241,07
385,55	1247,21
385,76	1239,02
385,97	1163,25
386,18	1273,84
386,39	1277,93
386,60	1189,87
386,81	1224,69
387,02	1220,59
387,22	1234,93
387,43	1222,64
387,64	1259,50
387,85	1263,60
388,06	1214,45
388,27	1253,36
388,48	1263,60
388,68	1273,84
388,89	1247,21
389,10	1288,17
389,31	1267,69
389,52	1232,88
389,73	1232,88
389,93	1259,50
390,14	1279,98
390,35	1279,98
390,56	1206,25
390,77	1282,03
390,98	1271,79
391,18	1249,26
391,39	1267,69
391,60	1263,60
391,81	1366,00
392,02	1236,97
392,23	1308,65
392,43	1298,41
392,64	1249,26
392,85	1259,50
393,06	1298,41
393,27	1265,64
393,47	1216,49
393,68	1296,36
393,89	1247,21
394,10	1347,56
394,31	1208,30
394,52	1228,78
394,72	1187,82
394,93	1335,28
395,14	1316,84
395,35	1306,60
395,56	1247,21
395,76	1253,36
395,97	1284,08
396,18	1249,26
396,39	1224,69
396,60	1245,16
396,80	1232,88
397,01	1249,26
397,22	1239,02
397,43	1267,69
397,64	1277,93
397,84	1224,69
398,05	1241,07
398,26	1290,22
398,47	1325,04
398,67	1333,23
398,88	1294,32
399,09	1376,24
399,30	1335,28
399,51	1214,45
399,71	1253,36
399,92	1288,17
400,13	1232,88
400,34	1216,49
400,54	1253,36
400,75	1300,46
400,96	1236,97
401,17	1269,74
401,37	1288,17
401,58	1279,98
401,79	1232,88
402,00	1220,59
402,21	1304,56
402,41	1345,52
402,62	1261,55
402,83	1290,22
403,04	1273,84
403,24	1273,84
403,45	1279,98
403,66	1241,07
403,87	1232,88
404,07	1226,73
404,28	1304,56
404,49	1265,64
404,70	1277,93
404,90	1257,45
405,11	1253,36
405,32	1261,55
405,52	1322,99
405,73	1269,74
405,94	1183,73
406,15	1292,27
406,35	1216,49
406,56	1345,52
406,77	1302,51
406,98	1224,69
407,18	1220,59
407,39	1286,12
407,60	1253,36
407,80	1279,98
408,01	1327,08
408,22	1286,12
408,43	1193,97
408,63	1267,69
408,84	1243,12
409,05	1298,41
409,25	1282,03
409,46	1294,32
409,67	1267,69
409,88	1345,52
410,08	1294,32
410,29	1298,41
410,50	1298,41
410,70	1306,60
410,91	1318,89
411,12	1253,36
411,32	1335,28
411,53	1236,97
411,74	1267,69
411,95	1200,11
412,15	1294,32
412,36	1271,79
412,57	1353,71
412,77	1296,36
412,98	1290,22
413,19	1265,64
413,39	1294,32
413,60	1198,06
413,81	1255,40
414,01	1300,46
414,22	1294,32
414,43	1273,84
414,63	1241,07
414,84	1347,56
415,05	1183,73
415,25	1331,18
415,46	1269,74
415,67	1290,22
415,87	1239,02
416,08	1282,03
416,29	1273,84
416,49	1282,03
416,70	1275,88
416,91	1300,46
417,11	1265,64
417,32	1329,13
417,53	1286,12
417,73	1259,50
417,94	1257,45
418,15	1312,75
418,35	1300,46
418,56	1286,12
418,77	1255,40
418,97	1298,41
419,18	1304,56
419,38	1288,17
419,59	1228,78
419,80	1290,22
420,00	1290,22
420,21	1294,32
420,42	1185,77
420,62	1259,50
420,83	1294,32
421,04	1255,40
421,24	1257,45
421,45	1243,12
421,65	1310,70
421,86	1234,93
422,07	1294,32
422,27	1277,93
422,48	1269,74
422,69	1294,32
422,89	1273,84
423,10	1255,40
423,30	1304,56
423,51	1206,25
423,72	1263,60
423,92	1253,36
424,13	1279,98
424,33	1226,73
424,54	1331,18
424,75	1255,40
424,95	1247,21
425,16	1275,88
425,36	1275,88
425,57	1282,03
425,78	1245,16
425,98	1306,60
426,19	1239,02
426,39	1300,46
426,60	1259,50
426,81	1331,18
427,01	1236,97
427,22	1259,50
427,42	1165,29
427,63	1339,37
427,83	1322,99
428,04	1353,71
428,25	1271,79
428,45	1322,99
428,66	1314,80
428,86	1253,36
429,07	1226,73
429,28	1247,21
429,48	1279,98
429,69	1265,64
429,89	1302,51
430,10	1316,84
430,30	1218,54
430,51	1337,32
430,71	1290,22
430,92	1306,60
431,13	1275,88
431,33	1245,16
431,54	1304,56
431,74	1284,08
431,95	1257,45
432,15	1206,25
432,36	1222,64
432,56	1290,22
432,77	1275,88
432,98	1226,73
433,18	1230,83
433,39	1245,16
433,59	1284,08
433,80	1357,80
434,00	1302,51
434,21	1204,21
434,41	1292,27
434,62	1212,40
434,82	1259,50
435,03	1214,45
435,23	1282,03
435,44	1216,49
435,64	1349,61
435,85	1394,67
436,06	1343,47
436,26	1259,50
436,47	1335,28
436,67	1241,07
436,88	1265,64
437,08	1236,97
437,29	1236,97
437,49	1245,16
437,70	1245,16
437,90	1265,64
438,11	1234,93
438,31	1247,21
438,52	1312,75
438,72	1208,30
438,93	1349,61
439,13	1288,17
439,34	1234,93
439,54	1226,73
439,75	1245,16
439,95	1310,70
440,16	1224,69
440,36	1222,64
440,57	1286,12
440,77	1273,84
440,98	1243,12
441,18	1282,03
441,39	1318,89
441,59	1265,64
441,80	1286,12
442,00	1232,88
442,21	1239,02
442,41	1259,50
442,62	1275,88
442,82	1282,03
443,02	1257,45
443,23	1226,73
443,43	1308,65
443,64	1329,13
443,84	1253,36
444,05	1292,27
444,25	1234,93
444,46	1236,97
444,66	1282,03
444,87	1331,18
445,07	1187,82
445,28	1282,03
445,48	1228,78
445,69	1357,80
445,89	1222,64
446,09	1273,84
446,30	1234,93
446,50	1279,98
446,71	1271,79
446,91	1380,33
447,12	1218,54
447,32	1327,08
447,53	1304,56
447,73	1396,71
447,93	1193,97
448,14	1284,08
448,34	1296,36
448,55	1243,12
448,75	1239,02
448,96	1279,98
449,16	1288,17
449,36	1286,12
449,57	1347,56
449,77	1239,02
449,98	1241,07
450,18	1294,32
450,39	1310,70
450,59	1292,27
450,79	1255,40
451,00	1245,16
451,20	1288,17
451,41	1279,98
451,61	1343,47
451,81	1302,51
452,02	1349,61
452,22	1310,70
452,43	1249,26
452,63	1298,41
452,84	1261,55
453,04	1282,03
453,24	1275,88
453,45	1314,80
453,65	1259,50
453,86	1322,99
454,06	1263,60
454,26	1310,70
454,47	1263,60
454,67	1259,50
454,87	1275,88
455,08	1226,73
455,28	1277,93
455,49	1206,25
455,69	1243,12
455,89	1247,21
456,10	1300,46
456,30	1296,36
456,51	1282,03
456,71	1214,45
456,91	1269,74
457,12	1239,02
457,32	1290,22
457,52	1359,85
457,73	1241,07
457,93	1241,07
458,14	1304,56
458,34	1314,80
458,54	1310,70
458,75	1189,87
458,95	1224,69
459,15	1216,49
459,36	1314,80
459,56	1345,52
459,76	1224,69
459,97	1286,12
460,17	1239,02
460,37	1245,16
460,58	1298,41
460,78	1273,84
460,99	1234,93
461,19	1302,51
461,39	1257,45
461,60	1296,36
461,80	1249,26
462,00	1327,08
462,21	1222,64
462,41	1255,40
462,61	1286,12
462,82	1279,98
463,02	1314,80
463,22	1296,36
463,43	1288,17
463,63	1261,55
463,83	1322,99
464,04	1318,89
464,24	1294,32
464,44	1185,77
464,64	1243,12
464,85	1239,02
465,05	1263,60
465,25	1234,93
465,46	1308,65
465,66	1271,79
465,86	1316,84
466,07	1290,22
466,27	1341,42
466,47	1277,93
466,68	1279,98
466,88	1298,41
467,08	1241,07
467,29	1232,88
467,49	1312,75
467,69	1232,88
467,89	1310,70
468,10	1249,26
468,30	1259,50
468,50	1273,84
468,71	1306,60
468,91	1228,78
469,11	1241,07
469,31	1308,65
469,52	1296,36
469,72	1290,22
469,92	1243,12
470,13	1208,30
470,33	1247,21
470,53	1257,45
470,73	1265,64
470,94	1249,26
471,14	1208,30
471,34	1273,84
471,54	1236,97
471,75	1273,84
471,95	1232,88
472,15	1271,79
472,36	1228,78
472,56	1314,80
472,76	1277,93
472,96	1265,64
473,17	1279,98
473,37	1322,99
473,57	1286,12
473,77	1202,16
473,98	1265,64
474,18	1208,30
474,38	1306,60
474,58	1259,50
474,79	1193,97
474,99	1284,08
475,19	1318,89
475,39	1251,31
475,60	1251,31
475,80	1263,60
476,00	1282,03
476,20	1357,80
476,41	1284,08
476,61	1294,32
476,81	1228,78
477,01	1255,40
477,21	1269,74
477,42	1259,50
477,62	1210,35
477,82	1247,21
478,02	1259,50
478,23	1337,32
478,43	1257,45
478,63	1271,79
478,83	1288,17
479,03	1228,78
479,24	1288,17
479,44	1273,84
479,64	1304,56
479,84	1196,01
480,04	1259,50
480,25	1273,84
480,45	1271,79
480,65	1282,03
480,85	1269,74
481,06	1259,50
481,26	1218,54
481,46	1265,64
481,66	1310,70
481,86	1288,17
482,06	1269,74
482,27	1265,64
482,47	1255,40
482,67	1236,97
482,87	1173,49
483,07	1337,32
483,28	1318,89
483,48	1290,22
483,68	1222,64
483,88	1226,73
484,08	1243,12
484,29	1296,36
484,49	1316,84
484,69	1282,03
484,89	1261,55
485,09	1255,40
485,29	1226,73
485,50	1277,93
485,70	1236,97
485,90	1216,49
486,10	1290,22
486,30	1279,98
486,50	1308,65
486,71	1255,40
486,91	1279,98
487,11	1247,21
487,31	1251,31
487,51	1230,83
487,71	1245,16
487,91	1253,36
488,12	1290,22
488,32	1284,08
488,52	1249,26
488,72	1269,74
488,92	1255,40
489,12	1273,84
489,32	1273,84
489,53	1325,04
489,73	1267,69
489,93	1292,27
490,13	1277,93
490,33	1325,04
490,53	1247,21
490,73	1273,84
490,94	1310,70
491,14	1271,79
491,34	1241,07
491,54	1316,84
491,74	1298,41
491,94	1212,40
492,14	1255,40
492,34	1290,22
492,54	1349,61
492,75	1320,94
492,95	1279,98
493,15	1288,17
493,35	1284,08
493,55	1251,31
493,75	1220,59
493,95	1257,45
494,15	1239,02
494,35	1279,98
494,56	1325,04
494,76	1282,03
494,96	1314,80
495,16	1257,45
495,36	1206,25
495,56	1265,64
495,76	1232,88
495,96	1284,08
496,16	1296,36
496,36	1294,32
496,56	1314,80
496,77	1249,26
496,97	1245,16
497,17	1310,70
497,37	1245,16
497,57	1277,93
497,77	1245,16
497,97	1228,78
498,17	1230,83
498,37	1265,64
498,57	1204,21
498,77	1263,60
498,97	1302,51
499,17	1286,12
499,38	1220,59
499,58	1265,64
499,78	1279,98
499,98	1316,84
500,18	1249,26
500,38	1220,59
500,58	1220,59
500,78	1286,12
500,98	1210,35
501,18	1249,26
501,38	1273,84
501,58	1222,64
501,78	1159,15
501,98	1333,23
502,18	1183,73
502,38	1366,00
502,58	1269,74
502,78	1208,30
502,98	1267,69
503,18	1282,03
503,38	1179,63
503,59	1300,46
503,79	1304,56
503,99	1230,83
504,19	1271,79
504,39	1263,60
504,59	1282,03
504,79	1251,31
504,99	1267,69
505,19	1322,99
505,39	1241,07
505,59	1349,61
505,79	1222,64
505,99	1333,23
506,19	1343,47
506,39	1298,41
506,59	1277,93
506,79	1259,50
506,99	1275,88
507,19	1316,84
507,39	1255,40
507,59	1296,36
507,79	1265,64
507,99	1288,17
508,19	1267,69
508,39	1255,40
508,59	1302,51
508,79	1363,95
508,99	1308,65
509,19	1292,27
509,39	1312,75
509,59	1292,27
509,79	1214,45
509,99	1286,12
510,19	1173,49
510,39	1337,32
510,59	1290,22
510,79	1236,97
510,99	1282,03
511,19	1351,66
511,39	1298,41
511,59	1267,69
511,79	1306,60
511,99	1325,04
512,19	1183,73
512,38	1261,55
512,58	1304,56
512,78	1290,22
512,98	1310,70
513,18	1390,57
513,38	1273,84
513,58	1251,31
513,78	1279,98
513,98	1200,11
514,18	1255,40
514,38	1269,74
514,58	1286,12
514,78	1232,88
514,98	1263,60
515,18	1298,41
515,38	1232,88
515,58	1279,98
515,78	1320,94
515,98	1322,99
516,18	1273,84
516,38	1308,65
516,57	1259,50
516,77	1212,40
516,97	1320,94
517,17	1282,03
517,37	1251,31
517,57	1292,27
517,77	1308,65
517,97	1359,85
518,17	1269,74
518,37	1292,27
518,57	1267,69
518,77	1308,65
518,97	1257,45
519,16	1273,84
519,36	1210,35
519,56	1310,70
519,76	1193,97
519,96	1349,61
520,16	1261,55
520,36	1282,03
520,56	1296,36
520,76	1220,59
520,96	1290,22
521,16	1290,22
521,35	1249,26
521,55	1198,06
521,75	1286,12
521,95	1308,65
522,15	1249,26
522,35	1294,32
522,55	1333,23
522,75	1255,40
522,95	1343,47
523,14	1273,84
523,34	1306,60
523,54	1286,12
523,74	1331,18
523,94	1316,84
524,14	1210,35
524,34	1335,28
524,54	1261,55
524,73	1263,60
524,93	1277,93
525,13	1296,36
525,33	1253,36
525,53	1277,93
525,73	1318,89
525,93	1325,04
526,13	1288,17
526,32	1247,21
526,52	1253,36
526,72	1308,65
526,92	1318,89
527,12	1263,60
527,32	1208,30
527,52	1343,47
527,71	1335,28
527,91	1236,97
528,11	1230,83
528,31	1331,18
528,51	1218,54
528,71	1196,01
528,90	1234,93
529,10	1282,03
529,30	1181,68
529,50	1228,78
529,70	1230,83
529,90	1232,88
530,09	1312,75
530,29	1224,69
530,49	1298,41
530,69	1222,64
530,89	1271,79
531,09	1239,02
531,28	1273,84
531,48	1275,88
531,68	1306,60
531,88	1277,93
532,08	1290,22
532,28	1316,84
532,47	1329,13
532,67	1267,69
532,87	1243,12
533,07	1232,88
533,27	1257,45
533,46	1320,94
533,66	1345,52
533,86	1308,65
534,06	1314,80
534,26	1308,65
534,45	1249,26
534,65	1273,84
534,85	1306,60
535,05	1290,22
535,25	1300,46
535,44	1210,35
535,64	1259,50
535,84	1318,89
536,04	1329,13
536,24	1253,36
536,43	1257,45
536,63	1269,74
536,83	1263,60
537,03	1284,08
537,22	1257,45
537,42	1298,41
537,62	1316,84
537,82	1228,78
538,02	1253,36
538,21	1343,47
538,41	1257,45
538,61	1277,93
538,81	1210,35
539,00	1286,12
539,20	1241,07
539,40	1230,83
539,60	1265,64
539,79	1277,93
539,99	1259,50
540,19	1241,07
540,39	1212,40
540,58	1286,12
540,78	1306,60
540,98	1288,17
541,18	1257,45
541,37	1267,69
541,57	1204,21
541,77	1320,94
541,97	1308,65
542,16	1216,49
542,36	1288,17
542,56	1288,17
542,76	1263,60
542,95	1271,79
543,15	1181,68
543,35	1279,98
543,54	1294,32
543,74	1339,37
543,94	1308,65
544,14	1335,28
544,33	1261,55
544,53	1294,32
544,73	1265,64
544,93	1275,88
545,12	1255,40
545,32	1294,32
545,52	1290,22
545,71	1253,36
545,91	1286,12
546,11	1241,07
546,30	1320,94
546,50	1275,88
546,70	1290,22
546,90	1277,93
547,09	1214,45
547,29	1288,17
547,49	1306,60
547,68	1204,21
547,88	1284,08
548,08	1275,88
548,27	1243,12
548,47	1239,02
548,67	1304,56
548,87	1234,93
549,06	1284,08
549,26	1216,49
549,46	1232,88
549,65	1241,07
549,85	1236,97
550,05	1193,97
550,24	1232,88
550,44	1253,36
550,64	1265,64
550,83	1216,49
551,03	1300,46
551,23	1290,22
551,42	1327,08
551,62	1251,31
551,82	1253,36
552,01	1314,80
552,21	1335,28
552,41	1302,51
552,60	1312,75
552,80	1251,31
553,00	1308,65
553,19	1253,36
553,39	1353,71
553,59	1279,98
553,78	1327,08
553,98	1224,69
554,17	1271,79
554,37	1236,97
554,57	1261,55
554,76	1243,12
554,96	1265,64
555,16	1214,45
555,35	1259,50
555,55	1189,87
555,75	1226,73
555,94	1234,93
556,14	1247,21
556,33	1286,12
556,53	1271,79
556,73	1310,70
556,92	1296,36
557,12	1288,17
557,32	1320,94
557,51	1304,56
557,71	1208,30
557,90	1333,23
558,10	1249,26
558,30	1290,22
558,49	1310,70
558,69	1230,83
558,88	1351,66
559,08	1322,99
559,28	1329,13
559,47	1210,35
559,67	1204,21
559,86	1314,80
560,06	1208,30
560,26	1292,27
560,45	1263,60
560,65	1282,03
560,84	1282,03
561,04	1251,31
561,24	1300,46
561,43	1265,64
561,63	1269,74
561,82	1312,75
562,02	1322,99
562,22	1273,84
562,41	1302,51
562,61	1271,79
562,80	1257,45
563,00	1277,93
563,19	1236,97
563,39	1292,27
563,59	1271,79
563,78	1265,64
563,98	1273,84
564,17	1247,21
564,37	1310,70
564,56	1298,41
564,76	1300,46
564,96	1267,69
565,15	1269,74
565,35	1290,22
565,54	1269,74
565,74	1255,40
565,93	1253,36
566,13	1337,32
566,32	1239,02
566,52	1239,02
566,71	1306,60
566,91	1310,70
567,11	1277,93
567,30	1255,40
567,50	1312,75
567,69	1306,60
567,89	1312,75
568,08	1282,03
568,28	1193,97
568,47	1255,40
568,67	1282,03
568,86	1257,45
569,06	1198,06
569,25	1253,36
569,45	1282,03
569,64	1279,98
569,84	1220,59
570,04	1193,97
570,23	1216,49
570,43	1316,84
570,62	1249,26
570,82	1331,18
571,01	1275,88
571,21	1363,95
571,40	1284,08
571,60	1327,08
571,79	1314,80
571,99	1277,93
572,18	1206,25
572,38	1275,88
572,57	1202,16
572,77	1331,18
572,96	1243,12
573,16	1294,32
573,35	1269,74
573,55	1236,97
573,74	1308,65
573,94	1255,40
574,13	1275,88
574,33	1265,64
574,52	1292,27
574,71	1279,98
574,91	1243,12
575,10	1298,41
575,30	1206,25
575,49	1333,23
575,69	1294,32
575,88	1255,40
576,08	1222,64
576,27	1308,65
576,47	1239,02
576,66	1277,93
576,86	1214,45
577,05	1277,93
577,25	1271,79
577,44	1257,45
577,64	1224,69
577,83	1322,99
578,02	1282,03
578,22	1343,47
578,41	1261,55
578,61	1271,79
578,80	1325,04
579,00	1263,60
579,19	1214,45
579,39	1253,36
579,58	1312,75
579,77	1275,88
579,97	1259,50
580,16	1222,64
580,36	1273,84
580,55	1310,70
580,75	1322,99
580,94	1232,88
581,13	1253,36
581,33	1300,46
581,52	1290,22
581,72	1226,73
581,91	1286,12
582,11	1230,83
582,30	1236,97
582,49	1271,79
582,69	1275,88
582,88	1337,32
583,08	1267,69
583,27	1265,64
583,47	1294,32
583,66	1247,21
583,85	1300,46
584,05	1325,04
584,24	1314,80
584,44	1245,16
584,63	1288,17
584,82	1263,60
585,02	1277,93
585,21	1265,64
585,41	1214,45
585,60	1193,97
585,79	1243,12
585,99	1316,84
586,18	1310,70
586,37	1257,45
586,57	1230,83
586,76	1253,36
586,96	1275,88
587,15	1216,49
587,34	1308,65
587,54	1257,45
587,73	1245,16
587,93	1263,60
588,12	1290,22
588,31	1337,32
588,51	1247,21
588,70	1314,80
588,89	1241,07
589,09	1216,49
589,28	1222,64
589,47	1241,07
589,67	1277,93
589,86	1259,50
590,06	1236,97
590,25	1251,31
590,44	1329,13
590,64	1284,08
590,83	1294,32
591,02	1257,45
591,22	1273,84
591,41	1202,16
591,60	1230,83
591,80	1226,73
591,99	1228,78
592,18	1249,26
592,38	1247,21
592,57	1273,84
592,76	1257,45
592,96	1304,56
593,15	1204,21
593,34	1300,46
593,54	1208,30
593,73	1306,60
593,92	1183,73
594,12	1228,78
594,31	1253,36
594,50	1261,55
594,70	1273,84
594,89	1355,76
595,08	1312,75
595,28	1322,99
595,47	1251,31
595,66	1290,22
595,86	1284,08
596,05	1331,18
596,24	1226,73
596,43	1290,22
596,63	1314,80
596,82	1277,93
597,01	1243,12
597,21	1329,13
597,40	1193,97
597,59	1226,73
597,79	1308,65
597,98	1267,69
598,17	1331,18
598,36	1306,60
598,56	1277,93
598,75	1288,17
598,94	1224,69
599,14	1239,02
599,33	1294,32
599,52	1271,79
599,71	1245,16
599,91	1263,60
600,10	1169,39
600,29	1214,45
600,48	1277,93
600,68	1306,60
600,87	1284,08
601,06	1269,74
601,26	1263,60
601,45	1302,51
601,64	1212,40
601,83	1265,64
602,03	1259,50
602,22	1294,32
602,41	1271,79
602,60	1269,74
602,80	1247,21
602,99	1372,14
603,18	1279,98
603,37	1222,64
603,57	1245,16
603,76	1298,41
603,95	1312,75
604,14	1193,97
604,34	1228,78
604,53	1218,54
604,72	1382,38
604,91	1232,88
605,10	1325,04
605,30	1286,12
605,49	1306,60
605,68	1329,13
605,87	1290,22
606,07	1232,88
606,26	1265,64
606,45	1337,32
606,64	1359,85
606,84	1290,22
607,03	1232,88
607,22	1273,84
607,41	1333,23
607,60	1220,59
607,80	1239,02
607,99	1259,50
608,18	1275,88
608,37	1249,26
608,56	1198,06
608,76	1320,94
608,95	1245,16
609,14	1236,97
609,33	1279,98
609,52	1230,83
609,72	1232,88
609,91	1232,88
610,10	1191,92
610,29	1241,07
610,48	1306,60
610,68	1312,75
610,87	1232,88
611,06	1220,59
611,25	1228,78
611,44	1265,64
611,63	1277,93
611,83	1253,36
612,02	1263,60
612,21	1386,47
612,40	1271,79
612,59	1236,97
612,79	1327,08
612,98	1216,49
613,17	1279,98
613,36	1273,84
613,55	1275,88
613,74	1243,12
613,93	1279,98
614,13	1318,89
614,32	1218,54
614,51	1230,83
614,70	1212,40
614,89	1206,25
615,08	1200,11
615,28	1288,17
615,47	1312,75
615,66	1241,07
615,85	1292,27
616,04	1271,79
616,23	1304,56
616,42	1247,21
616,62	1253,36
616,81	1296,36
617,00	1208,30
617,19	1294,32
617,38	1239,02
617,57	1302,51
617,76	1249,26
617,95	1232,88
618,15	1249,26
618,34	1284,08
618,53	1236,97
618,72	1259,50
618,91	1263,60
619,10	1282,03
619,29	1275,88
619,48	1251,31
619,68	1310,70
619,87	1316,84
620,06	1271,79
620,25	1220,59
620,44	1337,32
620,63	1251,31
620,82	1343,47
621,01	1275,88
621,20	1249,26
621,39	1247,21
621,59	1243,12
621,78	1277,93
621,97	1282,03
622,16	1296,36
622,35	1341,42
622,54	1329,13
622,73	1298,41
622,92	1273,84
623,11	1302,51
623,30	1273,84
623,49	1267,69
623,68	1218,54
623,88	1355,76
624,07	1306,60
624,26	1312,75
624,45	1265,64
624,64	1257,45
624,83	1304,56
625,02	1304,56
625,21	1279,98
625,40	1294,32
625,59	1314,80
625,78	1363,95
625,97	1286,12
626,16	1261,55
626,35	1261,55
626,54	1273,84
626,74	1282,03
626,93	1378,28
627,12	1331,18
627,31	1316,84
627,50	1290,22
627,69	1296,36
627,88	1259,50
628,07	1284,08
628,26	1292,27
628,45	1259,50
628,64	1259,50
628,83	1359,85
629,02	1259,50
629,21	1300,46
629,40	1277,93
629,59	1265,64
629,78	1267,69
629,97	1243,12
630,16	1404,91
630,35	1286,12
630,54	1273,84
630,73	1331,18
630,92	1335,28
631,11	1372,14
631,30	1296,36
631,49	1419,24
631,68	1634,28
631,87	2117,60
632,06	2832,34
632,25	3274,70
632,44	4704,18
632,63	7335,82
632,82	12570,43
633,01	14016,30
633,20	8525,69
633,39	5568,43
633,58	3522,51
633,77	2285,53
633,96	1923,04
634,15	1837,03
634,34	1673,19
634,53	1589,22
634,72	1564,65
634,91	1415,15
635,10	1472,49
635,29	1384,43
635,48	1488,87
635,67	1431,53
635,86	1361,90
636,05	1376,24
636,24	1370,09
636,43	1349,61
636,62	1355,76
636,81	1378,28
637,00	1347,56
637,19	1359,85
637,38	1269,74
637,57	1314,80
637,76	1300,46
637,95	1243,12
638,14	1306,60
638,33	1290,22
638,52	1331,18
638,71	1298,41
638,89	1304,56
639,08	1249,26
639,27	1273,84
639,46	1265,64
639,65	1284,08
639,84	1279,98
640,03	1345,52
640,22	1292,27
640,41	1253,36
640,60	1273,84
640,79	1312,75
640,98	1298,41
641,17	1302,51
641,36	1263,60
641,55	1241,07
641,74	1212,40
641,92	1304,56
642,11	1214,45
642,30	1251,31
642,49	1271,79
642,68	1302,51
642,87	1269,74
643,06	1300,46
643,25	1222,64
643,44	1269,74
643,63	1196,01
643,82	1275,88
644,00	1210,35
644,19	1214,45
644,38	1236,97
644,57	1255,40
644,76	1273,84
644,95	1322,99
645,14	1259,50
645,33	1320,94
645,52	1251,31
645,71	1279,98
645,89	1251,31
646,08	1288,17
646,27	1298,41
646,46	1314,80
646,65	1327,08
646,84	1290,22
647,03	1228,78
647,22	1312,75
647,40	1288,17
647,59	1228,78
647,78	1234,93
647,97	1290,22
648,16	1253,36
648,35	1286,12
648,54	1286,12
648,73	1212,40
648,91	1279,98
649,10	1306,60
649,29	1290,22
649,48	1245,16
649,67	1284,08
649,86	1329,13
650,05	1210,35
650,23	1232,88
650,42	1263,60
650,61	1302,51
650,80	1224,69
650,99	1322,99
651,18	1226,73
651,36	1345,52
651,55	1275,88
651,74	1288,17
651,93	1267,69
652,12	1267,69
652,31	1284,08
652,49	1257,45
652,68	1329,13
652,87	1288,17
653,06	1327,08
653,25	1230,83
653,44	1226,73
653,62	1296,36
653,81	1279,98
654,00	1294,32
654,19	1218,54
654,38	1245,16
654,56	1220,59
654,75	1302,51
654,94	1265,64
655,13	1290,22
655,32	1236,97
655,51	1224,69
655,69	1216,49
655,88	1144,81
656,07	1294,32
656,26	1294,32
656,45	1204,21
656,63	1277,93
656,82	1296,36
657,01	1257,45
657,20	1298,41
657,38	1322,99
657,57	1275,88
657,76	1241,07
657,95	1277,93
658,14	1302,51
658,32	1275,88
658,51	1249,26
658,70	1218,54
658,89	1275,88
659,08	1294,32
659,26	1316,84
659,45	1282,03
659,64	1298,41
659,83	1277,93
660,01	1304,56
660,20	1202,16
660,39	1273,84
660,58	1253,36
660,76	1327,08
660,95	1279,98
661,14	1263,60
661,33	1222,64
661,51	1210,35
661,70	1232,88
661,89	1228,78
662,08	1261,55
662,26	1298,41
662,45	1331,18
662,64	1196,01
662,83	1308,65
663,01	1339,37
663,20	1265,64
663,39	1304,56
663,58	1351,66
663,76	1275,88
663,95	1308,65
664,14	1286,12
664,32	1236,97
664,51	1216,49
664,70	1236,97
664,89	1220,59
665,07	1269,74
665,26	1224,69
665,45	1308,65
665,64	1253,36
665,82	1306,60
666,01	1279,98
666,20	1214,45
666,38	1296,36
666,57	1241,07
666,76	1353,71
666,95	1329,13
667,13	1300,46
667,32	1357,80
667,51	1320,94
667,69	1333,23
667,88	1331,18
668,07	1302,51
668,25	1329,13
668,44	1357,80
668,63	1265,64
668,81	1232,88
669,00	1257,45
669,19	1302,51
669,38	1253,36
669,56	1273,84
669,75	1290,22
669,94	1259,50
670,12	1306,60
670,31	1271,79
670,50	1208,30
670,68	1265,64
670,87	1200,11
671,06	1232,88
671,24	1282,03
671,43	1306,60
671,62	1269,74
671,80	1327,08
671,99	1247,21
672,18	1298,41
672,36	1279,98
672,55	1234,93
672,74	1265,64
672,92	1372,14
673,11	1249,26
673,29	1337,32
673,48	1273,84
673,67	1245,16
673,85	1226,73
674,04	1306,60
674,23	1214,45
674,41	1200,11
674,60	1279,98
674,79	1249,26
674,97	1257,45
675,16	1327,08
675,34	1277,93
675,53	1282,03
675,72	1232,88
675,90	1265,64
676,09	1290,22
676,28	1247,21
676,46	1224,69
676,65	1347,56
676,83	1351,66
677,02	1298,41
677,21	1257,45
677,39	1271,79
677,58	1288,17
677,77	1245,16
677,95	1265,64
678,14	1290,22
678,32	1288,17
678,51	1308,65
678,70	1239,02
678,88	1249,26
679,07	1290,22
679,25	1275,88
679,44	1343,47
679,63	1234,93
679,81	1265,64
680,00	1267,69
680,18	1335,28
680,37	1255,40
680,55	1284,08
680,74	1255,40
680,93	1304,56
681,11	1292,27
681,30	1300,46
681,48	1267,69
681,67	1257,45
681,85	1245,16
682,04	1239,02
682,23	1218,54
682,41	1302,51
682,60	1316,84
682,78	1218,54
682,97	1261,55
683,15	1239,02
683,34	1300,46
683,53	1218,54
683,71	1247,21
683,90	1222,64
684,08	1298,41
684,27	1255,40
684,45	1275,88
684,64	1372,14
684,82	1214,45
685,01	1304,56
685,19	1292,27
685,38	1267,69
685,57	1261,55
685,75	1263,60
685,94	1310,70
686,12	1290,22
686,31	1308,65
686,49	1226,73
686,68	1308,65
686,86	1294,32
687,05	1222,64
687,23	1259,50
687,42	1302,51
687,60	1261,55
687,79	1271,79
687,97	1239,02
688,16	1335,28
688,34	1310,70
688,53	1261,55
688,71	1243,12
688,90	1251,31
689,08	1222,64
689,27	1310,70
689,45	1271,79
689,64	1255,40
689,82	1249,26
690,01	1320,94
690,19	1234,93
690,38	1273,84
690,56	1255,40
690,75	1259,50
690,93	1288,17
691,12	1245,16
691,30	1275,88
691,49	1314,80
691,67	1257,45
691,86	1275,88
692,04	1277,93
692,23	1269,74
692,41	1265,64
692,60	1236,97
692,78	1245,16
692,97	1228,78
693,15	1345,52
693,34	1220,59
693,52	1302,51
693,71	1310,70
693,89	1255,40
694,08	1269,74
694,26	1259,50
694,44	1327,08
694,63	1267,69
694,81	1261,55
695,00	1273,84
695,18	1351,66
695,37	1282,03
695,55	1255,40
695,74	1239,02
695,92	1277,93
696,10	1320,94
696,29	1249,26
696,47	1253,36
696,66	1255,40
696,84	1284,08
697,03	1294,32
697,21	1312,75
697,40	1329,13
697,58	1247,21
697,76	1284,08
697,95	1230,83
698,13	1316,84
698,32	1230,83
698,50	1226,73
698,68	1202,16
698,87	1200,11
699,05	1312,75
699,24	1282,03
699,42	1216,49
699,61	1204,21
699,79	1308,65
699,97	1202,16
700,16	1290,22
700,34	1277,93
700,53	1286,12
700,71	1259,50
700,89	1263,60
701,08	1234,93
701,26	1290,22
701,45	1322,99
701,63	1212,40
701,81	1288,17
702,00	1290,22
702,18	1288,17
702,37	1257,45
702,55	1284,08
702,73	1282,03
702,92	1312,75
703,10	1224,69
703,28	1298,41
703,47	1236,97
703,65	1273,84
703,84	1339,37
704,02	1255,40
704,20	1302,51
704,39	1298,41
704,57	1284,08
704,75	1232,88
704,94	1208,30
705,12	1329,13
705,30	1298,41
705,49	1302,51
705,67	1343,47
705,86	1230,83
706,04	1322,99
706,22	1296,36
706,41	1298,41
706,59	1267,69
706,77	1300,46
706,96	1236,97
707,14	1206,25
707,32	1187,82
707,51	1284,08
707,69	1314,80
707,87	1282,03
708,06	1200,11
708,24	1310,70
708,42	1228,78
708,61	1312,75
708,79	1224,69
708,97	1220,59
709,16	1267,69
709,34	1282,03
709,52	1275,88
709,71	1245,16
709,89	1273,84
710,07	1204,21
710,26	1232,88
710,44	1265,64
710,62	1236,97
710,80	1243,12
710,99	1259,50
711,17	1351,66
711,35	1263,60
711,54	1204,21
711,72	1200,11
711,90	1359,85
712,09	1306,60
712,27	1284,08
712,45	1265,64
712,63	1269,74
712,82	1298,41
713,00	1286,12
713,18	1263,60
713,37	1275,88
713,55	1314,80
713,73	1277,93
713,91	1218,54
714,10	1316,84
714,28	1181,68
714,46	1279,98
714,65	1263,60
714,83	1269,74
715,01	1318,89
715,19	1249,26
715,38	1241,07
715,56	1304,56
715,74	1351,66
715,92	1265,64
716,11	1306,60
716,29	1320,94
716,47	1196,01
716,65	1273,84
716,84	1198,06
717,02	1216,49
717,20	1312,75
717,38	1247,21
717,57	1277,93
717,75	1206,25
717,93	1296,36
718,11	1282,03
718,30	1306,60
718,48	1222,64
718,66	1179,63
718,84	1273,84
719,03	1290,22
719,21	1312,75
719,39	1245,16
719,57	1265,64
719,75	1269,74
719,94	1222,64
720,12	1255,40
720,30	1220,59
720,48	1273,84
720,67	1282,03
720,85	1302,51
721,03	1286,12
721,21	1290,22
721,39	1222,64
721,58	1310,70
721,76	1322,99
721,94	1298,41
722,12	1279,98
722,30	1306,60
722,49	1263,60
722,67	1325,04
722,85	1241,07
723,03	1298,41
723,21	1241,07
723,40	1298,41
723,58	1273,84
723,76	1263,60
723,94	1259,50
724,12	1275,88
724,30	1275,88
724,49	1165,29
724,67	1288,17
724,85	1325,04
725,03	1282,03
725,21	1255,40
725,40	1239,02
725,58	1255,40
725,76	1261,55
725,94	1267,69
726,12	1288,17
726,30	1275,88
726,49	1267,69
726,67	1286,12
726,85	1282,03
727,03	1196,01
727,21	1335,28
727,39	1234,93
727,57	1259,50
727,76	1253,36
727,94	1292,27
728,12	1304,56
728,30	1279,98
728,48	1222,64
728,66	1226,73
728,84	1349,61
729,03	1239,02
729,21	1353,71
729,39	1304,56
729,57	1290,22
729,75	1322,99
729,93	1263,60
730,11	1200,11
730,30	1187,82
730,48	1279,98
730,66	1222,64
730,84	1361,90
731,02	1255,40
731,20	1259,50
731,38	1271,79
731,56	1253,36
731,74	1222,64
731,93	1343,47
732,11	1236,97
732,29	1245,16
732,47	1288,17
732,65	1220,59
732,83	1263,60
733,01	1214,45
733,19	1265,64
733,37	1322,99
733,56	1366,00
733,74	1202,16
733,92	1253,36
734,10	1269,74
734,28	1232,88
734,46	1245,16
734,64	1298,41
734,82	1220,59
735,00	1275,88
735,18	1224,69
735,36	1247,21
735,54	1257,45
735,73	1343,47
735,91	1249,26
736,09	1224,69
736,27	1224,69
736,45	1339,37
736,63	1257,45
736,81	1284,08
736,99	1249,26
737,17	1247,21
737,35	1294,32
737,53	1212,40
737,71	1271,79
737,89	1339,37
738,07	1322,99
738,25	1232,88
738,43	1261,55
738,61	1290,22
738,80	1286,12
738,98	1265,64
739,16	1271,79
739,34	1257,45
739,52	1255,40
739,70	1263,60
739,88	1286,12
740,06	1255,40
740,24	1273,84
740,42	1349,61
740,60	1304,56
740,78	1290,22
740,96	1314,80
741,14	1329,13
741,32	1310,70
741,50	1312,75
741,68	1284,08
741,86	1255,40
742,04	1343,47
742,22	1269,74
742,40	1224,69
742,58	1212,40
742,76	1253,36
742,94	1259,50
743,12	1282,03
743,30	1222,64
743,48	1288,17
743,66	1255,40
743,84	1288,17
744,02	1191,92
744,20	1296,36
744,38	1249,26
744,56	1253,36
744,74	1253,36
744,92	1292,27
745,10	1263,60
745,28	1212,40
745,46	1224,69
745,64	1296,36
745,82	1277,93
746,00	1288,17
746,18	1298,41
746,36	1263,60
746,54	1265,64
746,72	1318,89
746,90	1263,60
747,08	1282,03
747,26	1200,11
747,44	1236,97
747,62	1257,45
747,80	1269,74
747,98	1261,55
748,15	1294,32
748,33	1236,97
748,51	1294,32
748,69	1247,21
748,87	1239,02
749,05	1241,07
749,23	1286,12
749,41	1208,30
749,59	1218,54
749,77	1306,60
749,95	1294,32
750,13	1214,45
750,31	1314,80
750,49	1306,60
750,67	1265,64
750,85	1226,73
751,03	1239,02
751,20	1310,70
751,38	1261,55
751,56	1265,64
751,74	1271,79
751,92	1333,23
752,10	1202,16
752,28	1251,31
752,46	1376,24
752,64	1304,56
752,82	1265,64
753,00	1282,03
753,18	1282,03
753,35	1214,45
753,53	1251,31
753,71	1302,51
753,89	1261,55
754,07	1255,40
754,25	1320,94
754,43	1267,69
754,61	1277,93
754,79	1286,12
754,97	1306,60
755,14	1187,82
755,32	1269,74
755,50	1300,46
755,68	1277,93
755,86	1214,45
756,04	1218,54
756,22	1290,22
756,40	1202,16
756,57	1292,27
756,75	1327,08
756,93	1253,36
757,11	1253,36
757,29	1253,36
757,47	1296,36
757,65	1259,50
757,82	1386,47
758,00	1306,60
758,18	1171,44
758,36	1269,74
758,54	1322,99
758,72	1279,98
758,90	1304,56
759,07	1273,84
759,25	1255,40
759,43	1255,40
759,61	1282,03
759,79	1325,04
759,97	1298,41
760,15	1255,40
760,32	1249,26
760,50	1245,16
760,68	1230,83
760,86	1279,98
761,04	1222,64
761,22	1310,70
761,39	1290,22
761,57	1300,46
761,75	1312,75
761,93	1239,02
762,11	1302,51
762,28	1249,26
762,46	1239,02
762,64	1222,64
762,82	1273,84
763,00	1255,40
763,18	1239,02
763,35	1253,36
763,53	1224,69
763,71	1241,07
763,89	1284,08
764,07	1318,89
764,24	1253,36
764,42	1243,12
764,60	1273,84
764,78	1259,50
764,96	1306,60
765,13	1265,64
765,31	1236,97
765,49	1267,69
765,67	1263,60
765,84	1259,50
766,02	1329,13
766,20	1200,11
766,38	1257,45
766,56	1284,08
766,73	1343,47
766,91	1312,75
767,09	1253,36
767,27	1302,51
767,44	1292,27
767,62	1261,55
767,80	1279,98
767,98	1214,45
768,15	1277,93
768,33	1212,40
768,51	1255,40
768,69	1329,13
768,87	1241,07
769,04	1298,41
769,22	1228,78
769,40	1210,35
769,58	1212,40
769,75	1222,64
769,93	1253,36
770,11	1247,21
770,28	1265,64
770,46	1253,36
770,64	1224,69
770,82	1222,64
770,99	1269,74
771,17	1325,04
771,35	1282,03
771,53	1382,38
771,70	1259,50
771,88	1312,75
772,06	1232,88
772,23	1322,99
772,41	1296,36
772,59	1275,88
772,77	1191,92
772,94	1316,84
773,12	1306,60
773,30	1179,63
773,47	1275,88
773,65	1267,69
773,83	1222,64
774,01	1349,61
774,18	1314,80
774,36	1212,40
774,54	1310,70
774,71	1304,56
774,89	1206,25
775,07	1259,50
775,24	1259,50
775,42	1265,64
775,60	1261,55
775,78	1234,93
775,95	1294,32
776,13	1265,64
776,31	1325,04
776,48	1277,93
776,66	1282,03
776,84	1286,12
777,01	1269,74
777,19	1206,25
777,37	1316,84
777,54	1294,32
777,72	1296,36
777,90	1251,31
778,07	1241,07
778,25	1302,51
778,43	1296,36
778,60	1304,56
778,78	1320,94
778,96	1196,01
779,13	1249,26
779,31	1286,12
779,49	1271,79
779,66	1261,55
779,84	1341,42
780,01	1177,58
780,19	1279,98
780,37	1277,93
780,54	1255,40
780,72	1228,78
780,90	1253,36
781,07	1265,64
781,25	1282,03
781,43	1210,35
781,60	1245,16
781,78	1251,31
781,95	1290,22
782,13	1181,68
782,31	1320,94
782,48	1230,83
782,66	1331,18
782,83	1320,94
783,01	1282,03
783,19	1257,45
783,36	1265,64
783,54	1279,98
783,72	1249,26
783,89	1282,03
784,07	1282,03
784,24	1284,08
784,42	1267,69
784,60	1327,08
784,77	1269,74
784,95	1277,93
785,12	1337,32
785,30	1288,17
785,47	1245,16
785,65	1214,45
785,83	1271,79
786,00	1243,12
786,18	1302,51
786,35	1271,79
786,53	1239,02
786,71	1253,36
786,88	1267,69
787,06	1337,32
787,23	1316,84
787,41	1298,41
787,58	1282,03
787,76	1273,84
787,94	1216,49
788,11	1271,79
788,29	1271,79
788,46	1286,12
788,64	1275,88
788,81	1243,12
788,99	1241,07
789,16	1214,45
789,34	1335,28
789,52	1282,03
789,69	1265,64
789,87	1331,18
790,04	1198,06
790,22	1320,94
790,39	1312,75
790,57	1304,56
790,74	1259,50
790,92	1247,21
791,09	1304,56
791,27	1267,69
791,44	1292,27
791,62	1320,94
791,79	1277,93
791,97	1286,12
792,15	1329,13
792,32	1271,79
792,50	1275,88
792,67	1331,18
792,85	1329,13
793,02	1310,70
793,20	1290,22
793,37	1267,69
793,55	1259,50
793,72	1282,03
793,90	1290,22
794,07	1263,60
794,25	1273,84
794,42	1361,90
794,60	1267,69
794,77	1261,55
794,95	1226,73
795,12	1275,88
795,30	1269,74
795,47	1335,28
795,65	1322,99
795,82	1275,88
796,00	1286,12
796,17	1314,80
796,34	1267,69
796,52	1275,88
796,69	1322,99
796,87	1298,41
797,04	1327,08
797,22	1251,31
797,39	1331,18
797,57	1220,59
797,74	1314,80
797,92	1206,25
798,09	1177,58
798,27	1318,89
798,44	1214,45
798,62	1239,02
798,79	1232,88
798,96	1355,76
799,14	1210,35
799,31	1310,70
799,49	1226,73
799,66	1249,26
799,84	1341,42
800,01	1370,09
800,19	1279,98
800,36	1341,42
800,53	1226,73
800,71	1294,32
800,88	1267,69
801,06	1230,83
801,23	1189,87
801,41	1314,80
801,58	1271,79
801,75	1333,23
801,93	1249,26
802,10	1400,81
802,28	1302,51
802,45	1306,60
802,63	1257,45
802,80	1279,98
802,97	1228,78
803,15	1288,17
803,32	1366,00
803,50	1232,88
803,67	1239,02
803,84	1253,36
804,02	1224,69
804,19	1286,12
804,37	1249,26
804,54	1255,40
804,71	1255,40
804,89	1273,84
805,06	1193,97
805,24	1314,80
805,41	1325,04
805,58	1288,17
805,76	1255,40
805,93	1220,59
806,10	1253,36
806,28	1316,84
806,45	1255,40
806,63	1212,40
806,80	1263,60
806,97	1228,78
807,15	1251,31
807,32	1318,89
807,49	1255,40
807,67	1230,83
807,84	1232,88
808,01	1267,69
808,19	1236,97
808,36	1294,32
808,54	1302,51
808,71	1216,49
808,88	1302,51
809,06	1271,79
809,23	1292,27
809,40	1322,99
809,58	1230,83
809,75	1341,42
809,92	1239,02
810,10	1310,70
810,27	1273,84
810,44	1245,16
810,62	1216,49
810,79	1232,88
810,96	1243,12
811,14	1306,60
811,31	1245,16
811,48	1261,55
811,66	1267,69
811,83	1261,55
812,00	1241,07
812,18	1222,64
812,35	1249,26
812,52	1282,03
812,69	1210,35
812,87	1284,08
813,04	1241,07
813,21	1306,60
813,39	1245,16
813,56	1200,11
813,73	1228,78
813,91	1261,55
814,08	1271,79
814,25	1261,55
814,42	1300,46
814,60	1282,03
814,77	1294,32
814,94	1214,45
815,12	1349,61
815,29	1312,75
815,46	1179,63
815,63	1302,51
815,81	1226,73
815,98	1282,03
816,15	1282,03
816,33	1331,18
816,50	1220,59
816,67	1294,32
816,84	1312,75
817,02	1265,64
817,19	1206,25
817,36	1243,12
817,53	1261,55
817,71	1222,64
817,88	1314,80
818,05	1320,94
818,22	1306,60
818,40	1368,04
818,57	1339,37
818,74	1318,89
818,91	1314,80
819,09	1271,79
819,26	1341,42
819,43	1216,49
819,60	1318,89
819,78	1189,87
819,95	1241,07
820,12	1261,55
820,29	1308,65
820,47	1288,17
820,64	1259,50
820,81	1243,12
820,98	1304,56
821,15	1279,98
821,33	1193,97
821,50	1277,93
821,67	1345,52
821,84	1351,66
822,02	1312,75
822,19	1292,27
822,36	1318,89
822,53	1359,85
822,70	1267,69
822,88	1357,80
823,05	1284,08
823,22	1296,36
823,39	1261,55
823,56	1282,03
823,74	1247,21
823,91	1329,13
824,08	1214,45
824,25	1181,68
824,42	1243,12
824,60	1257,45
824,77	1314,80
824,94	1226,73
825,11	1312,75
825,28	1282,03
825,45	1300,46
825,63	1220,59
825,80	1239,02
825,97	1304,56
826,14	1265,64
826,31	1239,02
826,48	1263,60
826,66	1263,60
826,83	1247,21
827,00	1236,97
827,17	1273,84
827,34	1253,36
827,51	1298,41
827,69	1267,69
827,86	1263,60
828,03	1247,21
828,20	1306,60
828,37	1273,84
828,54	1325,04
828,71	1208,30
828,89	1279,98
829,06	1318,89
829,23	1349,61
829,40	1263,60
829,57	1300,46
829,74	1271,79
829,91	1257,45
830,09	1253,36
830,26	1277,93
830,43	1257,45
830,60	1296,36
830,77	1243,12
830,94	1296,36
831,11	1275,88
831,28	1263,60
831,46	1173,49
831,63	1284,08
831,80	1269,74
831,97	1255,40
832,14	1239,02
832,31	1341,42
832,48	1257,45
832,65	1282,03
832,82	1290,22
832,99	1322,99
833,17	1269,74
833,34	1255,40
833,51	1271,79
833,68	1312,75
833,85	1224,69
834,02	1267,69
834,19	1255,40
834,36	1236,97
834,53	1251,31
834,70	1171,44
834,87	1304,56
835,04	1300,46
835,22	1288,17
835,39	1312,75
835,56	1290,22
835,73	1290,22
835,90	1302,51
836,07	1306,60
836,24	1273,84
836,41	1296,36
836,58	1312,75
836,75	1273,84
836,92	1318,89
837,09	1261,55
837,26	1302,51
837,43	1282,03
837,60	1275,88
837,77	1202,16
837,94	1257,45
838,12	1339,37
838,29	1265,64
838,46	1284,08
838,63	1271,79
838,80	1263,60
838,97	1339,37
839,14	1255,40
839,31	1325,04
839,48	1318,89
839,65	1263,60
839,82	1279,98
839,99	1304,56
840,16	1314,80
840,33	1263,60
840,50	1294,32
840,67	1294,32
840,84	1279,98
841,01	1292,27
841,18	1214,45
841,35	1277,93
841,52	1228,78
841,69	1230,83
841,86	1288,17
842,03	1251,31
842,20	1292,27
842,37	1277,93
842,54	1144,81
842,71	1253,36
842,88	1322,99
843,05	1249,26
843,22	1259,50
843,39	1249,26
843,56	1314,80
843,73	1271,79
843,90	1232,88
844,07	1263,60
844,24	1298,41
844,41	1290,22
844,58	1325,04
844,75	1241,07
844,92	1282,03
845,09	1212,40
845,26	1249,26
845,43	1347,56
845,60	1294,32
845,77	1279,98
845,94	1257,45
846,10	1275,88
846,27	1271,79
846,44	1296,36
846,61	1261,55
846,78	1355,76
846,95	1253,36
847,12	1292,27
847,29	1298,41
847,46	1220,59
847,63	1318,89
847,80	1277,93
847,97	1282,03
848,14	1273,84
848,31	1312,75
848,48	1329,13
848,65	1273,84
848,82	1189,87
848,98	1310,70
849,15	1269,74
849,32	1359,85
849,49	1308,65
849,66	1263,60
849,83	1267,69
850,00	1296,36
850,17	1187,82
850,34	1259,50
850,51	1298,41
850,68	1310,70
850,85	1214,45
851,01	1253,36
851,18	1249,26
851,35	1290,22
851,52	1312,75
851,69	1333,23
851,86	1216,49
852,03	1318,89
852,20	1296,36
852,37	1253,36
852,53	1269,74
852,70	1245,16
852,87	1232,88
853,04	1263,60
853,21	1251,31
853,38	1290,22
853,55	1253,36
853,72	1251,31
853,89	1257,45
854,05	1269,74
854,22	1267,69
854,39	1247,21
854,56	1236,97
854,73	1327,08
854,90	1296,36
855,07	1279,98
855,23	1263,60
855,40	1253,36
855,57	1269,74
855,74	1257,45
855,91	1288,17
856,08	1316,84
856,25	1263,60
856,41	1271,79
856,58	1279,98
856,75	1312,75
856,92	1347,56
857,09	1314,80
857,26	1310,70
857,42	1257,45
857,59	1257,45
857,76	1224,69
857,93	1220,59
858,10	1318,89
858,27	1241,07
858,43	1273,84
858,60	1300,46
858,77	1292,27
858,94	1224,69
859,11	1243,12
859,27	1302,51
859,44	1275,88
859,61	1239,02
859,78	1327,08
859,95	1230,83
860,12	1224,69
860,28	1265,64
860,45	1241,07
860,62	1302,51
860,79	1286,12
860,95	1222,64
861,12	1284,08
861,29	1312,75
861,46	1355,76
861,63	1239,02
861,79	1267,69
861,96	1304,56
862,13	1239,02
862,30	1322,99
862,47	1316,84
862,63	1320,94
862,80	1228,78
862,97	1245,16
863,14	1243,12
863,30	1277,93
863,47	1275,88
863,64	1308,65
863,81	1204,21
863,97	1232,88
864,14	1298,41
864,31	1247,21
864,48	1290,22
864,65	1212,40
864,81	1271,79
864,98	1286,12
865,15	1255,40
865,32	1284,08
865,48	1298,41
865,65	1302,51
865,82	1290,22
865,98	1279,98
866,15	1394,67
866,32	1271,79
866,49	1198,06
866,65	1284,08
866,82	1269,74
866,99	1294,32
867,16	1239,02
867,32	1363,95
867,49	1300,46
867,66	1325,04
867,83	1378,28
867,99	1245,16
868,16	1255,40
868,33	1220,59
868,49	1245,16
868,66	1286,12
868,83	1308,65
868,99	1239,02
869,16	1294,32
869,33	1216,49
869,50	1343,47
869,66	1212,40
869,83	1277,93
870,00	1271,79
870,16	1255,40
870,33	1282,03
870,50	1331,18
870,66	1251,31
870,83	1363,95
871,00	1316,84
871,17	1284,08
871,33	1265,64
871,50	1204,21
871,67	1329,13
871,83	1282,03
872,00	1318,89
872,17	1306,60
872,33	1288,17
872,50	1261,55
872,67	1230,83
872,83	1335,28
873,00	1329,13
873,17	1271,79
873,33	1236,97
873,50	1288,17
873,67	1253,36
873,83	1310,70
874,00	1253,36
874,16	1249,26
874,33	1265,64
874,50	1269,74
874,66	1331,18
874,83	1279,98
875,00	1288,17
875,16	1191,92
875,33	1224,69
875,50	1286,12
875,66	1232,88
875,83	1224,69
875,99	1327,08
876,16	1316,84
876,33	1286,12
876,49	1273,84
876,66	1247,21
876,83	1247,21
876,99	1290,22
877,16	1265,64
877,32	1329,13
877,49	1249,26
877,66	1269,74
877,82	1333,23
877,99	1265,64
878,15	1325,04
878,32	1277,93
878,49	1290,22
878,65	1284,08
878,82	1230,83
878,98	1296,36
879,15	1298,41
879,32	1271,79
879,48	1232,88
879,65	1271,79
879,81	1253,36
879,98	1376,24
880,15	1327,08
880,31	1239,02
880,48	1282,03
880,64	1257,45
880,81	1263,60
880,97	1273,84
881,14	1273,84
881,31	1284,08
881,47	1279,98
881,64	1267,69
881,80	1239,02
881,97	1263,60
882,13	1257,45
882,30	1249,26
882,47	1292,27
882,63	1286,12
882,80	1247,21
882,96	1232,88
883,13	1279,98
883,29	1310,70
883,46	1357,80
883,62	1286,12
883,79	1290,22
883,95	1322,99
884,12	1259,50
884,29	1267,69
884,45	1249,26
884,62	1222,64
884,78	1243,12
884,95	1306,60
885,11	1359,85
885,28	1339,37
885,44	1239,02
885,61	1228,78
885,77	1269,74
885,94	1267,69
886,10	1253,36
886,27	1241,07
886,43	1243,12
886,60	1265,64
886,76	1224,69
886,93	1292,27
887,09	1353,71
887,26	1247,21
887,42	1304,56
887,59	1273,84
887,75	1347,56
887,92	1232,88
888,08	1236,97
888,25	1288,17
888,41	1325,04
888,58	1222,64
888,74	1247,21
888,91	1316,84
>>>>>End Processed Spectral Data<<<<<
