SpectraSuite Data File
++++++++++++++++++++++++++++++++++++
Date: Sun Apr 03 18:09:34 CEST 2016
User: root
Dark Spectrum Present: No
Reference Spectrum Present: No
Number of Sampled Component Spectra: 1
Spectrometers: USB4C02835
Integration Time (usec): 10000 (USB4C02835)
Spectra Averaged: 1 (USB4C02835)
Boxcar Smoothing: 0 (USB4C02835)
Correct for Electrical Dark: No (USB4C02835)
Strobe/Lamp Enabled: No (USB4C02835)
Correct for Detector Non-linearity: No (USB4C02835)
Correct for Stray Light: No (USB4C02835)
Number of Pixels in Processed Spectrum: 3648
>>>>>Begin Processed Spectral Data<<<<<
177,47	1220,59
177,69	1220,59
177,91	1220,59
178,13	1208,30
178,36	1271,79
178,58	1298,41
178,80	1228,78
179,02	1275,88
179,24	1230,83
179,46	1265,64
179,68	1257,45
179,90	1292,27
180,13	1247,21
180,35	1263,60
180,57	1273,84
180,79	1273,84
181,01	1234,93
181,23	1263,60
181,45	1292,27
181,67	1275,88
181,90	1312,75
182,12	1282,03
182,34	1226,73
182,56	1296,36
182,78	1234,93
183,00	1333,23
183,22	1210,35
183,44	1259,50
183,66	1265,64
183,89	1230,83
184,11	1220,59
184,33	1232,88
184,55	1267,69
184,77	1222,64
184,99	1220,59
185,21	1251,31
185,43	1300,46
185,65	1249,26
185,87	1288,17
186,10	1202,16
186,32	1322,99
186,54	1257,45
186,76	1259,50
186,98	1224,69
187,20	1206,25
187,42	1282,03
187,64	1245,16
187,86	1263,60
188,08	1306,60
188,30	1294,32
188,52	1259,50
188,75	1318,89
188,97	1249,26
189,19	1245,16
189,41	1325,04
189,63	1282,03
189,85	1349,61
190,07	1239,02
190,29	1245,16
190,51	1318,89
190,73	1234,93
190,95	1171,44
191,17	1212,40
191,39	1234,93
191,61	1271,79
191,84	1300,46
192,06	1261,55
192,28	1271,79
192,50	1279,98
192,72	1216,49
192,94	1241,07
193,16	1228,78
193,38	1218,54
193,60	1265,64
193,82	1314,80
194,04	1282,03
194,26	1304,56
194,48	1343,47
194,70	1351,66
194,92	1279,98
195,14	1159,15
195,36	1212,40
195,58	1294,32
195,80	1204,21
196,02	1282,03
196,24	1234,93
196,46	1316,84
196,69	1257,45
196,91	1288,17
197,13	1249,26
197,35	1306,60
197,57	1175,53
197,79	1247,21
198,01	1239,02
198,23	1282,03
198,45	1286,12
198,67	1265,64
198,89	1241,07
199,11	1239,02
199,33	1208,30
199,55	1335,28
199,77	1345,52
199,99	1255,40
200,21	1314,80
200,43	1286,12
200,65	1277,93
200,87	1327,08
201,09	1308,65
201,31	1243,12
201,53	1306,60
201,75	1261,55
201,97	1284,08
202,19	1267,69
202,41	1251,31
202,63	1230,83
202,85	1310,70
203,07	1304,56
203,29	1273,84
203,51	1302,51
203,73	1298,41
203,95	1302,51
204,17	1286,12
204,39	1288,17
204,61	1286,12
204,83	1296,36
205,05	1275,88
205,27	1263,60
205,49	1210,35
205,71	1193,97
205,93	1271,79
206,15	1316,84
206,37	1230,83
206,59	1286,12
206,81	1277,93
207,03	1279,98
207,25	1290,22
207,47	1220,59
207,69	1236,97
207,91	1275,88
208,13	1288,17
208,34	1277,93
208,56	1222,64
208,78	1226,73
209,00	1261,55
209,22	1224,69
209,44	1294,32
209,66	1314,80
209,88	1257,45
210,10	1298,41
210,32	1214,45
210,54	1257,45
210,76	1259,50
210,98	1294,32
211,20	1251,31
211,42	1310,70
211,64	1282,03
211,86	1284,08
212,08	1239,02
212,30	1314,80
212,52	1267,69
212,74	1279,98
212,96	1306,60
213,17	1284,08
213,39	1257,45
213,61	1251,31
213,83	1288,17
214,05	1247,21
214,27	1191,92
214,49	1294,32
214,71	1333,23
214,93	1245,16
215,15	1249,26
215,37	1308,65
215,59	1320,94
215,81	1222,64
216,03	1277,93
216,24	1214,45
216,46	1247,21
216,68	1325,04
216,90	1277,93
217,12	1267,69
217,34	1306,60
217,56	1355,76
217,78	1214,45
218,00	1316,84
218,22	1230,83
218,44	1245,16
218,66	1265,64
218,87	1216,49
219,09	1232,88
219,31	1243,12
219,53	1224,69
219,75	1302,51
219,97	1257,45
220,19	1263,60
220,41	1284,08
220,63	1249,26
220,85	1261,55
221,06	1241,07
221,28	1288,17
221,50	1300,46
221,72	1204,21
221,94	1253,36
222,16	1322,99
222,38	1275,88
222,60	1316,84
222,82	1232,88
223,03	1241,07
223,25	1224,69
223,47	1245,16
223,69	1277,93
223,91	1245,16
224,13	1277,93
224,35	1253,36
224,57	1329,13
224,78	1239,02
225,00	1286,12
225,22	1245,16
225,44	1243,12
225,66	1296,36
225,88	1243,12
226,10	1279,98
226,32	1271,79
226,53	1239,02
226,75	1277,93
226,97	1306,60
227,19	1249,26
227,41	1308,65
227,63	1247,21
227,85	1155,05
228,06	1300,46
228,28	1224,69
228,50	1282,03
228,72	1333,23
228,94	1224,69
229,16	1353,71
229,37	1269,74
229,59	1353,71
229,81	1212,40
230,03	1230,83
230,25	1275,88
230,47	1226,73
230,69	1306,60
230,90	1265,64
231,12	1265,64
231,34	1255,40
231,56	1277,93
231,78	1234,93
232,00	1245,16
232,21	1275,88
232,43	1271,79
232,65	1294,32
232,87	1255,40
233,09	1267,69
233,30	1306,60
233,52	1208,30
233,74	1263,60
233,96	1286,12
234,18	1306,60
234,40	1318,89
234,61	1275,88
234,83	1196,01
235,05	1222,64
235,27	1290,22
235,49	1308,65
235,70	1314,80
235,92	1290,22
236,14	1208,30
236,36	1269,74
236,58	1275,88
236,79	1288,17
237,01	1214,45
237,23	1294,32
237,45	1325,04
237,67	1314,80
237,88	1212,40
238,10	1226,73
238,32	1249,26
238,54	1292,27
238,76	1284,08
238,97	1234,93
239,19	1284,08
239,41	1298,41
239,63	1216,49
239,85	1208,30
240,06	1302,51
240,28	1310,70
240,50	1282,03
240,72	1345,52
240,93	1253,36
241,15	1236,97
241,37	1294,32
241,59	1292,27
241,81	1292,27
242,02	1277,93
242,24	1312,75
242,46	1318,89
242,68	1249,26
242,89	1232,88
243,11	1271,79
243,33	1320,94
243,55	1245,16
243,76	1312,75
243,98	1241,07
244,20	1251,31
244,42	1243,12
244,64	1361,90
244,85	1210,35
245,07	1282,03
245,29	1304,56
245,51	1208,30
245,72	1204,21
245,94	1253,36
246,16	1224,69
246,38	1312,75
246,59	1206,25
246,81	1187,82
247,03	1239,02
247,24	1292,27
247,46	1230,83
247,68	1337,32
247,90	1294,32
248,11	1306,60
248,33	1370,09
248,55	1208,30
248,77	1288,17
248,98	1181,68
249,20	1200,11
249,42	1251,31
249,64	1175,53
249,85	1271,79
250,07	1263,60
250,29	1255,40
250,50	1255,40
250,72	1257,45
250,94	1216,49
251,16	1312,75
251,37	1304,56
251,59	1333,23
251,81	1310,70
252,02	1261,55
252,24	1210,35
252,46	1316,84
252,68	1284,08
252,89	1294,32
253,11	1298,41
253,33	1247,21
253,54	1224,69
253,76	1286,12
253,98	1224,69
254,20	1306,60
254,41	1212,40
254,63	1269,74
254,85	1224,69
255,06	1322,99
255,28	1269,74
255,50	1302,51
255,71	1277,93
255,93	1322,99
256,15	1271,79
256,36	1284,08
256,58	1345,52
256,80	1265,64
257,02	1296,36
257,23	1263,60
257,45	1314,80
257,67	1261,55
257,88	1304,56
258,10	1253,36
258,32	1335,28
258,53	1257,45
258,75	1298,41
258,97	1253,36
259,18	1284,08
259,40	1390,57
259,62	1279,98
259,83	1314,80
260,05	1265,64
260,27	1331,18
260,48	1251,31
260,70	1288,17
260,92	1298,41
261,13	1282,03
261,35	1347,56
261,57	1265,64
261,78	1284,08
262,00	1226,73
262,22	1255,40
262,43	1173,49
262,65	1298,41
262,86	1306,60
263,08	1273,84
263,30	1253,36
263,51	1218,54
263,73	1234,93
263,95	1224,69
264,16	1251,31
264,38	1245,16
264,60	1318,89
264,81	1239,02
265,03	1271,79
265,25	1243,12
265,46	1257,45
265,68	1208,30
265,89	1220,59
266,11	1343,47
266,33	1351,66
266,54	1255,40
266,76	1245,16
266,98	1230,83
267,19	1329,13
267,41	1286,12
267,62	1179,63
267,84	1286,12
268,06	1327,08
268,27	1212,40
268,49	1286,12
268,70	1322,99
268,92	1300,46
269,14	1249,26
269,35	1290,22
269,57	1290,22
269,79	1230,83
270,00	1200,11
270,22	1247,21
270,43	1253,36
270,65	1183,73
270,87	1288,17
271,08	1234,93
271,30	1228,78
271,51	1318,89
271,73	1265,64
271,95	1312,75
272,16	1261,55
272,38	1249,26
272,59	1198,06
272,81	1347,56
273,02	1273,84
273,24	1292,27
273,46	1204,21
273,67	1284,08
273,89	1232,88
274,10	1257,45
274,32	1318,89
274,54	1253,36
274,75	1189,87
274,97	1271,79
275,18	1243,12
275,40	1292,27
275,61	1279,98
275,83	1347,56
276,05	1202,16
276,26	1286,12
276,48	1243,12
276,69	1241,07
276,91	1224,69
277,12	1265,64
277,34	1243,12
277,55	1253,36
277,77	1230,83
277,99	1261,55
278,20	1269,74
278,42	1282,03
278,63	1263,60
278,85	1355,76
279,06	1267,69
279,28	1230,83
279,49	1218,54
279,71	1196,01
279,93	1286,12
280,14	1271,79
280,36	1265,64
280,57	1263,60
280,79	1251,31
281,00	1245,16
281,22	1249,26
281,43	1263,60
281,65	1202,16
281,86	1196,01
282,08	1241,07
282,29	1312,75
282,51	1236,97
282,73	1239,02
282,94	1214,45
283,16	1271,79
283,37	1353,71
283,59	1273,84
283,80	1181,68
284,02	1189,87
284,23	1271,79
284,45	1216,49
284,66	1241,07
284,88	1230,83
285,09	1263,60
285,31	1273,84
285,52	1269,74
285,74	1296,36
285,95	1290,22
286,17	1236,97
286,38	1286,12
286,60	1185,77
286,81	1298,41
287,03	1200,11
287,24	1286,12
287,46	1259,50
287,67	1196,01
287,89	1253,36
288,10	1275,88
288,32	1236,97
288,53	1232,88
288,75	1245,16
288,96	1269,74
289,18	1259,50
289,39	1216,49
289,61	1288,17
289,82	1273,84
290,04	1282,03
290,25	1253,36
290,47	1226,73
290,68	1304,56
290,90	1249,26
291,11	1296,36
291,33	1267,69
291,54	1259,50
291,76	1230,83
291,97	1288,17
292,18	1261,55
292,40	1302,51
292,61	1275,88
292,83	1271,79
293,04	1277,93
293,26	1196,01
293,47	1257,45
293,69	1271,79
293,90	1312,75
294,12	1290,22
294,33	1265,64
294,55	1310,70
294,76	1279,98
294,97	1222,64
295,19	1308,65
295,40	1245,16
295,62	1239,02
295,83	1306,60
296,05	1212,40
296,26	1306,60
296,48	1298,41
296,69	1202,16
296,90	1259,50
297,12	1189,87
297,33	1261,55
297,55	1253,36
297,76	1298,41
297,98	1212,40
298,19	1304,56
298,41	1255,40
298,62	1208,30
298,83	1284,08
299,05	1337,32
299,26	1259,50
299,48	1259,50
299,69	1322,99
299,90	1265,64
300,12	1265,64
300,33	1198,06
300,55	1208,30
300,76	1296,36
300,98	1265,64
301,19	1200,11
301,40	1294,32
301,62	1314,80
301,83	1269,74
302,05	1325,04
302,26	1247,21
302,47	1290,22
302,69	1304,56
302,90	1234,93
303,12	1259,50
303,33	1210,35
303,54	1253,36
303,76	1273,84
303,97	1294,32
304,19	1273,84
304,40	1183,73
304,61	1269,74
304,83	1249,26
305,04	1277,93
305,26	1290,22
305,47	1325,04
305,68	1226,73
305,90	1298,41
306,11	1263,60
306,33	1292,27
306,54	1316,84
306,75	1204,21
306,97	1187,82
307,18	1306,60
307,39	1239,02
307,61	1265,64
307,82	1232,88
308,04	1234,93
308,25	1263,60
308,46	1263,60
308,68	1267,69
308,89	1271,79
309,10	1265,64
309,32	1286,12
309,53	1236,97
309,74	1210,35
309,96	1308,65
310,17	1220,59
310,39	1191,92
310,60	1304,56
310,81	1275,88
311,03	1318,89
311,24	1327,08
311,45	1279,98
311,67	1279,98
311,88	1271,79
312,09	1228,78
312,31	1284,08
312,52	1271,79
312,73	1284,08
312,95	1171,44
313,16	1267,69
313,37	1269,74
313,59	1292,27
313,80	1214,45
314,01	1402,86
314,23	1255,40
314,44	1249,26
314,65	1290,22
314,87	1261,55
315,08	1316,84
315,29	1267,69
315,51	1288,17
315,72	1320,94
315,93	1292,27
316,15	1232,88
316,36	1273,84
316,57	1191,92
316,79	1187,82
317,00	1310,70
317,21	1267,69
317,43	1349,61
317,64	1302,51
317,85	1255,40
318,07	1185,77
318,28	1335,28
318,49	1202,16
318,70	1296,36
318,92	1288,17
319,13	1259,50
319,34	1253,36
319,56	1282,03
319,77	1247,21
319,98	1239,02
320,20	1286,12
320,41	1198,06
320,62	1259,50
320,83	1267,69
321,05	1249,26
321,26	1312,75
321,47	1253,36
321,69	1318,89
321,90	1247,21
322,11	1245,16
322,32	1284,08
322,54	1265,64
322,75	1259,50
322,96	1241,07
323,18	1271,79
323,39	1263,60
323,60	1251,31
323,81	1300,46
324,03	1327,08
324,24	1320,94
324,45	1306,60
324,66	1284,08
324,88	1245,16
325,09	1294,32
325,30	1234,93
325,52	1263,60
325,73	1222,64
325,94	1282,03
326,15	1216,49
326,37	1271,79
326,58	1298,41
326,79	1253,36
327,00	1271,79
327,22	1257,45
327,43	1245,16
327,64	1267,69
327,85	1206,25
328,07	1337,32
328,28	1327,08
328,49	1306,60
328,70	1206,25
328,92	1294,32
329,13	1284,08
329,34	1259,50
329,55	1304,56
329,76	1275,88
329,98	1224,69
330,19	1331,18
330,40	1300,46
330,61	1304,56
330,83	1296,36
331,04	1269,74
331,25	1222,64
331,46	1277,93
331,68	1322,99
331,89	1300,46
332,10	1243,12
332,31	1296,36
332,52	1284,08
332,74	1269,74
332,95	1263,60
333,16	1343,47
333,37	1232,88
333,58	1220,59
333,80	1277,93
334,01	1263,60
334,22	1222,64
334,43	1253,36
334,64	1318,89
334,86	1310,70
335,07	1265,64
335,28	1265,64
335,49	1263,60
335,70	1298,41
335,92	1292,27
336,13	1220,59
336,34	1308,65
336,55	1150,96
336,76	1222,64
336,98	1224,69
337,19	1284,08
337,40	1363,95
337,61	1322,99
337,82	1273,84
338,04	1290,22
338,25	1298,41
338,46	1308,65
338,67	1247,21
338,88	1329,13
339,09	1193,97
339,31	1296,36
339,52	1234,93
339,73	1212,40
339,94	1202,16
340,15	1208,30
340,36	1265,64
340,58	1265,64
340,79	1345,52
341,00	1298,41
341,21	1320,94
341,42	1218,54
341,63	1269,74
341,85	1300,46
342,06	1249,26
342,27	1259,50
342,48	1331,18
342,69	1279,98
342,90	1249,26
343,12	1349,61
343,33	1286,12
343,54	1304,56
343,75	1228,78
343,96	1249,26
344,17	1320,94
344,38	1255,40
344,60	1279,98
344,81	1253,36
345,02	1259,50
345,23	1294,32
345,44	1322,99
345,65	1181,68
345,86	1300,46
346,07	1234,93
346,29	1247,21
346,50	1269,74
346,71	1296,36
346,92	1226,73
347,13	1306,60
347,34	1304,56
347,55	1253,36
347,76	1269,74
347,98	1253,36
348,19	1312,75
348,40	1310,70
348,61	1320,94
348,82	1257,45
349,03	1202,16
349,24	1267,69
349,45	1255,40
349,66	1249,26
349,88	1277,93
350,09	1239,02
350,30	1314,80
350,51	1290,22
350,72	1259,50
350,93	1329,13
351,14	1286,12
351,35	1288,17
351,56	1204,21
351,77	1290,22
351,99	1271,79
352,20	1263,60
352,41	1267,69
352,62	1247,21
352,83	1216,49
353,04	1292,27
353,25	1292,27
353,46	1226,73
353,67	1171,44
353,88	1247,21
354,09	1200,11
354,30	1273,84
354,52	1329,13
354,73	1300,46
354,94	1263,60
355,15	1230,83
355,36	1322,99
355,57	1329,13
355,78	1271,79
355,99	1300,46
356,20	1269,74
356,41	1249,26
356,62	1279,98
356,83	1241,07
357,04	1267,69
357,25	1279,98
357,46	1263,60
357,68	1220,59
357,89	1306,60
358,10	1222,64
358,31	1234,93
358,52	1200,11
358,73	1230,83
358,94	1263,60
359,15	1243,12
359,36	1296,36
359,57	1267,69
359,78	1253,36
359,99	1228,78
360,20	1247,21
360,41	1279,98
360,62	1310,70
360,83	1271,79
361,04	1220,59
361,25	1304,56
361,46	1312,75
361,67	1261,55
361,88	1198,06
362,09	1253,36
362,30	1257,45
362,51	1230,83
362,72	1310,70
362,93	1236,97
363,14	1296,36
363,35	1316,84
363,56	1241,07
363,78	1230,83
363,99	1253,36
364,20	1239,02
364,41	1208,30
364,62	1265,64
364,83	1239,02
365,04	1234,93
365,25	1304,56
365,46	1286,12
365,67	1269,74
365,88	1296,36
366,09	1239,02
366,30	1292,27
366,51	1306,60
366,72	1290,22
366,93	1273,84
367,14	1220,59
367,35	1310,70
367,56	1325,04
367,77	1296,36
367,98	1249,26
368,18	1290,22
368,39	1210,35
368,60	1288,17
368,81	1269,74
369,02	1298,41
369,23	1251,31
369,44	1214,45
369,65	1220,59
369,86	1222,64
370,07	1177,58
370,28	1318,89
370,49	1214,45
370,70	1279,98
370,91	1279,98
371,12	1204,21
371,33	1331,18
371,54	1286,12
371,75	1265,64
371,96	1286,12
372,17	1298,41
372,38	1259,50
372,59	1284,08
372,80	1245,16
373,01	1306,60
373,22	1271,79
373,43	1255,40
373,64	1294,32
373,85	1351,66
374,06	1271,79
374,26	1294,32
374,47	1269,74
374,68	1316,84
374,89	1286,12
375,10	1294,32
375,31	1271,79
375,52	1290,22
375,73	1251,31
375,94	1261,55
376,15	1273,84
376,36	1265,64
376,57	1298,41
376,78	1288,17
376,99	1363,95
377,20	1259,50
377,40	1279,98
377,61	1220,59
377,82	1288,17
378,03	1335,28
378,24	1261,55
378,45	1251,31
378,66	1232,88
378,87	1271,79
379,08	1257,45
379,29	1277,93
379,50	1257,45
379,71	1294,32
379,91	1279,98
380,12	1300,46
380,33	1304,56
380,54	1263,60
380,75	1298,41
380,96	1306,60
381,17	1284,08
381,38	1312,75
381,59	1267,69
381,80	1204,21
382,00	1298,41
382,21	1267,69
382,42	1279,98
382,63	1226,73
382,84	1249,26
383,05	1296,36
383,26	1228,78
383,47	1204,21
383,68	1290,22
383,88	1251,31
384,09	1296,36
384,30	1343,47
384,51	1179,63
384,72	1253,36
384,93	1277,93
385,14	1359,85
385,35	1220,59
385,55	1230,83
385,76	1251,31
385,97	1206,25
386,18	1288,17
386,39	1265,64
386,60	1349,61
386,81	1292,27
387,02	1290,22
387,22	1206,25
387,43	1296,36
387,64	1275,88
387,85	1273,84
388,06	1265,64
388,27	1241,07
388,48	1263,60
388,68	1308,65
388,89	1275,88
389,10	1261,55
389,31	1263,60
389,52	1312,75
389,73	1247,21
389,93	1273,84
390,14	1284,08
390,35	1234,93
390,56	1306,60
390,77	1236,97
390,98	1267,69
391,18	1259,50
391,39	1218,54
391,60	1239,02
391,81	1198,06
392,02	1273,84
392,23	1208,30
392,43	1279,98
392,64	1316,84
392,85	1277,93
393,06	1255,40
393,27	1259,50
393,47	1296,36
393,68	1329,13
393,89	1302,51
394,10	1357,80
394,31	1265,64
394,52	1314,80
394,72	1230,83
394,93	1255,40
395,14	1239,02
395,35	1245,16
395,56	1316,84
395,76	1220,59
395,97	1312,75
396,18	1279,98
396,39	1226,73
396,60	1249,26
396,80	1212,40
397,01	1220,59
397,22	1236,97
397,43	1288,17
397,64	1249,26
397,84	1277,93
398,05	1267,69
398,26	1222,64
398,47	1218,54
398,67	1183,73
398,88	1245,16
399,09	1232,88
399,30	1284,08
399,51	1298,41
399,71	1288,17
399,92	1298,41
400,13	1261,55
400,34	1277,93
400,54	1218,54
400,75	1288,17
400,96	1275,88
401,17	1269,74
401,37	1245,16
401,58	1261,55
401,79	1214,45
402,00	1232,88
402,21	1284,08
402,41	1290,22
402,62	1257,45
402,83	1259,50
403,04	1224,69
403,24	1282,03
403,45	1304,56
403,66	1296,36
403,87	1292,27
404,07	1220,59
404,28	1288,17
404,49	1286,12
404,70	1249,26
404,90	1232,88
405,11	1286,12
405,32	1333,23
405,52	1325,04
405,73	1191,92
405,94	1314,80
406,15	1263,60
406,35	1282,03
406,56	1234,93
406,77	1282,03
406,98	1312,75
407,18	1249,26
407,39	1212,40
407,60	1339,37
407,80	1269,74
408,01	1296,36
408,22	1224,69
408,43	1241,07
408,63	1193,97
408,84	1202,16
409,05	1198,06
409,25	1232,88
409,46	1296,36
409,67	1282,03
409,88	1337,32
410,08	1245,16
410,29	1308,65
410,50	1273,84
410,70	1247,21
410,91	1230,83
411,12	1245,16
411,32	1239,02
411,53	1267,69
411,74	1308,65
411,95	1302,51
412,15	1341,42
412,36	1282,03
412,57	1279,98
412,77	1239,02
412,98	1251,31
413,19	1290,22
413,39	1236,97
413,60	1263,60
413,81	1239,02
414,01	1310,70
414,22	1214,45
414,43	1251,31
414,63	1284,08
414,84	1279,98
415,05	1292,27
415,25	1220,59
415,46	1234,93
415,67	1316,84
415,87	1218,54
416,08	1253,36
416,29	1273,84
416,49	1343,47
416,70	1273,84
416,91	1290,22
417,11	1234,93
417,32	1306,60
417,53	1300,46
417,73	1267,69
417,94	1277,93
418,15	1259,50
418,35	1318,89
418,56	1277,93
418,77	1269,74
418,97	1273,84
419,18	1265,64
419,38	1208,30
419,59	1206,25
419,80	1277,93
420,00	1275,88
420,21	1271,79
420,42	1306,60
420,62	1234,93
420,83	1318,89
421,04	1300,46
421,24	1277,93
421,45	1253,36
421,65	1249,26
421,86	1302,51
422,07	1286,12
422,27	1247,21
422,48	1316,84
422,69	1318,89
422,89	1273,84
423,10	1263,60
423,30	1294,32
423,51	1202,16
423,72	1253,36
423,92	1296,36
424,13	1302,51
424,33	1183,73
424,54	1206,25
424,75	1339,37
424,95	1204,21
425,16	1214,45
425,36	1292,27
425,57	1322,99
425,78	1245,16
425,98	1226,73
426,19	1241,07
426,39	1212,40
426,60	1255,40
426,81	1245,16
427,01	1224,69
427,22	1282,03
427,42	1179,63
427,63	1218,54
427,83	1189,87
428,04	1351,66
428,25	1284,08
428,45	1318,89
428,66	1255,40
428,86	1302,51
429,07	1288,17
429,28	1236,97
429,48	1210,35
429,69	1253,36
429,89	1267,69
430,10	1282,03
430,30	1259,50
430,51	1284,08
430,71	1284,08
430,92	1222,64
431,13	1277,93
431,33	1292,27
431,54	1292,27
431,74	1282,03
431,95	1228,78
432,15	1208,30
432,36	1263,60
432,56	1239,02
432,77	1234,93
432,98	1296,36
433,18	1220,59
433,39	1230,83
433,59	1269,74
433,80	1329,13
434,00	1255,40
434,21	1277,93
434,41	1284,08
434,62	1282,03
434,82	1267,69
435,03	1279,98
435,23	1265,64
435,44	1277,93
435,64	1325,04
435,85	1234,93
436,06	1333,23
436,26	1253,36
436,47	1191,92
436,67	1279,98
436,88	1226,73
437,08	1257,45
437,29	1216,49
437,49	1306,60
437,70	1271,79
437,90	1282,03
438,11	1269,74
438,31	1271,79
438,52	1322,99
438,72	1286,12
438,93	1290,22
439,13	1308,65
439,34	1173,49
439,54	1304,56
439,75	1290,22
439,95	1259,50
440,16	1277,93
440,36	1218,54
440,57	1298,41
440,77	1239,02
440,98	1204,21
441,18	1374,19
441,39	1269,74
441,59	1279,98
441,80	1257,45
442,00	1265,64
442,21	1210,35
442,41	1273,84
442,62	1320,94
442,82	1236,97
443,02	1224,69
443,23	1257,45
443,43	1277,93
443,64	1290,22
443,84	1310,70
444,05	1294,32
444,25	1298,41
444,46	1239,02
444,66	1271,79
444,87	1269,74
445,07	1282,03
445,28	1282,03
445,48	1279,98
445,69	1294,32
445,89	1290,22
446,09	1243,12
446,30	1263,60
446,50	1304,56
446,71	1273,84
446,91	1249,26
447,12	1222,64
447,32	1363,95
447,53	1236,97
447,73	1273,84
447,93	1249,26
448,14	1304,56
448,34	1292,27
448,55	1290,22
448,75	1247,21
448,96	1294,32
449,16	1329,13
449,36	1302,51
449,57	1284,08
449,77	1286,12
449,98	1298,41
450,18	1372,14
450,39	1234,93
450,59	1275,88
450,79	1253,36
451,00	1259,50
451,20	1226,73
451,41	1286,12
451,61	1271,79
451,81	1234,93
452,02	1300,46
452,22	1245,16
452,43	1282,03
452,63	1222,64
452,84	1208,30
453,04	1296,36
453,24	1265,64
453,45	1222,64
453,65	1249,26
453,86	1261,55
454,06	1298,41
454,26	1257,45
454,47	1296,36
454,67	1222,64
454,87	1290,22
455,08	1269,74
455,28	1169,39
455,49	1263,60
455,69	1320,94
455,89	1318,89
456,10	1226,73
456,30	1286,12
456,51	1304,56
456,71	1253,36
456,91	1339,37
457,12	1277,93
457,32	1318,89
457,52	1220,59
457,73	1273,84
457,93	1282,03
458,14	1257,45
458,34	1263,60
458,54	1306,60
458,75	1263,60
458,95	1325,04
459,15	1271,79
459,36	1234,93
459,56	1267,69
459,76	1171,44
459,97	1286,12
460,17	1247,21
460,37	1241,07
460,58	1265,64
460,78	1261,55
460,99	1314,80
461,19	1296,36
461,39	1187,82
461,60	1167,34
461,80	1245,16
462,00	1263,60
462,21	1304,56
462,41	1273,84
462,61	1214,45
462,82	1200,11
463,02	1267,69
463,22	1245,16
463,43	1282,03
463,63	1210,35
463,83	1318,89
464,04	1288,17
464,24	1277,93
464,44	1239,02
464,64	1267,69
464,85	1265,64
465,05	1292,27
465,25	1187,82
465,46	1202,16
465,66	1292,27
465,86	1308,65
466,07	1279,98
466,27	1329,13
466,47	1308,65
466,68	1322,99
466,88	1351,66
467,08	1269,74
467,29	1290,22
467,49	1277,93
467,69	1320,94
467,89	1306,60
468,10	1306,60
468,30	1216,49
468,50	1294,32
468,71	1210,35
468,91	1228,78
469,11	1267,69
469,31	1198,06
469,52	1216,49
469,72	1236,97
469,92	1304,56
470,13	1200,11
470,33	1290,22
470,53	1282,03
470,73	1304,56
470,94	1173,49
471,14	1177,58
471,34	1327,08
471,54	1243,12
471,75	1247,21
471,95	1267,69
472,15	1198,06
472,36	1282,03
472,56	1218,54
472,76	1243,12
472,96	1306,60
473,17	1277,93
473,37	1191,92
473,57	1325,04
473,77	1236,97
473,98	1265,64
474,18	1249,26
474,38	1277,93
474,58	1288,17
474,79	1277,93
474,99	1255,40
475,19	1257,45
475,39	1284,08
475,60	1288,17
475,80	1333,23
476,00	1269,74
476,20	1245,16
476,41	1316,84
476,61	1220,59
476,81	1220,59
477,01	1286,12
477,21	1279,98
477,42	1257,45
477,62	1208,30
477,82	1316,84
478,02	1228,78
478,23	1322,99
478,43	1230,83
478,63	1347,56
478,83	1265,64
479,03	1261,55
479,24	1206,25
479,44	1271,79
479,64	1310,70
479,84	1234,93
480,04	1234,93
480,25	1214,45
480,45	1345,52
480,65	1253,36
480,85	1206,25
481,06	1263,60
481,26	1355,76
481,46	1239,02
481,66	1230,83
481,86	1261,55
482,06	1269,74
482,27	1288,17
482,47	1304,56
482,67	1318,89
482,87	1234,93
483,07	1214,45
483,28	1251,31
483,48	1282,03
483,68	1210,35
483,88	1239,02
484,08	1226,73
484,29	1298,41
484,49	1243,12
484,69	1318,89
484,89	1300,46
485,09	1277,93
485,29	1179,63
485,50	1269,74
485,70	1224,69
485,90	1273,84
486,10	1267,69
486,30	1224,69
486,50	1269,74
486,71	1294,32
486,91	1300,46
487,11	1271,79
487,31	1214,45
487,51	1253,36
487,71	1308,65
487,91	1316,84
488,12	1273,84
488,32	1222,64
488,52	1232,88
488,72	1298,41
488,92	1261,55
489,12	1263,60
489,32	1234,93
489,53	1296,36
489,73	1234,93
489,93	1216,49
490,13	1234,93
490,33	1204,21
490,53	1216,49
490,73	1335,28
490,94	1271,79
491,14	1282,03
491,34	1196,01
491,54	1318,89
491,74	1228,78
491,94	1282,03
492,14	1329,13
492,34	1220,59
492,54	1249,26
492,75	1284,08
492,95	1304,56
493,15	1243,12
493,35	1286,12
493,55	1247,21
493,75	1212,40
493,95	1267,69
494,15	1259,50
494,35	1296,36
494,56	1314,80
494,76	1228,78
494,96	1273,84
495,16	1282,03
495,36	1198,06
495,56	1212,40
495,76	1263,60
495,96	1286,12
496,16	1157,10
496,36	1243,12
496,56	1247,21
496,77	1255,40
496,97	1206,25
497,17	1271,79
497,37	1241,07
497,57	1290,22
497,77	1222,64
497,97	1284,08
498,17	1300,46
498,37	1312,75
498,57	1327,08
498,77	1183,73
498,97	1314,80
499,17	1273,84
499,38	1247,21
499,58	1230,83
499,78	1255,40
499,98	1222,64
500,18	1251,31
500,38	1224,69
500,58	1257,45
500,78	1337,32
500,98	1249,26
501,18	1288,17
501,38	1261,55
501,58	1298,41
501,78	1345,52
501,98	1312,75
502,18	1294,32
502,38	1247,21
502,58	1138,67
502,78	1257,45
502,98	1288,17
503,18	1236,97
503,38	1302,51
503,59	1245,16
503,79	1247,21
503,99	1296,36
504,19	1284,08
504,39	1255,40
504,59	1349,61
504,79	1275,88
504,99	1265,64
505,19	1267,69
505,39	1241,07
505,59	1304,56
505,79	1327,08
505,99	1261,55
506,19	1333,23
506,39	1296,36
506,59	1222,64
506,79	1261,55
506,99	1230,83
507,19	1251,31
507,39	1290,22
507,59	1247,21
507,79	1220,59
507,99	1255,40
508,19	1236,97
508,39	1239,02
508,59	1181,68
508,79	1325,04
508,99	1298,41
509,19	1314,80
509,39	1277,93
509,59	1290,22
509,79	1247,21
509,99	1298,41
510,19	1294,32
510,39	1247,21
510,59	1206,25
510,79	1329,13
510,99	1306,60
511,19	1288,17
511,39	1279,98
511,59	1271,79
511,79	1286,12
511,99	1267,69
512,19	1306,60
512,38	1273,84
512,58	1230,83
512,78	1243,12
512,98	1245,16
513,18	1271,79
513,38	1167,34
513,58	1335,28
513,78	1269,74
513,98	1277,93
514,18	1241,07
514,38	1222,64
514,58	1230,83
514,78	1232,88
514,98	1228,78
515,18	1249,26
515,38	1236,97
515,58	1339,37
515,78	1259,50
515,98	1384,43
516,18	1269,74
516,38	1353,71
516,57	1236,97
516,77	1331,18
516,97	1279,98
517,17	1247,21
517,37	1253,36
517,57	1271,79
517,77	1224,69
517,97	1243,12
518,17	1322,99
518,37	1255,40
518,57	1245,16
518,77	1255,40
518,97	1198,06
519,16	1251,31
519,36	1243,12
519,56	1290,22
519,76	1294,32
519,96	1296,36
520,16	1359,85
520,36	1273,84
520,56	1261,55
520,76	1216,49
520,96	1247,21
521,16	1337,32
521,35	1366,00
521,55	1304,56
521,75	1255,40
521,95	1239,02
522,15	1253,36
522,35	1286,12
522,55	1230,83
522,75	1306,60
522,95	1243,12
523,14	1284,08
523,34	1232,88
523,54	1220,59
523,74	1224,69
523,94	1259,50
524,14	1247,21
524,34	1290,22
524,54	1216,49
524,73	1263,60
524,93	1187,82
525,13	1271,79
525,33	1275,88
525,53	1245,16
525,73	1329,13
525,93	1286,12
526,13	1245,16
526,32	1355,76
526,52	1304,56
526,72	1279,98
526,92	1302,51
527,12	1224,69
527,32	1271,79
527,52	1247,21
527,71	1236,97
527,91	1304,56
528,11	1339,37
528,31	1331,18
528,51	1249,26
528,71	1318,89
528,90	1261,55
529,10	1187,82
529,30	1308,65
529,50	1271,79
529,70	1224,69
529,90	1275,88
530,09	1226,73
530,29	1249,26
530,49	1220,59
530,69	1282,03
530,89	1261,55
531,09	1312,75
531,28	1314,80
531,48	1318,89
531,68	1226,73
531,88	1265,64
532,08	1298,41
532,28	1257,45
532,47	1218,54
532,67	1288,17
532,87	1255,40
533,07	1275,88
533,27	1189,87
533,46	1263,60
533,66	1196,01
533,86	1241,07
534,06	1167,34
534,26	1288,17
534,45	1185,77
534,65	1302,51
534,85	1226,73
535,05	1288,17
535,25	1263,60
535,44	1300,46
535,64	1331,18
535,84	1245,16
536,04	1277,93
536,24	1327,08
536,43	1202,16
536,63	1263,60
536,83	1214,45
537,03	1331,18
537,22	1271,79
537,42	1247,21
537,62	1265,64
537,82	1224,69
538,02	1290,22
538,21	1265,64
538,41	1243,12
538,61	1312,75
538,81	1288,17
539,00	1208,30
539,20	1292,27
539,40	1218,54
539,60	1286,12
539,79	1251,31
539,99	1292,27
540,19	1204,21
540,39	1220,59
540,58	1277,93
540,78	1257,45
540,98	1302,51
541,18	1275,88
541,37	1253,36
541,57	1261,55
541,77	1275,88
541,97	1343,47
542,16	1218,54
542,36	1218,54
542,56	1257,45
542,76	1304,56
542,95	1220,59
543,15	1294,32
543,35	1247,21
543,54	1253,36
543,74	1284,08
543,94	1265,64
544,14	1212,40
544,33	1257,45
544,53	1306,60
544,73	1300,46
544,93	1273,84
545,12	1239,02
545,32	1337,32
545,52	1279,98
545,71	1282,03
545,91	1273,84
546,11	1302,51
546,30	1183,73
546,50	1206,25
546,70	1249,26
546,90	1265,64
547,09	1296,36
547,29	1339,37
547,49	1304,56
547,68	1243,12
547,88	1257,45
548,08	1306,60
548,27	1251,31
548,47	1208,30
548,67	1239,02
548,87	1214,45
549,06	1155,05
549,26	1366,00
549,46	1337,32
549,65	1306,60
549,85	1269,74
550,05	1265,64
550,24	1212,40
550,44	1286,12
550,64	1257,45
550,83	1292,27
551,03	1228,78
551,23	1241,07
551,42	1249,26
551,62	1224,69
551,82	1255,40
552,01	1261,55
552,21	1255,40
552,41	1294,32
552,60	1212,40
552,80	1232,88
553,00	1236,97
553,19	1245,16
553,39	1275,88
553,59	1331,18
553,78	1310,70
553,98	1271,79
554,17	1331,18
554,37	1241,07
554,57	1292,27
554,76	1273,84
554,96	1245,16
555,16	1308,65
555,35	1261,55
555,55	1253,36
555,75	1224,69
555,94	1372,14
556,14	1218,54
556,33	1298,41
556,53	1316,84
556,73	1310,70
556,92	1273,84
557,12	1345,52
557,32	1279,98
557,51	1304,56
557,71	1239,02
557,90	1247,21
558,10	1269,74
558,30	1271,79
558,49	1257,45
558,69	1196,01
558,88	1261,55
559,08	1353,71
559,28	1220,59
559,47	1306,60
559,67	1253,36
559,86	1277,93
560,06	1243,12
560,26	1243,12
560,45	1267,69
560,65	1249,26
560,84	1245,16
561,04	1298,41
561,24	1222,64
561,43	1255,40
561,63	1228,78
561,82	1288,17
562,02	1288,17
562,22	1177,58
562,41	1337,32
562,61	1239,02
562,80	1312,75
563,00	1290,22
563,19	1294,32
563,39	1296,36
563,59	1228,78
563,78	1236,97
563,98	1257,45
564,17	1271,79
564,37	1230,83
564,56	1296,36
564,76	1318,89
564,96	1349,61
565,15	1257,45
565,35	1218,54
565,54	1290,22
565,74	1236,97
565,93	1191,92
566,13	1298,41
566,32	1243,12
566,52	1239,02
566,71	1212,40
566,91	1275,88
567,11	1261,55
567,30	1300,46
567,50	1288,17
567,69	1234,93
567,89	1273,84
568,08	1253,36
568,28	1230,83
568,47	1236,97
568,67	1279,98
568,86	1277,93
569,06	1265,64
569,25	1214,45
569,45	1214,45
569,64	1322,99
569,84	1269,74
570,04	1216,49
570,23	1224,69
570,43	1243,12
570,62	1253,36
570,82	1277,93
571,01	1236,97
571,21	1357,80
571,40	1200,11
571,60	1206,25
571,79	1286,12
571,99	1202,16
572,18	1314,80
572,38	1249,26
572,57	1249,26
572,77	1267,69
572,96	1245,16
573,16	1232,88
573,35	1212,40
573,55	1255,40
573,74	1241,07
573,94	1218,54
574,13	1288,17
574,33	1269,74
574,52	1351,66
574,71	1241,07
574,91	1269,74
575,10	1249,26
575,30	1318,89
575,49	1245,16
575,69	1302,51
575,88	1292,27
576,08	1320,94
576,27	1282,03
576,47	1290,22
576,66	1241,07
576,86	1277,93
577,05	1298,41
577,25	1339,37
577,44	1261,55
577,64	1302,51
577,83	1263,60
578,02	1341,42
578,22	1290,22
578,41	1275,88
578,61	1351,66
578,80	1179,63
579,00	1269,74
579,19	1277,93
579,39	1341,42
579,58	1241,07
579,77	1226,73
579,97	1271,79
580,16	1241,07
580,36	1263,60
580,55	1271,79
580,75	1247,21
580,94	1251,31
581,13	1253,36
581,33	1296,36
581,52	1226,73
581,72	1277,93
581,91	1200,11
582,11	1251,31
582,30	1292,27
582,49	1271,79
582,69	1269,74
582,88	1333,23
583,08	1234,93
583,27	1265,64
583,47	1257,45
583,66	1259,50
583,85	1273,84
584,05	1320,94
584,24	1294,32
584,44	1259,50
584,63	1241,07
584,82	1257,45
585,02	1322,99
585,21	1253,36
585,41	1269,74
585,60	1226,73
585,79	1259,50
585,99	1314,80
586,18	1185,77
586,37	1253,36
586,57	1302,51
586,76	1232,88
586,96	1290,22
587,15	1208,30
587,34	1228,78
587,54	1292,27
587,73	1255,40
587,93	1347,56
588,12	1308,65
588,31	1255,40
588,51	1187,82
588,70	1286,12
588,89	1277,93
589,09	1220,59
589,28	1267,69
589,47	1329,13
589,67	1265,64
589,86	1288,17
590,06	1214,45
590,25	1341,42
590,44	1284,08
590,64	1200,11
590,83	1265,64
591,02	1269,74
591,22	1312,75
591,41	1304,56
591,60	1236,97
591,80	1191,92
591,99	1296,36
592,18	1261,55
592,38	1241,07
592,57	1275,88
592,76	1214,45
592,96	1271,79
593,15	1273,84
593,34	1216,49
593,54	1314,80
593,73	1261,55
593,92	1329,13
594,12	1271,79
594,31	1269,74
594,50	1308,65
594,70	1245,16
594,89	1322,99
595,08	1298,41
595,28	1314,80
595,47	1339,37
595,66	1241,07
595,86	1212,40
596,05	1226,73
596,24	1210,35
596,43	1275,88
596,63	1279,98
596,82	1224,69
597,01	1210,35
597,21	1251,31
597,40	1255,40
597,59	1251,31
597,79	1298,41
597,98	1265,64
598,17	1228,78
598,36	1269,74
598,56	1322,99
598,75	1226,73
598,94	1284,08
599,14	1325,04
599,33	1273,84
599,52	1394,67
599,71	1257,45
599,91	1290,22
600,10	1341,42
600,29	1292,27
600,48	1255,40
600,68	1173,49
600,87	1286,12
601,06	1277,93
601,26	1300,46
601,45	1255,40
601,64	1273,84
601,83	1316,84
602,03	1185,77
602,22	1304,56
602,41	1249,26
602,60	1265,64
602,80	1288,17
602,99	1189,87
603,18	1249,26
603,37	1261,55
603,57	1239,02
603,76	1267,69
603,95	1255,40
604,14	1259,50
604,34	1374,19
604,53	1214,45
604,72	1269,74
604,91	1314,80
605,10	1263,60
605,30	1284,08
605,49	1261,55
605,68	1302,51
605,87	1286,12
606,07	1286,12
606,26	1290,22
606,45	1333,23
606,64	1204,21
606,84	1265,64
607,03	1329,13
607,22	1318,89
607,41	1267,69
607,60	1304,56
607,80	1314,80
607,99	1249,26
608,18	1331,18
608,37	1292,27
608,56	1196,01
608,76	1255,40
608,95	1325,04
609,14	1327,08
609,33	1335,28
609,52	1232,88
609,72	1306,60
609,91	1300,46
610,10	1275,88
610,29	1206,25
610,48	1279,98
610,68	1200,11
610,87	1222,64
611,06	1273,84
611,25	1282,03
611,44	1298,41
611,63	1273,84
611,83	1298,41
612,02	1189,87
612,21	1290,22
612,40	1271,79
612,59	1294,32
612,79	1261,55
612,98	1314,80
613,17	1251,31
613,36	1239,02
613,55	1329,13
613,74	1277,93
613,93	1259,50
614,13	1316,84
614,32	1224,69
614,51	1288,17
614,70	1241,07
614,89	1279,98
615,08	1196,01
615,28	1306,60
615,47	1251,31
615,66	1253,36
615,85	1257,45
616,04	1296,36
616,23	1263,60
616,42	1304,56
616,62	1284,08
616,81	1335,28
617,00	1314,80
617,19	1265,64
617,38	1322,99
617,57	1271,79
617,76	1302,51
617,95	1302,51
618,15	1220,59
618,34	1249,26
618,53	1191,92
618,72	1304,56
618,91	1222,64
619,10	1302,51
619,29	1247,21
619,48	1232,88
619,68	1269,74
619,87	1296,36
620,06	1245,16
620,25	1273,84
620,44	1218,54
620,63	1277,93
620,82	1263,60
621,01	1292,27
621,20	1327,08
621,39	1298,41
621,59	1351,66
621,78	1263,60
621,97	1210,35
622,16	1279,98
622,35	1216,49
622,54	1296,36
622,73	1292,27
622,92	1245,16
623,11	1282,03
623,30	1347,56
623,49	1284,08
623,68	1261,55
623,88	1275,88
624,07	1259,50
624,26	1191,92
624,45	1208,30
624,64	1290,22
624,83	1288,17
625,02	1353,71
625,21	1257,45
625,40	1241,07
625,59	1277,93
625,78	1257,45
625,97	1320,94
626,16	1329,13
626,35	1214,45
626,54	1249,26
626,74	1261,55
626,93	1275,88
627,12	1214,45
627,31	1257,45
627,50	1308,65
627,69	1243,12
627,88	1333,23
628,07	1286,12
628,26	1249,26
628,45	1267,69
628,64	1216,49
628,83	1251,31
629,02	1228,78
629,21	1247,21
629,40	1320,94
629,59	1251,31
629,78	1273,84
629,97	1390,57
630,16	1292,27
630,35	1298,41
630,54	1327,08
630,73	1316,84
630,92	1320,94
631,11	1316,84
631,30	1310,70
631,49	1353,71
631,68	1662,95
631,87	6182,82
632,06	23672,47
632,25	51217,65
632,44	43455,85
632,63	32589,33
632,82	27127,39
633,01	7589,77
633,20	3571,66
633,39	3035,09
633,58	2740,18
633,77	1978,34
633,96	1777,64
634,15	1773,54
634,34	1740,77
634,53	1615,85
634,72	1519,59
634,91	1574,89
635,10	1609,70
635,29	1484,78
635,48	1443,82
635,67	1501,16
635,86	1466,35
636,05	1445,87
636,24	1443,82
636,43	1366,00
636,62	1398,76
636,81	1267,69
637,00	1302,51
637,19	1327,08
637,38	1341,42
637,57	1368,04
637,76	1329,13
637,95	1306,60
638,14	1306,60
638,33	1327,08
638,52	1290,22
638,71	1304,56
638,89	1224,69
639,08	1234,93
639,27	1286,12
639,46	1277,93
639,65	1277,93
639,84	1296,36
640,03	1343,47
640,22	1257,45
640,41	1230,83
640,60	1245,16
640,79	1335,28
640,98	1298,41
641,17	1277,93
641,36	1150,96
641,55	1200,11
641,74	1265,64
641,92	1259,50
642,11	1228,78
642,30	1253,36
642,49	1310,70
642,68	1322,99
642,87	1273,84
643,06	1265,64
643,25	1306,60
643,44	1275,88
643,63	1234,93
643,82	1329,13
644,00	1249,26
644,19	1239,02
644,38	1161,20
644,57	1253,36
644,76	1261,55
644,95	1267,69
645,14	1236,97
645,33	1320,94
645,52	1255,40
645,71	1298,41
645,89	1273,84
646,08	1269,74
646,27	1277,93
646,46	1310,70
646,65	1255,40
646,84	1302,51
647,03	1255,40
647,22	1302,51
647,40	1208,30
647,59	1261,55
647,78	1286,12
647,97	1290,22
648,16	1284,08
648,35	1220,59
648,54	1251,31
648,73	1245,16
648,91	1282,03
649,10	1259,50
649,29	1228,78
649,48	1232,88
649,67	1200,11
649,86	1282,03
650,05	1245,16
650,23	1300,46
650,42	1294,32
650,61	1275,88
650,80	1271,79
650,99	1202,16
651,18	1290,22
651,36	1306,60
651,55	1200,11
651,74	1284,08
651,93	1267,69
652,12	1222,64
652,31	1308,65
652,49	1282,03
652,68	1290,22
652,87	1288,17
653,06	1241,07
653,25	1269,74
653,44	1286,12
653,62	1232,88
653,81	1298,41
654,00	1368,04
654,19	1271,79
654,38	1282,03
654,56	1214,45
654,75	1331,18
654,94	1228,78
655,13	1253,36
655,32	1273,84
655,51	1218,54
655,69	1290,22
655,88	1261,55
656,07	1224,69
656,26	1282,03
656,45	1224,69
656,63	1294,32
656,82	1234,93
657,01	1277,93
657,20	1284,08
657,38	1277,93
657,57	1214,45
657,76	1234,93
657,95	1273,84
658,14	1220,59
658,32	1290,22
658,51	1327,08
658,70	1273,84
658,89	1372,14
659,08	1282,03
659,26	1279,98
659,45	1265,64
659,64	1273,84
659,83	1210,35
660,01	1257,45
660,20	1306,60
660,39	1271,79
660,58	1279,98
660,76	1222,64
660,95	1298,41
661,14	1296,36
661,33	1277,93
661,51	1257,45
661,70	1218,54
661,89	1271,79
662,08	1259,50
662,26	1273,84
662,45	1228,78
662,64	1267,69
662,83	1286,12
663,01	1249,26
663,20	1228,78
663,39	1296,36
663,58	1181,68
663,76	1314,80
663,95	1351,66
664,14	1247,21
664,32	1257,45
664,51	1275,88
664,70	1175,53
664,89	1277,93
665,07	1314,80
665,26	1286,12
665,45	1345,52
665,64	1263,60
665,82	1204,21
666,01	1361,90
666,20	1277,93
666,38	1290,22
666,57	1245,16
666,76	1218,54
666,95	1300,46
667,13	1294,32
667,32	1259,50
667,51	1273,84
667,69	1325,04
667,88	1230,83
668,07	1265,64
668,25	1216,49
668,44	1331,18
668,63	1236,97
668,81	1198,06
669,00	1292,27
669,19	1249,26
669,38	1249,26
669,56	1239,02
669,75	1298,41
669,94	1304,56
670,12	1306,60
670,31	1247,21
670,50	1259,50
670,68	1245,16
670,87	1253,36
671,06	1196,01
671,24	1345,52
671,43	1302,51
671,62	1271,79
671,80	1269,74
671,99	1284,08
672,18	1333,23
672,36	1224,69
672,55	1234,93
672,74	1261,55
672,92	1232,88
673,11	1351,66
673,29	1292,27
673,48	1230,83
673,67	1370,09
673,85	1257,45
674,04	1236,97
674,23	1228,78
674,41	1255,40
674,60	1259,50
674,79	1224,69
674,97	1306,60
675,16	1267,69
675,34	1239,02
675,53	1222,64
675,72	1255,40
675,90	1277,93
676,09	1284,08
676,28	1222,64
676,46	1284,08
676,65	1224,69
676,83	1259,50
677,02	1220,59
677,21	1255,40
677,39	1265,64
677,58	1208,30
677,77	1282,03
677,95	1259,50
678,14	1279,98
678,32	1251,31
678,51	1325,04
678,70	1257,45
678,88	1234,93
679,07	1245,16
679,25	1196,01
679,44	1259,50
679,63	1253,36
679,81	1273,84
680,00	1298,41
680,18	1318,89
680,37	1239,02
680,55	1247,21
680,74	1187,82
680,93	1196,01
681,11	1302,51
681,30	1267,69
681,48	1265,64
681,67	1230,83
681,85	1222,64
682,04	1226,73
682,23	1279,98
682,41	1273,84
682,60	1200,11
682,78	1329,13
682,97	1269,74
683,15	1165,29
683,34	1302,51
683,53	1275,88
683,71	1292,27
683,90	1253,36
684,08	1275,88
684,27	1259,50
684,45	1300,46
684,64	1222,64
684,82	1259,50
685,01	1308,65
685,19	1218,54
685,38	1286,12
685,57	1245,16
685,75	1257,45
685,94	1296,36
686,12	1267,69
686,31	1353,71
686,49	1267,69
686,68	1267,69
686,86	1273,84
687,05	1318,89
687,23	1247,21
687,42	1282,03
687,60	1261,55
687,79	1245,16
687,97	1265,64
688,16	1284,08
688,34	1236,97
688,53	1214,45
688,71	1269,74
688,90	1224,69
689,08	1275,88
689,27	1234,93
689,45	1255,40
689,64	1277,93
689,82	1275,88
690,01	1273,84
690,19	1253,36
690,38	1271,79
690,56	1239,02
690,75	1241,07
690,93	1224,69
691,12	1249,26
691,30	1273,84
691,49	1294,32
691,67	1261,55
691,86	1310,70
692,04	1292,27
692,23	1277,93
692,41	1269,74
692,60	1212,40
692,78	1318,89
692,97	1253,36
693,15	1310,70
693,34	1230,83
693,52	1322,99
693,71	1261,55
693,89	1247,21
694,08	1284,08
694,26	1265,64
694,44	1318,89
694,63	1189,87
694,81	1239,02
695,00	1263,60
695,18	1273,84
695,37	1318,89
695,55	1310,70
695,74	1261,55
695,92	1241,07
696,10	1271,79
696,29	1312,75
696,47	1257,45
696,66	1269,74
696,84	1286,12
697,03	1247,21
697,21	1245,16
697,40	1302,51
697,58	1277,93
697,76	1294,32
697,95	1322,99
698,13	1320,94
698,32	1228,78
698,50	1327,08
698,68	1265,64
698,87	1279,98
699,05	1284,08
699,24	1269,74
699,42	1265,64
699,61	1302,51
699,79	1316,84
699,97	1261,55
700,16	1288,17
700,34	1290,22
700,53	1314,80
700,71	1200,11
700,89	1331,18
701,08	1251,31
701,26	1384,43
701,45	1261,55
701,63	1333,23
701,81	1210,35
702,00	1286,12
702,18	1265,64
702,37	1175,53
702,55	1222,64
702,73	1273,84
702,92	1239,02
703,10	1290,22
703,28	1273,84
703,47	1228,78
703,65	1308,65
703,84	1310,70
704,02	1263,60
704,20	1224,69
704,39	1216,49
704,57	1279,98
704,75	1269,74
704,94	1296,36
705,12	1247,21
705,30	1210,35
705,49	1251,31
705,67	1245,16
705,86	1394,67
706,04	1257,45
706,22	1259,50
706,41	1257,45
706,59	1298,41
706,77	1265,64
706,96	1234,93
707,14	1279,98
707,32	1271,79
707,51	1236,97
707,69	1236,97
707,87	1255,40
708,06	1275,88
708,24	1265,64
708,42	1251,31
708,61	1368,04
708,79	1292,27
708,97	1245,16
709,16	1239,02
709,34	1290,22
709,52	1275,88
709,71	1218,54
709,89	1312,75
710,07	1239,02
710,26	1286,12
710,44	1222,64
710,62	1247,21
710,80	1220,59
710,99	1224,69
711,17	1232,88
711,35	1261,55
711,54	1247,21
711,72	1259,50
711,90	1271,79
712,09	1275,88
712,27	1165,29
712,45	1212,40
712,63	1232,88
712,82	1241,07
713,00	1306,60
713,18	1216,49
713,37	1288,17
713,55	1304,56
713,73	1314,80
713,91	1310,70
714,10	1208,30
714,28	1265,64
714,46	1378,28
714,65	1218,54
714,83	1245,16
715,01	1327,08
715,19	1298,41
715,38	1331,18
715,56	1290,22
715,74	1232,88
715,92	1290,22
716,11	1257,45
716,29	1257,45
716,47	1247,21
716,65	1267,69
716,84	1265,64
717,02	1331,18
717,20	1288,17
717,38	1300,46
717,57	1292,27
717,75	1269,74
717,93	1220,59
718,11	1275,88
718,30	1228,78
718,48	1298,41
718,66	1314,80
718,84	1241,07
719,03	1249,26
719,21	1282,03
719,39	1298,41
719,57	1296,36
719,75	1257,45
719,94	1228,78
720,12	1181,68
720,30	1329,13
720,48	1230,83
720,67	1259,50
720,85	1249,26
721,03	1288,17
721,21	1267,69
721,39	1347,56
721,58	1187,82
721,76	1306,60
721,94	1214,45
722,12	1275,88
722,30	1263,60
722,49	1273,84
722,67	1308,65
722,85	1277,93
723,03	1261,55
723,21	1275,88
723,40	1296,36
723,58	1284,08
723,76	1245,16
723,94	1282,03
724,12	1273,84
724,30	1329,13
724,49	1273,84
724,67	1255,40
724,85	1306,60
725,03	1265,64
725,21	1296,36
725,40	1249,26
725,58	1196,01
725,76	1247,21
725,94	1249,26
726,12	1234,93
726,30	1224,69
726,49	1296,36
726,67	1294,32
726,85	1224,69
727,03	1253,36
727,21	1247,21
727,39	1269,74
727,57	1236,97
727,76	1341,42
727,94	1331,18
728,12	1263,60
728,30	1286,12
728,48	1288,17
728,66	1259,50
728,84	1298,41
729,03	1288,17
729,21	1257,45
729,39	1296,36
729,57	1275,88
729,75	1306,60
729,93	1269,74
730,11	1310,70
730,30	1232,88
730,48	1300,46
730,66	1251,31
730,84	1265,64
731,02	1271,79
731,20	1282,03
731,38	1267,69
731,56	1232,88
731,74	1355,76
731,93	1294,32
732,11	1224,69
732,29	1214,45
732,47	1320,94
732,65	1249,26
732,83	1302,51
733,01	1179,63
733,19	1271,79
733,37	1245,16
733,56	1296,36
733,74	1253,36
733,92	1316,84
734,10	1345,52
734,28	1255,40
734,46	1275,88
734,64	1200,11
734,82	1288,17
735,00	1247,21
735,18	1239,02
735,36	1320,94
735,54	1236,97
735,73	1298,41
735,91	1273,84
736,09	1320,94
736,27	1261,55
736,45	1294,32
736,63	1306,60
736,81	1298,41
736,99	1263,60
737,17	1253,36
737,35	1273,84
737,53	1212,40
737,71	1255,40
737,89	1275,88
738,07	1320,94
738,25	1277,93
738,43	1269,74
738,61	1271,79
738,80	1331,18
738,98	1318,89
739,16	1140,72
739,34	1241,07
739,52	1226,73
739,70	1241,07
739,88	1261,55
740,06	1263,60
740,24	1216,49
740,42	1228,78
740,60	1275,88
740,78	1271,79
740,96	1316,84
741,14	1251,31
741,32	1243,12
741,50	1224,69
741,68	1306,60
741,86	1312,75
742,04	1212,40
742,22	1298,41
742,40	1277,93
742,58	1333,23
742,76	1322,99
742,94	1222,64
743,12	1269,74
743,30	1302,51
743,48	1320,94
743,66	1314,80
743,84	1271,79
744,02	1294,32
744,20	1247,21
744,38	1335,28
744,56	1206,25
744,74	1241,07
744,92	1204,21
745,10	1263,60
745,28	1269,74
745,46	1347,56
745,64	1331,18
745,82	1282,03
746,00	1294,32
746,18	1243,12
746,36	1259,50
746,54	1193,97
746,72	1253,36
746,90	1249,26
747,08	1308,65
747,26	1247,21
747,44	1259,50
747,62	1286,12
747,80	1253,36
747,98	1247,21
748,15	1265,64
748,33	1173,49
748,51	1257,45
748,69	1294,32
748,87	1261,55
749,05	1312,75
749,23	1259,50
749,41	1277,93
749,59	1314,80
749,77	1267,69
749,95	1349,61
750,13	1290,22
750,31	1286,12
750,49	1239,02
750,67	1302,51
750,85	1228,78
751,03	1251,31
751,20	1271,79
751,38	1193,97
751,56	1257,45
751,74	1226,73
751,92	1196,01
752,10	1304,56
752,28	1224,69
752,46	1296,36
752,64	1263,60
752,82	1251,31
753,00	1261,55
753,18	1292,27
753,35	1241,07
753,53	1200,11
753,71	1222,64
753,89	1245,16
754,07	1230,83
754,25	1230,83
754,43	1234,93
754,61	1157,10
754,79	1224,69
754,97	1259,50
755,14	1298,41
755,32	1263,60
755,50	1189,87
755,68	1222,64
755,86	1306,60
756,04	1273,84
756,22	1288,17
756,40	1267,69
756,57	1251,31
756,75	1271,79
756,93	1277,93
757,11	1320,94
757,29	1314,80
757,47	1288,17
757,65	1234,93
757,82	1202,16
758,00	1267,69
758,18	1200,11
758,36	1312,75
758,54	1249,26
758,72	1312,75
758,90	1318,89
759,07	1265,64
759,25	1329,13
759,43	1251,31
759,61	1200,11
759,79	1366,00
759,97	1277,93
760,15	1298,41
760,32	1302,51
760,50	1298,41
760,68	1320,94
760,86	1259,50
761,04	1263,60
761,22	1327,08
761,39	1335,28
761,57	1320,94
761,75	1216,49
761,93	1263,60
762,11	1245,16
762,28	1187,82
762,46	1288,17
762,64	1232,88
762,82	1259,50
763,00	1251,31
763,18	1298,41
763,35	1239,02
763,53	1325,04
763,71	1269,74
763,89	1282,03
764,07	1234,93
764,24	1245,16
764,42	1249,26
764,60	1310,70
764,78	1275,88
764,96	1241,07
765,13	1318,89
765,31	1189,87
765,49	1220,59
765,67	1251,31
765,84	1269,74
766,02	1304,56
766,20	1271,79
766,38	1253,36
766,56	1267,69
766,73	1263,60
766,91	1222,64
767,09	1206,25
767,27	1308,65
767,44	1251,31
767,62	1243,12
767,80	1269,74
767,98	1269,74
768,15	1290,22
768,33	1247,21
768,51	1206,25
768,69	1253,36
768,87	1249,26
769,04	1294,32
769,22	1290,22
769,40	1335,28
769,58	1275,88
769,75	1267,69
769,93	1296,36
770,11	1284,08
770,28	1212,40
770,46	1335,28
770,64	1265,64
770,82	1279,98
770,99	1304,56
771,17	1245,16
771,35	1255,40
771,53	1224,69
771,70	1314,80
771,88	1282,03
772,06	1273,84
772,23	1269,74
772,41	1224,69
772,59	1294,32
772,77	1220,59
772,94	1284,08
773,12	1259,50
773,30	1271,79
773,47	1284,08
773,65	1279,98
773,83	1277,93
774,01	1255,40
774,18	1247,21
774,36	1222,64
774,54	1327,08
774,71	1320,94
774,89	1302,51
775,07	1273,84
775,24	1218,54
775,42	1245,16
775,60	1318,89
775,78	1261,55
775,95	1306,60
776,13	1245,16
776,31	1236,97
776,48	1265,64
776,66	1210,35
776,84	1275,88
777,01	1277,93
777,19	1261,55
777,37	1322,99
777,54	1189,87
777,72	1337,32
777,90	1314,80
778,07	1236,97
778,25	1232,88
778,43	1325,04
778,60	1267,69
778,78	1230,83
778,96	1294,32
779,13	1298,41
779,31	1294,32
779,49	1236,97
779,66	1279,98
779,84	1224,69
780,01	1288,17
780,19	1232,88
780,37	1320,94
780,54	1318,89
780,72	1245,16
780,90	1234,93
781,07	1261,55
781,25	1320,94
781,43	1265,64
781,60	1263,60
781,78	1253,36
781,95	1314,80
782,13	1269,74
782,31	1263,60
782,48	1290,22
782,66	1282,03
782,83	1234,93
783,01	1253,36
783,19	1298,41
783,36	1312,75
783,54	1230,83
783,72	1304,56
783,89	1179,63
784,07	1282,03
784,24	1290,22
784,42	1318,89
784,60	1298,41
784,77	1286,12
784,95	1290,22
785,12	1273,84
785,30	1243,12
785,47	1331,18
785,65	1298,41
785,83	1261,55
786,00	1265,64
786,18	1228,78
786,35	1263,60
786,53	1175,53
786,71	1234,93
786,88	1253,36
787,06	1222,64
787,23	1200,11
787,41	1214,45
787,58	1263,60
787,76	1228,78
787,94	1187,82
788,11	1310,70
788,29	1212,40
788,46	1230,83
788,64	1279,98
788,81	1228,78
788,99	1273,84
789,16	1322,99
789,34	1300,46
789,52	1239,02
789,69	1284,08
789,87	1284,08
790,04	1298,41
790,22	1259,50
790,39	1253,36
790,57	1236,97
790,74	1355,76
790,92	1310,70
791,09	1257,45
791,27	1218,54
791,44	1347,56
791,62	1284,08
791,79	1273,84
791,97	1253,36
792,15	1359,85
792,32	1222,64
792,50	1230,83
792,67	1265,64
792,85	1296,36
793,02	1277,93
793,20	1222,64
793,37	1226,73
793,55	1282,03
793,72	1271,79
793,90	1290,22
794,07	1286,12
794,25	1314,80
794,42	1304,56
794,60	1304,56
794,77	1228,78
794,95	1308,65
795,12	1226,73
795,30	1236,97
795,47	1279,98
795,65	1218,54
795,82	1218,54
796,00	1282,03
796,17	1302,51
796,34	1320,94
796,52	1279,98
796,69	1212,40
796,87	1290,22
797,04	1322,99
797,22	1282,03
797,39	1277,93
797,57	1222,64
797,74	1245,16
797,92	1263,60
798,09	1284,08
798,27	1290,22
798,44	1234,93
798,62	1255,40
798,79	1314,80
798,96	1200,11
799,14	1236,97
799,31	1216,49
799,49	1341,42
799,66	1312,75
799,84	1247,21
800,01	1249,26
800,19	1282,03
800,36	1216,49
800,53	1239,02
800,71	1267,69
800,88	1247,21
801,06	1232,88
801,23	1251,31
801,41	1277,93
801,58	1220,59
801,75	1226,73
801,93	1306,60
802,10	1292,27
802,28	1296,36
802,45	1150,96
802,63	1265,64
802,80	1259,50
802,97	1259,50
803,15	1353,71
803,32	1226,73
803,50	1325,04
803,67	1253,36
803,84	1353,71
804,02	1218,54
804,19	1259,50
804,37	1243,12
804,54	1191,92
804,71	1239,02
804,89	1228,78
805,06	1259,50
805,24	1273,84
805,41	1282,03
805,58	1282,03
805,76	1234,93
805,93	1294,32
806,10	1263,60
806,28	1300,46
806,45	1263,60
806,63	1298,41
806,80	1290,22
806,97	1216,49
807,15	1263,60
807,32	1316,84
807,49	1279,98
807,67	1277,93
807,84	1271,79
808,01	1236,97
808,19	1327,08
808,36	1298,41
808,54	1296,36
808,71	1208,30
808,88	1228,78
809,06	1265,64
809,23	1300,46
809,40	1191,92
809,58	1247,21
809,75	1214,45
809,92	1257,45
810,10	1196,01
810,27	1224,69
810,44	1277,93
810,62	1261,55
810,79	1325,04
810,96	1286,12
811,14	1241,07
811,31	1314,80
811,48	1251,31
811,66	1341,42
811,83	1247,21
812,00	1288,17
812,18	1230,83
812,35	1234,93
812,52	1284,08
812,69	1224,69
812,87	1275,88
813,04	1296,36
813,21	1296,36
813,39	1228,78
813,56	1245,16
813,73	1245,16
813,91	1265,64
814,08	1298,41
814,25	1236,97
814,42	1282,03
814,60	1300,46
814,77	1249,26
814,94	1251,31
815,12	1230,83
815,29	1196,01
815,46	1261,55
815,63	1314,80
815,81	1298,41
815,98	1259,50
816,15	1273,84
816,33	1310,70
816,50	1292,27
816,67	1234,93
816,84	1265,64
817,02	1294,32
817,19	1277,93
817,36	1253,36
817,53	1306,60
817,71	1226,73
817,88	1302,51
818,05	1308,65
818,22	1226,73
818,40	1294,32
818,57	1322,99
818,74	1210,35
818,91	1261,55
819,09	1269,74
819,26	1200,11
819,43	1204,21
819,60	1282,03
819,78	1353,71
819,95	1282,03
820,12	1253,36
820,29	1216,49
820,47	1288,17
820,64	1251,31
820,81	1191,92
820,98	1247,21
821,15	1212,40
821,33	1296,36
821,50	1239,02
821,67	1290,22
821,84	1269,74
822,02	1265,64
822,19	1322,99
822,36	1296,36
822,53	1249,26
822,70	1265,64
822,88	1327,08
823,05	1320,94
823,22	1230,83
823,39	1259,50
823,56	1230,83
823,74	1284,08
823,91	1275,88
824,08	1318,89
824,25	1218,54
824,42	1220,59
824,60	1294,32
824,77	1320,94
824,94	1255,40
825,11	1345,52
825,28	1210,35
825,45	1347,56
825,63	1304,56
825,80	1304,56
825,97	1259,50
826,14	1296,36
826,31	1204,21
826,48	1212,40
826,66	1230,83
826,83	1331,18
827,00	1310,70
827,17	1255,40
827,34	1261,55
827,51	1253,36
827,69	1361,90
827,86	1259,50
828,03	1265,64
828,20	1269,74
828,37	1196,01
828,54	1245,16
828,71	1284,08
828,89	1290,22
829,06	1298,41
829,23	1249,26
829,40	1157,10
829,57	1230,83
829,74	1271,79
829,91	1284,08
830,09	1277,93
830,26	1230,83
830,43	1302,51
830,60	1304,56
830,77	1267,69
830,94	1249,26
831,11	1292,27
831,28	1279,98
831,46	1265,64
831,63	1255,40
831,80	1245,16
831,97	1218,54
832,14	1255,40
832,31	1269,74
832,48	1284,08
832,65	1353,71
832,82	1224,69
832,99	1220,59
833,17	1294,32
833,34	1318,89
833,51	1275,88
833,68	1269,74
833,85	1224,69
834,02	1253,36
834,19	1300,46
834,36	1208,30
834,53	1288,17
834,70	1247,21
834,87	1267,69
835,04	1304,56
835,22	1282,03
835,39	1284,08
835,56	1349,61
835,73	1347,56
835,90	1300,46
836,07	1271,79
836,24	1189,87
836,41	1257,45
836,58	1247,21
836,75	1337,32
836,92	1269,74
837,09	1288,17
837,26	1300,46
837,43	1271,79
837,60	1224,69
837,77	1224,69
837,94	1232,88
838,12	1189,87
838,29	1294,32
838,46	1261,55
838,63	1302,51
838,80	1253,36
838,97	1241,07
839,14	1249,26
839,31	1251,31
839,48	1275,88
839,65	1196,01
839,82	1271,79
839,99	1265,64
840,16	1298,41
840,33	1232,88
840,50	1261,55
840,67	1222,64
840,84	1253,36
841,01	1247,21
841,18	1282,03
841,35	1200,11
841,52	1302,51
841,69	1249,26
841,86	1265,64
842,03	1288,17
842,20	1232,88
842,37	1261,55
842,54	1222,64
842,71	1327,08
842,88	1294,32
843,05	1288,17
843,22	1300,46
843,39	1263,60
843,56	1255,40
843,73	1263,60
843,90	1304,56
844,07	1261,55
844,24	1259,50
844,41	1249,26
844,58	1288,17
844,75	1241,07
844,92	1335,28
845,09	1232,88
845,26	1296,36
845,43	1249,26
845,60	1333,23
845,77	1263,60
845,94	1271,79
846,10	1230,83
846,27	1265,64
846,44	1255,40
846,61	1249,26
846,78	1271,79
846,95	1236,97
847,12	1269,74
847,29	1304,56
847,46	1308,65
847,63	1279,98
847,80	1284,08
847,97	1241,07
848,14	1241,07
848,31	1284,08
848,48	1249,26
848,65	1288,17
848,82	1245,16
848,98	1271,79
849,15	1206,25
849,32	1325,04
849,49	1241,07
849,66	1247,21
849,83	1265,64
850,00	1359,85
850,17	1257,45
850,34	1232,88
850,51	1247,21
850,68	1230,83
850,85	1282,03
851,01	1218,54
851,18	1273,84
851,35	1257,45
851,52	1329,13
851,69	1239,02
851,86	1255,40
852,03	1249,26
852,20	1284,08
852,37	1265,64
852,53	1230,83
852,70	1271,79
852,87	1308,65
853,04	1290,22
853,21	1239,02
853,38	1226,73
853,55	1267,69
853,72	1306,60
853,89	1191,92
854,05	1228,78
854,22	1245,16
854,39	1292,27
854,56	1236,97
854,73	1222,64
854,90	1314,80
855,07	1310,70
855,23	1204,21
855,40	1222,64
855,57	1175,53
855,74	1163,25
855,91	1255,40
856,08	1249,26
856,25	1232,88
856,41	1261,55
856,58	1298,41
856,75	1253,36
856,92	1275,88
857,09	1261,55
857,26	1279,98
857,42	1239,02
857,59	1300,46
857,76	1263,60
857,93	1273,84
858,10	1275,88
858,27	1273,84
858,43	1277,93
858,60	1234,93
858,77	1288,17
858,94	1241,07
859,11	1290,22
859,27	1263,60
859,44	1257,45
859,61	1255,40
859,78	1271,79
859,95	1269,74
860,12	1265,64
860,28	1206,25
860,45	1337,32
860,62	1263,60
860,79	1269,74
860,95	1243,12
861,12	1347,56
861,29	1239,02
861,46	1320,94
861,63	1234,93
861,79	1185,77
861,96	1310,70
862,13	1189,87
862,30	1259,50
862,47	1267,69
862,63	1288,17
862,80	1224,69
862,97	1251,31
863,14	1220,59
863,30	1273,84
863,47	1271,79
863,64	1224,69
863,81	1335,28
863,97	1239,02
864,14	1198,06
864,31	1273,84
864,48	1282,03
864,65	1224,69
864,81	1347,56
864,98	1308,65
865,15	1253,36
865,32	1239,02
865,48	1241,07
865,65	1259,50
865,82	1275,88
865,98	1314,80
866,15	1255,40
866,32	1230,83
866,49	1339,37
866,65	1230,83
866,82	1236,97
866,99	1294,32
867,16	1222,64
867,32	1316,84
867,49	1218,54
867,66	1271,79
867,83	1310,70
867,99	1208,30
868,16	1253,36
868,33	1226,73
868,49	1310,70
868,66	1249,26
868,83	1288,17
868,99	1239,02
869,16	1241,07
869,33	1282,03
869,50	1245,16
869,66	1286,12
869,83	1196,01
870,00	1339,37
870,16	1251,31
870,33	1208,30
870,50	1304,56
870,66	1208,30
870,83	1282,03
871,00	1261,55
871,17	1316,84
871,33	1247,21
871,50	1298,41
871,67	1245,16
871,83	1265,64
872,00	1263,60
872,17	1282,03
872,33	1214,45
872,50	1308,65
872,67	1253,36
872,83	1232,88
873,00	1208,30
873,17	1339,37
873,33	1331,18
873,50	1261,55
873,67	1169,39
873,83	1228,78
874,00	1275,88
874,16	1288,17
874,33	1202,16
874,50	1335,28
874,66	1206,25
874,83	1251,31
875,00	1265,64
875,16	1282,03
875,33	1196,01
875,50	1232,88
875,66	1243,12
875,83	1239,02
875,99	1257,45
876,16	1234,93
876,33	1204,21
876,49	1183,73
876,66	1247,21
876,83	1316,84
876,99	1230,83
877,16	1335,28
877,32	1263,60
877,49	1239,02
877,66	1312,75
877,82	1265,64
877,99	1294,32
878,15	1259,50
878,32	1290,22
878,49	1345,52
878,65	1177,58
878,82	1220,59
878,98	1308,65
879,15	1288,17
879,32	1263,60
879,48	1267,69
879,65	1249,26
879,81	1222,64
879,98	1243,12
880,15	1216,49
880,31	1277,93
880,48	1312,75
880,64	1218,54
880,81	1230,83
880,97	1257,45
881,14	1234,93
881,31	1290,22
881,47	1273,84
881,64	1269,74
881,80	1265,64
881,97	1271,79
882,13	1306,60
882,30	1277,93
882,47	1302,51
882,63	1196,01
882,80	1298,41
882,96	1220,59
883,13	1265,64
883,29	1286,12
883,46	1257,45
883,62	1255,40
883,79	1306,60
883,95	1286,12
884,12	1228,78
884,29	1306,60
884,45	1325,04
884,62	1300,46
884,78	1245,16
884,95	1245,16
885,11	1265,64
885,28	1325,04
885,44	1224,69
885,61	1224,69
885,77	1243,12
885,94	1286,12
886,10	1222,64
886,27	1232,88
886,43	1218,54
886,60	1214,45
886,76	1290,22
886,93	1249,26
887,09	1277,93
887,26	1253,36
887,42	1310,70
887,59	1286,12
887,75	1282,03
887,92	1239,02
888,08	1275,88
888,25	1228,78
888,41	1239,02
888,58	1239,02
888,74	1243,12
888,91	1296,36
>>>>>End Processed Spectral Data<<<<<
