SpectraSuite Data File
++++++++++++++++++++++++++++++++++++
Date: Sun Apr 03 15:21:34 CEST 2016
User: root
Dark Spectrum Present: No
Reference Spectrum Present: No
Number of Sampled Component Spectra: 1
Spectrometers: USB4C02835
Integration Time (usec): 10000 (USB4C02835)
Spectra Averaged: 1 (USB4C02835)
Boxcar Smoothing: 0 (USB4C02835)
Correct for Electrical Dark: No (USB4C02835)
Strobe/Lamp Enabled: No (USB4C02835)
Correct for Detector Non-linearity: No (USB4C02835)
Correct for Stray Light: No (USB4C02835)
Number of Pixels in Processed Spectrum: 3648
>>>>>Begin Processed Spectral Data<<<<<
177,47	1292,27
177,69	1292,27
177,91	1292,27
178,13	1284,08
178,36	1271,79
178,58	1378,28
178,80	1200,11
179,02	1226,73
179,24	1302,51
179,46	1191,92
179,68	1304,56
179,90	1279,98
180,13	1234,93
180,35	1251,31
180,57	1306,60
180,79	1208,30
181,01	1277,93
181,23	1302,51
181,45	1284,08
181,67	1363,95
181,90	1359,85
182,12	1267,69
182,34	1196,01
182,56	1294,32
182,78	1191,92
183,00	1208,30
183,22	1269,74
183,44	1247,21
183,66	1331,18
183,89	1261,55
184,11	1292,27
184,33	1226,73
184,55	1277,93
184,77	1259,50
184,99	1232,88
185,21	1228,78
185,43	1277,93
185,65	1292,27
185,87	1253,36
186,10	1306,60
186,32	1331,18
186,54	1241,07
186,76	1243,12
186,98	1253,36
187,20	1349,61
187,42	1329,13
187,64	1241,07
187,86	1204,21
188,08	1316,84
188,30	1277,93
188,52	1196,01
188,75	1294,32
188,97	1339,37
189,19	1249,26
189,41	1292,27
189,63	1304,56
189,85	1298,41
190,07	1308,65
190,29	1263,60
190,51	1247,21
190,73	1306,60
190,95	1320,94
191,17	1296,36
191,39	1222,64
191,61	1265,64
191,84	1255,40
192,06	1296,36
192,28	1253,36
192,50	1273,84
192,72	1230,83
192,94	1255,40
193,16	1241,07
193,38	1314,80
193,60	1257,45
193,82	1284,08
194,04	1302,51
194,26	1372,14
194,48	1290,22
194,70	1189,87
194,92	1210,35
195,14	1284,08
195,36	1279,98
195,58	1290,22
195,80	1232,88
196,02	1314,80
196,24	1298,41
196,46	1318,89
196,69	1261,55
196,91	1267,69
197,13	1220,59
197,35	1273,84
197,57	1273,84
197,79	1245,16
198,01	1304,56
198,23	1298,41
198,45	1216,49
198,67	1226,73
198,89	1298,41
199,11	1247,21
199,33	1331,18
199,55	1296,36
199,77	1253,36
199,99	1290,22
200,21	1282,03
200,43	1370,09
200,65	1245,16
200,87	1314,80
201,09	1269,74
201,31	1259,50
201,53	1251,31
201,75	1310,70
201,97	1230,83
202,19	1265,64
202,41	1292,27
202,63	1273,84
202,85	1200,11
203,07	1310,70
203,29	1273,84
203,51	1298,41
203,73	1204,21
203,95	1333,23
204,17	1320,94
204,39	1300,46
204,61	1304,56
204,83	1265,64
205,05	1286,12
205,27	1230,83
205,49	1273,84
205,71	1279,98
205,93	1290,22
206,15	1271,79
206,37	1232,88
206,59	1273,84
206,81	1282,03
207,03	1288,17
207,25	1265,64
207,47	1249,26
207,69	1243,12
207,91	1327,08
208,13	1306,60
208,34	1279,98
208,56	1302,51
208,78	1255,40
209,00	1279,98
209,22	1263,60
209,44	1298,41
209,66	1245,16
209,88	1230,83
210,10	1277,93
210,32	1216,49
210,54	1288,17
210,76	1208,30
210,98	1198,06
211,20	1200,11
211,42	1263,60
211,64	1333,23
211,86	1320,94
212,08	1257,45
212,30	1189,87
212,52	1294,32
212,74	1263,60
212,96	1292,27
213,17	1255,40
213,39	1265,64
213,61	1261,55
213,83	1316,84
214,05	1296,36
214,27	1304,56
214,49	1296,36
214,71	1306,60
214,93	1310,70
215,15	1206,25
215,37	1318,89
215,59	1214,45
215,81	1300,46
216,03	1329,13
216,24	1296,36
216,46	1310,70
216,68	1306,60
216,90	1234,93
217,12	1298,41
217,34	1206,25
217,56	1306,60
217,78	1247,21
218,00	1210,35
218,22	1220,59
218,44	1181,68
218,66	1269,74
218,87	1210,35
219,09	1284,08
219,31	1222,64
219,53	1239,02
219,75	1216,49
219,97	1275,88
220,19	1271,79
220,41	1363,95
220,63	1226,73
220,85	1257,45
221,06	1286,12
221,28	1308,65
221,50	1259,50
221,72	1275,88
221,94	1253,36
222,16	1241,07
222,38	1249,26
222,60	1314,80
222,82	1294,32
223,03	1206,25
223,25	1269,74
223,47	1304,56
223,69	1333,23
223,91	1343,47
224,13	1251,31
224,35	1257,45
224,57	1275,88
224,78	1261,55
225,00	1222,64
225,22	1267,69
225,44	1273,84
225,66	1253,36
225,88	1265,64
226,10	1296,36
226,32	1261,55
226,53	1337,32
226,75	1210,35
226,97	1284,08
227,19	1310,70
227,41	1216,49
227,63	1253,36
227,85	1261,55
228,06	1322,99
228,28	1284,08
228,50	1279,98
228,72	1214,45
228,94	1351,66
229,16	1298,41
229,37	1329,13
229,59	1277,93
229,81	1290,22
230,03	1286,12
230,25	1325,04
230,47	1253,36
230,69	1329,13
230,90	1308,65
231,12	1282,03
231,34	1243,12
231,56	1232,88
231,78	1130,48
232,00	1253,36
232,21	1265,64
232,43	1234,93
232,65	1300,46
232,87	1292,27
233,09	1214,45
233,30	1322,99
233,52	1232,88
233,74	1282,03
233,96	1290,22
234,18	1198,06
234,40	1275,88
234,61	1263,60
234,83	1198,06
235,05	1232,88
235,27	1269,74
235,49	1214,45
235,70	1253,36
235,92	1306,60
236,14	1290,22
236,36	1273,84
236,58	1310,70
236,79	1378,28
237,01	1286,12
237,23	1288,17
237,45	1214,45
237,67	1208,30
237,88	1277,93
238,10	1236,97
238,32	1202,16
238,54	1273,84
238,76	1206,25
238,97	1228,78
239,19	1243,12
239,41	1318,89
239,63	1253,36
239,85	1302,51
240,06	1335,28
240,28	1263,60
240,50	1322,99
240,72	1298,41
240,93	1232,88
241,15	1277,93
241,37	1236,97
241,59	1279,98
241,81	1300,46
242,02	1284,08
242,24	1335,28
242,46	1206,25
242,68	1302,51
242,89	1314,80
243,11	1269,74
243,33	1312,75
243,55	1294,32
243,76	1263,60
243,98	1286,12
244,20	1284,08
244,42	1241,07
244,64	1368,04
244,85	1224,69
245,07	1290,22
245,29	1236,97
245,51	1265,64
245,72	1253,36
245,94	1320,94
246,16	1259,50
246,38	1208,30
246,59	1322,99
246,81	1308,65
247,03	1302,51
247,24	1253,36
247,46	1273,84
247,68	1265,64
247,90	1251,31
248,11	1312,75
248,33	1286,12
248,55	1234,93
248,77	1257,45
248,98	1290,22
249,20	1257,45
249,42	1282,03
249,64	1236,97
249,85	1310,70
250,07	1257,45
250,29	1236,97
250,50	1279,98
250,72	1200,11
250,94	1241,07
251,16	1200,11
251,37	1224,69
251,59	1331,18
251,81	1318,89
252,02	1265,64
252,24	1226,73
252,46	1349,61
252,68	1257,45
252,89	1337,32
253,11	1333,23
253,33	1298,41
253,54	1265,64
253,76	1286,12
253,98	1259,50
254,20	1306,60
254,41	1265,64
254,63	1282,03
254,85	1351,66
255,06	1302,51
255,28	1214,45
255,50	1322,99
255,71	1308,65
255,93	1230,83
256,15	1208,30
256,36	1249,26
256,58	1318,89
256,80	1253,36
257,02	1300,46
257,23	1234,93
257,45	1224,69
257,67	1249,26
257,88	1230,83
258,10	1255,40
258,32	1224,69
258,53	1282,03
258,75	1267,69
258,97	1275,88
259,18	1286,12
259,40	1300,46
259,62	1236,97
259,83	1183,73
260,05	1228,78
260,27	1241,07
260,48	1245,16
260,70	1232,88
260,92	1251,31
261,13	1253,36
261,35	1243,12
261,57	1249,26
261,78	1251,31
262,00	1279,98
262,22	1232,88
262,43	1241,07
262,65	1224,69
262,86	1259,50
263,08	1214,45
263,30	1335,28
263,51	1314,80
263,73	1216,49
263,95	1292,27
264,16	1239,02
264,38	1282,03
264,60	1290,22
264,81	1245,16
265,03	1265,64
265,25	1345,52
265,46	1189,87
265,68	1308,65
265,89	1318,89
266,11	1224,69
266,33	1249,26
266,54	1255,40
266,76	1308,65
266,98	1183,73
267,19	1220,59
267,41	1249,26
267,62	1322,99
267,84	1298,41
268,06	1257,45
268,27	1302,51
268,49	1261,55
268,70	1226,73
268,92	1267,69
269,14	1261,55
269,35	1267,69
269,57	1208,30
269,79	1271,79
270,00	1185,77
270,22	1275,88
270,43	1263,60
270,65	1265,64
270,87	1302,51
271,08	1183,73
271,30	1206,25
271,51	1282,03
271,73	1265,64
271,95	1290,22
272,16	1300,46
272,38	1271,79
272,59	1249,26
272,81	1234,93
273,02	1282,03
273,24	1310,70
273,46	1267,69
273,67	1353,71
273,89	1318,89
274,10	1247,21
274,32	1284,08
274,54	1327,08
274,75	1222,64
274,97	1306,60
275,18	1241,07
275,40	1327,08
275,61	1265,64
275,83	1322,99
276,05	1290,22
276,26	1243,12
276,48	1255,40
276,69	1316,84
276,91	1198,06
277,12	1286,12
277,34	1331,18
277,55	1279,98
277,77	1288,17
277,99	1263,60
278,20	1320,94
278,42	1298,41
278,63	1339,37
278,85	1247,21
279,06	1234,93
279,28	1275,88
279,49	1286,12
279,71	1236,97
279,93	1267,69
280,14	1236,97
280,36	1310,70
280,57	1255,40
280,79	1296,36
281,00	1251,31
281,22	1298,41
281,43	1363,95
281,65	1236,97
281,86	1208,30
282,08	1232,88
282,29	1294,32
282,51	1232,88
282,73	1202,16
282,94	1247,21
283,16	1247,21
283,37	1320,94
283,59	1345,52
283,80	1239,02
284,02	1288,17
284,23	1310,70
284,45	1314,80
284,66	1300,46
284,88	1255,40
285,09	1263,60
285,31	1251,31
285,52	1241,07
285,74	1273,84
285,95	1236,97
286,17	1267,69
286,38	1308,65
286,60	1304,56
286,81	1288,17
287,03	1298,41
287,24	1193,97
287,46	1325,04
287,67	1312,75
287,89	1249,26
288,10	1298,41
288,32	1294,32
288,53	1279,98
288,75	1208,30
288,96	1267,69
289,18	1314,80
289,39	1243,12
289,61	1304,56
289,82	1232,88
290,04	1368,04
290,25	1220,59
290,47	1300,46
290,68	1310,70
290,90	1288,17
291,11	1257,45
291,33	1224,69
291,54	1298,41
291,76	1271,79
291,97	1271,79
292,18	1368,04
292,40	1261,55
292,61	1310,70
292,83	1314,80
293,04	1327,08
293,26	1263,60
293,47	1339,37
293,69	1212,40
293,90	1257,45
294,12	1224,69
294,33	1249,26
294,55	1277,93
294,76	1329,13
294,97	1234,93
295,19	1249,26
295,40	1249,26
295,62	1294,32
295,83	1284,08
296,05	1269,74
296,26	1290,22
296,48	1282,03
296,69	1314,80
296,90	1228,78
297,12	1320,94
297,33	1253,36
297,55	1277,93
297,76	1196,01
297,98	1265,64
298,19	1265,64
298,41	1261,55
298,62	1331,18
298,83	1331,18
299,05	1318,89
299,26	1288,17
299,48	1308,65
299,69	1218,54
299,90	1243,12
300,12	1275,88
300,33	1339,37
300,55	1247,21
300,76	1267,69
300,98	1245,16
301,19	1257,45
301,40	1175,53
301,62	1239,02
301,83	1347,56
302,05	1320,94
302,26	1230,83
302,47	1304,56
302,69	1302,51
302,90	1386,47
303,12	1257,45
303,33	1308,65
303,54	1265,64
303,76	1331,18
303,97	1327,08
304,19	1239,02
304,40	1206,25
304,61	1290,22
304,83	1310,70
305,04	1247,21
305,26	1200,11
305,47	1265,64
305,68	1302,51
305,90	1310,70
306,11	1230,83
306,33	1257,45
306,54	1257,45
306,75	1339,37
306,97	1241,07
307,18	1335,28
307,39	1288,17
307,61	1290,22
307,82	1275,88
308,04	1257,45
308,25	1232,88
308,46	1255,40
308,68	1318,89
308,89	1234,93
309,10	1306,60
309,32	1243,12
309,53	1196,01
309,74	1310,70
309,96	1312,75
310,17	1284,08
310,39	1232,88
310,60	1329,13
310,81	1312,75
311,03	1247,21
311,24	1239,02
311,45	1314,80
311,67	1265,64
311,88	1300,46
312,09	1378,28
312,31	1296,36
312,52	1232,88
312,73	1327,08
312,95	1193,97
313,16	1282,03
313,37	1265,64
313,59	1366,00
313,80	1327,08
314,01	1267,69
314,23	1243,12
314,44	1259,50
314,65	1302,51
314,87	1306,60
315,08	1322,99
315,29	1314,80
315,51	1355,76
315,72	1279,98
315,93	1284,08
316,15	1333,23
316,36	1243,12
316,57	1175,53
316,79	1294,32
317,00	1241,07
317,21	1339,37
317,43	1271,79
317,64	1269,74
317,85	1267,69
318,07	1273,84
318,28	1267,69
318,49	1249,26
318,70	1236,97
318,92	1255,40
319,13	1241,07
319,34	1310,70
319,56	1298,41
319,77	1224,69
319,98	1318,89
320,20	1298,41
320,41	1263,60
320,62	1157,10
320,83	1306,60
321,05	1327,08
321,26	1253,36
321,47	1314,80
321,69	1284,08
321,90	1249,26
322,11	1312,75
322,32	1290,22
322,54	1282,03
322,75	1247,21
322,96	1320,94
323,18	1335,28
323,39	1290,22
323,60	1251,31
323,81	1271,79
324,03	1243,12
324,24	1245,16
324,45	1222,64
324,66	1263,60
324,88	1288,17
325,09	1275,88
325,30	1173,49
325,52	1255,40
325,73	1241,07
325,94	1308,65
326,15	1288,17
326,37	1294,32
326,58	1214,45
326,79	1302,51
327,00	1290,22
327,22	1257,45
327,43	1306,60
327,64	1261,55
327,85	1220,59
328,07	1200,11
328,28	1290,22
328,49	1304,56
328,70	1224,69
328,92	1247,21
329,13	1343,47
329,34	1267,69
329,55	1300,46
329,76	1263,60
329,98	1290,22
330,19	1288,17
330,40	1255,40
330,61	1220,59
330,83	1294,32
331,04	1173,49
331,25	1314,80
331,46	1312,75
331,68	1296,36
331,89	1251,31
332,10	1275,88
332,31	1232,88
332,52	1255,40
332,74	1234,93
332,95	1253,36
333,16	1288,17
333,37	1241,07
333,58	1353,71
333,80	1290,22
334,01	1296,36
334,22	1177,58
334,43	1249,26
334,64	1310,70
334,86	1320,94
335,07	1282,03
335,28	1261,55
335,49	1327,08
335,70	1286,12
335,92	1255,40
336,13	1234,93
336,34	1261,55
336,55	1294,32
336,76	1236,97
336,98	1296,36
337,19	1234,93
337,40	1259,50
337,61	1331,18
337,82	1286,12
338,04	1284,08
338,25	1249,26
338,46	1249,26
338,67	1241,07
338,88	1302,51
339,09	1230,83
339,31	1224,69
339,52	1316,84
339,73	1253,36
339,94	1284,08
340,15	1302,51
340,36	1243,12
340,58	1234,93
340,79	1273,84
341,00	1257,45
341,21	1273,84
341,42	1269,74
341,63	1191,92
341,85	1249,26
342,06	1282,03
342,27	1224,69
342,48	1320,94
342,69	1259,50
342,90	1220,59
343,12	1263,60
343,33	1204,21
343,54	1273,84
343,75	1236,97
343,96	1251,31
344,17	1273,84
344,38	1300,46
344,60	1296,36
344,81	1261,55
345,02	1247,21
345,23	1271,79
345,44	1212,40
345,65	1308,65
345,86	1189,87
346,07	1261,55
346,29	1271,79
346,50	1304,56
346,71	1306,60
346,92	1290,22
347,13	1300,46
347,34	1296,36
347,55	1247,21
347,76	1247,21
347,98	1245,16
348,19	1222,64
348,40	1353,71
348,61	1267,69
348,82	1279,98
349,03	1296,36
349,24	1327,08
349,45	1224,69
349,66	1292,27
349,88	1269,74
350,09	1185,77
350,30	1234,93
350,51	1284,08
350,72	1239,02
350,93	1298,41
351,14	1271,79
351,35	1206,25
351,56	1308,65
351,77	1230,83
351,99	1232,88
352,20	1245,16
352,41	1345,52
352,62	1294,32
352,83	1265,64
353,04	1232,88
353,25	1255,40
353,46	1249,26
353,67	1296,36
353,88	1284,08
354,09	1155,05
354,30	1353,71
354,52	1206,25
354,73	1288,17
354,94	1302,51
355,15	1282,03
355,36	1263,60
355,57	1306,60
355,78	1306,60
355,99	1234,93
356,20	1220,59
356,41	1277,93
356,62	1261,55
356,83	1314,80
357,04	1224,69
357,25	1284,08
357,46	1265,64
357,68	1239,02
357,89	1349,61
358,10	1196,01
358,31	1265,64
358,52	1376,24
358,73	1284,08
358,94	1304,56
359,15	1333,23
359,36	1288,17
359,57	1265,64
359,78	1347,56
359,99	1230,83
360,20	1284,08
360,41	1288,17
360,62	1302,51
360,83	1306,60
361,04	1292,27
361,25	1259,50
361,46	1318,89
361,67	1331,18
361,88	1329,13
362,09	1271,79
362,30	1247,21
362,51	1230,83
362,72	1249,26
362,93	1214,45
363,14	1312,75
363,35	1267,69
363,56	1288,17
363,78	1277,93
363,99	1314,80
364,20	1284,08
364,41	1290,22
364,62	1241,07
364,83	1247,21
365,04	1243,12
365,25	1288,17
365,46	1296,36
365,67	1339,37
365,88	1255,40
366,09	1337,32
366,30	1294,32
366,51	1216,49
366,72	1269,74
366,93	1284,08
367,14	1251,31
367,35	1288,17
367,56	1290,22
367,77	1300,46
367,98	1286,12
368,18	1349,61
368,39	1277,93
368,60	1261,55
368,81	1294,32
369,02	1355,76
369,23	1286,12
369,44	1208,30
369,65	1230,83
369,86	1263,60
370,07	1228,78
370,28	1310,70
370,49	1279,98
370,70	1279,98
370,91	1290,22
371,12	1222,64
371,33	1312,75
371,54	1288,17
371,75	1255,40
371,96	1236,97
372,17	1310,70
372,38	1259,50
372,59	1247,21
372,80	1284,08
373,01	1320,94
373,22	1216,49
373,43	1318,89
373,64	1224,69
373,85	1241,07
374,06	1255,40
374,26	1251,31
374,47	1220,59
374,68	1226,73
374,89	1277,93
375,10	1275,88
375,31	1271,79
375,52	1210,35
375,73	1218,54
375,94	1259,50
376,15	1247,21
376,36	1267,69
376,57	1279,98
376,78	1232,88
376,99	1306,60
377,20	1249,26
377,40	1241,07
377,61	1286,12
377,82	1226,73
378,03	1298,41
378,24	1333,23
378,45	1265,64
378,66	1316,84
378,87	1273,84
379,08	1298,41
379,29	1271,79
379,50	1255,40
379,71	1222,64
379,91	1296,36
380,12	1322,99
380,33	1320,94
380,54	1322,99
380,75	1271,79
380,96	1327,08
381,17	1267,69
381,38	1310,70
381,59	1263,60
381,80	1282,03
382,00	1298,41
382,21	1335,28
382,42	1288,17
382,63	1204,21
382,84	1234,93
383,05	1361,90
383,26	1310,70
383,47	1249,26
383,68	1282,03
383,88	1282,03
384,09	1243,12
384,30	1296,36
384,51	1310,70
384,72	1316,84
384,93	1298,41
385,14	1236,97
385,35	1292,27
385,55	1292,27
385,76	1263,60
385,97	1275,88
386,18	1351,66
386,39	1239,02
386,60	1220,59
386,81	1275,88
387,02	1279,98
387,22	1277,93
387,43	1212,40
387,64	1232,88
387,85	1343,47
388,06	1284,08
388,27	1177,58
388,48	1296,36
388,68	1314,80
388,89	1255,40
389,10	1282,03
389,31	1343,47
389,52	1216,49
389,73	1261,55
389,93	1282,03
390,14	1153,01
390,35	1185,77
390,56	1279,98
390,77	1277,93
390,98	1290,22
391,18	1320,94
391,39	1282,03
391,60	1267,69
391,81	1325,04
392,02	1249,26
392,23	1298,41
392,43	1320,94
392,64	1247,21
392,85	1226,73
393,06	1247,21
393,27	1251,31
393,47	1230,83
393,68	1355,76
393,89	1279,98
394,10	1310,70
394,31	1282,03
394,52	1341,42
394,72	1267,69
394,93	1310,70
395,14	1314,80
395,35	1308,65
395,56	1239,02
395,76	1282,03
395,97	1273,84
396,18	1298,41
396,39	1239,02
396,60	1251,31
396,80	1290,22
397,01	1294,32
397,22	1265,64
397,43	1312,75
397,64	1282,03
397,84	1310,70
398,05	1249,26
398,26	1251,31
398,47	1265,64
398,67	1292,27
398,88	1312,75
399,09	1245,16
399,30	1316,84
399,51	1318,89
399,71	1253,36
399,92	1300,46
400,13	1263,60
400,34	1327,08
400,54	1241,07
400,75	1298,41
400,96	1288,17
401,17	1216,49
401,37	1300,46
401,58	1314,80
401,79	1288,17
402,00	1298,41
402,21	1253,36
402,41	1255,40
402,62	1257,45
402,83	1286,12
403,04	1232,88
403,24	1292,27
403,45	1265,64
403,66	1269,74
403,87	1269,74
404,07	1249,26
404,28	1279,98
404,49	1271,79
404,70	1255,40
404,90	1263,60
405,11	1282,03
405,32	1173,49
405,52	1302,51
405,73	1269,74
405,94	1296,36
406,15	1247,21
406,35	1286,12
406,56	1269,74
406,77	1245,16
406,98	1277,93
407,18	1259,50
407,39	1261,55
407,60	1318,89
407,80	1212,40
408,01	1253,36
408,22	1327,08
408,43	1239,02
408,63	1279,98
408,84	1275,88
409,05	1320,94
409,25	1290,22
409,46	1337,32
409,67	1286,12
409,88	1249,26
410,08	1218,54
410,29	1269,74
410,50	1275,88
410,70	1279,98
410,91	1279,98
411,12	1239,02
411,32	1288,17
411,53	1277,93
411,74	1277,93
411,95	1306,60
412,15	1249,26
412,36	1298,41
412,57	1286,12
412,77	1302,51
412,98	1261,55
413,19	1218,54
413,39	1279,98
413,60	1306,60
413,81	1267,69
414,01	1325,04
414,22	1247,21
414,43	1265,64
414,63	1247,21
414,84	1234,93
415,05	1241,07
415,25	1304,56
415,46	1327,08
415,67	1269,74
415,87	1304,56
416,08	1306,60
416,29	1273,84
416,49	1296,36
416,70	1257,45
416,91	1228,78
417,11	1236,97
417,32	1236,97
417,53	1335,28
417,73	1259,50
417,94	1241,07
418,15	1273,84
418,35	1271,79
418,56	1314,80
418,77	1230,83
418,97	1345,52
419,18	1275,88
419,38	1294,32
419,59	1269,74
419,80	1279,98
420,00	1284,08
420,21	1273,84
420,42	1249,26
420,62	1241,07
420,83	1302,51
421,04	1263,60
421,24	1345,52
421,45	1327,08
421,65	1261,55
421,86	1251,31
422,07	1263,60
422,27	1273,84
422,48	1216,49
422,69	1214,45
422,89	1265,64
423,10	1239,02
423,30	1241,07
423,51	1314,80
423,72	1282,03
423,92	1322,99
424,13	1232,88
424,33	1273,84
424,54	1316,84
424,75	1396,71
424,95	1259,50
425,16	1206,25
425,36	1282,03
425,57	1208,30
425,78	1275,88
425,98	1234,93
426,19	1253,36
426,39	1318,89
426,60	1290,22
426,81	1300,46
427,01	1304,56
427,22	1306,60
427,42	1208,30
427,63	1282,03
427,83	1208,30
428,04	1253,36
428,25	1261,55
428,45	1304,56
428,66	1339,37
428,86	1290,22
429,07	1243,12
429,28	1189,87
429,48	1277,93
429,69	1306,60
429,89	1282,03
430,10	1263,60
430,30	1269,74
430,51	1265,64
430,71	1259,50
430,92	1335,28
431,13	1357,80
431,33	1267,69
431,54	1294,32
431,74	1284,08
431,95	1255,40
432,15	1290,22
432,36	1220,59
432,56	1292,27
432,77	1347,56
432,98	1312,75
433,18	1206,25
433,39	1298,41
433,59	1269,74
433,80	1306,60
434,00	1302,51
434,21	1234,93
434,41	1257,45
434,62	1277,93
434,82	1265,64
435,03	1259,50
435,23	1273,84
435,44	1216,49
435,64	1251,31
435,85	1226,73
436,06	1298,41
436,26	1318,89
436,47	1222,64
436,67	1224,69
436,88	1191,92
437,08	1245,16
437,29	1304,56
437,49	1314,80
437,70	1279,98
437,90	1261,55
438,11	1277,93
438,31	1257,45
438,52	1316,84
438,72	1322,99
438,93	1277,93
439,13	1282,03
439,34	1265,64
439,54	1249,26
439,75	1314,80
439,95	1232,88
440,16	1282,03
440,36	1239,02
440,57	1292,27
440,77	1300,46
440,98	1300,46
441,18	1282,03
441,39	1214,45
441,59	1265,64
441,80	1210,35
442,00	1296,36
442,21	1282,03
442,41	1271,79
442,62	1322,99
442,82	1282,03
443,02	1243,12
443,23	1263,60
443,43	1273,84
443,64	1337,32
443,84	1273,84
444,05	1353,71
444,25	1243,12
444,46	1253,36
444,66	1261,55
444,87	1255,40
445,07	1206,25
445,28	1247,21
445,48	1277,93
445,69	1212,40
445,89	1335,28
446,09	1286,12
446,30	1257,45
446,50	1247,21
446,71	1226,73
446,91	1253,36
447,12	1189,87
447,32	1216,49
447,53	1236,97
447,73	1271,79
447,93	1257,45
448,14	1331,18
448,34	1269,74
448,55	1294,32
448,75	1284,08
448,96	1316,84
449,16	1265,64
449,36	1277,93
449,57	1214,45
449,77	1241,07
449,98	1241,07
450,18	1279,98
450,39	1347,56
450,59	1290,22
450,79	1218,54
451,00	1316,84
451,20	1251,31
451,41	1259,50
451,61	1292,27
451,81	1300,46
452,02	1267,69
452,22	1355,76
452,43	1236,97
452,63	1306,60
452,84	1243,12
453,04	1261,55
453,24	1351,66
453,45	1239,02
453,65	1314,80
453,86	1222,64
454,06	1277,93
454,26	1239,02
454,47	1273,84
454,67	1265,64
454,87	1216,49
455,08	1300,46
455,28	1259,50
455,49	1308,65
455,69	1239,02
455,89	1296,36
456,10	1243,12
456,30	1224,69
456,51	1275,88
456,71	1282,03
456,91	1218,54
457,12	1230,83
457,32	1261,55
457,52	1263,60
457,73	1236,97
457,93	1306,60
458,14	1230,83
458,34	1236,97
458,54	1239,02
458,75	1282,03
458,95	1259,50
459,15	1257,45
459,36	1333,23
459,56	1284,08
459,76	1255,40
459,97	1318,89
460,17	1355,76
460,37	1230,83
460,58	1271,79
460,78	1257,45
460,99	1259,50
461,19	1267,69
461,39	1214,45
461,60	1300,46
461,80	1269,74
462,00	1325,04
462,21	1239,02
462,41	1239,02
462,61	1243,12
462,82	1226,73
463,02	1290,22
463,22	1292,27
463,43	1212,40
463,63	1363,95
463,83	1261,55
464,04	1206,25
464,24	1286,12
464,44	1347,56
464,64	1288,17
464,85	1265,64
465,05	1302,51
465,25	1282,03
465,46	1247,21
465,66	1273,84
465,86	1304,56
466,07	1312,75
466,27	1251,31
466,47	1308,65
466,68	1234,93
466,88	1208,30
467,08	1300,46
467,29	1265,64
467,49	1265,64
467,69	1200,11
467,89	1300,46
468,10	1214,45
468,30	1255,40
468,50	1271,79
468,71	1236,97
468,91	1308,65
469,11	1257,45
469,31	1308,65
469,52	1245,16
469,72	1271,79
469,92	1304,56
470,13	1271,79
470,33	1284,08
470,53	1292,27
470,73	1286,12
470,94	1277,93
471,14	1230,83
471,34	1261,55
471,54	1290,22
471,75	1275,88
471,95	1345,52
472,15	1259,50
472,36	1296,36
472,56	1308,65
472,76	1253,36
472,96	1331,18
473,17	1230,83
473,37	1273,84
473,57	1265,64
473,77	1226,73
473,98	1265,64
474,18	1232,88
474,38	1279,98
474,58	1310,70
474,79	1304,56
474,99	1304,56
475,19	1214,45
475,39	1232,88
475,60	1292,27
475,80	1298,41
476,00	1294,32
476,20	1236,97
476,41	1232,88
476,61	1302,51
476,81	1302,51
477,01	1282,03
477,21	1267,69
477,42	1271,79
477,62	1171,44
477,82	1333,23
478,02	1277,93
478,23	1310,70
478,43	1218,54
478,63	1398,76
478,83	1251,31
479,03	1202,16
479,24	1261,55
479,44	1294,32
479,64	1275,88
479,84	1310,70
480,04	1269,74
480,25	1259,50
480,45	1173,49
480,65	1255,40
480,85	1347,56
481,06	1314,80
481,26	1296,36
481,46	1249,26
481,66	1261,55
481,86	1314,80
482,06	1277,93
482,27	1308,65
482,47	1210,35
482,67	1322,99
482,87	1282,03
483,07	1241,07
483,28	1183,73
483,48	1271,79
483,68	1273,84
483,88	1230,83
484,08	1230,83
484,29	1241,07
484,49	1310,70
484,69	1304,56
484,89	1224,69
485,09	1159,15
485,29	1288,17
485,50	1277,93
485,70	1292,27
485,90	1200,11
486,10	1359,85
486,30	1282,03
486,50	1302,51
486,71	1292,27
486,91	1302,51
487,11	1318,89
487,31	1243,12
487,51	1247,21
487,71	1253,36
487,91	1191,92
488,12	1284,08
488,32	1271,79
488,52	1230,83
488,72	1359,85
488,92	1247,21
489,12	1241,07
489,32	1361,90
489,53	1282,03
489,73	1290,22
489,93	1337,32
490,13	1234,93
490,33	1335,28
490,53	1376,24
490,73	1331,18
490,94	1298,41
491,14	1269,74
491,34	1327,08
491,54	1243,12
491,74	1302,51
491,94	1255,40
492,14	1232,88
492,34	1259,50
492,54	1220,59
492,75	1316,84
492,95	1282,03
493,15	1302,51
493,35	1183,73
493,55	1249,26
493,75	1294,32
493,95	1300,46
494,15	1312,75
494,35	1310,70
494,56	1275,88
494,76	1273,84
494,96	1212,40
495,16	1282,03
495,36	1302,51
495,56	1232,88
495,76	1263,60
495,96	1265,64
496,16	1306,60
496,36	1282,03
496,56	1314,80
496,77	1193,97
496,97	1284,08
497,17	1232,88
497,37	1247,21
497,57	1312,75
497,77	1224,69
497,97	1316,84
498,17	1253,36
498,37	1316,84
498,57	1265,64
498,77	1265,64
498,97	1169,39
499,17	1284,08
499,38	1294,32
499,58	1212,40
499,78	1239,02
499,98	1251,31
500,18	1294,32
500,38	1243,12
500,58	1279,98
500,78	1282,03
500,98	1251,31
501,18	1294,32
501,38	1298,41
501,58	1222,64
501,78	1265,64
501,98	1296,36
502,18	1263,60
502,38	1224,69
502,58	1273,84
502,78	1247,21
502,98	1216,49
503,18	1249,26
503,38	1224,69
503,59	1325,04
503,79	1232,88
503,99	1322,99
504,19	1263,60
504,39	1230,83
504,59	1282,03
504,79	1304,56
504,99	1241,07
505,19	1228,78
505,39	1294,32
505,59	1263,60
505,79	1275,88
505,99	1232,88
506,19	1200,11
506,39	1331,18
506,59	1310,70
506,79	1316,84
506,99	1322,99
507,19	1296,36
507,39	1302,51
507,59	1290,22
507,79	1288,17
507,99	1253,36
508,19	1363,95
508,39	1228,78
508,59	1226,73
508,79	1263,60
508,99	1228,78
509,19	1279,98
509,39	1279,98
509,59	1310,70
509,79	1279,98
509,99	1267,69
510,19	1288,17
510,39	1282,03
510,59	1230,83
510,79	1296,36
510,99	1277,93
511,19	1257,45
511,39	1251,31
511,59	1224,69
511,79	1259,50
511,99	1271,79
512,19	1302,51
512,38	1368,04
512,58	1249,26
512,78	1296,36
512,98	1245,16
513,18	1249,26
513,38	1282,03
513,58	1292,27
513,78	1322,99
513,98	1259,50
514,18	1228,78
514,38	1255,40
514,58	1245,16
514,78	1269,74
514,98	1273,84
515,18	1214,45
515,38	1232,88
515,58	1259,50
515,78	1366,00
515,98	1236,97
516,18	1349,61
516,38	1241,07
516,57	1345,52
516,77	1224,69
516,97	1296,36
517,17	1236,97
517,37	1277,93
517,57	1286,12
517,77	1224,69
517,97	1310,70
518,17	1296,36
518,37	1232,88
518,57	1273,84
518,77	1282,03
518,97	1286,12
519,16	1263,60
519,36	1343,47
519,56	1216,49
519,76	1308,65
519,96	1220,59
520,16	1290,22
520,36	1234,93
520,56	1200,11
520,76	1265,64
520,96	1222,64
521,16	1255,40
521,35	1314,80
521,55	1314,80
521,75	1263,60
521,95	1298,41
522,15	1322,99
522,35	1282,03
522,55	1257,45
522,75	1343,47
522,95	1253,36
523,14	1232,88
523,34	1198,06
523,54	1277,93
523,74	1282,03
523,94	1210,35
524,14	1255,40
524,34	1290,22
524,54	1234,93
524,73	1286,12
524,93	1298,41
525,13	1214,45
525,33	1294,32
525,53	1245,16
525,73	1265,64
525,93	1265,64
526,13	1218,54
526,32	1206,25
526,52	1191,92
526,72	1312,75
526,92	1300,46
527,12	1282,03
527,32	1290,22
527,52	1343,47
527,71	1271,79
527,91	1302,51
528,11	1267,69
528,31	1216,49
528,51	1300,46
528,71	1245,16
528,90	1329,13
529,10	1243,12
529,30	1284,08
529,50	1310,70
529,70	1320,94
529,90	1288,17
530,09	1245,16
530,29	1294,32
530,49	1241,07
530,69	1269,74
530,89	1273,84
531,09	1241,07
531,28	1257,45
531,48	1277,93
531,68	1282,03
531,88	1220,59
532,08	1247,21
532,28	1255,40
532,47	1218,54
532,67	1263,60
532,87	1210,35
533,07	1269,74
533,27	1284,08
533,46	1298,41
533,66	1351,66
533,86	1247,21
534,06	1298,41
534,26	1243,12
534,45	1249,26
534,65	1298,41
534,85	1296,36
535,05	1306,60
535,25	1277,93
535,44	1300,46
535,64	1247,21
535,84	1286,12
536,04	1329,13
536,24	1294,32
536,43	1263,60
536,63	1308,65
536,83	1247,21
537,03	1232,88
537,22	1196,01
537,42	1239,02
537,62	1253,36
537,82	1183,73
538,02	1318,89
538,21	1265,64
538,41	1279,98
538,61	1189,87
538,81	1322,99
539,00	1327,08
539,20	1247,21
539,40	1279,98
539,60	1282,03
539,79	1265,64
539,99	1286,12
540,19	1255,40
540,39	1220,59
540,58	1318,89
540,78	1298,41
540,98	1282,03
541,18	1247,21
541,37	1279,98
541,57	1228,78
541,77	1298,41
541,97	1241,07
542,16	1232,88
542,36	1263,60
542,56	1208,30
542,76	1261,55
542,95	1316,84
543,15	1314,80
543,35	1228,78
543,54	1236,97
543,74	1279,98
543,94	1263,60
544,14	1320,94
544,33	1320,94
544,53	1302,51
544,73	1275,88
544,93	1269,74
545,12	1222,64
545,32	1318,89
545,52	1228,78
545,71	1232,88
545,91	1224,69
546,11	1273,84
546,30	1314,80
546,50	1181,68
546,70	1228,78
546,90	1318,89
547,09	1277,93
547,29	1298,41
547,49	1228,78
547,68	1257,45
547,88	1286,12
548,08	1257,45
548,27	1298,41
548,47	1277,93
548,67	1224,69
548,87	1277,93
549,06	1245,16
549,26	1265,64
549,46	1257,45
549,65	1353,71
549,85	1193,97
550,05	1337,32
550,24	1165,29
550,44	1212,40
550,64	1284,08
550,83	1206,25
551,03	1296,36
551,23	1275,88
551,42	1265,64
551,62	1202,16
551,82	1259,50
552,01	1249,26
552,21	1269,74
552,41	1249,26
552,60	1273,84
552,80	1275,88
553,00	1202,16
553,19	1265,64
553,39	1251,31
553,59	1271,79
553,78	1282,03
553,98	1329,13
554,17	1245,16
554,37	1245,16
554,57	1208,30
554,76	1310,70
554,96	1247,21
555,16	1239,02
555,35	1243,12
555,55	1249,26
555,75	1236,97
555,94	1314,80
556,14	1279,98
556,33	1239,02
556,53	1279,98
556,73	1234,93
556,92	1269,74
557,12	1251,31
557,32	1228,78
557,51	1322,99
557,71	1263,60
557,90	1298,41
558,10	1212,40
558,30	1224,69
558,49	1239,02
558,69	1200,11
558,88	1261,55
559,08	1294,32
559,28	1290,22
559,47	1361,90
559,67	1284,08
559,86	1300,46
560,06	1294,32
560,26	1306,60
560,45	1230,83
560,65	1282,03
560,84	1212,40
561,04	1232,88
561,24	1232,88
561,43	1265,64
561,63	1288,17
561,82	1214,45
562,02	1265,64
562,22	1284,08
562,41	1284,08
562,61	1314,80
562,80	1251,31
563,00	1335,28
563,19	1339,37
563,39	1261,55
563,59	1355,76
563,78	1263,60
563,98	1273,84
564,17	1249,26
564,37	1191,92
564,56	1249,26
564,76	1277,93
564,96	1259,50
565,15	1325,04
565,35	1253,36
565,54	1269,74
565,74	1277,93
565,93	1267,69
566,13	1255,40
566,32	1298,41
566,52	1320,94
566,71	1198,06
566,91	1265,64
567,11	1241,07
567,30	1275,88
567,50	1298,41
567,69	1271,79
567,89	1226,73
568,08	1228,78
568,28	1292,27
568,47	1247,21
568,67	1296,36
568,86	1296,36
569,06	1320,94
569,25	1320,94
569,45	1292,27
569,64	1273,84
569,84	1310,70
570,04	1288,17
570,23	1265,64
570,43	1286,12
570,62	1308,65
570,82	1296,36
571,01	1271,79
571,21	1288,17
571,40	1267,69
571,60	1243,12
571,79	1275,88
571,99	1290,22
572,18	1298,41
572,38	1327,08
572,57	1226,73
572,77	1345,52
572,96	1228,78
573,16	1241,07
573,35	1273,84
573,55	1232,88
573,74	1296,36
573,94	1224,69
574,13	1232,88
574,33	1247,21
574,52	1271,79
574,71	1357,80
574,91	1230,83
575,10	1312,75
575,30	1253,36
575,49	1210,35
575,69	1249,26
575,88	1198,06
576,08	1347,56
576,27	1269,74
576,47	1288,17
576,66	1222,64
576,86	1230,83
577,05	1312,75
577,25	1251,31
577,44	1247,21
577,64	1275,88
577,83	1308,65
578,02	1286,12
578,22	1253,36
578,41	1249,26
578,61	1257,45
578,80	1255,40
579,00	1169,39
579,19	1277,93
579,39	1228,78
579,58	1245,16
579,77	1226,73
579,97	1253,36
580,16	1245,16
580,36	1310,70
580,55	1261,55
580,75	1327,08
580,94	1257,45
581,13	1286,12
581,33	1226,73
581,52	1263,60
581,72	1286,12
581,91	1294,32
582,11	1251,31
582,30	1220,59
582,49	1271,79
582,69	1216,49
582,88	1230,83
583,08	1243,12
583,27	1267,69
583,47	1206,25
583,66	1316,84
583,85	1282,03
584,05	1296,36
584,24	1243,12
584,44	1292,27
584,63	1257,45
584,82	1236,97
585,02	1333,23
585,21	1220,59
585,41	1290,22
585,60	1290,22
585,79	1284,08
585,99	1243,12
586,18	1230,83
586,37	1255,40
586,57	1300,46
586,76	1247,21
586,96	1290,22
587,15	1230,83
587,34	1261,55
587,54	1292,27
587,73	1241,07
587,93	1279,98
588,12	1257,45
588,31	1241,07
588,51	1263,60
588,70	1282,03
588,89	1282,03
589,09	1267,69
589,28	1234,93
589,47	1257,45
589,67	1247,21
589,86	1208,30
590,06	1253,36
590,25	1269,74
590,44	1273,84
590,64	1314,80
590,83	1253,36
591,02	1251,31
591,22	1312,75
591,41	1279,98
591,60	1302,51
591,80	1273,84
591,99	1263,60
592,18	1288,17
592,38	1263,60
592,57	1282,03
592,76	1339,37
592,96	1279,98
593,15	1253,36
593,34	1325,04
593,54	1257,45
593,73	1282,03
593,92	1269,74
594,12	1273,84
594,31	1263,60
594,50	1304,56
594,70	1314,80
594,89	1236,97
595,08	1179,63
595,28	1345,52
595,47	1333,23
595,66	1228,78
595,86	1282,03
596,05	1255,40
596,24	1251,31
596,43	1265,64
596,63	1253,36
596,82	1312,75
597,01	1259,50
597,21	1257,45
597,40	1255,40
597,59	1196,01
597,79	1183,73
597,98	1292,27
598,17	1279,98
598,36	1241,07
598,56	1302,51
598,75	1200,11
598,94	1230,83
599,14	1296,36
599,33	1306,60
599,52	1312,75
599,71	1296,36
599,91	1310,70
600,10	1345,52
600,29	1216,49
600,48	1241,07
600,68	1329,13
600,87	1269,74
601,06	1247,21
601,26	1298,41
601,45	1279,98
601,64	1279,98
601,83	1249,26
602,03	1271,79
602,22	1257,45
602,41	1198,06
602,60	1263,60
602,80	1331,18
602,99	1277,93
603,18	1273,84
603,37	1222,64
603,57	1265,64
603,76	1255,40
603,95	1198,06
604,14	1353,71
604,34	1175,53
604,53	1204,21
604,72	1296,36
604,91	1226,73
605,10	1302,51
605,30	1322,99
605,49	1245,16
605,68	1271,79
605,87	1314,80
606,07	1282,03
606,26	1230,83
606,45	1232,88
606,64	1327,08
606,84	1284,08
607,03	1314,80
607,22	1257,45
607,41	1239,02
607,60	1267,69
607,80	1259,50
607,99	1185,77
608,18	1284,08
608,37	1277,93
608,56	1304,56
608,76	1265,64
608,95	1290,22
609,14	1245,16
609,33	1337,32
609,52	1279,98
609,72	1218,54
609,91	1290,22
610,10	1284,08
610,29	1325,04
610,48	1253,36
610,68	1241,07
610,87	1257,45
611,06	1257,45
611,25	1226,73
611,44	1304,56
611,63	1249,26
611,83	1288,17
612,02	1294,32
612,21	1267,69
612,40	1282,03
612,59	1279,98
612,79	1282,03
612,98	1318,89
613,17	1290,22
613,36	1288,17
613,55	1265,64
613,74	1253,36
613,93	1222,64
614,13	1167,34
614,32	1269,74
614,51	1279,98
614,70	1265,64
614,89	1263,60
615,08	1263,60
615,28	1331,18
615,47	1265,64
615,66	1277,93
615,85	1339,37
616,04	1249,26
616,23	1255,40
616,42	1202,16
616,62	1275,88
616,81	1253,36
617,00	1263,60
617,19	1349,61
617,38	1243,12
617,57	1179,63
617,76	1269,74
617,95	1308,65
618,15	1136,62
618,34	1257,45
618,53	1320,94
618,72	1288,17
618,91	1243,12
619,10	1298,41
619,29	1255,40
619,48	1337,32
619,68	1288,17
619,87	1337,32
620,06	1241,07
620,25	1282,03
620,44	1257,45
620,63	1306,60
620,82	1261,55
621,01	1236,97
621,20	1257,45
621,39	1298,41
621,59	1239,02
621,78	1300,46
621,97	1243,12
622,16	1243,12
622,35	1339,37
622,54	1247,21
622,73	1261,55
622,92	1339,37
623,11	1255,40
623,30	1279,98
623,49	1214,45
623,68	1337,32
623,88	1208,30
624,07	1265,64
624,26	1236,97
624,45	1251,31
624,64	1345,52
624,83	1298,41
625,02	1269,74
625,21	1409,00
625,40	1249,26
625,59	1273,84
625,78	1310,70
625,97	1288,17
626,16	1304,56
626,35	1368,04
626,54	1310,70
626,74	1339,37
626,93	1302,51
627,12	1304,56
627,31	1234,93
627,50	1347,56
627,69	1279,98
627,88	1351,66
628,07	1261,55
628,26	1267,69
628,45	1275,88
628,64	1329,13
628,83	1310,70
629,02	1275,88
629,21	1341,42
629,40	1298,41
629,59	1327,08
629,78	1273,84
629,97	1322,99
630,16	1331,18
630,35	1255,40
630,54	1282,03
630,73	1261,55
630,92	1325,04
631,11	1402,86
631,30	1316,84
631,49	1368,04
631,68	1497,07
631,87	1902,56
632,06	3028,95
632,25	2494,43
632,44	2781,14
632,63	2955,22
632,82	2985,94
633,01	4794,29
633,20	5971,88
633,39	6553,50
633,58	14395,17
633,77	29673,02
633,96	42827,12
634,15	45452,62
634,34	35116,52
634,53	19433,18
634,72	8714,11
634,91	4140,99
635,10	2926,55
635,29	2725,85
635,48	2373,60
635,67	1984,48
635,86	1683,43
636,05	1480,68
636,24	1361,90
636,43	1394,67
636,62	1339,37
636,81	1355,76
637,00	1316,84
637,19	1290,22
637,38	1329,13
637,57	1298,41
637,76	1363,95
637,95	1341,42
638,14	1347,56
638,33	1292,27
638,52	1337,32
638,71	1232,88
638,89	1335,28
639,08	1419,24
639,27	1343,47
639,46	1249,26
639,65	1226,73
639,84	1314,80
640,03	1337,32
640,22	1202,16
640,41	1341,42
640,60	1288,17
640,79	1392,62
640,98	1251,31
641,17	1294,32
641,36	1267,69
641,55	1282,03
641,74	1249,26
641,92	1331,18
642,11	1228,78
642,30	1292,27
642,49	1198,06
642,68	1298,41
642,87	1286,12
643,06	1265,64
643,25	1279,98
643,44	1269,74
643,63	1206,25
643,82	1198,06
644,00	1310,70
644,19	1216,49
644,38	1206,25
644,57	1232,88
644,76	1275,88
644,95	1329,13
645,14	1308,65
645,33	1298,41
645,52	1310,70
645,71	1228,78
645,89	1249,26
646,08	1300,46
646,27	1253,36
646,46	1279,98
646,65	1322,99
646,84	1249,26
647,03	1277,93
647,22	1339,37
647,40	1298,41
647,59	1312,75
647,78	1251,31
647,97	1314,80
648,16	1269,74
648,35	1277,93
648,54	1259,50
648,73	1296,36
648,91	1312,75
649,10	1310,70
649,29	1249,26
649,48	1263,60
649,67	1183,73
649,86	1290,22
650,05	1253,36
650,23	1243,12
650,42	1282,03
650,61	1279,98
650,80	1239,02
650,99	1198,06
651,18	1236,97
651,36	1198,06
651,55	1298,41
651,74	1214,45
651,93	1265,64
652,12	1200,11
652,31	1216,49
652,49	1355,76
652,68	1269,74
652,87	1273,84
653,06	1239,02
653,25	1265,64
653,44	1204,21
653,62	1286,12
653,81	1322,99
654,00	1288,17
654,19	1247,21
654,38	1271,79
654,56	1236,97
654,75	1292,27
654,94	1312,75
655,13	1265,64
655,32	1320,94
655,51	1218,54
655,69	1298,41
655,88	1220,59
656,07	1234,93
656,26	1306,60
656,45	1253,36
656,63	1249,26
656,82	1271,79
657,01	1314,80
657,20	1275,88
657,38	1204,21
657,57	1374,19
657,76	1236,97
657,95	1251,31
658,14	1277,93
658,32	1279,98
658,51	1286,12
658,70	1339,37
658,89	1224,69
659,08	1202,16
659,26	1189,87
659,45	1306,60
659,64	1304,56
659,83	1302,51
660,01	1341,42
660,20	1279,98
660,39	1261,55
660,58	1351,66
660,76	1329,13
660,95	1222,64
661,14	1275,88
661,33	1273,84
661,51	1263,60
661,70	1257,45
661,89	1273,84
662,08	1234,93
662,26	1331,18
662,45	1249,26
662,64	1339,37
662,83	1236,97
663,01	1251,31
663,20	1310,70
663,39	1279,98
663,58	1257,45
663,76	1322,99
663,95	1284,08
664,14	1259,50
664,32	1220,59
664,51	1290,22
664,70	1239,02
664,89	1368,04
665,07	1290,22
665,26	1288,17
665,45	1220,59
665,64	1224,69
665,82	1259,50
666,01	1241,07
666,20	1288,17
666,38	1282,03
666,57	1261,55
666,76	1261,55
666,95	1228,78
667,13	1263,60
667,32	1277,93
667,51	1298,41
667,69	1284,08
667,88	1277,93
668,07	1325,04
668,25	1269,74
668,44	1298,41
668,63	1259,50
668,81	1255,40
669,00	1200,11
669,19	1318,89
669,38	1228,78
669,56	1288,17
669,75	1232,88
669,94	1284,08
670,12	1298,41
670,31	1241,07
670,50	1249,26
670,68	1249,26
670,87	1253,36
671,06	1277,93
671,24	1331,18
671,43	1329,13
671,62	1275,88
671,80	1296,36
671,99	1224,69
672,18	1255,40
672,36	1282,03
672,55	1322,99
672,74	1300,46
672,92	1216,49
673,11	1208,30
673,29	1224,69
673,48	1198,06
673,67	1269,74
673,85	1349,61
674,04	1273,84
674,23	1337,32
674,41	1282,03
674,60	1322,99
674,79	1212,40
674,97	1271,79
675,16	1245,16
675,34	1312,75
675,53	1253,36
675,72	1318,89
675,90	1265,64
676,09	1247,21
676,28	1220,59
676,46	1263,60
676,65	1247,21
676,83	1247,21
677,02	1275,88
677,21	1212,40
677,39	1224,69
677,58	1249,26
677,77	1273,84
677,95	1249,26
678,14	1304,56
678,32	1185,77
678,51	1218,54
678,70	1269,74
678,88	1249,26
679,07	1267,69
679,25	1298,41
679,44	1263,60
679,63	1284,08
679,81	1300,46
680,00	1325,04
680,18	1277,93
680,37	1200,11
680,55	1310,70
680,74	1304,56
680,93	1310,70
681,11	1320,94
681,30	1236,97
681,48	1212,40
681,67	1271,79
681,85	1304,56
682,04	1318,89
682,23	1236,97
682,41	1282,03
682,60	1263,60
682,78	1222,64
682,97	1339,37
683,15	1259,50
683,34	1357,80
683,53	1208,30
683,71	1314,80
683,90	1277,93
684,08	1226,73
684,27	1271,79
684,45	1296,36
684,64	1271,79
684,82	1265,64
685,01	1282,03
685,19	1249,26
685,38	1222,64
685,57	1218,54
685,75	1224,69
685,94	1298,41
686,12	1273,84
686,31	1249,26
686,49	1349,61
686,68	1257,45
686,86	1259,50
687,05	1251,31
687,23	1255,40
687,42	1200,11
687,60	1255,40
687,79	1208,30
687,97	1222,64
688,16	1331,18
688,34	1325,04
688,53	1306,60
688,71	1275,88
688,90	1296,36
689,08	1296,36
689,27	1245,16
689,45	1218,54
689,64	1263,60
689,82	1312,75
690,01	1275,88
690,19	1239,02
690,38	1202,16
690,56	1265,64
690,75	1216,49
690,93	1200,11
691,12	1286,12
691,30	1286,12
691,49	1277,93
691,67	1288,17
691,86	1322,99
692,04	1322,99
692,23	1314,80
692,41	1292,27
692,60	1345,52
692,78	1257,45
692,97	1267,69
693,15	1249,26
693,34	1355,76
693,52	1288,17
693,71	1261,55
693,89	1288,17
694,08	1226,73
694,26	1277,93
694,44	1236,97
694,63	1329,13
694,81	1265,64
695,00	1316,84
695,18	1243,12
695,37	1322,99
695,55	1236,97
695,74	1331,18
695,92	1234,93
696,10	1355,76
696,29	1265,64
696,47	1267,69
696,66	1234,93
696,84	1263,60
697,03	1277,93
697,21	1282,03
697,40	1243,12
697,58	1318,89
697,76	1279,98
697,95	1333,23
698,13	1251,31
698,32	1294,32
698,50	1259,50
698,68	1366,00
698,87	1298,41
699,05	1267,69
699,24	1302,51
699,42	1294,32
699,61	1296,36
699,79	1263,60
699,97	1245,16
700,16	1318,89
700,34	1253,36
700,53	1339,37
700,71	1286,12
700,89	1265,64
701,08	1239,02
701,26	1329,13
701,45	1294,32
701,63	1284,08
701,81	1204,21
702,00	1306,60
702,18	1277,93
702,37	1261,55
702,55	1298,41
702,73	1320,94
702,92	1300,46
703,10	1247,21
703,28	1314,80
703,47	1232,88
703,65	1218,54
703,84	1306,60
704,02	1253,36
704,20	1214,45
704,39	1257,45
704,57	1290,22
704,75	1279,98
704,94	1279,98
705,12	1273,84
705,30	1263,60
705,49	1265,64
705,67	1220,59
705,86	1314,80
706,04	1331,18
706,22	1282,03
706,41	1269,74
706,59	1257,45
706,77	1302,51
706,96	1269,74
707,14	1247,21
707,32	1259,50
707,51	1265,64
707,69	1267,69
707,87	1325,04
708,06	1322,99
708,24	1232,88
708,42	1298,41
708,61	1275,88
708,79	1288,17
708,97	1263,60
709,16	1255,40
709,34	1322,99
709,52	1300,46
709,71	1308,65
709,89	1335,28
710,07	1275,88
710,26	1306,60
710,44	1282,03
710,62	1277,93
710,80	1255,40
710,99	1275,88
711,17	1263,60
711,35	1200,11
711,54	1275,88
711,72	1253,36
711,90	1222,64
712,09	1310,70
712,27	1298,41
712,45	1284,08
712,63	1249,26
712,82	1327,08
713,00	1251,31
713,18	1259,50
713,37	1243,12
713,55	1279,98
713,73	1251,31
713,91	1277,93
714,10	1208,30
714,28	1241,07
714,46	1271,79
714,65	1294,32
714,83	1347,56
715,01	1206,25
715,19	1265,64
715,38	1257,45
715,56	1275,88
715,74	1273,84
715,92	1216,49
716,11	1257,45
716,29	1202,16
716,47	1251,31
716,65	1212,40
716,84	1269,74
717,02	1239,02
717,20	1234,93
717,38	1230,83
717,57	1353,71
717,75	1298,41
717,93	1232,88
718,11	1282,03
718,30	1249,26
718,48	1298,41
718,66	1243,12
718,84	1255,40
719,03	1310,70
719,21	1216,49
719,39	1247,21
719,57	1251,31
719,75	1284,08
719,94	1273,84
720,12	1335,28
720,30	1204,21
720,48	1316,84
720,67	1288,17
720,85	1247,21
721,03	1253,36
721,21	1253,36
721,39	1327,08
721,58	1239,02
721,76	1226,73
721,94	1300,46
722,12	1298,41
722,30	1226,73
722,49	1271,79
722,67	1265,64
722,85	1249,26
723,03	1212,40
723,21	1327,08
723,40	1279,98
723,58	1198,06
723,76	1269,74
723,94	1261,55
724,12	1255,40
724,30	1290,22
724,49	1304,56
724,67	1261,55
724,85	1284,08
725,03	1239,02
725,21	1329,13
725,40	1265,64
725,58	1314,80
725,76	1300,46
725,94	1265,64
726,12	1269,74
726,30	1257,45
726,49	1300,46
726,67	1288,17
726,85	1245,16
727,03	1210,35
727,21	1257,45
727,39	1273,84
727,57	1222,64
727,76	1275,88
727,94	1304,56
728,12	1298,41
728,30	1257,45
728,48	1243,12
728,66	1259,50
728,84	1234,93
729,03	1269,74
729,21	1255,40
729,39	1212,40
729,57	1298,41
729,75	1259,50
729,93	1241,07
730,11	1255,40
730,30	1302,51
730,48	1255,40
730,66	1284,08
730,84	1228,78
731,02	1304,56
731,20	1275,88
731,38	1236,97
731,56	1239,02
731,74	1277,93
731,93	1249,26
732,11	1314,80
732,29	1267,69
732,47	1261,55
732,65	1204,21
732,83	1236,97
733,01	1265,64
733,19	1228,78
733,37	1249,26
733,56	1279,98
733,74	1241,07
733,92	1312,75
734,10	1304,56
734,28	1327,08
734,46	1261,55
734,64	1286,12
734,82	1232,88
735,00	1327,08
735,18	1304,56
735,36	1232,88
735,54	1228,78
735,73	1253,36
735,91	1239,02
736,09	1329,13
736,27	1322,99
736,45	1298,41
736,63	1300,46
736,81	1236,97
736,99	1310,70
737,17	1179,63
737,35	1353,71
737,53	1271,79
737,71	1318,89
737,89	1265,64
738,07	1257,45
738,25	1255,40
738,43	1294,32
738,61	1269,74
738,80	1269,74
738,98	1290,22
739,16	1333,23
739,34	1284,08
739,52	1255,40
739,70	1232,88
739,88	1236,97
740,06	1232,88
740,24	1296,36
740,42	1267,69
740,60	1169,39
740,78	1333,23
740,96	1245,16
741,14	1239,02
741,32	1294,32
741,50	1255,40
741,68	1339,37
741,86	1296,36
742,04	1294,32
742,22	1239,02
742,40	1200,11
742,58	1251,31
742,76	1212,40
742,94	1191,92
743,12	1267,69
743,30	1310,70
743,48	1263,60
743,66	1245,16
743,84	1345,52
744,02	1304,56
744,20	1263,60
744,38	1277,93
744,56	1284,08
744,74	1220,59
744,92	1224,69
745,10	1265,64
745,28	1310,70
745,46	1167,34
745,64	1284,08
745,82	1304,56
746,00	1236,97
746,18	1335,28
746,36	1314,80
746,54	1255,40
746,72	1298,41
746,90	1241,07
747,08	1288,17
747,26	1300,46
747,44	1316,84
747,62	1263,60
747,80	1286,12
747,98	1296,36
748,15	1286,12
748,33	1306,60
748,51	1239,02
748,69	1228,78
748,87	1288,17
749,05	1247,21
749,23	1279,98
749,41	1329,13
749,59	1284,08
749,77	1333,23
749,95	1306,60
750,13	1232,88
750,31	1296,36
750,49	1279,98
750,67	1261,55
750,85	1271,79
751,03	1249,26
751,20	1241,07
751,38	1279,98
751,56	1275,88
751,74	1269,74
751,92	1218,54
752,10	1241,07
752,28	1366,00
752,46	1282,03
752,64	1345,52
752,82	1271,79
753,00	1218,54
753,18	1378,28
753,35	1298,41
753,53	1284,08
753,71	1243,12
753,89	1239,02
754,07	1304,56
754,25	1284,08
754,43	1257,45
754,61	1288,17
754,79	1216,49
754,97	1327,08
755,14	1288,17
755,32	1290,22
755,50	1288,17
755,68	1409,00
755,86	1259,50
756,04	1275,88
756,22	1257,45
756,40	1261,55
756,57	1224,69
756,75	1366,00
756,93	1277,93
757,11	1251,31
757,29	1239,02
757,47	1279,98
757,65	1189,87
757,82	1169,39
758,00	1341,42
758,18	1308,65
758,36	1284,08
758,54	1310,70
758,72	1298,41
758,90	1294,32
759,07	1314,80
759,25	1247,21
759,43	1220,59
759,61	1279,98
759,79	1322,99
759,97	1345,52
760,15	1257,45
760,32	1265,64
760,50	1284,08
760,68	1261,55
760,86	1241,07
761,04	1232,88
761,22	1247,21
761,39	1286,12
761,57	1290,22
761,75	1263,60
761,93	1292,27
762,11	1267,69
762,28	1247,21
762,46	1245,16
762,64	1277,93
762,82	1220,59
763,00	1318,89
763,18	1284,08
763,35	1253,36
763,53	1261,55
763,71	1296,36
763,89	1259,50
764,07	1234,93
764,24	1216,49
764,42	1288,17
764,60	1181,68
764,78	1279,98
764,96	1263,60
765,13	1286,12
765,31	1251,31
765,49	1251,31
765,67	1228,78
765,84	1232,88
766,02	1236,97
766,20	1212,40
766,38	1257,45
766,56	1298,41
766,73	1363,95
766,91	1247,21
767,09	1224,69
767,27	1261,55
767,44	1312,75
767,62	1288,17
767,80	1249,26
767,98	1290,22
768,15	1296,36
768,33	1290,22
768,51	1259,50
768,69	1265,64
768,87	1300,46
769,04	1214,45
769,22	1363,95
769,40	1243,12
769,58	1290,22
769,75	1214,45
769,93	1263,60
770,11	1302,51
770,28	1261,55
770,46	1312,75
770,64	1241,07
770,82	1279,98
770,99	1300,46
771,17	1263,60
771,35	1222,64
771,53	1263,60
771,70	1286,12
771,88	1269,74
772,06	1216,49
772,23	1290,22
772,41	1277,93
772,59	1282,03
772,77	1306,60
772,94	1175,53
773,12	1241,07
773,30	1290,22
773,47	1304,56
773,65	1267,69
773,83	1310,70
774,01	1384,43
774,18	1232,88
774,36	1269,74
774,54	1325,04
774,71	1265,64
774,89	1253,36
775,07	1206,25
775,24	1286,12
775,42	1228,78
775,60	1247,21
775,78	1296,36
775,95	1339,37
776,13	1232,88
776,31	1282,03
776,48	1247,21
776,66	1331,18
776,84	1247,21
777,01	1282,03
777,19	1310,70
777,37	1212,40
777,54	1214,45
777,72	1216,49
777,90	1220,59
778,07	1271,79
778,25	1271,79
778,43	1343,47
778,60	1267,69
778,78	1327,08
778,96	1282,03
779,13	1284,08
779,31	1263,60
779,49	1224,69
779,66	1298,41
779,84	1298,41
780,01	1169,39
780,19	1277,93
780,37	1243,12
780,54	1290,22
780,72	1218,54
780,90	1269,74
781,07	1318,89
781,25	1251,31
781,43	1312,75
781,60	1273,84
781,78	1185,77
781,95	1243,12
782,13	1241,07
782,31	1312,75
782,48	1310,70
782,66	1171,44
782,83	1292,27
783,01	1292,27
783,19	1218,54
783,36	1259,50
783,54	1286,12
783,72	1263,60
783,89	1327,08
784,07	1300,46
784,24	1277,93
784,42	1296,36
784,60	1277,93
784,77	1329,13
784,95	1275,88
785,12	1265,64
785,30	1306,60
785,47	1263,60
785,65	1222,64
785,83	1247,21
786,00	1277,93
786,18	1329,13
786,35	1314,80
786,53	1245,16
786,71	1279,98
786,88	1304,56
787,06	1320,94
787,23	1241,07
787,41	1236,97
787,58	1306,60
787,76	1232,88
787,94	1241,07
788,11	1269,74
788,29	1310,70
788,46	1220,59
788,64	1288,17
788,81	1239,02
788,99	1208,30
789,16	1265,64
789,34	1314,80
789,52	1322,99
789,69	1327,08
789,87	1255,40
790,04	1202,16
790,22	1318,89
790,39	1288,17
790,57	1269,74
790,74	1216,49
790,92	1226,73
791,09	1241,07
791,27	1259,50
791,44	1294,32
791,62	1247,21
791,79	1300,46
791,97	1275,88
792,15	1202,16
792,32	1249,26
792,50	1284,08
792,67	1198,06
792,85	1298,41
793,02	1222,64
793,20	1284,08
793,37	1296,36
793,55	1282,03
793,72	1230,83
793,90	1320,94
794,07	1386,47
794,25	1275,88
794,42	1243,12
794,60	1247,21
794,77	1294,32
794,95	1282,03
795,12	1177,58
795,30	1249,26
795,47	1357,80
795,65	1241,07
795,82	1298,41
796,00	1257,45
796,17	1189,87
796,34	1265,64
796,52	1273,84
796,69	1304,56
796,87	1290,22
797,04	1255,40
797,22	1265,64
797,39	1236,97
797,57	1236,97
797,74	1333,23
797,92	1282,03
798,09	1255,40
798,27	1359,85
798,44	1269,74
798,62	1339,37
798,79	1316,84
798,96	1282,03
799,14	1304,56
799,31	1187,82
799,49	1353,71
799,66	1380,33
799,84	1325,04
800,01	1230,83
800,19	1271,79
800,36	1255,40
800,53	1298,41
800,71	1316,84
800,88	1292,27
801,06	1327,08
801,23	1337,32
801,41	1261,55
801,58	1214,45
801,75	1300,46
801,93	1263,60
802,10	1232,88
802,28	1306,60
802,45	1282,03
802,63	1273,84
802,80	1290,22
802,97	1214,45
803,15	1226,73
803,32	1257,45
803,50	1286,12
803,67	1363,95
803,84	1232,88
804,02	1277,93
804,19	1275,88
804,37	1220,59
804,54	1265,64
804,71	1302,51
804,89	1247,21
805,06	1245,16
805,24	1218,54
805,41	1271,79
805,58	1277,93
805,76	1232,88
805,93	1329,13
806,10	1230,83
806,28	1290,22
806,45	1247,21
806,63	1304,56
806,80	1222,64
806,97	1335,28
807,15	1279,98
807,32	1282,03
807,49	1302,51
807,67	1339,37
807,84	1257,45
808,01	1288,17
808,19	1226,73
808,36	1263,60
808,54	1198,06
808,71	1261,55
808,88	1384,43
809,06	1253,36
809,23	1292,27
809,40	1298,41
809,58	1337,32
809,75	1298,41
809,92	1292,27
810,10	1302,51
810,27	1261,55
810,44	1304,56
810,62	1290,22
810,79	1290,22
810,96	1282,03
811,14	1263,60
811,31	1249,26
811,48	1271,79
811,66	1265,64
811,83	1263,60
812,00	1333,23
812,18	1286,12
812,35	1279,98
812,52	1234,93
812,69	1249,26
812,87	1277,93
813,04	1204,21
813,21	1302,51
813,39	1263,60
813,56	1290,22
813,73	1349,61
813,91	1316,84
814,08	1257,45
814,25	1257,45
814,42	1191,92
814,60	1187,82
814,77	1224,69
814,94	1230,83
815,12	1228,78
815,29	1253,36
815,46	1234,93
815,63	1302,51
815,81	1286,12
815,98	1329,13
816,15	1249,26
816,33	1241,07
816,50	1277,93
816,67	1290,22
816,84	1318,89
817,02	1220,59
817,19	1294,32
817,36	1232,88
817,53	1286,12
817,71	1212,40
817,88	1298,41
818,05	1294,32
818,22	1310,70
818,40	1236,97
818,57	1239,02
818,74	1304,56
818,91	1279,98
819,09	1255,40
819,26	1273,84
819,43	1284,08
819,60	1253,36
819,78	1320,94
819,95	1265,64
820,12	1230,83
820,29	1298,41
820,47	1265,64
820,64	1286,12
820,81	1335,28
820,98	1351,66
821,15	1255,40
821,33	1271,79
821,50	1239,02
821,67	1279,98
821,84	1290,22
822,02	1318,89
822,19	1269,74
822,36	1271,79
822,53	1275,88
822,70	1290,22
822,88	1284,08
823,05	1333,23
823,22	1259,50
823,39	1214,45
823,56	1251,31
823,74	1275,88
823,91	1232,88
824,08	1312,75
824,25	1249,26
824,42	1249,26
824,60	1331,18
824,77	1286,12
824,94	1177,58
825,11	1286,12
825,28	1298,41
825,45	1236,97
825,63	1306,60
825,80	1224,69
825,97	1261,55
826,14	1306,60
826,31	1333,23
826,48	1294,32
826,66	1257,45
826,83	1290,22
827,00	1251,31
827,17	1284,08
827,34	1314,80
827,51	1224,69
827,69	1304,56
827,86	1204,21
828,03	1279,98
828,20	1234,93
828,37	1337,32
828,54	1294,32
828,71	1216,49
828,89	1320,94
829,06	1288,17
829,23	1247,21
829,40	1241,07
829,57	1208,30
829,74	1265,64
829,91	1255,40
830,09	1267,69
830,26	1271,79
830,43	1253,36
830,60	1265,64
830,77	1245,16
830,94	1241,07
831,11	1290,22
831,28	1257,45
831,46	1226,73
831,63	1261,55
831,80	1222,64
831,97	1279,98
832,14	1257,45
832,31	1249,26
832,48	1286,12
832,65	1193,97
832,82	1257,45
832,99	1198,06
833,17	1286,12
833,34	1247,21
833,51	1347,56
833,68	1253,36
833,85	1331,18
834,02	1253,36
834,19	1239,02
834,36	1263,60
834,53	1282,03
834,70	1249,26
834,87	1249,26
835,04	1255,40
835,22	1298,41
835,39	1249,26
835,56	1230,83
835,73	1249,26
835,90	1245,16
836,07	1214,45
836,24	1269,74
836,41	1271,79
836,58	1265,64
836,75	1329,13
836,92	1273,84
837,09	1343,47
837,26	1298,41
837,43	1224,69
837,60	1265,64
837,77	1284,08
837,94	1302,51
838,12	1265,64
838,29	1259,50
838,46	1232,88
838,63	1275,88
838,80	1263,60
838,97	1341,42
839,14	1282,03
839,31	1187,82
839,48	1304,56
839,65	1306,60
839,82	1304,56
839,99	1304,56
840,16	1277,93
840,33	1265,64
840,50	1351,66
840,67	1239,02
840,84	1224,69
841,01	1271,79
841,18	1265,64
841,35	1253,36
841,52	1310,70
841,69	1210,35
841,86	1290,22
842,03	1241,07
842,20	1279,98
842,37	1232,88
842,54	1259,50
842,71	1204,21
842,88	1273,84
843,05	1292,27
843,22	1236,97
843,39	1263,60
843,56	1214,45
843,73	1325,04
843,90	1253,36
844,07	1282,03
844,24	1267,69
844,41	1347,56
844,58	1322,99
844,75	1282,03
844,92	1296,36
845,09	1179,63
845,26	1167,34
845,43	1286,12
845,60	1183,73
845,77	1271,79
845,94	1261,55
846,10	1253,36
846,27	1279,98
846,44	1263,60
846,61	1236,97
846,78	1243,12
846,95	1275,88
847,12	1304,56
847,29	1247,21
847,46	1251,31
847,63	1245,16
847,80	1296,36
847,97	1355,76
848,14	1224,69
848,31	1150,96
848,48	1191,92
848,65	1273,84
848,82	1286,12
848,98	1273,84
849,15	1327,08
849,32	1261,55
849,49	1253,36
849,66	1273,84
849,83	1236,97
850,00	1304,56
850,17	1331,18
850,34	1284,08
850,51	1216,49
850,68	1310,70
850,85	1341,42
851,01	1294,32
851,18	1234,93
851,35	1318,89
851,52	1265,64
851,69	1310,70
851,86	1271,79
852,03	1257,45
852,20	1298,41
852,37	1271,79
852,53	1296,36
852,70	1310,70
852,87	1247,21
853,04	1325,04
853,21	1320,94
853,38	1236,97
853,55	1241,07
853,72	1282,03
853,89	1214,45
854,05	1271,79
854,22	1279,98
854,39	1263,60
854,56	1222,64
854,73	1302,51
854,90	1310,70
855,07	1247,21
855,23	1245,16
855,40	1282,03
855,57	1284,08
855,74	1206,25
855,91	1267,69
856,08	1304,56
856,25	1273,84
856,41	1236,97
856,58	1253,36
856,75	1292,27
856,92	1224,69
857,09	1275,88
857,26	1230,83
857,42	1296,36
857,59	1275,88
857,76	1298,41
857,93	1282,03
858,10	1300,46
858,27	1292,27
858,43	1316,84
858,60	1239,02
858,77	1214,45
858,94	1279,98
859,11	1318,89
859,27	1206,25
859,44	1249,26
859,61	1337,32
859,78	1269,74
859,95	1228,78
860,12	1187,82
860,28	1304,56
860,45	1232,88
860,62	1232,88
860,79	1251,31
860,95	1277,93
861,12	1263,60
861,29	1314,80
861,46	1193,97
861,63	1304,56
861,79	1247,21
861,96	1304,56
862,13	1282,03
862,30	1189,87
862,47	1288,17
862,63	1296,36
862,80	1288,17
862,97	1275,88
863,14	1310,70
863,30	1316,84
863,47	1251,31
863,64	1241,07
863,81	1241,07
863,97	1275,88
864,14	1282,03
864,31	1214,45
864,48	1243,12
864,65	1304,56
864,81	1236,97
864,98	1228,78
865,15	1296,36
865,32	1277,93
865,48	1251,31
865,65	1290,22
865,82	1298,41
865,98	1333,23
866,15	1251,31
866,32	1239,02
866,49	1165,29
866,65	1236,97
866,82	1210,35
866,99	1220,59
867,16	1232,88
867,32	1296,36
867,49	1263,60
867,66	1222,64
867,83	1259,50
867,99	1271,79
868,16	1224,69
868,33	1189,87
868,49	1249,26
868,66	1279,98
868,83	1376,24
868,99	1300,46
869,16	1226,73
869,33	1263,60
869,50	1243,12
869,66	1157,10
869,83	1185,77
870,00	1300,46
870,16	1275,88
870,33	1298,41
870,50	1306,60
870,66	1282,03
870,83	1353,71
871,00	1245,16
871,17	1327,08
871,33	1243,12
871,50	1267,69
871,67	1265,64
871,83	1269,74
872,00	1224,69
872,17	1263,60
872,33	1253,36
872,50	1308,65
872,67	1284,08
872,83	1277,93
873,00	1267,69
873,17	1271,79
873,33	1251,31
873,50	1279,98
873,67	1275,88
873,83	1279,98
874,00	1212,40
874,16	1273,84
874,33	1292,27
874,50	1263,60
874,66	1253,36
874,83	1304,56
875,00	1269,74
875,16	1275,88
875,33	1251,31
875,50	1286,12
875,66	1275,88
875,83	1282,03
875,99	1282,03
876,16	1312,75
876,33	1241,07
876,49	1257,45
876,66	1288,17
876,83	1273,84
876,99	1294,32
877,16	1284,08
877,32	1298,41
877,49	1329,13
877,66	1271,79
877,82	1298,41
877,99	1241,07
878,15	1243,12
878,32	1288,17
878,49	1318,89
878,65	1226,73
878,82	1259,50
878,98	1288,17
879,15	1232,88
879,32	1298,41
879,48	1214,45
879,65	1286,12
879,81	1245,16
879,98	1208,30
880,15	1249,26
880,31	1279,98
880,48	1222,64
880,64	1302,51
880,81	1316,84
880,97	1298,41
881,14	1331,18
881,31	1320,94
881,47	1296,36
881,64	1288,17
881,80	1325,04
881,97	1185,77
882,13	1286,12
882,30	1236,97
882,47	1286,12
882,63	1269,74
882,80	1296,36
882,96	1255,40
883,13	1306,60
883,29	1304,56
883,46	1271,79
883,62	1267,69
883,79	1300,46
883,95	1257,45
884,12	1224,69
884,29	1210,35
884,45	1288,17
884,62	1284,08
884,78	1234,93
884,95	1302,51
885,11	1204,21
885,28	1263,60
885,44	1288,17
885,61	1247,21
885,77	1257,45
885,94	1312,75
886,10	1251,31
886,27	1327,08
886,43	1318,89
886,60	1294,32
886,76	1255,40
886,93	1208,30
887,09	1341,42
887,26	1249,26
887,42	1353,71
887,59	1239,02
887,75	1290,22
887,92	1148,91
888,08	1327,08
888,25	1212,40
888,41	1335,28
888,58	1279,98
888,74	1271,79
888,91	1275,88
>>>>>End Processed Spectral Data<<<<<
