SpectraSuite Data File
++++++++++++++++++++++++++++++++++++
Date: Sun Apr 03 19:53:04 CEST 2016
User: root
Dark Spectrum Present: No
Reference Spectrum Present: No
Number of Sampled Component Spectra: 1
Spectrometers: USB4C02835
Integration Time (usec): 10000 (USB4C02835)
Spectra Averaged: 1 (USB4C02835)
Boxcar Smoothing: 0 (USB4C02835)
Correct for Electrical Dark: No (USB4C02835)
Strobe/Lamp Enabled: No (USB4C02835)
Correct for Detector Non-linearity: No (USB4C02835)
Correct for Stray Light: No (USB4C02835)
Number of Pixels in Processed Spectrum: 3648
>>>>>Begin Processed Spectral Data<<<<<
177,47	1206,25
177,69	1206,25
177,91	1206,25
178,13	1288,17
178,36	1261,55
178,58	1279,98
178,80	1339,37
179,02	1249,26
179,24	1247,21
179,46	1327,08
179,68	1290,22
179,90	1222,64
180,13	1224,69
180,35	1214,45
180,57	1251,31
180,79	1255,40
181,01	1257,45
181,23	1269,74
181,45	1245,16
181,67	1257,45
181,90	1212,40
182,12	1304,56
182,34	1222,64
182,56	1251,31
182,78	1200,11
183,00	1257,45
183,22	1310,70
183,44	1269,74
183,66	1288,17
183,89	1282,03
184,11	1255,40
184,33	1306,60
184,55	1290,22
184,77	1220,59
184,99	1259,50
185,21	1277,93
185,43	1239,02
185,65	1294,32
185,87	1269,74
186,10	1208,30
186,32	1234,93
186,54	1202,16
186,76	1216,49
186,98	1208,30
187,20	1216,49
187,42	1261,55
187,64	1290,22
187,86	1359,85
188,08	1282,03
188,30	1306,60
188,52	1296,36
188,75	1253,36
188,97	1222,64
189,19	1279,98
189,41	1269,74
189,63	1226,73
189,85	1263,60
190,07	1296,36
190,29	1257,45
190,51	1284,08
190,73	1212,40
190,95	1255,40
191,17	1341,42
191,39	1282,03
191,61	1243,12
191,84	1208,30
192,06	1271,79
192,28	1273,84
192,50	1243,12
192,72	1284,08
192,94	1249,26
193,16	1245,16
193,38	1226,73
193,60	1306,60
193,82	1314,80
194,04	1249,26
194,26	1232,88
194,48	1253,36
194,70	1282,03
194,92	1290,22
195,14	1247,21
195,36	1251,31
195,58	1202,16
195,80	1304,56
196,02	1234,93
196,24	1327,08
196,46	1263,60
196,69	1275,88
196,91	1224,69
197,13	1247,21
197,35	1261,55
197,57	1224,69
197,79	1284,08
198,01	1370,09
198,23	1234,93
198,45	1294,32
198,67	1226,73
198,89	1310,70
199,11	1296,36
199,33	1216,49
199,55	1290,22
199,77	1257,45
199,99	1224,69
200,21	1253,36
200,43	1249,26
200,65	1263,60
200,87	1241,07
201,09	1167,34
201,31	1286,12
201,53	1204,21
201,75	1275,88
201,97	1277,93
202,19	1249,26
202,41	1196,01
202,63	1300,46
202,85	1247,21
203,07	1290,22
203,29	1263,60
203,51	1265,64
203,73	1277,93
203,95	1271,79
204,17	1232,88
204,39	1218,54
204,61	1226,73
204,83	1224,69
205,05	1288,17
205,27	1263,60
205,49	1300,46
205,71	1279,98
205,93	1204,21
206,15	1255,40
206,37	1257,45
206,59	1302,51
206,81	1220,59
207,03	1288,17
207,25	1302,51
207,47	1333,23
207,69	1239,02
207,91	1337,32
208,13	1284,08
208,34	1355,76
208,56	1251,31
208,78	1302,51
209,00	1294,32
209,22	1251,31
209,44	1212,40
209,66	1226,73
209,88	1259,50
210,10	1284,08
210,32	1277,93
210,54	1302,51
210,76	1277,93
210,98	1241,07
211,20	1277,93
211,42	1296,36
211,64	1247,21
211,86	1241,07
212,08	1202,16
212,30	1263,60
212,52	1239,02
212,74	1286,12
212,96	1193,97
213,17	1259,50
213,39	1292,27
213,61	1325,04
213,83	1284,08
214,05	1290,22
214,27	1296,36
214,49	1265,64
214,71	1263,60
214,93	1314,80
215,15	1210,35
215,37	1253,36
215,59	1236,97
215,81	1267,69
216,03	1286,12
216,24	1214,45
216,46	1271,79
216,68	1271,79
216,90	1241,07
217,12	1271,79
217,34	1261,55
217,56	1290,22
217,78	1251,31
218,00	1249,26
218,22	1253,36
218,44	1312,75
218,66	1304,56
218,87	1216,49
219,09	1316,84
219,31	1189,87
219,53	1222,64
219,75	1249,26
219,97	1253,36
220,19	1216,49
220,41	1275,88
220,63	1284,08
220,85	1298,41
221,06	1286,12
221,28	1206,25
221,50	1320,94
221,72	1294,32
221,94	1286,12
222,16	1292,27
222,38	1236,97
222,60	1243,12
222,82	1265,64
223,03	1269,74
223,25	1269,74
223,47	1335,28
223,69	1325,04
223,91	1245,16
224,13	1249,26
224,35	1179,63
224,57	1269,74
224,78	1263,60
225,00	1271,79
225,22	1329,13
225,44	1247,21
225,66	1282,03
225,88	1325,04
226,10	1263,60
226,32	1322,99
226,53	1282,03
226,75	1189,87
226,97	1261,55
227,19	1275,88
227,41	1298,41
227,63	1239,02
227,85	1228,78
228,06	1292,27
228,28	1279,98
228,50	1230,83
228,72	1337,32
228,94	1230,83
229,16	1204,21
229,37	1212,40
229,59	1318,89
229,81	1230,83
230,03	1300,46
230,25	1245,16
230,47	1253,36
230,69	1251,31
230,90	1243,12
231,12	1325,04
231,34	1290,22
231,56	1193,97
231,78	1288,17
232,00	1292,27
232,21	1224,69
232,43	1304,56
232,65	1236,97
232,87	1247,21
233,09	1239,02
233,30	1282,03
233,52	1267,69
233,74	1249,26
233,96	1331,18
234,18	1316,84
234,40	1271,79
234,61	1261,55
234,83	1259,50
235,05	1228,78
235,27	1277,93
235,49	1224,69
235,70	1320,94
235,92	1247,21
236,14	1320,94
236,36	1265,64
236,58	1312,75
236,79	1308,65
237,01	1228,78
237,23	1284,08
237,45	1282,03
237,67	1251,31
237,88	1269,74
238,10	1279,98
238,32	1234,93
238,54	1157,10
238,76	1304,56
238,97	1239,02
239,19	1185,77
239,41	1304,56
239,63	1222,64
239,85	1243,12
240,06	1322,99
240,28	1247,21
240,50	1269,74
240,72	1249,26
240,93	1222,64
241,15	1284,08
241,37	1239,02
241,59	1320,94
241,81	1263,60
242,02	1169,39
242,24	1273,84
242,46	1277,93
242,68	1226,73
242,89	1316,84
243,11	1253,36
243,33	1284,08
243,55	1273,84
243,76	1290,22
243,98	1259,50
244,20	1239,02
244,42	1290,22
244,64	1249,26
244,85	1257,45
245,07	1255,40
245,29	1232,88
245,51	1327,08
245,72	1210,35
245,94	1261,55
246,16	1239,02
246,38	1288,17
246,59	1218,54
246,81	1191,92
247,03	1261,55
247,24	1310,70
247,46	1210,35
247,68	1273,84
247,90	1204,21
248,11	1224,69
248,33	1277,93
248,55	1257,45
248,77	1267,69
248,98	1345,52
249,20	1294,32
249,42	1226,73
249,64	1241,07
249,85	1273,84
250,07	1267,69
250,29	1314,80
250,50	1320,94
250,72	1261,55
250,94	1349,61
251,16	1308,65
251,37	1243,12
251,59	1257,45
251,81	1265,64
252,02	1249,26
252,24	1267,69
252,46	1388,52
252,68	1271,79
252,89	1241,07
253,11	1337,32
253,33	1230,83
253,54	1214,45
253,76	1277,93
253,98	1255,40
254,20	1290,22
254,41	1279,98
254,63	1298,41
254,85	1234,93
255,06	1306,60
255,28	1251,31
255,50	1263,60
255,71	1277,93
255,93	1247,21
256,15	1218,54
256,36	1310,70
256,58	1249,26
256,80	1290,22
257,02	1339,37
257,23	1259,50
257,45	1310,70
257,67	1308,65
257,88	1298,41
258,10	1257,45
258,32	1372,14
258,53	1298,41
258,75	1218,54
258,97	1277,93
259,18	1335,28
259,40	1337,32
259,62	1300,46
259,83	1273,84
260,05	1210,35
260,27	1282,03
260,48	1265,64
260,70	1273,84
260,92	1310,70
261,13	1204,21
261,35	1269,74
261,57	1282,03
261,78	1234,93
262,00	1306,60
262,22	1327,08
262,43	1220,59
262,65	1198,06
262,86	1265,64
263,08	1290,22
263,30	1353,71
263,51	1241,07
263,73	1220,59
263,95	1282,03
264,16	1224,69
264,38	1255,40
264,60	1296,36
264,81	1335,28
265,03	1226,73
265,25	1255,40
265,46	1206,25
265,68	1243,12
265,89	1198,06
266,11	1230,83
266,33	1286,12
266,54	1216,49
266,76	1282,03
266,98	1275,88
267,19	1224,69
267,41	1204,21
267,62	1312,75
267,84	1198,06
268,06	1265,64
268,27	1191,92
268,49	1277,93
268,70	1314,80
268,92	1320,94
269,14	1343,47
269,35	1310,70
269,57	1335,28
269,79	1257,45
270,00	1333,23
270,22	1335,28
270,43	1279,98
270,65	1273,84
270,87	1249,26
271,08	1290,22
271,30	1304,56
271,51	1253,36
271,73	1277,93
271,95	1308,65
272,16	1304,56
272,38	1249,26
272,59	1183,73
272,81	1269,74
273,02	1269,74
273,24	1294,32
273,46	1251,31
273,67	1271,79
273,89	1273,84
274,10	1239,02
274,32	1292,27
274,54	1247,21
274,75	1220,59
274,97	1318,89
275,18	1259,50
275,40	1288,17
275,61	1263,60
275,83	1208,30
276,05	1279,98
276,26	1191,92
276,48	1271,79
276,69	1335,28
276,91	1271,79
277,12	1325,04
277,34	1234,93
277,55	1294,32
277,77	1273,84
277,99	1204,21
278,20	1298,41
278,42	1284,08
278,63	1230,83
278,85	1253,36
279,06	1253,36
279,28	1277,93
279,49	1253,36
279,71	1282,03
279,93	1288,17
280,14	1232,88
280,36	1322,99
280,57	1302,51
280,79	1257,45
281,00	1269,74
281,22	1320,94
281,43	1243,12
281,65	1218,54
281,86	1245,16
282,08	1234,93
282,29	1341,42
282,51	1316,84
282,73	1249,26
282,94	1249,26
283,16	1271,79
283,37	1253,36
283,59	1345,52
283,80	1312,75
284,02	1228,78
284,23	1290,22
284,45	1261,55
284,66	1212,40
284,88	1267,69
285,09	1275,88
285,31	1271,79
285,52	1247,21
285,74	1286,12
285,95	1255,40
286,17	1329,13
286,38	1216,49
286,60	1224,69
286,81	1230,83
287,03	1153,01
287,24	1239,02
287,46	1306,60
287,67	1196,01
287,89	1333,23
288,10	1255,40
288,32	1267,69
288,53	1265,64
288,75	1247,21
288,96	1292,27
289,18	1294,32
289,39	1228,78
289,61	1304,56
289,82	1320,94
290,04	1222,64
290,25	1308,65
290,47	1224,69
290,68	1167,34
290,90	1251,31
291,11	1294,32
291,33	1245,16
291,54	1245,16
291,76	1245,16
291,97	1267,69
292,18	1269,74
292,40	1214,45
292,61	1294,32
292,83	1308,65
293,04	1249,26
293,26	1224,69
293,47	1251,31
293,69	1284,08
293,90	1325,04
294,12	1230,83
294,33	1271,79
294,55	1224,69
294,76	1335,28
294,97	1245,16
295,19	1200,11
295,40	1241,07
295,62	1288,17
295,83	1320,94
296,05	1249,26
296,26	1189,87
296,48	1337,32
296,69	1255,40
296,90	1247,21
297,12	1253,36
297,33	1249,26
297,55	1247,21
297,76	1302,51
297,98	1290,22
298,19	1273,84
298,41	1232,88
298,62	1322,99
298,83	1267,69
299,05	1304,56
299,26	1302,51
299,48	1263,60
299,69	1277,93
299,90	1255,40
300,12	1271,79
300,33	1245,16
300,55	1255,40
300,76	1277,93
300,98	1220,59
301,19	1253,36
301,40	1329,13
301,62	1271,79
301,83	1357,80
302,05	1343,47
302,26	1251,31
302,47	1275,88
302,69	1282,03
302,90	1337,32
303,12	1243,12
303,33	1232,88
303,54	1304,56
303,76	1322,99
303,97	1273,84
304,19	1273,84
304,40	1204,21
304,61	1273,84
304,83	1267,69
305,04	1261,55
305,26	1271,79
305,47	1261,55
305,68	1261,55
305,90	1247,21
306,11	1230,83
306,33	1320,94
306,54	1265,64
306,75	1245,16
306,97	1263,60
307,18	1290,22
307,39	1277,93
307,61	1277,93
307,82	1239,02
308,04	1316,84
308,25	1191,92
308,46	1271,79
308,68	1236,97
308,89	1284,08
309,10	1345,52
309,32	1259,50
309,53	1275,88
309,74	1273,84
309,96	1251,31
310,17	1366,00
310,39	1253,36
310,60	1257,45
310,81	1249,26
311,03	1302,51
311,24	1228,78
311,45	1296,36
311,67	1232,88
311,88	1243,12
312,09	1243,12
312,31	1267,69
312,52	1265,64
312,73	1288,17
312,95	1296,36
313,16	1282,03
313,37	1273,84
313,59	1232,88
313,80	1206,25
314,01	1298,41
314,23	1292,27
314,44	1249,26
314,65	1284,08
314,87	1241,07
315,08	1220,59
315,29	1261,55
315,51	1218,54
315,72	1284,08
315,93	1300,46
316,15	1210,35
316,36	1249,26
316,57	1279,98
316,79	1267,69
317,00	1204,21
317,21	1196,01
317,43	1265,64
317,64	1257,45
317,85	1245,16
318,07	1241,07
318,28	1255,40
318,49	1310,70
318,70	1255,40
318,92	1249,26
319,13	1249,26
319,34	1275,88
319,56	1298,41
319,77	1279,98
319,98	1308,65
320,20	1322,99
320,41	1251,31
320,62	1196,01
320,83	1249,26
321,05	1300,46
321,26	1269,74
321,47	1353,71
321,69	1257,45
321,90	1249,26
322,11	1257,45
322,32	1243,12
322,54	1249,26
322,75	1275,88
322,96	1265,64
323,18	1216,49
323,39	1282,03
323,60	1290,22
323,81	1236,97
324,03	1265,64
324,24	1284,08
324,45	1337,32
324,66	1183,73
324,88	1316,84
325,09	1279,98
325,30	1284,08
325,52	1234,93
325,73	1261,55
325,94	1271,79
326,15	1191,92
326,37	1232,88
326,58	1265,64
326,79	1286,12
327,00	1277,93
327,22	1304,56
327,43	1292,27
327,64	1273,84
327,85	1284,08
328,07	1306,60
328,28	1236,97
328,49	1267,69
328,70	1300,46
328,92	1294,32
329,13	1236,97
329,34	1247,21
329,55	1230,83
329,76	1239,02
329,98	1249,26
330,19	1245,16
330,40	1208,30
330,61	1206,25
330,83	1239,02
331,04	1337,32
331,25	1263,60
331,46	1222,64
331,68	1267,69
331,89	1314,80
332,10	1212,40
332,31	1304,56
332,52	1337,32
332,74	1263,60
332,95	1292,27
333,16	1265,64
333,37	1290,22
333,58	1202,16
333,80	1298,41
334,01	1255,40
334,22	1259,50
334,43	1239,02
334,64	1230,83
334,86	1236,97
335,07	1222,64
335,28	1312,75
335,49	1304,56
335,70	1298,41
335,92	1282,03
336,13	1263,60
336,34	1236,97
336,55	1236,97
336,76	1259,50
336,98	1267,69
337,19	1122,29
337,40	1325,04
337,61	1296,36
337,82	1312,75
338,04	1216,49
338,25	1300,46
338,46	1255,40
338,67	1322,99
338,88	1255,40
339,09	1230,83
339,31	1322,99
339,52	1216,49
339,73	1314,80
339,94	1279,98
340,15	1218,54
340,36	1279,98
340,58	1269,74
340,79	1279,98
341,00	1236,97
341,21	1243,12
341,42	1228,78
341,63	1269,74
341,85	1232,88
342,06	1218,54
342,27	1290,22
342,48	1320,94
342,69	1230,83
342,90	1337,32
343,12	1269,74
343,33	1322,99
343,54	1277,93
343,75	1331,18
343,96	1236,97
344,17	1282,03
344,38	1265,64
344,60	1234,93
344,81	1269,74
345,02	1212,40
345,23	1234,93
345,44	1249,26
345,65	1308,65
345,86	1261,55
346,07	1312,75
346,29	1222,64
346,50	1261,55
346,71	1200,11
346,92	1234,93
347,13	1234,93
347,34	1200,11
347,55	1245,16
347,76	1177,58
347,98	1224,69
348,19	1298,41
348,40	1234,93
348,61	1189,87
348,82	1318,89
349,03	1263,60
349,24	1228,78
349,45	1275,88
349,66	1294,32
349,88	1239,02
350,09	1290,22
350,30	1263,60
350,51	1239,02
350,72	1239,02
350,93	1265,64
351,14	1318,89
351,35	1259,50
351,56	1316,84
351,77	1259,50
351,99	1257,45
352,20	1308,65
352,41	1318,89
352,62	1310,70
352,83	1265,64
353,04	1210,35
353,25	1200,11
353,46	1304,56
353,67	1290,22
353,88	1273,84
354,09	1271,79
354,30	1271,79
354,52	1345,52
354,73	1261,55
354,94	1212,40
355,15	1286,12
355,36	1296,36
355,57	1318,89
355,78	1171,44
355,99	1273,84
356,20	1290,22
356,41	1193,97
356,62	1288,17
356,83	1298,41
357,04	1329,13
357,25	1243,12
357,46	1226,73
357,68	1239,02
357,89	1277,93
358,10	1376,24
358,31	1265,64
358,52	1265,64
358,73	1265,64
358,94	1257,45
359,15	1331,18
359,36	1318,89
359,57	1251,31
359,78	1320,94
359,99	1333,23
360,20	1275,88
360,41	1267,69
360,62	1245,16
360,83	1259,50
361,04	1271,79
361,25	1255,40
361,46	1218,54
361,67	1230,83
361,88	1243,12
362,09	1279,98
362,30	1282,03
362,51	1267,69
362,72	1269,74
362,93	1247,21
363,14	1325,04
363,35	1261,55
363,56	1236,97
363,78	1331,18
363,99	1275,88
364,20	1218,54
364,41	1216,49
364,62	1286,12
364,83	1208,30
365,04	1206,25
365,25	1314,80
365,46	1255,40
365,67	1282,03
365,88	1263,60
366,09	1341,42
366,30	1255,40
366,51	1304,56
366,72	1300,46
366,93	1277,93
367,14	1329,13
367,35	1247,21
367,56	1275,88
367,77	1290,22
367,98	1263,60
368,18	1288,17
368,39	1216,49
368,60	1226,73
368,81	1275,88
369,02	1222,64
369,23	1310,70
369,44	1288,17
369,65	1290,22
369,86	1331,18
370,07	1249,26
370,28	1290,22
370,49	1267,69
370,70	1249,26
370,91	1343,47
371,12	1345,52
371,33	1232,88
371,54	1290,22
371,75	1279,98
371,96	1273,84
372,17	1316,84
372,38	1150,96
372,59	1257,45
372,80	1306,60
373,01	1277,93
373,22	1288,17
373,43	1298,41
373,64	1302,51
373,85	1214,45
374,06	1282,03
374,26	1251,31
374,47	1263,60
374,68	1234,93
374,89	1236,97
375,10	1228,78
375,31	1316,84
375,52	1257,45
375,73	1284,08
375,94	1286,12
376,15	1349,61
376,36	1271,79
376,57	1277,93
376,78	1247,21
376,99	1298,41
377,20	1271,79
377,40	1253,36
377,61	1353,71
377,82	1302,51
378,03	1265,64
378,24	1277,93
378,45	1222,64
378,66	1292,27
378,87	1249,26
379,08	1320,94
379,29	1263,60
379,50	1273,84
379,71	1288,17
379,91	1230,83
380,12	1284,08
380,33	1220,59
380,54	1247,21
380,75	1269,74
380,96	1191,92
381,17	1279,98
381,38	1183,73
381,59	1378,28
381,80	1198,06
382,00	1275,88
382,21	1267,69
382,42	1265,64
382,63	1279,98
382,84	1267,69
383,05	1331,18
383,26	1243,12
383,47	1243,12
383,68	1208,30
383,88	1253,36
384,09	1306,60
384,30	1275,88
384,51	1247,21
384,72	1232,88
384,93	1279,98
385,14	1290,22
385,35	1306,60
385,55	1267,69
385,76	1322,99
385,97	1275,88
386,18	1247,21
386,39	1288,17
386,60	1245,16
386,81	1269,74
387,02	1200,11
387,22	1261,55
387,43	1271,79
387,64	1234,93
387,85	1331,18
388,06	1204,21
388,27	1314,80
388,48	1239,02
388,68	1310,70
388,89	1337,32
389,10	1208,30
389,31	1253,36
389,52	1335,28
389,73	1206,25
389,93	1308,65
390,14	1247,21
390,35	1296,36
390,56	1183,73
390,77	1212,40
390,98	1222,64
391,18	1298,41
391,39	1269,74
391,60	1216,49
391,81	1275,88
392,02	1239,02
392,23	1304,56
392,43	1243,12
392,64	1261,55
392,85	1286,12
393,06	1210,35
393,27	1253,36
393,47	1241,07
393,68	1288,17
393,89	1286,12
394,10	1288,17
394,31	1253,36
394,52	1263,60
394,72	1253,36
394,93	1212,40
395,14	1167,34
395,35	1327,08
395,56	1241,07
395,76	1193,97
395,97	1251,31
396,18	1241,07
396,39	1224,69
396,60	1228,78
396,80	1320,94
397,01	1261,55
397,22	1286,12
397,43	1249,26
397,64	1286,12
397,84	1263,60
398,05	1273,84
398,26	1187,82
398,47	1257,45
398,67	1208,30
398,88	1306,60
399,09	1290,22
399,30	1327,08
399,51	1259,50
399,71	1212,40
399,92	1253,36
400,13	1265,64
400,34	1236,97
400,54	1193,97
400,75	1253,36
400,96	1277,93
401,17	1263,60
401,37	1306,60
401,58	1271,79
401,79	1253,36
402,00	1239,02
402,21	1351,66
402,41	1304,56
402,62	1206,25
402,83	1284,08
403,04	1302,51
403,24	1306,60
403,45	1318,89
403,66	1337,32
403,87	1228,78
404,07	1296,36
404,28	1226,73
404,49	1288,17
404,70	1286,12
404,90	1329,13
405,11	1224,69
405,32	1320,94
405,52	1228,78
405,73	1241,07
405,94	1273,84
406,15	1353,71
406,35	1308,65
406,56	1290,22
406,77	1204,21
406,98	1239,02
407,18	1290,22
407,39	1249,26
407,60	1241,07
407,80	1241,07
408,01	1292,27
408,22	1265,64
408,43	1236,97
408,63	1220,59
408,84	1220,59
409,05	1236,97
409,25	1277,93
409,46	1282,03
409,67	1232,88
409,88	1290,22
410,08	1273,84
410,29	1306,60
410,50	1275,88
410,70	1191,92
410,91	1300,46
411,12	1306,60
411,32	1292,27
411,53	1259,50
411,74	1263,60
411,95	1214,45
412,15	1302,51
412,36	1277,93
412,57	1312,75
412,77	1327,08
412,98	1189,87
413,19	1282,03
413,39	1343,47
413,60	1259,50
413,81	1308,65
414,01	1279,98
414,22	1222,64
414,43	1349,61
414,63	1236,97
414,84	1193,97
415,05	1249,26
415,25	1255,40
415,46	1296,36
415,67	1306,60
415,87	1198,06
416,08	1308,65
416,29	1255,40
416,49	1263,60
416,70	1216,49
416,91	1230,83
417,11	1290,22
417,32	1318,89
417,53	1300,46
417,73	1236,97
417,94	1212,40
418,15	1267,69
418,35	1214,45
418,56	1304,56
418,77	1271,79
418,97	1263,60
419,18	1261,55
419,38	1290,22
419,59	1214,45
419,80	1253,36
420,00	1257,45
420,21	1345,52
420,42	1243,12
420,62	1314,80
420,83	1245,16
421,04	1310,70
421,24	1292,27
421,45	1288,17
421,65	1234,93
421,86	1251,31
422,07	1325,04
422,27	1208,30
422,48	1218,54
422,69	1304,56
422,89	1300,46
423,10	1255,40
423,30	1251,31
423,51	1241,07
423,72	1349,61
423,92	1257,45
424,13	1277,93
424,33	1241,07
424,54	1222,64
424,75	1339,37
424,95	1243,12
425,16	1265,64
425,36	1257,45
425,57	1243,12
425,78	1257,45
425,98	1294,32
426,19	1245,16
426,39	1220,59
426,60	1267,69
426,81	1284,08
427,01	1284,08
427,22	1243,12
427,42	1228,78
427,63	1322,99
427,83	1284,08
428,04	1255,40
428,25	1312,75
428,45	1251,31
428,66	1304,56
428,86	1279,98
429,07	1236,97
429,28	1316,84
429,48	1308,65
429,69	1306,60
429,89	1245,16
430,10	1208,30
430,30	1279,98
430,51	1208,30
430,71	1327,08
430,92	1263,60
431,13	1347,56
431,33	1226,73
431,54	1314,80
431,74	1222,64
431,95	1202,16
432,15	1247,21
432,36	1290,22
432,56	1269,74
432,77	1318,89
432,98	1290,22
433,18	1249,26
433,39	1271,79
433,59	1292,27
433,80	1259,50
434,00	1253,36
434,21	1320,94
434,41	1288,17
434,62	1200,11
434,82	1214,45
435,03	1247,21
435,23	1253,36
435,44	1290,22
435,64	1204,21
435,85	1279,98
436,06	1261,55
436,26	1320,94
436,47	1253,36
436,67	1239,02
436,88	1341,42
437,08	1277,93
437,29	1320,94
437,49	1269,74
437,70	1212,40
437,90	1286,12
438,11	1245,16
438,31	1259,50
438,52	1228,78
438,72	1327,08
438,93	1269,74
439,13	1216,49
439,34	1273,84
439,54	1290,22
439,75	1202,16
439,95	1282,03
440,16	1304,56
440,36	1322,99
440,57	1312,75
440,77	1290,22
440,98	1267,69
441,18	1382,38
441,39	1269,74
441,59	1314,80
441,80	1310,70
442,00	1263,60
442,21	1247,21
442,41	1279,98
442,62	1230,83
442,82	1329,13
443,02	1304,56
443,23	1241,07
443,43	1224,69
443,64	1251,31
443,84	1357,80
444,05	1284,08
444,25	1298,41
444,46	1230,83
444,66	1269,74
444,87	1261,55
445,07	1304,56
445,28	1314,80
445,48	1222,64
445,69	1320,94
445,89	1277,93
446,09	1308,65
446,30	1249,26
446,50	1257,45
446,71	1224,69
446,91	1269,74
447,12	1294,32
447,32	1277,93
447,53	1282,03
447,73	1210,35
447,93	1271,79
448,14	1269,74
448,34	1290,22
448,55	1224,69
448,75	1277,93
448,96	1208,30
449,16	1269,74
449,36	1269,74
449,57	1290,22
449,77	1290,22
449,98	1216,49
450,18	1355,76
450,39	1310,70
450,59	1279,98
450,79	1275,88
451,00	1241,07
451,20	1243,12
451,41	1243,12
451,61	1286,12
451,81	1273,84
452,02	1292,27
452,22	1214,45
452,43	1253,36
452,63	1351,66
452,84	1255,40
453,04	1310,70
453,24	1232,88
453,45	1255,40
453,65	1210,35
453,86	1267,69
454,06	1322,99
454,26	1245,16
454,47	1204,21
454,67	1228,78
454,87	1200,11
455,08	1265,64
455,28	1279,98
455,49	1292,27
455,69	1265,64
455,89	1310,70
456,10	1320,94
456,30	1310,70
456,51	1261,55
456,71	1306,60
456,91	1320,94
457,12	1298,41
457,32	1306,60
457,52	1204,21
457,73	1290,22
457,93	1298,41
458,14	1263,60
458,34	1304,56
458,54	1302,51
458,75	1331,18
458,95	1310,70
459,15	1314,80
459,36	1222,64
459,56	1214,45
459,76	1234,93
459,97	1306,60
460,17	1302,51
460,37	1292,27
460,58	1318,89
460,78	1284,08
460,99	1312,75
461,19	1318,89
461,39	1206,25
461,60	1222,64
461,80	1220,59
462,00	1282,03
462,21	1253,36
462,41	1304,56
462,61	1271,79
462,82	1222,64
463,02	1257,45
463,22	1320,94
463,43	1316,84
463,63	1300,46
463,83	1232,88
464,04	1261,55
464,24	1327,08
464,44	1255,40
464,64	1304,56
464,85	1320,94
465,05	1282,03
465,25	1298,41
465,46	1263,60
465,66	1269,74
465,86	1261,55
466,07	1290,22
466,27	1247,21
466,47	1214,45
466,68	1296,36
466,88	1226,73
467,08	1187,82
467,29	1325,04
467,49	1304,56
467,69	1175,53
467,89	1304,56
468,10	1277,93
468,30	1337,32
468,50	1294,32
468,71	1234,93
468,91	1339,37
469,11	1269,74
469,31	1308,65
469,52	1325,04
469,72	1277,93
469,92	1234,93
470,13	1308,65
470,33	1320,94
470,53	1359,85
470,73	1251,31
470,94	1257,45
471,14	1310,70
471,34	1271,79
471,54	1257,45
471,75	1271,79
471,95	1265,64
472,15	1288,17
472,36	1263,60
472,56	1210,35
472,76	1310,70
472,96	1247,21
473,17	1279,98
473,37	1234,93
473,57	1265,64
473,77	1241,07
473,98	1290,22
474,18	1353,71
474,38	1263,60
474,58	1279,98
474,79	1259,50
474,99	1243,12
475,19	1271,79
475,39	1255,40
475,60	1318,89
475,80	1271,79
476,00	1267,69
476,20	1275,88
476,41	1458,15
476,61	1306,60
476,81	1273,84
477,01	1288,17
477,21	1290,22
477,42	1306,60
477,62	1267,69
477,82	1335,28
478,02	1241,07
478,23	1249,26
478,43	1337,32
478,63	1314,80
478,83	1234,93
479,03	1316,84
479,24	1284,08
479,44	1245,16
479,64	1267,69
479,84	1296,36
480,04	1292,27
480,25	1296,36
480,45	1273,84
480,65	1265,64
480,85	1282,03
481,06	1271,79
481,26	1228,78
481,46	1277,93
481,66	1284,08
481,86	1339,37
482,06	1212,40
482,27	1339,37
482,47	1243,12
482,67	1370,09
482,87	1245,16
483,07	1329,13
483,28	1294,32
483,48	1245,16
483,68	1329,13
483,88	1325,04
484,08	1214,45
484,29	1335,28
484,49	1337,32
484,69	1214,45
484,89	1275,88
485,09	1234,93
485,29	1275,88
485,50	1247,21
485,70	1261,55
485,90	1265,64
486,10	1259,50
486,30	1273,84
486,50	1308,65
486,71	1253,36
486,91	1234,93
487,11	1222,64
487,31	1257,45
487,51	1263,60
487,71	1279,98
487,91	1304,56
488,12	1208,30
488,32	1310,70
488,52	1304,56
488,72	1277,93
488,92	1269,74
489,12	1247,21
489,32	1327,08
489,53	1345,52
489,73	1208,30
489,93	1271,79
490,13	1187,82
490,33	1249,26
490,53	1327,08
490,73	1277,93
490,94	1302,51
491,14	1261,55
491,34	1251,31
491,54	1232,88
491,74	1241,07
491,94	1261,55
492,14	1247,21
492,34	1290,22
492,54	1296,36
492,75	1271,79
492,95	1232,88
493,15	1267,69
493,35	1308,65
493,55	1282,03
493,75	1234,93
493,95	1288,17
494,15	1288,17
494,35	1263,60
494,56	1208,30
494,76	1269,74
494,96	1304,56
495,16	1296,36
495,36	1249,26
495,56	1261,55
495,76	1322,99
495,96	1345,52
496,16	1302,51
496,36	1222,64
496,56	1327,08
496,77	1247,21
496,97	1286,12
497,17	1351,66
497,37	1298,41
497,57	1325,04
497,77	1304,56
497,97	1269,74
498,17	1335,28
498,37	1226,73
498,57	1282,03
498,77	1222,64
498,97	1284,08
499,17	1277,93
499,38	1294,32
499,58	1239,02
499,78	1284,08
499,98	1316,84
500,18	1230,83
500,38	1271,79
500,58	1228,78
500,78	1241,07
500,98	1210,35
501,18	1279,98
501,38	1286,12
501,58	1265,64
501,78	1218,54
501,98	1271,79
502,18	1189,87
502,38	1282,03
502,58	1279,98
502,78	1345,52
502,98	1292,27
503,18	1290,22
503,38	1329,13
503,59	1249,26
503,79	1224,69
503,99	1224,69
504,19	1273,84
504,39	1314,80
504,59	1253,36
504,79	1300,46
504,99	1316,84
505,19	1314,80
505,39	1308,65
505,59	1296,36
505,79	1284,08
505,99	1228,78
506,19	1210,35
506,39	1284,08
506,59	1308,65
506,79	1255,40
506,99	1314,80
507,19	1249,26
507,39	1310,70
507,59	1331,18
507,79	1216,49
507,99	1212,40
508,19	1239,02
508,39	1269,74
508,59	1243,12
508,79	1355,76
508,99	1310,70
509,19	1329,13
509,39	1263,60
509,59	1271,79
509,79	1308,65
509,99	1273,84
510,19	1308,65
510,39	1222,64
510,59	1236,97
510,79	1251,31
510,99	1325,04
511,19	1331,18
511,39	1286,12
511,59	1267,69
511,79	1230,83
511,99	1275,88
512,19	1271,79
512,38	1275,88
512,58	1263,60
512,78	1337,32
512,98	1232,88
513,18	1294,32
513,38	1277,93
513,58	1322,99
513,78	1279,98
513,98	1292,27
514,18	1316,84
514,38	1271,79
514,58	1284,08
514,78	1253,36
514,98	1388,52
515,18	1277,93
515,38	1279,98
515,58	1286,12
515,78	1253,36
515,98	1222,64
516,18	1349,61
516,38	1329,13
516,57	1259,50
516,77	1290,22
516,97	1269,74
517,17	1232,88
517,37	1304,56
517,57	1314,80
517,77	1343,47
517,97	1239,02
518,17	1331,18
518,37	1320,94
518,57	1306,60
518,77	1277,93
518,97	1257,45
519,16	1288,17
519,36	1220,59
519,56	1279,98
519,76	1247,21
519,96	1353,71
520,16	1273,84
520,36	1267,69
520,56	1253,36
520,76	1284,08
520,96	1191,92
521,16	1288,17
521,35	1359,85
521,55	1269,74
521,75	1316,84
521,95	1273,84
522,15	1286,12
522,35	1314,80
522,55	1251,31
522,75	1232,88
522,95	1265,64
523,14	1347,56
523,34	1269,74
523,54	1294,32
523,74	1298,41
523,94	1300,46
524,14	1320,94
524,34	1284,08
524,54	1218,54
524,73	1259,50
524,93	1337,32
525,13	1271,79
525,33	1292,27
525,53	1236,97
525,73	1255,40
525,93	1255,40
526,13	1261,55
526,32	1259,50
526,52	1304,56
526,72	1363,95
526,92	1322,99
527,12	1247,21
527,32	1296,36
527,52	1302,51
527,71	1273,84
527,91	1316,84
528,11	1277,93
528,31	1247,21
528,51	1314,80
528,71	1241,07
528,90	1277,93
529,10	1322,99
529,30	1253,36
529,50	1224,69
529,70	1277,93
529,90	1226,73
530,09	1279,98
530,29	1320,94
530,49	1288,17
530,69	1204,21
530,89	1191,92
531,09	1320,94
531,28	1228,78
531,48	1247,21
531,68	1232,88
531,88	1298,41
532,08	1290,22
532,28	1339,37
532,47	1165,29
532,67	1298,41
532,87	1269,74
533,07	1282,03
533,27	1232,88
533,46	1327,08
533,66	1247,21
533,86	1322,99
534,06	1296,36
534,26	1218,54
534,45	1343,47
534,65	1284,08
534,85	1251,31
535,05	1302,51
535,25	1282,03
535,44	1284,08
535,64	1300,46
535,84	1304,56
536,04	1273,84
536,24	1265,64
536,43	1234,93
536,63	1226,73
536,83	1284,08
537,03	1271,79
537,22	1294,32
537,42	1337,32
537,62	1277,93
537,82	1353,71
538,02	1310,70
538,21	1308,65
538,41	1267,69
538,61	1308,65
538,81	1191,92
539,00	1298,41
539,20	1306,60
539,40	1316,84
539,60	1320,94
539,79	1261,55
539,99	1247,21
540,19	1306,60
540,39	1267,69
540,58	1316,84
540,78	1267,69
540,98	1222,64
541,18	1232,88
541,37	1261,55
541,57	1304,56
541,77	1279,98
541,97	1329,13
542,16	1243,12
542,36	1273,84
542,56	1279,98
542,76	1351,66
542,95	1265,64
543,15	1261,55
543,35	1279,98
543,54	1339,37
543,74	1294,32
543,94	1228,78
544,14	1286,12
544,33	1253,36
544,53	1185,77
544,73	1302,51
544,93	1306,60
545,12	1224,69
545,32	1298,41
545,52	1247,21
545,71	1251,31
545,91	1288,17
546,11	1247,21
546,30	1212,40
546,50	1271,79
546,70	1322,99
546,90	1273,84
547,09	1298,41
547,29	1314,80
547,49	1245,16
547,68	1261,55
547,88	1241,07
548,08	1329,13
548,27	1316,84
548,47	1312,75
548,67	1304,56
548,87	1318,89
549,06	1255,40
549,26	1255,40
549,46	1263,60
549,65	1302,51
549,85	1259,50
550,05	1275,88
550,24	1300,46
550,44	1304,56
550,64	1304,56
550,83	1247,21
551,03	1255,40
551,23	1363,95
551,42	1243,12
551,62	1361,90
551,82	1243,12
552,01	1292,27
552,21	1273,84
552,41	1282,03
552,60	1261,55
552,80	1253,36
553,00	1308,65
553,19	1251,31
553,39	1269,74
553,59	1316,84
553,78	1241,07
553,98	1284,08
554,17	1245,16
554,37	1288,17
554,57	1300,46
554,76	1273,84
554,96	1306,60
555,16	1257,45
555,35	1247,21
555,55	1296,36
555,75	1306,60
555,94	1288,17
556,14	1249,26
556,33	1261,55
556,53	1298,41
556,73	1337,32
556,92	1290,22
557,12	1269,74
557,32	1294,32
557,51	1273,84
557,71	1282,03
557,90	1200,11
558,10	1282,03
558,30	1279,98
558,49	1316,84
558,69	1273,84
558,88	1294,32
559,08	1316,84
559,28	1230,83
559,47	1275,88
559,67	1322,99
559,86	1273,84
560,06	1282,03
560,26	1304,56
560,45	1339,37
560,65	1304,56
560,84	1255,40
561,04	1241,07
561,24	1273,84
561,43	1239,02
561,63	1306,60
561,82	1347,56
562,02	1265,64
562,22	1279,98
562,41	1251,31
562,61	1300,46
562,80	1306,60
563,00	1302,51
563,19	1183,73
563,39	1296,36
563,59	1202,16
563,78	1304,56
563,98	1345,52
564,17	1261,55
564,37	1202,16
564,56	1273,84
564,76	1234,93
564,96	1308,65
565,15	1304,56
565,35	1263,60
565,54	1261,55
565,74	1273,84
565,93	1279,98
566,13	1284,08
566,32	1320,94
566,52	1243,12
566,71	1386,47
566,91	1273,84
567,11	1265,64
567,30	1232,88
567,50	1265,64
567,69	1306,60
567,89	1247,21
568,08	1292,27
568,28	1292,27
568,47	1279,98
568,67	1310,70
568,86	1232,88
569,06	1363,95
569,25	1322,99
569,45	1318,89
569,64	1259,50
569,84	1271,79
570,04	1267,69
570,23	1277,93
570,43	1288,17
570,62	1239,02
570,82	1325,04
571,01	1249,26
571,21	1294,32
571,40	1316,84
571,60	1267,69
571,79	1351,66
571,99	1325,04
572,18	1226,73
572,38	1271,79
572,57	1286,12
572,77	1245,16
572,96	1284,08
573,16	1277,93
573,35	1314,80
573,55	1282,03
573,74	1277,93
573,94	1249,26
574,13	1245,16
574,33	1290,22
574,52	1277,93
574,71	1251,31
574,91	1216,49
575,10	1185,77
575,30	1331,18
575,49	1269,74
575,69	1310,70
575,88	1308,65
576,08	1200,11
576,27	1241,07
576,47	1294,32
576,66	1198,06
576,86	1232,88
577,05	1304,56
577,25	1259,50
577,44	1222,64
577,64	1275,88
577,83	1304,56
578,02	1314,80
578,22	1255,40
578,41	1269,74
578,61	1361,90
578,80	1279,98
579,00	1288,17
579,19	1284,08
579,39	1329,13
579,58	1228,78
579,77	1325,04
579,97	1275,88
580,16	1255,40
580,36	1279,98
580,55	1318,89
580,75	1329,13
580,94	1271,79
581,13	1310,70
581,33	1341,42
581,52	1302,51
581,72	1255,40
581,91	1212,40
582,11	1249,26
582,30	1253,36
582,49	1331,18
582,69	1208,30
582,88	1269,74
583,08	1267,69
583,27	1290,22
583,47	1282,03
583,66	1306,60
583,85	1179,63
584,05	1302,51
584,24	1269,74
584,44	1282,03
584,63	1269,74
584,82	1304,56
585,02	1224,69
585,21	1265,64
585,41	1232,88
585,60	1337,32
585,79	1259,50
585,99	1257,45
586,18	1249,26
586,37	1316,84
586,57	1284,08
586,76	1316,84
586,96	1261,55
587,15	1241,07
587,34	1267,69
587,54	1265,64
587,73	1314,80
587,93	1228,78
588,12	1279,98
588,31	1249,26
588,51	1296,36
588,70	1277,93
588,89	1249,26
589,09	1300,46
589,28	1322,99
589,47	1304,56
589,67	1220,59
589,86	1294,32
590,06	1329,13
590,25	1269,74
590,44	1316,84
590,64	1300,46
590,83	1245,16
591,02	1331,18
591,22	1269,74
591,41	1245,16
591,60	1351,66
591,80	1314,80
591,99	1361,90
592,18	1361,90
592,38	1257,45
592,57	1316,84
592,76	1316,84
592,96	1322,99
593,15	1236,97
593,34	1255,40
593,54	1308,65
593,73	1329,13
593,92	1269,74
594,12	1298,41
594,31	1296,36
594,50	1325,04
594,70	1335,28
594,89	1279,98
595,08	1263,60
595,28	1298,41
595,47	1249,26
595,66	1290,22
595,86	1312,75
596,05	1257,45
596,24	1228,78
596,43	1279,98
596,63	1384,43
596,82	1259,50
597,01	1259,50
597,21	1345,52
597,40	1257,45
597,59	1325,04
597,79	1261,55
597,98	1296,36
598,17	1333,23
598,36	1296,36
598,56	1361,90
598,75	1275,88
598,94	1306,60
599,14	1306,60
599,33	1310,70
599,52	1275,88
599,71	1243,12
599,91	1318,89
600,10	1298,41
600,29	1294,32
600,48	1243,12
600,68	1222,64
600,87	1259,50
601,06	1298,41
601,26	1253,36
601,45	1241,07
601,64	1333,23
601,83	1372,14
602,03	1279,98
602,22	1228,78
602,41	1267,69
602,60	1331,18
602,80	1320,94
602,99	1277,93
603,18	1322,99
603,37	1320,94
603,57	1247,21
603,76	1304,56
603,95	1357,80
604,14	1316,84
604,34	1308,65
604,53	1241,07
604,72	1294,32
604,91	1286,12
605,10	1247,21
605,30	1267,69
605,49	1275,88
605,68	1333,23
605,87	1306,60
606,07	1232,88
606,26	1335,28
606,45	1304,56
606,64	1208,30
606,84	1216,49
607,03	1361,90
607,22	1322,99
607,41	1292,27
607,60	1249,26
607,80	1265,64
607,99	1296,36
608,18	1224,69
608,37	1257,45
608,56	1245,16
608,76	1236,97
608,95	1261,55
609,14	1312,75
609,33	1302,51
609,52	1261,55
609,72	1282,03
609,91	1306,60
610,10	1308,65
610,29	1249,26
610,48	1316,84
610,68	1241,07
610,87	1296,36
611,06	1302,51
611,25	1279,98
611,44	1271,79
611,63	1296,36
611,83	1341,42
612,02	1306,60
612,21	1292,27
612,40	1259,50
612,59	1306,60
612,79	1265,64
612,98	1232,88
613,17	1284,08
613,36	1243,12
613,55	1310,70
613,74	1394,67
613,93	1243,12
614,13	1298,41
614,32	1322,99
614,51	1296,36
614,70	1249,26
614,89	1304,56
615,08	1312,75
615,28	1257,45
615,47	1236,97
615,66	1302,51
615,85	1249,26
616,04	1329,13
616,23	1255,40
616,42	1294,32
616,62	1279,98
616,81	1288,17
617,00	1318,89
617,19	1300,46
617,38	1277,93
617,57	1306,60
617,76	1314,80
617,95	1316,84
618,15	1243,12
618,34	1296,36
618,53	1241,07
618,72	1288,17
618,91	1245,16
619,10	1284,08
619,29	1239,02
619,48	1345,52
619,68	1314,80
619,87	1310,70
620,06	1300,46
620,25	1279,98
620,44	1265,64
620,63	1284,08
620,82	1279,98
621,01	1282,03
621,20	1249,26
621,39	1294,32
621,59	1331,18
621,78	1306,60
621,97	1351,66
622,16	1314,80
622,35	1349,61
622,54	1273,84
622,73	1282,03
622,92	1191,92
623,11	1361,90
623,30	1265,64
623,49	1269,74
623,68	1306,60
623,88	1312,75
624,07	1292,27
624,26	1284,08
624,45	1232,88
624,64	1282,03
624,83	1368,04
625,02	1327,08
625,21	1296,36
625,40	1279,98
625,59	1251,31
625,78	1322,99
625,97	1325,04
626,16	1314,80
626,35	1304,56
626,54	1353,71
626,74	1345,52
626,93	1310,70
627,12	1284,08
627,31	1322,99
627,50	1380,33
627,69	1312,75
627,88	1290,22
628,07	1230,83
628,26	1296,36
628,45	1322,99
628,64	1300,46
628,83	1300,46
629,02	1265,64
629,21	1286,12
629,40	1333,23
629,59	1279,98
629,78	1269,74
629,97	1234,93
630,16	1261,55
630,35	1335,28
630,54	1304,56
630,73	1337,32
630,92	1306,60
631,11	1314,80
631,30	1331,18
631,49	1308,65
631,68	1325,04
631,87	1636,33
632,06	1853,41
632,25	1525,74
632,44	1716,20
632,63	1982,43
632,82	2361,31
633,01	5482,41
633,20	5138,35
633,39	3870,66
633,58	2064,35
633,77	3012,56
633,96	6082,47
634,15	6895,51
634,34	5658,54
634,53	3923,91
634,72	2602,97
634,91	1972,19
635,10	1738,73
635,29	1597,42
635,48	1544,17
635,67	1548,26
635,86	1515,50
636,05	1433,58
636,24	1517,54
636,43	1374,19
636,62	1366,00
636,81	1331,18
637,00	1378,28
637,19	1298,41
637,38	1259,50
637,57	1314,80
637,76	1284,08
637,95	1290,22
638,14	1388,52
638,33	1234,93
638,52	1290,22
638,71	1284,08
638,89	1392,62
639,08	1361,90
639,27	1263,60
639,46	1263,60
639,65	1361,90
639,84	1343,47
640,03	1269,74
640,22	1263,60
640,41	1277,93
640,60	1224,69
640,79	1329,13
640,98	1327,08
641,17	1273,84
641,36	1318,89
641,55	1363,95
641,74	1261,55
641,92	1245,16
642,11	1224,69
642,30	1275,88
642,49	1290,22
642,68	1308,65
642,87	1302,51
643,06	1259,50
643,25	1208,30
643,44	1243,12
643,63	1263,60
643,82	1212,40
644,00	1259,50
644,19	1329,13
644,38	1257,45
644,57	1277,93
644,76	1310,70
644,95	1279,98
645,14	1312,75
645,33	1257,45
645,52	1257,45
645,71	1279,98
645,89	1257,45
646,08	1296,36
646,27	1286,12
646,46	1312,75
646,65	1302,51
646,84	1300,46
647,03	1206,25
647,22	1275,88
647,40	1261,55
647,59	1296,36
647,78	1261,55
647,97	1249,26
648,16	1284,08
648,35	1247,21
648,54	1204,21
648,73	1359,85
648,91	1310,70
649,10	1282,03
649,29	1236,97
649,48	1327,08
649,67	1232,88
649,86	1249,26
650,05	1392,62
650,23	1314,80
650,42	1341,42
650,61	1368,04
650,80	1335,28
650,99	1255,40
651,18	1253,36
651,36	1241,07
651,55	1286,12
651,74	1284,08
651,93	1257,45
652,12	1302,51
652,31	1296,36
652,49	1314,80
652,68	1273,84
652,87	1275,88
653,06	1286,12
653,25	1294,32
653,44	1331,18
653,62	1245,16
653,81	1327,08
654,00	1226,73
654,19	1261,55
654,38	1261,55
654,56	1265,64
654,75	1296,36
654,94	1218,54
655,13	1261,55
655,32	1269,74
655,51	1241,07
655,69	1271,79
655,88	1304,56
656,07	1286,12
656,26	1234,93
656,45	1275,88
656,63	1271,79
656,82	1286,12
657,01	1318,89
657,20	1314,80
657,38	1279,98
657,57	1273,84
657,76	1335,28
657,95	1275,88
658,14	1314,80
658,32	1247,21
658,51	1269,74
658,70	1216,49
658,89	1239,02
659,08	1241,07
659,26	1249,26
659,45	1234,93
659,64	1314,80
659,83	1300,46
660,01	1267,69
660,20	1253,36
660,39	1241,07
660,58	1325,04
660,76	1255,40
660,95	1316,84
661,14	1251,31
661,33	1329,13
661,51	1273,84
661,70	1284,08
661,89	1282,03
662,08	1179,63
662,26	1306,60
662,45	1318,89
662,64	1271,79
662,83	1230,83
663,01	1286,12
663,20	1279,98
663,39	1265,64
663,58	1296,36
663,76	1245,16
663,95	1277,93
664,14	1230,83
664,32	1275,88
664,51	1257,45
664,70	1216,49
664,89	1241,07
665,07	1245,16
665,26	1296,36
665,45	1212,40
665,64	1263,60
665,82	1322,99
666,01	1282,03
666,20	1306,60
666,38	1331,18
666,57	1298,41
666,76	1267,69
666,95	1232,88
667,13	1376,24
667,32	1310,70
667,51	1288,17
667,69	1277,93
667,88	1279,98
668,07	1251,31
668,25	1259,50
668,44	1306,60
668,63	1255,40
668,81	1249,26
669,00	1243,12
669,19	1277,93
669,38	1331,18
669,56	1251,31
669,75	1327,08
669,94	1236,97
670,12	1257,45
670,31	1292,27
670,50	1327,08
670,68	1259,50
670,87	1325,04
671,06	1212,40
671,24	1259,50
671,43	1206,25
671,62	1247,21
671,80	1239,02
671,99	1245,16
672,18	1316,84
672,36	1263,60
672,55	1193,97
672,74	1282,03
672,92	1253,36
673,11	1372,14
673,29	1267,69
673,48	1302,51
673,67	1312,75
673,85	1247,21
674,04	1228,78
674,23	1314,80
674,41	1279,98
674,60	1206,25
674,79	1255,40
674,97	1282,03
675,16	1189,87
675,34	1302,51
675,53	1273,84
675,72	1245,16
675,90	1212,40
676,09	1322,99
676,28	1333,23
676,46	1265,64
676,65	1286,12
676,83	1208,30
677,02	1271,79
677,21	1298,41
677,39	1320,94
677,58	1310,70
677,77	1306,60
677,95	1288,17
678,14	1208,30
678,32	1269,74
678,51	1294,32
678,70	1271,79
678,88	1259,50
679,07	1308,65
679,25	1277,93
679,44	1292,27
679,63	1267,69
679,81	1239,02
680,00	1259,50
680,18	1339,37
680,37	1325,04
680,55	1314,80
680,74	1290,22
680,93	1255,40
681,11	1292,27
681,30	1282,03
681,48	1267,69
681,67	1292,27
681,85	1320,94
682,04	1273,84
682,23	1210,35
682,41	1298,41
682,60	1198,06
682,78	1230,83
682,97	1310,70
683,15	1273,84
683,34	1316,84
683,53	1241,07
683,71	1241,07
683,90	1296,36
684,08	1312,75
684,27	1210,35
684,45	1232,88
684,64	1304,56
684,82	1267,69
685,01	1292,27
685,19	1243,12
685,38	1310,70
685,57	1314,80
685,75	1257,45
685,94	1284,08
686,12	1292,27
686,31	1273,84
686,49	1318,89
686,68	1261,55
686,86	1302,51
687,05	1304,56
687,23	1198,06
687,42	1247,21
687,60	1263,60
687,79	1312,75
687,97	1325,04
688,16	1263,60
688,34	1249,26
688,53	1282,03
688,71	1210,35
688,90	1277,93
689,08	1253,36
689,27	1269,74
689,45	1189,87
689,64	1261,55
689,82	1228,78
690,01	1290,22
690,19	1263,60
690,38	1318,89
690,56	1255,40
690,75	1212,40
690,93	1279,98
691,12	1228,78
691,30	1202,16
691,49	1243,12
691,67	1302,51
691,86	1239,02
692,04	1277,93
692,23	1243,12
692,41	1290,22
692,60	1265,64
692,78	1302,51
692,97	1241,07
693,15	1269,74
693,34	1271,79
693,52	1306,60
693,71	1226,73
693,89	1212,40
694,08	1298,41
694,26	1169,39
694,44	1314,80
694,63	1339,37
694,81	1230,83
695,00	1200,11
695,18	1279,98
695,37	1286,12
695,55	1279,98
695,74	1249,26
695,92	1259,50
696,10	1222,64
696,29	1277,93
696,47	1208,30
696,66	1279,98
696,84	1327,08
697,03	1253,36
697,21	1269,74
697,40	1273,84
697,58	1275,88
697,76	1249,26
697,95	1257,45
698,13	1298,41
698,32	1298,41
698,50	1284,08
698,68	1286,12
698,87	1261,55
699,05	1284,08
699,24	1275,88
699,42	1355,76
699,61	1300,46
699,79	1243,12
699,97	1275,88
700,16	1322,99
700,34	1253,36
700,53	1243,12
700,71	1261,55
700,89	1259,50
701,08	1255,40
701,26	1249,26
701,45	1286,12
701,63	1302,51
701,81	1251,31
702,00	1210,35
702,18	1290,22
702,37	1263,60
702,55	1286,12
702,73	1247,21
702,92	1251,31
703,10	1320,94
703,28	1249,26
703,47	1339,37
703,65	1247,21
703,84	1267,69
704,02	1202,16
704,20	1249,26
704,39	1218,54
704,57	1288,17
704,75	1304,56
704,94	1196,01
705,12	1245,16
705,30	1202,16
705,49	1198,06
705,67	1286,12
705,86	1282,03
706,04	1277,93
706,22	1220,59
706,41	1308,65
706,59	1259,50
706,77	1279,98
706,96	1198,06
707,14	1271,79
707,32	1306,60
707,51	1226,73
707,69	1282,03
707,87	1263,60
708,06	1292,27
708,24	1216,49
708,42	1329,13
708,61	1331,18
708,79	1320,94
708,97	1189,87
709,16	1265,64
709,34	1316,84
709,52	1224,69
709,71	1284,08
709,89	1239,02
710,07	1212,40
710,26	1228,78
710,44	1273,84
710,62	1329,13
710,80	1253,36
710,99	1269,74
711,17	1200,11
711,35	1228,78
711,54	1282,03
711,72	1243,12
711,90	1288,17
712,09	1239,02
712,27	1259,50
712,45	1306,60
712,63	1267,69
712,82	1236,97
713,00	1265,64
713,18	1226,73
713,37	1208,30
713,55	1210,35
713,73	1273,84
713,91	1269,74
714,10	1228,78
714,28	1308,65
714,46	1284,08
714,65	1277,93
714,83	1298,41
715,01	1298,41
715,19	1271,79
715,38	1310,70
715,56	1353,71
715,74	1298,41
715,92	1193,97
716,11	1331,18
716,29	1312,75
716,47	1200,11
716,65	1226,73
716,84	1220,59
717,02	1304,56
717,20	1230,83
717,38	1300,46
717,57	1339,37
717,75	1308,65
717,93	1245,16
718,11	1253,36
718,30	1239,02
718,48	1347,56
718,66	1304,56
718,84	1255,40
719,03	1275,88
719,21	1263,60
719,39	1216,49
719,57	1333,23
719,75	1322,99
719,94	1196,01
720,12	1253,36
720,30	1253,36
720,48	1247,21
720,67	1279,98
720,85	1271,79
721,03	1292,27
721,21	1232,88
721,39	1249,26
721,58	1259,50
721,76	1261,55
721,94	1308,65
722,12	1216,49
722,30	1312,75
722,49	1257,45
722,67	1312,75
722,85	1279,98
723,03	1327,08
723,21	1265,64
723,40	1306,60
723,58	1345,52
723,76	1234,93
723,94	1325,04
724,12	1230,83
724,30	1308,65
724,49	1318,89
724,67	1265,64
724,85	1255,40
725,03	1261,55
725,21	1318,89
725,40	1267,69
725,58	1279,98
725,76	1193,97
725,94	1384,43
726,12	1290,22
726,30	1263,60
726,49	1216,49
726,67	1269,74
726,85	1322,99
727,03	1284,08
727,21	1249,26
727,39	1247,21
727,57	1230,83
727,76	1261,55
727,94	1236,97
728,12	1288,17
728,30	1257,45
728,48	1279,98
728,66	1271,79
728,84	1243,12
729,03	1257,45
729,21	1218,54
729,39	1228,78
729,57	1185,77
729,75	1337,32
729,93	1257,45
730,11	1312,75
730,30	1230,83
730,48	1198,06
730,66	1220,59
730,84	1294,32
731,02	1253,36
731,20	1193,97
731,38	1251,31
731,56	1273,84
731,74	1329,13
731,93	1226,73
732,11	1304,56
732,29	1296,36
732,47	1249,26
732,65	1257,45
732,83	1214,45
733,01	1241,07
733,19	1296,36
733,37	1304,56
733,56	1275,88
733,74	1210,35
733,92	1204,21
734,10	1196,01
734,28	1220,59
734,46	1312,75
734,64	1249,26
734,82	1271,79
735,00	1292,27
735,18	1216,49
735,36	1304,56
735,54	1208,30
735,73	1269,74
735,91	1212,40
736,09	1306,60
736,27	1273,84
736,45	1282,03
736,63	1310,70
736,81	1310,70
736,99	1259,50
737,17	1296,36
737,35	1191,92
737,53	1263,60
737,71	1257,45
737,89	1249,26
738,07	1353,71
738,25	1253,36
738,43	1277,93
738,61	1312,75
738,80	1241,07
738,98	1206,25
739,16	1306,60
739,34	1271,79
739,52	1312,75
739,70	1292,27
739,88	1263,60
740,06	1277,93
740,24	1222,64
740,42	1198,06
740,60	1247,21
740,78	1163,25
740,96	1236,97
741,14	1300,46
741,32	1310,70
741,50	1212,40
741,68	1222,64
741,86	1271,79
742,04	1241,07
742,22	1277,93
742,40	1222,64
742,58	1230,83
742,76	1288,17
742,94	1216,49
743,12	1298,41
743,30	1308,65
743,48	1296,36
743,66	1181,68
743,84	1302,51
744,02	1298,41
744,20	1286,12
744,38	1167,34
744,56	1269,74
744,74	1275,88
744,92	1329,13
745,10	1329,13
745,28	1277,93
745,46	1257,45
745,64	1249,26
745,82	1245,16
746,00	1212,40
746,18	1222,64
746,36	1290,22
746,54	1269,74
746,72	1298,41
746,90	1181,68
747,08	1224,69
747,26	1271,79
747,44	1230,83
747,62	1236,97
747,80	1249,26
747,98	1288,17
748,15	1288,17
748,33	1341,42
748,51	1310,70
748,69	1292,27
748,87	1249,26
749,05	1282,03
749,23	1249,26
749,41	1273,84
749,59	1202,16
749,77	1273,84
749,95	1279,98
750,13	1253,36
750,31	1224,69
750,49	1368,04
750,67	1298,41
750,85	1310,70
751,03	1269,74
751,20	1269,74
751,38	1198,06
751,56	1282,03
751,74	1218,54
751,92	1275,88
752,10	1222,64
752,28	1294,32
752,46	1304,56
752,64	1261,55
752,82	1267,69
753,00	1312,75
753,18	1179,63
753,35	1257,45
753,53	1247,21
753,71	1271,79
753,89	1222,64
754,07	1247,21
754,25	1284,08
754,43	1271,79
754,61	1247,21
754,79	1310,70
754,97	1318,89
755,14	1349,61
755,32	1306,60
755,50	1282,03
755,68	1253,36
755,86	1202,16
756,04	1304,56
756,22	1241,07
756,40	1142,77
756,57	1263,60
756,75	1241,07
756,93	1210,35
757,11	1269,74
757,29	1208,30
757,47	1300,46
757,65	1173,49
757,82	1236,97
758,00	1327,08
758,18	1282,03
758,36	1228,78
758,54	1279,98
758,72	1261,55
758,90	1249,26
759,07	1204,21
759,25	1327,08
759,43	1302,51
759,61	1241,07
759,79	1290,22
759,97	1347,56
760,15	1241,07
760,32	1253,36
760,50	1228,78
760,68	1310,70
760,86	1216,49
761,04	1363,95
761,22	1214,45
761,39	1259,50
761,57	1312,75
761,75	1296,36
761,93	1212,40
762,11	1312,75
762,28	1253,36
762,46	1265,64
762,64	1249,26
762,82	1273,84
763,00	1286,12
763,18	1255,40
763,35	1245,16
763,53	1300,46
763,71	1361,90
763,89	1290,22
764,07	1296,36
764,24	1253,36
764,42	1249,26
764,60	1261,55
764,78	1300,46
764,96	1261,55
765,13	1290,22
765,31	1378,28
765,49	1277,93
765,67	1224,69
765,84	1314,80
766,02	1265,64
766,20	1349,61
766,38	1284,08
766,56	1251,31
766,73	1302,51
766,91	1316,84
767,09	1273,84
767,27	1275,88
767,44	1337,32
767,62	1230,83
767,80	1353,71
767,98	1290,22
768,15	1275,88
768,33	1214,45
768,51	1345,52
768,69	1255,40
768,87	1320,94
769,04	1247,21
769,22	1286,12
769,40	1226,73
769,58	1273,84
769,75	1300,46
769,93	1265,64
770,11	1310,70
770,28	1273,84
770,46	1265,64
770,64	1228,78
770,82	1259,50
770,99	1271,79
771,17	1265,64
771,35	1241,07
771,53	1220,59
771,70	1206,25
771,88	1241,07
772,06	1282,03
772,23	1298,41
772,41	1243,12
772,59	1304,56
772,77	1275,88
772,94	1222,64
773,12	1318,89
773,30	1253,36
773,47	1251,31
773,65	1247,21
773,83	1306,60
774,01	1282,03
774,18	1253,36
774,36	1279,98
774,54	1318,89
774,71	1265,64
774,89	1249,26
775,07	1310,70
775,24	1230,83
775,42	1243,12
775,60	1298,41
775,78	1255,40
775,95	1337,32
776,13	1230,83
776,31	1255,40
776,48	1257,45
776,66	1296,36
776,84	1200,11
777,01	1239,02
777,19	1243,12
777,37	1290,22
777,54	1247,21
777,72	1265,64
777,90	1255,40
778,07	1288,17
778,25	1241,07
778,43	1257,45
778,60	1239,02
778,78	1284,08
778,96	1290,22
779,13	1271,79
779,31	1243,12
779,49	1226,73
779,66	1193,97
779,84	1249,26
780,01	1230,83
780,19	1265,64
780,37	1255,40
780,54	1216,49
780,72	1239,02
780,90	1265,64
781,07	1279,98
781,25	1296,36
781,43	1269,74
781,60	1224,69
781,78	1220,59
781,95	1312,75
782,13	1249,26
782,31	1239,02
782,48	1253,36
782,66	1265,64
782,83	1269,74
783,01	1300,46
783,19	1271,79
783,36	1306,60
783,54	1277,93
783,72	1325,04
783,89	1282,03
784,07	1298,41
784,24	1261,55
784,42	1179,63
784,60	1247,21
784,77	1200,11
784,95	1320,94
785,12	1239,02
785,30	1234,93
785,47	1206,25
785,65	1200,11
785,83	1234,93
786,00	1222,64
786,18	1271,79
786,35	1312,75
786,53	1253,36
786,71	1279,98
786,88	1331,18
787,06	1261,55
787,23	1212,40
787,41	1224,69
787,58	1267,69
787,76	1294,32
787,94	1300,46
788,11	1288,17
788,29	1267,69
788,46	1265,64
788,64	1257,45
788,81	1273,84
788,99	1236,97
789,16	1204,21
789,34	1263,60
789,52	1322,99
789,69	1226,73
789,87	1284,08
790,04	1189,87
790,22	1261,55
790,39	1247,21
790,57	1224,69
790,74	1273,84
790,92	1292,27
791,09	1282,03
791,27	1249,26
791,44	1255,40
791,62	1288,17
791,79	1316,84
791,97	1337,32
792,15	1339,37
792,32	1269,74
792,50	1306,60
792,67	1284,08
792,85	1325,04
793,02	1308,65
793,20	1271,79
793,37	1255,40
793,55	1234,93
793,72	1216,49
793,90	1259,50
794,07	1245,16
794,25	1251,31
794,42	1277,93
794,60	1259,50
794,77	1296,36
794,95	1288,17
795,12	1290,22
795,30	1290,22
795,47	1304,56
795,65	1269,74
795,82	1228,78
796,00	1304,56
796,17	1275,88
796,34	1169,39
796,52	1220,59
796,69	1269,74
796,87	1232,88
797,04	1325,04
797,22	1222,64
797,39	1327,08
797,57	1269,74
797,74	1220,59
797,92	1296,36
798,09	1308,65
798,27	1320,94
798,44	1286,12
798,62	1349,61
798,79	1271,79
798,96	1216,49
799,14	1302,51
799,31	1284,08
799,49	1318,89
799,66	1228,78
799,84	1282,03
800,01	1265,64
800,19	1257,45
800,36	1302,51
800,53	1267,69
800,71	1224,69
800,88	1300,46
801,06	1306,60
801,23	1257,45
801,41	1320,94
801,58	1263,60
801,75	1239,02
801,93	1306,60
802,10	1255,40
802,28	1286,12
802,45	1226,73
802,63	1296,36
802,80	1279,98
802,97	1214,45
803,15	1273,84
803,32	1257,45
803,50	1247,21
803,67	1269,74
803,84	1300,46
804,02	1275,88
804,19	1269,74
804,37	1275,88
804,54	1308,65
804,71	1263,60
804,89	1273,84
805,06	1292,27
805,24	1282,03
805,41	1296,36
805,58	1265,64
805,76	1304,56
805,93	1261,55
806,10	1290,22
806,28	1302,51
806,45	1363,95
806,63	1304,56
806,80	1257,45
806,97	1212,40
807,15	1269,74
807,32	1322,99
807,49	1239,02
807,67	1296,36
807,84	1259,50
808,01	1292,27
808,19	1308,65
808,36	1245,16
808,54	1263,60
808,71	1214,45
808,88	1257,45
809,06	1310,70
809,23	1284,08
809,40	1204,21
809,58	1257,45
809,75	1298,41
809,92	1298,41
810,10	1304,56
810,27	1314,80
810,44	1257,45
810,62	1318,89
810,79	1247,21
810,96	1189,87
811,14	1224,69
811,31	1232,88
811,48	1329,13
811,66	1296,36
811,83	1255,40
812,00	1275,88
812,18	1271,79
812,35	1304,56
812,52	1275,88
812,69	1214,45
812,87	1269,74
813,04	1288,17
813,21	1306,60
813,39	1298,41
813,56	1363,95
813,73	1292,27
813,91	1255,40
814,08	1220,59
814,25	1269,74
814,42	1230,83
814,60	1273,84
814,77	1259,50
814,94	1224,69
815,12	1257,45
815,29	1275,88
815,46	1277,93
815,63	1269,74
815,81	1282,03
815,98	1234,93
816,15	1265,64
816,33	1263,60
816,50	1257,45
816,67	1232,88
816,84	1232,88
817,02	1263,60
817,19	1175,53
817,36	1259,50
817,53	1277,93
817,71	1259,50
817,88	1296,36
818,05	1208,30
818,22	1230,83
818,40	1222,64
818,57	1245,16
818,74	1249,26
818,91	1288,17
819,09	1277,93
819,26	1282,03
819,43	1255,40
819,60	1245,16
819,78	1263,60
819,95	1308,65
820,12	1210,35
820,29	1304,56
820,47	1226,73
820,64	1314,80
820,81	1257,45
820,98	1230,83
821,15	1245,16
821,33	1322,99
821,50	1302,51
821,67	1259,50
821,84	1279,98
822,02	1257,45
822,19	1341,42
822,36	1298,41
822,53	1224,69
822,70	1239,02
822,88	1269,74
823,05	1314,80
823,22	1282,03
823,39	1337,32
823,56	1212,40
823,74	1351,66
823,91	1282,03
824,08	1253,36
824,25	1241,07
824,42	1304,56
824,60	1220,59
824,77	1282,03
824,94	1337,32
825,11	1255,40
825,28	1247,21
825,45	1265,64
825,63	1312,75
825,80	1257,45
825,97	1241,07
826,14	1218,54
826,31	1306,60
826,48	1263,60
826,66	1273,84
826,83	1288,17
827,00	1288,17
827,17	1245,16
827,34	1271,79
827,51	1273,84
827,69	1241,07
827,86	1279,98
828,03	1241,07
828,20	1282,03
828,37	1261,55
828,54	1269,74
828,71	1267,69
828,89	1243,12
829,06	1298,41
829,23	1257,45
829,40	1212,40
829,57	1208,30
829,74	1241,07
829,91	1279,98
830,09	1331,18
830,26	1249,26
830,43	1310,70
830,60	1214,45
830,77	1329,13
830,94	1241,07
831,11	1230,83
831,28	1241,07
831,46	1263,60
831,63	1331,18
831,80	1253,36
831,97	1185,77
832,14	1230,83
832,31	1247,21
832,48	1251,31
832,65	1269,74
832,82	1167,34
832,99	1337,32
833,17	1288,17
833,34	1320,94
833,51	1216,49
833,68	1282,03
833,85	1226,73
834,02	1210,35
834,19	1230,83
834,36	1277,93
834,53	1263,60
834,70	1187,82
834,87	1306,60
835,04	1263,60
835,22	1249,26
835,39	1290,22
835,56	1253,36
835,73	1249,26
835,90	1241,07
836,07	1279,98
836,24	1267,69
836,41	1191,92
836,58	1257,45
836,75	1241,07
836,92	1368,04
837,09	1312,75
837,26	1187,82
837,43	1259,50
837,60	1298,41
837,77	1286,12
837,94	1269,74
838,12	1216,49
838,29	1212,40
838,46	1255,40
838,63	1290,22
838,80	1165,29
838,97	1198,06
839,14	1300,46
839,31	1171,44
839,48	1275,88
839,65	1304,56
839,82	1202,16
839,99	1284,08
840,16	1273,84
840,33	1241,07
840,50	1183,73
840,67	1212,40
840,84	1222,64
841,01	1288,17
841,18	1290,22
841,35	1314,80
841,52	1259,50
841,69	1290,22
841,86	1261,55
842,03	1232,88
842,20	1222,64
842,37	1259,50
842,54	1216,49
842,71	1245,16
842,88	1216,49
843,05	1296,36
843,22	1247,21
843,39	1239,02
843,56	1267,69
843,73	1275,88
843,90	1247,21
844,07	1224,69
844,24	1271,79
844,41	1282,03
844,58	1228,78
844,75	1277,93
844,92	1236,97
845,09	1290,22
845,26	1292,27
845,43	1253,36
845,60	1294,32
845,77	1314,80
845,94	1302,51
846,10	1298,41
846,27	1300,46
846,44	1290,22
846,61	1224,69
846,78	1265,64
846,95	1298,41
847,12	1220,59
847,29	1341,42
847,46	1251,31
847,63	1251,31
847,80	1277,93
847,97	1251,31
848,14	1255,40
848,31	1224,69
848,48	1232,88
848,65	1298,41
848,82	1265,64
848,98	1261,55
849,15	1255,40
849,32	1259,50
849,49	1208,30
849,66	1273,84
849,83	1275,88
850,00	1226,73
850,17	1286,12
850,34	1314,80
850,51	1243,12
850,68	1267,69
850,85	1273,84
851,01	1298,41
851,18	1265,64
851,35	1322,99
851,52	1220,59
851,69	1290,22
851,86	1331,18
852,03	1277,93
852,20	1206,25
852,37	1277,93
852,53	1239,02
852,70	1271,79
852,87	1228,78
853,04	1257,45
853,21	1232,88
853,38	1335,28
853,55	1282,03
853,72	1304,56
853,89	1273,84
854,05	1306,60
854,22	1290,22
854,39	1306,60
854,56	1261,55
854,73	1249,26
854,90	1337,32
855,07	1286,12
855,23	1310,70
855,40	1273,84
855,57	1185,77
855,74	1214,45
855,91	1333,23
856,08	1234,93
856,25	1302,51
856,41	1277,93
856,58	1255,40
856,75	1245,16
856,92	1267,69
857,09	1277,93
857,26	1241,07
857,42	1251,31
857,59	1306,60
857,76	1318,89
857,93	1241,07
858,10	1277,93
858,27	1241,07
858,43	1255,40
858,60	1310,70
858,77	1294,32
858,94	1273,84
859,11	1265,64
859,27	1257,45
859,44	1269,74
859,61	1316,84
859,78	1212,40
859,95	1298,41
860,12	1257,45
860,28	1298,41
860,45	1298,41
860,62	1220,59
860,79	1314,80
860,95	1314,80
861,12	1214,45
861,29	1306,60
861,46	1179,63
861,63	1212,40
861,79	1312,75
861,96	1349,61
862,13	1259,50
862,30	1296,36
862,47	1222,64
862,63	1216,49
862,80	1265,64
862,97	1187,82
863,14	1290,22
863,30	1210,35
863,47	1310,70
863,64	1226,73
863,81	1216,49
863,97	1232,88
864,14	1273,84
864,31	1228,78
864,48	1257,45
864,65	1200,11
864,81	1284,08
864,98	1279,98
865,15	1333,23
865,32	1327,08
865,48	1271,79
865,65	1222,64
865,82	1255,40
865,98	1282,03
866,15	1249,26
866,32	1193,97
866,49	1212,40
866,65	1230,83
866,82	1294,32
866,99	1275,88
867,16	1230,83
867,32	1247,21
867,49	1245,16
867,66	1306,60
867,83	1284,08
867,99	1226,73
868,16	1277,93
868,33	1310,70
868,49	1275,88
868,66	1269,74
868,83	1200,11
868,99	1204,21
869,16	1224,69
869,33	1210,35
869,50	1255,40
869,66	1273,84
869,83	1306,60
870,00	1320,94
870,16	1241,07
870,33	1228,78
870,50	1282,03
870,66	1243,12
870,83	1245,16
871,00	1257,45
871,17	1247,21
871,33	1245,16
871,50	1249,26
871,67	1290,22
871,83	1239,02
872,00	1247,21
872,17	1230,83
872,33	1206,25
872,50	1216,49
872,67	1236,97
872,83	1251,31
873,00	1269,74
873,17	1282,03
873,33	1277,93
873,50	1273,84
873,67	1273,84
873,83	1218,54
874,00	1146,86
874,16	1265,64
874,33	1234,93
874,50	1228,78
874,66	1273,84
874,83	1214,45
875,00	1273,84
875,16	1261,55
875,33	1296,36
875,50	1273,84
875,66	1298,41
875,83	1249,26
875,99	1249,26
876,16	1277,93
876,33	1257,45
876,49	1286,12
876,66	1335,28
876,83	1249,26
876,99	1390,57
877,16	1251,31
877,32	1298,41
877,49	1210,35
877,66	1306,60
877,82	1279,98
877,99	1341,42
878,15	1271,79
878,32	1318,89
878,49	1294,32
878,65	1216,49
878,82	1337,32
878,98	1290,22
879,15	1265,64
879,32	1230,83
879,48	1249,26
879,65	1239,02
879,81	1232,88
879,98	1304,56
880,15	1259,50
880,31	1230,83
880,48	1232,88
880,64	1333,23
880,81	1312,75
880,97	1220,59
881,14	1306,60
881,31	1232,88
881,47	1279,98
881,64	1277,93
881,80	1341,42
881,97	1261,55
882,13	1273,84
882,30	1271,79
882,47	1247,21
882,63	1230,83
882,80	1290,22
882,96	1212,40
883,13	1263,60
883,29	1220,59
883,46	1314,80
883,62	1232,88
883,79	1236,97
883,95	1296,36
884,12	1263,60
884,29	1249,26
884,45	1298,41
884,62	1284,08
884,78	1230,83
884,95	1304,56
885,11	1228,78
885,28	1286,12
885,44	1282,03
885,61	1265,64
885,77	1257,45
885,94	1259,50
886,10	1310,70
886,27	1230,83
886,43	1273,84
886,60	1292,27
886,76	1329,13
886,93	1228,78
887,09	1310,70
887,26	1279,98
887,42	1249,26
887,59	1286,12
887,75	1224,69
887,92	1265,64
888,08	1271,79
888,25	1224,69
888,41	1273,84
888,58	1273,84
888,74	1249,26
888,91	1232,88
>>>>>End Processed Spectral Data<<<<<
