SpectraSuite Data File
++++++++++++++++++++++++++++++++++++
Date: Sun Apr 03 17:42:34 CEST 2016
User: root
Dark Spectrum Present: No
Reference Spectrum Present: No
Number of Sampled Component Spectra: 1
Spectrometers: USB4C02835
Integration Time (usec): 10000 (USB4C02835)
Spectra Averaged: 1 (USB4C02835)
Boxcar Smoothing: 0 (USB4C02835)
Correct for Electrical Dark: No (USB4C02835)
Strobe/Lamp Enabled: No (USB4C02835)
Correct for Detector Non-linearity: No (USB4C02835)
Correct for Stray Light: No (USB4C02835)
Number of Pixels in Processed Spectrum: 3648
>>>>>Begin Processed Spectral Data<<<<<
177,47	1249,26
177,69	1249,26
177,91	1249,26
178,13	1241,07
178,36	1277,93
178,58	1232,88
178,80	1218,54
179,02	1271,79
179,24	1198,06
179,46	1277,93
179,68	1236,97
179,90	1222,64
180,13	1337,32
180,35	1261,55
180,57	1320,94
180,79	1263,60
181,01	1259,50
181,23	1357,80
181,45	1241,07
181,67	1279,98
181,90	1269,74
182,12	1302,51
182,34	1212,40
182,56	1232,88
182,78	1302,51
183,00	1247,21
183,22	1277,93
183,44	1208,30
183,66	1249,26
183,89	1267,69
184,11	1353,71
184,33	1277,93
184,55	1312,75
184,77	1224,69
184,99	1234,93
185,21	1318,89
185,43	1255,40
185,65	1269,74
185,87	1322,99
186,10	1202,16
186,32	1263,60
186,54	1245,16
186,76	1288,17
186,98	1265,64
187,20	1202,16
187,42	1292,27
187,64	1312,75
187,86	1310,70
188,08	1253,36
188,30	1253,36
188,52	1210,35
188,75	1251,31
188,97	1345,52
189,19	1251,31
189,41	1267,69
189,63	1247,21
189,85	1236,97
190,07	1236,97
190,29	1284,08
190,51	1257,45
190,73	1298,41
190,95	1302,51
191,17	1175,53
191,39	1318,89
191,61	1275,88
191,84	1224,69
192,06	1267,69
192,28	1232,88
192,50	1216,49
192,72	1232,88
192,94	1296,36
193,16	1251,31
193,38	1320,94
193,60	1228,78
193,82	1282,03
194,04	1206,25
194,26	1175,53
194,48	1288,17
194,70	1255,40
194,92	1222,64
195,14	1288,17
195,36	1302,51
195,58	1279,98
195,80	1261,55
196,02	1187,82
196,24	1234,93
196,46	1271,79
196,69	1267,69
196,91	1290,22
197,13	1255,40
197,35	1185,77
197,57	1320,94
197,79	1243,12
198,01	1320,94
198,23	1265,64
198,45	1245,16
198,67	1310,70
198,89	1343,47
199,11	1230,83
199,33	1245,16
199,55	1202,16
199,77	1239,02
199,99	1329,13
200,21	1249,26
200,43	1277,93
200,65	1325,04
200,87	1275,88
201,09	1316,84
201,31	1247,21
201,53	1234,93
201,75	1226,73
201,97	1261,55
202,19	1316,84
202,41	1273,84
202,63	1292,27
202,85	1273,84
203,07	1206,25
203,29	1263,60
203,51	1263,60
203,73	1241,07
203,95	1331,18
204,17	1200,11
204,39	1251,31
204,61	1255,40
204,83	1263,60
205,05	1261,55
205,27	1277,93
205,49	1310,70
205,71	1271,79
205,93	1322,99
206,15	1216,49
206,37	1347,56
206,59	1220,59
206,81	1275,88
207,03	1239,02
207,25	1265,64
207,47	1191,92
207,69	1363,95
207,91	1271,79
208,13	1298,41
208,34	1286,12
208,56	1290,22
208,78	1263,60
209,00	1355,76
209,22	1331,18
209,44	1296,36
209,66	1239,02
209,88	1269,74
210,10	1239,02
210,32	1271,79
210,54	1282,03
210,76	1296,36
210,98	1282,03
211,20	1275,88
211,42	1267,69
211,64	1286,12
211,86	1226,73
212,08	1243,12
212,30	1181,68
212,52	1279,98
212,74	1282,03
212,96	1263,60
213,17	1282,03
213,39	1261,55
213,61	1243,12
213,83	1366,00
214,05	1245,16
214,27	1300,46
214,49	1253,36
214,71	1245,16
214,93	1298,41
215,15	1298,41
215,37	1298,41
215,59	1243,12
215,81	1294,32
216,03	1284,08
216,24	1165,29
216,46	1251,31
216,68	1310,70
216,90	1290,22
217,12	1269,74
217,34	1327,08
217,56	1247,21
217,78	1257,45
218,00	1290,22
218,22	1279,98
218,44	1361,90
218,66	1230,83
218,87	1263,60
219,09	1206,25
219,31	1279,98
219,53	1253,36
219,75	1282,03
219,97	1183,73
220,19	1222,64
220,41	1290,22
220,63	1359,85
220,85	1259,50
221,06	1277,93
221,28	1230,83
221,50	1265,64
221,72	1261,55
221,94	1327,08
222,16	1263,60
222,38	1294,32
222,60	1228,78
222,82	1265,64
223,03	1261,55
223,25	1224,69
223,47	1302,51
223,69	1325,04
223,91	1304,56
224,13	1335,28
224,35	1288,17
224,57	1286,12
224,78	1259,50
225,00	1290,22
225,22	1286,12
225,44	1275,88
225,66	1277,93
225,88	1247,21
226,10	1310,70
226,32	1230,83
226,53	1263,60
226,75	1232,88
226,97	1292,27
227,19	1208,30
227,41	1230,83
227,63	1257,45
227,85	1251,31
228,06	1275,88
228,28	1267,69
228,50	1282,03
228,72	1265,64
228,94	1216,49
229,16	1171,44
229,37	1279,98
229,59	1292,27
229,81	1282,03
230,03	1243,12
230,25	1269,74
230,47	1273,84
230,69	1325,04
230,90	1220,59
231,12	1298,41
231,34	1312,75
231,56	1216,49
231,78	1355,76
232,00	1298,41
232,21	1222,64
232,43	1261,55
232,65	1353,71
232,87	1290,22
233,09	1220,59
233,30	1290,22
233,52	1282,03
233,74	1267,69
233,96	1216,49
234,18	1239,02
234,40	1282,03
234,61	1269,74
234,83	1218,54
235,05	1187,82
235,27	1265,64
235,49	1273,84
235,70	1290,22
235,92	1308,65
236,14	1216,49
236,36	1271,79
236,58	1322,99
236,79	1357,80
237,01	1265,64
237,23	1241,07
237,45	1294,32
237,67	1320,94
237,88	1247,21
238,10	1277,93
238,32	1288,17
238,54	1208,30
238,76	1300,46
238,97	1267,69
239,19	1241,07
239,41	1288,17
239,63	1282,03
239,85	1345,52
240,06	1306,60
240,28	1267,69
240,50	1220,59
240,72	1255,40
240,93	1220,59
241,15	1253,36
241,37	1273,84
241,59	1294,32
241,81	1239,02
242,02	1320,94
242,24	1230,83
242,46	1310,70
242,68	1193,97
242,89	1290,22
243,11	1261,55
243,33	1226,73
243,55	1306,60
243,76	1300,46
243,98	1288,17
244,20	1312,75
244,42	1275,88
244,64	1279,98
244,85	1306,60
245,07	1273,84
245,29	1359,85
245,51	1249,26
245,72	1288,17
245,94	1314,80
246,16	1271,79
246,38	1193,97
246,59	1224,69
246,81	1241,07
247,03	1294,32
247,24	1312,75
247,46	1282,03
247,68	1308,65
247,90	1277,93
248,11	1335,28
248,33	1247,21
248,55	1308,65
248,77	1210,35
248,98	1292,27
249,20	1331,18
249,42	1275,88
249,64	1298,41
249,85	1228,78
250,07	1310,70
250,29	1275,88
250,50	1296,36
250,72	1247,21
250,94	1284,08
251,16	1312,75
251,37	1265,64
251,59	1277,93
251,81	1212,40
252,02	1298,41
252,24	1300,46
252,46	1257,45
252,68	1314,80
252,89	1288,17
253,11	1251,31
253,33	1259,50
253,54	1288,17
253,76	1335,28
253,98	1294,32
254,20	1236,97
254,41	1290,22
254,63	1298,41
254,85	1243,12
255,06	1228,78
255,28	1210,35
255,50	1273,84
255,71	1296,36
255,93	1253,36
256,15	1253,36
256,36	1279,98
256,58	1253,36
256,80	1245,16
257,02	1255,40
257,23	1241,07
257,45	1226,73
257,67	1228,78
257,88	1249,26
258,10	1261,55
258,32	1265,64
258,53	1230,83
258,75	1253,36
258,97	1171,44
259,18	1259,50
259,40	1333,23
259,62	1286,12
259,83	1345,52
260,05	1310,70
260,27	1261,55
260,48	1243,12
260,70	1175,53
260,92	1398,76
261,13	1253,36
261,35	1226,73
261,57	1302,51
261,78	1243,12
262,00	1318,89
262,22	1265,64
262,43	1316,84
262,65	1165,29
262,86	1288,17
263,08	1325,04
263,30	1189,87
263,51	1210,35
263,73	1210,35
263,95	1279,98
264,16	1226,73
264,38	1259,50
264,60	1318,89
264,81	1259,50
265,03	1239,02
265,25	1210,35
265,46	1224,69
265,68	1310,70
265,89	1282,03
266,11	1292,27
266,33	1263,60
266,54	1296,36
266,76	1318,89
266,98	1306,60
267,19	1343,47
267,41	1269,74
267,62	1245,16
267,84	1202,16
268,06	1214,45
268,27	1308,65
268,49	1304,56
268,70	1306,60
268,92	1275,88
269,14	1269,74
269,35	1286,12
269,57	1302,51
269,79	1347,56
270,00	1191,92
270,22	1306,60
270,43	1273,84
270,65	1306,60
270,87	1304,56
271,08	1249,26
271,30	1277,93
271,51	1308,65
271,73	1302,51
271,95	1251,31
272,16	1349,61
272,38	1222,64
272,59	1322,99
272,81	1306,60
273,02	1308,65
273,24	1216,49
273,46	1261,55
273,67	1218,54
273,89	1216,49
274,10	1271,79
274,32	1298,41
274,54	1277,93
274,75	1300,46
274,97	1282,03
275,18	1239,02
275,40	1335,28
275,61	1163,25
275,83	1292,27
276,05	1245,16
276,26	1296,36
276,48	1198,06
276,69	1288,17
276,91	1298,41
277,12	1265,64
277,34	1228,78
277,55	1284,08
277,77	1245,16
277,99	1261,55
278,20	1286,12
278,42	1251,31
278,63	1271,79
278,85	1294,32
279,06	1275,88
279,28	1263,60
279,49	1249,26
279,71	1312,75
279,93	1286,12
280,14	1255,40
280,36	1200,11
280,57	1286,12
280,79	1327,08
281,00	1347,56
281,22	1214,45
281,43	1310,70
281,65	1257,45
281,86	1226,73
282,08	1212,40
282,29	1333,23
282,51	1253,36
282,73	1312,75
282,94	1288,17
283,16	1269,74
283,37	1284,08
283,59	1261,55
283,80	1302,51
284,02	1257,45
284,23	1279,98
284,45	1296,36
284,66	1269,74
284,88	1265,64
285,09	1290,22
285,31	1257,45
285,52	1284,08
285,74	1275,88
285,95	1308,65
286,17	1279,98
286,38	1292,27
286,60	1310,70
286,81	1288,17
287,03	1224,69
287,24	1322,99
287,46	1337,32
287,67	1302,51
287,89	1259,50
288,10	1167,34
288,32	1261,55
288,53	1269,74
288,75	1292,27
288,96	1210,35
289,18	1288,17
289,39	1302,51
289,61	1288,17
289,82	1282,03
290,04	1306,60
290,25	1345,52
290,47	1296,36
290,68	1312,75
290,90	1265,64
291,11	1214,45
291,33	1304,56
291,54	1239,02
291,76	1175,53
291,97	1282,03
292,18	1228,78
292,40	1222,64
292,61	1261,55
292,83	1310,70
293,04	1261,55
293,26	1296,36
293,47	1259,50
293,69	1267,69
293,90	1263,60
294,12	1224,69
294,33	1265,64
294,55	1247,21
294,76	1314,80
294,97	1300,46
295,19	1290,22
295,40	1275,88
295,62	1269,74
295,83	1286,12
296,05	1279,98
296,26	1306,60
296,48	1282,03
296,69	1306,60
296,90	1253,36
297,12	1241,07
297,33	1255,40
297,55	1271,79
297,76	1265,64
297,98	1193,97
298,19	1216,49
298,41	1261,55
298,62	1279,98
298,83	1253,36
299,05	1239,02
299,26	1314,80
299,48	1296,36
299,69	1245,16
299,90	1181,68
300,12	1214,45
300,33	1271,79
300,55	1355,76
300,76	1312,75
300,98	1216,49
301,19	1296,36
301,40	1247,21
301,62	1255,40
301,83	1241,07
302,05	1290,22
302,26	1314,80
302,47	1294,32
302,69	1265,64
302,90	1261,55
303,12	1220,59
303,33	1259,50
303,54	1249,26
303,76	1273,84
303,97	1302,51
304,19	1259,50
304,40	1302,51
304,61	1263,60
304,83	1253,36
305,04	1261,55
305,26	1224,69
305,47	1220,59
305,68	1212,40
305,90	1249,26
306,11	1333,23
306,33	1249,26
306,54	1294,32
306,75	1243,12
306,97	1316,84
307,18	1230,83
307,39	1236,97
307,61	1288,17
307,82	1243,12
308,04	1263,60
308,25	1279,98
308,46	1288,17
308,68	1290,22
308,89	1216,49
309,10	1243,12
309,32	1282,03
309,53	1316,84
309,74	1304,56
309,96	1245,16
310,17	1210,35
310,39	1245,16
310,60	1175,53
310,81	1269,74
311,03	1286,12
311,24	1296,36
311,45	1265,64
311,67	1261,55
311,88	1290,22
312,09	1247,21
312,31	1173,49
312,52	1261,55
312,73	1224,69
312,95	1269,74
313,16	1253,36
313,37	1286,12
313,59	1314,80
313,80	1322,99
314,01	1206,25
314,23	1322,99
314,44	1226,73
314,65	1284,08
314,87	1249,26
315,08	1279,98
315,29	1284,08
315,51	1214,45
315,72	1228,78
315,93	1327,08
316,15	1298,41
316,36	1343,47
316,57	1286,12
316,79	1366,00
317,00	1288,17
317,21	1224,69
317,43	1298,41
317,64	1308,65
317,85	1228,78
318,07	1273,84
318,28	1277,93
318,49	1294,32
318,70	1243,12
318,92	1257,45
319,13	1277,93
319,34	1245,16
319,56	1257,45
319,77	1327,08
319,98	1300,46
320,20	1239,02
320,41	1259,50
320,62	1236,97
320,83	1243,12
321,05	1329,13
321,26	1294,32
321,47	1265,64
321,69	1230,83
321,90	1239,02
322,11	1232,88
322,32	1224,69
322,54	1273,84
322,75	1226,73
322,96	1304,56
323,18	1279,98
323,39	1255,40
323,60	1236,97
323,81	1292,27
324,03	1282,03
324,24	1263,60
324,45	1253,36
324,66	1214,45
324,88	1327,08
325,09	1325,04
325,30	1316,84
325,52	1243,12
325,73	1290,22
325,94	1292,27
326,15	1259,50
326,37	1296,36
326,58	1370,09
326,79	1314,80
327,00	1265,64
327,22	1236,97
327,43	1288,17
327,64	1263,60
327,85	1239,02
328,07	1243,12
328,28	1339,37
328,49	1261,55
328,70	1253,36
328,92	1236,97
329,13	1239,02
329,34	1288,17
329,55	1249,26
329,76	1243,12
329,98	1316,84
330,19	1275,88
330,40	1290,22
330,61	1277,93
330,83	1228,78
331,04	1220,59
331,25	1341,42
331,46	1216,49
331,68	1306,60
331,89	1290,22
332,10	1216,49
332,31	1249,26
332,52	1196,01
332,74	1314,80
332,95	1318,89
333,16	1239,02
333,37	1288,17
333,58	1357,80
333,80	1216,49
334,01	1189,87
334,22	1263,60
334,43	1329,13
334,64	1279,98
334,86	1294,32
335,07	1257,45
335,28	1271,79
335,49	1245,16
335,70	1279,98
335,92	1296,36
336,13	1273,84
336,34	1196,01
336,55	1302,51
336,76	1279,98
336,98	1304,56
337,19	1224,69
337,40	1384,43
337,61	1310,70
337,82	1245,16
338,04	1210,35
338,25	1200,11
338,46	1228,78
338,67	1265,64
338,88	1263,60
339,09	1341,42
339,31	1267,69
339,52	1247,21
339,73	1239,02
339,94	1255,40
340,15	1247,21
340,36	1259,50
340,58	1241,07
340,79	1318,89
341,00	1282,03
341,21	1320,94
341,42	1290,22
341,63	1273,84
341,85	1298,41
342,06	1253,36
342,27	1261,55
342,48	1247,21
342,69	1284,08
342,90	1239,02
343,12	1263,60
343,33	1228,78
343,54	1257,45
343,75	1318,89
343,96	1169,39
344,17	1271,79
344,38	1288,17
344,60	1261,55
344,81	1234,93
345,02	1271,79
345,23	1320,94
345,44	1296,36
345,65	1271,79
345,86	1322,99
346,07	1341,42
346,29	1300,46
346,50	1341,42
346,71	1249,26
346,92	1212,40
347,13	1234,93
347,34	1327,08
347,55	1320,94
347,76	1220,59
347,98	1232,88
348,19	1183,73
348,40	1288,17
348,61	1247,21
348,82	1282,03
349,03	1245,16
349,24	1347,56
349,45	1245,16
349,66	1247,21
349,88	1249,26
350,09	1290,22
350,30	1296,36
350,51	1310,70
350,72	1275,88
350,93	1304,56
351,14	1351,66
351,35	1232,88
351,56	1255,40
351,77	1220,59
351,99	1232,88
352,20	1220,59
352,41	1296,36
352,62	1198,06
352,83	1267,69
353,04	1224,69
353,25	1243,12
353,46	1306,60
353,67	1298,41
353,88	1220,59
354,09	1236,97
354,30	1253,36
354,52	1234,93
354,73	1226,73
354,94	1327,08
355,15	1273,84
355,36	1298,41
355,57	1302,51
355,78	1191,92
355,99	1296,36
356,20	1277,93
356,41	1220,59
356,62	1247,21
356,83	1304,56
357,04	1236,97
357,25	1257,45
357,46	1196,01
357,68	1279,98
357,89	1331,18
358,10	1253,36
358,31	1316,84
358,52	1265,64
358,73	1226,73
358,94	1247,21
359,15	1218,54
359,36	1261,55
359,57	1271,79
359,78	1220,59
359,99	1265,64
360,20	1275,88
360,41	1230,83
360,62	1265,64
360,83	1241,07
361,04	1310,70
361,25	1251,31
361,46	1249,26
361,67	1247,21
361,88	1277,93
362,09	1247,21
362,30	1255,40
362,51	1263,60
362,72	1290,22
362,93	1234,93
363,14	1320,94
363,35	1183,73
363,56	1232,88
363,78	1277,93
363,99	1273,84
364,20	1216,49
364,41	1288,17
364,62	1288,17
364,83	1322,99
365,04	1220,59
365,25	1257,45
365,46	1304,56
365,67	1251,31
365,88	1259,50
366,09	1316,84
366,30	1212,40
366,51	1273,84
366,72	1230,83
366,93	1318,89
367,14	1282,03
367,35	1232,88
367,56	1253,36
367,77	1230,83
367,98	1343,47
368,18	1263,60
368,39	1304,56
368,60	1337,32
368,81	1290,22
369,02	1300,46
369,23	1310,70
369,44	1279,98
369,65	1259,50
369,86	1296,36
370,07	1236,97
370,28	1255,40
370,49	1269,74
370,70	1263,60
370,91	1224,69
371,12	1212,40
371,33	1255,40
371,54	1228,78
371,75	1245,16
371,96	1329,13
372,17	1279,98
372,38	1259,50
372,59	1290,22
372,80	1267,69
373,01	1255,40
373,22	1206,25
373,43	1228,78
373,64	1241,07
373,85	1304,56
374,06	1314,80
374,26	1249,26
374,47	1247,21
374,68	1239,02
374,89	1257,45
375,10	1265,64
375,31	1312,75
375,52	1261,55
375,73	1275,88
375,94	1271,79
376,15	1271,79
376,36	1310,70
376,57	1259,50
376,78	1159,15
376,99	1279,98
377,20	1271,79
377,40	1232,88
377,61	1288,17
377,82	1253,36
378,03	1259,50
378,24	1265,64
378,45	1171,44
378,66	1247,21
378,87	1263,60
379,08	1271,79
379,29	1308,65
379,50	1288,17
379,71	1304,56
379,91	1232,88
380,12	1179,63
380,33	1298,41
380,54	1282,03
380,75	1275,88
380,96	1218,54
381,17	1236,97
381,38	1206,25
381,59	1282,03
381,80	1251,31
382,00	1249,26
382,21	1249,26
382,42	1275,88
382,63	1255,40
382,84	1249,26
383,05	1253,36
383,26	1316,84
383,47	1314,80
383,68	1288,17
383,88	1216,49
384,09	1282,03
384,30	1269,74
384,51	1331,18
384,72	1253,36
384,93	1296,36
385,14	1212,40
385,35	1220,59
385,55	1333,23
385,76	1298,41
385,97	1302,51
386,18	1273,84
386,39	1288,17
386,60	1277,93
386,81	1331,18
387,02	1234,93
387,22	1277,93
387,43	1275,88
387,64	1271,79
387,85	1257,45
388,06	1265,64
388,27	1279,98
388,48	1249,26
388,68	1257,45
388,89	1306,60
389,10	1312,75
389,31	1318,89
389,52	1275,88
389,73	1259,50
389,93	1224,69
390,14	1265,64
390,35	1296,36
390,56	1298,41
390,77	1257,45
390,98	1214,45
391,18	1290,22
391,39	1261,55
391,60	1279,98
391,81	1263,60
392,02	1249,26
392,23	1298,41
392,43	1290,22
392,64	1286,12
392,85	1249,26
393,06	1325,04
393,27	1228,78
393,47	1296,36
393,68	1290,22
393,89	1214,45
394,10	1284,08
394,31	1210,35
394,52	1191,92
394,72	1245,16
394,93	1275,88
395,14	1257,45
395,35	1290,22
395,56	1304,56
395,76	1290,22
395,97	1222,64
396,18	1210,35
396,39	1322,99
396,60	1290,22
396,80	1269,74
397,01	1366,00
397,22	1257,45
397,43	1265,64
397,64	1259,50
397,84	1318,89
398,05	1331,18
398,26	1226,73
398,47	1282,03
398,67	1304,56
398,88	1269,74
399,09	1331,18
399,30	1273,84
399,51	1331,18
399,71	1210,35
399,92	1304,56
400,13	1296,36
400,34	1277,93
400,54	1249,26
400,75	1273,84
400,96	1279,98
401,17	1349,61
401,37	1337,32
401,58	1288,17
401,79	1263,60
402,00	1234,93
402,21	1269,74
402,41	1306,60
402,62	1292,27
402,83	1271,79
403,04	1288,17
403,24	1263,60
403,45	1284,08
403,66	1245,16
403,87	1241,07
404,07	1288,17
404,28	1241,07
404,49	1257,45
404,70	1255,40
404,90	1220,59
405,11	1337,32
405,32	1224,69
405,52	1183,73
405,73	1263,60
405,94	1265,64
406,15	1286,12
406,35	1224,69
406,56	1228,78
406,77	1253,36
406,98	1314,80
407,18	1320,94
407,39	1300,46
407,60	1212,40
407,80	1249,26
408,01	1279,98
408,22	1286,12
408,43	1265,64
408,63	1300,46
408,84	1310,70
409,05	1284,08
409,25	1269,74
409,46	1320,94
409,67	1212,40
409,88	1331,18
410,08	1253,36
410,29	1304,56
410,50	1218,54
410,70	1286,12
410,91	1292,27
411,12	1273,84
411,32	1241,07
411,53	1239,02
411,74	1271,79
411,95	1263,60
412,15	1255,40
412,36	1277,93
412,57	1232,88
412,77	1329,13
412,98	1286,12
413,19	1263,60
413,39	1259,50
413,60	1316,84
413,81	1210,35
414,01	1222,64
414,22	1284,08
414,43	1257,45
414,63	1232,88
414,84	1255,40
415,05	1267,69
415,25	1255,40
415,46	1267,69
415,67	1320,94
415,87	1271,79
416,08	1251,31
416,29	1245,16
416,49	1251,31
416,70	1277,93
416,91	1300,46
417,11	1230,83
417,32	1255,40
417,53	1331,18
417,73	1304,56
417,94	1279,98
418,15	1294,32
418,35	1224,69
418,56	1257,45
418,77	1337,32
418,97	1255,40
419,18	1296,36
419,38	1292,27
419,59	1300,46
419,80	1216,49
420,00	1275,88
420,21	1265,64
420,42	1232,88
420,62	1265,64
420,83	1255,40
421,04	1271,79
421,24	1282,03
421,45	1224,69
421,65	1290,22
421,86	1267,69
422,07	1279,98
422,27	1292,27
422,48	1279,98
422,69	1265,64
422,89	1286,12
423,10	1306,60
423,30	1261,55
423,51	1245,16
423,72	1241,07
423,92	1204,21
424,13	1243,12
424,33	1331,18
424,54	1253,36
424,75	1292,27
424,95	1224,69
425,16	1241,07
425,36	1247,21
425,57	1257,45
425,78	1294,32
425,98	1241,07
426,19	1212,40
426,39	1279,98
426,60	1216,49
426,81	1232,88
427,01	1318,89
427,22	1314,80
427,42	1298,41
427,63	1200,11
427,83	1267,69
428,04	1259,50
428,25	1327,08
428,45	1183,73
428,66	1279,98
428,86	1261,55
429,07	1189,87
429,28	1257,45
429,48	1273,84
429,69	1296,36
429,89	1265,64
430,10	1253,36
430,30	1333,23
430,51	1249,26
430,71	1230,83
430,92	1241,07
431,13	1318,89
431,33	1255,40
431,54	1220,59
431,74	1245,16
431,95	1234,93
432,15	1284,08
432,36	1269,74
432,56	1294,32
432,77	1286,12
432,98	1253,36
433,18	1279,98
433,39	1347,56
433,59	1263,60
433,80	1232,88
434,00	1286,12
434,21	1257,45
434,41	1302,51
434,62	1247,21
434,82	1277,93
435,03	1325,04
435,23	1243,12
435,44	1298,41
435,64	1275,88
435,85	1214,45
436,06	1271,79
436,26	1284,08
436,47	1363,95
436,67	1251,31
436,88	1259,50
437,08	1304,56
437,29	1298,41
437,49	1300,46
437,70	1294,32
437,90	1273,84
438,11	1259,50
438,31	1255,40
438,52	1220,59
438,72	1314,80
438,93	1302,51
439,13	1251,31
439,34	1245,16
439,54	1271,79
439,75	1277,93
439,95	1183,73
440,16	1277,93
440,36	1243,12
440,57	1271,79
440,77	1263,60
440,98	1282,03
441,18	1325,04
441,39	1236,97
441,59	1316,84
441,80	1316,84
442,00	1273,84
442,21	1228,78
442,41	1312,75
442,62	1327,08
442,82	1251,31
443,02	1247,21
443,23	1298,41
443,43	1218,54
443,64	1257,45
443,84	1292,27
444,05	1224,69
444,25	1253,36
444,46	1253,36
444,66	1351,66
444,87	1265,64
445,07	1267,69
445,28	1230,83
445,48	1230,83
445,69	1255,40
445,89	1384,43
446,09	1296,36
446,30	1308,65
446,50	1294,32
446,71	1163,25
446,91	1259,50
447,12	1236,97
447,32	1290,22
447,53	1243,12
447,73	1282,03
447,93	1310,70
448,14	1275,88
448,34	1322,99
448,55	1214,45
448,75	1249,26
448,96	1320,94
449,16	1290,22
449,36	1279,98
449,57	1247,21
449,77	1294,32
449,98	1265,64
450,18	1245,16
450,39	1292,27
450,59	1261,55
450,79	1243,12
451,00	1249,26
451,20	1206,25
451,41	1300,46
451,61	1286,12
451,81	1267,69
452,02	1255,40
452,22	1245,16
452,43	1296,36
452,63	1253,36
452,84	1239,02
453,04	1234,93
453,24	1243,12
453,45	1163,25
453,65	1292,27
453,86	1239,02
454,06	1320,94
454,26	1251,31
454,47	1263,60
454,67	1234,93
454,87	1249,26
455,08	1257,45
455,28	1318,89
455,49	1306,60
455,69	1292,27
455,89	1298,41
456,10	1290,22
456,30	1282,03
456,51	1351,66
456,71	1286,12
456,91	1239,02
457,12	1212,40
457,32	1267,69
457,52	1269,74
457,73	1298,41
457,93	1290,22
458,14	1232,88
458,34	1284,08
458,54	1247,21
458,75	1339,37
458,95	1222,64
459,15	1232,88
459,36	1253,36
459,56	1273,84
459,76	1224,69
459,97	1232,88
460,17	1253,36
460,37	1255,40
460,58	1251,31
460,78	1275,88
460,99	1318,89
461,19	1253,36
461,39	1263,60
461,60	1306,60
461,80	1345,52
462,00	1406,95
462,21	1325,04
462,41	1310,70
462,61	1214,45
462,82	1312,75
463,02	1310,70
463,22	1222,64
463,43	1236,97
463,63	1261,55
463,83	1290,22
464,04	1286,12
464,24	1234,93
464,44	1277,93
464,64	1245,16
464,85	1329,13
465,05	1259,50
465,25	1243,12
465,46	1202,16
465,66	1288,17
465,86	1243,12
466,07	1284,08
466,27	1286,12
466,47	1220,59
466,68	1259,50
466,88	1228,78
467,08	1265,64
467,29	1253,36
467,49	1208,30
467,69	1261,55
467,89	1267,69
468,10	1302,51
468,30	1288,17
468,50	1282,03
468,71	1267,69
468,91	1296,36
469,11	1345,52
469,31	1251,31
469,52	1243,12
469,72	1306,60
469,92	1269,74
470,13	1320,94
470,33	1290,22
470,53	1261,55
470,73	1185,77
470,94	1243,12
471,14	1226,73
471,34	1290,22
471,54	1249,26
471,75	1327,08
471,95	1255,40
472,15	1220,59
472,36	1298,41
472,56	1259,50
472,76	1263,60
472,96	1286,12
473,17	1263,60
473,37	1210,35
473,57	1320,94
473,77	1220,59
473,98	1255,40
474,18	1210,35
474,38	1214,45
474,58	1325,04
474,79	1275,88
474,99	1263,60
475,19	1312,75
475,39	1249,26
475,60	1249,26
475,80	1267,69
476,00	1271,79
476,20	1288,17
476,41	1333,23
476,61	1271,79
476,81	1261,55
477,01	1290,22
477,21	1265,64
477,42	1286,12
477,62	1327,08
477,82	1224,69
478,02	1265,64
478,23	1296,36
478,43	1239,02
478,63	1273,84
478,83	1290,22
479,03	1255,40
479,24	1284,08
479,44	1288,17
479,64	1232,88
479,84	1279,98
480,04	1296,36
480,25	1265,64
480,45	1247,21
480,65	1220,59
480,85	1282,03
481,06	1265,64
481,26	1245,16
481,46	1255,40
481,66	1277,93
481,86	1329,13
482,06	1218,54
482,27	1296,36
482,47	1294,32
482,67	1298,41
482,87	1339,37
483,07	1279,98
483,28	1257,45
483,48	1257,45
483,68	1230,83
483,88	1249,26
484,08	1267,69
484,29	1222,64
484,49	1304,56
484,69	1220,59
484,89	1275,88
485,09	1271,79
485,29	1245,16
485,50	1290,22
485,70	1224,69
485,90	1314,80
486,10	1353,71
486,30	1245,16
486,50	1257,45
486,71	1196,01
486,91	1214,45
487,11	1200,11
487,31	1198,06
487,51	1304,56
487,71	1269,74
487,91	1286,12
488,12	1216,49
488,32	1232,88
488,52	1167,34
488,72	1179,63
488,92	1236,97
489,12	1175,53
489,32	1236,97
489,53	1277,93
489,73	1271,79
489,93	1306,60
490,13	1226,73
490,33	1261,55
490,53	1318,89
490,73	1259,50
490,94	1257,45
491,14	1257,45
491,34	1236,97
491,54	1208,30
491,74	1241,07
491,94	1230,83
492,14	1259,50
492,34	1286,12
492,54	1263,60
492,75	1298,41
492,95	1290,22
493,15	1296,36
493,35	1251,31
493,55	1271,79
493,75	1265,64
493,95	1273,84
494,15	1275,88
494,35	1265,64
494,56	1249,26
494,76	1273,84
494,96	1335,28
495,16	1304,56
495,36	1298,41
495,56	1339,37
495,76	1294,32
495,96	1249,26
496,16	1234,93
496,36	1214,45
496,56	1228,78
496,77	1249,26
496,97	1263,60
497,17	1271,79
497,37	1290,22
497,57	1243,12
497,77	1284,08
497,97	1294,32
498,17	1191,92
498,37	1230,83
498,57	1273,84
498,77	1253,36
498,97	1277,93
499,17	1279,98
499,38	1259,50
499,58	1288,17
499,78	1271,79
499,98	1282,03
500,18	1312,75
500,38	1206,25
500,58	1286,12
500,78	1234,93
500,98	1241,07
501,18	1290,22
501,38	1327,08
501,58	1286,12
501,78	1290,22
501,98	1298,41
502,18	1282,03
502,38	1230,83
502,58	1273,84
502,78	1298,41
502,98	1241,07
503,18	1331,18
503,38	1179,63
503,59	1306,60
503,79	1347,56
503,99	1261,55
504,19	1259,50
504,39	1335,28
504,59	1249,26
504,79	1249,26
504,99	1320,94
505,19	1298,41
505,39	1208,30
505,59	1173,49
505,79	1286,12
505,99	1243,12
506,19	1261,55
506,39	1286,12
506,59	1310,70
506,79	1288,17
506,99	1236,97
507,19	1273,84
507,39	1224,69
507,59	1282,03
507,79	1245,16
507,99	1296,36
508,19	1304,56
508,39	1288,17
508,59	1198,06
508,79	1257,45
508,99	1247,21
509,19	1279,98
509,39	1159,15
509,59	1243,12
509,79	1239,02
509,99	1212,40
510,19	1271,79
510,39	1230,83
510,59	1275,88
510,79	1310,70
510,99	1288,17
511,19	1210,35
511,39	1228,78
511,59	1286,12
511,79	1251,31
511,99	1196,01
512,19	1284,08
512,38	1288,17
512,58	1269,74
512,78	1331,18
512,98	1267,69
513,18	1271,79
513,38	1310,70
513,58	1241,07
513,78	1200,11
513,98	1193,97
514,18	1286,12
514,38	1273,84
514,58	1308,65
514,78	1222,64
514,98	1296,36
515,18	1269,74
515,38	1267,69
515,58	1202,16
515,78	1232,88
515,98	1304,56
516,18	1241,07
516,38	1232,88
516,57	1261,55
516,77	1204,21
516,97	1236,97
517,17	1284,08
517,37	1204,21
517,57	1247,21
517,77	1196,01
517,97	1198,06
518,17	1310,70
518,37	1329,13
518,57	1257,45
518,77	1275,88
518,97	1298,41
519,16	1304,56
519,36	1216,49
519,56	1249,26
519,76	1224,69
519,96	1320,94
520,16	1314,80
520,36	1243,12
520,56	1220,59
520,76	1263,60
520,96	1251,31
521,16	1232,88
521,35	1241,07
521,55	1337,32
521,75	1263,60
521,95	1269,74
522,15	1228,78
522,35	1255,40
522,55	1208,30
522,75	1271,79
522,95	1296,36
523,14	1318,89
523,34	1247,21
523,54	1316,84
523,74	1273,84
523,94	1265,64
524,14	1228,78
524,34	1277,93
524,54	1282,03
524,73	1249,26
524,93	1290,22
525,13	1247,21
525,33	1255,40
525,53	1253,36
525,73	1224,69
525,93	1273,84
526,13	1290,22
526,32	1251,31
526,52	1296,36
526,72	1271,79
526,92	1267,69
527,12	1271,79
527,32	1218,54
527,52	1296,36
527,71	1288,17
527,91	1279,98
528,11	1243,12
528,31	1329,13
528,51	1271,79
528,71	1251,31
528,90	1224,69
529,10	1265,64
529,30	1206,25
529,50	1263,60
529,70	1269,74
529,90	1255,40
530,09	1261,55
530,29	1261,55
530,49	1275,88
530,69	1275,88
530,89	1273,84
531,09	1320,94
531,28	1171,44
531,48	1277,93
531,68	1243,12
531,88	1241,07
532,08	1290,22
532,28	1236,97
532,47	1214,45
532,67	1279,98
532,87	1241,07
533,07	1253,36
533,27	1322,99
533,46	1320,94
533,66	1298,41
533,86	1255,40
534,06	1243,12
534,26	1286,12
534,45	1204,21
534,65	1306,60
534,85	1265,64
535,05	1282,03
535,25	1169,39
535,44	1316,84
535,64	1236,97
535,84	1292,27
536,04	1331,18
536,24	1200,11
536,43	1171,44
536,63	1345,52
536,83	1239,02
537,03	1165,29
537,22	1247,21
537,42	1196,01
537,62	1275,88
537,82	1318,89
538,02	1226,73
538,21	1206,25
538,41	1300,46
538,61	1263,60
538,81	1208,30
539,00	1273,84
539,20	1263,60
539,40	1282,03
539,60	1318,89
539,79	1232,88
539,99	1200,11
540,19	1331,18
540,39	1271,79
540,58	1294,32
540,78	1337,32
540,98	1249,26
541,18	1329,13
541,37	1224,69
541,57	1290,22
541,77	1277,93
541,97	1316,84
542,16	1282,03
542,36	1300,46
542,56	1282,03
542,76	1277,93
542,95	1318,89
543,15	1218,54
543,35	1255,40
543,54	1302,51
543,74	1267,69
543,94	1210,35
544,14	1269,74
544,33	1275,88
544,53	1234,93
544,73	1243,12
544,93	1284,08
545,12	1243,12
545,32	1234,93
545,52	1261,55
545,71	1275,88
545,91	1247,21
546,11	1304,56
546,30	1245,16
546,50	1261,55
546,70	1290,22
546,90	1251,31
547,09	1267,69
547,29	1298,41
547,49	1267,69
547,68	1255,40
547,88	1269,74
548,08	1163,25
548,27	1296,36
548,47	1337,32
548,67	1214,45
548,87	1271,79
549,06	1232,88
549,26	1271,79
549,46	1292,27
549,65	1308,65
549,85	1304,56
550,05	1294,32
550,24	1247,21
550,44	1304,56
550,64	1261,55
550,83	1271,79
551,03	1302,51
551,23	1380,33
551,42	1263,60
551,62	1249,26
551,82	1241,07
552,01	1277,93
552,21	1261,55
552,41	1241,07
552,60	1259,50
552,80	1226,73
553,00	1290,22
553,19	1284,08
553,39	1255,40
553,59	1165,29
553,78	1245,16
553,98	1282,03
554,17	1275,88
554,37	1296,36
554,57	1200,11
554,76	1298,41
554,96	1273,84
555,16	1294,32
555,35	1173,49
555,55	1259,50
555,75	1355,76
555,94	1300,46
556,14	1236,97
556,33	1267,69
556,53	1259,50
556,73	1257,45
556,92	1288,17
557,12	1286,12
557,32	1337,32
557,51	1353,71
557,71	1269,74
557,90	1314,80
558,10	1196,01
558,30	1243,12
558,49	1241,07
558,69	1298,41
558,88	1228,78
559,08	1206,25
559,28	1277,93
559,47	1257,45
559,67	1241,07
559,86	1290,22
560,06	1282,03
560,26	1345,52
560,45	1314,80
560,65	1210,35
560,84	1253,36
561,04	1304,56
561,24	1236,97
561,43	1259,50
561,63	1290,22
561,82	1206,25
562,02	1277,93
562,22	1282,03
562,41	1251,31
562,61	1222,64
562,80	1265,64
563,00	1251,31
563,19	1263,60
563,39	1224,69
563,59	1269,74
563,78	1282,03
563,98	1269,74
564,17	1265,64
564,37	1282,03
564,56	1290,22
564,76	1216,49
564,96	1329,13
565,15	1284,08
565,35	1208,30
565,54	1288,17
565,74	1286,12
565,93	1279,98
566,13	1257,45
566,32	1241,07
566,52	1312,75
566,71	1277,93
566,91	1322,99
567,11	1282,03
567,30	1337,32
567,50	1230,83
567,69	1298,41
567,89	1226,73
568,08	1236,97
568,28	1179,63
568,47	1216,49
568,67	1241,07
568,86	1245,16
569,06	1302,51
569,25	1243,12
569,45	1202,16
569,64	1196,01
569,84	1273,84
570,04	1300,46
570,23	1253,36
570,43	1306,60
570,62	1153,01
570,82	1230,83
571,01	1271,79
571,21	1282,03
571,40	1214,45
571,60	1286,12
571,79	1292,27
571,99	1269,74
572,18	1234,93
572,38	1314,80
572,57	1265,64
572,77	1286,12
572,96	1304,56
573,16	1251,31
573,35	1234,93
573,55	1236,97
573,74	1255,40
573,94	1218,54
574,13	1216,49
574,33	1208,30
574,52	1277,93
574,71	1271,79
574,91	1228,78
575,10	1206,25
575,30	1228,78
575,49	1249,26
575,69	1288,17
575,88	1310,70
576,08	1296,36
576,27	1312,75
576,47	1275,88
576,66	1271,79
576,86	1253,36
577,05	1263,60
577,25	1337,32
577,44	1265,64
577,64	1247,21
577,83	1273,84
578,02	1255,40
578,22	1279,98
578,41	1298,41
578,61	1271,79
578,80	1277,93
579,00	1294,32
579,19	1241,07
579,39	1327,08
579,58	1314,80
579,77	1306,60
579,97	1208,30
580,16	1294,32
580,36	1263,60
580,55	1255,40
580,75	1261,55
580,94	1298,41
581,13	1302,51
581,33	1167,34
581,52	1198,06
581,72	1269,74
581,91	1220,59
582,11	1228,78
582,30	1222,64
582,49	1273,84
582,69	1208,30
582,88	1216,49
583,08	1265,64
583,27	1241,07
583,47	1232,88
583,66	1265,64
583,85	1341,42
584,05	1245,16
584,24	1279,98
584,44	1230,83
584,63	1277,93
584,82	1198,06
585,02	1259,50
585,21	1286,12
585,41	1259,50
585,60	1239,02
585,79	1302,51
585,99	1257,45
586,18	1241,07
586,37	1239,02
586,57	1316,84
586,76	1298,41
586,96	1263,60
587,15	1239,02
587,34	1310,70
587,54	1290,22
587,73	1314,80
587,93	1253,36
588,12	1243,12
588,31	1267,69
588,51	1204,21
588,70	1232,88
588,89	1259,50
589,09	1232,88
589,28	1247,21
589,47	1279,98
589,67	1284,08
589,86	1282,03
590,06	1263,60
590,25	1269,74
590,44	1265,64
590,64	1269,74
590,83	1257,45
591,02	1253,36
591,22	1232,88
591,41	1296,36
591,60	1316,84
591,80	1308,65
591,99	1230,83
592,18	1239,02
592,38	1234,93
592,57	1261,55
592,76	1277,93
592,96	1208,30
593,15	1275,88
593,34	1204,21
593,54	1206,25
593,73	1279,98
593,92	1259,50
594,12	1228,78
594,31	1232,88
594,50	1273,84
594,70	1228,78
594,89	1300,46
595,08	1224,69
595,28	1267,69
595,47	1257,45
595,66	1212,40
595,86	1263,60
596,05	1294,32
596,24	1251,31
596,43	1304,56
596,63	1329,13
596,82	1290,22
597,01	1331,18
597,21	1255,40
597,40	1181,68
597,59	1312,75
597,79	1236,97
597,98	1302,51
598,17	1314,80
598,36	1294,32
598,56	1236,97
598,75	1265,64
598,94	1236,97
599,14	1296,36
599,33	1333,23
599,52	1204,21
599,71	1222,64
599,91	1236,97
600,10	1212,40
600,29	1261,55
600,48	1294,32
600,68	1277,93
600,87	1306,60
601,06	1267,69
601,26	1200,11
601,45	1239,02
601,64	1298,41
601,83	1265,64
602,03	1284,08
602,22	1294,32
602,41	1327,08
602,60	1282,03
602,80	1314,80
602,99	1247,21
603,18	1308,65
603,37	1292,27
603,57	1314,80
603,76	1251,31
603,95	1196,01
604,14	1271,79
604,34	1296,36
604,53	1300,46
604,72	1366,00
604,91	1259,50
605,10	1288,17
605,30	1265,64
605,49	1316,84
605,68	1312,75
605,87	1331,18
606,07	1298,41
606,26	1206,25
606,45	1255,40
606,64	1247,21
606,84	1206,25
607,03	1265,64
607,22	1271,79
607,41	1271,79
607,60	1275,88
607,80	1228,78
607,99	1245,16
608,18	1247,21
608,37	1263,60
608,56	1267,69
608,76	1257,45
608,95	1218,54
609,14	1351,66
609,33	1302,51
609,52	1322,99
609,72	1298,41
609,91	1224,69
610,10	1234,93
610,29	1300,46
610,48	1236,97
610,68	1222,64
610,87	1232,88
611,06	1239,02
611,25	1296,36
611,44	1306,60
611,63	1325,04
611,83	1265,64
612,02	1267,69
612,21	1230,83
612,40	1255,40
612,59	1310,70
612,79	1191,92
612,98	1245,16
613,17	1214,45
613,36	1363,95
613,55	1259,50
613,74	1253,36
613,93	1261,55
614,13	1267,69
614,32	1155,05
614,51	1249,26
614,70	1275,88
614,89	1329,13
615,08	1284,08
615,28	1296,36
615,47	1284,08
615,66	1279,98
615,85	1247,21
616,04	1234,93
616,23	1298,41
616,42	1271,79
616,62	1226,73
616,81	1290,22
617,00	1310,70
617,19	1279,98
617,38	1232,88
617,57	1273,84
617,76	1232,88
617,95	1286,12
618,15	1253,36
618,34	1339,37
618,53	1279,98
618,72	1337,32
618,91	1245,16
619,10	1366,00
619,29	1200,11
619,48	1279,98
619,68	1234,93
619,87	1331,18
620,06	1226,73
620,25	1357,80
620,44	1306,60
620,63	1290,22
620,82	1261,55
621,01	1286,12
621,20	1189,87
621,39	1310,70
621,59	1310,70
621,78	1245,16
621,97	1239,02
622,16	1286,12
622,35	1392,62
622,54	1255,40
622,73	1288,17
622,92	1163,25
623,11	1279,98
623,30	1273,84
623,49	1198,06
623,68	1296,36
623,88	1251,31
624,07	1286,12
624,26	1206,25
624,45	1279,98
624,64	1277,93
624,83	1296,36
625,02	1374,19
625,21	1318,89
625,40	1345,52
625,59	1341,42
625,78	1245,16
625,97	1327,08
626,16	1329,13
626,35	1259,50
626,54	1318,89
626,74	1216,49
626,93	1265,64
627,12	1320,94
627,31	1279,98
627,50	1312,75
627,69	1275,88
627,88	1302,51
628,07	1224,69
628,26	1286,12
628,45	1316,84
628,64	1329,13
628,83	1259,50
629,02	1208,30
629,21	1284,08
629,40	1249,26
629,59	1251,31
629,78	1306,60
629,97	1228,78
630,16	1314,80
630,35	1241,07
630,54	1331,18
630,73	1329,13
630,92	1312,75
631,11	1372,14
631,30	1382,38
631,49	1343,47
631,68	1404,91
631,87	1505,26
632,06	1628,14
632,25	1572,84
632,44	1613,80
632,63	1609,70
632,82	1671,14
633,01	1896,42
633,20	1712,10
633,39	1761,25
633,58	1888,23
633,77	1789,92
633,96	1830,88
634,15	1783,78
634,34	1701,86
634,53	1789,92
634,72	1746,92
634,91	1613,80
635,10	1687,53
635,29	1597,42
635,48	1583,08
635,67	1511,40
635,86	1595,37
636,05	1488,87
636,24	1409,00
636,43	1388,52
636,62	1394,67
636,81	1302,51
637,00	1417,19
637,19	1374,19
637,38	1345,52
637,57	1294,32
637,76	1273,84
637,95	1241,07
638,14	1288,17
638,33	1275,88
638,52	1331,18
638,71	1277,93
638,89	1320,94
639,08	1335,28
639,27	1275,88
639,46	1218,54
639,65	1331,18
639,84	1259,50
640,03	1249,26
640,22	1298,41
640,41	1320,94
640,60	1241,07
640,79	1230,83
640,98	1245,16
641,17	1277,93
641,36	1224,69
641,55	1273,84
641,74	1222,64
641,92	1294,32
642,11	1249,26
642,30	1198,06
642,49	1210,35
642,68	1236,97
642,87	1304,56
643,06	1279,98
643,25	1374,19
643,44	1261,55
643,63	1282,03
643,82	1312,75
644,00	1212,40
644,19	1241,07
644,38	1275,88
644,57	1263,60
644,76	1267,69
644,95	1185,77
645,14	1263,60
645,33	1304,56
645,52	1193,97
645,71	1271,79
645,89	1288,17
646,08	1288,17
646,27	1327,08
646,46	1257,45
646,65	1277,93
646,84	1337,32
647,03	1253,36
647,22	1349,61
647,40	1269,74
647,59	1265,64
647,78	1222,64
647,97	1261,55
648,16	1177,58
648,35	1300,46
648,54	1206,25
648,73	1234,93
648,91	1302,51
649,10	1308,65
649,29	1241,07
649,48	1251,31
649,67	1243,12
649,86	1288,17
650,05	1273,84
650,23	1273,84
650,42	1243,12
650,61	1292,27
650,80	1261,55
650,99	1273,84
651,18	1271,79
651,36	1224,69
651,55	1277,93
651,74	1263,60
651,93	1267,69
652,12	1255,40
652,31	1202,16
652,49	1243,12
652,68	1171,44
652,87	1265,64
653,06	1257,45
653,25	1261,55
653,44	1302,51
653,62	1271,79
653,81	1300,46
654,00	1265,64
654,19	1220,59
654,38	1247,21
654,56	1306,60
654,75	1273,84
654,94	1351,66
655,13	1198,06
655,32	1228,78
655,51	1279,98
655,69	1357,80
655,88	1292,27
656,07	1265,64
656,26	1298,41
656,45	1212,40
656,63	1296,36
656,82	1335,28
657,01	1228,78
657,20	1275,88
657,38	1296,36
657,57	1202,16
657,76	1300,46
657,95	1204,21
658,14	1331,18
658,32	1236,97
658,51	1357,80
658,70	1273,84
658,89	1263,60
659,08	1247,21
659,26	1222,64
659,45	1247,21
659,64	1300,46
659,83	1263,60
660,01	1243,12
660,20	1306,60
660,39	1316,84
660,58	1306,60
660,76	1271,79
660,95	1300,46
661,14	1216,49
661,33	1228,78
661,51	1304,56
661,70	1286,12
661,89	1200,11
662,08	1318,89
662,26	1277,93
662,45	1279,98
662,64	1316,84
662,83	1284,08
663,01	1292,27
663,20	1304,56
663,39	1232,88
663,58	1261,55
663,76	1234,93
663,95	1370,09
664,14	1316,84
664,32	1282,03
664,51	1228,78
664,70	1267,69
664,89	1259,50
665,07	1269,74
665,26	1282,03
665,45	1363,95
665,64	1269,74
665,82	1212,40
666,01	1175,53
666,20	1322,99
666,38	1200,11
666,57	1265,64
666,76	1253,36
666,95	1187,82
667,13	1347,56
667,32	1234,93
667,51	1253,36
667,69	1339,37
667,88	1236,97
668,07	1236,97
668,25	1253,36
668,44	1277,93
668,63	1243,12
668,81	1363,95
669,00	1183,73
669,19	1277,93
669,38	1220,59
669,56	1316,84
669,75	1290,22
669,94	1296,36
670,12	1277,93
670,31	1255,40
670,50	1277,93
670,68	1232,88
670,87	1249,26
671,06	1316,84
671,24	1314,80
671,43	1296,36
671,62	1277,93
671,80	1241,07
671,99	1206,25
672,18	1247,21
672,36	1273,84
672,55	1290,22
672,74	1300,46
672,92	1239,02
673,11	1273,84
673,29	1222,64
673,48	1214,45
673,67	1296,36
673,85	1296,36
674,04	1259,50
674,23	1263,60
674,41	1243,12
674,60	1196,01
674,79	1298,41
674,97	1277,93
675,16	1271,79
675,34	1341,42
675,53	1218,54
675,72	1312,75
675,90	1259,50
676,09	1337,32
676,28	1179,63
676,46	1232,88
676,65	1255,40
676,83	1265,64
677,02	1292,27
677,21	1222,64
677,39	1271,79
677,58	1273,84
677,77	1298,41
677,95	1236,97
678,14	1218,54
678,32	1261,55
678,51	1269,74
678,70	1271,79
678,88	1255,40
679,07	1265,64
679,25	1265,64
679,44	1247,21
679,63	1234,93
679,81	1306,60
680,00	1298,41
680,18	1255,40
680,37	1302,51
680,55	1318,89
680,74	1226,73
680,93	1216,49
681,11	1263,60
681,30	1286,12
681,48	1286,12
681,67	1308,65
681,85	1269,74
682,04	1314,80
682,23	1239,02
682,41	1263,60
682,60	1202,16
682,78	1189,87
682,97	1239,02
683,15	1325,04
683,34	1269,74
683,53	1271,79
683,71	1239,02
683,90	1224,69
684,08	1261,55
684,27	1267,69
684,45	1271,79
684,64	1263,60
684,82	1210,35
685,01	1277,93
685,19	1259,50
685,38	1263,60
685,57	1273,84
685,75	1239,02
685,94	1282,03
686,12	1275,88
686,31	1236,97
686,49	1304,56
686,68	1284,08
686,86	1288,17
687,05	1331,18
687,23	1331,18
687,42	1228,78
687,60	1218,54
687,79	1232,88
687,97	1189,87
688,16	1202,16
688,34	1228,78
688,53	1327,08
688,71	1292,27
688,90	1251,31
689,08	1318,89
689,27	1298,41
689,45	1198,06
689,64	1236,97
689,82	1282,03
690,01	1277,93
690,19	1249,26
690,38	1214,45
690,56	1292,27
690,75	1224,69
690,93	1218,54
691,12	1214,45
691,30	1308,65
691,49	1239,02
691,67	1183,73
691,86	1310,70
692,04	1261,55
692,23	1267,69
692,41	1308,65
692,60	1189,87
692,78	1290,22
692,97	1212,40
693,15	1230,83
693,34	1232,88
693,52	1273,84
693,71	1251,31
693,89	1333,23
694,08	1228,78
694,26	1331,18
694,44	1292,27
694,63	1300,46
694,81	1241,07
695,00	1216,49
695,18	1302,51
695,37	1349,61
695,55	1312,75
695,74	1298,41
695,92	1241,07
696,10	1337,32
696,29	1318,89
696,47	1222,64
696,66	1239,02
696,84	1255,40
697,03	1300,46
697,21	1308,65
697,40	1302,51
697,58	1228,78
697,76	1296,36
697,95	1241,07
698,13	1214,45
698,32	1308,65
698,50	1243,12
698,68	1226,73
698,87	1331,18
699,05	1275,88
699,24	1294,32
699,42	1224,69
699,61	1220,59
699,79	1265,64
699,97	1204,21
700,16	1304,56
700,34	1222,64
700,53	1329,13
700,71	1314,80
700,89	1263,60
701,08	1290,22
701,26	1263,60
701,45	1302,51
701,63	1273,84
701,81	1204,21
702,00	1286,12
702,18	1243,12
702,37	1251,31
702,55	1296,36
702,73	1320,94
702,92	1282,03
703,10	1304,56
703,28	1263,60
703,47	1245,16
703,65	1243,12
703,84	1216,49
704,02	1322,99
704,20	1388,52
704,39	1232,88
704,57	1179,63
704,75	1290,22
704,94	1290,22
705,12	1181,68
705,30	1366,00
705,49	1273,84
705,67	1288,17
705,86	1269,74
706,04	1257,45
706,22	1279,98
706,41	1239,02
706,59	1255,40
706,77	1214,45
706,96	1204,21
707,14	1253,36
707,32	1245,16
707,51	1306,60
707,69	1275,88
707,87	1310,70
708,06	1263,60
708,24	1257,45
708,42	1257,45
708,61	1318,89
708,79	1333,23
708,97	1230,83
709,16	1267,69
709,34	1257,45
709,52	1288,17
709,71	1310,70
709,89	1265,64
710,07	1279,98
710,26	1239,02
710,44	1230,83
710,62	1271,79
710,80	1286,12
710,99	1322,99
711,17	1318,89
711,35	1255,40
711,54	1243,12
711,72	1226,73
711,90	1273,84
712,09	1232,88
712,27	1198,06
712,45	1247,21
712,63	1288,17
712,82	1241,07
713,00	1241,07
713,18	1275,88
713,37	1263,60
713,55	1239,02
713,73	1247,21
713,91	1320,94
714,10	1320,94
714,28	1359,85
714,46	1302,51
714,65	1200,11
714,83	1265,64
715,01	1263,60
715,19	1243,12
715,38	1302,51
715,56	1282,03
715,74	1236,97
715,92	1220,59
716,11	1271,79
716,29	1241,07
716,47	1226,73
716,65	1314,80
716,84	1284,08
717,02	1232,88
717,20	1261,55
717,38	1263,60
717,57	1304,56
717,75	1277,93
717,93	1302,51
718,11	1204,21
718,30	1308,65
718,48	1294,32
718,66	1310,70
718,84	1253,36
719,03	1183,73
719,21	1288,17
719,39	1294,32
719,57	1228,78
719,75	1304,56
719,94	1298,41
720,12	1216,49
720,30	1271,79
720,48	1228,78
720,67	1353,71
720,85	1251,31
721,03	1259,50
721,21	1296,36
721,39	1275,88
721,58	1267,69
721,76	1298,41
721,94	1200,11
722,12	1300,46
722,30	1257,45
722,49	1296,36
722,67	1267,69
722,85	1318,89
723,03	1239,02
723,21	1314,80
723,40	1234,93
723,58	1263,60
723,76	1304,56
723,94	1247,21
724,12	1232,88
724,30	1300,46
724,49	1198,06
724,67	1239,02
724,85	1150,96
725,03	1277,93
725,21	1275,88
725,40	1302,51
725,58	1351,66
725,76	1286,12
725,94	1347,56
726,12	1263,60
726,30	1251,31
726,49	1322,99
726,67	1249,26
726,85	1241,07
727,03	1216,49
727,21	1241,07
727,39	1308,65
727,57	1271,79
727,76	1339,37
727,94	1206,25
728,12	1320,94
728,30	1273,84
728,48	1210,35
728,66	1286,12
728,84	1204,21
729,03	1284,08
729,21	1212,40
729,39	1232,88
729,57	1177,58
729,75	1304,56
729,93	1277,93
730,11	1230,83
730,30	1290,22
730,48	1249,26
730,66	1247,21
730,84	1288,17
731,02	1273,84
731,20	1370,09
731,38	1234,93
731,56	1318,89
731,74	1255,40
731,93	1257,45
732,11	1296,36
732,29	1333,23
732,47	1253,36
732,65	1269,74
732,83	1292,27
733,01	1320,94
733,19	1351,66
733,37	1290,22
733,56	1312,75
733,74	1261,55
733,92	1226,73
734,10	1277,93
734,28	1241,07
734,46	1288,17
734,64	1265,64
734,82	1282,03
735,00	1234,93
735,18	1216,49
735,36	1275,88
735,54	1343,47
735,73	1218,54
735,91	1239,02
736,09	1226,73
736,27	1296,36
736,45	1251,31
736,63	1265,64
736,81	1261,55
736,99	1234,93
737,17	1208,30
737,35	1257,45
737,53	1320,94
737,71	1251,31
737,89	1296,36
738,07	1267,69
738,25	1249,26
738,43	1312,75
738,61	1273,84
738,80	1288,17
738,98	1265,64
739,16	1290,22
739,34	1241,07
739,52	1263,60
739,70	1251,31
739,88	1322,99
740,06	1275,88
740,24	1224,69
740,42	1179,63
740,60	1241,07
740,78	1288,17
740,96	1273,84
741,14	1241,07
741,32	1294,32
741,50	1249,26
741,68	1298,41
741,86	1310,70
742,04	1245,16
742,22	1312,75
742,40	1290,22
742,58	1189,87
742,76	1224,69
742,94	1259,50
743,12	1245,16
743,30	1187,82
743,48	1294,32
743,66	1243,12
743,84	1247,21
744,02	1253,36
744,20	1304,56
744,38	1245,16
744,56	1355,76
744,74	1267,69
744,92	1308,65
745,10	1271,79
745,28	1279,98
745,46	1277,93
745,64	1265,64
745,82	1236,97
746,00	1296,36
746,18	1318,89
746,36	1232,88
746,54	1236,97
746,72	1241,07
746,90	1224,69
747,08	1288,17
747,26	1241,07
747,44	1236,97
747,62	1290,22
747,80	1208,30
747,98	1230,83
748,15	1271,79
748,33	1216,49
748,51	1298,41
748,69	1304,56
748,87	1284,08
749,05	1241,07
749,23	1298,41
749,41	1333,23
749,59	1267,69
749,77	1214,45
749,95	1294,32
750,13	1275,88
750,31	1300,46
750,49	1204,21
750,67	1282,03
750,85	1243,12
751,03	1355,76
751,20	1314,80
751,38	1232,88
751,56	1273,84
751,74	1286,12
751,92	1304,56
752,10	1243,12
752,28	1322,99
752,46	1302,51
752,64	1228,78
752,82	1267,69
753,00	1290,22
753,18	1286,12
753,35	1263,60
753,53	1247,21
753,71	1277,93
753,89	1312,75
754,07	1271,79
754,25	1263,60
754,43	1300,46
754,61	1222,64
754,79	1210,35
754,97	1306,60
755,14	1247,21
755,32	1374,19
755,50	1286,12
755,68	1310,70
755,86	1349,61
756,04	1241,07
756,22	1263,60
756,40	1290,22
756,57	1245,16
756,75	1277,93
756,93	1236,97
757,11	1255,40
757,29	1304,56
757,47	1247,21
757,65	1239,02
757,82	1277,93
758,00	1300,46
758,18	1304,56
758,36	1198,06
758,54	1255,40
758,72	1247,21
758,90	1251,31
759,07	1257,45
759,25	1251,31
759,43	1249,26
759,61	1331,18
759,79	1273,84
759,97	1298,41
760,15	1359,85
760,32	1271,79
760,50	1253,36
760,68	1325,04
760,86	1290,22
761,04	1333,23
761,22	1224,69
761,39	1290,22
761,57	1282,03
761,75	1241,07
761,93	1263,60
762,11	1310,70
762,28	1214,45
762,46	1228,78
762,64	1320,94
762,82	1257,45
763,00	1310,70
763,18	1255,40
763,35	1187,82
763,53	1277,93
763,71	1265,64
763,89	1310,70
764,07	1230,83
764,24	1308,65
764,42	1191,92
764,60	1253,36
764,78	1251,31
764,96	1263,60
765,13	1243,12
765,31	1212,40
765,49	1286,12
765,67	1263,60
765,84	1191,92
766,02	1265,64
766,20	1302,51
766,38	1257,45
766,56	1275,88
766,73	1290,22
766,91	1273,84
767,09	1239,02
767,27	1329,13
767,44	1279,98
767,62	1251,31
767,80	1284,08
767,98	1302,51
768,15	1259,50
768,33	1236,97
768,51	1259,50
768,69	1339,37
768,87	1208,30
769,04	1261,55
769,22	1234,93
769,40	1269,74
769,58	1279,98
769,75	1226,73
769,93	1245,16
770,11	1185,77
770,28	1296,36
770,46	1316,84
770,64	1245,16
770,82	1310,70
770,99	1228,78
771,17	1243,12
771,35	1216,49
771,53	1306,60
771,70	1245,16
771,88	1333,23
772,06	1292,27
772,23	1187,82
772,41	1273,84
772,59	1267,69
772,77	1232,88
772,94	1302,51
773,12	1185,77
773,30	1298,41
773,47	1251,31
773,65	1224,69
773,83	1230,83
774,01	1292,27
774,18	1222,64
774,36	1234,93
774,54	1230,83
774,71	1329,13
774,89	1294,32
775,07	1210,35
775,24	1234,93
775,42	1275,88
775,60	1298,41
775,78	1253,36
775,95	1245,16
776,13	1279,98
776,31	1216,49
776,48	1296,36
776,66	1247,21
776,84	1275,88
777,01	1241,07
777,19	1302,51
777,37	1216,49
777,54	1314,80
777,72	1208,30
777,90	1304,56
778,07	1273,84
778,25	1275,88
778,43	1366,00
778,60	1196,01
778,78	1288,17
778,96	1300,46
779,13	1222,64
779,31	1253,36
779,49	1314,80
779,66	1306,60
779,84	1224,69
780,01	1320,94
780,19	1273,84
780,37	1224,69
780,54	1271,79
780,72	1226,73
780,90	1269,74
781,07	1282,03
781,25	1265,64
781,43	1306,60
781,60	1279,98
781,78	1282,03
781,95	1275,88
782,13	1232,88
782,31	1189,87
782,48	1314,80
782,66	1329,13
782,83	1316,84
783,01	1249,26
783,19	1234,93
783,36	1353,71
783,54	1257,45
783,72	1263,60
783,89	1214,45
784,07	1255,40
784,24	1277,93
784,42	1288,17
784,60	1353,71
784,77	1239,02
784,95	1267,69
785,12	1234,93
785,30	1253,36
785,47	1273,84
785,65	1333,23
785,83	1261,55
786,00	1265,64
786,18	1288,17
786,35	1292,27
786,53	1333,23
786,71	1247,21
786,88	1316,84
787,06	1259,50
787,23	1279,98
787,41	1300,46
787,58	1292,27
787,76	1239,02
787,94	1263,60
788,11	1228,78
788,29	1198,06
788,46	1202,16
788,64	1259,50
788,81	1232,88
788,99	1304,56
789,16	1308,65
789,34	1337,32
789,52	1327,08
789,69	1232,88
789,87	1310,70
790,04	1234,93
790,22	1224,69
790,39	1257,45
790,57	1243,12
790,74	1232,88
790,92	1296,36
791,09	1257,45
791,27	1245,16
791,44	1298,41
791,62	1277,93
791,79	1343,47
791,97	1286,12
792,15	1263,60
792,32	1269,74
792,50	1314,80
792,67	1230,83
792,85	1259,50
793,02	1310,70
793,20	1304,56
793,37	1255,40
793,55	1222,64
793,72	1253,36
793,90	1318,89
794,07	1320,94
794,25	1251,31
794,42	1329,13
794,60	1206,25
794,77	1259,50
794,95	1286,12
795,12	1234,93
795,30	1259,50
795,47	1208,30
795,65	1298,41
795,82	1320,94
796,00	1277,93
796,17	1282,03
796,34	1265,64
796,52	1277,93
796,69	1343,47
796,87	1296,36
797,04	1290,22
797,22	1318,89
797,39	1327,08
797,57	1257,45
797,74	1232,88
797,92	1265,64
798,09	1173,49
798,27	1247,21
798,44	1273,84
798,62	1191,92
798,79	1265,64
798,96	1232,88
799,14	1282,03
799,31	1314,80
799,49	1271,79
799,66	1310,70
799,84	1220,59
800,01	1224,69
800,19	1239,02
800,36	1292,27
800,53	1345,52
800,71	1202,16
800,88	1292,27
801,06	1239,02
801,23	1249,26
801,41	1333,23
801,58	1228,78
801,75	1239,02
801,93	1271,79
802,10	1220,59
802,28	1232,88
802,45	1185,77
802,63	1288,17
802,80	1269,74
802,97	1263,60
803,15	1208,30
803,32	1261,55
803,50	1243,12
803,67	1255,40
803,84	1241,07
804,02	1257,45
804,19	1331,18
804,37	1304,56
804,54	1261,55
804,71	1263,60
804,89	1224,69
805,06	1306,60
805,24	1275,88
805,41	1282,03
805,58	1298,41
805,76	1312,75
805,93	1263,60
806,10	1277,93
806,28	1228,78
806,45	1306,60
806,63	1224,69
806,80	1290,22
806,97	1269,74
807,15	1247,21
807,32	1271,79
807,49	1300,46
807,67	1251,31
807,84	1290,22
808,01	1222,64
808,19	1292,27
808,36	1226,73
808,54	1322,99
808,71	1245,16
808,88	1345,52
809,06	1284,08
809,23	1302,51
809,40	1265,64
809,58	1277,93
809,75	1269,74
809,92	1226,73
810,10	1257,45
810,27	1261,55
810,44	1282,03
810,62	1265,64
810,79	1316,84
810,96	1234,93
811,14	1239,02
811,31	1325,04
811,48	1349,61
811,66	1198,06
811,83	1269,74
812,00	1259,50
812,18	1327,08
812,35	1265,64
812,52	1273,84
812,69	1261,55
812,87	1267,69
813,04	1312,75
813,21	1202,16
813,39	1159,15
813,56	1269,74
813,73	1304,56
813,91	1277,93
814,08	1230,83
814,25	1220,59
814,42	1275,88
814,60	1271,79
814,77	1277,93
814,94	1298,41
815,12	1294,32
815,29	1253,36
815,46	1279,98
815,63	1230,83
815,81	1245,16
815,98	1208,30
816,15	1263,60
816,33	1331,18
816,50	1249,26
816,67	1220,59
816,84	1232,88
817,02	1230,83
817,19	1284,08
817,36	1327,08
817,53	1279,98
817,71	1304,56
817,88	1290,22
818,05	1212,40
818,22	1232,88
818,40	1277,93
818,57	1255,40
818,74	1284,08
818,91	1349,61
819,09	1230,83
819,26	1228,78
819,43	1277,93
819,60	1226,73
819,78	1316,84
819,95	1296,36
820,12	1271,79
820,29	1261,55
820,47	1318,89
820,64	1294,32
820,81	1343,47
820,98	1282,03
821,15	1226,73
821,33	1271,79
821,50	1308,65
821,67	1220,59
821,84	1320,94
822,02	1257,45
822,19	1214,45
822,36	1271,79
822,53	1273,84
822,70	1271,79
822,88	1179,63
823,05	1292,27
823,22	1247,21
823,39	1273,84
823,56	1284,08
823,74	1343,47
823,91	1261,55
824,08	1241,07
824,25	1245,16
824,42	1234,93
824,60	1288,17
824,77	1282,03
824,94	1239,02
825,11	1167,34
825,28	1245,16
825,45	1239,02
825,63	1273,84
825,80	1265,64
825,97	1306,60
826,14	1282,03
826,31	1247,21
826,48	1198,06
826,66	1218,54
826,83	1320,94
827,00	1316,84
827,17	1361,90
827,34	1366,00
827,51	1306,60
827,69	1284,08
827,86	1263,60
828,03	1261,55
828,20	1308,65
828,37	1318,89
828,54	1306,60
828,71	1241,07
828,89	1308,65
829,06	1212,40
829,23	1255,40
829,40	1243,12
829,57	1249,26
829,74	1236,97
829,91	1294,32
830,09	1234,93
830,26	1349,61
830,43	1222,64
830,60	1257,45
830,77	1284,08
830,94	1198,06
831,11	1236,97
831,28	1300,46
831,46	1286,12
831,63	1306,60
831,80	1224,69
831,97	1239,02
832,14	1255,40
832,31	1226,73
832,48	1282,03
832,65	1286,12
832,82	1265,64
832,99	1325,04
833,17	1263,60
833,34	1288,17
833,51	1222,64
833,68	1249,26
833,85	1224,69
834,02	1284,08
834,19	1339,37
834,36	1296,36
834,53	1247,21
834,70	1228,78
834,87	1226,73
835,04	1259,50
835,22	1247,21
835,39	1216,49
835,56	1343,47
835,73	1349,61
835,90	1202,16
836,07	1302,51
836,24	1290,22
836,41	1241,07
836,58	1288,17
836,75	1196,01
836,92	1261,55
837,09	1261,55
837,26	1243,12
837,43	1282,03
837,60	1310,70
837,77	1306,60
837,94	1284,08
838,12	1271,79
838,29	1308,65
838,46	1257,45
838,63	1236,97
838,80	1251,31
838,97	1380,33
839,14	1247,21
839,31	1196,01
839,48	1302,51
839,65	1288,17
839,82	1292,27
839,99	1296,36
840,16	1314,80
840,33	1269,74
840,50	1249,26
840,67	1220,59
840,84	1234,93
841,01	1370,09
841,18	1320,94
841,35	1228,78
841,52	1243,12
841,69	1249,26
841,86	1204,21
842,03	1327,08
842,20	1286,12
842,37	1314,80
842,54	1322,99
842,71	1284,08
842,88	1210,35
843,05	1290,22
843,22	1304,56
843,39	1288,17
843,56	1249,26
843,73	1202,16
843,90	1308,65
844,07	1263,60
844,24	1282,03
844,41	1368,04
844,58	1288,17
844,75	1284,08
844,92	1282,03
845,09	1302,51
845,26	1234,93
845,43	1234,93
845,60	1245,16
845,77	1226,73
845,94	1239,02
846,10	1251,31
846,27	1259,50
846,44	1228,78
846,61	1312,75
846,78	1335,28
846,95	1261,55
847,12	1239,02
847,29	1230,83
847,46	1286,12
847,63	1296,36
847,80	1261,55
847,97	1267,69
848,14	1302,51
848,31	1243,12
848,48	1241,07
848,65	1304,56
848,82	1298,41
848,98	1288,17
849,15	1273,84
849,32	1300,46
849,49	1261,55
849,66	1263,60
849,83	1302,51
850,00	1271,79
850,17	1204,21
850,34	1253,36
850,51	1296,36
850,68	1310,70
850,85	1271,79
851,01	1175,53
851,18	1314,80
851,35	1257,45
851,52	1294,32
851,69	1300,46
851,86	1275,88
852,03	1298,41
852,20	1294,32
852,37	1191,92
852,53	1308,65
852,70	1320,94
852,87	1265,64
853,04	1306,60
853,21	1210,35
853,38	1230,83
853,55	1286,12
853,72	1355,76
853,89	1288,17
854,05	1292,27
854,22	1304,56
854,39	1304,56
854,56	1196,01
854,73	1275,88
854,90	1265,64
855,07	1206,25
855,23	1171,44
855,40	1263,60
855,57	1247,21
855,74	1255,40
855,91	1228,78
856,08	1255,40
856,25	1259,50
856,41	1329,13
856,58	1275,88
856,75	1279,98
856,92	1232,88
857,09	1279,98
857,26	1245,16
857,42	1282,03
857,59	1292,27
857,76	1335,28
857,93	1288,17
858,10	1284,08
858,27	1314,80
858,43	1243,12
858,60	1261,55
858,77	1277,93
858,94	1263,60
859,11	1265,64
859,27	1271,79
859,44	1226,73
859,61	1251,31
859,78	1236,97
859,95	1277,93
860,12	1302,51
860,28	1259,50
860,45	1279,98
860,62	1269,74
860,79	1300,46
860,95	1302,51
861,12	1300,46
861,29	1204,21
861,46	1320,94
861,63	1355,76
861,79	1325,04
861,96	1259,50
862,13	1187,82
862,30	1267,69
862,47	1191,92
862,63	1292,27
862,80	1273,84
862,97	1273,84
863,14	1259,50
863,30	1320,94
863,47	1282,03
863,64	1312,75
863,81	1273,84
863,97	1261,55
864,14	1222,64
864,31	1265,64
864,48	1279,98
864,65	1236,97
864,81	1212,40
864,98	1269,74
865,15	1286,12
865,32	1210,35
865,48	1265,64
865,65	1353,71
865,82	1263,60
865,98	1239,02
866,15	1306,60
866,32	1318,89
866,49	1210,35
866,65	1234,93
866,82	1314,80
866,99	1236,97
867,16	1339,37
867,32	1286,12
867,49	1255,40
867,66	1298,41
867,83	1290,22
867,99	1288,17
868,16	1284,08
868,33	1261,55
868,49	1298,41
868,66	1228,78
868,83	1265,64
868,99	1263,60
869,16	1298,41
869,33	1232,88
869,50	1290,22
869,66	1232,88
869,83	1239,02
870,00	1247,21
870,16	1312,75
870,33	1230,83
870,50	1310,70
870,66	1294,32
870,83	1230,83
871,00	1296,36
871,17	1257,45
871,33	1273,84
871,50	1249,26
871,67	1288,17
871,83	1257,45
872,00	1296,36
872,17	1214,45
872,33	1284,08
872,50	1222,64
872,67	1302,51
872,83	1247,21
873,00	1284,08
873,17	1265,64
873,33	1224,69
873,50	1304,56
873,67	1257,45
873,83	1236,97
874,00	1282,03
874,16	1263,60
874,33	1273,84
874,50	1247,21
874,66	1196,01
874,83	1263,60
875,00	1216,49
875,16	1314,80
875,33	1288,17
875,50	1208,30
875,66	1275,88
875,83	1288,17
875,99	1296,36
876,16	1296,36
876,33	1265,64
876,49	1232,88
876,66	1265,64
876,83	1290,22
876,99	1273,84
877,16	1316,84
877,32	1167,34
877,49	1322,99
877,66	1275,88
877,82	1265,64
877,99	1216,49
878,15	1261,55
878,32	1306,60
878,49	1236,97
878,65	1245,16
878,82	1318,89
878,98	1243,12
879,15	1214,45
879,32	1267,69
879,48	1208,30
879,65	1224,69
879,81	1288,17
879,98	1259,50
880,15	1241,07
880,31	1253,36
880,48	1261,55
880,64	1241,07
880,81	1304,56
880,97	1296,36
881,14	1191,92
881,31	1273,84
881,47	1316,84
881,64	1271,79
881,80	1232,88
881,97	1279,98
882,13	1224,69
882,30	1331,18
882,47	1265,64
882,63	1214,45
882,80	1265,64
882,96	1261,55
883,13	1345,52
883,29	1273,84
883,46	1361,90
883,62	1290,22
883,79	1298,41
883,95	1257,45
884,12	1241,07
884,29	1267,69
884,45	1288,17
884,62	1249,26
884,78	1249,26
884,95	1239,02
885,11	1279,98
885,28	1282,03
885,44	1282,03
885,61	1255,40
885,77	1261,55
885,94	1251,31
886,10	1261,55
886,27	1257,45
886,43	1273,84
886,60	1300,46
886,76	1208,30
886,93	1308,65
887,09	1290,22
887,26	1271,79
887,42	1329,13
887,59	1251,31
887,75	1286,12
887,92	1290,22
888,08	1304,56
888,25	1294,32
888,41	1294,32
888,58	1359,85
888,74	1261,55
888,91	1294,32
>>>>>End Processed Spectral Data<<<<<
