SpectraSuite Data File
++++++++++++++++++++++++++++++++++++
Date: Sun Apr 03 17:21:04 CEST 2016
User: root
Dark Spectrum Present: No
Reference Spectrum Present: No
Number of Sampled Component Spectra: 1
Spectrometers: USB4C02835
Integration Time (usec): 10000 (USB4C02835)
Spectra Averaged: 1 (USB4C02835)
Boxcar Smoothing: 0 (USB4C02835)
Correct for Electrical Dark: No (USB4C02835)
Strobe/Lamp Enabled: No (USB4C02835)
Correct for Detector Non-linearity: No (USB4C02835)
Correct for Stray Light: No (USB4C02835)
Number of Pixels in Processed Spectrum: 3648
>>>>>Begin Processed Spectral Data<<<<<
177,47	1232,88
177,69	1232,88
177,91	1232,88
178,13	1245,16
178,36	1298,41
178,58	1220,59
178,80	1277,93
179,02	1251,31
179,24	1249,26
179,46	1277,93
179,68	1259,50
179,90	1247,21
180,13	1255,40
180,35	1351,66
180,57	1263,60
180,79	1333,23
181,01	1208,30
181,23	1249,26
181,45	1292,27
181,67	1275,88
181,90	1196,01
182,12	1277,93
182,34	1273,84
182,56	1277,93
182,78	1232,88
183,00	1282,03
183,22	1277,93
183,44	1206,25
183,66	1322,99
183,89	1259,50
184,11	1273,84
184,33	1310,70
184,55	1282,03
184,77	1279,98
184,99	1239,02
185,21	1204,21
185,43	1355,76
185,65	1327,08
185,87	1288,17
186,10	1265,64
186,32	1286,12
186,54	1230,83
186,76	1196,01
186,98	1263,60
187,20	1255,40
187,42	1228,78
187,64	1298,41
187,86	1300,46
188,08	1292,27
188,30	1296,36
188,52	1247,21
188,75	1236,97
188,97	1220,59
189,19	1241,07
189,41	1298,41
189,63	1275,88
189,85	1345,52
190,07	1257,45
190,29	1228,78
190,51	1306,60
190,73	1284,08
190,95	1263,60
191,17	1282,03
191,39	1257,45
191,61	1234,93
191,84	1255,40
192,06	1308,65
192,28	1273,84
192,50	1312,75
192,72	1214,45
192,94	1282,03
193,16	1257,45
193,38	1308,65
193,60	1259,50
193,82	1351,66
194,04	1222,64
194,26	1261,55
194,48	1196,01
194,70	1306,60
194,92	1337,32
195,14	1335,28
195,36	1169,39
195,58	1265,64
195,80	1282,03
196,02	1325,04
196,24	1183,73
196,46	1198,06
196,69	1269,74
196,91	1288,17
197,13	1218,54
197,35	1226,73
197,57	1239,02
197,79	1243,12
198,01	1277,93
198,23	1312,75
198,45	1210,35
198,67	1208,30
198,89	1302,51
199,11	1320,94
199,33	1306,60
199,55	1331,18
199,77	1269,74
199,99	1271,79
200,21	1333,23
200,43	1279,98
200,65	1239,02
200,87	1290,22
201,09	1247,21
201,31	1265,64
201,53	1271,79
201,75	1279,98
201,97	1232,88
202,19	1327,08
202,41	1265,64
202,63	1265,64
202,85	1208,30
203,07	1232,88
203,29	1239,02
203,51	1247,21
203,73	1253,36
203,95	1290,22
204,17	1257,45
204,39	1230,83
204,61	1286,12
204,83	1255,40
205,05	1296,36
205,27	1216,49
205,49	1267,69
205,71	1331,18
205,93	1243,12
206,15	1279,98
206,37	1279,98
206,59	1296,36
206,81	1232,88
207,03	1236,97
207,25	1193,97
207,47	1282,03
207,69	1251,31
207,91	1220,59
208,13	1241,07
208,34	1208,30
208,56	1300,46
208,78	1257,45
209,00	1261,55
209,22	1318,89
209,44	1224,69
209,66	1257,45
209,88	1312,75
210,10	1255,40
210,32	1218,54
210,54	1239,02
210,76	1284,08
210,98	1341,42
211,20	1298,41
211,42	1302,51
211,64	1267,69
211,86	1247,21
212,08	1175,53
212,30	1320,94
212,52	1224,69
212,74	1245,16
212,96	1290,22
213,17	1267,69
213,39	1275,88
213,61	1257,45
213,83	1292,27
214,05	1304,56
214,27	1212,40
214,49	1277,93
214,71	1222,64
214,93	1279,98
215,15	1296,36
215,37	1331,18
215,59	1314,80
215,81	1255,40
216,03	1282,03
216,24	1290,22
216,46	1218,54
216,68	1216,49
216,90	1234,93
217,12	1200,11
217,34	1327,08
217,56	1241,07
217,78	1304,56
218,00	1232,88
218,22	1275,88
218,44	1279,98
218,66	1236,97
218,87	1273,84
219,09	1245,16
219,31	1198,06
219,53	1257,45
219,75	1232,88
219,97	1310,70
220,19	1300,46
220,41	1284,08
220,63	1286,12
220,85	1245,16
221,06	1333,23
221,28	1255,40
221,50	1345,52
221,72	1269,74
221,94	1183,73
222,16	1232,88
222,38	1232,88
222,60	1273,84
222,82	1243,12
223,03	1298,41
223,25	1308,65
223,47	1249,26
223,69	1290,22
223,91	1298,41
224,13	1236,97
224,35	1290,22
224,57	1222,64
224,78	1273,84
225,00	1271,79
225,22	1341,42
225,44	1322,99
225,66	1298,41
225,88	1220,59
226,10	1232,88
226,32	1265,64
226,53	1214,45
226,75	1257,45
226,97	1296,36
227,19	1265,64
227,41	1181,68
227,63	1257,45
227,85	1259,50
228,06	1261,55
228,28	1232,88
228,50	1284,08
228,72	1257,45
228,94	1325,04
229,16	1247,21
229,37	1273,84
229,59	1292,27
229,81	1261,55
230,03	1320,94
230,25	1259,50
230,47	1347,56
230,69	1261,55
230,90	1247,21
231,12	1245,16
231,34	1325,04
231,56	1310,70
231,78	1302,51
232,00	1265,64
232,21	1300,46
232,43	1282,03
232,65	1306,60
232,87	1267,69
233,09	1257,45
233,30	1167,34
233,52	1298,41
233,74	1300,46
233,96	1214,45
234,18	1234,93
234,40	1306,60
234,61	1243,12
234,83	1218,54
235,05	1294,32
235,27	1224,69
235,49	1253,36
235,70	1253,36
235,92	1253,36
236,14	1273,84
236,36	1343,47
236,58	1284,08
236,79	1273,84
237,01	1263,60
237,23	1230,83
237,45	1208,30
237,67	1294,32
237,88	1275,88
238,10	1308,65
238,32	1249,26
238,54	1232,88
238,76	1320,94
238,97	1230,83
239,19	1304,56
239,41	1316,84
239,63	1294,32
239,85	1265,64
240,06	1265,64
240,28	1208,30
240,50	1234,93
240,72	1267,69
240,93	1241,07
241,15	1245,16
241,37	1325,04
241,59	1249,26
241,81	1208,30
242,02	1402,86
242,24	1245,16
242,46	1294,32
242,68	1206,25
242,89	1327,08
243,11	1216,49
243,33	1318,89
243,55	1304,56
243,76	1331,18
243,98	1255,40
244,20	1300,46
244,42	1306,60
244,64	1288,17
244,85	1267,69
245,07	1298,41
245,29	1284,08
245,51	1337,32
245,72	1146,86
245,94	1298,41
246,16	1275,88
246,38	1284,08
246,59	1204,21
246,81	1236,97
247,03	1275,88
247,24	1259,50
247,46	1314,80
247,68	1279,98
247,90	1251,31
248,11	1335,28
248,33	1298,41
248,55	1302,51
248,77	1210,35
248,98	1204,21
249,20	1284,08
249,42	1273,84
249,64	1251,31
249,85	1314,80
250,07	1226,73
250,29	1271,79
250,50	1300,46
250,72	1224,69
250,94	1302,51
251,16	1275,88
251,37	1306,60
251,59	1249,26
251,81	1263,60
252,02	1273,84
252,24	1316,84
252,46	1312,75
252,68	1269,74
252,89	1320,94
253,11	1298,41
253,33	1269,74
253,54	1341,42
253,76	1247,21
253,98	1327,08
254,20	1290,22
254,41	1322,99
254,63	1308,65
254,85	1261,55
255,06	1230,83
255,28	1224,69
255,50	1234,93
255,71	1243,12
255,93	1232,88
256,15	1273,84
256,36	1267,69
256,58	1249,26
256,80	1261,55
257,02	1288,17
257,23	1249,26
257,45	1314,80
257,67	1224,69
257,88	1214,45
258,10	1273,84
258,32	1230,83
258,53	1294,32
258,75	1234,93
258,97	1304,56
259,18	1312,75
259,40	1255,40
259,62	1357,80
259,83	1298,41
260,05	1222,64
260,27	1286,12
260,48	1269,74
260,70	1193,97
260,92	1255,40
261,13	1339,37
261,35	1257,45
261,57	1271,79
261,78	1286,12
262,00	1325,04
262,22	1271,79
262,43	1263,60
262,65	1327,08
262,86	1288,17
263,08	1210,35
263,30	1247,21
263,51	1296,36
263,73	1230,83
263,95	1359,85
264,16	1150,96
264,38	1275,88
264,60	1316,84
264,81	1314,80
265,03	1251,31
265,25	1245,16
265,46	1181,68
265,68	1288,17
265,89	1249,26
266,11	1302,51
266,33	1239,02
266,54	1265,64
266,76	1226,73
266,98	1214,45
267,19	1273,84
267,41	1241,07
267,62	1232,88
267,84	1269,74
268,06	1277,93
268,27	1304,56
268,49	1224,69
268,70	1230,83
268,92	1275,88
269,14	1206,25
269,35	1214,45
269,57	1300,46
269,79	1349,61
270,00	1284,08
270,22	1249,26
270,43	1245,16
270,65	1255,40
270,87	1224,69
271,08	1271,79
271,30	1308,65
271,51	1216,49
271,73	1286,12
271,95	1241,07
272,16	1341,42
272,38	1284,08
272,59	1292,27
272,81	1245,16
273,02	1322,99
273,24	1236,97
273,46	1261,55
273,67	1232,88
273,89	1296,36
274,10	1286,12
274,32	1269,74
274,54	1206,25
274,75	1265,64
274,97	1294,32
275,18	1335,28
275,40	1265,64
275,61	1265,64
275,83	1255,40
276,05	1263,60
276,26	1329,13
276,48	1288,17
276,69	1216,49
276,91	1247,21
277,12	1288,17
277,34	1265,64
277,55	1282,03
277,77	1294,32
277,99	1214,45
278,20	1247,21
278,42	1300,46
278,63	1337,32
278,85	1294,32
279,06	1239,02
279,28	1220,59
279,49	1245,16
279,71	1296,36
279,93	1232,88
280,14	1234,93
280,36	1234,93
280,57	1329,13
280,79	1189,87
281,00	1310,70
281,22	1249,26
281,43	1257,45
281,65	1222,64
281,86	1288,17
282,08	1320,94
282,29	1271,79
282,51	1288,17
282,73	1277,93
282,94	1245,16
283,16	1251,31
283,37	1286,12
283,59	1253,36
283,80	1218,54
284,02	1302,51
284,23	1329,13
284,45	1318,89
284,66	1230,83
284,88	1292,27
285,09	1267,69
285,31	1208,30
285,52	1259,50
285,74	1198,06
285,95	1202,16
286,17	1290,22
286,38	1296,36
286,60	1232,88
286,81	1269,74
287,03	1271,79
287,24	1216,49
287,46	1224,69
287,67	1267,69
287,89	1208,30
288,10	1230,83
288,32	1304,56
288,53	1191,92
288,75	1282,03
288,96	1239,02
289,18	1263,60
289,39	1271,79
289,61	1259,50
289,82	1300,46
290,04	1329,13
290,25	1239,02
290,47	1251,31
290,68	1304,56
290,90	1300,46
291,11	1273,84
291,33	1220,59
291,54	1230,83
291,76	1314,80
291,97	1267,69
292,18	1269,74
292,40	1296,36
292,61	1265,64
292,83	1273,84
293,04	1335,28
293,26	1310,70
293,47	1271,79
293,69	1296,36
293,90	1333,23
294,12	1269,74
294,33	1320,94
294,55	1218,54
294,76	1243,12
294,97	1249,26
295,19	1341,42
295,40	1245,16
295,62	1247,21
295,83	1310,70
296,05	1288,17
296,26	1302,51
296,48	1191,92
296,69	1275,88
296,90	1257,45
297,12	1261,55
297,33	1187,82
297,55	1271,79
297,76	1226,73
297,98	1302,51
298,19	1273,84
298,41	1286,12
298,62	1251,31
298,83	1200,11
299,05	1310,70
299,26	1196,01
299,48	1187,82
299,69	1265,64
299,90	1316,84
300,12	1286,12
300,33	1304,56
300,55	1282,03
300,76	1286,12
300,98	1282,03
301,19	1261,55
301,40	1288,17
301,62	1263,60
301,83	1294,32
302,05	1290,22
302,26	1267,69
302,47	1241,07
302,69	1202,16
302,90	1275,88
303,12	1253,36
303,33	1306,60
303,54	1322,99
303,76	1218,54
303,97	1204,21
304,19	1310,70
304,40	1308,65
304,61	1335,28
304,83	1286,12
305,04	1302,51
305,26	1255,40
305,47	1294,32
305,68	1282,03
305,90	1261,55
306,11	1349,61
306,33	1333,23
306,54	1220,59
306,75	1247,21
306,97	1255,40
307,18	1239,02
307,39	1204,21
307,61	1302,51
307,82	1325,04
308,04	1296,36
308,25	1241,07
308,46	1253,36
308,68	1304,56
308,89	1286,12
309,10	1275,88
309,32	1296,36
309,53	1230,83
309,74	1267,69
309,96	1284,08
310,17	1322,99
310,39	1210,35
310,60	1247,21
310,81	1253,36
311,03	1269,74
311,24	1331,18
311,45	1265,64
311,67	1220,59
311,88	1282,03
312,09	1249,26
312,31	1322,99
312,52	1347,56
312,73	1185,77
312,95	1286,12
313,16	1320,94
313,37	1269,74
313,59	1216,49
313,80	1320,94
314,01	1310,70
314,23	1257,45
314,44	1290,22
314,65	1265,64
314,87	1306,60
315,08	1253,36
315,29	1232,88
315,51	1304,56
315,72	1318,89
315,93	1316,84
316,15	1277,93
316,36	1218,54
316,57	1271,79
316,79	1210,35
317,00	1380,33
317,21	1228,78
317,43	1224,69
317,64	1335,28
317,85	1241,07
318,07	1245,16
318,28	1251,31
318,49	1253,36
318,70	1290,22
318,92	1224,69
319,13	1226,73
319,34	1239,02
319,56	1282,03
319,77	1298,41
319,98	1273,84
320,20	1232,88
320,41	1269,74
320,62	1265,64
320,83	1320,94
321,05	1261,55
321,26	1230,83
321,47	1243,12
321,69	1269,74
321,90	1212,40
322,11	1292,27
322,32	1320,94
322,54	1294,32
322,75	1189,87
322,96	1298,41
323,18	1267,69
323,39	1286,12
323,60	1286,12
323,81	1306,60
324,03	1279,98
324,24	1335,28
324,45	1290,22
324,66	1257,45
324,88	1320,94
325,09	1239,02
325,30	1304,56
325,52	1232,88
325,73	1296,36
325,94	1314,80
326,15	1277,93
326,37	1234,93
326,58	1255,40
326,79	1304,56
327,00	1273,84
327,22	1306,60
327,43	1284,08
327,64	1232,88
327,85	1253,36
328,07	1351,66
328,28	1279,98
328,49	1257,45
328,70	1314,80
328,92	1253,36
329,13	1202,16
329,34	1296,36
329,55	1302,51
329,76	1345,52
329,98	1265,64
330,19	1261,55
330,40	1339,37
330,61	1275,88
330,83	1288,17
331,04	1302,51
331,25	1247,21
331,46	1202,16
331,68	1290,22
331,89	1310,70
332,10	1251,31
332,31	1247,21
332,52	1269,74
332,74	1304,56
332,95	1247,21
333,16	1255,40
333,37	1310,70
333,58	1282,03
333,80	1236,97
334,01	1216,49
334,22	1302,51
334,43	1286,12
334,64	1247,21
334,86	1185,77
335,07	1241,07
335,28	1265,64
335,49	1247,21
335,70	1320,94
335,92	1327,08
336,13	1351,66
336,34	1331,18
336,55	1236,97
336,76	1251,31
336,98	1234,93
337,19	1275,88
337,40	1245,16
337,61	1304,56
337,82	1245,16
338,04	1263,60
338,25	1312,75
338,46	1286,12
338,67	1292,27
338,88	1249,26
339,09	1288,17
339,31	1226,73
339,52	1265,64
339,73	1230,83
339,94	1267,69
340,15	1196,01
340,36	1271,79
340,58	1255,40
340,79	1310,70
341,00	1290,22
341,21	1249,26
341,42	1198,06
341,63	1279,98
341,85	1257,45
342,06	1208,30
342,27	1251,31
342,48	1202,16
342,69	1277,93
342,90	1245,16
343,12	1206,25
343,33	1277,93
343,54	1339,37
343,75	1298,41
343,96	1259,50
344,17	1296,36
344,38	1232,88
344,60	1273,84
344,81	1224,69
345,02	1292,27
345,23	1259,50
345,44	1220,59
345,65	1249,26
345,86	1249,26
346,07	1257,45
346,29	1296,36
346,50	1337,32
346,71	1312,75
346,92	1269,74
347,13	1267,69
347,34	1304,56
347,55	1245,16
347,76	1304,56
347,98	1304,56
348,19	1175,53
348,40	1277,93
348,61	1275,88
348,82	1306,60
349,03	1232,88
349,24	1269,74
349,45	1284,08
349,66	1308,65
349,88	1224,69
350,09	1304,56
350,30	1251,31
350,51	1263,60
350,72	1216,49
350,93	1279,98
351,14	1288,17
351,35	1273,84
351,56	1380,33
351,77	1249,26
351,99	1335,28
352,20	1261,55
352,41	1255,40
352,62	1296,36
352,83	1284,08
353,04	1277,93
353,25	1333,23
353,46	1271,79
353,67	1288,17
353,88	1296,36
354,09	1318,89
354,30	1304,56
354,52	1230,83
354,73	1298,41
354,94	1239,02
355,15	1198,06
355,36	1208,30
355,57	1226,73
355,78	1273,84
355,99	1220,59
356,20	1284,08
356,41	1204,21
356,62	1263,60
356,83	1245,16
357,04	1275,88
357,25	1282,03
357,46	1261,55
357,68	1177,58
357,89	1333,23
358,10	1206,25
358,31	1343,47
358,52	1259,50
358,73	1259,50
358,94	1247,21
359,15	1273,84
359,36	1302,51
359,57	1261,55
359,78	1255,40
359,99	1241,07
360,20	1318,89
360,41	1259,50
360,62	1275,88
360,83	1243,12
361,04	1292,27
361,25	1263,60
361,46	1263,60
361,67	1300,46
361,88	1273,84
362,09	1251,31
362,30	1267,69
362,51	1259,50
362,72	1251,31
362,93	1236,97
363,14	1257,45
363,35	1267,69
363,56	1275,88
363,78	1275,88
363,99	1257,45
364,20	1286,12
364,41	1316,84
364,62	1308,65
364,83	1251,31
365,04	1198,06
365,25	1234,93
365,46	1253,36
365,67	1296,36
365,88	1263,60
366,09	1284,08
366,30	1261,55
366,51	1339,37
366,72	1286,12
366,93	1294,32
367,14	1279,98
367,35	1245,16
367,56	1286,12
367,77	1298,41
367,98	1320,94
368,18	1249,26
368,39	1247,21
368,60	1296,36
368,81	1263,60
369,02	1277,93
369,23	1355,76
369,44	1234,93
369,65	1322,99
369,86	1255,40
370,07	1273,84
370,28	1226,73
370,49	1239,02
370,70	1263,60
370,91	1279,98
371,12	1220,59
371,33	1257,45
371,54	1196,01
371,75	1261,55
371,96	1249,26
372,17	1255,40
372,38	1284,08
372,59	1275,88
372,80	1314,80
373,01	1253,36
373,22	1320,94
373,43	1251,31
373,64	1257,45
373,85	1308,65
374,06	1271,79
374,26	1220,59
374,47	1210,35
374,68	1302,51
374,89	1253,36
375,10	1298,41
375,31	1273,84
375,52	1245,16
375,73	1228,78
375,94	1212,40
376,15	1300,46
376,36	1286,12
376,57	1359,85
376,78	1228,78
376,99	1224,69
377,20	1302,51
377,40	1327,08
377,61	1173,49
377,82	1304,56
378,03	1267,69
378,24	1255,40
378,45	1310,70
378,66	1257,45
378,87	1267,69
379,08	1312,75
379,29	1288,17
379,50	1187,82
379,71	1230,83
379,91	1236,97
380,12	1191,92
380,33	1249,26
380,54	1310,70
380,75	1214,45
380,96	1300,46
381,17	1279,98
381,38	1320,94
381,59	1234,93
381,80	1232,88
382,00	1349,61
382,21	1224,69
382,42	1282,03
382,63	1265,64
382,84	1282,03
383,05	1294,32
383,26	1329,13
383,47	1257,45
383,68	1298,41
383,88	1255,40
384,09	1232,88
384,30	1318,89
384,51	1273,84
384,72	1224,69
384,93	1255,40
385,14	1267,69
385,35	1265,64
385,55	1216,49
385,76	1327,08
385,97	1224,69
386,18	1220,59
386,39	1327,08
386,60	1204,21
386,81	1255,40
387,02	1333,23
387,22	1241,07
387,43	1179,63
387,64	1251,31
387,85	1206,25
388,06	1249,26
388,27	1279,98
388,48	1230,83
388,68	1222,64
388,89	1286,12
389,10	1259,50
389,31	1236,97
389,52	1241,07
389,73	1232,88
389,93	1282,03
390,14	1290,22
390,35	1265,64
390,56	1247,21
390,77	1265,64
390,98	1282,03
391,18	1347,56
391,39	1275,88
391,60	1259,50
391,81	1263,60
392,02	1296,36
392,23	1296,36
392,43	1241,07
392,64	1210,35
392,85	1366,00
393,06	1224,69
393,27	1271,79
393,47	1204,21
393,68	1273,84
393,89	1296,36
394,10	1284,08
394,31	1267,69
394,52	1263,60
394,72	1214,45
394,93	1273,84
395,14	1255,40
395,35	1296,36
395,56	1343,47
395,76	1214,45
395,97	1298,41
396,18	1341,42
396,39	1261,55
396,60	1185,77
396,80	1271,79
397,01	1320,94
397,22	1271,79
397,43	1196,01
397,64	1316,84
397,84	1318,89
398,05	1222,64
398,26	1310,70
398,47	1218,54
398,67	1304,56
398,88	1247,21
399,09	1288,17
399,30	1288,17
399,51	1222,64
399,71	1273,84
399,92	1265,64
400,13	1234,93
400,34	1255,40
400,54	1236,97
400,75	1329,13
400,96	1345,52
401,17	1300,46
401,37	1312,75
401,58	1251,31
401,79	1284,08
402,00	1222,64
402,21	1239,02
402,41	1284,08
402,62	1318,89
402,83	1204,21
403,04	1282,03
403,24	1236,97
403,45	1308,65
403,66	1206,25
403,87	1224,69
404,07	1329,13
404,28	1249,26
404,49	1331,18
404,70	1245,16
404,90	1243,12
405,11	1310,70
405,32	1193,97
405,52	1316,84
405,73	1232,88
405,94	1298,41
406,15	1214,45
406,35	1277,93
406,56	1277,93
406,77	1210,35
406,98	1234,93
407,18	1361,90
407,39	1312,75
407,60	1286,12
407,80	1318,89
408,01	1312,75
408,22	1239,02
408,43	1259,50
408,63	1275,88
408,84	1222,64
409,05	1286,12
409,25	1333,23
409,46	1261,55
409,67	1300,46
409,88	1253,36
410,08	1288,17
410,29	1308,65
410,50	1298,41
410,70	1296,36
410,91	1218,54
411,12	1325,04
411,32	1226,73
411,53	1277,93
411,74	1300,46
411,95	1253,36
412,15	1200,11
412,36	1269,74
412,57	1200,11
412,77	1290,22
412,98	1302,51
413,19	1288,17
413,39	1282,03
413,60	1216,49
413,81	1249,26
414,01	1271,79
414,22	1255,40
414,43	1271,79
414,63	1247,21
414,84	1265,64
415,05	1257,45
415,25	1259,50
415,46	1214,45
415,67	1257,45
415,87	1322,99
416,08	1255,40
416,29	1247,21
416,49	1255,40
416,70	1204,21
416,91	1279,98
417,11	1230,83
417,32	1257,45
417,53	1259,50
417,73	1298,41
417,94	1255,40
418,15	1255,40
418,35	1253,36
418,56	1288,17
418,77	1265,64
418,97	1308,65
419,18	1228,78
419,38	1255,40
419,59	1257,45
419,80	1320,94
420,00	1232,88
420,21	1241,07
420,42	1290,22
420,62	1306,60
420,83	1232,88
421,04	1296,36
421,24	1251,31
421,45	1335,28
421,65	1239,02
421,86	1257,45
422,07	1290,22
422,27	1189,87
422,48	1288,17
422,69	1230,83
422,89	1263,60
423,10	1222,64
423,30	1196,01
423,51	1310,70
423,72	1236,97
423,92	1271,79
424,13	1245,16
424,33	1241,07
424,54	1216,49
424,75	1265,64
424,95	1257,45
425,16	1282,03
425,36	1245,16
425,57	1304,56
425,78	1271,79
425,98	1279,98
426,19	1296,36
426,39	1247,21
426,60	1236,97
426,81	1269,74
427,01	1304,56
427,22	1267,69
427,42	1275,88
427,63	1232,88
427,83	1273,84
428,04	1290,22
428,25	1282,03
428,45	1347,56
428,66	1247,21
428,86	1251,31
429,07	1263,60
429,28	1228,78
429,48	1275,88
429,69	1218,54
429,89	1218,54
430,10	1224,69
430,30	1255,40
430,51	1236,97
430,71	1275,88
430,92	1257,45
431,13	1239,02
431,33	1204,21
431,54	1279,98
431,74	1212,40
431,95	1265,64
432,15	1259,50
432,36	1243,12
432,56	1255,40
432,77	1290,22
432,98	1284,08
433,18	1300,46
433,39	1302,51
433,59	1191,92
433,80	1232,88
434,00	1290,22
434,21	1282,03
434,41	1331,18
434,62	1294,32
434,82	1302,51
435,03	1265,64
435,23	1232,88
435,44	1277,93
435,64	1335,28
435,85	1296,36
436,06	1327,08
436,26	1376,24
436,47	1257,45
436,67	1253,36
436,88	1286,12
437,08	1275,88
437,29	1320,94
437,49	1314,80
437,70	1220,59
437,90	1286,12
438,11	1224,69
438,31	1273,84
438,52	1290,22
438,72	1290,22
438,93	1273,84
439,13	1298,41
439,34	1339,37
439,54	1294,32
439,75	1251,31
439,95	1267,69
440,16	1241,07
440,36	1257,45
440,57	1267,69
440,77	1320,94
440,98	1206,25
441,18	1290,22
441,39	1187,82
441,59	1329,13
441,80	1337,32
442,00	1216,49
442,21	1286,12
442,41	1290,22
442,62	1267,69
442,82	1304,56
443,02	1314,80
443,23	1255,40
443,43	1267,69
443,64	1277,93
443,84	1232,88
444,05	1228,78
444,25	1267,69
444,46	1200,11
444,66	1243,12
444,87	1263,60
445,07	1261,55
445,28	1312,75
445,48	1339,37
445,69	1347,56
445,89	1316,84
446,09	1255,40
446,30	1269,74
446,50	1212,40
446,71	1279,98
446,91	1243,12
447,12	1236,97
447,32	1275,88
447,53	1214,45
447,73	1284,08
447,93	1335,28
448,14	1271,79
448,34	1298,41
448,55	1200,11
448,75	1216,49
448,96	1226,73
449,16	1263,60
449,36	1284,08
449,57	1239,02
449,77	1273,84
449,98	1300,46
450,18	1232,88
450,39	1282,03
450,59	1265,64
450,79	1257,45
451,00	1259,50
451,20	1277,93
451,41	1277,93
451,61	1214,45
451,81	1230,83
452,02	1271,79
452,22	1279,98
452,43	1257,45
452,63	1263,60
452,84	1245,16
453,04	1296,36
453,24	1249,26
453,45	1253,36
453,65	1263,60
453,86	1275,88
454,06	1273,84
454,26	1271,79
454,47	1261,55
454,67	1316,84
454,87	1290,22
455,08	1267,69
455,28	1142,77
455,49	1232,88
455,69	1265,64
455,89	1345,52
456,10	1236,97
456,30	1290,22
456,51	1204,21
456,71	1290,22
456,91	1251,31
457,12	1298,41
457,32	1241,07
457,52	1239,02
457,73	1255,40
457,93	1261,55
458,14	1306,60
458,34	1296,36
458,54	1306,60
458,75	1222,64
458,95	1290,22
459,15	1269,74
459,36	1257,45
459,56	1294,32
459,76	1263,60
459,97	1290,22
460,17	1304,56
460,37	1275,88
460,58	1261,55
460,78	1294,32
460,99	1329,13
461,19	1218,54
461,39	1288,17
461,60	1232,88
461,80	1239,02
462,00	1310,70
462,21	1275,88
462,41	1255,40
462,61	1316,84
462,82	1261,55
463,02	1206,25
463,22	1249,26
463,43	1325,04
463,63	1282,03
463,83	1204,21
464,04	1286,12
464,24	1322,99
464,44	1298,41
464,64	1251,31
464,85	1259,50
465,05	1232,88
465,25	1290,22
465,46	1306,60
465,66	1249,26
465,86	1277,93
466,07	1257,45
466,27	1212,40
466,47	1261,55
466,68	1318,89
466,88	1286,12
467,08	1269,74
467,29	1265,64
467,49	1284,08
467,69	1257,45
467,89	1255,40
468,10	1329,13
468,30	1214,45
468,50	1372,14
468,71	1261,55
468,91	1230,83
469,11	1271,79
469,31	1267,69
469,52	1239,02
469,72	1251,31
469,92	1257,45
470,13	1327,08
470,33	1288,17
470,53	1189,87
470,73	1243,12
470,94	1267,69
471,14	1277,93
471,34	1234,93
471,54	1187,82
471,75	1232,88
471,95	1267,69
472,15	1226,73
472,36	1208,30
472,56	1228,78
472,76	1230,83
472,96	1320,94
473,17	1222,64
473,37	1263,60
473,57	1185,77
473,77	1189,87
473,98	1271,79
474,18	1247,21
474,38	1302,51
474,58	1259,50
474,79	1255,40
474,99	1310,70
475,19	1241,07
475,39	1279,98
475,60	1310,70
475,80	1298,41
476,00	1286,12
476,20	1284,08
476,41	1259,50
476,61	1241,07
476,81	1304,56
477,01	1269,74
477,21	1284,08
477,42	1329,13
477,62	1206,25
477,82	1277,93
478,02	1351,66
478,23	1347,56
478,43	1296,36
478,63	1263,60
478,83	1271,79
479,03	1306,60
479,24	1220,59
479,44	1263,60
479,64	1212,40
479,84	1306,60
480,04	1279,98
480,25	1251,31
480,45	1279,98
480,65	1222,64
480,85	1277,93
481,06	1341,42
481,26	1218,54
481,46	1275,88
481,66	1277,93
481,86	1312,75
482,06	1249,26
482,27	1226,73
482,47	1251,31
482,67	1310,70
482,87	1349,61
483,07	1292,27
483,28	1284,08
483,48	1273,84
483,68	1282,03
483,88	1204,21
484,08	1243,12
484,29	1329,13
484,49	1232,88
484,69	1312,75
484,89	1284,08
485,09	1261,55
485,29	1325,04
485,50	1282,03
485,70	1255,40
485,90	1259,50
486,10	1249,26
486,30	1282,03
486,50	1298,41
486,71	1298,41
486,91	1294,32
487,11	1298,41
487,31	1228,78
487,51	1247,21
487,71	1271,79
487,91	1296,36
488,12	1312,75
488,32	1290,22
488,52	1261,55
488,72	1239,02
488,92	1204,21
489,12	1314,80
489,32	1204,21
489,53	1232,88
489,73	1239,02
489,93	1259,50
490,13	1224,69
490,33	1249,26
490,53	1273,84
490,73	1271,79
490,94	1277,93
491,14	1282,03
491,34	1282,03
491,54	1292,27
491,74	1224,69
491,94	1220,59
492,14	1298,41
492,34	1220,59
492,54	1386,47
492,75	1279,98
492,95	1214,45
493,15	1253,36
493,35	1232,88
493,55	1245,16
493,75	1249,26
493,95	1222,64
494,15	1273,84
494,35	1259,50
494,56	1224,69
494,76	1253,36
494,96	1183,73
495,16	1304,56
495,36	1249,26
495,56	1253,36
495,76	1273,84
495,96	1257,45
496,16	1282,03
496,36	1243,12
496,56	1292,27
496,77	1255,40
496,97	1226,73
497,17	1269,74
497,37	1265,64
497,57	1304,56
497,77	1230,83
497,97	1146,86
498,17	1267,69
498,37	1257,45
498,57	1198,06
498,77	1290,22
498,97	1277,93
499,17	1316,84
499,38	1273,84
499,58	1230,83
499,78	1279,98
499,98	1241,07
500,18	1290,22
500,38	1269,74
500,58	1247,21
500,78	1239,02
500,98	1275,88
501,18	1251,31
501,38	1187,82
501,58	1210,35
501,78	1257,45
501,98	1308,65
502,18	1259,50
502,38	1241,07
502,58	1263,60
502,78	1308,65
502,98	1214,45
503,18	1269,74
503,38	1290,22
503,59	1275,88
503,79	1271,79
503,99	1296,36
504,19	1236,97
504,39	1312,75
504,59	1327,08
504,79	1298,41
504,99	1349,61
505,19	1230,83
505,39	1294,32
505,59	1216,49
505,79	1236,97
505,99	1277,93
506,19	1214,45
506,39	1261,55
506,59	1308,65
506,79	1296,36
506,99	1320,94
507,19	1234,93
507,39	1271,79
507,59	1212,40
507,79	1232,88
507,99	1353,71
508,19	1300,46
508,39	1273,84
508,59	1318,89
508,79	1288,17
508,99	1279,98
509,19	1253,36
509,39	1337,32
509,59	1316,84
509,79	1241,07
509,99	1230,83
510,19	1206,25
510,39	1286,12
510,59	1288,17
510,79	1284,08
510,99	1245,16
511,19	1296,36
511,39	1314,80
511,59	1185,77
511,79	1245,16
511,99	1302,51
512,19	1322,99
512,38	1239,02
512,58	1282,03
512,78	1296,36
512,98	1277,93
513,18	1294,32
513,38	1220,59
513,58	1316,84
513,78	1249,26
513,98	1220,59
514,18	1232,88
514,38	1261,55
514,58	1259,50
514,78	1236,97
514,98	1208,30
515,18	1212,40
515,38	1239,02
515,58	1292,27
515,78	1241,07
515,98	1261,55
516,18	1302,51
516,38	1331,18
516,57	1222,64
516,77	1257,45
516,97	1249,26
517,17	1271,79
517,37	1204,21
517,57	1320,94
517,77	1245,16
517,97	1224,69
518,17	1325,04
518,37	1257,45
518,57	1255,40
518,77	1263,60
518,97	1267,69
519,16	1269,74
519,36	1273,84
519,56	1234,93
519,76	1236,97
519,96	1294,32
520,16	1372,14
520,36	1241,07
520,56	1294,32
520,76	1290,22
520,96	1284,08
521,16	1245,16
521,35	1286,12
521,55	1210,35
521,75	1271,79
521,95	1275,88
522,15	1236,97
522,35	1253,36
522,55	1226,73
522,75	1335,28
522,95	1183,73
523,14	1265,64
523,34	1271,79
523,54	1308,65
523,74	1253,36
523,94	1267,69
524,14	1304,56
524,34	1320,94
524,54	1183,73
524,73	1259,50
524,93	1228,78
525,13	1234,93
525,33	1282,03
525,53	1261,55
525,73	1241,07
525,93	1288,17
526,13	1243,12
526,32	1316,84
526,52	1214,45
526,72	1304,56
526,92	1185,77
527,12	1284,08
527,32	1171,44
527,52	1255,40
527,71	1288,17
527,91	1265,64
528,11	1245,16
528,31	1253,36
528,51	1257,45
528,71	1271,79
528,90	1267,69
529,10	1228,78
529,30	1279,98
529,50	1341,42
529,70	1292,27
529,90	1249,26
530,09	1288,17
530,29	1288,17
530,49	1343,47
530,69	1343,47
530,89	1294,32
531,09	1284,08
531,28	1277,93
531,48	1341,42
531,68	1232,88
531,88	1302,51
532,08	1339,37
532,28	1261,55
532,47	1245,16
532,67	1218,54
532,87	1376,24
533,07	1294,32
533,27	1314,80
533,46	1239,02
533,66	1269,74
533,86	1322,99
534,06	1247,21
534,26	1236,97
534,45	1308,65
534,65	1329,13
534,85	1312,75
535,05	1318,89
535,25	1253,36
535,44	1339,37
535,64	1353,71
535,84	1320,94
536,04	1243,12
536,24	1245,16
536,43	1249,26
536,63	1234,93
536,83	1282,03
537,03	1275,88
537,22	1241,07
537,42	1249,26
537,62	1241,07
537,82	1259,50
538,02	1253,36
538,21	1255,40
538,41	1335,28
538,61	1247,21
538,81	1353,71
539,00	1239,02
539,20	1275,88
539,40	1236,97
539,60	1212,40
539,79	1314,80
539,99	1279,98
540,19	1208,30
540,39	1261,55
540,58	1247,21
540,78	1265,64
540,98	1282,03
541,18	1245,16
541,37	1302,51
541,57	1232,88
541,77	1290,22
541,97	1294,32
542,16	1318,89
542,36	1257,45
542,56	1208,30
542,76	1236,97
542,95	1257,45
543,15	1277,93
543,35	1269,74
543,54	1249,26
543,74	1300,46
543,94	1257,45
544,14	1329,13
544,33	1247,21
544,53	1245,16
544,73	1271,79
544,93	1241,07
545,12	1257,45
545,32	1322,99
545,52	1302,51
545,71	1292,27
545,91	1241,07
546,11	1314,80
546,30	1282,03
546,50	1304,56
546,70	1257,45
546,90	1228,78
547,09	1294,32
547,29	1241,07
547,49	1249,26
547,68	1298,41
547,88	1282,03
548,08	1288,17
548,27	1327,08
548,47	1277,93
548,67	1259,50
548,87	1277,93
549,06	1253,36
549,26	1302,51
549,46	1263,60
549,65	1288,17
549,85	1218,54
550,05	1288,17
550,24	1286,12
550,44	1265,64
550,64	1331,18
550,83	1265,64
551,03	1265,64
551,23	1249,26
551,42	1279,98
551,62	1245,16
551,82	1331,18
552,01	1269,74
552,21	1218,54
552,41	1316,84
552,60	1275,88
552,80	1230,83
553,00	1251,31
553,19	1189,87
553,39	1300,46
553,59	1304,56
553,78	1300,46
553,98	1300,46
554,17	1159,15
554,37	1265,64
554,57	1290,22
554,76	1247,21
554,96	1269,74
555,16	1269,74
555,35	1214,45
555,55	1241,07
555,75	1298,41
555,94	1220,59
556,14	1218,54
556,33	1288,17
556,53	1294,32
556,73	1279,98
556,92	1245,16
557,12	1290,22
557,32	1251,31
557,51	1288,17
557,71	1232,88
557,90	1271,79
558,10	1236,97
558,30	1310,70
558,49	1316,84
558,69	1263,60
558,88	1314,80
559,08	1302,51
559,28	1187,82
559,47	1296,36
559,67	1241,07
559,86	1271,79
560,06	1216,49
560,26	1279,98
560,45	1251,31
560,65	1255,40
560,84	1259,50
561,04	1230,83
561,24	1251,31
561,43	1273,84
561,63	1290,22
561,82	1243,12
562,02	1288,17
562,22	1249,26
562,41	1261,55
562,61	1232,88
562,80	1212,40
563,00	1259,50
563,19	1196,01
563,39	1208,30
563,59	1259,50
563,78	1322,99
563,98	1273,84
564,17	1263,60
564,37	1220,59
564,56	1249,26
564,76	1189,87
564,96	1290,22
565,15	1265,64
565,35	1247,21
565,54	1331,18
565,74	1265,64
565,93	1277,93
566,13	1284,08
566,32	1296,36
566,52	1226,73
566,71	1288,17
566,91	1265,64
567,11	1322,99
567,30	1279,98
567,50	1241,07
567,69	1288,17
567,89	1306,60
568,08	1298,41
568,28	1202,16
568,47	1277,93
568,67	1273,84
568,86	1273,84
569,06	1257,45
569,25	1255,40
569,45	1243,12
569,64	1175,53
569,84	1236,97
570,04	1261,55
570,23	1267,69
570,43	1333,23
570,62	1292,27
570,82	1265,64
571,01	1263,60
571,21	1310,70
571,40	1279,98
571,60	1290,22
571,79	1304,56
571,99	1234,93
572,18	1282,03
572,38	1241,07
572,57	1239,02
572,77	1243,12
572,96	1277,93
573,16	1232,88
573,35	1288,17
573,55	1265,64
573,74	1277,93
573,94	1263,60
574,13	1286,12
574,33	1312,75
574,52	1198,06
574,71	1298,41
574,91	1249,26
575,10	1259,50
575,30	1210,35
575,49	1265,64
575,69	1241,07
575,88	1273,84
576,08	1366,00
576,27	1214,45
576,47	1288,17
576,66	1404,91
576,86	1249,26
577,05	1234,93
577,25	1230,83
577,44	1232,88
577,64	1341,42
577,83	1222,64
578,02	1298,41
578,22	1294,32
578,41	1327,08
578,61	1320,94
578,80	1247,21
579,00	1245,16
579,19	1257,45
579,39	1306,60
579,58	1273,84
579,77	1286,12
579,97	1304,56
580,16	1290,22
580,36	1300,46
580,55	1306,60
580,75	1322,99
580,94	1181,68
581,13	1273,84
581,33	1310,70
581,52	1290,22
581,72	1345,52
581,91	1282,03
582,11	1290,22
582,30	1234,93
582,49	1325,04
582,69	1243,12
582,88	1279,98
583,08	1312,75
583,27	1298,41
583,47	1273,84
583,66	1275,88
583,85	1267,69
584,05	1243,12
584,24	1265,64
584,44	1288,17
584,63	1251,31
584,82	1282,03
585,02	1224,69
585,21	1279,98
585,41	1196,01
585,60	1288,17
585,79	1288,17
585,99	1275,88
586,18	1228,78
586,37	1183,73
586,57	1216,49
586,76	1294,32
586,96	1331,18
587,15	1284,08
587,34	1308,65
587,54	1214,45
587,73	1243,12
587,93	1337,32
588,12	1273,84
588,31	1243,12
588,51	1216,49
588,70	1255,40
588,89	1216,49
589,09	1265,64
589,28	1177,58
589,47	1253,36
589,67	1271,79
589,86	1236,97
590,06	1230,83
590,25	1296,36
590,44	1234,93
590,64	1216,49
590,83	1292,27
591,02	1249,26
591,22	1290,22
591,41	1198,06
591,60	1255,40
591,80	1343,47
591,99	1366,00
592,18	1275,88
592,38	1208,30
592,57	1218,54
592,76	1290,22
592,96	1206,25
593,15	1341,42
593,34	1247,21
593,54	1322,99
593,73	1261,55
593,92	1265,64
594,12	1216,49
594,31	1257,45
594,50	1261,55
594,70	1335,28
594,89	1288,17
595,08	1290,22
595,28	1298,41
595,47	1310,70
595,66	1228,78
595,86	1355,76
596,05	1292,27
596,24	1275,88
596,43	1259,50
596,63	1239,02
596,82	1265,64
597,01	1279,98
597,21	1212,40
597,40	1282,03
597,59	1312,75
597,79	1286,12
597,98	1304,56
598,17	1243,12
598,36	1239,02
598,56	1298,41
598,75	1286,12
598,94	1208,30
599,14	1232,88
599,33	1259,50
599,52	1232,88
599,71	1314,80
599,91	1263,60
600,10	1247,21
600,29	1273,84
600,48	1271,79
600,68	1263,60
600,87	1372,14
601,06	1282,03
601,26	1273,84
601,45	1302,51
601,64	1396,71
601,83	1193,97
602,03	1263,60
602,22	1269,74
602,41	1216,49
602,60	1265,64
602,80	1298,41
602,99	1300,46
603,18	1171,44
603,37	1239,02
603,57	1275,88
603,76	1304,56
603,95	1236,97
604,14	1261,55
604,34	1257,45
604,53	1236,97
604,72	1204,21
604,91	1282,03
605,10	1257,45
605,30	1265,64
605,49	1277,93
605,68	1298,41
605,87	1378,28
606,07	1273,84
606,26	1300,46
606,45	1265,64
606,64	1198,06
606,84	1282,03
607,03	1306,60
607,22	1263,60
607,41	1288,17
607,60	1279,98
607,80	1224,69
607,99	1277,93
608,18	1218,54
608,37	1302,51
608,56	1290,22
608,76	1228,78
608,95	1284,08
609,14	1263,60
609,33	1202,16
609,52	1255,40
609,72	1351,66
609,91	1218,54
610,10	1306,60
610,29	1232,88
610,48	1253,36
610,68	1286,12
610,87	1333,23
611,06	1249,26
611,25	1314,80
611,44	1208,30
611,63	1255,40
611,83	1339,37
612,02	1275,88
612,21	1312,75
612,40	1245,16
612,59	1310,70
612,79	1275,88
612,98	1253,36
613,17	1189,87
613,36	1216,49
613,55	1241,07
613,74	1257,45
613,93	1257,45
614,13	1290,22
614,32	1216,49
614,51	1234,93
614,70	1224,69
614,89	1269,74
615,08	1286,12
615,28	1228,78
615,47	1302,51
615,66	1249,26
615,85	1329,13
616,04	1314,80
616,23	1292,27
616,42	1277,93
616,62	1273,84
616,81	1312,75
617,00	1273,84
617,19	1263,60
617,38	1331,18
617,57	1249,26
617,76	1232,88
617,95	1232,88
618,15	1232,88
618,34	1320,94
618,53	1363,95
618,72	1234,93
618,91	1290,22
619,10	1312,75
619,29	1239,02
619,48	1273,84
619,68	1294,32
619,87	1222,64
620,06	1212,40
620,25	1366,00
620,44	1277,93
620,63	1279,98
620,82	1292,27
621,01	1279,98
621,20	1269,74
621,39	1216,49
621,59	1296,36
621,78	1273,84
621,97	1210,35
622,16	1282,03
622,35	1361,90
622,54	1288,17
622,73	1261,55
622,92	1255,40
623,11	1308,65
623,30	1296,36
623,49	1212,40
623,68	1251,31
623,88	1259,50
624,07	1279,98
624,26	1292,27
624,45	1253,36
624,64	1236,97
624,83	1329,13
625,02	1187,82
625,21	1216,49
625,40	1318,89
625,59	1296,36
625,78	1261,55
625,97	1230,83
626,16	1296,36
626,35	1243,12
626,54	1306,60
626,74	1282,03
626,93	1267,69
627,12	1251,31
627,31	1345,52
627,50	1298,41
627,69	1286,12
627,88	1329,13
628,07	1298,41
628,26	1267,69
628,45	1267,69
628,64	1263,60
628,83	1322,99
629,02	1236,97
629,21	1212,40
629,40	1247,21
629,59	1263,60
629,78	1257,45
629,97	1290,22
630,16	1263,60
630,35	1218,54
630,54	1310,70
630,73	1208,30
630,92	1320,94
631,11	1243,12
631,30	1310,70
631,49	1370,09
631,68	1318,89
631,87	1388,52
632,06	1423,34
632,25	1421,29
632,44	1445,87
632,63	1454,06
632,82	1398,76
633,01	1460,20
633,20	1470,44
633,39	1452,01
633,58	1411,05
633,77	1273,84
633,96	1495,02
634,15	1478,63
634,34	1810,40
634,53	2023,39
634,72	1732,58
634,91	1433,58
635,10	1552,36
635,29	1826,79
635,48	2031,58
635,67	1964,00
635,86	1912,80
636,05	1830,88
636,24	1654,76
636,43	1458,15
636,62	1460,20
636,81	1396,71
637,00	1343,47
637,19	1353,71
637,38	1411,05
637,57	1245,16
637,76	1304,56
637,95	1347,56
638,14	1298,41
638,33	1302,51
638,52	1331,18
638,71	1226,73
638,89	1249,26
639,08	1269,74
639,27	1331,18
639,46	1257,45
639,65	1353,71
639,84	1337,32
640,03	1279,98
640,22	1282,03
640,41	1257,45
640,60	1269,74
640,79	1286,12
640,98	1257,45
641,17	1273,84
641,36	1249,26
641,55	1288,17
641,74	1224,69
641,92	1282,03
642,11	1290,22
642,30	1253,36
642,49	1277,93
642,68	1245,16
642,87	1220,59
643,06	1261,55
643,25	1320,94
643,44	1251,31
643,63	1339,37
643,82	1236,97
644,00	1304,56
644,19	1335,28
644,38	1243,12
644,57	1230,83
644,76	1335,28
644,95	1298,41
645,14	1239,02
645,33	1279,98
645,52	1239,02
645,71	1290,22
645,89	1275,88
646,08	1263,60
646,27	1216,49
646,46	1239,02
646,65	1339,37
646,84	1325,04
647,03	1236,97
647,22	1241,07
647,40	1210,35
647,59	1267,69
647,78	1183,73
647,97	1273,84
648,16	1263,60
648,35	1282,03
648,54	1300,46
648,73	1329,13
648,91	1232,88
649,10	1257,45
649,29	1249,26
649,48	1267,69
649,67	1302,51
649,86	1189,87
650,05	1247,21
650,23	1339,37
650,42	1247,21
650,61	1304,56
650,80	1239,02
650,99	1245,16
651,18	1218,54
651,36	1247,21
651,55	1222,64
651,74	1230,83
651,93	1261,55
652,12	1257,45
652,31	1312,75
652,49	1171,44
652,68	1239,02
652,87	1214,45
653,06	1259,50
653,25	1226,73
653,44	1298,41
653,62	1255,40
653,81	1273,84
654,00	1357,80
654,19	1265,64
654,38	1263,60
654,56	1310,70
654,75	1279,98
654,94	1277,93
655,13	1253,36
655,32	1267,69
655,51	1220,59
655,69	1288,17
655,88	1179,63
656,07	1308,65
656,26	1376,24
656,45	1318,89
656,63	1361,90
656,82	1226,73
657,01	1286,12
657,20	1218,54
657,38	1300,46
657,57	1310,70
657,76	1298,41
657,95	1333,23
658,14	1353,71
658,32	1200,11
658,51	1208,30
658,70	1239,02
658,89	1263,60
659,08	1200,11
659,26	1286,12
659,45	1255,40
659,64	1265,64
659,83	1236,97
660,01	1239,02
660,20	1288,17
660,39	1351,66
660,58	1296,36
660,76	1230,83
660,95	1249,26
661,14	1318,89
661,33	1290,22
661,51	1249,26
661,70	1232,88
661,89	1261,55
662,08	1255,40
662,26	1304,56
662,45	1288,17
662,64	1284,08
662,83	1273,84
663,01	1300,46
663,20	1269,74
663,39	1218,54
663,58	1265,64
663,76	1265,64
663,95	1257,45
664,14	1196,01
664,32	1257,45
664,51	1273,84
664,70	1288,17
664,89	1288,17
665,07	1247,21
665,26	1290,22
665,45	1193,97
665,64	1271,79
665,82	1269,74
666,01	1288,17
666,20	1341,42
666,38	1292,27
666,57	1273,84
666,76	1290,22
666,95	1277,93
667,13	1267,69
667,32	1214,45
667,51	1241,07
667,69	1269,74
667,88	1208,30
668,07	1304,56
668,25	1224,69
668,44	1296,36
668,63	1230,83
668,81	1298,41
669,00	1220,59
669,19	1327,08
669,38	1286,12
669,56	1298,41
669,75	1361,90
669,94	1222,64
670,12	1228,78
670,31	1290,22
670,50	1226,73
670,68	1286,12
670,87	1275,88
671,06	1212,40
671,24	1306,60
671,43	1306,60
671,62	1300,46
671,80	1310,70
671,99	1255,40
672,18	1198,06
672,36	1218,54
672,55	1267,69
672,74	1269,74
672,92	1253,36
673,11	1357,80
673,29	1198,06
673,48	1228,78
673,67	1243,12
673,85	1290,22
674,04	1251,31
674,23	1245,16
674,41	1339,37
674,60	1206,25
674,79	1273,84
674,97	1288,17
675,16	1304,56
675,34	1310,70
675,53	1218,54
675,72	1241,07
675,90	1304,56
676,09	1277,93
676,28	1300,46
676,46	1284,08
676,65	1263,60
676,83	1138,67
677,02	1294,32
677,21	1275,88
677,39	1228,78
677,58	1253,36
677,77	1259,50
677,95	1282,03
678,14	1271,79
678,32	1263,60
678,51	1189,87
678,70	1249,26
678,88	1292,27
679,07	1298,41
679,25	1181,68
679,44	1204,21
679,63	1245,16
679,81	1167,34
680,00	1239,02
680,18	1290,22
680,37	1269,74
680,55	1251,31
680,74	1292,27
680,93	1159,15
681,11	1263,60
681,30	1273,84
681,48	1277,93
681,67	1288,17
681,85	1261,55
682,04	1294,32
682,23	1257,45
682,41	1292,27
682,60	1363,95
682,78	1261,55
682,97	1234,93
683,15	1226,73
683,34	1267,69
683,53	1329,13
683,71	1228,78
683,90	1337,32
684,08	1284,08
684,27	1222,64
684,45	1210,35
684,64	1265,64
684,82	1320,94
685,01	1261,55
685,19	1308,65
685,38	1314,80
685,57	1296,36
685,75	1325,04
685,94	1253,36
686,12	1232,88
686,31	1259,50
686,49	1236,97
686,68	1251,31
686,86	1241,07
687,05	1232,88
687,23	1290,22
687,42	1271,79
687,60	1271,79
687,79	1271,79
687,97	1282,03
688,16	1232,88
688,34	1255,40
688,53	1208,30
688,71	1302,51
688,90	1241,07
689,08	1255,40
689,27	1263,60
689,45	1331,18
689,64	1284,08
689,82	1232,88
690,01	1259,50
690,19	1222,64
690,38	1241,07
690,56	1208,30
690,75	1232,88
690,93	1298,41
691,12	1196,01
691,30	1380,33
691,49	1247,21
691,67	1288,17
691,86	1263,60
692,04	1239,02
692,23	1296,36
692,41	1282,03
692,60	1294,32
692,78	1290,22
692,97	1322,99
693,15	1218,54
693,34	1284,08
693,52	1282,03
693,71	1286,12
693,89	1329,13
694,08	1228,78
694,26	1320,94
694,44	1286,12
694,63	1249,26
694,81	1257,45
695,00	1265,64
695,18	1273,84
695,37	1261,55
695,55	1234,93
695,74	1253,36
695,92	1318,89
696,10	1228,78
696,29	1251,31
696,47	1310,70
696,66	1212,40
696,84	1306,60
697,03	1325,04
697,21	1208,30
697,40	1284,08
697,58	1249,26
697,76	1310,70
697,95	1261,55
698,13	1337,32
698,32	1273,84
698,50	1277,93
698,68	1247,21
698,87	1261,55
699,05	1386,47
699,24	1279,98
699,42	1236,97
699,61	1320,94
699,79	1298,41
699,97	1347,56
700,16	1193,97
700,34	1220,59
700,53	1282,03
700,71	1247,21
700,89	1267,69
701,08	1263,60
701,26	1230,83
701,45	1251,31
701,63	1247,21
701,81	1255,40
702,00	1265,64
702,18	1290,22
702,37	1236,97
702,55	1263,60
702,73	1224,69
702,92	1230,83
703,10	1263,60
703,28	1284,08
703,47	1275,88
703,65	1263,60
703,84	1296,36
704,02	1296,36
704,20	1314,80
704,39	1267,69
704,57	1265,64
704,75	1222,64
704,94	1273,84
705,12	1290,22
705,30	1290,22
705,49	1208,30
705,67	1284,08
705,86	1232,88
706,04	1312,75
706,22	1234,93
706,41	1249,26
706,59	1314,80
706,77	1322,99
706,96	1216,49
707,14	1290,22
707,32	1271,79
707,51	1273,84
707,69	1302,51
707,87	1245,16
708,06	1286,12
708,24	1316,84
708,42	1284,08
708,61	1251,31
708,79	1271,79
708,97	1282,03
709,16	1241,07
709,34	1249,26
709,52	1232,88
709,71	1212,40
709,89	1298,41
710,07	1275,88
710,26	1273,84
710,44	1249,26
710,62	1255,40
710,80	1243,12
710,99	1265,64
711,17	1341,42
711,35	1322,99
711,54	1253,36
711,72	1222,64
711,90	1228,78
712,09	1261,55
712,27	1249,26
712,45	1193,97
712,63	1212,40
712,82	1271,79
713,00	1265,64
713,18	1355,76
713,37	1241,07
713,55	1230,83
713,73	1255,40
713,91	1261,55
714,10	1292,27
714,28	1279,98
714,46	1271,79
714,65	1345,52
714,83	1273,84
715,01	1273,84
715,19	1230,83
715,38	1224,69
715,56	1239,02
715,74	1224,69
715,92	1277,93
716,11	1302,51
716,29	1269,74
716,47	1230,83
716,65	1220,59
716,84	1187,82
717,02	1265,64
717,20	1269,74
717,38	1249,26
717,57	1212,40
717,75	1259,50
717,93	1251,31
718,11	1247,21
718,30	1259,50
718,48	1265,64
718,66	1175,53
718,84	1298,41
719,03	1288,17
719,21	1312,75
719,39	1241,07
719,57	1273,84
719,75	1329,13
719,94	1282,03
720,12	1236,97
720,30	1228,78
720,48	1288,17
720,67	1206,25
720,85	1245,16
721,03	1294,32
721,21	1333,23
721,39	1261,55
721,58	1269,74
721,76	1298,41
721,94	1236,97
722,12	1183,73
722,30	1255,40
722,49	1290,22
722,67	1251,31
722,85	1282,03
723,03	1210,35
723,21	1259,50
723,40	1218,54
723,58	1255,40
723,76	1198,06
723,94	1275,88
724,12	1226,73
724,30	1366,00
724,49	1239,02
724,67	1261,55
724,85	1208,30
725,03	1298,41
725,21	1232,88
725,40	1359,85
725,58	1236,97
725,76	1189,87
725,94	1339,37
726,12	1261,55
726,30	1257,45
726,49	1200,11
726,67	1175,53
726,85	1308,65
727,03	1296,36
727,21	1265,64
727,39	1271,79
727,57	1290,22
727,76	1243,12
727,94	1304,56
728,12	1253,36
728,30	1337,32
728,48	1255,40
728,66	1282,03
728,84	1257,45
729,03	1271,79
729,21	1292,27
729,39	1255,40
729,57	1304,56
729,75	1327,08
729,93	1308,65
730,11	1198,06
730,30	1302,51
730,48	1239,02
730,66	1302,51
730,84	1277,93
731,02	1329,13
731,20	1251,31
731,38	1255,40
731,56	1277,93
731,74	1230,83
731,93	1312,75
732,11	1372,14
732,29	1304,56
732,47	1298,41
732,65	1265,64
732,83	1257,45
733,01	1271,79
733,19	1312,75
733,37	1163,25
733,56	1245,16
733,74	1253,36
733,92	1277,93
734,10	1312,75
734,28	1277,93
734,46	1255,40
734,64	1279,98
734,82	1261,55
735,00	1286,12
735,18	1232,88
735,36	1230,83
735,54	1306,60
735,73	1288,17
735,91	1232,88
736,09	1263,60
736,27	1234,93
736,45	1310,70
736,63	1222,64
736,81	1277,93
736,99	1339,37
737,17	1316,84
737,35	1161,20
737,53	1314,80
737,71	1275,88
737,89	1290,22
738,07	1284,08
738,25	1234,93
738,43	1263,60
738,61	1284,08
738,80	1300,46
738,98	1232,88
739,16	1200,11
739,34	1245,16
739,52	1282,03
739,70	1247,21
739,88	1359,85
740,06	1239,02
740,24	1226,73
740,42	1243,12
740,60	1253,36
740,78	1259,50
740,96	1259,50
741,14	1275,88
741,32	1243,12
741,50	1327,08
741,68	1263,60
741,86	1314,80
742,04	1239,02
742,22	1284,08
742,40	1269,74
742,58	1208,30
742,76	1308,65
742,94	1218,54
743,12	1253,36
743,30	1277,93
743,48	1269,74
743,66	1312,75
743,84	1304,56
744,02	1263,60
744,20	1261,55
744,38	1212,40
744,56	1263,60
744,74	1241,07
744,92	1314,80
745,10	1249,26
745,28	1249,26
745,46	1277,93
745,64	1226,73
745,82	1198,06
746,00	1347,56
746,18	1294,32
746,36	1263,60
746,54	1247,21
746,72	1277,93
746,90	1263,60
747,08	1296,36
747,26	1259,50
747,44	1282,03
747,62	1214,45
747,80	1292,27
747,98	1275,88
748,15	1279,98
748,33	1228,78
748,51	1300,46
748,69	1253,36
748,87	1273,84
749,05	1277,93
749,23	1306,60
749,41	1239,02
749,59	1214,45
749,77	1261,55
749,95	1345,52
750,13	1273,84
750,31	1239,02
750,49	1239,02
750,67	1304,56
750,85	1304,56
751,03	1304,56
751,20	1232,88
751,38	1282,03
751,56	1214,45
751,74	1257,45
751,92	1228,78
752,10	1251,31
752,28	1288,17
752,46	1198,06
752,64	1267,69
752,82	1269,74
753,00	1288,17
753,18	1269,74
753,35	1275,88
753,53	1286,12
753,71	1245,16
753,89	1318,89
754,07	1241,07
754,25	1325,04
754,43	1273,84
754,61	1271,79
754,79	1290,22
754,97	1306,60
755,14	1316,84
755,32	1263,60
755,50	1286,12
755,68	1224,69
755,86	1243,12
756,04	1259,50
756,22	1271,79
756,40	1269,74
756,57	1312,75
756,75	1222,64
756,93	1271,79
757,11	1243,12
757,29	1234,93
757,47	1214,45
757,65	1263,60
757,82	1267,69
758,00	1236,97
758,18	1282,03
758,36	1220,59
758,54	1333,23
758,72	1273,84
758,90	1302,51
759,07	1286,12
759,25	1263,60
759,43	1249,26
759,61	1245,16
759,79	1337,32
759,97	1263,60
760,15	1265,64
760,32	1198,06
760,50	1255,40
760,68	1277,93
760,86	1357,80
761,04	1286,12
761,22	1249,26
761,39	1273,84
761,57	1341,42
761,75	1245,16
761,93	1259,50
762,11	1282,03
762,28	1292,27
762,46	1253,36
762,64	1322,99
762,82	1259,50
763,00	1275,88
763,18	1314,80
763,35	1259,50
763,53	1294,32
763,71	1271,79
763,89	1247,21
764,07	1257,45
764,24	1185,77
764,42	1298,41
764,60	1259,50
764,78	1212,40
764,96	1325,04
765,13	1239,02
765,31	1339,37
765,49	1230,83
765,67	1208,30
765,84	1302,51
766,02	1243,12
766,20	1259,50
766,38	1255,40
766,56	1220,59
766,73	1298,41
766,91	1271,79
767,09	1329,13
767,27	1320,94
767,44	1206,25
767,62	1275,88
767,80	1263,60
767,98	1314,80
768,15	1216,49
768,33	1261,55
768,51	1296,36
768,69	1282,03
768,87	1253,36
769,04	1212,40
769,22	1329,13
769,40	1269,74
769,58	1290,22
769,75	1273,84
769,93	1191,92
770,11	1279,98
770,28	1277,93
770,46	1271,79
770,64	1361,90
770,82	1290,22
770,99	1329,13
771,17	1308,65
771,35	1265,64
771,53	1277,93
771,70	1288,17
771,88	1277,93
772,06	1251,31
772,23	1292,27
772,41	1294,32
772,59	1286,12
772,77	1345,52
772,94	1257,45
773,12	1241,07
773,30	1294,32
773,47	1259,50
773,65	1208,30
773,83	1249,26
774,01	1200,11
774,18	1322,99
774,36	1214,45
774,54	1259,50
774,71	1239,02
774,89	1200,11
775,07	1304,56
775,24	1259,50
775,42	1269,74
775,60	1198,06
775,78	1275,88
775,95	1253,36
776,13	1257,45
776,31	1312,75
776,48	1206,25
776,66	1265,64
776,84	1308,65
777,01	1312,75
777,19	1253,36
777,37	1298,41
777,54	1259,50
777,72	1316,84
777,90	1253,36
778,07	1312,75
778,25	1314,80
778,43	1261,55
778,60	1314,80
778,78	1314,80
778,96	1200,11
779,13	1251,31
779,31	1212,40
779,49	1261,55
779,66	1185,77
779,84	1236,97
780,01	1247,21
780,19	1267,69
780,37	1279,98
780,54	1214,45
780,72	1220,59
780,90	1310,70
781,07	1232,88
781,25	1265,64
781,43	1335,28
781,60	1253,36
781,78	1292,27
781,95	1269,74
782,13	1259,50
782,31	1265,64
782,48	1286,12
782,66	1247,21
782,83	1300,46
783,01	1249,26
783,19	1251,31
783,36	1279,98
783,54	1284,08
783,72	1273,84
783,89	1292,27
784,07	1214,45
784,24	1310,70
784,42	1310,70
784,60	1267,69
784,77	1318,89
784,95	1173,49
785,12	1263,60
785,30	1308,65
785,47	1247,21
785,65	1249,26
785,83	1284,08
786,00	1239,02
786,18	1292,27
786,35	1232,88
786,53	1318,89
786,71	1273,84
786,88	1322,99
787,06	1271,79
787,23	1273,84
787,41	1208,30
787,58	1355,76
787,76	1228,78
787,94	1255,40
788,11	1259,50
788,29	1288,17
788,46	1236,97
788,64	1273,84
788,81	1218,54
788,99	1349,61
789,16	1257,45
789,34	1290,22
789,52	1206,25
789,69	1259,50
789,87	1243,12
790,04	1343,47
790,22	1279,98
790,39	1277,93
790,57	1279,98
790,74	1288,17
790,92	1288,17
791,09	1226,73
791,27	1302,51
791,44	1298,41
791,62	1284,08
791,79	1286,12
791,97	1294,32
792,15	1189,87
792,32	1236,97
792,50	1288,17
792,67	1349,61
792,85	1214,45
793,02	1292,27
793,20	1189,87
793,37	1341,42
793,55	1218,54
793,72	1247,21
793,90	1284,08
794,07	1288,17
794,25	1277,93
794,42	1247,21
794,60	1288,17
794,77	1259,50
794,95	1249,26
795,12	1249,26
795,30	1312,75
795,47	1247,21
795,65	1316,84
795,82	1290,22
796,00	1241,07
796,17	1224,69
796,34	1263,60
796,52	1222,64
796,69	1210,35
796,87	1271,79
797,04	1296,36
797,22	1357,80
797,39	1361,90
797,57	1173,49
797,74	1294,32
797,92	1286,12
798,09	1251,31
798,27	1239,02
798,44	1271,79
798,62	1239,02
798,79	1224,69
798,96	1273,84
799,14	1341,42
799,31	1275,88
799,49	1222,64
799,66	1273,84
799,84	1275,88
800,01	1288,17
800,19	1294,32
800,36	1277,93
800,53	1269,74
800,71	1222,64
800,88	1261,55
801,06	1331,18
801,23	1230,83
801,41	1288,17
801,58	1263,60
801,75	1236,97
801,93	1198,06
802,10	1236,97
802,28	1312,75
802,45	1265,64
802,63	1316,84
802,80	1335,28
802,97	1247,21
803,15	1257,45
803,32	1339,37
803,50	1208,30
803,67	1255,40
803,84	1196,01
804,02	1314,80
804,19	1249,26
804,37	1298,41
804,54	1286,12
804,71	1294,32
804,89	1265,64
805,06	1349,61
805,24	1265,64
805,41	1296,36
805,58	1318,89
805,76	1320,94
805,93	1247,21
806,10	1245,16
806,28	1322,99
806,45	1245,16
806,63	1347,56
806,80	1325,04
806,97	1214,45
807,15	1265,64
807,32	1247,21
807,49	1243,12
807,67	1265,64
807,84	1259,50
808,01	1286,12
808,19	1282,03
808,36	1230,83
808,54	1239,02
808,71	1263,60
808,88	1212,40
809,06	1224,69
809,23	1316,84
809,40	1294,32
809,58	1355,76
809,75	1253,36
809,92	1263,60
810,10	1253,36
810,27	1290,22
810,44	1224,69
810,62	1298,41
810,79	1279,98
810,96	1306,60
811,14	1241,07
811,31	1322,99
811,48	1273,84
811,66	1292,27
811,83	1310,70
812,00	1345,52
812,18	1267,69
812,35	1273,84
812,52	1150,96
812,69	1198,06
812,87	1286,12
813,04	1292,27
813,21	1249,26
813,39	1306,60
813,56	1265,64
813,73	1286,12
813,91	1273,84
814,08	1282,03
814,25	1271,79
814,42	1279,98
814,60	1298,41
814,77	1255,40
814,94	1318,89
815,12	1286,12
815,29	1239,02
815,46	1282,03
815,63	1306,60
815,81	1255,40
815,98	1241,07
816,15	1189,87
816,33	1298,41
816,50	1269,74
816,67	1263,60
816,84	1245,16
817,02	1273,84
817,19	1277,93
817,36	1251,31
817,53	1257,45
817,71	1255,40
817,88	1298,41
818,05	1308,65
818,22	1294,32
818,40	1312,75
818,57	1243,12
818,74	1249,26
818,91	1257,45
819,09	1333,23
819,26	1191,92
819,43	1183,73
819,60	1370,09
819,78	1273,84
819,95	1249,26
820,12	1251,31
820,29	1245,16
820,47	1243,12
820,64	1241,07
820,81	1322,99
820,98	1232,88
821,15	1304,56
821,33	1310,70
821,50	1271,79
821,67	1306,60
821,84	1191,92
822,02	1230,83
822,19	1320,94
822,36	1288,17
822,53	1249,26
822,70	1232,88
822,88	1304,56
823,05	1271,79
823,22	1171,44
823,39	1288,17
823,56	1220,59
823,74	1243,12
823,91	1255,40
824,08	1314,80
824,25	1288,17
824,42	1210,35
824,60	1277,93
824,77	1228,78
824,94	1320,94
825,11	1255,40
825,28	1275,88
825,45	1245,16
825,63	1247,21
825,80	1208,30
825,97	1265,64
826,14	1245,16
826,31	1222,64
826,48	1292,27
826,66	1339,37
826,83	1228,78
827,00	1347,56
827,17	1292,27
827,34	1130,48
827,51	1300,46
827,69	1286,12
827,86	1290,22
828,03	1277,93
828,20	1251,31
828,37	1263,60
828,54	1243,12
828,71	1257,45
828,89	1345,52
829,06	1224,69
829,23	1351,66
829,40	1329,13
829,57	1282,03
829,74	1255,40
829,91	1232,88
830,09	1288,17
830,26	1310,70
830,43	1288,17
830,60	1243,12
830,77	1308,65
830,94	1275,88
831,11	1185,77
831,28	1216,49
831,46	1298,41
831,63	1239,02
831,80	1249,26
831,97	1273,84
832,14	1343,47
832,31	1282,03
832,48	1292,27
832,65	1300,46
832,82	1265,64
832,99	1267,69
833,17	1357,80
833,34	1263,60
833,51	1257,45
833,68	1267,69
833,85	1335,28
834,02	1249,26
834,19	1279,98
834,36	1249,26
834,53	1279,98
834,70	1241,07
834,87	1236,97
835,04	1214,45
835,22	1253,36
835,39	1275,88
835,56	1343,47
835,73	1261,55
835,90	1255,40
836,07	1298,41
836,24	1322,99
836,41	1239,02
836,58	1273,84
836,75	1265,64
836,92	1312,75
837,09	1265,64
837,26	1249,26
837,43	1298,41
837,60	1341,42
837,77	1322,99
837,94	1288,17
838,12	1257,45
838,29	1345,52
838,46	1191,92
838,63	1236,97
838,80	1245,16
838,97	1269,74
839,14	1298,41
839,31	1247,21
839,48	1282,03
839,65	1279,98
839,82	1214,45
839,99	1269,74
840,16	1296,36
840,33	1277,93
840,50	1290,22
840,67	1198,06
840,84	1277,93
841,01	1298,41
841,18	1249,26
841,35	1279,98
841,52	1277,93
841,69	1320,94
841,86	1277,93
842,03	1236,97
842,20	1257,45
842,37	1347,56
842,54	1251,31
842,71	1267,69
842,88	1206,25
843,05	1206,25
843,22	1257,45
843,39	1200,11
843,56	1292,27
843,73	1271,79
843,90	1222,64
844,07	1245,16
844,24	1327,08
844,41	1294,32
844,58	1255,40
844,75	1316,84
844,92	1189,87
845,09	1292,27
845,26	1306,60
845,43	1308,65
845,60	1300,46
845,77	1226,73
845,94	1204,21
846,10	1253,36
846,27	1189,87
846,44	1306,60
846,61	1318,89
846,78	1214,45
846,95	1226,73
847,12	1279,98
847,29	1247,21
847,46	1296,36
847,63	1325,04
847,80	1314,80
847,97	1292,27
848,14	1226,73
848,31	1253,36
848,48	1241,07
848,65	1200,11
848,82	1341,42
848,98	1277,93
849,15	1304,56
849,32	1292,27
849,49	1308,65
849,66	1271,79
849,83	1267,69
850,00	1216,49
850,17	1236,97
850,34	1282,03
850,51	1286,12
850,68	1290,22
850,85	1259,50
851,01	1222,64
851,18	1275,88
851,35	1290,22
851,52	1251,31
851,69	1245,16
851,86	1292,27
852,03	1243,12
852,20	1282,03
852,37	1355,76
852,53	1216,49
852,70	1267,69
852,87	1263,60
853,04	1290,22
853,21	1234,93
853,38	1241,07
853,55	1290,22
853,72	1290,22
853,89	1243,12
854,05	1193,97
854,22	1212,40
854,39	1259,50
854,56	1290,22
854,73	1202,16
854,90	1327,08
855,07	1239,02
855,23	1208,30
855,40	1298,41
855,57	1245,16
855,74	1230,83
855,91	1236,97
856,08	1216,49
856,25	1224,69
856,41	1247,21
856,58	1312,75
856,75	1275,88
856,92	1218,54
857,09	1249,26
857,26	1312,75
857,42	1292,27
857,59	1271,79
857,76	1290,22
857,93	1228,78
858,10	1308,65
858,27	1294,32
858,43	1255,40
858,60	1263,60
858,77	1325,04
858,94	1226,73
859,11	1187,82
859,27	1294,32
859,44	1331,18
859,61	1228,78
859,78	1226,73
859,95	1179,63
860,12	1259,50
860,28	1284,08
860,45	1361,90
860,62	1359,85
860,79	1204,21
860,95	1271,79
861,12	1335,28
861,29	1253,36
861,46	1296,36
861,63	1243,12
861,79	1273,84
861,96	1292,27
862,13	1255,40
862,30	1286,12
862,47	1304,56
862,63	1191,92
862,80	1282,03
862,97	1230,83
863,14	1200,11
863,30	1300,46
863,47	1320,94
863,64	1224,69
863,81	1275,88
863,97	1232,88
864,14	1185,77
864,31	1320,94
864,48	1234,93
864,65	1234,93
864,81	1206,25
864,98	1279,98
865,15	1220,59
865,32	1296,36
865,48	1228,78
865,65	1265,64
865,82	1241,07
865,98	1327,08
866,15	1183,73
866,32	1310,70
866,49	1259,50
866,65	1251,31
866,82	1300,46
866,99	1206,25
867,16	1312,75
867,32	1290,22
867,49	1298,41
867,66	1236,97
867,83	1249,26
867,99	1189,87
868,16	1282,03
868,33	1202,16
868,49	1277,93
868,66	1208,30
868,83	1249,26
868,99	1267,69
869,16	1308,65
869,33	1239,02
869,50	1327,08
869,66	1257,45
869,83	1302,51
870,00	1275,88
870,16	1216,49
870,33	1257,45
870,50	1226,73
870,66	1261,55
870,83	1277,93
871,00	1222,64
871,17	1314,80
871,33	1273,84
871,50	1230,83
871,67	1273,84
871,83	1306,60
872,00	1273,84
872,17	1249,26
872,33	1300,46
872,50	1247,21
872,67	1277,93
872,83	1247,21
873,00	1175,53
873,17	1269,74
873,33	1202,16
873,50	1310,70
873,67	1294,32
873,83	1251,31
874,00	1261,55
874,16	1304,56
874,33	1193,97
874,50	1294,32
874,66	1236,97
874,83	1282,03
875,00	1345,52
875,16	1275,88
875,33	1257,45
875,50	1234,93
875,66	1349,61
875,83	1230,83
875,99	1255,40
876,16	1308,65
876,33	1261,55
876,49	1245,16
876,66	1329,13
876,83	1175,53
876,99	1302,51
877,16	1247,21
877,32	1259,50
877,49	1230,83
877,66	1306,60
877,82	1255,40
877,99	1273,84
878,15	1247,21
878,32	1249,26
878,49	1249,26
878,65	1257,45
878,82	1325,04
878,98	1269,74
879,15	1269,74
879,32	1216,49
879,48	1302,51
879,65	1247,21
879,81	1253,36
879,98	1232,88
880,15	1331,18
880,31	1265,64
880,48	1275,88
880,64	1202,16
880,81	1251,31
880,97	1218,54
881,14	1288,17
881,31	1245,16
881,47	1312,75
881,64	1318,89
881,80	1271,79
881,97	1292,27
882,13	1302,51
882,30	1296,36
882,47	1226,73
882,63	1265,64
882,80	1269,74
882,96	1259,50
883,13	1243,12
883,29	1302,51
883,46	1277,93
883,62	1208,30
883,79	1296,36
883,95	1306,60
884,12	1306,60
884,29	1257,45
884,45	1212,40
884,62	1322,99
884,78	1282,03
884,95	1249,26
885,11	1261,55
885,28	1241,07
885,44	1265,64
885,61	1306,60
885,77	1279,98
885,94	1286,12
886,10	1212,40
886,27	1216,49
886,43	1329,13
886,60	1296,36
886,76	1290,22
886,93	1222,64
887,09	1304,56
887,26	1265,64
887,42	1216,49
887,59	1286,12
887,75	1279,98
887,92	1329,13
888,08	1378,28
888,25	1216,49
888,41	1241,07
888,58	1263,60
888,74	1282,03
888,91	1212,40
>>>>>End Processed Spectral Data<<<<<
