SpectraSuite Data File
++++++++++++++++++++++++++++++++++++
Date: Sun Apr 03 18:47:04 CEST 2016
User: root
Dark Spectrum Present: No
Reference Spectrum Present: No
Number of Sampled Component Spectra: 1
Spectrometers: USB4C02835
Integration Time (usec): 10000 (USB4C02835)
Spectra Averaged: 1 (USB4C02835)
Boxcar Smoothing: 0 (USB4C02835)
Correct for Electrical Dark: No (USB4C02835)
Strobe/Lamp Enabled: No (USB4C02835)
Correct for Detector Non-linearity: No (USB4C02835)
Correct for Stray Light: No (USB4C02835)
Number of Pixels in Processed Spectrum: 3648
>>>>>Begin Processed Spectral Data<<<<<
177,47	1296,36
177,69	1296,36
177,91	1296,36
178,13	1282,03
178,36	1255,40
178,58	1271,79
178,80	1275,88
179,02	1275,88
179,24	1198,06
179,46	1187,82
179,68	1279,98
179,90	1228,78
180,13	1226,73
180,35	1290,22
180,57	1232,88
180,79	1290,22
181,01	1288,17
181,23	1312,75
181,45	1253,36
181,67	1284,08
181,90	1232,88
182,12	1335,28
182,34	1224,69
182,56	1173,49
182,78	1282,03
183,00	1265,64
183,22	1255,40
183,44	1236,97
183,66	1271,79
183,89	1284,08
184,11	1224,69
184,33	1267,69
184,55	1259,50
184,77	1316,84
184,99	1263,60
185,21	1347,56
185,43	1284,08
185,65	1198,06
185,87	1325,04
186,10	1226,73
186,32	1288,17
186,54	1193,97
186,76	1249,26
186,98	1243,12
187,20	1263,60
187,42	1224,69
187,64	1243,12
187,86	1243,12
188,08	1253,36
188,30	1294,32
188,52	1236,97
188,75	1236,97
188,97	1333,23
189,19	1347,56
189,41	1294,32
189,63	1257,45
189,85	1271,79
190,07	1241,07
190,29	1202,16
190,51	1282,03
190,73	1263,60
190,95	1282,03
191,17	1275,88
191,39	1282,03
191,61	1204,21
191,84	1275,88
192,06	1241,07
192,28	1269,74
192,50	1265,64
192,72	1267,69
192,94	1343,47
193,16	1265,64
193,38	1232,88
193,60	1284,08
193,82	1269,74
194,04	1247,21
194,26	1294,32
194,48	1327,08
194,70	1226,73
194,92	1230,83
195,14	1224,69
195,36	1218,54
195,58	1263,60
195,80	1228,78
196,02	1259,50
196,24	1349,61
196,46	1206,25
196,69	1247,21
196,91	1286,12
197,13	1224,69
197,35	1322,99
197,57	1302,51
197,79	1320,94
198,01	1343,47
198,23	1308,65
198,45	1284,08
198,67	1316,84
198,89	1277,93
199,11	1257,45
199,33	1220,59
199,55	1265,64
199,77	1282,03
199,99	1316,84
200,21	1318,89
200,43	1337,32
200,65	1265,64
200,87	1232,88
201,09	1310,70
201,31	1331,18
201,53	1349,61
201,75	1259,50
201,97	1308,65
202,19	1300,46
202,41	1312,75
202,63	1331,18
202,85	1253,36
203,07	1337,32
203,29	1310,70
203,51	1232,88
203,73	1275,88
203,95	1331,18
204,17	1300,46
204,39	1251,31
204,61	1277,93
204,83	1239,02
205,05	1306,60
205,27	1282,03
205,49	1279,98
205,71	1259,50
205,93	1230,83
206,15	1261,55
206,37	1318,89
206,59	1265,64
206,81	1275,88
207,03	1198,06
207,25	1228,78
207,47	1208,30
207,69	1271,79
207,91	1185,77
208,13	1257,45
208,34	1189,87
208,56	1261,55
208,78	1257,45
209,00	1269,74
209,22	1259,50
209,44	1204,21
209,66	1286,12
209,88	1329,13
210,10	1282,03
210,32	1286,12
210,54	1247,21
210,76	1171,44
210,98	1316,84
211,20	1273,84
211,42	1259,50
211,64	1204,21
211,86	1284,08
212,08	1292,27
212,30	1236,97
212,52	1249,26
212,74	1187,82
212,96	1239,02
213,17	1249,26
213,39	1259,50
213,61	1243,12
213,83	1236,97
214,05	1247,21
214,27	1298,41
214,49	1320,94
214,71	1271,79
214,93	1298,41
215,15	1208,30
215,37	1304,56
215,59	1298,41
215,81	1253,36
216,03	1296,36
216,24	1247,21
216,46	1214,45
216,68	1308,65
216,90	1298,41
217,12	1325,04
217,34	1320,94
217,56	1302,51
217,78	1273,84
218,00	1232,88
218,22	1241,07
218,44	1290,22
218,66	1314,80
218,87	1316,84
219,09	1296,36
219,31	1226,73
219,53	1343,47
219,75	1304,56
219,97	1226,73
220,19	1314,80
220,41	1220,59
220,63	1308,65
220,85	1304,56
221,06	1232,88
221,28	1300,46
221,50	1251,31
221,72	1402,86
221,94	1271,79
222,16	1267,69
222,38	1306,60
222,60	1335,28
222,82	1265,64
223,03	1232,88
223,25	1263,60
223,47	1245,16
223,69	1226,73
223,91	1259,50
224,13	1187,82
224,35	1236,97
224,57	1298,41
224,78	1247,21
225,00	1265,64
225,22	1257,45
225,44	1241,07
225,66	1294,32
225,88	1275,88
226,10	1269,74
226,32	1329,13
226,53	1245,16
226,75	1267,69
226,97	1288,17
227,19	1253,36
227,41	1355,76
227,63	1325,04
227,85	1318,89
228,06	1286,12
228,28	1286,12
228,50	1292,27
228,72	1269,74
228,94	1310,70
229,16	1241,07
229,37	1232,88
229,59	1177,58
229,81	1277,93
230,03	1325,04
230,25	1257,45
230,47	1173,49
230,69	1273,84
230,90	1259,50
231,12	1218,54
231,34	1236,97
231,56	1222,64
231,78	1263,60
232,00	1279,98
232,21	1292,27
232,43	1327,08
232,65	1212,40
232,87	1243,12
233,09	1214,45
233,30	1269,74
233,52	1239,02
233,74	1208,30
233,96	1279,98
234,18	1200,11
234,40	1259,50
234,61	1234,93
234,83	1337,32
235,05	1284,08
235,27	1230,83
235,49	1325,04
235,70	1232,88
235,92	1298,41
236,14	1253,36
236,36	1298,41
236,58	1193,97
236,79	1282,03
237,01	1241,07
237,23	1304,56
237,45	1310,70
237,67	1290,22
237,88	1265,64
238,10	1279,98
238,32	1206,25
238,54	1255,40
238,76	1271,79
238,97	1245,16
239,19	1277,93
239,41	1292,27
239,63	1277,93
239,85	1247,21
240,06	1277,93
240,28	1310,70
240,50	1296,36
240,72	1261,55
240,93	1224,69
241,15	1325,04
241,37	1226,73
241,59	1236,97
241,81	1312,75
242,02	1304,56
242,24	1261,55
242,46	1236,97
242,68	1241,07
242,89	1284,08
243,11	1202,16
243,33	1286,12
243,55	1271,79
243,76	1318,89
243,98	1263,60
244,20	1273,84
244,42	1241,07
244,64	1267,69
244,85	1228,78
245,07	1282,03
245,29	1265,64
245,51	1220,59
245,72	1261,55
245,94	1245,16
246,16	1290,22
246,38	1263,60
246,59	1286,12
246,81	1314,80
247,03	1234,93
247,24	1239,02
247,46	1308,65
247,68	1296,36
247,90	1357,80
248,11	1294,32
248,33	1310,70
248,55	1294,32
248,77	1232,88
248,98	1249,26
249,20	1282,03
249,42	1318,89
249,64	1349,61
249,85	1269,74
250,07	1325,04
250,29	1269,74
250,50	1261,55
250,72	1314,80
250,94	1339,37
251,16	1267,69
251,37	1308,65
251,59	1224,69
251,81	1159,15
252,02	1327,08
252,24	1239,02
252,46	1251,31
252,68	1347,56
252,89	1249,26
253,11	1179,63
253,33	1224,69
253,54	1337,32
253,76	1210,35
253,98	1210,35
254,20	1241,07
254,41	1202,16
254,63	1296,36
254,85	1261,55
255,06	1265,64
255,28	1239,02
255,50	1322,99
255,71	1245,16
255,93	1277,93
256,15	1298,41
256,36	1292,27
256,58	1304,56
256,80	1255,40
257,02	1243,12
257,23	1263,60
257,45	1218,54
257,67	1277,93
257,88	1243,12
258,10	1273,84
258,32	1296,36
258,53	1275,88
258,75	1304,56
258,97	1298,41
259,18	1300,46
259,40	1214,45
259,62	1175,53
259,83	1241,07
260,05	1261,55
260,27	1228,78
260,48	1265,64
260,70	1236,97
260,92	1275,88
261,13	1226,73
261,35	1245,16
261,57	1241,07
261,78	1271,79
262,00	1296,36
262,22	1271,79
262,43	1257,45
262,65	1220,59
262,86	1294,32
263,08	1239,02
263,30	1312,75
263,51	1265,64
263,73	1277,93
263,95	1275,88
264,16	1290,22
264,38	1265,64
264,60	1347,56
264,81	1230,83
265,03	1271,79
265,25	1216,49
265,46	1302,51
265,68	1290,22
265,89	1267,69
266,11	1249,26
266,33	1306,60
266,54	1265,64
266,76	1269,74
266,98	1277,93
267,19	1275,88
267,41	1282,03
267,62	1288,17
267,84	1275,88
268,06	1210,35
268,27	1259,50
268,49	1275,88
268,70	1306,60
268,92	1298,41
269,14	1253,36
269,35	1290,22
269,57	1224,69
269,79	1290,22
270,00	1314,80
270,22	1206,25
270,43	1322,99
270,65	1257,45
270,87	1325,04
271,08	1202,16
271,30	1308,65
271,51	1220,59
271,73	1257,45
271,95	1290,22
272,16	1196,01
272,38	1273,84
272,59	1214,45
272,81	1349,61
273,02	1226,73
273,24	1181,68
273,46	1245,16
273,67	1277,93
273,89	1265,64
274,10	1245,16
274,32	1196,01
274,54	1259,50
274,75	1253,36
274,97	1343,47
275,18	1216,49
275,40	1294,32
275,61	1292,27
275,83	1253,36
276,05	1304,56
276,26	1296,36
276,48	1234,93
276,69	1312,75
276,91	1251,31
277,12	1261,55
277,34	1318,89
277,55	1208,30
277,77	1169,39
277,99	1230,83
278,20	1253,36
278,42	1273,84
278,63	1267,69
278,85	1257,45
279,06	1234,93
279,28	1335,28
279,49	1273,84
279,71	1290,22
279,93	1273,84
280,14	1329,13
280,36	1304,56
280,57	1271,79
280,79	1236,97
281,00	1284,08
281,22	1275,88
281,43	1282,03
281,65	1267,69
281,86	1241,07
282,08	1298,41
282,29	1306,60
282,51	1286,12
282,73	1320,94
282,94	1249,26
283,16	1298,41
283,37	1275,88
283,59	1273,84
283,80	1243,12
284,02	1302,51
284,23	1181,68
284,45	1204,21
284,66	1400,81
284,88	1241,07
285,09	1267,69
285,31	1198,06
285,52	1236,97
285,74	1224,69
285,95	1239,02
286,17	1288,17
286,38	1257,45
286,60	1257,45
286,81	1267,69
287,03	1294,32
287,24	1263,60
287,46	1253,36
287,67	1251,31
287,89	1261,55
288,10	1245,16
288,32	1222,64
288,53	1251,31
288,75	1267,69
288,96	1269,74
289,18	1163,25
289,39	1261,55
289,61	1300,46
289,82	1300,46
290,04	1290,22
290,25	1220,59
290,47	1226,73
290,68	1236,97
290,90	1308,65
291,11	1239,02
291,33	1245,16
291,54	1306,60
291,76	1214,45
291,97	1263,60
292,18	1275,88
292,40	1171,44
292,61	1232,88
292,83	1255,40
293,04	1273,84
293,26	1294,32
293,47	1298,41
293,69	1335,28
293,90	1232,88
294,12	1257,45
294,33	1296,36
294,55	1249,26
294,76	1251,31
294,97	1259,50
295,19	1302,51
295,40	1247,21
295,62	1277,93
295,83	1247,21
296,05	1341,42
296,26	1249,26
296,48	1310,70
296,69	1337,32
296,90	1345,52
297,12	1282,03
297,33	1249,26
297,55	1327,08
297,76	1314,80
297,98	1230,83
298,19	1177,58
298,41	1157,10
298,62	1257,45
298,83	1294,32
299,05	1265,64
299,26	1271,79
299,48	1257,45
299,69	1216,49
299,90	1245,16
300,12	1200,11
300,33	1269,74
300,55	1265,64
300,76	1241,07
300,98	1322,99
301,19	1236,97
301,40	1288,17
301,62	1247,21
301,83	1310,70
302,05	1288,17
302,26	1257,45
302,47	1251,31
302,69	1234,93
302,90	1263,60
303,12	1230,83
303,33	1316,84
303,54	1249,26
303,76	1249,26
303,97	1163,25
304,19	1308,65
304,40	1220,59
304,61	1261,55
304,83	1300,46
305,04	1241,07
305,26	1241,07
305,47	1228,78
305,68	1253,36
305,90	1296,36
306,11	1183,73
306,33	1236,97
306,54	1216,49
306,75	1251,31
306,97	1177,58
307,18	1232,88
307,39	1265,64
307,61	1273,84
307,82	1273,84
308,04	1304,56
308,25	1322,99
308,46	1265,64
308,68	1292,27
308,89	1277,93
309,10	1322,99
309,32	1259,50
309,53	1273,84
309,74	1234,93
309,96	1314,80
310,17	1333,23
310,39	1251,31
310,60	1267,69
310,81	1265,64
311,03	1239,02
311,24	1312,75
311,45	1300,46
311,67	1218,54
311,88	1239,02
312,09	1230,83
312,31	1325,04
312,52	1224,69
312,73	1277,93
312,95	1198,06
313,16	1196,01
313,37	1214,45
313,59	1322,99
313,80	1239,02
314,01	1327,08
314,23	1249,26
314,44	1247,21
314,65	1234,93
314,87	1339,37
315,08	1298,41
315,29	1279,98
315,51	1196,01
315,72	1306,60
315,93	1214,45
316,15	1331,18
316,36	1259,50
316,57	1224,69
316,79	1302,51
317,00	1210,35
317,21	1322,99
317,43	1314,80
317,64	1284,08
317,85	1267,69
318,07	1263,60
318,28	1196,01
318,49	1249,26
318,70	1368,04
318,92	1257,45
319,13	1226,73
319,34	1286,12
319,56	1267,69
319,77	1300,46
319,98	1224,69
320,20	1243,12
320,41	1368,04
320,62	1269,74
320,83	1288,17
321,05	1300,46
321,26	1243,12
321,47	1286,12
321,69	1298,41
321,90	1269,74
322,11	1234,93
322,32	1177,58
322,54	1320,94
322,75	1181,68
322,96	1320,94
323,18	1245,16
323,39	1265,64
323,60	1327,08
323,81	1239,02
324,03	1282,03
324,24	1204,21
324,45	1325,04
324,66	1286,12
324,88	1263,60
325,09	1349,61
325,30	1245,16
325,52	1339,37
325,73	1255,40
325,94	1241,07
326,15	1279,98
326,37	1314,80
326,58	1300,46
326,79	1216,49
327,00	1206,25
327,22	1257,45
327,43	1255,40
327,64	1306,60
327,85	1310,70
328,07	1273,84
328,28	1310,70
328,49	1265,64
328,70	1339,37
328,92	1294,32
329,13	1247,21
329,34	1279,98
329,55	1261,55
329,76	1267,69
329,98	1273,84
330,19	1302,51
330,40	1241,07
330,61	1302,51
330,83	1243,12
331,04	1234,93
331,25	1249,26
331,46	1325,04
331,68	1327,08
331,89	1245,16
332,10	1236,97
332,31	1279,98
332,52	1275,88
332,74	1232,88
332,95	1245,16
333,16	1232,88
333,37	1269,74
333,58	1243,12
333,80	1322,99
334,01	1267,69
334,22	1142,77
334,43	1296,36
334,64	1255,40
334,86	1247,21
335,07	1275,88
335,28	1331,18
335,49	1234,93
335,70	1243,12
335,92	1282,03
336,13	1279,98
336,34	1294,32
336,55	1234,93
336,76	1288,17
336,98	1312,75
337,19	1273,84
337,40	1349,61
337,61	1261,55
337,82	1286,12
338,04	1208,30
338,25	1193,97
338,46	1296,36
338,67	1296,36
338,88	1300,46
339,09	1288,17
339,31	1232,88
339,52	1265,64
339,73	1232,88
339,94	1279,98
340,15	1306,60
340,36	1236,97
340,58	1271,79
340,79	1273,84
341,00	1277,93
341,21	1239,02
341,42	1200,11
341,63	1247,21
341,85	1271,79
342,06	1302,51
342,27	1290,22
342,48	1230,83
342,69	1189,87
342,90	1245,16
343,12	1267,69
343,33	1333,23
343,54	1290,22
343,75	1296,36
343,96	1277,93
344,17	1329,13
344,38	1282,03
344,60	1202,16
344,81	1255,40
345,02	1193,97
345,23	1245,16
345,44	1249,26
345,65	1257,45
345,86	1312,75
346,07	1249,26
346,29	1181,68
346,50	1261,55
346,71	1288,17
346,92	1290,22
347,13	1236,97
347,34	1263,60
347,55	1216,49
347,76	1249,26
347,98	1290,22
348,19	1236,97
348,40	1255,40
348,61	1257,45
348,82	1335,28
349,03	1196,01
349,24	1255,40
349,45	1247,21
349,66	1245,16
349,88	1298,41
350,09	1269,74
350,30	1224,69
350,51	1271,79
350,72	1271,79
350,93	1243,12
351,14	1300,46
351,35	1261,55
351,56	1222,64
351,77	1255,40
351,99	1212,40
352,20	1298,41
352,41	1296,36
352,62	1265,64
352,83	1282,03
353,04	1265,64
353,25	1259,50
353,46	1269,74
353,67	1247,21
353,88	1241,07
354,09	1257,45
354,30	1288,17
354,52	1284,08
354,73	1267,69
354,94	1286,12
355,15	1284,08
355,36	1275,88
355,57	1251,31
355,78	1206,25
355,99	1322,99
356,20	1318,89
356,41	1316,84
356,62	1282,03
356,83	1271,79
357,04	1282,03
357,25	1239,02
357,46	1261,55
357,68	1185,77
357,89	1310,70
358,10	1212,40
358,31	1275,88
358,52	1243,12
358,73	1173,49
358,94	1230,83
359,15	1259,50
359,36	1273,84
359,57	1279,98
359,78	1284,08
359,99	1282,03
360,20	1239,02
360,41	1284,08
360,62	1335,28
360,83	1331,18
361,04	1259,50
361,25	1232,88
361,46	1263,60
361,67	1167,34
361,88	1253,36
362,09	1339,37
362,30	1286,12
362,51	1277,93
362,72	1253,36
362,93	1372,14
363,14	1296,36
363,35	1224,69
363,56	1267,69
363,78	1261,55
363,99	1282,03
364,20	1253,36
364,41	1318,89
364,62	1296,36
364,83	1302,51
365,04	1290,22
365,25	1232,88
365,46	1335,28
365,67	1247,21
365,88	1331,18
366,09	1282,03
366,30	1290,22
366,51	1263,60
366,72	1316,84
366,93	1296,36
367,14	1284,08
367,35	1204,21
367,56	1279,98
367,77	1282,03
367,98	1308,65
368,18	1239,02
368,39	1239,02
368,60	1257,45
368,81	1275,88
369,02	1275,88
369,23	1236,97
369,44	1253,36
369,65	1212,40
369,86	1200,11
370,07	1220,59
370,28	1200,11
370,49	1261,55
370,70	1230,83
370,91	1255,40
371,12	1245,16
371,33	1275,88
371,54	1279,98
371,75	1230,83
371,96	1327,08
372,17	1224,69
372,38	1224,69
372,59	1310,70
372,80	1331,18
373,01	1226,73
373,22	1241,07
373,43	1298,41
373,64	1273,84
373,85	1251,31
374,06	1320,94
374,26	1286,12
374,47	1275,88
374,68	1298,41
374,89	1279,98
375,10	1251,31
375,31	1204,21
375,52	1222,64
375,73	1200,11
375,94	1202,16
376,15	1214,45
376,36	1198,06
376,57	1273,84
376,78	1222,64
376,99	1277,93
377,20	1245,16
377,40	1290,22
377,61	1284,08
377,82	1347,56
378,03	1267,69
378,24	1290,22
378,45	1300,46
378,66	1271,79
378,87	1247,21
379,08	1265,64
379,29	1294,32
379,50	1273,84
379,71	1273,84
379,91	1257,45
380,12	1269,74
380,33	1343,47
380,54	1269,74
380,75	1277,93
380,96	1263,60
381,17	1312,75
381,38	1353,71
381,59	1296,36
381,80	1222,64
382,00	1333,23
382,21	1247,21
382,42	1228,78
382,63	1284,08
382,84	1339,37
383,05	1224,69
383,26	1267,69
383,47	1335,28
383,68	1275,88
383,88	1261,55
384,09	1271,79
384,30	1279,98
384,51	1169,39
384,72	1239,02
384,93	1210,35
385,14	1284,08
385,35	1271,79
385,55	1216,49
385,76	1200,11
385,97	1267,69
386,18	1259,50
386,39	1273,84
386,60	1282,03
386,81	1243,12
387,02	1261,55
387,22	1243,12
387,43	1263,60
387,64	1236,97
387,85	1236,97
388,06	1351,66
388,27	1277,93
388,48	1208,30
388,68	1241,07
388,89	1310,70
389,10	1265,64
389,31	1234,93
389,52	1275,88
389,73	1267,69
389,93	1222,64
390,14	1341,42
390,35	1263,60
390,56	1300,46
390,77	1249,26
390,98	1343,47
391,18	1222,64
391,39	1234,93
391,60	1275,88
391,81	1191,92
392,02	1318,89
392,23	1273,84
392,43	1310,70
392,64	1277,93
392,85	1294,32
393,06	1304,56
393,27	1204,21
393,47	1251,31
393,68	1265,64
393,89	1286,12
394,10	1247,21
394,31	1226,73
394,52	1224,69
394,72	1302,51
394,93	1331,18
395,14	1222,64
395,35	1218,54
395,56	1282,03
395,76	1279,98
395,97	1257,45
396,18	1282,03
396,39	1259,50
396,60	1269,74
396,80	1277,93
397,01	1286,12
397,22	1292,27
397,43	1310,70
397,64	1222,64
397,84	1222,64
398,05	1255,40
398,26	1275,88
398,47	1286,12
398,67	1222,64
398,88	1189,87
399,09	1226,73
399,30	1253,36
399,51	1200,11
399,71	1296,36
399,92	1292,27
400,13	1241,07
400,34	1226,73
400,54	1294,32
400,75	1296,36
400,96	1308,65
401,17	1286,12
401,37	1279,98
401,58	1322,99
401,79	1292,27
402,00	1304,56
402,21	1298,41
402,41	1185,77
402,62	1253,36
402,83	1212,40
403,04	1300,46
403,24	1265,64
403,45	1302,51
403,66	1253,36
403,87	1273,84
404,07	1228,78
404,28	1249,26
404,49	1218,54
404,70	1261,55
404,90	1230,83
405,11	1290,22
405,32	1290,22
405,52	1282,03
405,73	1257,45
405,94	1253,36
406,15	1257,45
406,35	1271,79
406,56	1353,71
406,77	1230,83
406,98	1236,97
407,18	1316,84
407,39	1349,61
407,60	1271,79
407,80	1302,51
408,01	1255,40
408,22	1257,45
408,43	1312,75
408,63	1271,79
408,84	1300,46
409,05	1191,92
409,25	1232,88
409,46	1257,45
409,67	1269,74
409,88	1275,88
410,08	1212,40
410,29	1263,60
410,50	1288,17
410,70	1232,88
410,91	1255,40
411,12	1294,32
411,32	1241,07
411,53	1241,07
411,74	1261,55
411,95	1286,12
412,15	1269,74
412,36	1239,02
412,57	1259,50
412,77	1271,79
412,98	1296,36
413,19	1216,49
413,39	1279,98
413,60	1294,32
413,81	1161,20
414,01	1329,13
414,22	1257,45
414,43	1259,50
414,63	1271,79
414,84	1290,22
415,05	1236,97
415,25	1294,32
415,46	1271,79
415,67	1253,36
415,87	1304,56
416,08	1286,12
416,29	1259,50
416,49	1253,36
416,70	1277,93
416,91	1259,50
417,11	1296,36
417,32	1245,16
417,53	1339,37
417,73	1271,79
417,94	1290,22
418,15	1212,40
418,35	1228,78
418,56	1298,41
418,77	1320,94
418,97	1232,88
419,18	1214,45
419,38	1202,16
419,59	1220,59
419,80	1245,16
420,00	1294,32
420,21	1339,37
420,42	1263,60
420,62	1253,36
420,83	1208,30
421,04	1257,45
421,24	1159,15
421,45	1312,75
421,65	1239,02
421,86	1312,75
422,07	1290,22
422,27	1251,31
422,48	1279,98
422,69	1263,60
422,89	1255,40
423,10	1273,84
423,30	1296,36
423,51	1277,93
423,72	1243,12
423,92	1241,07
424,13	1257,45
424,33	1216,49
424,54	1290,22
424,75	1247,21
424,95	1290,22
425,16	1263,60
425,36	1384,43
425,57	1308,65
425,78	1232,88
425,98	1300,46
426,19	1245,16
426,39	1245,16
426,60	1232,88
426,81	1245,16
427,01	1245,16
427,22	1247,21
427,42	1187,82
427,63	1196,01
427,83	1282,03
428,04	1232,88
428,25	1226,73
428,45	1288,17
428,66	1224,69
428,86	1247,21
429,07	1265,64
429,28	1269,74
429,48	1175,53
429,69	1247,21
429,89	1308,65
430,10	1273,84
430,30	1306,60
430,51	1331,18
430,71	1257,45
430,92	1351,66
431,13	1218,54
431,33	1282,03
431,54	1251,31
431,74	1275,88
431,95	1234,93
432,15	1322,99
432,36	1263,60
432,56	1298,41
432,77	1210,35
432,98	1273,84
433,18	1286,12
433,39	1327,08
433,59	1224,69
433,80	1312,75
434,00	1269,74
434,21	1265,64
434,41	1196,01
434,62	1277,93
434,82	1245,16
435,03	1261,55
435,23	1290,22
435,44	1241,07
435,64	1224,69
435,85	1271,79
436,06	1304,56
436,26	1255,40
436,47	1343,47
436,67	1300,46
436,88	1202,16
437,08	1282,03
437,29	1247,21
437,49	1300,46
437,70	1212,40
437,90	1255,40
438,11	1261,55
438,31	1277,93
438,52	1253,36
438,72	1222,64
438,93	1279,98
439,13	1310,70
439,34	1275,88
439,54	1204,21
439,75	1257,45
439,95	1175,53
440,16	1214,45
440,36	1189,87
440,57	1241,07
440,77	1214,45
440,98	1224,69
441,18	1282,03
441,39	1294,32
441,59	1282,03
441,80	1253,36
442,00	1251,31
442,21	1267,69
442,41	1241,07
442,62	1257,45
442,82	1306,60
443,02	1259,50
443,23	1269,74
443,43	1212,40
443,64	1288,17
443,84	1325,04
444,05	1314,80
444,25	1265,64
444,46	1247,21
444,66	1257,45
444,87	1222,64
445,07	1286,12
445,28	1290,22
445,48	1239,02
445,69	1189,87
445,89	1265,64
446,09	1230,83
446,30	1298,41
446,50	1282,03
446,71	1298,41
446,91	1263,60
447,12	1202,16
447,32	1251,31
447,53	1249,26
447,73	1234,93
447,93	1232,88
448,14	1255,40
448,34	1271,79
448,55	1296,36
448,75	1228,78
448,96	1230,83
449,16	1286,12
449,36	1269,74
449,57	1236,97
449,77	1265,64
449,98	1251,31
450,18	1273,84
450,39	1304,56
450,59	1261,55
450,79	1306,60
451,00	1347,56
451,20	1261,55
451,41	1339,37
451,61	1230,83
451,81	1206,25
452,02	1286,12
452,22	1232,88
452,43	1343,47
452,63	1267,69
452,84	1286,12
453,04	1290,22
453,24	1243,12
453,45	1210,35
453,65	1245,16
453,86	1216,49
454,06	1294,32
454,26	1271,79
454,47	1265,64
454,67	1257,45
454,87	1284,08
455,08	1316,84
455,28	1282,03
455,49	1214,45
455,69	1300,46
455,89	1255,40
456,10	1279,98
456,30	1288,17
456,51	1247,21
456,71	1263,60
456,91	1200,11
457,12	1261,55
457,32	1241,07
457,52	1163,25
457,73	1335,28
457,93	1351,66
458,14	1306,60
458,34	1292,27
458,54	1245,16
458,75	1220,59
458,95	1228,78
459,15	1241,07
459,36	1314,80
459,56	1177,58
459,76	1245,16
459,97	1325,04
460,17	1236,97
460,37	1306,60
460,58	1249,26
460,78	1230,83
460,99	1210,35
461,19	1263,60
461,39	1218,54
461,60	1279,98
461,80	1273,84
462,00	1249,26
462,21	1220,59
462,41	1275,88
462,61	1251,31
462,82	1261,55
463,02	1275,88
463,22	1241,07
463,43	1257,45
463,63	1277,93
463,83	1228,78
464,04	1329,13
464,24	1302,51
464,44	1257,45
464,64	1241,07
464,85	1288,17
465,05	1245,16
465,25	1245,16
465,46	1224,69
465,66	1263,60
465,86	1288,17
466,07	1247,21
466,27	1292,27
466,47	1282,03
466,68	1271,79
466,88	1249,26
467,08	1306,60
467,29	1308,65
467,49	1224,69
467,69	1191,92
467,89	1308,65
468,10	1251,31
468,30	1241,07
468,50	1222,64
468,71	1312,75
468,91	1259,50
469,11	1263,60
469,31	1304,56
469,52	1325,04
469,72	1245,16
469,92	1282,03
470,13	1271,79
470,33	1286,12
470,53	1273,84
470,73	1314,80
470,94	1247,21
471,14	1222,64
471,34	1273,84
471,54	1284,08
471,75	1275,88
471,95	1345,52
472,15	1249,26
472,36	1329,13
472,56	1345,52
472,76	1286,12
472,96	1259,50
473,17	1253,36
473,37	1286,12
473,57	1261,55
473,77	1224,69
473,98	1284,08
474,18	1271,79
474,38	1263,60
474,58	1277,93
474,79	1224,69
474,99	1265,64
475,19	1277,93
475,39	1265,64
475,60	1249,26
475,80	1279,98
476,00	1279,98
476,20	1253,36
476,41	1312,75
476,61	1322,99
476,81	1267,69
477,01	1247,21
477,21	1312,75
477,42	1255,40
477,62	1243,12
477,82	1251,31
478,02	1249,26
478,23	1284,08
478,43	1261,55
478,63	1245,16
478,83	1232,88
479,03	1247,21
479,24	1261,55
479,44	1296,36
479,64	1259,50
479,84	1296,36
480,04	1267,69
480,25	1279,98
480,45	1243,12
480,65	1271,79
480,85	1191,92
481,06	1277,93
481,26	1196,01
481,46	1327,08
481,66	1314,80
481,86	1273,84
482,06	1273,84
482,27	1322,99
482,47	1255,40
482,67	1271,79
482,87	1218,54
483,07	1228,78
483,28	1302,51
483,48	1261,55
483,68	1208,30
483,88	1218,54
484,08	1351,66
484,29	1282,03
484,49	1308,65
484,69	1290,22
484,89	1275,88
485,09	1267,69
485,29	1294,32
485,50	1327,08
485,70	1310,70
485,90	1206,25
486,10	1208,30
486,30	1271,79
486,50	1282,03
486,71	1275,88
486,91	1253,36
487,11	1259,50
487,31	1214,45
487,51	1230,83
487,71	1257,45
487,91	1247,21
488,12	1214,45
488,32	1292,27
488,52	1269,74
488,72	1228,78
488,92	1232,88
489,12	1316,84
489,32	1320,94
489,53	1337,32
489,73	1249,26
489,93	1236,97
490,13	1210,35
490,33	1269,74
490,53	1247,21
490,73	1261,55
490,94	1263,60
491,14	1320,94
491,34	1288,17
491,54	1236,97
491,74	1224,69
491,94	1302,51
492,14	1306,60
492,34	1322,99
492,54	1275,88
492,75	1374,19
492,95	1159,15
493,15	1302,51
493,35	1318,89
493,55	1288,17
493,75	1277,93
493,95	1234,93
494,15	1257,45
494,35	1277,93
494,56	1277,93
494,76	1329,13
494,96	1224,69
495,16	1320,94
495,36	1261,55
495,56	1322,99
495,76	1296,36
495,96	1277,93
496,16	1271,79
496,36	1210,35
496,56	1243,12
496,77	1398,76
496,97	1306,60
497,17	1337,32
497,37	1210,35
497,57	1304,56
497,77	1257,45
497,97	1236,97
498,17	1271,79
498,37	1214,45
498,57	1257,45
498,77	1318,89
498,97	1284,08
499,17	1288,17
499,38	1206,25
499,58	1329,13
499,78	1245,16
499,98	1232,88
500,18	1155,05
500,38	1241,07
500,58	1263,60
500,78	1257,45
500,98	1384,43
501,18	1296,36
501,38	1337,32
501,58	1230,83
501,78	1271,79
501,98	1308,65
502,18	1216,49
502,38	1267,69
502,58	1267,69
502,78	1271,79
502,98	1316,84
503,18	1202,16
503,38	1177,58
503,59	1269,74
503,79	1271,79
503,99	1277,93
504,19	1269,74
504,39	1249,26
504,59	1273,84
504,79	1355,76
504,99	1282,03
505,19	1273,84
505,39	1253,36
505,59	1214,45
505,79	1325,04
505,99	1275,88
506,19	1267,69
506,39	1296,36
506,59	1216,49
506,79	1286,12
506,99	1284,08
507,19	1230,83
507,39	1349,61
507,59	1290,22
507,79	1243,12
507,99	1298,41
508,19	1279,98
508,39	1224,69
508,59	1298,41
508,79	1239,02
508,99	1282,03
509,19	1277,93
509,39	1245,16
509,59	1296,36
509,79	1232,88
509,99	1241,07
510,19	1259,50
510,39	1253,36
510,59	1243,12
510,79	1259,50
510,99	1204,21
511,19	1290,22
511,39	1277,93
511,59	1288,17
511,79	1333,23
511,99	1241,07
512,19	1243,12
512,38	1214,45
512,58	1296,36
512,78	1236,97
512,98	1351,66
513,18	1294,32
513,38	1255,40
513,58	1214,45
513,78	1247,21
513,98	1224,69
514,18	1273,84
514,38	1222,64
514,58	1255,40
514,78	1300,46
514,98	1236,97
515,18	1255,40
515,38	1241,07
515,58	1327,08
515,78	1255,40
515,98	1255,40
516,18	1284,08
516,38	1370,09
516,57	1327,08
516,77	1255,40
516,97	1265,64
517,17	1255,40
517,37	1261,55
517,57	1343,47
517,77	1279,98
517,97	1273,84
518,17	1253,36
518,37	1341,42
518,57	1253,36
518,77	1302,51
518,97	1265,64
519,16	1320,94
519,36	1228,78
519,56	1249,26
519,76	1296,36
519,96	1282,03
520,16	1261,55
520,36	1320,94
520,56	1267,69
520,76	1236,97
520,96	1271,79
521,16	1304,56
521,35	1261,55
521,55	1318,89
521,75	1314,80
521,95	1269,74
522,15	1236,97
522,35	1208,30
522,55	1243,12
522,75	1302,51
522,95	1257,45
523,14	1200,11
523,34	1282,03
523,54	1286,12
523,74	1230,83
523,94	1282,03
524,14	1216,49
524,34	1183,73
524,54	1314,80
524,73	1239,02
524,93	1322,99
525,13	1239,02
525,33	1210,35
525,53	1329,13
525,73	1208,30
525,93	1298,41
526,13	1241,07
526,32	1214,45
526,52	1228,78
526,72	1273,84
526,92	1243,12
527,12	1234,93
527,32	1214,45
527,52	1214,45
527,71	1261,55
527,91	1302,51
528,11	1275,88
528,31	1290,22
528,51	1282,03
528,71	1206,25
528,90	1214,45
529,10	1265,64
529,30	1322,99
529,50	1273,84
529,70	1222,64
529,90	1273,84
530,09	1191,92
530,29	1333,23
530,49	1228,78
530,69	1243,12
530,89	1239,02
531,09	1279,98
531,28	1208,30
531,48	1236,97
531,68	1300,46
531,88	1282,03
532,08	1220,59
532,28	1306,60
532,47	1159,15
532,67	1298,41
532,87	1202,16
533,07	1236,97
533,27	1243,12
533,46	1265,64
533,66	1251,31
533,86	1208,30
534,06	1261,55
534,26	1335,28
534,45	1222,64
534,65	1232,88
534,85	1245,16
535,05	1306,60
535,25	1261,55
535,44	1224,69
535,64	1335,28
535,84	1337,32
536,04	1271,79
536,24	1288,17
536,43	1265,64
536,63	1259,50
536,83	1261,55
537,03	1329,13
537,22	1279,98
537,42	1255,40
537,62	1282,03
537,82	1298,41
538,02	1314,80
538,21	1304,56
538,41	1179,63
538,61	1255,40
538,81	1263,60
539,00	1200,11
539,20	1265,64
539,40	1271,79
539,60	1259,50
539,79	1255,40
539,99	1275,88
540,19	1214,45
540,39	1232,88
540,58	1202,16
540,78	1282,03
540,98	1243,12
541,18	1288,17
541,37	1286,12
541,57	1284,08
541,77	1265,64
541,97	1329,13
542,16	1232,88
542,36	1316,84
542,56	1302,51
542,76	1245,16
542,95	1253,36
543,15	1269,74
543,35	1279,98
543,54	1228,78
543,74	1257,45
543,94	1314,80
544,14	1263,60
544,33	1331,18
544,53	1236,97
544,73	1206,25
544,93	1263,60
545,12	1249,26
545,32	1241,07
545,52	1241,07
545,71	1224,69
545,91	1251,31
546,11	1214,45
546,30	1232,88
546,50	1239,02
546,70	1236,97
546,90	1298,41
547,09	1243,12
547,29	1269,74
547,49	1257,45
547,68	1198,06
547,88	1222,64
548,08	1241,07
548,27	1243,12
548,47	1284,08
548,67	1296,36
548,87	1308,65
549,06	1288,17
549,26	1239,02
549,46	1409,00
549,65	1261,55
549,85	1271,79
550,05	1249,26
550,24	1249,26
550,44	1261,55
550,64	1269,74
550,83	1286,12
551,03	1212,40
551,23	1282,03
551,42	1284,08
551,62	1204,21
551,82	1286,12
552,01	1294,32
552,21	1243,12
552,41	1267,69
552,60	1325,04
552,80	1273,84
553,00	1284,08
553,19	1200,11
553,39	1239,02
553,59	1288,17
553,78	1261,55
553,98	1288,17
554,17	1212,40
554,37	1216,49
554,57	1253,36
554,76	1212,40
554,96	1204,21
555,16	1345,52
555,35	1224,69
555,55	1327,08
555,75	1277,93
555,94	1269,74
556,14	1261,55
556,33	1314,80
556,53	1282,03
556,73	1259,50
556,92	1251,31
557,12	1267,69
557,32	1302,51
557,51	1282,03
557,71	1314,80
557,90	1234,93
558,10	1204,21
558,30	1284,08
558,49	1308,65
558,69	1245,16
558,88	1236,97
559,08	1261,55
559,28	1243,12
559,47	1214,45
559,67	1320,94
559,86	1298,41
560,06	1236,97
560,26	1216,49
560,45	1247,21
560,65	1138,67
560,84	1290,22
561,04	1335,28
561,24	1253,36
561,43	1245,16
561,63	1241,07
561,82	1230,83
562,02	1255,40
562,22	1306,60
562,41	1271,79
562,61	1349,61
562,80	1239,02
563,00	1259,50
563,19	1222,64
563,39	1263,60
563,59	1290,22
563,78	1228,78
563,98	1175,53
564,17	1202,16
564,37	1304,56
564,56	1288,17
564,76	1271,79
564,96	1263,60
565,15	1286,12
565,35	1302,51
565,54	1234,93
565,74	1253,36
565,93	1284,08
566,13	1245,16
566,32	1320,94
566,52	1277,93
566,71	1271,79
566,91	1273,84
567,11	1310,70
567,30	1273,84
567,50	1298,41
567,69	1273,84
567,89	1284,08
568,08	1241,07
568,28	1216,49
568,47	1329,13
568,67	1290,22
568,86	1224,69
569,06	1292,27
569,25	1290,22
569,45	1370,09
569,64	1265,64
569,84	1329,13
570,04	1257,45
570,23	1265,64
570,43	1265,64
570,62	1343,47
570,82	1253,36
571,01	1265,64
571,21	1290,22
571,40	1329,13
571,60	1302,51
571,79	1247,21
571,99	1302,51
572,18	1267,69
572,38	1232,88
572,57	1312,75
572,77	1322,99
572,96	1216,49
573,16	1277,93
573,35	1288,17
573,55	1261,55
573,74	1318,89
573,94	1357,80
574,13	1228,78
574,33	1302,51
574,52	1284,08
574,71	1226,73
574,91	1265,64
575,10	1230,83
575,30	1241,07
575,49	1284,08
575,69	1277,93
575,88	1210,35
576,08	1220,59
576,27	1271,79
576,47	1343,47
576,66	1193,97
576,86	1247,21
577,05	1304,56
577,25	1255,40
577,44	1263,60
577,64	1239,02
577,83	1329,13
578,02	1232,88
578,22	1282,03
578,41	1224,69
578,61	1277,93
578,80	1290,22
579,00	1208,30
579,19	1286,12
579,39	1220,59
579,58	1296,36
579,77	1263,60
579,97	1220,59
580,16	1279,98
580,36	1245,16
580,55	1300,46
580,75	1261,55
580,94	1183,73
581,13	1292,27
581,33	1310,70
581,52	1284,08
581,72	1222,64
581,91	1243,12
582,11	1251,31
582,30	1224,69
582,49	1257,45
582,69	1216,49
582,88	1314,80
583,08	1279,98
583,27	1279,98
583,47	1239,02
583,66	1234,93
583,85	1290,22
584,05	1257,45
584,24	1292,27
584,44	1247,21
584,63	1230,83
584,82	1226,73
585,02	1214,45
585,21	1282,03
585,41	1271,79
585,60	1249,26
585,79	1277,93
585,99	1314,80
586,18	1273,84
586,37	1265,64
586,57	1265,64
586,76	1267,69
586,96	1265,64
587,15	1243,12
587,34	1230,83
587,54	1296,36
587,73	1263,60
587,93	1273,84
588,12	1320,94
588,31	1255,40
588,51	1310,70
588,70	1269,74
588,89	1263,60
589,09	1273,84
589,28	1261,55
589,47	1261,55
589,67	1224,69
589,86	1288,17
590,06	1222,64
590,25	1249,26
590,44	1234,93
590,64	1224,69
590,83	1228,78
591,02	1247,21
591,22	1322,99
591,41	1253,36
591,60	1298,41
591,80	1292,27
591,99	1347,56
592,18	1234,93
592,38	1290,22
592,57	1279,98
592,76	1263,60
592,96	1271,79
593,15	1288,17
593,34	1261,55
593,54	1298,41
593,73	1304,56
593,92	1167,34
594,12	1263,60
594,31	1214,45
594,50	1243,12
594,70	1304,56
594,89	1363,95
595,08	1273,84
595,28	1298,41
595,47	1277,93
595,66	1243,12
595,86	1208,30
596,05	1228,78
596,24	1243,12
596,43	1273,84
596,63	1296,36
596,82	1249,26
597,01	1329,13
597,21	1265,64
597,40	1212,40
597,59	1304,56
597,79	1290,22
597,98	1308,65
598,17	1257,45
598,36	1226,73
598,56	1284,08
598,75	1302,51
598,94	1275,88
599,14	1239,02
599,33	1226,73
599,52	1243,12
599,71	1187,82
599,91	1269,74
600,10	1320,94
600,29	1263,60
600,48	1226,73
600,68	1253,36
600,87	1247,21
601,06	1181,68
601,26	1306,60
601,45	1282,03
601,64	1298,41
601,83	1271,79
602,03	1249,26
602,22	1335,28
602,41	1224,69
602,60	1247,21
602,80	1271,79
602,99	1249,26
603,18	1239,02
603,37	1269,74
603,57	1308,65
603,76	1263,60
603,95	1306,60
604,14	1345,52
604,34	1298,41
604,53	1296,36
604,72	1241,07
604,91	1300,46
605,10	1243,12
605,30	1247,21
605,49	1234,93
605,68	1259,50
605,87	1200,11
606,07	1300,46
606,26	1234,93
606,45	1243,12
606,64	1214,45
606,84	1267,69
607,03	1331,18
607,22	1259,50
607,41	1290,22
607,60	1247,21
607,80	1206,25
607,99	1296,36
608,18	1294,32
608,37	1273,84
608,56	1314,80
608,76	1271,79
608,95	1222,64
609,14	1214,45
609,33	1294,32
609,52	1271,79
609,72	1277,93
609,91	1243,12
610,10	1329,13
610,29	1288,17
610,48	1282,03
610,68	1220,59
610,87	1275,88
611,06	1251,31
611,25	1333,23
611,44	1259,50
611,63	1269,74
611,83	1220,59
612,02	1290,22
612,21	1271,79
612,40	1290,22
612,59	1294,32
612,79	1259,50
612,98	1249,26
613,17	1232,88
613,36	1267,69
613,55	1265,64
613,74	1265,64
613,93	1282,03
614,13	1296,36
614,32	1282,03
614,51	1249,26
614,70	1263,60
614,89	1247,21
615,08	1282,03
615,28	1349,61
615,47	1292,27
615,66	1308,65
615,85	1271,79
616,04	1347,56
616,23	1230,83
616,42	1159,15
616,62	1316,84
616,81	1265,64
617,00	1335,28
617,19	1318,89
617,38	1329,13
617,57	1279,98
617,76	1220,59
617,95	1294,32
618,15	1222,64
618,34	1353,71
618,53	1288,17
618,72	1271,79
618,91	1310,70
619,10	1249,26
619,29	1263,60
619,48	1271,79
619,68	1316,84
619,87	1265,64
620,06	1284,08
620,25	1234,93
620,44	1271,79
620,63	1265,64
620,82	1255,40
621,01	1191,92
621,20	1243,12
621,39	1292,27
621,59	1230,83
621,78	1259,50
621,97	1267,69
622,16	1290,22
622,35	1273,84
622,54	1314,80
622,73	1304,56
622,92	1290,22
623,11	1275,88
623,30	1333,23
623,49	1253,36
623,68	1247,21
623,88	1255,40
624,07	1298,41
624,26	1312,75
624,45	1273,84
624,64	1277,93
624,83	1265,64
625,02	1249,26
625,21	1335,28
625,40	1304,56
625,59	1271,79
625,78	1228,78
625,97	1325,04
626,16	1312,75
626,35	1294,32
626,54	1216,49
626,74	1298,41
626,93	1269,74
627,12	1245,16
627,31	1310,70
627,50	1269,74
627,69	1257,45
627,88	1249,26
628,07	1339,37
628,26	1232,88
628,45	1288,17
628,64	1214,45
628,83	1226,73
629,02	1251,31
629,21	1282,03
629,40	1290,22
629,59	1273,84
629,78	1259,50
629,97	1224,69
630,16	1320,94
630,35	1273,84
630,54	1286,12
630,73	1284,08
630,92	1277,93
631,11	1318,89
631,30	1314,80
631,49	1269,74
631,68	1331,18
631,87	1480,68
632,06	1642,47
632,25	1472,49
632,44	1501,16
632,63	1538,02
632,82	1992,67
633,01	2863,06
633,20	1834,98
633,39	1976,29
633,58	2146,27
633,77	2273,25
633,96	1914,85
634,15	1828,84
634,34	1914,85
634,53	1923,04
634,72	1877,99
634,91	1681,38
635,10	1716,20
635,29	1554,41
635,48	1552,36
635,67	1468,39
635,86	1462,25
636,05	1398,76
636,24	1333,23
636,43	1310,70
636,62	1415,15
636,81	1353,71
637,00	1325,04
637,19	1351,66
637,38	1343,47
637,57	1306,60
637,76	1343,47
637,95	1263,60
638,14	1318,89
638,33	1361,90
638,52	1282,03
638,71	1210,35
638,89	1267,69
639,08	1263,60
639,27	1298,41
639,46	1255,40
639,65	1337,32
639,84	1271,79
640,03	1241,07
640,22	1245,16
640,41	1325,04
640,60	1341,42
640,79	1257,45
640,98	1234,93
641,17	1322,99
641,36	1312,75
641,55	1294,32
641,74	1245,16
641,92	1263,60
642,11	1259,50
642,30	1245,16
642,49	1290,22
642,68	1247,21
642,87	1322,99
643,06	1234,93
643,25	1288,17
643,44	1314,80
643,63	1271,79
643,82	1245,16
644,00	1331,18
644,19	1290,22
644,38	1296,36
644,57	1302,51
644,76	1241,07
644,95	1216,49
645,14	1290,22
645,33	1290,22
645,52	1196,01
645,71	1300,46
645,89	1284,08
646,08	1282,03
646,27	1212,40
646,46	1374,19
646,65	1243,12
646,84	1298,41
647,03	1247,21
647,22	1273,84
647,40	1273,84
647,59	1255,40
647,78	1296,36
647,97	1279,98
648,16	1294,32
648,35	1282,03
648,54	1222,64
648,73	1273,84
648,91	1312,75
649,10	1257,45
649,29	1271,79
649,48	1247,21
649,67	1173,49
649,86	1298,41
650,05	1253,36
650,23	1304,56
650,42	1257,45
650,61	1312,75
650,80	1265,64
650,99	1312,75
651,18	1345,52
651,36	1292,27
651,55	1214,45
651,74	1255,40
651,93	1288,17
652,12	1175,53
652,31	1300,46
652,49	1249,26
652,68	1286,12
652,87	1253,36
653,06	1202,16
653,25	1343,47
653,44	1257,45
653,62	1265,64
653,81	1234,93
654,00	1214,45
654,19	1286,12
654,38	1322,99
654,56	1275,88
654,75	1261,55
654,94	1267,69
655,13	1249,26
655,32	1306,60
655,51	1228,78
655,69	1277,93
655,88	1257,45
656,07	1308,65
656,26	1253,36
656,45	1376,24
656,63	1292,27
656,82	1282,03
657,01	1288,17
657,20	1218,54
657,38	1312,75
657,57	1220,59
657,76	1255,40
657,95	1245,16
658,14	1298,41
658,32	1290,22
658,51	1347,56
658,70	1208,30
658,89	1265,64
659,08	1198,06
659,26	1216,49
659,45	1261,55
659,64	1214,45
659,83	1271,79
660,01	1292,27
660,20	1310,70
660,39	1251,31
660,58	1288,17
660,76	1298,41
660,95	1224,69
661,14	1255,40
661,33	1298,41
661,51	1320,94
661,70	1275,88
661,89	1298,41
662,08	1169,39
662,26	1191,92
662,45	1263,60
662,64	1296,36
662,83	1249,26
663,01	1333,23
663,20	1265,64
663,39	1214,45
663,58	1253,36
663,76	1251,31
663,95	1269,74
664,14	1208,30
664,32	1298,41
664,51	1269,74
664,70	1292,27
664,89	1230,83
665,07	1290,22
665,26	1312,75
665,45	1290,22
665,64	1255,40
665,82	1200,11
666,01	1292,27
666,20	1282,03
666,38	1286,12
666,57	1286,12
666,76	1218,54
666,95	1265,64
667,13	1214,45
667,32	1292,27
667,51	1277,93
667,69	1247,21
667,88	1312,75
668,07	1271,79
668,25	1275,88
668,44	1269,74
668,63	1294,32
668,81	1255,40
669,00	1222,64
669,19	1214,45
669,38	1249,26
669,56	1253,36
669,75	1318,89
669,94	1279,98
670,12	1241,07
670,31	1200,11
670,50	1204,21
670,68	1308,65
670,87	1269,74
671,06	1228,78
671,24	1255,40
671,43	1236,97
671,62	1277,93
671,80	1282,03
671,99	1202,16
672,18	1279,98
672,36	1249,26
672,55	1218,54
672,74	1228,78
672,92	1275,88
673,11	1230,83
673,29	1277,93
673,48	1269,74
673,67	1245,16
673,85	1286,12
674,04	1292,27
674,23	1165,29
674,41	1263,60
674,60	1329,13
674,79	1343,47
674,97	1255,40
675,16	1308,65
675,34	1226,73
675,53	1298,41
675,72	1261,55
675,90	1265,64
676,09	1279,98
676,28	1298,41
676,46	1255,40
676,65	1288,17
676,83	1267,69
677,02	1224,69
677,21	1267,69
677,39	1239,02
677,58	1337,32
677,77	1267,69
677,95	1230,83
678,14	1271,79
678,32	1140,72
678,51	1228,78
678,70	1200,11
678,88	1247,21
679,07	1298,41
679,25	1292,27
679,44	1271,79
679,63	1263,60
679,81	1236,97
680,00	1253,36
680,18	1263,60
680,37	1322,99
680,55	1273,84
680,74	1241,07
680,93	1228,78
681,11	1378,28
681,30	1251,31
681,48	1255,40
681,67	1282,03
681,85	1249,26
682,04	1275,88
682,23	1251,31
682,41	1257,45
682,60	1236,97
682,78	1339,37
682,97	1230,83
683,15	1296,36
683,34	1279,98
683,53	1337,32
683,71	1308,65
683,90	1247,21
684,08	1243,12
684,27	1290,22
684,45	1304,56
684,64	1304,56
684,82	1216,49
685,01	1277,93
685,19	1222,64
685,38	1351,66
685,57	1257,45
685,75	1234,93
685,94	1224,69
686,12	1189,87
686,31	1204,21
686,49	1296,36
686,68	1245,16
686,86	1236,97
687,05	1243,12
687,23	1259,50
687,42	1220,59
687,60	1275,88
687,79	1304,56
687,97	1228,78
688,16	1265,64
688,34	1302,51
688,53	1279,98
688,71	1249,26
688,90	1226,73
689,08	1208,30
689,27	1306,60
689,45	1181,68
689,64	1228,78
689,82	1261,55
690,01	1249,26
690,19	1273,84
690,38	1251,31
690,56	1318,89
690,75	1337,32
690,93	1327,08
691,12	1263,60
691,30	1302,51
691,49	1279,98
691,67	1259,50
691,86	1359,85
692,04	1253,36
692,23	1187,82
692,41	1302,51
692,60	1316,84
692,78	1345,52
692,97	1214,45
693,15	1142,77
693,34	1339,37
693,52	1279,98
693,71	1234,93
693,89	1298,41
694,08	1247,21
694,26	1216,49
694,44	1220,59
694,63	1296,36
694,81	1282,03
695,00	1273,84
695,18	1267,69
695,37	1255,40
695,55	1234,93
695,74	1228,78
695,92	1273,84
696,10	1253,36
696,29	1257,45
696,47	1214,45
696,66	1273,84
696,84	1267,69
697,03	1286,12
697,21	1277,93
697,40	1304,56
697,58	1310,70
697,76	1335,28
697,95	1265,64
698,13	1329,13
698,32	1236,97
698,50	1243,12
698,68	1341,42
698,87	1232,88
699,05	1290,22
699,24	1300,46
699,42	1296,36
699,61	1306,60
699,79	1300,46
699,97	1243,12
700,16	1204,21
700,34	1314,80
700,53	1302,51
700,71	1230,83
700,89	1265,64
701,08	1316,84
701,26	1288,17
701,45	1343,47
701,63	1271,79
701,81	1265,64
702,00	1253,36
702,18	1265,64
702,37	1273,84
702,55	1239,02
702,73	1243,12
702,92	1249,26
703,10	1179,63
703,28	1261,55
703,47	1318,89
703,65	1306,60
703,84	1271,79
704,02	1308,65
704,20	1279,98
704,39	1206,25
704,57	1279,98
704,75	1214,45
704,94	1218,54
705,12	1257,45
705,30	1282,03
705,49	1284,08
705,67	1271,79
705,86	1292,27
706,04	1273,84
706,22	1224,69
706,41	1351,66
706,59	1257,45
706,77	1265,64
706,96	1337,32
707,14	1363,95
707,32	1286,12
707,51	1222,64
707,69	1318,89
707,87	1302,51
708,06	1251,31
708,24	1290,22
708,42	1341,42
708,61	1245,16
708,79	1316,84
708,97	1282,03
709,16	1259,50
709,34	1245,16
709,52	1271,79
709,71	1232,88
709,89	1322,99
710,07	1269,74
710,26	1288,17
710,44	1267,69
710,62	1232,88
710,80	1277,93
710,99	1169,39
711,17	1261,55
711,35	1273,84
711,54	1310,70
711,72	1310,70
711,90	1228,78
712,09	1282,03
712,27	1245,16
712,45	1304,56
712,63	1273,84
712,82	1173,49
713,00	1214,45
713,18	1347,56
713,37	1257,45
713,55	1298,41
713,73	1259,50
713,91	1222,64
714,10	1191,92
714,28	1222,64
714,46	1288,17
714,65	1263,60
714,83	1200,11
715,01	1273,84
715,19	1306,60
715,38	1232,88
715,56	1253,36
715,74	1236,97
715,92	1279,98
716,11	1292,27
716,29	1243,12
716,47	1257,45
716,65	1363,95
716,84	1212,40
717,02	1318,89
717,20	1212,40
717,38	1304,56
717,57	1245,16
717,75	1210,35
717,93	1261,55
718,11	1247,21
718,30	1249,26
718,48	1241,07
718,66	1245,16
718,84	1200,11
719,03	1261,55
719,21	1279,98
719,39	1300,46
719,57	1175,53
719,75	1234,93
719,94	1335,28
720,12	1230,83
720,30	1259,50
720,48	1257,45
720,67	1341,42
720,85	1296,36
721,03	1249,26
721,21	1232,88
721,39	1267,69
721,58	1308,65
721,76	1263,60
721,94	1269,74
722,12	1294,32
722,30	1277,93
722,49	1230,83
722,67	1214,45
722,85	1290,22
723,03	1253,36
723,21	1292,27
723,40	1304,56
723,58	1284,08
723,76	1333,23
723,94	1282,03
724,12	1243,12
724,30	1216,49
724,49	1290,22
724,67	1236,97
724,85	1239,02
725,03	1290,22
725,21	1218,54
725,40	1325,04
725,58	1255,40
725,76	1243,12
725,94	1267,69
726,12	1216,49
726,30	1273,84
726,49	1273,84
726,67	1329,13
726,85	1318,89
727,03	1292,27
727,21	1267,69
727,39	1286,12
727,57	1327,08
727,76	1232,88
727,94	1300,46
728,12	1265,64
728,30	1228,78
728,48	1239,02
728,66	1271,79
728,84	1329,13
729,03	1368,04
729,21	1216,49
729,39	1298,41
729,57	1200,11
729,75	1243,12
729,93	1257,45
730,11	1298,41
730,30	1245,16
730,48	1257,45
730,66	1277,93
730,84	1296,36
731,02	1286,12
731,20	1247,21
731,38	1214,45
731,56	1198,06
731,74	1288,17
731,93	1275,88
732,11	1308,65
732,29	1294,32
732,47	1288,17
732,65	1284,08
732,83	1234,93
733,01	1275,88
733,19	1191,92
733,37	1247,21
733,56	1318,89
733,74	1232,88
733,92	1230,83
734,10	1257,45
734,28	1257,45
734,46	1310,70
734,64	1282,03
734,82	1284,08
735,00	1212,40
735,18	1325,04
735,36	1269,74
735,54	1273,84
735,73	1294,32
735,91	1247,21
736,09	1216,49
736,27	1263,60
736,45	1339,37
736,63	1284,08
736,81	1286,12
736,99	1304,56
737,17	1271,79
737,35	1222,64
737,53	1269,74
737,71	1243,12
737,89	1228,78
738,07	1245,16
738,25	1216,49
738,43	1216,49
738,61	1210,35
738,80	1318,89
738,98	1310,70
739,16	1288,17
739,34	1204,21
739,52	1298,41
739,70	1183,73
739,88	1302,51
740,06	1249,26
740,24	1216,49
740,42	1193,97
740,60	1191,92
740,78	1253,36
740,96	1261,55
741,14	1290,22
741,32	1230,83
741,50	1290,22
741,68	1306,60
741,86	1196,01
742,04	1288,17
742,22	1271,79
742,40	1302,51
742,58	1273,84
742,76	1228,78
742,94	1282,03
743,12	1232,88
743,30	1294,32
743,48	1222,64
743,66	1232,88
743,84	1214,45
744,02	1265,64
744,20	1286,12
744,38	1318,89
744,56	1247,21
744,74	1259,50
744,92	1249,26
745,10	1327,08
745,28	1349,61
745,46	1296,36
745,64	1232,88
745,82	1316,84
746,00	1202,16
746,18	1271,79
746,36	1255,40
746,54	1257,45
746,72	1288,17
746,90	1210,35
747,08	1265,64
747,26	1206,25
747,44	1212,40
747,62	1290,22
747,80	1314,80
747,98	1247,21
748,15	1263,60
748,33	1239,02
748,51	1298,41
748,69	1279,98
748,87	1269,74
749,05	1298,41
749,23	1279,98
749,41	1282,03
749,59	1241,07
749,77	1271,79
749,95	1249,26
750,13	1288,17
750,31	1337,32
750,49	1277,93
750,67	1286,12
750,85	1286,12
751,03	1196,01
751,20	1273,84
751,38	1284,08
751,56	1212,40
751,74	1292,27
751,92	1226,73
752,10	1253,36
752,28	1191,92
752,46	1232,88
752,64	1327,08
752,82	1239,02
753,00	1277,93
753,18	1298,41
753,35	1259,50
753,53	1263,60
753,71	1232,88
753,89	1249,26
754,07	1218,54
754,25	1230,83
754,43	1279,98
754,61	1239,02
754,79	1339,37
754,97	1247,21
755,14	1232,88
755,32	1230,83
755,50	1226,73
755,68	1312,75
755,86	1243,12
756,04	1302,51
756,22	1218,54
756,40	1228,78
756,57	1220,59
756,75	1259,50
756,93	1298,41
757,11	1306,60
757,29	1327,08
757,47	1249,26
757,65	1335,28
757,82	1271,79
758,00	1286,12
758,18	1292,27
758,36	1245,16
758,54	1269,74
758,72	1337,32
758,90	1359,85
759,07	1337,32
759,25	1257,45
759,43	1267,69
759,61	1257,45
759,79	1314,80
759,97	1232,88
760,15	1243,12
760,32	1228,78
760,50	1306,60
760,68	1249,26
760,86	1222,64
761,04	1263,60
761,22	1222,64
761,39	1226,73
761,57	1259,50
761,75	1228,78
761,93	1300,46
762,11	1261,55
762,28	1267,69
762,46	1200,11
762,64	1310,70
762,82	1273,84
763,00	1230,83
763,18	1241,07
763,35	1239,02
763,53	1322,99
763,71	1316,84
763,89	1249,26
764,07	1318,89
764,24	1406,95
764,42	1169,39
764,60	1257,45
764,78	1327,08
764,96	1286,12
765,13	1239,02
765,31	1320,94
765,49	1269,74
765,67	1343,47
765,84	1230,83
766,02	1236,97
766,20	1181,68
766,38	1253,36
766,56	1251,31
766,73	1247,21
766,91	1306,60
767,09	1296,36
767,27	1224,69
767,44	1370,09
767,62	1253,36
767,80	1300,46
767,98	1314,80
768,15	1210,35
768,33	1314,80
768,51	1292,27
768,69	1292,27
768,87	1230,83
769,04	1275,88
769,22	1257,45
769,40	1288,17
769,58	1224,69
769,75	1224,69
769,93	1351,66
770,11	1241,07
770,28	1329,13
770,46	1267,69
770,64	1312,75
770,82	1249,26
770,99	1322,99
771,17	1161,20
771,35	1282,03
771,53	1310,70
771,70	1279,98
771,88	1228,78
772,06	1255,40
772,23	1239,02
772,41	1257,45
772,59	1208,30
772,77	1269,74
772,94	1288,17
773,12	1232,88
773,30	1277,93
773,47	1314,80
773,65	1269,74
773,83	1273,84
774,01	1222,64
774,18	1300,46
774,36	1239,02
774,54	1216,49
774,71	1249,26
774,89	1267,69
775,07	1251,31
775,24	1325,04
775,42	1214,45
775,60	1312,75
775,78	1214,45
775,95	1249,26
776,13	1312,75
776,31	1282,03
776,48	1292,27
776,66	1247,21
776,84	1327,08
777,01	1359,85
777,19	1322,99
777,37	1251,31
777,54	1245,16
777,72	1273,84
777,90	1245,16
778,07	1339,37
778,25	1257,45
778,43	1290,22
778,60	1222,64
778,78	1230,83
778,96	1279,98
779,13	1228,78
779,31	1292,27
779,49	1239,02
779,66	1257,45
779,84	1263,60
780,01	1267,69
780,19	1300,46
780,37	1226,73
780,54	1304,56
780,72	1259,50
780,90	1251,31
781,07	1279,98
781,25	1292,27
781,43	1249,26
781,60	1269,74
781,78	1306,60
781,95	1189,87
782,13	1292,27
782,31	1294,32
782,48	1230,83
782,66	1155,05
782,83	1196,01
783,01	1230,83
783,19	1331,18
783,36	1284,08
783,54	1191,92
783,72	1179,63
783,89	1273,84
784,07	1316,84
784,24	1251,31
784,42	1261,55
784,60	1253,36
784,77	1286,12
784,95	1265,64
785,12	1288,17
785,30	1273,84
785,47	1284,08
785,65	1257,45
785,83	1193,97
786,00	1302,51
786,18	1288,17
786,35	1310,70
786,53	1269,74
786,71	1294,32
786,88	1318,89
787,06	1236,97
787,23	1308,65
787,41	1316,84
787,58	1302,51
787,76	1257,45
787,94	1279,98
788,11	1292,27
788,29	1282,03
788,46	1282,03
788,64	1204,21
788,81	1335,28
788,99	1206,25
789,16	1267,69
789,34	1245,16
789,52	1269,74
789,69	1245,16
789,87	1251,31
790,04	1282,03
790,22	1241,07
790,39	1306,60
790,57	1216,49
790,74	1214,45
790,92	1302,51
791,09	1257,45
791,27	1329,13
791,44	1275,88
791,62	1257,45
791,79	1294,32
791,97	1249,26
792,15	1261,55
792,32	1269,74
792,50	1181,68
792,67	1179,63
792,85	1263,60
793,02	1255,40
793,20	1273,84
793,37	1282,03
793,55	1288,17
793,72	1267,69
793,90	1279,98
794,07	1308,65
794,25	1327,08
794,42	1224,69
794,60	1273,84
794,77	1234,93
794,95	1208,30
795,12	1286,12
795,30	1273,84
795,47	1255,40
795,65	1310,70
795,82	1255,40
796,00	1282,03
796,17	1294,32
796,34	1286,12
796,52	1189,87
796,69	1277,93
796,87	1300,46
797,04	1282,03
797,22	1282,03
797,39	1322,99
797,57	1277,93
797,74	1304,56
797,92	1257,45
798,09	1265,64
798,27	1290,22
798,44	1288,17
798,62	1300,46
798,79	1306,60
798,96	1255,40
799,14	1261,55
799,31	1228,78
799,49	1234,93
799,66	1271,79
799,84	1212,40
800,01	1277,93
800,19	1292,27
800,36	1339,37
800,53	1275,88
800,71	1234,93
800,88	1179,63
801,06	1273,84
801,23	1302,51
801,41	1247,21
801,58	1247,21
801,75	1300,46
801,93	1253,36
802,10	1253,36
802,28	1322,99
802,45	1261,55
802,63	1284,08
802,80	1284,08
802,97	1230,83
803,15	1228,78
803,32	1314,80
803,50	1234,93
803,67	1220,59
803,84	1318,89
804,02	1265,64
804,19	1265,64
804,37	1300,46
804,54	1275,88
804,71	1251,31
804,89	1314,80
805,06	1228,78
805,24	1214,45
805,41	1245,16
805,58	1239,02
805,76	1327,08
805,93	1261,55
806,10	1275,88
806,28	1271,79
806,45	1349,61
806,63	1210,35
806,80	1222,64
806,97	1269,74
807,15	1320,94
807,32	1236,97
807,49	1179,63
807,67	1253,36
807,84	1263,60
808,01	1230,83
808,19	1204,21
808,36	1249,26
808,54	1247,21
808,71	1314,80
808,88	1273,84
809,06	1265,64
809,23	1279,98
809,40	1257,45
809,58	1282,03
809,75	1275,88
809,92	1271,79
810,10	1204,21
810,27	1232,88
810,44	1296,36
810,62	1331,18
810,79	1337,32
810,96	1251,31
811,14	1275,88
811,31	1288,17
811,48	1312,75
811,66	1288,17
811,83	1267,69
812,00	1318,89
812,18	1302,51
812,35	1234,93
812,52	1279,98
812,69	1316,84
812,87	1230,83
813,04	1232,88
813,21	1322,99
813,39	1185,77
813,56	1337,32
813,73	1269,74
813,91	1193,97
814,08	1314,80
814,25	1308,65
814,42	1208,30
814,60	1220,59
814,77	1267,69
814,94	1261,55
815,12	1216,49
815,29	1288,17
815,46	1312,75
815,63	1251,31
815,81	1263,60
815,98	1206,25
816,15	1273,84
816,33	1255,40
816,50	1337,32
816,67	1257,45
816,84	1288,17
817,02	1255,40
817,19	1282,03
817,36	1216,49
817,53	1273,84
817,71	1218,54
817,88	1202,16
818,05	1255,40
818,22	1220,59
818,40	1306,60
818,57	1239,02
818,74	1245,16
818,91	1171,44
819,09	1351,66
819,26	1288,17
819,43	1310,70
819,60	1200,11
819,78	1284,08
819,95	1241,07
820,12	1226,73
820,29	1226,73
820,47	1230,83
820,64	1261,55
820,81	1271,79
820,98	1282,03
821,15	1273,84
821,33	1306,60
821,50	1251,31
821,67	1265,64
821,84	1288,17
822,02	1353,71
822,19	1279,98
822,36	1292,27
822,53	1296,36
822,70	1193,97
822,88	1245,16
823,05	1320,94
823,22	1257,45
823,39	1245,16
823,56	1282,03
823,74	1226,73
823,91	1236,97
824,08	1255,40
824,25	1304,56
824,42	1263,60
824,60	1259,50
824,77	1347,56
824,94	1232,88
825,11	1298,41
825,28	1183,73
825,45	1327,08
825,63	1265,64
825,80	1296,36
825,97	1212,40
826,14	1245,16
826,31	1247,21
826,48	1259,50
826,66	1322,99
826,83	1304,56
827,00	1234,93
827,17	1198,06
827,34	1224,69
827,51	1265,64
827,69	1228,78
827,86	1292,27
828,03	1314,80
828,20	1288,17
828,37	1320,94
828,54	1335,28
828,71	1236,97
828,89	1265,64
829,06	1286,12
829,23	1282,03
829,40	1294,32
829,57	1222,64
829,74	1224,69
829,91	1245,16
830,09	1241,07
830,26	1228,78
830,43	1290,22
830,60	1282,03
830,77	1286,12
830,94	1284,08
831,11	1288,17
831,28	1251,31
831,46	1226,73
831,63	1208,30
831,80	1267,69
831,97	1279,98
832,14	1220,59
832,31	1267,69
832,48	1261,55
832,65	1204,21
832,82	1277,93
832,99	1331,18
833,17	1204,21
833,34	1339,37
833,51	1214,45
833,68	1292,27
833,85	1302,51
834,02	1204,21
834,19	1239,02
834,36	1220,59
834,53	1263,60
834,70	1255,40
834,87	1261,55
835,04	1218,54
835,22	1312,75
835,39	1306,60
835,56	1220,59
835,73	1279,98
835,90	1271,79
836,07	1290,22
836,24	1349,61
836,41	1265,64
836,58	1298,41
836,75	1189,87
836,92	1257,45
837,09	1290,22
837,26	1275,88
837,43	1273,84
837,60	1304,56
837,77	1357,80
837,94	1257,45
838,12	1269,74
838,29	1265,64
838,46	1265,64
838,63	1290,22
838,80	1290,22
838,97	1318,89
839,14	1290,22
839,31	1282,03
839,48	1368,04
839,65	1282,03
839,82	1263,60
839,99	1257,45
840,16	1224,69
840,33	1318,89
840,50	1322,99
840,67	1222,64
840,84	1314,80
841,01	1290,22
841,18	1288,17
841,35	1308,65
841,52	1339,37
841,69	1234,93
841,86	1298,41
842,03	1218,54
842,20	1177,58
842,37	1296,36
842,54	1265,64
842,71	1279,98
842,88	1218,54
843,05	1306,60
843,22	1226,73
843,39	1255,40
843,56	1290,22
843,73	1247,21
843,90	1288,17
844,07	1236,97
844,24	1263,60
844,41	1300,46
844,58	1353,71
844,75	1200,11
844,92	1247,21
845,09	1296,36
845,26	1220,59
845,43	1263,60
845,60	1269,74
845,77	1298,41
845,94	1279,98
846,10	1191,92
846,27	1275,88
846,44	1257,45
846,61	1204,21
846,78	1282,03
846,95	1316,84
847,12	1179,63
847,29	1335,28
847,46	1228,78
847,63	1232,88
847,80	1226,73
847,97	1200,11
848,14	1253,36
848,31	1249,26
848,48	1230,83
848,65	1271,79
848,82	1282,03
848,98	1236,97
849,15	1259,50
849,32	1200,11
849,49	1210,35
849,66	1230,83
849,83	1243,12
850,00	1279,98
850,17	1206,25
850,34	1327,08
850,51	1279,98
850,68	1224,69
850,85	1298,41
851,01	1261,55
851,18	1263,60
851,35	1269,74
851,52	1288,17
851,69	1314,80
851,86	1241,07
852,03	1222,64
852,20	1302,51
852,37	1314,80
852,53	1325,04
852,70	1243,12
852,87	1200,11
853,04	1243,12
853,21	1193,97
853,38	1294,32
853,55	1333,23
853,72	1271,79
853,89	1257,45
854,05	1247,21
854,22	1245,16
854,39	1314,80
854,56	1243,12
854,73	1284,08
854,90	1216,49
855,07	1187,82
855,23	1335,28
855,40	1249,26
855,57	1263,60
855,74	1269,74
855,91	1298,41
856,08	1316,84
856,25	1230,83
856,41	1368,04
856,58	1292,27
856,75	1185,77
856,92	1255,40
857,09	1339,37
857,26	1271,79
857,42	1228,78
857,59	1296,36
857,76	1267,69
857,93	1200,11
858,10	1232,88
858,27	1261,55
858,43	1257,45
858,60	1249,26
858,77	1218,54
858,94	1257,45
859,11	1226,73
859,27	1247,21
859,44	1304,56
859,61	1239,02
859,78	1249,26
859,95	1322,99
860,12	1273,84
860,28	1318,89
860,45	1290,22
860,62	1196,01
860,79	1249,26
860,95	1255,40
861,12	1267,69
861,29	1249,26
861,46	1316,84
861,63	1302,51
861,79	1214,45
861,96	1275,88
862,13	1282,03
862,30	1271,79
862,47	1275,88
862,63	1249,26
862,80	1288,17
862,97	1224,69
863,14	1271,79
863,30	1263,60
863,47	1206,25
863,64	1286,12
863,81	1265,64
863,97	1245,16
864,14	1251,31
864,31	1279,98
864,48	1249,26
864,65	1271,79
864,81	1241,07
864,98	1320,94
865,15	1312,75
865,32	1290,22
865,48	1204,21
865,65	1257,45
865,82	1275,88
865,98	1232,88
866,15	1294,32
866,32	1347,56
866,49	1298,41
866,65	1236,97
866,82	1226,73
866,99	1298,41
867,16	1206,25
867,32	1228,78
867,49	1226,73
867,66	1322,99
867,83	1325,04
867,99	1271,79
868,16	1335,28
868,33	1290,22
868,49	1239,02
868,66	1327,08
868,83	1296,36
868,99	1243,12
869,16	1355,76
869,33	1163,25
869,50	1339,37
869,66	1228,78
869,83	1292,27
870,00	1298,41
870,16	1232,88
870,33	1277,93
870,50	1282,03
870,66	1314,80
870,83	1247,21
871,00	1232,88
871,17	1329,13
871,33	1222,64
871,50	1183,73
871,67	1257,45
871,83	1298,41
872,00	1241,07
872,17	1292,27
872,33	1302,51
872,50	1325,04
872,67	1226,73
872,83	1259,50
873,00	1193,97
873,17	1257,45
873,33	1275,88
873,50	1247,21
873,67	1239,02
873,83	1269,74
874,00	1308,65
874,16	1302,51
874,33	1249,26
874,50	1288,17
874,66	1204,21
874,83	1226,73
875,00	1271,79
875,16	1288,17
875,33	1279,98
875,50	1198,06
875,66	1255,40
875,83	1236,97
875,99	1232,88
876,16	1206,25
876,33	1198,06
876,49	1234,93
876,66	1298,41
876,83	1269,74
876,99	1261,55
877,16	1241,07
877,32	1241,07
877,49	1212,40
877,66	1312,75
877,82	1243,12
877,99	1286,12
878,15	1349,61
878,32	1329,13
878,49	1277,93
878,65	1224,69
878,82	1318,89
878,98	1275,88
879,15	1282,03
879,32	1320,94
879,48	1257,45
879,65	1243,12
879,81	1314,80
879,98	1290,22
880,15	1267,69
880,31	1318,89
880,48	1284,08
880,64	1292,27
880,81	1370,09
880,97	1253,36
881,14	1249,26
881,31	1263,60
881,47	1239,02
881,64	1292,27
881,80	1329,13
881,97	1253,36
882,13	1329,13
882,30	1226,73
882,47	1247,21
882,63	1216,49
882,80	1288,17
882,96	1277,93
883,13	1275,88
883,29	1247,21
883,46	1234,93
883,62	1255,40
883,79	1265,64
883,95	1314,80
884,12	1282,03
884,29	1316,84
884,45	1255,40
884,62	1253,36
884,78	1263,60
884,95	1243,12
885,11	1241,07
885,28	1245,16
885,44	1290,22
885,61	1294,32
885,77	1222,64
885,94	1255,40
886,10	1304,56
886,27	1300,46
886,43	1251,31
886,60	1302,51
886,76	1284,08
886,93	1222,64
887,09	1236,97
887,26	1300,46
887,42	1236,97
887,59	1228,78
887,75	1288,17
887,92	1249,26
888,08	1290,22
888,25	1296,36
888,41	1279,98
888,58	1312,75
888,74	1261,55
888,91	1239,02
>>>>>End Processed Spectral Data<<<<<
