SpectraSuite Data File
++++++++++++++++++++++++++++++++++++
Date: Sun Apr 03 17:34:34 CEST 2016
User: root
Dark Spectrum Present: No
Reference Spectrum Present: No
Number of Sampled Component Spectra: 1
Spectrometers: USB4C02835
Integration Time (usec): 10000 (USB4C02835)
Spectra Averaged: 1 (USB4C02835)
Boxcar Smoothing: 0 (USB4C02835)
Correct for Electrical Dark: No (USB4C02835)
Strobe/Lamp Enabled: No (USB4C02835)
Correct for Detector Non-linearity: No (USB4C02835)
Correct for Stray Light: No (USB4C02835)
Number of Pixels in Processed Spectrum: 3648
>>>>>Begin Processed Spectral Data<<<<<
177,47	1275,88
177,69	1275,88
177,91	1275,88
178,13	1208,30
178,36	1269,74
178,58	1249,26
178,80	1228,78
179,02	1204,21
179,24	1204,21
179,46	1236,97
179,68	1284,08
179,90	1261,55
180,13	1296,36
180,35	1275,88
180,57	1282,03
180,79	1259,50
181,01	1261,55
181,23	1277,93
181,45	1263,60
181,67	1253,36
181,90	1206,25
182,12	1282,03
182,34	1243,12
182,56	1316,84
182,78	1275,88
183,00	1224,69
183,22	1288,17
183,44	1224,69
183,66	1331,18
183,89	1245,16
184,11	1255,40
184,33	1298,41
184,55	1314,80
184,77	1277,93
184,99	1306,60
185,21	1239,02
185,43	1263,60
185,65	1261,55
185,87	1236,97
186,10	1296,36
186,32	1314,80
186,54	1261,55
186,76	1224,69
186,98	1236,97
187,20	1341,42
187,42	1193,97
187,64	1263,60
187,86	1269,74
188,08	1247,21
188,30	1218,54
188,52	1298,41
188,75	1239,02
188,97	1255,40
189,19	1314,80
189,41	1312,75
189,63	1294,32
189,85	1279,98
190,07	1271,79
190,29	1226,73
190,51	1261,55
190,73	1269,74
190,95	1208,30
191,17	1343,47
191,39	1247,21
191,61	1228,78
191,84	1331,18
192,06	1218,54
192,28	1259,50
192,50	1200,11
192,72	1251,31
192,94	1196,01
193,16	1210,35
193,38	1282,03
193,60	1284,08
193,82	1282,03
194,04	1239,02
194,26	1187,82
194,48	1183,73
194,70	1275,88
194,92	1314,80
195,14	1247,21
195,36	1312,75
195,58	1179,63
195,80	1294,32
196,02	1191,92
196,24	1304,56
196,46	1228,78
196,69	1306,60
196,91	1282,03
197,13	1198,06
197,35	1320,94
197,57	1228,78
197,79	1255,40
198,01	1234,93
198,23	1290,22
198,45	1282,03
198,67	1214,45
198,89	1302,51
199,11	1308,65
199,33	1298,41
199,55	1298,41
199,77	1257,45
199,99	1318,89
200,21	1257,45
200,43	1277,93
200,65	1261,55
200,87	1200,11
201,09	1173,49
201,31	1243,12
201,53	1257,45
201,75	1300,46
201,97	1224,69
202,19	1232,88
202,41	1267,69
202,63	1251,31
202,85	1236,97
203,07	1286,12
203,29	1339,37
203,51	1284,08
203,73	1220,59
203,95	1292,27
204,17	1316,84
204,39	1226,73
204,61	1263,60
204,83	1329,13
205,05	1308,65
205,27	1300,46
205,49	1327,08
205,71	1234,93
205,93	1261,55
206,15	1316,84
206,37	1222,64
206,59	1304,56
206,81	1214,45
207,03	1290,22
207,25	1279,98
207,47	1239,02
207,69	1282,03
207,91	1363,95
208,13	1226,73
208,34	1290,22
208,56	1279,98
208,78	1294,32
209,00	1282,03
209,22	1239,02
209,44	1224,69
209,66	1218,54
209,88	1255,40
210,10	1308,65
210,32	1339,37
210,54	1288,17
210,76	1208,30
210,98	1259,50
211,20	1290,22
211,42	1343,47
211,64	1312,75
211,86	1318,89
212,08	1325,04
212,30	1384,43
212,52	1265,64
212,74	1290,22
212,96	1263,60
213,17	1329,13
213,39	1296,36
213,61	1257,45
213,83	1355,76
214,05	1228,78
214,27	1241,07
214,49	1298,41
214,71	1282,03
214,93	1296,36
215,15	1265,64
215,37	1208,30
215,59	1279,98
215,81	1236,97
216,03	1226,73
216,24	1279,98
216,46	1284,08
216,68	1271,79
216,90	1308,65
217,12	1257,45
217,34	1245,16
217,56	1257,45
217,78	1351,66
218,00	1275,88
218,22	1249,26
218,44	1271,79
218,66	1218,54
218,87	1236,97
219,09	1259,50
219,31	1271,79
219,53	1302,51
219,75	1265,64
219,97	1282,03
220,19	1247,21
220,41	1320,94
220,63	1245,16
220,85	1339,37
221,06	1271,79
221,28	1226,73
221,50	1345,52
221,72	1249,26
221,94	1232,88
222,16	1271,79
222,38	1245,16
222,60	1263,60
222,82	1337,32
223,03	1259,50
223,25	1228,78
223,47	1220,59
223,69	1257,45
223,91	1230,83
224,13	1230,83
224,35	1347,56
224,57	1310,70
224,78	1255,40
225,00	1284,08
225,22	1255,40
225,44	1265,64
225,66	1236,97
225,88	1370,09
226,10	1376,24
226,32	1222,64
226,53	1216,49
226,75	1265,64
226,97	1204,21
227,19	1269,74
227,41	1159,15
227,63	1230,83
227,85	1249,26
228,06	1304,56
228,28	1249,26
228,50	1255,40
228,72	1286,12
228,94	1288,17
229,16	1232,88
229,37	1308,65
229,59	1245,16
229,81	1294,32
230,03	1269,74
230,25	1243,12
230,47	1216,49
230,69	1253,36
230,90	1288,17
231,12	1312,75
231,34	1306,60
231,56	1298,41
231,78	1282,03
232,00	1218,54
232,21	1292,27
232,43	1314,80
232,65	1265,64
232,87	1298,41
233,09	1267,69
233,30	1331,18
233,52	1331,18
233,74	1243,12
233,96	1282,03
234,18	1245,16
234,40	1273,84
234,61	1261,55
234,83	1173,49
235,05	1271,79
235,27	1304,56
235,49	1304,56
235,70	1247,21
235,92	1265,64
236,14	1222,64
236,36	1241,07
236,58	1318,89
236,79	1300,46
237,01	1298,41
237,23	1277,93
237,45	1226,73
237,67	1239,02
237,88	1310,70
238,10	1304,56
238,32	1216,49
238,54	1296,36
238,76	1144,81
238,97	1253,36
239,19	1236,97
239,41	1239,02
239,63	1298,41
239,85	1271,79
240,06	1290,22
240,28	1220,59
240,50	1257,45
240,72	1290,22
240,93	1322,99
241,15	1335,28
241,37	1257,45
241,59	1224,69
241,81	1224,69
242,02	1216,49
242,24	1198,06
242,46	1253,36
242,68	1275,88
242,89	1183,73
243,11	1212,40
243,33	1312,75
243,55	1298,41
243,76	1263,60
243,98	1171,44
244,20	1234,93
244,42	1249,26
244,64	1255,40
244,85	1216,49
245,07	1279,98
245,29	1206,25
245,51	1290,22
245,72	1249,26
245,94	1247,21
246,16	1286,12
246,38	1316,84
246,59	1253,36
246,81	1286,12
247,03	1241,07
247,24	1273,84
247,46	1251,31
247,68	1257,45
247,90	1255,40
248,11	1298,41
248,33	1267,69
248,55	1228,78
248,77	1288,17
248,98	1294,32
249,20	1222,64
249,42	1271,79
249,64	1302,51
249,85	1247,21
250,07	1232,88
250,29	1282,03
250,50	1247,21
250,72	1234,93
250,94	1239,02
251,16	1234,93
251,37	1306,60
251,59	1247,21
251,81	1275,88
252,02	1351,66
252,24	1222,64
252,46	1279,98
252,68	1261,55
252,89	1312,75
253,11	1353,71
253,33	1245,16
253,54	1277,93
253,76	1253,36
253,98	1271,79
254,20	1290,22
254,41	1302,51
254,63	1279,98
254,85	1275,88
255,06	1257,45
255,28	1253,36
255,50	1263,60
255,71	1247,21
255,93	1314,80
256,15	1294,32
256,36	1298,41
256,58	1216,49
256,80	1275,88
257,02	1275,88
257,23	1241,07
257,45	1318,89
257,67	1331,18
257,88	1249,26
258,10	1243,12
258,32	1218,54
258,53	1271,79
258,75	1298,41
258,97	1265,64
259,18	1239,02
259,40	1243,12
259,62	1279,98
259,83	1257,45
260,05	1204,21
260,27	1286,12
260,48	1294,32
260,70	1306,60
260,92	1257,45
261,13	1302,51
261,35	1265,64
261,57	1298,41
261,78	1212,40
262,00	1279,98
262,22	1224,69
262,43	1208,30
262,65	1290,22
262,86	1271,79
263,08	1314,80
263,30	1294,32
263,51	1290,22
263,73	1294,32
263,95	1236,97
264,16	1314,80
264,38	1290,22
264,60	1296,36
264,81	1236,97
265,03	1306,60
265,25	1331,18
265,46	1247,21
265,68	1290,22
265,89	1218,54
266,11	1304,56
266,33	1300,46
266,54	1255,40
266,76	1228,78
266,98	1222,64
267,19	1257,45
267,41	1347,56
267,62	1239,02
267,84	1230,83
268,06	1208,30
268,27	1294,32
268,49	1271,79
268,70	1236,97
268,92	1247,21
269,14	1271,79
269,35	1257,45
269,57	1232,88
269,79	1279,98
270,00	1296,36
270,22	1298,41
270,43	1263,60
270,65	1247,21
270,87	1222,64
271,08	1257,45
271,30	1327,08
271,51	1300,46
271,73	1288,17
271,95	1288,17
272,16	1251,31
272,38	1206,25
272,59	1183,73
272,81	1288,17
273,02	1304,56
273,24	1210,35
273,46	1269,74
273,67	1253,36
273,89	1279,98
274,10	1220,59
274,32	1382,38
274,54	1302,51
274,75	1279,98
274,97	1290,22
275,18	1275,88
275,40	1310,70
275,61	1300,46
275,83	1374,19
276,05	1243,12
276,26	1236,97
276,48	1247,21
276,69	1318,89
276,91	1290,22
277,12	1239,02
277,34	1292,27
277,55	1282,03
277,77	1269,74
277,99	1239,02
278,20	1222,64
278,42	1304,56
278,63	1257,45
278,85	1345,52
279,06	1294,32
279,28	1320,94
279,49	1255,40
279,71	1257,45
279,93	1325,04
280,14	1236,97
280,36	1298,41
280,57	1277,93
280,79	1257,45
281,00	1232,88
281,22	1239,02
281,43	1314,80
281,65	1251,31
281,86	1263,60
282,08	1236,97
282,29	1239,02
282,51	1290,22
282,73	1322,99
282,94	1273,84
283,16	1306,60
283,37	1249,26
283,59	1236,97
283,80	1263,60
284,02	1290,22
284,23	1298,41
284,45	1208,30
284,66	1265,64
284,88	1304,56
285,09	1263,60
285,31	1232,88
285,52	1271,79
285,74	1247,21
285,95	1288,17
286,17	1265,64
286,38	1222,64
286,60	1261,55
286,81	1214,45
287,03	1236,97
287,24	1269,74
287,46	1226,73
287,67	1220,59
287,89	1302,51
288,10	1277,93
288,32	1277,93
288,53	1226,73
288,75	1320,94
288,96	1292,27
289,18	1224,69
289,39	1320,94
289,61	1306,60
289,82	1363,95
290,04	1216,49
290,25	1239,02
290,47	1273,84
290,68	1339,37
290,90	1337,32
291,11	1218,54
291,33	1236,97
291,54	1247,21
291,76	1265,64
291,97	1241,07
292,18	1198,06
292,40	1271,79
292,61	1288,17
292,83	1206,25
293,04	1282,03
293,26	1327,08
293,47	1187,82
293,69	1196,01
293,90	1312,75
294,12	1275,88
294,33	1275,88
294,55	1220,59
294,76	1265,64
294,97	1247,21
295,19	1300,46
295,40	1247,21
295,62	1259,50
295,83	1271,79
296,05	1253,36
296,26	1265,64
296,48	1226,73
296,69	1228,78
296,90	1267,69
297,12	1286,12
297,33	1263,60
297,55	1228,78
297,76	1290,22
297,98	1347,56
298,19	1294,32
298,41	1245,16
298,62	1230,83
298,83	1228,78
299,05	1247,21
299,26	1259,50
299,48	1243,12
299,69	1322,99
299,90	1331,18
300,12	1314,80
300,33	1310,70
300,55	1284,08
300,76	1245,16
300,98	1279,98
301,19	1249,26
301,40	1290,22
301,62	1294,32
301,83	1263,60
302,05	1269,74
302,26	1247,21
302,47	1279,98
302,69	1247,21
302,90	1279,98
303,12	1206,25
303,33	1290,22
303,54	1251,31
303,76	1226,73
303,97	1181,68
304,19	1347,56
304,40	1271,79
304,61	1247,21
304,83	1288,17
305,04	1228,78
305,26	1210,35
305,47	1224,69
305,68	1378,28
305,90	1259,50
306,11	1259,50
306,33	1239,02
306,54	1206,25
306,75	1255,40
306,97	1245,16
307,18	1222,64
307,39	1298,41
307,61	1249,26
307,82	1220,59
308,04	1204,21
308,25	1294,32
308,46	1239,02
308,68	1308,65
308,89	1249,26
309,10	1271,79
309,32	1298,41
309,53	1251,31
309,74	1249,26
309,96	1284,08
310,17	1271,79
310,39	1284,08
310,60	1257,45
310,81	1249,26
311,03	1187,82
311,24	1271,79
311,45	1292,27
311,67	1304,56
311,88	1290,22
312,09	1347,56
312,31	1269,74
312,52	1216,49
312,73	1370,09
312,95	1241,07
313,16	1230,83
313,37	1220,59
313,59	1284,08
313,80	1294,32
314,01	1300,46
314,23	1300,46
314,44	1316,84
314,65	1277,93
314,87	1273,84
315,08	1239,02
315,29	1239,02
315,51	1339,37
315,72	1368,04
315,93	1269,74
316,15	1314,80
316,36	1277,93
316,57	1314,80
316,79	1255,40
317,00	1236,97
317,21	1257,45
317,43	1230,83
317,64	1257,45
317,85	1265,64
318,07	1249,26
318,28	1245,16
318,49	1294,32
318,70	1267,69
318,92	1255,40
319,13	1320,94
319,34	1253,36
319,56	1232,88
319,77	1294,32
319,98	1263,60
320,20	1304,56
320,41	1263,60
320,62	1210,35
320,83	1200,11
321,05	1331,18
321,26	1267,69
321,47	1222,64
321,69	1304,56
321,90	1257,45
322,11	1251,31
322,32	1251,31
322,54	1282,03
322,75	1232,88
322,96	1310,70
323,18	1232,88
323,39	1288,17
323,60	1271,79
323,81	1316,84
324,03	1265,64
324,24	1243,12
324,45	1261,55
324,66	1355,76
324,88	1327,08
325,09	1236,97
325,30	1241,07
325,52	1290,22
325,73	1247,21
325,94	1200,11
326,15	1259,50
326,37	1265,64
326,58	1261,55
326,79	1290,22
327,00	1296,36
327,22	1267,69
327,43	1263,60
327,64	1304,56
327,85	1288,17
328,07	1245,16
328,28	1310,70
328,49	1296,36
328,70	1314,80
328,92	1198,06
329,13	1253,36
329,34	1302,51
329,55	1220,59
329,76	1245,16
329,98	1277,93
330,19	1271,79
330,40	1200,11
330,61	1322,99
330,83	1267,69
331,04	1255,40
331,25	1284,08
331,46	1257,45
331,68	1304,56
331,89	1337,32
332,10	1239,02
332,31	1286,12
332,52	1284,08
332,74	1275,88
332,95	1245,16
333,16	1249,26
333,37	1345,52
333,58	1185,77
333,80	1286,12
334,01	1232,88
334,22	1279,98
334,43	1337,32
334,64	1312,75
334,86	1247,21
335,07	1249,26
335,28	1269,74
335,49	1288,17
335,70	1314,80
335,92	1155,05
336,13	1257,45
336,34	1200,11
336,55	1298,41
336,76	1241,07
336,98	1245,16
337,19	1218,54
337,40	1206,25
337,61	1277,93
337,82	1269,74
338,04	1343,47
338,25	1167,34
338,46	1257,45
338,67	1210,35
338,88	1241,07
339,09	1284,08
339,31	1282,03
339,52	1236,97
339,73	1257,45
339,94	1269,74
340,15	1247,21
340,36	1312,75
340,58	1347,56
340,79	1261,55
341,00	1247,21
341,21	1257,45
341,42	1296,36
341,63	1294,32
341,85	1284,08
342,06	1292,27
342,27	1175,53
342,48	1216,49
342,69	1308,65
342,90	1183,73
343,12	1232,88
343,33	1255,40
343,54	1204,21
343,75	1282,03
343,96	1220,59
344,17	1214,45
344,38	1243,12
344,60	1224,69
344,81	1253,36
345,02	1300,46
345,23	1296,36
345,44	1224,69
345,65	1294,32
345,86	1339,37
346,07	1249,26
346,29	1312,75
346,50	1349,61
346,71	1271,79
346,92	1267,69
347,13	1216,49
347,34	1249,26
347,55	1249,26
347,76	1236,97
347,98	1325,04
348,19	1296,36
348,40	1296,36
348,61	1202,16
348,82	1314,80
349,03	1202,16
349,24	1282,03
349,45	1304,56
349,66	1206,25
349,88	1226,73
350,09	1247,21
350,30	1286,12
350,51	1329,13
350,72	1214,45
350,93	1320,94
351,14	1277,93
351,35	1310,70
351,56	1310,70
351,77	1263,60
351,99	1245,16
352,20	1294,32
352,41	1239,02
352,62	1249,26
352,83	1216,49
353,04	1255,40
353,25	1318,89
353,46	1230,83
353,67	1271,79
353,88	1247,21
354,09	1253,36
354,30	1210,35
354,52	1255,40
354,73	1306,60
354,94	1320,94
355,15	1243,12
355,36	1308,65
355,57	1214,45
355,78	1275,88
355,99	1275,88
356,20	1263,60
356,41	1273,84
356,62	1286,12
356,83	1228,78
357,04	1232,88
357,25	1269,74
357,46	1241,07
357,68	1290,22
357,89	1247,21
358,10	1294,32
358,31	1198,06
358,52	1271,79
358,73	1290,22
358,94	1255,40
359,15	1245,16
359,36	1263,60
359,57	1353,71
359,78	1245,16
359,99	1325,04
360,20	1236,97
360,41	1234,93
360,62	1286,12
360,83	1234,93
361,04	1212,40
361,25	1257,45
361,46	1247,21
361,67	1279,98
361,88	1310,70
362,09	1224,69
362,30	1347,56
362,51	1224,69
362,72	1325,04
362,93	1300,46
363,14	1232,88
363,35	1243,12
363,56	1267,69
363,78	1277,93
363,99	1327,08
364,20	1267,69
364,41	1232,88
364,62	1273,84
364,83	1204,21
365,04	1275,88
365,25	1300,46
365,46	1300,46
365,67	1331,18
365,88	1208,30
366,09	1351,66
366,30	1236,97
366,51	1253,36
366,72	1314,80
366,93	1271,79
367,14	1251,31
367,35	1222,64
367,56	1277,93
367,77	1277,93
367,98	1312,75
368,18	1245,16
368,39	1241,07
368,60	1335,28
368,81	1257,45
369,02	1263,60
369,23	1261,55
369,44	1265,64
369,65	1243,12
369,86	1298,41
370,07	1263,60
370,28	1302,51
370,49	1263,60
370,70	1259,50
370,91	1302,51
371,12	1263,60
371,33	1310,70
371,54	1259,50
371,75	1267,69
371,96	1290,22
372,17	1214,45
372,38	1259,50
372,59	1228,78
372,80	1290,22
373,01	1320,94
373,22	1302,51
373,43	1318,89
373,64	1269,74
373,85	1298,41
374,06	1282,03
374,26	1183,73
374,47	1202,16
374,68	1179,63
374,89	1277,93
375,10	1212,40
375,31	1241,07
375,52	1329,13
375,73	1314,80
375,94	1327,08
376,15	1282,03
376,36	1335,28
376,57	1236,97
376,78	1273,84
376,99	1267,69
377,20	1269,74
377,40	1265,64
377,61	1277,93
377,82	1300,46
378,03	1259,50
378,24	1247,21
378,45	1304,56
378,66	1353,71
378,87	1257,45
379,08	1282,03
379,29	1247,21
379,50	1298,41
379,71	1294,32
379,91	1279,98
380,12	1312,75
380,33	1298,41
380,54	1271,79
380,75	1257,45
380,96	1322,99
381,17	1333,23
381,38	1232,88
381,59	1263,60
381,80	1277,93
382,00	1320,94
382,21	1236,97
382,42	1222,64
382,63	1302,51
382,84	1243,12
383,05	1224,69
383,26	1306,60
383,47	1271,79
383,68	1331,18
383,88	1230,83
384,09	1241,07
384,30	1204,21
384,51	1208,30
384,72	1249,26
384,93	1196,01
385,14	1273,84
385,35	1265,64
385,55	1273,84
385,76	1327,08
385,97	1253,36
386,18	1220,59
386,39	1320,94
386,60	1193,97
386,81	1193,97
387,02	1282,03
387,22	1220,59
387,43	1316,84
387,64	1185,77
387,85	1236,97
388,06	1245,16
388,27	1265,64
388,48	1230,83
388,68	1320,94
388,89	1228,78
389,10	1243,12
389,31	1275,88
389,52	1234,93
389,73	1206,25
389,93	1269,74
390,14	1296,36
390,35	1339,37
390,56	1269,74
390,77	1292,27
390,98	1253,36
391,18	1249,26
391,39	1265,64
391,60	1239,02
391,81	1335,28
392,02	1304,56
392,23	1290,22
392,43	1306,60
392,64	1265,64
392,85	1288,17
393,06	1308,65
393,27	1333,23
393,47	1202,16
393,68	1327,08
393,89	1232,88
394,10	1271,79
394,31	1310,70
394,52	1343,47
394,72	1253,36
394,93	1263,60
395,14	1288,17
395,35	1247,21
395,56	1306,60
395,76	1322,99
395,97	1265,64
396,18	1292,27
396,39	1257,45
396,60	1312,75
396,80	1312,75
397,01	1304,56
397,22	1204,21
397,43	1200,11
397,64	1312,75
397,84	1249,26
398,05	1298,41
398,26	1239,02
398,47	1288,17
398,67	1314,80
398,88	1277,93
399,09	1296,36
399,30	1251,31
399,51	1236,97
399,71	1273,84
399,92	1312,75
400,13	1335,28
400,34	1312,75
400,54	1196,01
400,75	1247,21
400,96	1308,65
401,17	1306,60
401,37	1232,88
401,58	1263,60
401,79	1226,73
402,00	1304,56
402,21	1253,36
402,41	1261,55
402,62	1331,18
402,83	1335,28
403,04	1290,22
403,24	1310,70
403,45	1257,45
403,66	1363,95
403,87	1216,49
404,07	1212,40
404,28	1296,36
404,49	1351,66
404,70	1239,02
404,90	1245,16
405,11	1331,18
405,32	1279,98
405,52	1314,80
405,73	1224,69
405,94	1247,21
406,15	1316,84
406,35	1273,84
406,56	1247,21
406,77	1206,25
406,98	1265,64
407,18	1155,05
407,39	1185,77
407,60	1322,99
407,80	1247,21
408,01	1314,80
408,22	1275,88
408,43	1236,97
408,63	1210,35
408,84	1273,84
409,05	1353,71
409,25	1292,27
409,46	1275,88
409,67	1267,69
409,88	1273,84
410,08	1363,95
410,29	1257,45
410,50	1232,88
410,70	1302,51
410,91	1230,83
411,12	1327,08
411,32	1232,88
411,53	1302,51
411,74	1234,93
411,95	1294,32
412,15	1292,27
412,36	1304,56
412,57	1245,16
412,77	1294,32
412,98	1210,35
413,19	1206,25
413,39	1251,31
413,60	1288,17
413,81	1298,41
414,01	1273,84
414,22	1251,31
414,43	1288,17
414,63	1279,98
414,84	1302,51
415,05	1282,03
415,25	1304,56
415,46	1310,70
415,67	1257,45
415,87	1245,16
416,08	1277,93
416,29	1249,26
416,49	1228,78
416,70	1263,60
416,91	1302,51
417,11	1290,22
417,32	1279,98
417,53	1286,12
417,73	1337,32
417,94	1288,17
418,15	1249,26
418,35	1232,88
418,56	1271,79
418,77	1339,37
418,97	1208,30
419,18	1218,54
419,38	1220,59
419,59	1226,73
419,80	1304,56
420,00	1230,83
420,21	1253,36
420,42	1236,97
420,62	1273,84
420,83	1255,40
421,04	1208,30
421,24	1288,17
421,45	1275,88
421,65	1265,64
421,86	1288,17
422,07	1220,59
422,27	1255,40
422,48	1249,26
422,69	1282,03
422,89	1263,60
423,10	1275,88
423,30	1257,45
423,51	1257,45
423,72	1257,45
423,92	1290,22
424,13	1243,12
424,33	1230,83
424,54	1214,45
424,75	1345,52
424,95	1234,93
425,16	1230,83
425,36	1327,08
425,57	1279,98
425,78	1251,31
425,98	1306,60
426,19	1204,21
426,39	1181,68
426,60	1306,60
426,81	1232,88
427,01	1298,41
427,22	1212,40
427,42	1212,40
427,63	1312,75
427,83	1259,50
428,04	1331,18
428,25	1241,07
428,45	1320,94
428,66	1236,97
428,86	1312,75
429,07	1208,30
429,28	1206,25
429,48	1294,32
429,69	1265,64
429,89	1249,26
430,10	1218,54
430,30	1232,88
430,51	1230,83
430,71	1216,49
430,92	1318,89
431,13	1269,74
431,33	1263,60
431,54	1271,79
431,74	1251,31
431,95	1310,70
432,15	1257,45
432,36	1263,60
432,56	1341,42
432,77	1288,17
432,98	1302,51
433,18	1288,17
433,39	1271,79
433,59	1239,02
433,80	1249,26
434,00	1255,40
434,21	1241,07
434,41	1271,79
434,62	1300,46
434,82	1298,41
435,03	1259,50
435,23	1265,64
435,44	1263,60
435,64	1296,36
435,85	1294,32
436,06	1251,31
436,26	1327,08
436,47	1230,83
436,67	1255,40
436,88	1267,69
437,08	1275,88
437,29	1273,84
437,49	1216,49
437,70	1304,56
437,90	1277,93
438,11	1210,35
438,31	1247,21
438,52	1308,65
438,72	1255,40
438,93	1208,30
439,13	1261,55
439,34	1232,88
439,54	1255,40
439,75	1282,03
439,95	1265,64
440,16	1212,40
440,36	1298,41
440,57	1265,64
440,77	1329,13
440,98	1218,54
441,18	1232,88
441,39	1318,89
441,59	1294,32
441,80	1359,85
442,00	1263,60
442,21	1277,93
442,41	1220,59
442,62	1230,83
442,82	1241,07
443,02	1277,93
443,23	1261,55
443,43	1259,50
443,64	1320,94
443,84	1277,93
444,05	1320,94
444,25	1198,06
444,46	1247,21
444,66	1257,45
444,87	1277,93
445,07	1275,88
445,28	1273,84
445,48	1214,45
445,69	1282,03
445,89	1298,41
446,09	1253,36
446,30	1279,98
446,50	1257,45
446,71	1284,08
446,91	1290,22
447,12	1331,18
447,32	1304,56
447,53	1210,35
447,73	1261,55
447,93	1294,32
448,14	1204,21
448,34	1216,49
448,55	1241,07
448,75	1198,06
448,96	1308,65
449,16	1277,93
449,36	1318,89
449,57	1271,79
449,77	1296,36
449,98	1206,25
450,18	1216,49
450,39	1322,99
450,59	1304,56
450,79	1310,70
451,00	1265,64
451,20	1298,41
451,41	1288,17
451,61	1279,98
451,81	1331,18
452,02	1288,17
452,22	1312,75
452,43	1189,87
452,63	1249,26
452,84	1286,12
453,04	1259,50
453,24	1253,36
453,45	1279,98
453,65	1247,21
453,86	1339,37
454,06	1261,55
454,26	1314,80
454,47	1277,93
454,67	1241,07
454,87	1257,45
455,08	1273,84
455,28	1294,32
455,49	1331,18
455,69	1247,21
455,89	1267,69
456,10	1138,67
456,30	1271,79
456,51	1366,00
456,71	1267,69
456,91	1273,84
457,12	1234,93
457,32	1273,84
457,52	1263,60
457,73	1298,41
457,93	1327,08
458,14	1206,25
458,34	1257,45
458,54	1310,70
458,75	1306,60
458,95	1298,41
459,15	1288,17
459,36	1230,83
459,56	1255,40
459,76	1279,98
459,97	1232,88
460,17	1245,16
460,37	1247,21
460,58	1263,60
460,78	1331,18
460,99	1298,41
461,19	1337,32
461,39	1212,40
461,60	1265,64
461,80	1275,88
462,00	1312,75
462,21	1267,69
462,41	1212,40
462,61	1271,79
462,82	1253,36
463,02	1290,22
463,22	1308,65
463,43	1218,54
463,63	1271,79
463,83	1351,66
464,04	1249,26
464,24	1222,64
464,44	1253,36
464,64	1298,41
464,85	1234,93
465,05	1282,03
465,25	1269,74
465,46	1257,45
465,66	1363,95
465,86	1259,50
466,07	1253,36
466,27	1269,74
466,47	1239,02
466,68	1267,69
466,88	1337,32
467,08	1273,84
467,29	1265,64
467,49	1288,17
467,69	1292,27
467,89	1232,88
468,10	1306,60
468,30	1261,55
468,50	1296,36
468,71	1259,50
468,91	1263,60
469,11	1257,45
469,31	1214,45
469,52	1245,16
469,72	1298,41
469,92	1314,80
470,13	1263,60
470,33	1245,16
470,53	1257,45
470,73	1259,50
470,94	1292,27
471,14	1302,51
471,34	1312,75
471,54	1247,21
471,75	1257,45
471,95	1204,21
472,15	1282,03
472,36	1265,64
472,56	1257,45
472,76	1261,55
472,96	1175,53
473,17	1263,60
473,37	1261,55
473,57	1220,59
473,77	1263,60
473,98	1255,40
474,18	1132,53
474,38	1302,51
474,58	1277,93
474,79	1302,51
474,99	1273,84
475,19	1263,60
475,39	1327,08
475,60	1284,08
475,80	1318,89
476,00	1224,69
476,20	1349,61
476,41	1312,75
476,61	1257,45
476,81	1245,16
477,01	1282,03
477,21	1226,73
477,42	1251,31
477,62	1216,49
477,82	1290,22
478,02	1320,94
478,23	1269,74
478,43	1243,12
478,63	1275,88
478,83	1220,59
479,03	1249,26
479,24	1265,64
479,44	1312,75
479,64	1196,01
479,84	1243,12
480,04	1230,83
480,25	1269,74
480,45	1275,88
480,65	1253,36
480,85	1294,32
481,06	1236,97
481,26	1263,60
481,46	1314,80
481,66	1316,84
481,86	1296,36
482,06	1241,07
482,27	1230,83
482,47	1306,60
482,67	1249,26
482,87	1347,56
483,07	1294,32
483,28	1273,84
483,48	1302,51
483,68	1253,36
483,88	1341,42
484,08	1185,77
484,29	1296,36
484,49	1351,66
484,69	1275,88
484,89	1294,32
485,09	1300,46
485,29	1257,45
485,50	1363,95
485,70	1298,41
485,90	1249,26
486,10	1171,44
486,30	1282,03
486,50	1267,69
486,71	1279,98
486,91	1257,45
487,11	1290,22
487,31	1161,20
487,51	1249,26
487,71	1263,60
487,91	1282,03
488,12	1273,84
488,32	1273,84
488,52	1249,26
488,72	1312,75
488,92	1245,16
489,12	1284,08
489,32	1269,74
489,53	1241,07
489,73	1150,96
489,93	1259,50
490,13	1298,41
490,33	1277,93
490,53	1261,55
490,73	1230,83
490,94	1269,74
491,14	1255,40
491,34	1206,25
491,54	1302,51
491,74	1302,51
491,94	1275,88
492,14	1310,70
492,34	1290,22
492,54	1306,60
492,75	1298,41
492,95	1226,73
493,15	1273,84
493,35	1261,55
493,55	1226,73
493,75	1249,26
493,95	1241,07
494,15	1265,64
494,35	1290,22
494,56	1331,18
494,76	1279,98
494,96	1253,36
495,16	1284,08
495,36	1261,55
495,56	1257,45
495,76	1294,32
495,96	1290,22
496,16	1306,60
496,36	1275,88
496,56	1288,17
496,77	1261,55
496,97	1277,93
497,17	1306,60
497,37	1177,58
497,57	1306,60
497,77	1234,93
497,97	1159,15
498,17	1279,98
498,37	1277,93
498,57	1269,74
498,77	1273,84
498,97	1249,26
499,17	1275,88
499,38	1218,54
499,58	1331,18
499,78	1243,12
499,98	1298,41
500,18	1189,87
500,38	1306,60
500,58	1247,21
500,78	1247,21
500,98	1241,07
501,18	1310,70
501,38	1284,08
501,58	1226,73
501,78	1267,69
501,98	1273,84
502,18	1245,16
502,38	1267,69
502,58	1298,41
502,78	1261,55
502,98	1179,63
503,18	1302,51
503,38	1220,59
503,59	1279,98
503,79	1241,07
503,99	1282,03
504,19	1279,98
504,39	1249,26
504,59	1226,73
504,79	1279,98
504,99	1279,98
505,19	1294,32
505,39	1224,69
505,59	1331,18
505,79	1218,54
505,99	1198,06
506,19	1265,64
506,39	1306,60
506,59	1265,64
506,79	1263,60
506,99	1251,31
507,19	1279,98
507,39	1298,41
507,59	1310,70
507,79	1277,93
507,99	1236,97
508,19	1290,22
508,39	1261,55
508,59	1304,56
508,79	1204,21
508,99	1341,42
509,19	1259,50
509,39	1290,22
509,59	1239,02
509,79	1230,83
509,99	1265,64
510,19	1308,65
510,39	1306,60
510,59	1177,58
510,79	1279,98
510,99	1296,36
511,19	1216,49
511,39	1234,93
511,59	1183,73
511,79	1212,40
511,99	1259,50
512,19	1271,79
512,38	1359,85
512,58	1253,36
512,78	1208,30
512,98	1294,32
513,18	1253,36
513,38	1273,84
513,58	1288,17
513,78	1212,40
513,98	1220,59
514,18	1300,46
514,38	1298,41
514,58	1263,60
514,78	1224,69
514,98	1234,93
515,18	1265,64
515,38	1212,40
515,58	1255,40
515,78	1245,16
515,98	1257,45
516,18	1269,74
516,38	1286,12
516,57	1294,32
516,77	1228,78
516,97	1284,08
517,17	1304,56
517,37	1322,99
517,57	1214,45
517,77	1275,88
517,97	1275,88
518,17	1245,16
518,37	1271,79
518,57	1249,26
518,77	1232,88
518,97	1216,49
519,16	1267,69
519,36	1218,54
519,56	1282,03
519,76	1327,08
519,96	1259,50
520,16	1298,41
520,36	1234,93
520,56	1218,54
520,76	1206,25
520,96	1232,88
521,16	1288,17
521,35	1253,36
521,55	1267,69
521,75	1234,93
521,95	1298,41
522,15	1251,31
522,35	1226,73
522,55	1234,93
522,75	1261,55
522,95	1265,64
523,14	1220,59
523,34	1224,69
523,54	1325,04
523,74	1263,60
523,94	1218,54
524,14	1253,36
524,34	1298,41
524,54	1257,45
524,73	1212,40
524,93	1267,69
525,13	1253,36
525,33	1249,26
525,53	1327,08
525,73	1247,21
525,93	1245,16
526,13	1208,30
526,32	1273,84
526,52	1206,25
526,72	1329,13
526,92	1261,55
527,12	1257,45
527,32	1253,36
527,52	1333,23
527,71	1314,80
527,91	1271,79
528,11	1239,02
528,31	1230,83
528,51	1263,60
528,71	1312,75
528,90	1275,88
529,10	1234,93
529,30	1312,75
529,50	1259,50
529,70	1253,36
529,90	1314,80
530,09	1198,06
530,29	1241,07
530,49	1310,70
530,69	1316,84
530,89	1183,73
531,09	1271,79
531,28	1232,88
531,48	1325,04
531,68	1257,45
531,88	1265,64
532,08	1290,22
532,28	1314,80
532,47	1265,64
532,67	1353,71
532,87	1249,26
533,07	1220,59
533,27	1239,02
533,46	1327,08
533,66	1228,78
533,86	1243,12
534,06	1226,73
534,26	1275,88
534,45	1288,17
534,65	1292,27
534,85	1294,32
535,05	1257,45
535,25	1253,36
535,44	1318,89
535,64	1294,32
535,84	1265,64
536,04	1218,54
536,24	1249,26
536,43	1282,03
536,63	1277,93
536,83	1257,45
537,03	1386,47
537,22	1306,60
537,42	1333,23
537,62	1265,64
537,82	1288,17
538,02	1236,97
538,21	1241,07
538,41	1286,12
538,61	1327,08
538,81	1269,74
539,00	1292,27
539,20	1255,40
539,40	1284,08
539,60	1226,73
539,79	1191,92
539,99	1331,18
540,19	1236,97
540,39	1249,26
540,58	1277,93
540,78	1288,17
540,98	1310,70
541,18	1169,39
541,37	1275,88
541,57	1239,02
541,77	1230,83
541,97	1204,21
542,16	1183,73
542,36	1273,84
542,56	1263,60
542,76	1253,36
542,95	1308,65
543,15	1298,41
543,35	1296,36
543,54	1196,01
543,74	1282,03
543,94	1263,60
544,14	1224,69
544,33	1210,35
544,53	1259,50
544,73	1308,65
544,93	1298,41
545,12	1224,69
545,32	1232,88
545,52	1312,75
545,71	1269,74
545,91	1282,03
546,11	1271,79
546,30	1245,16
546,50	1234,93
546,70	1239,02
546,90	1290,22
547,09	1224,69
547,29	1275,88
547,49	1208,30
547,68	1247,21
547,88	1239,02
548,08	1220,59
548,27	1271,79
548,47	1220,59
548,67	1241,07
548,87	1271,79
549,06	1290,22
549,26	1279,98
549,46	1245,16
549,65	1298,41
549,85	1177,58
550,05	1294,32
550,24	1269,74
550,44	1249,26
550,64	1175,53
550,83	1271,79
551,03	1259,50
551,23	1200,11
551,42	1288,17
551,62	1259,50
551,82	1239,02
552,01	1222,64
552,21	1325,04
552,41	1257,45
552,60	1261,55
552,80	1232,88
553,00	1249,26
553,19	1259,50
553,39	1306,60
553,59	1294,32
553,78	1255,40
553,98	1214,45
554,17	1286,12
554,37	1251,31
554,57	1339,37
554,76	1226,73
554,96	1255,40
555,16	1247,21
555,35	1308,65
555,55	1273,84
555,75	1255,40
555,94	1224,69
556,14	1251,31
556,33	1230,83
556,53	1284,08
556,73	1259,50
556,92	1259,50
557,12	1349,61
557,32	1259,50
557,51	1292,27
557,71	1245,16
557,90	1253,36
558,10	1224,69
558,30	1265,64
558,49	1247,21
558,69	1267,69
558,88	1294,32
559,08	1273,84
559,28	1290,22
559,47	1234,93
559,67	1234,93
559,86	1236,97
560,06	1296,36
560,26	1236,97
560,45	1302,51
560,65	1277,93
560,84	1255,40
561,04	1218,54
561,24	1241,07
561,43	1255,40
561,63	1304,56
561,82	1228,78
562,02	1249,26
562,22	1255,40
562,41	1220,59
562,61	1279,98
562,80	1331,18
563,00	1257,45
563,19	1288,17
563,39	1304,56
563,59	1245,16
563,78	1314,80
563,98	1255,40
564,17	1277,93
564,37	1216,49
564,56	1273,84
564,76	1284,08
564,96	1277,93
565,15	1331,18
565,35	1273,84
565,54	1148,91
565,74	1220,59
565,93	1308,65
566,13	1214,45
566,32	1216,49
566,52	1335,28
566,71	1275,88
566,91	1275,88
567,11	1267,69
567,30	1247,21
567,50	1288,17
567,69	1241,07
567,89	1269,74
568,08	1312,75
568,28	1269,74
568,47	1325,04
568,67	1239,02
568,86	1267,69
569,06	1249,26
569,25	1224,69
569,45	1198,06
569,64	1288,17
569,84	1249,26
570,04	1300,46
570,23	1243,12
570,43	1331,18
570,62	1212,40
570,82	1374,19
571,01	1265,64
571,21	1234,93
571,40	1341,42
571,60	1325,04
571,79	1318,89
571,99	1277,93
572,18	1271,79
572,38	1232,88
572,57	1294,32
572,77	1288,17
572,96	1359,85
573,16	1245,16
573,35	1234,93
573,55	1234,93
573,74	1253,36
573,94	1320,94
574,13	1249,26
574,33	1228,78
574,52	1261,55
574,71	1245,16
574,91	1279,98
575,10	1247,21
575,30	1353,71
575,49	1247,21
575,69	1236,97
575,88	1351,66
576,08	1245,16
576,27	1277,93
576,47	1363,95
576,66	1361,90
576,86	1206,25
577,05	1296,36
577,25	1222,64
577,44	1273,84
577,64	1243,12
577,83	1175,53
578,02	1314,80
578,22	1298,41
578,41	1241,07
578,61	1271,79
578,80	1304,56
579,00	1259,50
579,19	1263,60
579,39	1284,08
579,58	1314,80
579,77	1310,70
579,97	1247,21
580,16	1257,45
580,36	1282,03
580,55	1310,70
580,75	1275,88
580,94	1255,40
581,13	1175,53
581,33	1294,32
581,52	1298,41
581,72	1216,49
581,91	1230,83
582,11	1241,07
582,30	1302,51
582,49	1286,12
582,69	1296,36
582,88	1316,84
583,08	1282,03
583,27	1251,31
583,47	1273,84
583,66	1236,97
583,85	1335,28
584,05	1302,51
584,24	1263,60
584,44	1261,55
584,63	1214,45
584,82	1212,40
585,02	1298,41
585,21	1279,98
585,41	1243,12
585,60	1249,26
585,79	1288,17
585,99	1329,13
586,18	1255,40
586,37	1302,51
586,57	1257,45
586,76	1300,46
586,96	1249,26
587,15	1304,56
587,34	1249,26
587,54	1327,08
587,73	1259,50
587,93	1257,45
588,12	1208,30
588,31	1273,84
588,51	1277,93
588,70	1277,93
588,89	1257,45
589,09	1222,64
589,28	1253,36
589,47	1308,65
589,67	1222,64
589,86	1318,89
590,06	1202,16
590,25	1243,12
590,44	1220,59
590,64	1279,98
590,83	1298,41
591,02	1312,75
591,22	1331,18
591,41	1304,56
591,60	1253,36
591,80	1232,88
591,99	1269,74
592,18	1249,26
592,38	1261,55
592,57	1292,27
592,76	1249,26
592,96	1314,80
593,15	1253,36
593,34	1259,50
593,54	1224,69
593,73	1331,18
593,92	1245,16
594,12	1282,03
594,31	1275,88
594,50	1269,74
594,70	1302,51
594,89	1290,22
595,08	1245,16
595,28	1263,60
595,47	1300,46
595,66	1286,12
595,86	1210,35
596,05	1294,32
596,24	1204,21
596,43	1286,12
596,63	1312,75
596,82	1316,84
597,01	1212,40
597,21	1294,32
597,40	1271,79
597,59	1286,12
597,79	1249,26
597,98	1234,93
598,17	1275,88
598,36	1298,41
598,56	1325,04
598,75	1275,88
598,94	1249,26
599,14	1282,03
599,33	1218,54
599,52	1290,22
599,71	1232,88
599,91	1273,84
600,10	1282,03
600,29	1312,75
600,48	1257,45
600,68	1400,81
600,87	1257,45
601,06	1296,36
601,26	1261,55
601,45	1218,54
601,64	1216,49
601,83	1290,22
602,03	1191,92
602,22	1267,69
602,41	1239,02
602,60	1277,93
602,80	1253,36
602,99	1267,69
603,18	1298,41
603,37	1230,83
603,57	1257,45
603,76	1286,12
603,95	1327,08
604,14	1236,97
604,34	1282,03
604,53	1284,08
604,72	1320,94
604,91	1316,84
605,10	1224,69
605,30	1239,02
605,49	1284,08
605,68	1316,84
605,87	1275,88
606,07	1261,55
606,26	1218,54
606,45	1245,16
606,64	1279,98
606,84	1282,03
607,03	1275,88
607,22	1216,49
607,41	1257,45
607,60	1249,26
607,80	1279,98
607,99	1257,45
608,18	1331,18
608,37	1279,98
608,56	1294,32
608,76	1236,97
608,95	1273,84
609,14	1298,41
609,33	1239,02
609,52	1298,41
609,72	1208,30
609,91	1343,47
610,10	1245,16
610,29	1308,65
610,48	1361,90
610,68	1279,98
610,87	1341,42
611,06	1255,40
611,25	1253,36
611,44	1310,70
611,63	1218,54
611,83	1243,12
612,02	1241,07
612,21	1308,65
612,40	1226,73
612,59	1228,78
612,79	1224,69
612,98	1306,60
613,17	1261,55
613,36	1232,88
613,55	1243,12
613,74	1228,78
613,93	1331,18
614,13	1249,26
614,32	1230,83
614,51	1265,64
614,70	1241,07
614,89	1247,21
615,08	1304,56
615,28	1327,08
615,47	1273,84
615,66	1300,46
615,85	1218,54
616,04	1241,07
616,23	1239,02
616,42	1286,12
616,62	1265,64
616,81	1271,79
617,00	1259,50
617,19	1294,32
617,38	1318,89
617,57	1236,97
617,76	1249,26
617,95	1273,84
618,15	1239,02
618,34	1251,31
618,53	1273,84
618,72	1261,55
618,91	1208,30
619,10	1292,27
619,29	1290,22
619,48	1253,36
619,68	1380,33
619,87	1322,99
620,06	1284,08
620,25	1206,25
620,44	1345,52
620,63	1243,12
620,82	1290,22
621,01	1249,26
621,20	1275,88
621,39	1228,78
621,59	1298,41
621,78	1312,75
621,97	1282,03
622,16	1353,71
622,35	1279,98
622,54	1277,93
622,73	1257,45
622,92	1306,60
623,11	1271,79
623,30	1228,78
623,49	1159,15
623,68	1173,49
623,88	1261,55
624,07	1267,69
624,26	1325,04
624,45	1251,31
624,64	1241,07
624,83	1304,56
625,02	1257,45
625,21	1241,07
625,40	1271,79
625,59	1302,51
625,78	1230,83
625,97	1325,04
626,16	1202,16
626,35	1261,55
626,54	1310,70
626,74	1208,30
626,93	1275,88
627,12	1249,26
627,31	1224,69
627,50	1253,36
627,69	1339,37
627,88	1296,36
628,07	1290,22
628,26	1267,69
628,45	1277,93
628,64	1265,64
628,83	1271,79
629,02	1271,79
629,21	1220,59
629,40	1343,47
629,59	1269,74
629,78	1292,27
629,97	1310,70
630,16	1286,12
630,35	1282,03
630,54	1296,36
630,73	1251,31
630,92	1249,26
631,11	1322,99
631,30	1388,52
631,49	1339,37
631,68	1433,58
631,87	2326,49
632,06	5253,04
632,25	6928,28
632,44	13178,68
632,63	19857,10
632,82	35165,67
633,01	43865,44
633,20	24198,80
633,39	10303,33
633,58	4708,28
633,77	3710,92
633,96	3567,56
634,15	2818,00
634,34	2254,81
634,53	2170,85
634,72	2125,79
634,91	1941,47
635,10	1755,11
635,29	1806,31
635,48	1849,32
635,67	1781,73
635,86	1609,70
636,05	1601,51
636,24	1511,40
636,43	1542,12
636,62	1531,88
636,81	1511,40
637,00	1445,87
637,19	1445,87
637,38	1484,78
637,57	1361,90
637,76	1415,15
637,95	1413,10
638,14	1376,24
638,33	1429,48
638,52	1351,66
638,71	1267,69
638,89	1277,93
639,08	1249,26
639,27	1316,84
639,46	1232,88
639,65	1361,90
639,84	1279,98
640,03	1284,08
640,22	1243,12
640,41	1355,76
640,60	1267,69
640,79	1267,69
640,98	1279,98
641,17	1349,61
641,36	1265,64
641,55	1296,36
641,74	1337,32
641,92	1366,00
642,11	1273,84
642,30	1329,13
642,49	1243,12
642,68	1249,26
642,87	1259,50
643,06	1335,28
643,25	1284,08
643,44	1255,40
643,63	1286,12
643,82	1327,08
644,00	1267,69
644,19	1312,75
644,38	1269,74
644,57	1226,73
644,76	1347,56
644,95	1196,01
645,14	1275,88
645,33	1306,60
645,52	1275,88
645,71	1255,40
645,89	1263,60
646,08	1273,84
646,27	1245,16
646,46	1327,08
646,65	1296,36
646,84	1189,87
647,03	1216,49
647,22	1341,42
647,40	1269,74
647,59	1269,74
647,78	1226,73
647,97	1239,02
648,16	1308,65
648,35	1304,56
648,54	1234,93
648,73	1279,98
648,91	1331,18
649,10	1241,07
649,29	1214,45
649,48	1255,40
649,67	1243,12
649,86	1206,25
650,05	1333,23
650,23	1171,44
650,42	1179,63
650,61	1288,17
650,80	1273,84
650,99	1329,13
651,18	1271,79
651,36	1273,84
651,55	1302,51
651,74	1263,60
651,93	1243,12
652,12	1288,17
652,31	1273,84
652,49	1304,56
652,68	1306,60
652,87	1290,22
653,06	1282,03
653,25	1300,46
653,44	1275,88
653,62	1296,36
653,81	1267,69
654,00	1298,41
654,19	1247,21
654,38	1288,17
654,56	1308,65
654,75	1275,88
654,94	1249,26
655,13	1310,70
655,32	1298,41
655,51	1304,56
655,69	1275,88
655,88	1259,50
656,07	1286,12
656,26	1296,36
656,45	1277,93
656,63	1204,21
656,82	1210,35
657,01	1271,79
657,20	1226,73
657,38	1343,47
657,57	1343,47
657,76	1253,36
657,95	1241,07
658,14	1257,45
658,32	1257,45
658,51	1345,52
658,70	1298,41
658,89	1206,25
659,08	1286,12
659,26	1230,83
659,45	1282,03
659,64	1271,79
659,83	1335,28
660,01	1312,75
660,20	1292,27
660,39	1341,42
660,58	1329,13
660,76	1224,69
660,95	1300,46
661,14	1277,93
661,33	1288,17
661,51	1275,88
661,70	1257,45
661,89	1257,45
662,08	1251,31
662,26	1308,65
662,45	1257,45
662,64	1247,21
662,83	1257,45
663,01	1265,64
663,20	1236,97
663,39	1253,36
663,58	1273,84
663,76	1294,32
663,95	1259,50
664,14	1253,36
664,32	1292,27
664,51	1208,30
664,70	1282,03
664,89	1239,02
665,07	1243,12
665,26	1269,74
665,45	1271,79
665,64	1282,03
665,82	1288,17
666,01	1161,20
666,20	1196,01
666,38	1273,84
666,57	1236,97
666,76	1306,60
666,95	1222,64
667,13	1265,64
667,32	1236,97
667,51	1306,60
667,69	1232,88
667,88	1239,02
668,07	1277,93
668,25	1224,69
668,44	1228,78
668,63	1286,12
668,81	1257,45
669,00	1290,22
669,19	1382,38
669,38	1310,70
669,56	1312,75
669,75	1325,04
669,94	1224,69
670,12	1224,69
670,31	1279,98
670,50	1320,94
670,68	1277,93
670,87	1232,88
671,06	1249,26
671,24	1310,70
671,43	1355,76
671,62	1241,07
671,80	1284,08
671,99	1335,28
672,18	1322,99
672,36	1234,93
672,55	1331,18
672,74	1306,60
672,92	1224,69
673,11	1249,26
673,29	1212,40
673,48	1255,40
673,67	1189,87
673,85	1269,74
674,04	1206,25
674,23	1263,60
674,41	1243,12
674,60	1259,50
674,79	1253,36
674,97	1277,93
675,16	1282,03
675,34	1282,03
675,53	1251,31
675,72	1271,79
675,90	1312,75
676,09	1265,64
676,28	1298,41
676,46	1200,11
676,65	1239,02
676,83	1290,22
677,02	1230,83
677,21	1277,93
677,39	1308,65
677,58	1306,60
677,77	1279,98
677,95	1304,56
678,14	1253,36
678,32	1255,40
678,51	1304,56
678,70	1325,04
678,88	1222,64
679,07	1335,28
679,25	1245,16
679,44	1255,40
679,63	1204,21
679,81	1239,02
680,00	1263,60
680,18	1284,08
680,37	1255,40
680,55	1218,54
680,74	1265,64
680,93	1310,70
681,11	1234,93
681,30	1302,51
681,48	1236,97
681,67	1267,69
681,85	1308,65
682,04	1339,37
682,23	1331,18
682,41	1302,51
682,60	1275,88
682,78	1222,64
682,97	1226,73
683,15	1298,41
683,34	1265,64
683,53	1327,08
683,71	1357,80
683,90	1304,56
684,08	1251,31
684,27	1294,32
684,45	1298,41
684,64	1300,46
684,82	1196,01
685,01	1224,69
685,19	1206,25
685,38	1290,22
685,57	1232,88
685,75	1247,21
685,94	1308,65
686,12	1290,22
686,31	1277,93
686,49	1292,27
686,68	1277,93
686,86	1282,03
687,05	1230,83
687,23	1286,12
687,42	1359,85
687,60	1257,45
687,79	1306,60
687,97	1279,98
688,16	1269,74
688,34	1288,17
688,53	1300,46
688,71	1241,07
688,90	1282,03
689,08	1236,97
689,27	1302,51
689,45	1308,65
689,64	1247,21
689,82	1322,99
690,01	1288,17
690,19	1220,59
690,38	1259,50
690,56	1230,83
690,75	1222,64
690,93	1220,59
691,12	1265,64
691,30	1245,16
691,49	1282,03
691,67	1320,94
691,86	1286,12
692,04	1275,88
692,23	1191,92
692,41	1290,22
692,60	1247,21
692,78	1263,60
692,97	1212,40
693,15	1345,52
693,34	1333,23
693,52	1261,55
693,71	1339,37
693,89	1308,65
694,08	1212,40
694,26	1349,61
694,44	1273,84
694,63	1322,99
694,81	1263,60
695,00	1236,97
695,18	1255,40
695,37	1245,16
695,55	1257,45
695,74	1249,26
695,92	1351,66
696,10	1275,88
696,29	1296,36
696,47	1239,02
696,66	1304,56
696,84	1198,06
697,03	1251,31
697,21	1275,88
697,40	1259,50
697,58	1333,23
697,76	1267,69
697,95	1298,41
698,13	1277,93
698,32	1310,70
698,50	1257,45
698,68	1216,49
698,87	1269,74
699,05	1304,56
699,24	1286,12
699,42	1243,12
699,61	1255,40
699,79	1279,98
699,97	1267,69
700,16	1267,69
700,34	1212,40
700,53	1273,84
700,71	1247,21
700,89	1329,13
701,08	1273,84
701,26	1257,45
701,45	1339,37
701,63	1200,11
701,81	1234,93
702,00	1288,17
702,18	1263,60
702,37	1335,28
702,55	1146,86
702,73	1247,21
702,92	1214,45
703,10	1298,41
703,28	1273,84
703,47	1277,93
703,65	1284,08
703,84	1294,32
704,02	1294,32
704,20	1259,50
704,39	1234,93
704,57	1273,84
704,75	1322,99
704,94	1269,74
705,12	1239,02
705,30	1212,40
705,49	1286,12
705,67	1286,12
705,86	1261,55
706,04	1243,12
706,22	1247,21
706,41	1308,65
706,59	1208,30
706,77	1296,36
706,96	1290,22
707,14	1261,55
707,32	1273,84
707,51	1282,03
707,69	1302,51
707,87	1282,03
708,06	1183,73
708,24	1312,75
708,42	1277,93
708,61	1257,45
708,79	1263,60
708,97	1265,64
709,16	1263,60
709,34	1273,84
709,52	1290,22
709,71	1224,69
709,89	1230,83
710,07	1259,50
710,26	1232,88
710,44	1273,84
710,62	1308,65
710,80	1261,55
710,99	1230,83
711,17	1269,74
711,35	1273,84
711,54	1249,26
711,72	1226,73
711,90	1322,99
712,09	1259,50
712,27	1249,26
712,45	1232,88
712,63	1298,41
712,82	1325,04
713,00	1296,36
713,18	1282,03
713,37	1241,07
713,55	1259,50
713,73	1322,99
713,91	1204,21
714,10	1273,84
714,28	1232,88
714,46	1261,55
714,65	1259,50
714,83	1255,40
715,01	1279,98
715,19	1259,50
715,38	1277,93
715,56	1263,60
715,74	1251,31
715,92	1243,12
716,11	1298,41
716,29	1275,88
716,47	1284,08
716,65	1292,27
716,84	1263,60
717,02	1333,23
717,20	1351,66
717,38	1249,26
717,57	1331,18
717,75	1314,80
717,93	1257,45
718,11	1239,02
718,30	1271,79
718,48	1302,51
718,66	1314,80
718,84	1282,03
719,03	1255,40
719,21	1255,40
719,39	1318,89
719,57	1306,60
719,75	1267,69
719,94	1298,41
720,12	1320,94
720,30	1296,36
720,48	1290,22
720,67	1300,46
720,85	1230,83
721,03	1208,30
721,21	1234,93
721,39	1279,98
721,58	1320,94
721,76	1325,04
721,94	1271,79
722,12	1232,88
722,30	1312,75
722,49	1288,17
722,67	1279,98
722,85	1198,06
723,03	1241,07
723,21	1267,69
723,40	1300,46
723,58	1255,40
723,76	1267,69
723,94	1265,64
724,12	1271,79
724,30	1273,84
724,49	1261,55
724,67	1216,49
724,85	1275,88
725,03	1245,16
725,21	1310,70
725,40	1255,40
725,58	1265,64
725,76	1259,50
725,94	1261,55
726,12	1265,64
726,30	1257,45
726,49	1263,60
726,67	1304,56
726,85	1282,03
727,03	1275,88
727,21	1279,98
727,39	1230,83
727,57	1261,55
727,76	1296,36
727,94	1255,40
728,12	1247,21
728,30	1290,22
728,48	1306,60
728,66	1306,60
728,84	1249,26
729,03	1277,93
729,21	1230,83
729,39	1271,79
729,57	1267,69
729,75	1275,88
729,93	1236,97
730,11	1239,02
730,30	1247,21
730,48	1253,36
730,66	1222,64
730,84	1265,64
731,02	1257,45
731,20	1230,83
731,38	1179,63
731,56	1247,21
731,74	1316,84
731,93	1282,03
732,11	1181,68
732,29	1267,69
732,47	1243,12
732,65	1273,84
732,83	1226,73
733,01	1273,84
733,19	1255,40
733,37	1308,65
733,56	1253,36
733,74	1273,84
733,92	1198,06
734,10	1228,78
734,28	1259,50
734,46	1273,84
734,64	1298,41
734,82	1253,36
735,00	1271,79
735,18	1224,69
735,36	1214,45
735,54	1234,93
735,73	1222,64
735,91	1335,28
736,09	1261,55
736,27	1228,78
736,45	1253,36
736,63	1251,31
736,81	1277,93
736,99	1318,89
737,17	1275,88
737,35	1228,78
737,53	1347,56
737,71	1224,69
737,89	1298,41
738,07	1361,90
738,25	1232,88
738,43	1236,97
738,61	1214,45
738,80	1337,32
738,98	1271,79
739,16	1290,22
739,34	1271,79
739,52	1265,64
739,70	1232,88
739,88	1214,45
740,06	1298,41
740,24	1198,06
740,42	1267,69
740,60	1288,17
740,78	1212,40
740,96	1216,49
741,14	1294,32
741,32	1220,59
741,50	1257,45
741,68	1343,47
741,86	1249,26
742,04	1247,21
742,22	1286,12
742,40	1220,59
742,58	1239,02
742,76	1273,84
742,94	1267,69
743,12	1335,28
743,30	1282,03
743,48	1298,41
743,66	1296,36
743,84	1327,08
744,02	1245,16
744,20	1232,88
744,38	1290,22
744,56	1300,46
744,74	1191,92
744,92	1234,93
745,10	1265,64
745,28	1230,83
745,46	1261,55
745,64	1339,37
745,82	1245,16
746,00	1167,34
746,18	1273,84
746,36	1220,59
746,54	1249,26
746,72	1236,97
746,90	1241,07
747,08	1279,98
747,26	1279,98
747,44	1310,70
747,62	1314,80
747,80	1226,73
747,98	1255,40
748,15	1300,46
748,33	1220,59
748,51	1322,99
748,69	1263,60
748,87	1329,13
749,05	1300,46
749,23	1302,51
749,41	1232,88
749,59	1241,07
749,77	1249,26
749,95	1232,88
750,13	1284,08
750,31	1216,49
750,49	1253,36
750,67	1241,07
750,85	1214,45
751,03	1243,12
751,20	1290,22
751,38	1263,60
751,56	1259,50
751,74	1220,59
751,92	1247,21
752,10	1304,56
752,28	1288,17
752,46	1292,27
752,64	1327,08
752,82	1198,06
753,00	1275,88
753,18	1271,79
753,35	1265,64
753,53	1298,41
753,71	1318,89
753,89	1245,16
754,07	1224,69
754,25	1191,92
754,43	1259,50
754,61	1261,55
754,79	1259,50
754,97	1253,36
755,14	1300,46
755,32	1273,84
755,50	1234,93
755,68	1243,12
755,86	1261,55
756,04	1226,73
756,22	1230,83
756,40	1286,12
756,57	1322,99
756,75	1267,69
756,93	1290,22
757,11	1288,17
757,29	1292,27
757,47	1212,40
757,65	1286,12
757,82	1196,01
758,00	1249,26
758,18	1253,36
758,36	1284,08
758,54	1263,60
758,72	1312,75
758,90	1279,98
759,07	1277,93
759,25	1247,21
759,43	1220,59
759,61	1236,97
759,79	1255,40
759,97	1341,42
760,15	1191,92
760,32	1279,98
760,50	1200,11
760,68	1314,80
760,86	1271,79
761,04	1265,64
761,22	1241,07
761,39	1310,70
761,57	1282,03
761,75	1212,40
761,93	1288,17
762,11	1329,13
762,28	1298,41
762,46	1247,21
762,64	1298,41
762,82	1312,75
763,00	1259,50
763,18	1239,02
763,35	1292,27
763,53	1329,13
763,71	1306,60
763,89	1331,18
764,07	1241,07
764,24	1247,21
764,42	1318,89
764,60	1239,02
764,78	1267,69
764,96	1267,69
765,13	1273,84
765,31	1284,08
765,49	1204,21
765,67	1259,50
765,84	1327,08
766,02	1185,77
766,20	1234,93
766,38	1312,75
766,56	1202,16
766,73	1320,94
766,91	1185,77
767,09	1204,21
767,27	1279,98
767,44	1277,93
767,62	1224,69
767,80	1269,74
767,98	1286,12
768,15	1273,84
768,33	1277,93
768,51	1216,49
768,69	1232,88
768,87	1249,26
769,04	1292,27
769,22	1241,07
769,40	1222,64
769,58	1271,79
769,75	1316,84
769,93	1304,56
770,11	1249,26
770,28	1232,88
770,46	1284,08
770,64	1294,32
770,82	1247,21
770,99	1294,32
771,17	1243,12
771,35	1277,93
771,53	1230,83
771,70	1292,27
771,88	1222,64
772,06	1290,22
772,23	1304,56
772,41	1265,64
772,59	1279,98
772,77	1329,13
772,94	1253,36
773,12	1245,16
773,30	1296,36
773,47	1236,97
773,65	1218,54
773,83	1249,26
774,01	1300,46
774,18	1267,69
774,36	1193,97
774,54	1286,12
774,71	1269,74
774,89	1282,03
775,07	1239,02
775,24	1230,83
775,42	1241,07
775,60	1263,60
775,78	1234,93
775,95	1316,84
776,13	1218,54
776,31	1222,64
776,48	1245,16
776,66	1255,40
776,84	1232,88
777,01	1298,41
777,19	1189,87
777,37	1292,27
777,54	1265,64
777,72	1320,94
777,90	1257,45
778,07	1284,08
778,25	1312,75
778,43	1318,89
778,60	1288,17
778,78	1196,01
778,96	1257,45
779,13	1269,74
779,31	1204,21
779,49	1298,41
779,66	1234,93
779,84	1294,32
780,01	1273,84
780,19	1267,69
780,37	1275,88
780,54	1298,41
780,72	1249,26
780,90	1220,59
781,07	1236,97
781,25	1226,73
781,43	1261,55
781,60	1273,84
781,78	1259,50
781,95	1275,88
782,13	1286,12
782,31	1273,84
782,48	1187,82
782,66	1308,65
782,83	1261,55
783,01	1210,35
783,19	1322,99
783,36	1312,75
783,54	1312,75
783,72	1202,16
783,89	1232,88
784,07	1230,83
784,24	1271,79
784,42	1226,73
784,60	1286,12
784,77	1218,54
784,95	1247,21
785,12	1304,56
785,30	1298,41
785,47	1224,69
785,65	1257,45
785,83	1253,36
786,00	1239,02
786,18	1267,69
786,35	1226,73
786,53	1296,36
786,71	1232,88
786,88	1210,35
787,06	1224,69
787,23	1228,78
787,41	1198,06
787,58	1212,40
787,76	1294,32
787,94	1245,16
788,11	1234,93
788,29	1288,17
788,46	1249,26
788,64	1222,64
788,81	1294,32
788,99	1214,45
789,16	1220,59
789,34	1255,40
789,52	1193,97
789,69	1339,37
789,87	1245,16
790,04	1267,69
790,22	1351,66
790,39	1302,51
790,57	1212,40
790,74	1239,02
790,92	1263,60
791,09	1243,12
791,27	1302,51
791,44	1271,79
791,62	1241,07
791,79	1271,79
791,97	1277,93
792,15	1300,46
792,32	1294,32
792,50	1247,21
792,67	1230,83
792,85	1269,74
793,02	1259,50
793,20	1271,79
793,37	1267,69
793,55	1376,24
793,72	1306,60
793,90	1343,47
794,07	1314,80
794,25	1279,98
794,42	1298,41
794,60	1212,40
794,77	1220,59
794,95	1296,36
795,12	1320,94
795,30	1294,32
795,47	1271,79
795,65	1269,74
795,82	1296,36
796,00	1273,84
796,17	1331,18
796,34	1243,12
796,52	1316,84
796,69	1271,79
796,87	1232,88
797,04	1226,73
797,22	1290,22
797,39	1306,60
797,57	1267,69
797,74	1294,32
797,92	1284,08
798,09	1282,03
798,27	1335,28
798,44	1183,73
798,62	1290,22
798,79	1249,26
798,96	1308,65
799,14	1163,25
799,31	1286,12
799,49	1337,32
799,66	1290,22
799,84	1273,84
800,01	1310,70
800,19	1296,36
800,36	1331,18
800,53	1243,12
800,71	1298,41
800,88	1277,93
801,06	1259,50
801,23	1245,16
801,41	1232,88
801,58	1298,41
801,75	1269,74
801,93	1275,88
802,10	1312,75
802,28	1279,98
802,45	1214,45
802,63	1306,60
802,80	1257,45
802,97	1210,35
803,15	1308,65
803,32	1249,26
803,50	1271,79
803,67	1206,25
803,84	1247,21
804,02	1300,46
804,19	1261,55
804,37	1277,93
804,54	1245,16
804,71	1214,45
804,89	1236,97
805,06	1308,65
805,24	1261,55
805,41	1165,29
805,58	1265,64
805,76	1265,64
805,93	1226,73
806,10	1320,94
806,28	1232,88
806,45	1263,60
806,63	1273,84
806,80	1271,79
806,97	1290,22
807,15	1163,25
807,32	1277,93
807,49	1298,41
807,67	1277,93
807,84	1314,80
808,01	1245,16
808,19	1282,03
808,36	1279,98
808,54	1259,50
808,71	1298,41
808,88	1208,30
809,06	1239,02
809,23	1322,99
809,40	1306,60
809,58	1331,18
809,75	1249,26
809,92	1312,75
810,10	1271,79
810,27	1271,79
810,44	1304,56
810,62	1304,56
810,79	1183,73
810,96	1351,66
811,14	1216,49
811,31	1282,03
811,48	1263,60
811,66	1273,84
811,83	1251,31
812,00	1312,75
812,18	1241,07
812,35	1282,03
812,52	1259,50
812,69	1269,74
812,87	1325,04
813,04	1263,60
813,21	1290,22
813,39	1318,89
813,56	1261,55
813,73	1282,03
813,91	1282,03
814,08	1302,51
814,25	1296,36
814,42	1267,69
814,60	1249,26
814,77	1239,02
814,94	1304,56
815,12	1249,26
815,29	1247,21
815,46	1296,36
815,63	1257,45
815,81	1286,12
815,98	1296,36
816,15	1279,98
816,33	1298,41
816,50	1318,89
816,67	1282,03
816,84	1284,08
817,02	1257,45
817,19	1275,88
817,36	1255,40
817,53	1286,12
817,71	1253,36
817,88	1257,45
818,05	1255,40
818,22	1279,98
818,40	1279,98
818,57	1249,26
818,74	1298,41
818,91	1296,36
819,09	1226,73
819,26	1337,32
819,43	1265,64
819,60	1355,76
819,78	1271,79
819,95	1290,22
820,12	1253,36
820,29	1263,60
820,47	1245,16
820,64	1249,26
820,81	1269,74
820,98	1261,55
821,15	1290,22
821,33	1282,03
821,50	1290,22
821,67	1259,50
821,84	1191,92
822,02	1271,79
822,19	1261,55
822,36	1282,03
822,53	1290,22
822,70	1263,60
822,88	1171,44
823,05	1265,64
823,22	1302,51
823,39	1271,79
823,56	1288,17
823,74	1279,98
823,91	1294,32
824,08	1255,40
824,25	1267,69
824,42	1279,98
824,60	1259,50
824,77	1273,84
824,94	1284,08
825,11	1300,46
825,28	1267,69
825,45	1251,31
825,63	1224,69
825,80	1261,55
825,97	1277,93
826,14	1335,28
826,31	1306,60
826,48	1329,13
826,66	1298,41
826,83	1218,54
827,00	1255,40
827,17	1193,97
827,34	1320,94
827,51	1314,80
827,69	1236,97
827,86	1271,79
828,03	1200,11
828,20	1282,03
828,37	1261,55
828,54	1255,40
828,71	1333,23
828,89	1241,07
829,06	1279,98
829,23	1193,97
829,40	1206,25
829,57	1239,02
829,74	1296,36
829,91	1265,64
830,09	1224,69
830,26	1253,36
830,43	1245,16
830,60	1226,73
830,77	1265,64
830,94	1255,40
831,11	1286,12
831,28	1245,16
831,46	1304,56
831,63	1261,55
831,80	1312,75
831,97	1275,88
832,14	1212,40
832,31	1173,49
832,48	1216,49
832,65	1282,03
832,82	1243,12
832,99	1261,55
833,17	1261,55
833,34	1263,60
833,51	1294,32
833,68	1263,60
833,85	1210,35
834,02	1261,55
834,19	1222,64
834,36	1339,37
834,53	1267,69
834,70	1265,64
834,87	1282,03
835,04	1206,25
835,22	1204,21
835,39	1222,64
835,56	1284,08
835,73	1263,60
835,90	1335,28
836,07	1312,75
836,24	1191,92
836,41	1300,46
836,58	1191,92
836,75	1273,84
836,92	1286,12
837,09	1306,60
837,26	1273,84
837,43	1226,73
837,60	1228,78
837,77	1208,30
837,94	1236,97
838,12	1279,98
838,29	1275,88
838,46	1363,95
838,63	1284,08
838,80	1259,50
838,97	1245,16
839,14	1314,80
839,31	1335,28
839,48	1263,60
839,65	1234,93
839,82	1325,04
839,99	1333,23
840,16	1249,26
840,33	1265,64
840,50	1316,84
840,67	1271,79
840,84	1296,36
841,01	1251,31
841,18	1298,41
841,35	1234,93
841,52	1282,03
841,69	1288,17
841,86	1277,93
842,03	1351,66
842,20	1302,51
842,37	1259,50
842,54	1320,94
842,71	1216,49
842,88	1228,78
843,05	1296,36
843,22	1232,88
843,39	1255,40
843,56	1243,12
843,73	1335,28
843,90	1304,56
844,07	1261,55
844,24	1304,56
844,41	1247,21
844,58	1282,03
844,75	1259,50
844,92	1243,12
845,09	1286,12
845,26	1275,88
845,43	1257,45
845,60	1263,60
845,77	1230,83
845,94	1243,12
846,10	1302,51
846,27	1294,32
846,44	1198,06
846,61	1220,59
846,78	1155,05
846,95	1277,93
847,12	1318,89
847,29	1318,89
847,46	1320,94
847,63	1204,21
847,80	1259,50
847,97	1273,84
848,14	1177,58
848,31	1189,87
848,48	1232,88
848,65	1241,07
848,82	1255,40
848,98	1275,88
849,15	1275,88
849,32	1247,21
849,49	1232,88
849,66	1288,17
849,83	1200,11
850,00	1361,90
850,17	1286,12
850,34	1251,31
850,51	1210,35
850,68	1349,61
850,85	1282,03
851,01	1284,08
851,18	1318,89
851,35	1261,55
851,52	1318,89
851,69	1284,08
851,86	1200,11
852,03	1249,26
852,20	1318,89
852,37	1302,51
852,53	1310,70
852,70	1263,60
852,87	1306,60
853,04	1296,36
853,21	1159,15
853,38	1327,08
853,55	1265,64
853,72	1325,04
853,89	1253,36
854,05	1175,53
854,22	1308,65
854,39	1298,41
854,56	1286,12
854,73	1318,89
854,90	1239,02
855,07	1265,64
855,23	1249,26
855,40	1206,25
855,57	1271,79
855,74	1232,88
855,91	1253,36
856,08	1310,70
856,25	1204,21
856,41	1320,94
856,58	1224,69
856,75	1263,60
856,92	1216,49
857,09	1298,41
857,26	1222,64
857,42	1306,60
857,59	1337,32
857,76	1253,36
857,93	1261,55
858,10	1241,07
858,27	1165,29
858,43	1236,97
858,60	1265,64
858,77	1259,50
858,94	1275,88
859,11	1314,80
859,27	1322,99
859,44	1253,36
859,61	1275,88
859,78	1286,12
859,95	1316,84
860,12	1183,73
860,28	1245,16
860,45	1251,31
860,62	1282,03
860,79	1251,31
860,95	1284,08
861,12	1267,69
861,29	1318,89
861,46	1265,64
861,63	1230,83
861,79	1171,44
861,96	1224,69
862,13	1265,64
862,30	1288,17
862,47	1241,07
862,63	1204,21
862,80	1263,60
862,97	1247,21
863,14	1247,21
863,30	1232,88
863,47	1234,93
863,64	1275,88
863,81	1304,56
863,97	1230,83
864,14	1228,78
864,31	1277,93
864,48	1279,98
864,65	1271,79
864,81	1214,45
864,98	1261,55
865,15	1202,16
865,32	1269,74
865,48	1255,40
865,65	1253,36
865,82	1249,26
865,98	1279,98
866,15	1230,83
866,32	1302,51
866,49	1208,30
866,65	1245,16
866,82	1275,88
866,99	1243,12
867,16	1220,59
867,32	1220,59
867,49	1294,32
867,66	1263,60
867,83	1308,65
867,99	1269,74
868,16	1284,08
868,33	1292,27
868,49	1200,11
868,66	1263,60
868,83	1296,36
868,99	1284,08
869,16	1300,46
869,33	1198,06
869,50	1312,75
869,66	1245,16
869,83	1322,99
870,00	1261,55
870,16	1210,35
870,33	1261,55
870,50	1279,98
870,66	1269,74
870,83	1232,88
871,00	1284,08
871,17	1284,08
871,33	1269,74
871,50	1271,79
871,67	1359,85
871,83	1263,60
872,00	1202,16
872,17	1314,80
872,33	1224,69
872,50	1179,63
872,67	1271,79
872,83	1325,04
873,00	1337,32
873,17	1288,17
873,33	1304,56
873,50	1234,93
873,67	1230,83
873,83	1239,02
874,00	1284,08
874,16	1247,21
874,33	1236,97
874,50	1308,65
874,66	1294,32
874,83	1286,12
875,00	1265,64
875,16	1234,93
875,33	1302,51
875,50	1282,03
875,66	1259,50
875,83	1306,60
875,99	1251,31
876,16	1243,12
876,33	1275,88
876,49	1255,40
876,66	1249,26
876,83	1329,13
876,99	1279,98
877,16	1234,93
877,32	1243,12
877,49	1257,45
877,66	1261,55
877,82	1327,08
877,99	1298,41
878,15	1300,46
878,32	1277,93
878,49	1265,64
878,65	1273,84
878,82	1269,74
878,98	1290,22
879,15	1228,78
879,32	1279,98
879,48	1345,52
879,65	1271,79
879,81	1339,37
879,98	1261,55
880,15	1314,80
880,31	1241,07
880,48	1279,98
880,64	1284,08
880,81	1239,02
880,97	1255,40
881,14	1220,59
881,31	1259,50
881,47	1286,12
881,64	1351,66
881,80	1298,41
881,97	1263,60
882,13	1261,55
882,30	1200,11
882,47	1306,60
882,63	1294,32
882,80	1316,84
882,96	1306,60
883,13	1253,36
883,29	1275,88
883,46	1216,49
883,62	1241,07
883,79	1314,80
883,95	1204,21
884,12	1288,17
884,29	1284,08
884,45	1288,17
884,62	1249,26
884,78	1277,93
884,95	1228,78
885,11	1318,89
885,28	1292,27
885,44	1263,60
885,61	1273,84
885,77	1222,64
885,94	1300,46
886,10	1265,64
886,27	1292,27
886,43	1259,50
886,60	1292,27
886,76	1255,40
886,93	1251,31
887,09	1277,93
887,26	1243,12
887,42	1245,16
887,59	1230,83
887,75	1267,69
887,92	1187,82
888,08	1241,07
888,25	1230,83
888,41	1236,97
888,58	1308,65
888,74	1294,32
888,91	1269,74
>>>>>End Processed Spectral Data<<<<<
