SpectraSuite Data File
++++++++++++++++++++++++++++++++++++
Date: Sun Apr 03 15:42:34 CEST 2016
User: root
Dark Spectrum Present: No
Reference Spectrum Present: No
Number of Sampled Component Spectra: 1
Spectrometers: USB4C02835
Integration Time (usec): 10000 (USB4C02835)
Spectra Averaged: 1 (USB4C02835)
Boxcar Smoothing: 0 (USB4C02835)
Correct for Electrical Dark: No (USB4C02835)
Strobe/Lamp Enabled: No (USB4C02835)
Correct for Detector Non-linearity: No (USB4C02835)
Correct for Stray Light: No (USB4C02835)
Number of Pixels in Processed Spectrum: 3648
>>>>>Begin Processed Spectral Data<<<<<
177,47	1220,59
177,69	1220,59
177,91	1220,59
178,13	1267,69
178,36	1247,21
178,58	1257,45
178,80	1288,17
179,02	1284,08
179,24	1314,80
179,46	1349,61
179,68	1298,41
179,90	1271,79
180,13	1249,26
180,35	1273,84
180,57	1290,22
180,79	1267,69
181,01	1298,41
181,23	1310,70
181,45	1253,36
181,67	1257,45
181,90	1304,56
182,12	1290,22
182,34	1288,17
182,56	1245,16
182,78	1243,12
183,00	1294,32
183,22	1284,08
183,44	1316,84
183,66	1279,98
183,89	1366,00
184,11	1251,31
184,33	1273,84
184,55	1224,69
184,77	1279,98
184,99	1230,83
185,21	1251,31
185,43	1279,98
185,65	1210,35
185,87	1271,79
186,10	1282,03
186,32	1318,89
186,54	1157,10
186,76	1325,04
186,98	1288,17
187,20	1331,18
187,42	1322,99
187,64	1282,03
187,86	1241,07
188,08	1279,98
188,30	1257,45
188,52	1306,60
188,75	1312,75
188,97	1249,26
189,19	1302,51
189,41	1243,12
189,63	1214,45
189,85	1251,31
190,07	1279,98
190,29	1236,97
190,51	1249,26
190,73	1284,08
190,95	1347,56
191,17	1220,59
191,39	1261,55
191,61	1263,60
191,84	1275,88
192,06	1265,64
192,28	1241,07
192,50	1329,13
192,72	1277,93
192,94	1290,22
193,16	1220,59
193,38	1314,80
193,60	1284,08
193,82	1320,94
194,04	1277,93
194,26	1302,51
194,48	1239,02
194,70	1277,93
194,92	1208,30
195,14	1294,32
195,36	1265,64
195,58	1277,93
195,80	1230,83
196,02	1267,69
196,24	1253,36
196,46	1255,40
196,69	1374,19
196,91	1271,79
197,13	1267,69
197,35	1255,40
197,57	1298,41
197,79	1255,40
198,01	1337,32
198,23	1306,60
198,45	1310,70
198,67	1263,60
198,89	1269,74
199,11	1259,50
199,33	1249,26
199,55	1314,80
199,77	1226,73
199,99	1314,80
200,21	1304,56
200,43	1279,98
200,65	1361,90
200,87	1296,36
201,09	1298,41
201,31	1257,45
201,53	1316,84
201,75	1263,60
201,97	1259,50
202,19	1304,56
202,41	1290,22
202,63	1355,76
202,85	1312,75
203,07	1218,54
203,29	1298,41
203,51	1304,56
203,73	1296,36
203,95	1208,30
204,17	1218,54
204,39	1273,84
204,61	1193,97
204,83	1275,88
205,05	1263,60
205,27	1265,64
205,49	1263,60
205,71	1236,97
205,93	1208,30
206,15	1232,88
206,37	1290,22
206,59	1261,55
206,81	1286,12
207,03	1232,88
207,25	1279,98
207,47	1251,31
207,69	1196,01
207,91	1218,54
208,13	1241,07
208,34	1226,73
208,56	1228,78
208,78	1198,06
209,00	1271,79
209,22	1308,65
209,44	1314,80
209,66	1308,65
209,88	1368,04
210,10	1288,17
210,32	1271,79
210,54	1300,46
210,76	1279,98
210,98	1236,97
211,20	1275,88
211,42	1253,36
211,64	1251,31
211,86	1257,45
212,08	1247,21
212,30	1247,21
212,52	1234,93
212,74	1282,03
212,96	1236,97
213,17	1286,12
213,39	1257,45
213,61	1247,21
213,83	1288,17
214,05	1253,36
214,27	1228,78
214,49	1210,35
214,71	1253,36
214,93	1220,59
215,15	1273,84
215,37	1253,36
215,59	1257,45
215,81	1249,26
216,03	1249,26
216,24	1259,50
216,46	1290,22
216,68	1269,74
216,90	1325,04
217,12	1286,12
217,34	1263,60
217,56	1386,47
217,78	1263,60
218,00	1257,45
218,22	1296,36
218,44	1253,36
218,66	1300,46
218,87	1325,04
219,09	1196,01
219,31	1329,13
219,53	1286,12
219,75	1232,88
219,97	1302,51
220,19	1347,56
220,41	1204,21
220,63	1204,21
220,85	1292,27
221,06	1171,44
221,28	1257,45
221,50	1275,88
221,72	1269,74
221,94	1308,65
222,16	1322,99
222,38	1288,17
222,60	1322,99
222,82	1292,27
223,03	1241,07
223,25	1267,69
223,47	1263,60
223,69	1304,56
223,91	1245,16
224,13	1241,07
224,35	1224,69
224,57	1243,12
224,78	1296,36
225,00	1357,80
225,22	1253,36
225,44	1355,76
225,66	1288,17
225,88	1253,36
226,10	1214,45
226,32	1304,56
226,53	1232,88
226,75	1304,56
226,97	1279,98
227,19	1249,26
227,41	1275,88
227,63	1312,75
227,85	1277,93
228,06	1232,88
228,28	1296,36
228,50	1263,60
228,72	1302,51
228,94	1241,07
229,16	1224,69
229,37	1247,21
229,59	1267,69
229,81	1286,12
230,03	1257,45
230,25	1228,78
230,47	1296,36
230,69	1249,26
230,90	1300,46
231,12	1284,08
231,34	1282,03
231,56	1265,64
231,78	1269,74
232,00	1378,28
232,21	1269,74
232,43	1359,85
232,65	1253,36
232,87	1263,60
233,09	1247,21
233,30	1218,54
233,52	1275,88
233,74	1277,93
233,96	1202,16
234,18	1273,84
234,40	1204,21
234,61	1339,37
234,83	1349,61
235,05	1384,43
235,27	1196,01
235,49	1275,88
235,70	1249,26
235,92	1316,84
236,14	1245,16
236,36	1282,03
236,58	1269,74
236,79	1341,42
237,01	1228,78
237,23	1210,35
237,45	1273,84
237,67	1320,94
237,88	1277,93
238,10	1261,55
238,32	1259,50
238,54	1214,45
238,76	1173,49
238,97	1300,46
239,19	1200,11
239,41	1286,12
239,63	1232,88
239,85	1255,40
240,06	1212,40
240,28	1306,60
240,50	1216,49
240,72	1198,06
240,93	1273,84
241,15	1263,60
241,37	1247,21
241,59	1322,99
241,81	1165,29
242,02	1322,99
242,24	1216,49
242,46	1290,22
242,68	1232,88
242,89	1320,94
243,11	1310,70
243,33	1204,21
243,55	1181,68
243,76	1337,32
243,98	1288,17
244,20	1298,41
244,42	1243,12
244,64	1339,37
244,85	1210,35
245,07	1208,30
245,29	1275,88
245,51	1269,74
245,72	1202,16
245,94	1265,64
246,16	1284,08
246,38	1361,90
246,59	1183,73
246,81	1263,60
247,03	1187,82
247,24	1230,83
247,46	1228,78
247,68	1277,93
247,90	1177,58
248,11	1345,52
248,33	1267,69
248,55	1185,77
248,77	1236,97
248,98	1306,60
249,20	1214,45
249,42	1279,98
249,64	1263,60
249,85	1306,60
250,07	1236,97
250,29	1220,59
250,50	1290,22
250,72	1302,51
250,94	1265,64
251,16	1302,51
251,37	1294,32
251,59	1282,03
251,81	1282,03
252,02	1239,02
252,24	1234,93
252,46	1314,80
252,68	1208,30
252,89	1279,98
253,11	1220,59
253,33	1292,27
253,54	1261,55
253,76	1265,64
253,98	1230,83
254,20	1267,69
254,41	1349,61
254,63	1300,46
254,85	1177,58
255,06	1312,75
255,28	1308,65
255,50	1282,03
255,71	1318,89
255,93	1220,59
256,15	1257,45
256,36	1308,65
256,58	1296,36
256,80	1279,98
257,02	1288,17
257,23	1216,49
257,45	1265,64
257,67	1265,64
257,88	1247,21
258,10	1273,84
258,32	1261,55
258,53	1206,25
258,75	1255,40
258,97	1243,12
259,18	1249,26
259,40	1294,32
259,62	1267,69
259,83	1181,68
260,05	1331,18
260,27	1347,56
260,48	1247,21
260,70	1202,16
260,92	1245,16
261,13	1294,32
261,35	1300,46
261,57	1345,52
261,78	1236,97
262,00	1376,24
262,22	1230,83
262,43	1251,31
262,65	1271,79
262,86	1296,36
263,08	1267,69
263,30	1206,25
263,51	1198,06
263,73	1239,02
263,95	1314,80
264,16	1267,69
264,38	1302,51
264,60	1294,32
264,81	1267,69
265,03	1202,16
265,25	1296,36
265,46	1284,08
265,68	1265,64
265,89	1259,50
266,11	1339,37
266,33	1243,12
266,54	1351,66
266,76	1212,40
266,98	1255,40
267,19	1341,42
267,41	1322,99
267,62	1232,88
267,84	1185,77
268,06	1273,84
268,27	1296,36
268,49	1208,30
268,70	1253,36
268,92	1306,60
269,14	1245,16
269,35	1245,16
269,57	1243,12
269,79	1220,59
270,00	1279,98
270,22	1232,88
270,43	1302,51
270,65	1294,32
270,87	1226,73
271,08	1189,87
271,30	1279,98
271,51	1306,60
271,73	1243,12
271,95	1253,36
272,16	1230,83
272,38	1296,36
272,59	1298,41
272,81	1239,02
273,02	1312,75
273,24	1306,60
273,46	1279,98
273,67	1302,51
273,89	1282,03
274,10	1269,74
274,32	1308,65
274,54	1247,21
274,75	1198,06
274,97	1263,60
275,18	1279,98
275,40	1294,32
275,61	1263,60
275,83	1353,71
276,05	1345,52
276,26	1216,49
276,48	1251,31
276,69	1304,56
276,91	1368,04
277,12	1308,65
277,34	1300,46
277,55	1271,79
277,77	1269,74
277,99	1206,25
278,20	1245,16
278,42	1292,27
278,63	1341,42
278,85	1269,74
279,06	1263,60
279,28	1286,12
279,49	1314,80
279,71	1236,97
279,93	1302,51
280,14	1245,16
280,36	1298,41
280,57	1228,78
280,79	1261,55
281,00	1296,36
281,22	1290,22
281,43	1253,36
281,65	1210,35
281,86	1247,21
282,08	1255,40
282,29	1241,07
282,51	1282,03
282,73	1239,02
282,94	1265,64
283,16	1333,23
283,37	1243,12
283,59	1251,31
283,80	1286,12
284,02	1259,50
284,23	1282,03
284,45	1257,45
284,66	1236,97
284,88	1337,32
285,09	1200,11
285,31	1308,65
285,52	1306,60
285,74	1282,03
285,95	1269,74
286,17	1239,02
286,38	1187,82
286,60	1298,41
286,81	1243,12
287,03	1267,69
287,24	1341,42
287,46	1267,69
287,67	1251,31
287,89	1279,98
288,10	1259,50
288,32	1269,74
288,53	1206,25
288,75	1312,75
288,96	1202,16
289,18	1251,31
289,39	1275,88
289,61	1304,56
289,82	1265,64
290,04	1290,22
290,25	1187,82
290,47	1286,12
290,68	1339,37
290,90	1273,84
291,11	1255,40
291,33	1253,36
291,54	1263,60
291,76	1247,21
291,97	1259,50
292,18	1304,56
292,40	1212,40
292,61	1335,28
292,83	1298,41
293,04	1331,18
293,26	1232,88
293,47	1230,83
293,69	1255,40
293,90	1267,69
294,12	1243,12
294,33	1273,84
294,55	1239,02
294,76	1331,18
294,97	1290,22
295,19	1263,60
295,40	1249,26
295,62	1314,80
295,83	1279,98
296,05	1247,21
296,26	1263,60
296,48	1275,88
296,69	1279,98
296,90	1277,93
297,12	1282,03
297,33	1290,22
297,55	1241,07
297,76	1243,12
297,98	1236,97
298,19	1208,30
298,41	1284,08
298,62	1273,84
298,83	1357,80
299,05	1302,51
299,26	1253,36
299,48	1290,22
299,69	1224,69
299,90	1228,78
300,12	1314,80
300,33	1226,73
300,55	1253,36
300,76	1314,80
300,98	1224,69
301,19	1331,18
301,40	1228,78
301,62	1312,75
301,83	1308,65
302,05	1261,55
302,26	1269,74
302,47	1263,60
302,69	1234,93
302,90	1286,12
303,12	1247,21
303,33	1304,56
303,54	1302,51
303,76	1255,40
303,97	1304,56
304,19	1318,89
304,40	1257,45
304,61	1292,27
304,83	1265,64
305,04	1230,83
305,26	1214,45
305,47	1251,31
305,68	1236,97
305,90	1331,18
306,11	1282,03
306,33	1284,08
306,54	1269,74
306,75	1222,64
306,97	1187,82
307,18	1292,27
307,39	1236,97
307,61	1249,26
307,82	1288,17
308,04	1224,69
308,25	1261,55
308,46	1329,13
308,68	1314,80
308,89	1300,46
309,10	1265,64
309,32	1261,55
309,53	1286,12
309,74	1249,26
309,96	1290,22
310,17	1257,45
310,39	1271,79
310,60	1282,03
310,81	1259,50
311,03	1282,03
311,24	1298,41
311,45	1279,98
311,67	1255,40
311,88	1355,76
312,09	1218,54
312,31	1300,46
312,52	1249,26
312,73	1249,26
312,95	1390,57
313,16	1241,07
313,37	1267,69
313,59	1277,93
313,80	1263,60
314,01	1298,41
314,23	1253,36
314,44	1339,37
314,65	1230,83
314,87	1265,64
315,08	1320,94
315,29	1310,70
315,51	1265,64
315,72	1239,02
315,93	1316,84
316,15	1284,08
316,36	1220,59
316,57	1296,36
316,79	1316,84
317,00	1273,84
317,21	1247,21
317,43	1214,45
317,64	1265,64
317,85	1159,15
318,07	1255,40
318,28	1255,40
318,49	1241,07
318,70	1259,50
318,92	1245,16
319,13	1294,32
319,34	1257,45
319,56	1247,21
319,77	1165,29
319,98	1302,51
320,20	1273,84
320,41	1329,13
320,62	1318,89
320,83	1243,12
321,05	1267,69
321,26	1191,92
321,47	1277,93
321,69	1245,16
321,90	1255,40
322,11	1349,61
322,32	1249,26
322,54	1322,99
322,75	1232,88
322,96	1329,13
323,18	1263,60
323,39	1191,92
323,60	1271,79
323,81	1279,98
324,03	1265,64
324,24	1288,17
324,45	1296,36
324,66	1271,79
324,88	1255,40
325,09	1189,87
325,30	1302,51
325,52	1306,60
325,73	1347,56
325,94	1247,21
326,15	1210,35
326,37	1245,16
326,58	1306,60
326,79	1224,69
327,00	1230,83
327,22	1220,59
327,43	1282,03
327,64	1310,70
327,85	1259,50
328,07	1230,83
328,28	1232,88
328,49	1318,89
328,70	1282,03
328,92	1224,69
329,13	1226,73
329,34	1277,93
329,55	1304,56
329,76	1292,27
329,98	1290,22
330,19	1271,79
330,40	1312,75
330,61	1265,64
330,83	1339,37
331,04	1306,60
331,25	1292,27
331,46	1298,41
331,68	1216,49
331,89	1310,70
332,10	1322,99
332,31	1271,79
332,52	1241,07
332,74	1255,40
332,95	1247,21
333,16	1259,50
333,37	1216,49
333,58	1259,50
333,80	1306,60
334,01	1173,49
334,22	1306,60
334,43	1306,60
334,64	1275,88
334,86	1230,83
335,07	1296,36
335,28	1284,08
335,49	1224,69
335,70	1232,88
335,92	1284,08
336,13	1279,98
336,34	1236,97
336,55	1329,13
336,76	1241,07
336,98	1218,54
337,19	1312,75
337,40	1294,32
337,61	1273,84
337,82	1298,41
338,04	1351,66
338,25	1200,11
338,46	1265,64
338,67	1343,47
338,88	1253,36
339,09	1302,51
339,31	1200,11
339,52	1282,03
339,73	1279,98
339,94	1253,36
340,15	1333,23
340,36	1261,55
340,58	1269,74
340,79	1286,12
341,00	1267,69
341,21	1212,40
341,42	1271,79
341,63	1212,40
341,85	1357,80
342,06	1302,51
342,27	1269,74
342,48	1269,74
342,69	1253,36
342,90	1279,98
343,12	1322,99
343,33	1169,39
343,54	1257,45
343,75	1314,80
343,96	1265,64
344,17	1282,03
344,38	1247,21
344,60	1267,69
344,81	1234,93
345,02	1325,04
345,23	1261,55
345,44	1222,64
345,65	1353,71
345,86	1271,79
346,07	1327,08
346,29	1304,56
346,50	1363,95
346,71	1241,07
346,92	1257,45
347,13	1257,45
347,34	1277,93
347,55	1269,74
347,76	1241,07
347,98	1234,93
348,19	1318,89
348,40	1261,55
348,61	1245,16
348,82	1277,93
349,03	1253,36
349,24	1343,47
349,45	1232,88
349,66	1277,93
349,88	1292,27
350,09	1282,03
350,30	1251,31
350,51	1366,00
350,72	1251,31
350,93	1208,30
351,14	1249,26
351,35	1296,36
351,56	1191,92
351,77	1239,02
351,99	1236,97
352,20	1320,94
352,41	1275,88
352,62	1236,97
352,83	1247,21
353,04	1296,36
353,25	1300,46
353,46	1230,83
353,67	1261,55
353,88	1290,22
354,09	1245,16
354,30	1255,40
354,52	1259,50
354,73	1286,12
354,94	1253,36
355,15	1300,46
355,36	1308,65
355,57	1218,54
355,78	1243,12
355,99	1247,21
356,20	1271,79
356,41	1255,40
356,62	1232,88
356,83	1273,84
357,04	1220,59
357,25	1288,17
357,46	1255,40
357,68	1331,18
357,89	1236,97
358,10	1331,18
358,31	1296,36
358,52	1275,88
358,73	1329,13
358,94	1251,31
359,15	1216,49
359,36	1245,16
359,57	1255,40
359,78	1290,22
359,99	1275,88
360,20	1265,64
360,41	1374,19
360,62	1275,88
360,83	1341,42
361,04	1308,65
361,25	1257,45
361,46	1345,52
361,67	1277,93
361,88	1302,51
362,09	1216,49
362,30	1345,52
362,51	1239,02
362,72	1286,12
362,93	1292,27
363,14	1335,28
363,35	1288,17
363,56	1267,69
363,78	1267,69
363,99	1263,60
364,20	1279,98
364,41	1347,56
364,62	1214,45
364,83	1286,12
365,04	1245,16
365,25	1251,31
365,46	1265,64
365,67	1302,51
365,88	1243,12
366,09	1243,12
366,30	1271,79
366,51	1230,83
366,72	1265,64
366,93	1279,98
367,14	1267,69
367,35	1290,22
367,56	1282,03
367,77	1253,36
367,98	1255,40
368,18	1314,80
368,39	1247,21
368,60	1239,02
368,81	1318,89
369,02	1239,02
369,23	1222,64
369,44	1337,32
369,65	1216,49
369,86	1318,89
370,07	1234,93
370,28	1210,35
370,49	1261,55
370,70	1269,74
370,91	1193,97
371,12	1212,40
371,33	1230,83
371,54	1314,80
371,75	1273,84
371,96	1312,75
372,17	1239,02
372,38	1322,99
372,59	1267,69
372,80	1271,79
373,01	1210,35
373,22	1277,93
373,43	1282,03
373,64	1239,02
373,85	1218,54
374,06	1234,93
374,26	1277,93
374,47	1273,84
374,68	1249,26
374,89	1337,32
375,10	1208,30
375,31	1226,73
375,52	1255,40
375,73	1320,94
375,94	1236,97
376,15	1269,74
376,36	1306,60
376,57	1222,64
376,78	1304,56
376,99	1259,50
377,20	1265,64
377,40	1273,84
377,61	1249,26
377,82	1339,37
378,03	1351,66
378,24	1239,02
378,45	1290,22
378,66	1269,74
378,87	1236,97
379,08	1294,32
379,29	1298,41
379,50	1310,70
379,71	1267,69
379,91	1288,17
380,12	1273,84
380,33	1331,18
380,54	1322,99
380,75	1249,26
380,96	1282,03
381,17	1214,45
381,38	1236,97
381,59	1265,64
381,80	1282,03
382,00	1320,94
382,21	1355,76
382,42	1282,03
382,63	1284,08
382,84	1286,12
383,05	1204,21
383,26	1236,97
383,47	1234,93
383,68	1286,12
383,88	1255,40
384,09	1273,84
384,30	1290,22
384,51	1337,32
384,72	1261,55
384,93	1165,29
385,14	1245,16
385,35	1247,21
385,55	1222,64
385,76	1339,37
385,97	1165,29
386,18	1226,73
386,39	1314,80
386,60	1257,45
386,81	1277,93
387,02	1279,98
387,22	1214,45
387,43	1245,16
387,64	1257,45
387,85	1351,66
388,06	1271,79
388,27	1277,93
388,48	1267,69
388,68	1253,36
388,89	1279,98
389,10	1263,60
389,31	1198,06
389,52	1267,69
389,73	1271,79
389,93	1288,17
390,14	1265,64
390,35	1259,50
390,56	1183,73
390,77	1253,36
390,98	1200,11
391,18	1282,03
391,39	1294,32
391,60	1306,60
391,81	1261,55
392,02	1261,55
392,23	1249,26
392,43	1261,55
392,64	1267,69
392,85	1273,84
393,06	1273,84
393,27	1290,22
393,47	1271,79
393,68	1282,03
393,89	1279,98
394,10	1236,97
394,31	1294,32
394,52	1279,98
394,72	1239,02
394,93	1257,45
395,14	1210,35
395,35	1212,40
395,56	1245,16
395,76	1308,65
395,97	1255,40
396,18	1325,04
396,39	1273,84
396,60	1302,51
396,80	1220,59
397,01	1304,56
397,22	1216,49
397,43	1306,60
397,64	1329,13
397,84	1267,69
398,05	1325,04
398,26	1329,13
398,47	1265,64
398,67	1288,17
398,88	1300,46
399,09	1288,17
399,30	1200,11
399,51	1265,64
399,71	1269,74
399,92	1296,36
400,13	1247,21
400,34	1296,36
400,54	1353,71
400,75	1216,49
400,96	1357,80
401,17	1314,80
401,37	1245,16
401,58	1282,03
401,79	1241,07
402,00	1236,97
402,21	1269,74
402,41	1271,79
402,62	1318,89
402,83	1279,98
403,04	1279,98
403,24	1241,07
403,45	1310,70
403,66	1329,13
403,87	1251,31
404,07	1296,36
404,28	1236,97
404,49	1337,32
404,70	1245,16
404,90	1249,26
405,11	1376,24
405,32	1236,97
405,52	1257,45
405,73	1269,74
405,94	1361,90
406,15	1361,90
406,35	1241,07
406,56	1296,36
406,77	1253,36
406,98	1261,55
407,18	1271,79
407,39	1286,12
407,60	1267,69
407,80	1249,26
408,01	1249,26
408,22	1230,83
408,43	1286,12
408,63	1290,22
408,84	1404,91
409,05	1279,98
409,25	1265,64
409,46	1294,32
409,67	1249,26
409,88	1251,31
410,08	1282,03
410,29	1304,56
410,50	1318,89
410,70	1298,41
410,91	1316,84
411,12	1339,37
411,32	1218,54
411,53	1273,84
411,74	1239,02
411,95	1239,02
412,15	1212,40
412,36	1277,93
412,57	1216,49
412,77	1239,02
412,98	1322,99
413,19	1265,64
413,39	1306,60
413,60	1331,18
413,81	1263,60
414,01	1312,75
414,22	1275,88
414,43	1247,21
414,63	1255,40
414,84	1212,40
415,05	1312,75
415,25	1282,03
415,46	1294,32
415,67	1249,26
415,87	1269,74
416,08	1290,22
416,29	1286,12
416,49	1222,64
416,70	1208,30
416,91	1181,68
417,11	1322,99
417,32	1288,17
417,53	1271,79
417,73	1282,03
417,94	1196,01
418,15	1249,26
418,35	1306,60
418,56	1304,56
418,77	1306,60
418,97	1271,79
419,18	1185,77
419,38	1275,88
419,59	1249,26
419,80	1284,08
420,00	1308,65
420,21	1183,73
420,42	1222,64
420,62	1300,46
420,83	1191,92
421,04	1275,88
421,24	1255,40
421,45	1347,56
421,65	1277,93
421,86	1300,46
422,07	1239,02
422,27	1337,32
422,48	1265,64
422,69	1279,98
422,89	1288,17
423,10	1294,32
423,30	1253,36
423,51	1232,88
423,72	1286,12
423,92	1290,22
424,13	1275,88
424,33	1265,64
424,54	1247,21
424,75	1206,25
424,95	1224,69
425,16	1247,21
425,36	1257,45
425,57	1325,04
425,78	1271,79
425,98	1298,41
426,19	1292,27
426,39	1253,36
426,60	1308,65
426,81	1312,75
427,01	1282,03
427,22	1265,64
427,42	1290,22
427,63	1261,55
427,83	1198,06
428,04	1282,03
428,25	1282,03
428,45	1370,09
428,66	1273,84
428,86	1222,64
429,07	1255,40
429,28	1273,84
429,48	1263,60
429,69	1282,03
429,89	1249,26
430,10	1183,73
430,30	1265,64
430,51	1255,40
430,71	1236,97
430,92	1214,45
431,13	1255,40
431,33	1318,89
431,54	1210,35
431,74	1286,12
431,95	1263,60
432,15	1273,84
432,36	1243,12
432,56	1249,26
432,77	1314,80
432,98	1284,08
433,18	1284,08
433,39	1241,07
433,59	1255,40
433,80	1267,69
434,00	1271,79
434,21	1261,55
434,41	1251,31
434,62	1312,75
434,82	1261,55
435,03	1300,46
435,23	1261,55
435,44	1286,12
435,64	1263,60
435,85	1261,55
436,06	1239,02
436,26	1220,59
436,47	1312,75
436,67	1271,79
436,88	1277,93
437,08	1226,73
437,29	1269,74
437,49	1300,46
437,70	1284,08
437,90	1232,88
438,11	1243,12
438,31	1191,92
438,52	1325,04
438,72	1269,74
438,93	1247,21
439,13	1193,97
439,34	1292,27
439,54	1259,50
439,75	1322,99
439,95	1306,60
440,16	1310,70
440,36	1253,36
440,57	1261,55
440,77	1318,89
440,98	1255,40
441,18	1255,40
441,39	1286,12
441,59	1322,99
441,80	1241,07
442,00	1212,40
442,21	1290,22
442,41	1247,21
442,62	1271,79
442,82	1234,93
443,02	1245,16
443,23	1259,50
443,43	1382,38
443,64	1286,12
443,84	1314,80
444,05	1331,18
444,25	1275,88
444,46	1318,89
444,66	1271,79
444,87	1273,84
445,07	1253,36
445,28	1257,45
445,48	1263,60
445,69	1253,36
445,89	1265,64
446,09	1249,26
446,30	1314,80
446,50	1273,84
446,71	1255,40
446,91	1222,64
447,12	1312,75
447,32	1193,97
447,53	1239,02
447,73	1269,74
447,93	1314,80
448,14	1261,55
448,34	1212,40
448,55	1239,02
448,75	1232,88
448,96	1331,18
449,16	1290,22
449,36	1304,56
449,57	1275,88
449,77	1300,46
449,98	1286,12
450,18	1267,69
450,39	1298,41
450,59	1257,45
450,79	1273,84
451,00	1282,03
451,20	1234,93
451,41	1230,83
451,61	1218,54
451,81	1269,74
452,02	1290,22
452,22	1271,79
452,43	1284,08
452,63	1273,84
452,84	1239,02
453,04	1277,93
453,24	1255,40
453,45	1218,54
453,65	1286,12
453,86	1261,55
454,06	1271,79
454,26	1345,52
454,47	1294,32
454,67	1308,65
454,87	1251,31
455,08	1220,59
455,28	1275,88
455,49	1251,31
455,69	1265,64
455,89	1263,60
456,10	1255,40
456,30	1294,32
456,51	1228,78
456,71	1259,50
456,91	1306,60
457,12	1292,27
457,32	1271,79
457,52	1251,31
457,73	1243,12
457,93	1232,88
458,14	1290,22
458,34	1249,26
458,54	1279,98
458,75	1288,17
458,95	1298,41
459,15	1265,64
459,36	1196,01
459,56	1314,80
459,76	1245,16
459,97	1314,80
460,17	1279,98
460,37	1296,36
460,58	1212,40
460,78	1261,55
460,99	1234,93
461,19	1273,84
461,39	1296,36
461,60	1304,56
461,80	1318,89
462,00	1224,69
462,21	1359,85
462,41	1298,41
462,61	1234,93
462,82	1267,69
463,02	1241,07
463,22	1239,02
463,43	1230,83
463,63	1288,17
463,83	1314,80
464,04	1247,21
464,24	1294,32
464,44	1339,37
464,64	1314,80
464,85	1241,07
465,05	1292,27
465,25	1306,60
465,46	1279,98
465,66	1232,88
465,86	1314,80
466,07	1284,08
466,27	1259,50
466,47	1302,51
466,68	1327,08
466,88	1302,51
467,08	1290,22
467,29	1320,94
467,49	1314,80
467,69	1308,65
467,89	1224,69
468,10	1329,13
468,30	1267,69
468,50	1222,64
468,71	1292,27
468,91	1271,79
469,11	1249,26
469,31	1181,68
469,52	1282,03
469,72	1265,64
469,92	1298,41
470,13	1263,60
470,33	1284,08
470,53	1253,36
470,73	1257,45
470,94	1302,51
471,14	1263,60
471,34	1318,89
471,54	1251,31
471,75	1304,56
471,95	1304,56
472,15	1282,03
472,36	1322,99
472,56	1296,36
472,76	1290,22
472,96	1202,16
473,17	1230,83
473,37	1251,31
473,57	1345,52
473,77	1179,63
473,98	1216,49
474,18	1222,64
474,38	1277,93
474,58	1292,27
474,79	1257,45
474,99	1341,42
475,19	1312,75
475,39	1298,41
475,60	1286,12
475,80	1261,55
476,00	1253,36
476,20	1249,26
476,41	1372,14
476,61	1366,00
476,81	1236,97
477,01	1261,55
477,21	1316,84
477,42	1363,95
477,62	1204,21
477,82	1265,64
478,02	1232,88
478,23	1220,59
478,43	1232,88
478,63	1302,51
478,83	1249,26
479,03	1269,74
479,24	1232,88
479,44	1269,74
479,64	1286,12
479,84	1259,50
480,04	1249,26
480,25	1320,94
480,45	1239,02
480,65	1222,64
480,85	1214,45
481,06	1265,64
481,26	1329,13
481,46	1312,75
481,66	1304,56
481,86	1282,03
482,06	1302,51
482,27	1320,94
482,47	1294,32
482,67	1284,08
482,87	1247,21
483,07	1259,50
483,28	1243,12
483,48	1224,69
483,68	1255,40
483,88	1288,17
484,08	1234,93
484,29	1239,02
484,49	1255,40
484,69	1241,07
484,89	1224,69
485,09	1269,74
485,29	1265,64
485,50	1318,89
485,70	1212,40
485,90	1292,27
486,10	1241,07
486,30	1292,27
486,50	1290,22
486,71	1279,98
486,91	1304,56
487,11	1343,47
487,31	1216,49
487,51	1304,56
487,71	1253,36
487,91	1255,40
488,12	1236,97
488,32	1286,12
488,52	1230,83
488,72	1310,70
488,92	1218,54
489,12	1271,79
489,32	1251,31
489,53	1263,60
489,73	1216,49
489,93	1300,46
490,13	1251,31
490,33	1296,36
490,53	1310,70
490,73	1263,60
490,94	1220,59
491,14	1241,07
491,34	1361,90
491,54	1288,17
491,74	1251,31
491,94	1247,21
492,14	1214,45
492,34	1200,11
492,54	1318,89
492,75	1232,88
492,95	1249,26
493,15	1259,50
493,35	1304,56
493,55	1222,64
493,75	1310,70
493,95	1216,49
494,15	1249,26
494,35	1296,36
494,56	1239,02
494,76	1339,37
494,96	1245,16
495,16	1329,13
495,36	1261,55
495,56	1333,23
495,76	1224,69
495,96	1241,07
496,16	1265,64
496,36	1343,47
496,56	1286,12
496,77	1273,84
496,97	1263,60
497,17	1288,17
497,37	1220,59
497,57	1247,21
497,77	1224,69
497,97	1284,08
498,17	1198,06
498,37	1257,45
498,57	1314,80
498,77	1275,88
498,97	1316,84
499,17	1314,80
499,38	1282,03
499,58	1310,70
499,78	1308,65
499,98	1257,45
500,18	1273,84
500,38	1261,55
500,58	1247,21
500,78	1282,03
500,98	1337,32
501,18	1230,83
501,38	1247,21
501,58	1282,03
501,78	1236,97
501,98	1265,64
502,18	1306,60
502,38	1269,74
502,58	1300,46
502,78	1208,30
502,98	1339,37
503,18	1245,16
503,38	1200,11
503,59	1322,99
503,79	1320,94
503,99	1247,21
504,19	1300,46
504,39	1267,69
504,59	1241,07
504,79	1370,09
504,99	1273,84
505,19	1257,45
505,39	1294,32
505,59	1241,07
505,79	1218,54
505,99	1249,26
506,19	1312,75
506,39	1273,84
506,59	1259,50
506,79	1247,21
506,99	1290,22
507,19	1200,11
507,39	1212,40
507,59	1290,22
507,79	1290,22
507,99	1273,84
508,19	1316,84
508,39	1212,40
508,59	1245,16
508,79	1300,46
508,99	1316,84
509,19	1279,98
509,39	1277,93
509,59	1234,93
509,79	1261,55
509,99	1288,17
510,19	1288,17
510,39	1269,74
510,59	1202,16
510,79	1345,52
510,99	1353,71
511,19	1267,69
511,39	1294,32
511,59	1255,40
511,79	1265,64
511,99	1370,09
512,19	1304,56
512,38	1236,97
512,58	1218,54
512,78	1298,41
512,98	1230,83
513,18	1298,41
513,38	1243,12
513,58	1294,32
513,78	1337,32
513,98	1275,88
514,18	1257,45
514,38	1331,18
514,58	1257,45
514,78	1206,25
514,98	1247,21
515,18	1263,60
515,38	1247,21
515,58	1292,27
515,78	1343,47
515,98	1290,22
516,18	1314,80
516,38	1265,64
516,57	1222,64
516,77	1269,74
516,97	1257,45
517,17	1259,50
517,37	1271,79
517,57	1273,84
517,77	1259,50
517,97	1263,60
518,17	1198,06
518,37	1347,56
518,57	1279,98
518,77	1314,80
518,97	1267,69
519,16	1204,21
519,36	1232,88
519,56	1259,50
519,76	1316,84
519,96	1234,93
520,16	1218,54
520,36	1249,26
520,56	1279,98
520,76	1300,46
520,96	1320,94
521,16	1212,40
521,35	1310,70
521,55	1331,18
521,75	1234,93
521,95	1251,31
522,15	1329,13
522,35	1279,98
522,55	1232,88
522,75	1259,50
522,95	1230,83
523,14	1337,32
523,34	1261,55
523,54	1304,56
523,74	1220,59
523,94	1257,45
524,14	1247,21
524,34	1308,65
524,54	1290,22
524,73	1386,47
524,93	1306,60
525,13	1220,59
525,33	1282,03
525,53	1355,76
525,73	1202,16
525,93	1337,32
526,13	1327,08
526,32	1265,64
526,52	1273,84
526,72	1247,21
526,92	1304,56
527,12	1306,60
527,32	1314,80
527,52	1259,50
527,71	1257,45
527,91	1294,32
528,11	1378,28
528,31	1226,73
528,51	1263,60
528,71	1216,49
528,90	1288,17
529,10	1279,98
529,30	1230,83
529,50	1208,30
529,70	1249,26
529,90	1265,64
530,09	1202,16
530,29	1271,79
530,49	1261,55
530,69	1298,41
530,89	1333,23
531,09	1333,23
531,28	1196,01
531,48	1253,36
531,68	1232,88
531,88	1214,45
532,08	1290,22
532,28	1257,45
532,47	1316,84
532,67	1292,27
532,87	1216,49
533,07	1236,97
533,27	1333,23
533,46	1263,60
533,66	1325,04
533,86	1255,40
534,06	1312,75
534,26	1210,35
534,45	1236,97
534,65	1241,07
534,85	1304,56
535,05	1265,64
535,25	1320,94
535,44	1275,88
535,64	1292,27
535,84	1243,12
536,04	1241,07
536,24	1279,98
536,43	1282,03
536,63	1312,75
536,83	1318,89
537,03	1210,35
537,22	1257,45
537,42	1329,13
537,62	1290,22
537,82	1210,35
538,02	1257,45
538,21	1167,34
538,41	1333,23
538,61	1257,45
538,81	1312,75
539,00	1290,22
539,20	1302,51
539,40	1253,36
539,60	1222,64
539,79	1286,12
539,99	1357,80
540,19	1232,88
540,39	1245,16
540,58	1255,40
540,78	1253,36
540,98	1183,73
541,18	1286,12
541,37	1298,41
541,57	1302,51
541,77	1312,75
541,97	1263,60
542,16	1257,45
542,36	1230,83
542,56	1282,03
542,76	1230,83
542,95	1275,88
543,15	1257,45
543,35	1312,75
543,54	1273,84
543,74	1296,36
543,94	1302,51
544,14	1220,59
544,33	1335,28
544,53	1312,75
544,73	1318,89
544,93	1286,12
545,12	1232,88
545,32	1253,36
545,52	1226,73
545,71	1325,04
545,91	1282,03
546,11	1259,50
546,30	1163,25
546,50	1292,27
546,70	1312,75
546,90	1282,03
547,09	1292,27
547,29	1306,60
547,49	1253,36
547,68	1292,27
547,88	1261,55
548,08	1288,17
548,27	1277,93
548,47	1312,75
548,67	1210,35
548,87	1257,45
549,06	1249,26
549,26	1269,74
549,46	1251,31
549,65	1257,45
549,85	1234,93
550,05	1234,93
550,24	1277,93
550,44	1245,16
550,64	1241,07
550,83	1193,97
551,03	1341,42
551,23	1232,88
551,42	1239,02
551,62	1261,55
551,82	1380,33
552,01	1275,88
552,21	1243,12
552,41	1279,98
552,60	1249,26
552,80	1232,88
553,00	1234,93
553,19	1286,12
553,39	1294,32
553,59	1269,74
553,78	1239,02
553,98	1255,40
554,17	1290,22
554,37	1325,04
554,57	1312,75
554,76	1267,69
554,96	1220,59
555,16	1320,94
555,35	1288,17
555,55	1187,82
555,75	1255,40
555,94	1239,02
556,14	1292,27
556,33	1337,32
556,53	1218,54
556,73	1292,27
556,92	1306,60
557,12	1302,51
557,32	1290,22
557,51	1279,98
557,71	1316,84
557,90	1263,60
558,10	1212,40
558,30	1263,60
558,49	1232,88
558,69	1339,37
558,88	1304,56
559,08	1322,99
559,28	1261,55
559,47	1218,54
559,67	1251,31
559,86	1271,79
560,06	1245,16
560,26	1306,60
560,45	1216,49
560,65	1302,51
560,84	1263,60
561,04	1249,26
561,24	1333,23
561,43	1265,64
561,63	1275,88
561,82	1308,65
562,02	1241,07
562,22	1290,22
562,41	1275,88
562,61	1249,26
562,80	1265,64
563,00	1216,49
563,19	1257,45
563,39	1251,31
563,59	1284,08
563,78	1263,60
563,98	1251,31
564,17	1265,64
564,37	1259,50
564,56	1259,50
564,76	1224,69
564,96	1298,41
565,15	1222,64
565,35	1296,36
565,54	1284,08
565,74	1230,83
565,93	1243,12
566,13	1349,61
566,32	1320,94
566,52	1259,50
566,71	1294,32
566,91	1282,03
567,11	1290,22
567,30	1294,32
567,50	1310,70
567,69	1361,90
567,89	1261,55
568,08	1314,80
568,28	1251,31
568,47	1247,21
568,67	1241,07
568,86	1304,56
569,06	1239,02
569,25	1294,32
569,45	1249,26
569,64	1304,56
569,84	1282,03
570,04	1343,47
570,23	1210,35
570,43	1277,93
570,62	1288,17
570,82	1318,89
571,01	1222,64
571,21	1290,22
571,40	1249,26
571,60	1259,50
571,79	1294,32
571,99	1236,97
572,18	1241,07
572,38	1241,07
572,57	1220,59
572,77	1376,24
572,96	1243,12
573,16	1236,97
573,35	1275,88
573,55	1304,56
573,74	1302,51
573,94	1220,59
574,13	1257,45
574,33	1234,93
574,52	1294,32
574,71	1304,56
574,91	1292,27
575,10	1265,64
575,30	1275,88
575,49	1275,88
575,69	1255,40
575,88	1322,99
576,08	1251,31
576,27	1316,84
576,47	1232,88
576,66	1273,84
576,86	1239,02
577,05	1277,93
577,25	1292,27
577,44	1241,07
577,64	1273,84
577,83	1257,45
578,02	1222,64
578,22	1232,88
578,41	1286,12
578,61	1247,21
578,80	1320,94
579,00	1273,84
579,19	1247,21
579,39	1290,22
579,58	1347,56
579,77	1247,21
579,97	1300,46
580,16	1198,06
580,36	1288,17
580,55	1220,59
580,75	1308,65
580,94	1308,65
581,13	1249,26
581,33	1271,79
581,52	1245,16
581,72	1255,40
581,91	1230,83
582,11	1277,93
582,30	1253,36
582,49	1243,12
582,69	1296,36
582,88	1267,69
583,08	1269,74
583,27	1230,83
583,47	1206,25
583,66	1236,97
583,85	1290,22
584,05	1314,80
584,24	1284,08
584,44	1191,92
584,63	1200,11
584,82	1241,07
585,02	1282,03
585,21	1304,56
585,41	1284,08
585,60	1239,02
585,79	1267,69
585,99	1296,36
586,18	1253,36
586,37	1232,88
586,57	1236,97
586,76	1304,56
586,96	1230,83
587,15	1239,02
587,34	1271,79
587,54	1286,12
587,73	1361,90
587,93	1339,37
588,12	1257,45
588,31	1245,16
588,51	1286,12
588,70	1222,64
588,89	1239,02
589,09	1206,25
589,28	1239,02
589,47	1294,32
589,67	1267,69
589,86	1294,32
590,06	1210,35
590,25	1263,60
590,44	1308,65
590,64	1314,80
590,83	1308,65
591,02	1257,45
591,22	1269,74
591,41	1290,22
591,60	1236,97
591,80	1282,03
591,99	1304,56
592,18	1298,41
592,38	1355,76
592,57	1214,45
592,76	1286,12
592,96	1292,27
593,15	1292,27
593,34	1294,32
593,54	1232,88
593,73	1298,41
593,92	1200,11
594,12	1284,08
594,31	1220,59
594,50	1347,56
594,70	1261,55
594,89	1271,79
595,08	1261,55
595,28	1198,06
595,47	1257,45
595,66	1282,03
595,86	1230,83
596,05	1302,51
596,24	1308,65
596,43	1316,84
596,63	1251,31
596,82	1298,41
597,01	1247,21
597,21	1251,31
597,40	1251,31
597,59	1255,40
597,79	1271,79
597,98	1339,37
598,17	1279,98
598,36	1288,17
598,56	1263,60
598,75	1290,22
598,94	1200,11
599,14	1282,03
599,33	1241,07
599,52	1290,22
599,71	1284,08
599,91	1282,03
600,10	1288,17
600,29	1277,93
600,48	1236,97
600,68	1263,60
600,87	1257,45
601,06	1329,13
601,26	1306,60
601,45	1302,51
601,64	1261,55
601,83	1257,45
602,03	1218,54
602,22	1210,35
602,41	1261,55
602,60	1355,76
602,80	1226,73
602,99	1255,40
603,18	1253,36
603,37	1363,95
603,57	1341,42
603,76	1306,60
603,95	1308,65
604,14	1325,04
604,34	1243,12
604,53	1212,40
604,72	1355,76
604,91	1304,56
605,10	1308,65
605,30	1267,69
605,49	1263,60
605,68	1247,21
605,87	1245,16
606,07	1214,45
606,26	1294,32
606,45	1327,08
606,64	1257,45
606,84	1232,88
607,03	1228,78
607,22	1294,32
607,41	1286,12
607,60	1290,22
607,80	1322,99
607,99	1290,22
608,18	1302,51
608,37	1335,28
608,56	1247,21
608,76	1335,28
608,95	1239,02
609,14	1245,16
609,33	1224,69
609,52	1304,56
609,72	1300,46
609,91	1247,21
610,10	1206,25
610,29	1300,46
610,48	1310,70
610,68	1314,80
610,87	1275,88
611,06	1224,69
611,25	1218,54
611,44	1271,79
611,63	1261,55
611,83	1263,60
612,02	1304,56
612,21	1288,17
612,40	1282,03
612,59	1251,31
612,79	1257,45
612,98	1261,55
613,17	1267,69
613,36	1286,12
613,55	1306,60
613,74	1349,61
613,93	1220,59
614,13	1288,17
614,32	1255,40
614,51	1265,64
614,70	1347,56
614,89	1306,60
615,08	1312,75
615,28	1339,37
615,47	1216,49
615,66	1286,12
615,85	1267,69
616,04	1306,60
616,23	1263,60
616,42	1292,27
616,62	1230,83
616,81	1318,89
617,00	1220,59
617,19	1261,55
617,38	1294,32
617,57	1306,60
617,76	1310,70
617,95	1314,80
618,15	1269,74
618,34	1232,88
618,53	1269,74
618,72	1296,36
618,91	1331,18
619,10	1306,60
619,29	1314,80
619,48	1310,70
619,68	1308,65
619,87	1277,93
620,06	1286,12
620,25	1257,45
620,44	1267,69
620,63	1288,17
620,82	1275,88
621,01	1216,49
621,20	1314,80
621,39	1249,26
621,59	1271,79
621,78	1341,42
621,97	1232,88
622,16	1300,46
622,35	1263,60
622,54	1327,08
622,73	1304,56
622,92	1282,03
623,11	1292,27
623,30	1261,55
623,49	1286,12
623,68	1306,60
623,88	1286,12
624,07	1224,69
624,26	1314,80
624,45	1306,60
624,64	1290,22
624,83	1298,41
625,02	1224,69
625,21	1349,61
625,40	1263,60
625,59	1322,99
625,78	1255,40
625,97	1288,17
626,16	1298,41
626,35	1355,76
626,54	1376,24
626,74	1306,60
626,93	1298,41
627,12	1224,69
627,31	1284,08
627,50	1288,17
627,69	1234,93
627,88	1302,51
628,07	1298,41
628,26	1263,60
628,45	1265,64
628,64	1263,60
628,83	1232,88
629,02	1273,84
629,21	1308,65
629,40	1363,95
629,59	1279,98
629,78	1208,30
629,97	1251,31
630,16	1275,88
630,35	1366,00
630,54	1325,04
630,73	1304,56
630,92	1372,14
631,11	1243,12
631,30	1320,94
631,49	1382,38
631,68	1423,34
631,87	1499,11
632,06	1576,94
632,25	1527,78
632,44	1488,87
632,63	1511,40
632,82	1515,50
633,01	1568,74
633,20	1509,35
633,39	1515,50
633,58	1538,02
633,77	1572,84
633,96	1644,52
634,15	1554,41
634,34	1581,03
634,53	1554,41
634,72	1613,80
634,91	1509,35
635,10	1574,89
635,29	1562,60
635,48	1560,55
635,67	1542,12
635,86	1560,55
636,05	1560,55
636,24	1470,44
636,43	1531,88
636,62	1492,97
636,81	1566,70
637,00	1388,52
637,19	1429,48
637,38	1413,10
637,57	1333,23
637,76	1398,76
637,95	1286,12
638,14	1329,13
638,33	1322,99
638,52	1304,56
638,71	1249,26
638,89	1314,80
639,08	1355,76
639,27	1296,36
639,46	1275,88
639,65	1370,09
639,84	1212,40
640,03	1310,70
640,22	1286,12
640,41	1300,46
640,60	1259,50
640,79	1361,90
640,98	1239,02
641,17	1327,08
641,36	1314,80
641,55	1271,79
641,74	1206,25
641,92	1232,88
642,11	1239,02
642,30	1308,65
642,49	1255,40
642,68	1343,47
642,87	1247,21
643,06	1306,60
643,25	1259,50
643,44	1339,37
643,63	1226,73
643,82	1271,79
644,00	1318,89
644,19	1239,02
644,38	1284,08
644,57	1396,71
644,76	1302,51
644,95	1279,98
645,14	1275,88
645,33	1232,88
645,52	1290,22
645,71	1286,12
645,89	1318,89
646,08	1230,83
646,27	1245,16
646,46	1269,74
646,65	1316,84
646,84	1273,84
647,03	1273,84
647,22	1271,79
647,40	1224,69
647,59	1359,85
647,78	1249,26
647,97	1245,16
648,16	1253,36
648,35	1214,45
648,54	1241,07
648,73	1275,88
648,91	1302,51
649,10	1228,78
649,29	1316,84
649,48	1271,79
649,67	1333,23
649,86	1245,16
650,05	1282,03
650,23	1261,55
650,42	1271,79
650,61	1181,68
650,80	1327,08
650,99	1359,85
651,18	1302,51
651,36	1347,56
651,55	1228,78
651,74	1306,60
651,93	1206,25
652,12	1263,60
652,31	1273,84
652,49	1296,36
652,68	1277,93
652,87	1284,08
653,06	1279,98
653,25	1302,51
653,44	1271,79
653,62	1300,46
653,81	1292,27
654,00	1226,73
654,19	1257,45
654,38	1294,32
654,56	1214,45
654,75	1224,69
654,94	1277,93
655,13	1282,03
655,32	1353,71
655,51	1263,60
655,69	1343,47
655,88	1296,36
656,07	1271,79
656,26	1277,93
656,45	1275,88
656,63	1273,84
656,82	1271,79
657,01	1318,89
657,20	1300,46
657,38	1247,21
657,57	1232,88
657,76	1298,41
657,95	1277,93
658,14	1327,08
658,32	1243,12
658,51	1265,64
658,70	1236,97
658,89	1263,60
659,08	1236,97
659,26	1185,77
659,45	1261,55
659,64	1261,55
659,83	1257,45
660,01	1290,22
660,20	1255,40
660,39	1257,45
660,58	1232,88
660,76	1265,64
660,95	1198,06
661,14	1261,55
661,33	1341,42
661,51	1292,27
661,70	1284,08
661,89	1257,45
662,08	1333,23
662,26	1286,12
662,45	1234,93
662,64	1292,27
662,83	1314,80
663,01	1273,84
663,20	1318,89
663,39	1329,13
663,58	1294,32
663,76	1259,50
663,95	1304,56
664,14	1253,36
664,32	1200,11
664,51	1251,31
664,70	1265,64
664,89	1222,64
665,07	1249,26
665,26	1314,80
665,45	1257,45
665,64	1234,93
665,82	1243,12
666,01	1300,46
666,20	1214,45
666,38	1245,16
666,57	1243,12
666,76	1263,60
666,95	1234,93
667,13	1263,60
667,32	1261,55
667,51	1312,75
667,69	1251,31
667,88	1241,07
668,07	1314,80
668,25	1259,50
668,44	1234,93
668,63	1210,35
668,81	1322,99
669,00	1261,55
669,19	1279,98
669,38	1216,49
669,56	1196,01
669,75	1302,51
669,94	1269,74
670,12	1345,52
670,31	1279,98
670,50	1273,84
670,68	1294,32
670,87	1277,93
671,06	1351,66
671,24	1253,36
671,43	1322,99
671,62	1279,98
671,80	1236,97
671,99	1275,88
672,18	1257,45
672,36	1234,93
672,55	1261,55
672,74	1261,55
672,92	1218,54
673,11	1329,13
673,29	1189,87
673,48	1327,08
673,67	1269,74
673,85	1263,60
674,04	1261,55
674,23	1333,23
674,41	1263,60
674,60	1261,55
674,79	1273,84
674,97	1279,98
675,16	1282,03
675,34	1337,32
675,53	1220,59
675,72	1292,27
675,90	1265,64
676,09	1282,03
676,28	1279,98
676,46	1306,60
676,65	1226,73
676,83	1247,21
677,02	1284,08
677,21	1302,51
677,39	1288,17
677,58	1290,22
677,77	1210,35
677,95	1318,89
678,14	1267,69
678,32	1243,12
678,51	1282,03
678,70	1259,50
678,88	1224,69
679,07	1218,54
679,25	1329,13
679,44	1243,12
679,63	1294,32
679,81	1214,45
680,00	1312,75
680,18	1210,35
680,37	1263,60
680,55	1275,88
680,74	1222,64
680,93	1314,80
681,11	1302,51
681,30	1230,83
681,48	1322,99
681,67	1292,27
681,85	1288,17
682,04	1196,01
682,23	1257,45
682,41	1312,75
682,60	1241,07
682,78	1261,55
682,97	1282,03
683,15	1298,41
683,34	1236,97
683,53	1282,03
683,71	1288,17
683,90	1222,64
684,08	1214,45
684,27	1159,15
684,45	1173,49
684,64	1298,41
684,82	1286,12
685,01	1200,11
685,19	1239,02
685,38	1302,51
685,57	1241,07
685,75	1224,69
685,94	1267,69
686,12	1302,51
686,31	1222,64
686,49	1290,22
686,68	1265,64
686,86	1292,27
687,05	1253,36
687,23	1265,64
687,42	1241,07
687,60	1198,06
687,79	1271,79
687,97	1304,56
688,16	1282,03
688,34	1247,21
688,53	1312,75
688,71	1302,51
688,90	1245,16
689,08	1200,11
689,27	1226,73
689,45	1239,02
689,64	1243,12
689,82	1288,17
690,01	1253,36
690,19	1271,79
690,38	1228,78
690,56	1212,40
690,75	1322,99
690,93	1269,74
691,12	1316,84
691,30	1241,07
691,49	1241,07
691,67	1249,26
691,86	1251,31
692,04	1263,60
692,23	1191,92
692,41	1208,30
692,60	1325,04
692,78	1308,65
692,97	1277,93
693,15	1347,56
693,34	1263,60
693,52	1316,84
693,71	1224,69
693,89	1259,50
694,08	1277,93
694,26	1196,01
694,44	1288,17
694,63	1294,32
694,81	1263,60
695,00	1294,32
695,18	1228,78
695,37	1255,40
695,55	1247,21
695,74	1320,94
695,92	1253,36
696,10	1351,66
696,29	1335,28
696,47	1279,98
696,66	1306,60
696,84	1288,17
697,03	1312,75
697,21	1216,49
697,40	1331,18
697,58	1304,56
697,76	1267,69
697,95	1140,72
698,13	1245,16
698,32	1282,03
698,50	1220,59
698,68	1304,56
698,87	1279,98
699,05	1239,02
699,24	1224,69
699,42	1251,31
699,61	1273,84
699,79	1288,17
699,97	1310,70
700,16	1253,36
700,34	1243,12
700,53	1282,03
700,71	1296,36
700,89	1310,70
701,08	1236,97
701,26	1290,22
701,45	1322,99
701,63	1279,98
701,81	1234,93
702,00	1257,45
702,18	1224,69
702,37	1288,17
702,55	1249,26
702,73	1257,45
702,92	1302,51
703,10	1269,74
703,28	1255,40
703,47	1253,36
703,65	1241,07
703,84	1275,88
704,02	1277,93
704,20	1257,45
704,39	1253,36
704,57	1343,47
704,75	1198,06
704,94	1236,97
705,12	1308,65
705,30	1263,60
705,49	1296,36
705,67	1269,74
705,86	1306,60
706,04	1288,17
706,22	1275,88
706,41	1269,74
706,59	1312,75
706,77	1196,01
706,96	1265,64
707,14	1255,40
707,32	1316,84
707,51	1259,50
707,69	1245,16
707,87	1269,74
708,06	1271,79
708,24	1239,02
708,42	1230,83
708,61	1318,89
708,79	1339,37
708,97	1212,40
709,16	1304,56
709,34	1310,70
709,52	1243,12
709,71	1273,84
709,89	1243,12
710,07	1263,60
710,26	1265,64
710,44	1298,41
710,62	1286,12
710,80	1247,21
710,99	1265,64
711,17	1273,84
711,35	1273,84
711,54	1263,60
711,72	1210,35
711,90	1306,60
712,09	1243,12
712,27	1300,46
712,45	1304,56
712,63	1236,97
712,82	1279,98
713,00	1216,49
713,18	1226,73
713,37	1284,08
713,55	1290,22
713,73	1312,75
713,91	1355,76
714,10	1343,47
714,28	1273,84
714,46	1288,17
714,65	1296,36
714,83	1247,21
715,01	1249,26
715,19	1363,95
715,38	1337,32
715,56	1294,32
715,74	1265,64
715,92	1308,65
716,11	1263,60
716,29	1265,64
716,47	1312,75
716,65	1286,12
716,84	1298,41
717,02	1292,27
717,20	1312,75
717,38	1312,75
717,57	1320,94
717,75	1304,56
717,93	1265,64
718,11	1224,69
718,30	1243,12
718,48	1363,95
718,66	1265,64
718,84	1255,40
719,03	1331,18
719,21	1284,08
719,39	1269,74
719,57	1308,65
719,75	1259,50
719,94	1273,84
720,12	1284,08
720,30	1253,36
720,48	1273,84
720,67	1253,36
720,85	1247,21
721,03	1269,74
721,21	1273,84
721,39	1159,15
721,58	1275,88
721,76	1308,65
721,94	1290,22
722,12	1351,66
722,30	1298,41
722,49	1253,36
722,67	1257,45
722,85	1296,36
723,03	1253,36
723,21	1208,30
723,40	1302,51
723,58	1232,88
723,76	1181,68
723,94	1318,89
724,12	1228,78
724,30	1290,22
724,49	1245,16
724,67	1239,02
724,85	1296,36
725,03	1249,26
725,21	1271,79
725,40	1284,08
725,58	1282,03
725,76	1279,98
725,94	1267,69
726,12	1286,12
726,30	1234,93
726,49	1249,26
726,67	1263,60
726,85	1255,40
727,03	1302,51
727,21	1255,40
727,39	1322,99
727,57	1296,36
727,76	1228,78
727,94	1249,26
728,12	1275,88
728,30	1320,94
728,48	1288,17
728,66	1206,25
728,84	1232,88
729,03	1374,19
729,21	1275,88
729,39	1306,60
729,57	1173,49
729,75	1279,98
729,93	1185,77
730,11	1249,26
730,30	1320,94
730,48	1247,21
730,66	1249,26
730,84	1298,41
731,02	1218,54
731,20	1298,41
731,38	1320,94
731,56	1241,07
731,74	1265,64
731,93	1187,82
732,11	1286,12
732,29	1279,98
732,47	1204,21
732,65	1320,94
732,83	1245,16
733,01	1271,79
733,19	1339,37
733,37	1257,45
733,56	1345,52
733,74	1261,55
733,92	1318,89
734,10	1200,11
734,28	1243,12
734,46	1187,82
734,64	1257,45
734,82	1212,40
735,00	1357,80
735,18	1288,17
735,36	1239,02
735,54	1302,51
735,73	1320,94
735,91	1320,94
736,09	1273,84
736,27	1296,36
736,45	1198,06
736,63	1282,03
736,81	1249,26
736,99	1292,27
737,17	1224,69
737,35	1206,25
737,53	1341,42
737,71	1259,50
737,89	1298,41
738,07	1298,41
738,25	1273,84
738,43	1255,40
738,61	1271,79
738,80	1218,54
738,98	1218,54
739,16	1214,45
739,34	1279,98
739,52	1273,84
739,70	1271,79
739,88	1292,27
740,06	1271,79
740,24	1216,49
740,42	1255,40
740,60	1273,84
740,78	1306,60
740,96	1333,23
741,14	1255,40
741,32	1216,49
741,50	1263,60
741,68	1302,51
741,86	1269,74
742,04	1333,23
742,22	1269,74
742,40	1249,26
742,58	1288,17
742,76	1193,97
742,94	1273,84
743,12	1269,74
743,30	1286,12
743,48	1257,45
743,66	1292,27
743,84	1318,89
744,02	1220,59
744,20	1322,99
744,38	1247,21
744,56	1273,84
744,74	1290,22
744,92	1265,64
745,10	1245,16
745,28	1298,41
745,46	1263,60
745,64	1208,30
745,82	1331,18
746,00	1282,03
746,18	1298,41
746,36	1294,32
746,54	1257,45
746,72	1304,56
746,90	1271,79
747,08	1290,22
747,26	1249,26
747,44	1263,60
747,62	1261,55
747,80	1292,27
747,98	1222,64
748,15	1339,37
748,33	1339,37
748,51	1263,60
748,69	1261,55
748,87	1279,98
749,05	1269,74
749,23	1308,65
749,41	1386,47
749,59	1279,98
749,77	1249,26
749,95	1243,12
750,13	1296,36
750,31	1282,03
750,49	1257,45
750,67	1234,93
750,85	1200,11
751,03	1331,18
751,20	1314,80
751,38	1169,39
751,56	1224,69
751,74	1279,98
751,92	1314,80
752,10	1284,08
752,28	1333,23
752,46	1255,40
752,64	1329,13
752,82	1273,84
753,00	1316,84
753,18	1196,01
753,35	1249,26
753,53	1357,80
753,71	1265,64
753,89	1241,07
754,07	1257,45
754,25	1273,84
754,43	1343,47
754,61	1269,74
754,79	1255,40
754,97	1265,64
755,14	1241,07
755,32	1329,13
755,50	1282,03
755,68	1261,55
755,86	1251,31
756,04	1236,97
756,22	1327,08
756,40	1282,03
756,57	1212,40
756,75	1345,52
756,93	1220,59
757,11	1333,23
757,29	1275,88
757,47	1300,46
757,65	1257,45
757,82	1314,80
758,00	1232,88
758,18	1284,08
758,36	1241,07
758,54	1255,40
758,72	1257,45
758,90	1304,56
759,07	1226,73
759,25	1212,40
759,43	1216,49
759,61	1314,80
759,79	1355,76
759,97	1255,40
760,15	1253,36
760,32	1241,07
760,50	1298,41
760,68	1269,74
760,86	1304,56
761,04	1277,93
761,22	1243,12
761,39	1331,18
761,57	1261,55
761,75	1349,61
761,93	1257,45
762,11	1325,04
762,28	1239,02
762,46	1247,21
762,64	1202,16
762,82	1222,64
763,00	1329,13
763,18	1290,22
763,35	1224,69
763,53	1249,26
763,71	1325,04
763,89	1271,79
764,07	1191,92
764,24	1288,17
764,42	1282,03
764,60	1259,50
764,78	1212,40
764,96	1232,88
765,13	1263,60
765,31	1253,36
765,49	1208,30
765,67	1257,45
765,84	1249,26
766,02	1175,53
766,20	1271,79
766,38	1292,27
766,56	1331,18
766,73	1247,21
766,91	1355,76
767,09	1224,69
767,27	1230,83
767,44	1208,30
767,62	1228,78
767,80	1265,64
767,98	1269,74
768,15	1386,47
768,33	1263,60
768,51	1269,74
768,69	1239,02
768,87	1245,16
769,04	1255,40
769,22	1222,64
769,40	1253,36
769,58	1341,42
769,75	1214,45
769,93	1265,64
770,11	1243,12
770,28	1292,27
770,46	1333,23
770,64	1265,64
770,82	1327,08
770,99	1273,84
771,17	1312,75
771,35	1267,69
771,53	1222,64
771,70	1312,75
771,88	1284,08
772,06	1241,07
772,23	1210,35
772,41	1290,22
772,59	1300,46
772,77	1318,89
772,94	1279,98
773,12	1214,45
773,30	1318,89
773,47	1224,69
773,65	1279,98
773,83	1288,17
774,01	1269,74
774,18	1261,55
774,36	1275,88
774,54	1308,65
774,71	1322,99
774,89	1269,74
775,07	1222,64
775,24	1308,65
775,42	1257,45
775,60	1312,75
775,78	1302,51
775,95	1243,12
776,13	1366,00
776,31	1290,22
776,48	1243,12
776,66	1189,87
776,84	1230,83
777,01	1279,98
777,19	1216,49
777,37	1241,07
777,54	1191,92
777,72	1239,02
777,90	1155,05
778,07	1261,55
778,25	1333,23
778,43	1257,45
778,60	1314,80
778,78	1296,36
778,96	1198,06
779,13	1318,89
779,31	1275,88
779,49	1241,07
779,66	1189,87
779,84	1310,70
780,01	1277,93
780,19	1310,70
780,37	1284,08
780,54	1331,18
780,72	1255,40
780,90	1361,90
781,07	1230,83
781,25	1318,89
781,43	1210,35
781,60	1300,46
781,78	1259,50
781,95	1302,51
782,13	1230,83
782,31	1298,41
782,48	1333,23
782,66	1343,47
782,83	1245,16
783,01	1271,79
783,19	1273,84
783,36	1259,50
783,54	1208,30
783,72	1314,80
783,89	1290,22
784,07	1255,40
784,24	1296,36
784,42	1239,02
784,60	1290,22
784,77	1304,56
784,95	1320,94
785,12	1314,80
785,30	1296,36
785,47	1253,36
785,65	1261,55
785,83	1241,07
786,00	1259,50
786,18	1251,31
786,35	1271,79
786,53	1282,03
786,71	1282,03
786,88	1243,12
787,06	1273,84
787,23	1265,64
787,41	1261,55
787,58	1343,47
787,76	1263,60
787,94	1306,60
788,11	1230,83
788,29	1232,88
788,46	1198,06
788,64	1232,88
788,81	1271,79
788,99	1273,84
789,16	1308,65
789,34	1339,37
789,52	1214,45
789,69	1243,12
789,87	1193,97
790,04	1214,45
790,22	1282,03
790,39	1282,03
790,57	1265,64
790,74	1286,12
790,92	1361,90
791,09	1249,26
791,27	1210,35
791,44	1294,32
791,62	1146,86
791,79	1282,03
791,97	1279,98
792,15	1267,69
792,32	1224,69
792,50	1212,40
792,67	1271,79
792,85	1331,18
793,02	1292,27
793,20	1273,84
793,37	1236,97
793,55	1284,08
793,72	1271,79
793,90	1257,45
794,07	1198,06
794,25	1228,78
794,42	1236,97
794,60	1271,79
794,77	1241,07
794,95	1220,59
795,12	1294,32
795,30	1255,40
795,47	1263,60
795,65	1304,56
795,82	1245,16
796,00	1310,70
796,17	1286,12
796,34	1236,97
796,52	1294,32
796,69	1269,74
796,87	1308,65
797,04	1302,51
797,22	1390,57
797,39	1355,76
797,57	1265,64
797,74	1216,49
797,92	1320,94
798,09	1284,08
798,27	1320,94
798,44	1245,16
798,62	1298,41
798,79	1165,29
798,96	1273,84
799,14	1253,36
799,31	1232,88
799,49	1318,89
799,66	1294,32
799,84	1271,79
800,01	1302,51
800,19	1255,40
800,36	1251,31
800,53	1273,84
800,71	1234,93
800,88	1216,49
801,06	1218,54
801,23	1269,74
801,41	1294,32
801,58	1265,64
801,75	1196,01
801,93	1265,64
802,10	1241,07
802,28	1298,41
802,45	1271,79
802,63	1292,27
802,80	1251,31
802,97	1263,60
803,15	1247,21
803,32	1314,80
803,50	1298,41
803,67	1239,02
803,84	1202,16
804,02	1265,64
804,19	1290,22
804,37	1265,64
804,54	1247,21
804,71	1322,99
804,89	1189,87
805,06	1318,89
805,24	1230,83
805,41	1277,93
805,58	1239,02
805,76	1353,71
805,93	1204,21
806,10	1259,50
806,28	1279,98
806,45	1284,08
806,63	1277,93
806,80	1308,65
806,97	1316,84
807,15	1228,78
807,32	1218,54
807,49	1337,32
807,67	1335,28
807,84	1239,02
808,01	1302,51
808,19	1318,89
808,36	1245,16
808,54	1288,17
808,71	1368,04
808,88	1271,79
809,06	1187,82
809,23	1306,60
809,40	1314,80
809,58	1263,60
809,75	1187,82
809,92	1284,08
810,10	1290,22
810,27	1245,16
810,44	1251,31
810,62	1282,03
810,79	1271,79
810,96	1331,18
811,14	1232,88
811,31	1263,60
811,48	1196,01
811,66	1294,32
811,83	1296,36
812,00	1374,19
812,18	1310,70
812,35	1306,60
812,52	1277,93
812,69	1257,45
812,87	1294,32
813,04	1329,13
813,21	1277,93
813,39	1226,73
813,56	1349,61
813,73	1220,59
813,91	1273,84
814,08	1245,16
814,25	1273,84
814,42	1230,83
814,60	1353,71
814,77	1247,21
814,94	1335,28
815,12	1277,93
815,29	1204,21
815,46	1273,84
815,63	1200,11
815,81	1288,17
815,98	1234,93
816,15	1267,69
816,33	1314,80
816,50	1200,11
816,67	1249,26
816,84	1304,56
817,02	1232,88
817,19	1306,60
817,36	1290,22
817,53	1277,93
817,71	1277,93
817,88	1271,79
818,05	1277,93
818,22	1310,70
818,40	1284,08
818,57	1267,69
818,74	1306,60
818,91	1294,32
819,09	1253,36
819,26	1314,80
819,43	1243,12
819,60	1245,16
819,78	1273,84
819,95	1359,85
820,12	1318,89
820,29	1267,69
820,47	1247,21
820,64	1255,40
820,81	1247,21
820,98	1243,12
821,15	1298,41
821,33	1316,84
821,50	1234,93
821,67	1304,56
821,84	1290,22
822,02	1327,08
822,19	1294,32
822,36	1226,73
822,53	1212,40
822,70	1257,45
822,88	1253,36
823,05	1253,36
823,22	1298,41
823,39	1271,79
823,56	1316,84
823,74	1277,93
823,91	1269,74
824,08	1312,75
824,25	1282,03
824,42	1302,51
824,60	1218,54
824,77	1351,66
824,94	1171,44
825,11	1300,46
825,28	1245,16
825,45	1273,84
825,63	1308,65
825,80	1318,89
825,97	1279,98
826,14	1236,97
826,31	1220,59
826,48	1259,50
826,66	1265,64
826,83	1265,64
827,00	1253,36
827,17	1294,32
827,34	1308,65
827,51	1300,46
827,69	1255,40
827,86	1292,27
828,03	1273,84
828,20	1296,36
828,37	1255,40
828,54	1220,59
828,71	1243,12
828,89	1353,71
829,06	1251,31
829,23	1327,08
829,40	1284,08
829,57	1216,49
829,74	1212,40
829,91	1320,94
830,09	1304,56
830,26	1286,12
830,43	1239,02
830,60	1208,30
830,77	1304,56
830,94	1331,18
831,11	1271,79
831,28	1236,97
831,46	1273,84
831,63	1243,12
831,80	1200,11
831,97	1267,69
832,14	1288,17
832,31	1234,93
832,48	1308,65
832,65	1333,23
832,82	1284,08
832,99	1337,32
833,17	1320,94
833,34	1239,02
833,51	1261,55
833,68	1263,60
833,85	1306,60
834,02	1322,99
834,19	1333,23
834,36	1191,92
834,53	1220,59
834,70	1228,78
834,87	1290,22
835,04	1257,45
835,22	1198,06
835,39	1322,99
835,56	1298,41
835,73	1277,93
835,90	1208,30
836,07	1214,45
836,24	1245,16
836,41	1304,56
836,58	1259,50
836,75	1282,03
836,92	1294,32
837,09	1277,93
837,26	1251,31
837,43	1245,16
837,60	1296,36
837,77	1247,21
837,94	1247,21
838,12	1314,80
838,29	1263,60
838,46	1257,45
838,63	1275,88
838,80	1304,56
838,97	1165,29
839,14	1292,27
839,31	1253,36
839,48	1241,07
839,65	1245,16
839,82	1189,87
839,99	1255,40
840,16	1314,80
840,33	1298,41
840,50	1286,12
840,67	1247,21
840,84	1294,32
841,01	1245,16
841,18	1257,45
841,35	1271,79
841,52	1239,02
841,69	1228,78
841,86	1265,64
842,03	1300,46
842,20	1331,18
842,37	1294,32
842,54	1302,51
842,71	1269,74
842,88	1263,60
843,05	1271,79
843,22	1173,49
843,39	1322,99
843,56	1269,74
843,73	1247,21
843,90	1271,79
844,07	1206,25
844,24	1282,03
844,41	1230,83
844,58	1275,88
844,75	1230,83
844,92	1333,23
845,09	1216,49
845,26	1296,36
845,43	1273,84
845,60	1277,93
845,77	1269,74
845,94	1261,55
846,10	1288,17
846,27	1247,21
846,44	1298,41
846,61	1257,45
846,78	1257,45
846,95	1267,69
847,12	1239,02
847,29	1306,60
847,46	1290,22
847,63	1279,98
847,80	1325,04
847,97	1234,93
848,14	1228,78
848,31	1273,84
848,48	1236,97
848,65	1273,84
848,82	1279,98
848,98	1284,08
849,15	1302,51
849,32	1234,93
849,49	1288,17
849,66	1282,03
849,83	1193,97
850,00	1269,74
850,17	1288,17
850,34	1241,07
850,51	1255,40
850,68	1228,78
850,85	1349,61
851,01	1284,08
851,18	1234,93
851,35	1269,74
851,52	1275,88
851,69	1312,75
851,86	1286,12
852,03	1243,12
852,20	1337,32
852,37	1257,45
852,53	1302,51
852,70	1212,40
852,87	1298,41
853,04	1284,08
853,21	1286,12
853,38	1337,32
853,55	1304,56
853,72	1251,31
853,89	1294,32
854,05	1304,56
854,22	1271,79
854,39	1257,45
854,56	1259,50
854,73	1263,60
854,90	1255,40
855,07	1196,01
855,23	1239,02
855,40	1249,26
855,57	1298,41
855,74	1296,36
855,91	1288,17
856,08	1322,99
856,25	1191,92
856,41	1222,64
856,58	1245,16
856,75	1275,88
856,92	1259,50
857,09	1316,84
857,26	1296,36
857,42	1232,88
857,59	1267,69
857,76	1236,97
857,93	1314,80
858,10	1216,49
858,27	1241,07
858,43	1208,30
858,60	1279,98
858,77	1224,69
858,94	1208,30
859,11	1290,22
859,27	1279,98
859,44	1312,75
859,61	1251,31
859,78	1273,84
859,95	1279,98
860,12	1284,08
860,28	1304,56
860,45	1232,88
860,62	1255,40
860,79	1273,84
860,95	1245,16
861,12	1298,41
861,29	1177,58
861,46	1318,89
861,63	1267,69
861,79	1277,93
861,96	1206,25
862,13	1275,88
862,30	1269,74
862,47	1275,88
862,63	1177,58
862,80	1265,64
862,97	1288,17
863,14	1286,12
863,30	1228,78
863,47	1222,64
863,64	1247,21
863,81	1286,12
863,97	1239,02
864,14	1263,60
864,31	1296,36
864,48	1273,84
864,65	1236,97
864,81	1282,03
864,98	1239,02
865,15	1247,21
865,32	1322,99
865,48	1220,59
865,65	1288,17
865,82	1224,69
865,98	1279,98
866,15	1282,03
866,32	1232,88
866,49	1290,22
866,65	1294,32
866,82	1175,53
866,99	1290,22
867,16	1263,60
867,32	1298,41
867,49	1239,02
867,66	1247,21
867,83	1253,36
867,99	1300,46
868,16	1292,27
868,33	1247,21
868,49	1290,22
868,66	1253,36
868,83	1302,51
868,99	1220,59
869,16	1273,84
869,33	1288,17
869,50	1216,49
869,66	1351,66
869,83	1277,93
870,00	1288,17
870,16	1249,26
870,33	1351,66
870,50	1296,36
870,66	1216,49
870,83	1255,40
871,00	1284,08
871,17	1269,74
871,33	1208,30
871,50	1284,08
871,67	1216,49
871,83	1288,17
872,00	1269,74
872,17	1273,84
872,33	1230,83
872,50	1241,07
872,67	1239,02
872,83	1259,50
873,00	1288,17
873,17	1277,93
873,33	1265,64
873,50	1298,41
873,67	1265,64
873,83	1263,60
874,00	1265,64
874,16	1255,40
874,33	1308,65
874,50	1327,08
874,66	1212,40
874,83	1372,14
875,00	1284,08
875,16	1216,49
875,33	1269,74
875,50	1269,74
875,66	1251,31
875,83	1259,50
875,99	1312,75
876,16	1290,22
876,33	1296,36
876,49	1267,69
876,66	1259,50
876,83	1310,70
876,99	1290,22
877,16	1296,36
877,32	1265,64
877,49	1253,36
877,66	1284,08
877,82	1226,73
877,99	1290,22
878,15	1345,52
878,32	1284,08
878,49	1288,17
878,65	1239,02
878,82	1277,93
878,98	1298,41
879,15	1245,16
879,32	1290,22
879,48	1306,60
879,65	1212,40
879,81	1306,60
879,98	1282,03
880,15	1249,26
880,31	1273,84
880,48	1273,84
880,64	1257,45
880,81	1261,55
880,97	1206,25
881,14	1304,56
881,31	1232,88
881,47	1210,35
881,64	1310,70
881,80	1236,97
881,97	1261,55
882,13	1234,93
882,30	1282,03
882,47	1253,36
882,63	1284,08
882,80	1224,69
882,96	1241,07
883,13	1222,64
883,29	1312,75
883,46	1257,45
883,62	1372,14
883,79	1318,89
883,95	1329,13
884,12	1232,88
884,29	1181,68
884,45	1216,49
884,62	1314,80
884,78	1290,22
884,95	1261,55
885,11	1282,03
885,28	1318,89
885,44	1349,61
885,61	1239,02
885,77	1300,46
885,94	1224,69
886,10	1208,30
886,27	1312,75
886,43	1331,18
886,60	1222,64
886,76	1296,36
886,93	1288,17
887,09	1247,21
887,26	1286,12
887,42	1251,31
887,59	1263,60
887,75	1288,17
887,92	1302,51
888,08	1251,31
888,25	1292,27
888,41	1282,03
888,58	1232,88
888,74	1257,45
888,91	1259,50
>>>>>End Processed Spectral Data<<<<<
