SpectraSuite Data File
++++++++++++++++++++++++++++++++++++
Date: Sun Apr 03 14:20:04 CEST 2016
User: root
Dark Spectrum Present: No
Reference Spectrum Present: No
Number of Sampled Component Spectra: 1
Spectrometers: USB4C02835
Integration Time (usec): 10000 (USB4C02835)
Spectra Averaged: 1 (USB4C02835)
Boxcar Smoothing: 0 (USB4C02835)
Correct for Electrical Dark: No (USB4C02835)
Strobe/Lamp Enabled: No (USB4C02835)
Correct for Detector Non-linearity: No (USB4C02835)
Correct for Stray Light: No (USB4C02835)
Number of Pixels in Processed Spectrum: 3648
>>>>>Begin Processed Spectral Data<<<<<
177,47	1257,45
177,69	1257,45
177,91	1257,45
178,13	1212,40
178,36	1261,55
178,58	1325,04
178,80	1322,99
179,02	1353,71
179,24	1241,07
179,46	1275,88
179,68	1306,60
179,90	1267,69
180,13	1302,51
180,35	1253,36
180,57	1193,97
180,79	1249,26
181,01	1255,40
181,23	1304,56
181,45	1232,88
181,67	1318,89
181,90	1331,18
182,12	1314,80
182,34	1236,97
182,56	1298,41
182,78	1269,74
183,00	1294,32
183,22	1243,12
183,44	1212,40
183,66	1234,93
183,89	1228,78
184,11	1253,36
184,33	1308,65
184,55	1220,59
184,77	1249,26
184,99	1136,62
185,21	1224,69
185,43	1271,79
185,65	1208,30
185,87	1337,32
186,10	1304,56
186,32	1265,64
186,54	1279,98
186,76	1253,36
186,98	1191,92
187,20	1263,60
187,42	1310,70
187,64	1255,40
187,86	1271,79
188,08	1302,51
188,30	1279,98
188,52	1302,51
188,75	1263,60
188,97	1331,18
189,19	1167,34
189,41	1337,32
189,63	1329,13
189,85	1275,88
190,07	1220,59
190,29	1255,40
190,51	1212,40
190,73	1261,55
190,95	1341,42
191,17	1294,32
191,39	1288,17
191,61	1288,17
191,84	1216,49
192,06	1261,55
192,28	1327,08
192,50	1269,74
192,72	1241,07
192,94	1288,17
193,16	1259,50
193,38	1251,31
193,60	1245,16
193,82	1239,02
194,04	1261,55
194,26	1296,36
194,48	1300,46
194,70	1241,07
194,92	1267,69
195,14	1249,26
195,36	1275,88
195,58	1310,70
195,80	1193,97
196,02	1261,55
196,24	1320,94
196,46	1249,26
196,69	1236,97
196,91	1253,36
197,13	1300,46
197,35	1226,73
197,57	1239,02
197,79	1279,98
198,01	1378,28
198,23	1351,66
198,45	1230,83
198,67	1216,49
198,89	1257,45
199,11	1282,03
199,33	1228,78
199,55	1288,17
199,77	1279,98
199,99	1230,83
200,21	1253,36
200,43	1282,03
200,65	1179,63
200,87	1212,40
201,09	1259,50
201,31	1193,97
201,53	1325,04
201,75	1290,22
201,97	1279,98
202,19	1327,08
202,41	1267,69
202,63	1310,70
202,85	1308,65
203,07	1316,84
203,29	1247,21
203,51	1273,84
203,73	1277,93
203,95	1322,99
204,17	1337,32
204,39	1265,64
204,61	1224,69
204,83	1282,03
205,05	1239,02
205,27	1277,93
205,49	1232,88
205,71	1247,21
205,93	1337,32
206,15	1335,28
206,37	1329,13
206,59	1318,89
206,81	1259,50
207,03	1296,36
207,25	1331,18
207,47	1314,80
207,69	1296,36
207,91	1353,71
208,13	1304,56
208,34	1277,93
208,56	1263,60
208,78	1181,68
209,00	1224,69
209,22	1300,46
209,44	1327,08
209,66	1314,80
209,88	1247,21
210,10	1314,80
210,32	1284,08
210,54	1296,36
210,76	1247,21
210,98	1228,78
211,20	1286,12
211,42	1282,03
211,64	1249,26
211,86	1263,60
212,08	1320,94
212,30	1173,49
212,52	1187,82
212,74	1255,40
212,96	1249,26
213,17	1320,94
213,39	1261,55
213,61	1296,36
213,83	1288,17
214,05	1296,36
214,27	1269,74
214,49	1224,69
214,71	1241,07
214,93	1314,80
215,15	1327,08
215,37	1241,07
215,59	1282,03
215,81	1284,08
216,03	1224,69
216,24	1351,66
216,46	1320,94
216,68	1239,02
216,90	1314,80
217,12	1296,36
217,34	1343,47
217,56	1253,36
217,78	1294,32
218,00	1220,59
218,22	1361,90
218,44	1288,17
218,66	1310,70
218,87	1226,73
219,09	1196,01
219,31	1247,21
219,53	1234,93
219,75	1218,54
219,97	1263,60
220,19	1263,60
220,41	1275,88
220,63	1271,79
220,85	1224,69
221,06	1263,60
221,28	1275,88
221,50	1224,69
221,72	1345,52
221,94	1275,88
222,16	1288,17
222,38	1286,12
222,60	1245,16
222,82	1335,28
223,03	1294,32
223,25	1210,35
223,47	1255,40
223,69	1220,59
223,91	1253,36
224,13	1292,27
224,35	1279,98
224,57	1331,18
224,78	1234,93
225,00	1230,83
225,22	1335,28
225,44	1265,64
225,66	1300,46
225,88	1300,46
226,10	1277,93
226,32	1333,23
226,53	1298,41
226,75	1302,51
226,97	1239,02
227,19	1265,64
227,41	1286,12
227,63	1294,32
227,85	1249,26
228,06	1275,88
228,28	1269,74
228,50	1337,32
228,72	1306,60
228,94	1277,93
229,16	1286,12
229,37	1265,64
229,59	1277,93
229,81	1271,79
230,03	1236,97
230,25	1279,98
230,47	1245,16
230,69	1243,12
230,90	1333,23
231,12	1316,84
231,34	1333,23
231,56	1243,12
231,78	1228,78
232,00	1302,51
232,21	1179,63
232,43	1316,84
232,65	1210,35
232,87	1232,88
233,09	1253,36
233,30	1261,55
233,52	1284,08
233,74	1175,53
233,96	1310,70
234,18	1236,97
234,40	1251,31
234,61	1275,88
234,83	1206,25
235,05	1351,66
235,27	1279,98
235,49	1271,79
235,70	1245,16
235,92	1298,41
236,14	1300,46
236,36	1314,80
236,58	1275,88
236,79	1216,49
237,01	1257,45
237,23	1239,02
237,45	1349,61
237,67	1273,84
237,88	1322,99
238,10	1232,88
238,32	1232,88
238,54	1288,17
238,76	1265,64
238,97	1241,07
239,19	1236,97
239,41	1288,17
239,63	1294,32
239,85	1302,51
240,06	1282,03
240,28	1251,31
240,50	1320,94
240,72	1316,84
240,93	1236,97
241,15	1286,12
241,37	1322,99
241,59	1316,84
241,81	1314,80
242,02	1177,58
242,24	1263,60
242,46	1300,46
242,68	1230,83
242,89	1341,42
243,11	1308,65
243,33	1261,55
243,55	1277,93
243,76	1318,89
243,98	1290,22
244,20	1269,74
244,42	1349,61
244,64	1288,17
244,85	1245,16
245,07	1251,31
245,29	1277,93
245,51	1247,21
245,72	1304,56
245,94	1247,21
246,16	1191,92
246,38	1222,64
246,59	1368,04
246,81	1347,56
247,03	1304,56
247,24	1271,79
247,46	1234,93
247,68	1247,21
247,90	1228,78
248,11	1275,88
248,33	1255,40
248,55	1298,41
248,77	1169,39
248,98	1232,88
249,20	1241,07
249,42	1294,32
249,64	1306,60
249,85	1277,93
250,07	1286,12
250,29	1251,31
250,50	1359,85
250,72	1277,93
250,94	1208,30
251,16	1271,79
251,37	1294,32
251,59	1204,21
251,81	1253,36
252,02	1261,55
252,24	1275,88
252,46	1275,88
252,68	1267,69
252,89	1196,01
253,11	1271,79
253,33	1282,03
253,54	1333,23
253,76	1267,69
253,98	1226,73
254,20	1247,21
254,41	1288,17
254,63	1329,13
254,85	1236,97
255,06	1279,98
255,28	1200,11
255,50	1298,41
255,71	1269,74
255,93	1171,44
256,15	1220,59
256,36	1191,92
256,58	1279,98
256,80	1292,27
257,02	1255,40
257,23	1288,17
257,45	1288,17
257,67	1259,50
257,88	1306,60
258,10	1318,89
258,32	1310,70
258,53	1349,61
258,75	1259,50
258,97	1282,03
259,18	1310,70
259,40	1243,12
259,62	1239,02
259,83	1257,45
260,05	1290,22
260,27	1302,51
260,48	1255,40
260,70	1243,12
260,92	1257,45
261,13	1251,31
261,35	1259,50
261,57	1218,54
261,78	1337,32
262,00	1275,88
262,22	1333,23
262,43	1261,55
262,65	1306,60
262,86	1284,08
263,08	1290,22
263,30	1269,74
263,51	1193,97
263,73	1275,88
263,95	1214,45
264,16	1320,94
264,38	1257,45
264,60	1312,75
264,81	1294,32
265,03	1265,64
265,25	1286,12
265,46	1275,88
265,68	1234,93
265,89	1261,55
266,11	1306,60
266,33	1296,36
266,54	1288,17
266,76	1245,16
266,98	1314,80
267,19	1294,32
267,41	1265,64
267,62	1241,07
267,84	1236,97
268,06	1286,12
268,27	1249,26
268,49	1275,88
268,70	1292,27
268,92	1331,18
269,14	1224,69
269,35	1245,16
269,57	1277,93
269,79	1263,60
270,00	1234,93
270,22	1224,69
270,43	1275,88
270,65	1327,08
270,87	1267,69
271,08	1275,88
271,30	1331,18
271,51	1222,64
271,73	1267,69
271,95	1232,88
272,16	1226,73
272,38	1234,93
272,59	1247,21
272,81	1275,88
273,02	1284,08
273,24	1279,98
273,46	1230,83
273,67	1290,22
273,89	1269,74
274,10	1251,31
274,32	1277,93
274,54	1282,03
274,75	1337,32
274,97	1306,60
275,18	1279,98
275,40	1271,79
275,61	1284,08
275,83	1290,22
276,05	1245,16
276,26	1282,03
276,48	1277,93
276,69	1304,56
276,91	1304,56
277,12	1259,50
277,34	1261,55
277,55	1298,41
277,77	1249,26
277,99	1279,98
278,20	1259,50
278,42	1222,64
278,63	1224,69
278,85	1265,64
279,06	1257,45
279,28	1322,99
279,49	1279,98
279,71	1263,60
279,93	1202,16
280,14	1273,84
280,36	1243,12
280,57	1263,60
280,79	1220,59
281,00	1200,11
281,22	1241,07
281,43	1292,27
281,65	1183,73
281,86	1308,65
282,08	1208,30
282,29	1275,88
282,51	1273,84
282,73	1228,78
282,94	1312,75
283,16	1316,84
283,37	1345,52
283,59	1257,45
283,80	1290,22
284,02	1265,64
284,23	1263,60
284,45	1294,32
284,66	1218,54
284,88	1220,59
285,09	1312,75
285,31	1284,08
285,52	1288,17
285,74	1327,08
285,95	1312,75
286,17	1277,93
286,38	1230,83
286,60	1306,60
286,81	1284,08
287,03	1304,56
287,24	1290,22
287,46	1372,14
287,67	1263,60
287,89	1273,84
288,10	1183,73
288,32	1277,93
288,53	1327,08
288,75	1292,27
288,96	1267,69
289,18	1265,64
289,39	1253,36
289,61	1210,35
289,82	1251,31
290,04	1329,13
290,25	1320,94
290,47	1290,22
290,68	1241,07
290,90	1298,41
291,11	1224,69
291,33	1273,84
291,54	1314,80
291,76	1245,16
291,97	1347,56
292,18	1290,22
292,40	1273,84
292,61	1198,06
292,83	1265,64
293,04	1247,21
293,26	1226,73
293,47	1292,27
293,69	1269,74
293,90	1271,79
294,12	1277,93
294,33	1245,16
294,55	1337,32
294,76	1220,59
294,97	1284,08
295,19	1306,60
295,40	1265,64
295,62	1288,17
295,83	1343,47
296,05	1267,69
296,26	1243,12
296,48	1241,07
296,69	1361,90
296,90	1339,37
297,12	1253,36
297,33	1247,21
297,55	1277,93
297,76	1265,64
297,98	1316,84
298,19	1286,12
298,41	1333,23
298,62	1292,27
298,83	1232,88
299,05	1345,52
299,26	1234,93
299,48	1286,12
299,69	1286,12
299,90	1257,45
300,12	1243,12
300,33	1294,32
300,55	1279,98
300,76	1251,31
300,98	1273,84
301,19	1265,64
301,40	1271,79
301,62	1290,22
301,83	1314,80
302,05	1339,37
302,26	1245,16
302,47	1290,22
302,69	1275,88
302,90	1282,03
303,12	1236,97
303,33	1261,55
303,54	1234,93
303,76	1322,99
303,97	1294,32
304,19	1255,40
304,40	1206,25
304,61	1236,97
304,83	1347,56
305,04	1245,16
305,26	1302,51
305,47	1259,50
305,68	1275,88
305,90	1322,99
306,11	1275,88
306,33	1345,52
306,54	1294,32
306,75	1273,84
306,97	1290,22
307,18	1304,56
307,39	1198,06
307,61	1316,84
307,82	1275,88
308,04	1230,83
308,25	1251,31
308,46	1263,60
308,68	1263,60
308,89	1224,69
309,10	1265,64
309,32	1216,49
309,53	1302,51
309,74	1253,36
309,96	1290,22
310,17	1183,73
310,39	1228,78
310,60	1265,64
310,81	1306,60
311,03	1243,12
311,24	1294,32
311,45	1226,73
311,67	1212,40
311,88	1310,70
312,09	1230,83
312,31	1284,08
312,52	1312,75
312,73	1269,74
312,95	1230,83
313,16	1292,27
313,37	1329,13
313,59	1378,28
313,80	1226,73
314,01	1263,60
314,23	1226,73
314,44	1304,56
314,65	1255,40
314,87	1290,22
315,08	1290,22
315,29	1294,32
315,51	1277,93
315,72	1298,41
315,93	1261,55
316,15	1257,45
316,36	1249,26
316,57	1236,97
316,79	1345,52
317,00	1200,11
317,21	1277,93
317,43	1232,88
317,64	1245,16
317,85	1234,93
318,07	1187,82
318,28	1230,83
318,49	1239,02
318,70	1245,16
318,92	1282,03
319,13	1275,88
319,34	1306,60
319,56	1312,75
319,77	1263,60
319,98	1245,16
320,20	1236,97
320,41	1306,60
320,62	1261,55
320,83	1257,45
321,05	1302,51
321,26	1300,46
321,47	1247,21
321,69	1206,25
321,90	1316,84
322,11	1230,83
322,32	1245,16
322,54	1249,26
322,75	1181,68
322,96	1255,40
323,18	1277,93
323,39	1247,21
323,60	1284,08
323,81	1312,75
324,03	1322,99
324,24	1236,97
324,45	1220,59
324,66	1322,99
324,88	1245,16
325,09	1216,49
325,30	1308,65
325,52	1320,94
325,73	1306,60
325,94	1327,08
326,15	1267,69
326,37	1265,64
326,58	1222,64
326,79	1294,32
327,00	1224,69
327,22	1226,73
327,43	1257,45
327,64	1292,27
327,85	1259,50
328,07	1265,64
328,28	1296,36
328,49	1320,94
328,70	1232,88
328,92	1320,94
329,13	1200,11
329,34	1255,40
329,55	1333,23
329,76	1265,64
329,98	1271,79
330,19	1173,49
330,40	1249,26
330,61	1345,52
330,83	1318,89
331,04	1255,40
331,25	1294,32
331,46	1322,99
331,68	1327,08
331,89	1335,28
332,10	1298,41
332,31	1296,36
332,52	1294,32
332,74	1255,40
332,95	1308,65
333,16	1325,04
333,37	1259,50
333,58	1341,42
333,80	1212,40
334,01	1214,45
334,22	1310,70
334,43	1220,59
334,64	1257,45
334,86	1257,45
335,07	1202,16
335,28	1259,50
335,49	1322,99
335,70	1288,17
335,92	1236,97
336,13	1243,12
336,34	1259,50
336,55	1275,88
336,76	1304,56
336,98	1239,02
337,19	1236,97
337,40	1294,32
337,61	1224,69
337,82	1247,21
338,04	1282,03
338,25	1259,50
338,46	1277,93
338,67	1331,18
338,88	1306,60
339,09	1200,11
339,31	1353,71
339,52	1339,37
339,73	1286,12
339,94	1282,03
340,15	1343,47
340,36	1224,69
340,58	1316,84
340,79	1257,45
341,00	1273,84
341,21	1296,36
341,42	1288,17
341,63	1282,03
341,85	1277,93
342,06	1300,46
342,27	1210,35
342,48	1245,16
342,69	1290,22
342,90	1204,21
343,12	1294,32
343,33	1239,02
343,54	1253,36
343,75	1298,41
343,96	1234,93
344,17	1251,31
344,38	1277,93
344,60	1279,98
344,81	1251,31
345,02	1220,59
345,23	1253,36
345,44	1290,22
345,65	1255,40
345,86	1318,89
346,07	1298,41
346,29	1271,79
346,50	1263,60
346,71	1177,58
346,92	1290,22
347,13	1306,60
347,34	1296,36
347,55	1187,82
347,76	1310,70
347,98	1312,75
348,19	1341,42
348,40	1296,36
348,61	1294,32
348,82	1349,61
349,03	1243,12
349,24	1265,64
349,45	1251,31
349,66	1325,04
349,88	1273,84
350,09	1159,15
350,30	1269,74
350,51	1310,70
350,72	1298,41
350,93	1259,50
351,14	1282,03
351,35	1288,17
351,56	1329,13
351,77	1239,02
351,99	1234,93
352,20	1329,13
352,41	1236,97
352,62	1318,89
352,83	1284,08
353,04	1282,03
353,25	1316,84
353,46	1318,89
353,67	1380,33
353,88	1228,78
354,09	1298,41
354,30	1279,98
354,52	1273,84
354,73	1247,21
354,94	1275,88
355,15	1304,56
355,36	1290,22
355,57	1257,45
355,78	1236,97
355,99	1243,12
356,20	1261,55
356,41	1271,79
356,62	1265,64
356,83	1312,75
357,04	1331,18
357,25	1171,44
357,46	1257,45
357,68	1212,40
357,89	1204,21
358,10	1292,27
358,31	1333,23
358,52	1255,40
358,73	1249,26
358,94	1241,07
359,15	1212,40
359,36	1273,84
359,57	1196,01
359,78	1275,88
359,99	1329,13
360,20	1325,04
360,41	1210,35
360,62	1234,93
360,83	1259,50
361,04	1269,74
361,25	1304,56
361,46	1320,94
361,67	1300,46
361,88	1318,89
362,09	1220,59
362,30	1255,40
362,51	1290,22
362,72	1239,02
362,93	1286,12
363,14	1251,31
363,35	1220,59
363,56	1298,41
363,78	1310,70
363,99	1314,80
364,20	1279,98
364,41	1230,83
364,62	1277,93
364,83	1273,84
365,04	1343,47
365,25	1279,98
365,46	1318,89
365,67	1220,59
365,88	1204,21
366,09	1226,73
366,30	1239,02
366,51	1325,04
366,72	1314,80
366,93	1261,55
367,14	1284,08
367,35	1325,04
367,56	1206,25
367,77	1294,32
367,98	1335,28
368,18	1251,31
368,39	1275,88
368,60	1208,30
368,81	1234,93
369,02	1320,94
369,23	1255,40
369,44	1304,56
369,65	1212,40
369,86	1327,08
370,07	1249,26
370,28	1312,75
370,49	1269,74
370,70	1296,36
370,91	1374,19
371,12	1275,88
371,33	1335,28
371,54	1300,46
371,75	1236,97
371,96	1249,26
372,17	1263,60
372,38	1271,79
372,59	1230,83
372,80	1310,70
373,01	1314,80
373,22	1255,40
373,43	1314,80
373,64	1228,78
373,85	1345,52
374,06	1261,55
374,26	1277,93
374,47	1259,50
374,68	1306,60
374,89	1259,50
375,10	1286,12
375,31	1329,13
375,52	1325,04
375,73	1257,45
375,94	1204,21
376,15	1347,56
376,36	1279,98
376,57	1290,22
376,78	1245,16
376,99	1273,84
377,20	1249,26
377,40	1255,40
377,61	1345,52
377,82	1251,31
378,03	1298,41
378,24	1263,60
378,45	1249,26
378,66	1247,21
378,87	1243,12
379,08	1279,98
379,29	1273,84
379,50	1282,03
379,71	1312,75
379,91	1273,84
380,12	1302,51
380,33	1261,55
380,54	1257,45
380,75	1245,16
380,96	1196,01
381,17	1316,84
381,38	1279,98
381,59	1345,52
381,80	1245,16
382,00	1318,89
382,21	1314,80
382,42	1298,41
382,63	1267,69
382,84	1284,08
383,05	1212,40
383,26	1304,56
383,47	1245,16
383,68	1312,75
383,88	1257,45
384,09	1271,79
384,30	1243,12
384,51	1286,12
384,72	1282,03
384,93	1294,32
385,14	1273,84
385,35	1282,03
385,55	1257,45
385,76	1325,04
385,97	1277,93
386,18	1255,40
386,39	1247,21
386,60	1193,97
386,81	1302,51
387,02	1302,51
387,22	1292,27
387,43	1208,30
387,64	1316,84
387,85	1284,08
388,06	1230,83
388,27	1251,31
388,48	1269,74
388,68	1259,50
388,89	1290,22
389,10	1265,64
389,31	1265,64
389,52	1275,88
389,73	1292,27
389,93	1298,41
390,14	1251,31
390,35	1296,36
390,56	1236,97
390,77	1271,79
390,98	1236,97
391,18	1329,13
391,39	1320,94
391,60	1306,60
391,81	1230,83
392,02	1257,45
392,23	1232,88
392,43	1271,79
392,64	1290,22
392,85	1279,98
393,06	1218,54
393,27	1304,56
393,47	1247,21
393,68	1320,94
393,89	1191,92
394,10	1241,07
394,31	1316,84
394,52	1263,60
394,72	1185,77
394,93	1269,74
395,14	1331,18
395,35	1298,41
395,56	1261,55
395,76	1249,26
395,97	1310,70
396,18	1277,93
396,39	1253,36
396,60	1273,84
396,80	1267,69
397,01	1279,98
397,22	1271,79
397,43	1220,59
397,64	1320,94
397,84	1292,27
398,05	1316,84
398,26	1226,73
398,47	1183,73
398,67	1322,99
398,88	1261,55
399,09	1279,98
399,30	1193,97
399,51	1310,70
399,71	1345,52
399,92	1271,79
400,13	1257,45
400,34	1304,56
400,54	1282,03
400,75	1226,73
400,96	1193,97
401,17	1341,42
401,37	1337,32
401,58	1327,08
401,79	1239,02
402,00	1355,76
402,21	1279,98
402,41	1247,21
402,62	1196,01
402,83	1284,08
403,04	1249,26
403,24	1300,46
403,45	1226,73
403,66	1296,36
403,87	1282,03
404,07	1259,50
404,28	1286,12
404,49	1253,36
404,70	1286,12
404,90	1255,40
405,11	1232,88
405,32	1239,02
405,52	1247,21
405,73	1343,47
405,94	1241,07
406,15	1271,79
406,35	1316,84
406,56	1314,80
406,77	1241,07
406,98	1310,70
407,18	1316,84
407,39	1263,60
407,60	1259,50
407,80	1288,17
408,01	1277,93
408,22	1273,84
408,43	1261,55
408,63	1269,74
408,84	1296,36
409,05	1273,84
409,25	1292,27
409,46	1300,46
409,67	1161,20
409,88	1273,84
410,08	1214,45
410,29	1198,06
410,50	1277,93
410,70	1263,60
410,91	1271,79
411,12	1353,71
411,32	1284,08
411,53	1290,22
411,74	1251,31
411,95	1247,21
412,15	1292,27
412,36	1236,97
412,57	1298,41
412,77	1241,07
412,98	1300,46
413,19	1261,55
413,39	1220,59
413,60	1243,12
413,81	1267,69
414,01	1306,60
414,22	1353,71
414,43	1267,69
414,63	1327,08
414,84	1277,93
415,05	1277,93
415,25	1298,41
415,46	1259,50
415,67	1255,40
415,87	1292,27
416,08	1271,79
416,29	1263,60
416,49	1292,27
416,70	1273,84
416,91	1277,93
417,11	1269,74
417,32	1300,46
417,53	1214,45
417,73	1206,25
417,94	1273,84
418,15	1236,97
418,35	1210,35
418,56	1339,37
418,77	1269,74
418,97	1318,89
419,18	1322,99
419,38	1339,37
419,59	1212,40
419,80	1277,93
420,00	1314,80
420,21	1288,17
420,42	1286,12
420,62	1257,45
420,83	1247,21
421,04	1302,51
421,24	1339,37
421,45	1308,65
421,65	1239,02
421,86	1259,50
422,07	1271,79
422,27	1230,83
422,48	1310,70
422,69	1265,64
422,89	1294,32
423,10	1241,07
423,30	1200,11
423,51	1306,60
423,72	1277,93
423,92	1279,98
424,13	1214,45
424,33	1241,07
424,54	1327,08
424,75	1314,80
424,95	1296,36
425,16	1288,17
425,36	1265,64
425,57	1312,75
425,78	1259,50
425,98	1230,83
426,19	1277,93
426,39	1259,50
426,60	1212,40
426,81	1277,93
427,01	1255,40
427,22	1265,64
427,42	1339,37
427,63	1298,41
427,83	1249,26
428,04	1273,84
428,25	1308,65
428,45	1208,30
428,66	1191,92
428,86	1232,88
429,07	1255,40
429,28	1304,56
429,48	1249,26
429,69	1269,74
429,89	1222,64
430,10	1269,74
430,30	1298,41
430,51	1298,41
430,71	1271,79
430,92	1277,93
431,13	1288,17
431,33	1304,56
431,54	1302,51
431,74	1259,50
431,95	1241,07
432,15	1265,64
432,36	1239,02
432,56	1236,97
432,77	1224,69
432,98	1310,70
433,18	1320,94
433,39	1212,40
433,59	1224,69
433,80	1216,49
434,00	1261,55
434,21	1290,22
434,41	1218,54
434,62	1345,52
434,82	1249,26
435,03	1277,93
435,23	1306,60
435,44	1220,59
435,64	1290,22
435,85	1339,37
436,06	1368,04
436,26	1320,94
436,47	1288,17
436,67	1271,79
436,88	1247,21
437,08	1236,97
437,29	1290,22
437,49	1327,08
437,70	1327,08
437,90	1263,60
438,11	1282,03
438,31	1271,79
438,52	1308,65
438,72	1202,16
438,93	1320,94
439,13	1282,03
439,34	1241,07
439,54	1325,04
439,75	1261,55
439,95	1253,36
440,16	1267,69
440,36	1253,36
440,57	1279,98
440,77	1257,45
440,98	1318,89
441,18	1249,26
441,39	1265,64
441,59	1232,88
441,80	1335,28
442,00	1296,36
442,21	1286,12
442,41	1265,64
442,62	1282,03
442,82	1271,79
443,02	1279,98
443,23	1294,32
443,43	1232,88
443,64	1257,45
443,84	1271,79
444,05	1259,50
444,25	1300,46
444,46	1349,61
444,66	1249,26
444,87	1224,69
445,07	1259,50
445,28	1249,26
445,48	1206,25
445,69	1304,56
445,89	1298,41
446,09	1263,60
446,30	1243,12
446,50	1314,80
446,71	1269,74
446,91	1183,73
447,12	1312,75
447,32	1327,08
447,53	1263,60
447,73	1290,22
447,93	1255,40
448,14	1339,37
448,34	1363,95
448,55	1263,60
448,75	1247,21
448,96	1318,89
449,16	1304,56
449,36	1253,36
449,57	1329,13
449,77	1216,49
449,98	1230,83
450,18	1296,36
450,39	1257,45
450,59	1310,70
450,79	1253,36
451,00	1294,32
451,20	1234,93
451,41	1286,12
451,61	1343,47
451,81	1218,54
452,02	1220,59
452,22	1255,40
452,43	1345,52
452,63	1320,94
452,84	1175,53
453,04	1282,03
453,24	1343,47
453,45	1279,98
453,65	1239,02
453,86	1306,60
454,06	1255,40
454,26	1298,41
454,47	1273,84
454,67	1251,31
454,87	1247,21
455,08	1220,59
455,28	1316,84
455,49	1269,74
455,69	1187,82
455,89	1327,08
456,10	1255,40
456,30	1294,32
456,51	1335,28
456,71	1288,17
456,91	1255,40
457,12	1271,79
457,32	1255,40
457,52	1263,60
457,73	1273,84
457,93	1257,45
458,14	1273,84
458,34	1263,60
458,54	1241,07
458,75	1224,69
458,95	1306,60
459,15	1249,26
459,36	1255,40
459,56	1296,36
459,76	1271,79
459,97	1329,13
460,17	1292,27
460,37	1271,79
460,58	1277,93
460,78	1275,88
460,99	1269,74
461,19	1327,08
461,39	1318,89
461,60	1232,88
461,80	1337,32
462,00	1337,32
462,21	1236,97
462,41	1304,56
462,61	1257,45
462,82	1284,08
463,02	1306,60
463,22	1286,12
463,43	1310,70
463,63	1245,16
463,83	1241,07
464,04	1232,88
464,24	1253,36
464,44	1267,69
464,64	1179,63
464,85	1306,60
465,05	1206,25
465,25	1329,13
465,46	1253,36
465,66	1288,17
465,86	1327,08
466,07	1298,41
466,27	1218,54
466,47	1290,22
466,68	1226,73
466,88	1312,75
467,08	1294,32
467,29	1329,13
467,49	1353,71
467,69	1263,60
467,89	1239,02
468,10	1286,12
468,30	1189,87
468,50	1325,04
468,71	1218,54
468,91	1288,17
469,11	1232,88
469,31	1261,55
469,52	1202,16
469,72	1251,31
469,92	1241,07
470,13	1294,32
470,33	1263,60
470,53	1282,03
470,73	1306,60
470,94	1269,74
471,14	1271,79
471,34	1347,56
471,54	1204,21
471,75	1249,26
471,95	1279,98
472,15	1284,08
472,36	1279,98
472,56	1220,59
472,76	1273,84
472,96	1255,40
473,17	1284,08
473,37	1277,93
473,57	1269,74
473,77	1306,60
473,98	1275,88
474,18	1189,87
474,38	1333,23
474,58	1273,84
474,79	1265,64
474,99	1269,74
475,19	1228,78
475,39	1249,26
475,60	1318,89
475,80	1251,31
476,00	1314,80
476,20	1179,63
476,41	1245,16
476,61	1314,80
476,81	1261,55
477,01	1249,26
477,21	1155,05
477,42	1296,36
477,62	1232,88
477,82	1214,45
478,02	1269,74
478,23	1241,07
478,43	1259,50
478,63	1310,70
478,83	1206,25
479,03	1261,55
479,24	1308,65
479,44	1312,75
479,64	1236,97
479,84	1284,08
480,04	1253,36
480,25	1263,60
480,45	1243,12
480,65	1288,17
480,85	1257,45
481,06	1286,12
481,26	1318,89
481,46	1347,56
481,66	1255,40
481,86	1304,56
482,06	1296,36
482,27	1288,17
482,47	1277,93
482,67	1286,12
482,87	1314,80
483,07	1255,40
483,28	1224,69
483,48	1271,79
483,68	1271,79
483,88	1269,74
484,08	1300,46
484,29	1284,08
484,49	1271,79
484,69	1290,22
484,89	1296,36
485,09	1198,06
485,29	1251,31
485,50	1241,07
485,70	1171,44
485,90	1259,50
486,10	1236,97
486,30	1314,80
486,50	1275,88
486,71	1257,45
486,91	1325,04
487,11	1322,99
487,31	1228,78
487,51	1222,64
487,71	1279,98
487,91	1327,08
488,12	1222,64
488,32	1288,17
488,52	1279,98
488,72	1261,55
488,92	1255,40
489,12	1239,02
489,32	1261,55
489,53	1325,04
489,73	1249,26
489,93	1269,74
490,13	1263,60
490,33	1347,56
490,53	1232,88
490,73	1214,45
490,94	1255,40
491,14	1337,32
491,34	1302,51
491,54	1320,94
491,74	1247,21
491,94	1329,13
492,14	1247,21
492,34	1257,45
492,54	1230,83
492,75	1284,08
492,95	1265,64
493,15	1345,52
493,35	1193,97
493,55	1255,40
493,75	1191,92
493,95	1232,88
494,15	1279,98
494,35	1253,36
494,56	1288,17
494,76	1353,71
494,96	1271,79
495,16	1339,37
495,36	1275,88
495,56	1296,36
495,76	1204,21
495,96	1253,36
496,16	1245,16
496,36	1255,40
496,56	1212,40
496,77	1296,36
496,97	1247,21
497,17	1304,56
497,37	1265,64
497,57	1257,45
497,77	1300,46
497,97	1304,56
498,17	1230,83
498,37	1249,26
498,57	1232,88
498,77	1269,74
498,97	1277,93
499,17	1302,51
499,38	1271,79
499,58	1257,45
499,78	1329,13
499,98	1298,41
500,18	1277,93
500,38	1247,21
500,58	1327,08
500,78	1314,80
500,98	1247,21
501,18	1255,40
501,38	1318,89
501,58	1298,41
501,78	1290,22
501,98	1228,78
502,18	1251,31
502,38	1269,74
502,58	1294,32
502,78	1216,49
502,98	1271,79
503,18	1247,21
503,38	1210,35
503,59	1286,12
503,79	1253,36
503,99	1290,22
504,19	1271,79
504,39	1271,79
504,59	1308,65
504,79	1337,32
504,99	1314,80
505,19	1222,64
505,39	1271,79
505,59	1331,18
505,79	1251,31
505,99	1249,26
506,19	1282,03
506,39	1304,56
506,59	1284,08
506,79	1249,26
506,99	1255,40
507,19	1279,98
507,39	1251,31
507,59	1267,69
507,79	1234,93
507,99	1214,45
508,19	1279,98
508,39	1322,99
508,59	1355,76
508,79	1300,46
508,99	1279,98
509,19	1214,45
509,39	1232,88
509,59	1220,59
509,79	1265,64
509,99	1263,60
510,19	1255,40
510,39	1318,89
510,59	1224,69
510,79	1286,12
510,99	1279,98
511,19	1279,98
511,39	1277,93
511,59	1298,41
511,79	1218,54
511,99	1277,93
512,19	1279,98
512,38	1273,84
512,58	1234,93
512,78	1294,32
512,98	1277,93
513,18	1284,08
513,38	1279,98
513,58	1282,03
513,78	1333,23
513,98	1296,36
514,18	1273,84
514,38	1310,70
514,58	1249,26
514,78	1249,26
514,98	1286,12
515,18	1316,84
515,38	1239,02
515,58	1189,87
515,78	1241,07
515,98	1253,36
516,18	1277,93
516,38	1193,97
516,57	1200,11
516,77	1296,36
516,97	1224,69
517,17	1263,60
517,37	1343,47
517,57	1329,13
517,77	1265,64
517,97	1292,27
518,17	1245,16
518,37	1290,22
518,57	1335,28
518,77	1255,40
518,97	1314,80
519,16	1339,37
519,36	1210,35
519,56	1294,32
519,76	1263,60
519,96	1288,17
520,16	1392,62
520,36	1327,08
520,56	1392,62
520,76	1376,24
520,96	1224,69
521,16	1310,70
521,35	1298,41
521,55	1273,84
521,75	1327,08
521,95	1314,80
522,15	1267,69
522,35	1265,64
522,55	1255,40
522,75	1286,12
522,95	1255,40
523,14	1290,22
523,34	1366,00
523,54	1282,03
523,74	1282,03
523,94	1273,84
524,14	1247,21
524,34	1312,75
524,54	1300,46
524,73	1247,21
524,93	1279,98
525,13	1265,64
525,33	1265,64
525,53	1253,36
525,73	1318,89
525,93	1275,88
526,13	1210,35
526,32	1259,50
526,52	1267,69
526,72	1271,79
526,92	1282,03
527,12	1243,12
527,32	1220,59
527,52	1318,89
527,71	1290,22
527,91	1273,84
528,11	1335,28
528,31	1277,93
528,51	1228,78
528,71	1345,52
528,90	1269,74
529,10	1230,83
529,30	1349,61
529,50	1314,80
529,70	1277,93
529,90	1325,04
530,09	1267,69
530,29	1298,41
530,49	1198,06
530,69	1208,30
530,89	1249,26
531,09	1265,64
531,28	1306,60
531,48	1204,21
531,68	1271,79
531,88	1290,22
532,08	1265,64
532,28	1277,93
532,47	1275,88
532,67	1273,84
532,87	1210,35
533,07	1232,88
533,27	1308,65
533,46	1288,17
533,66	1218,54
533,86	1292,27
534,06	1198,06
534,26	1265,64
534,45	1314,80
534,65	1306,60
534,85	1226,73
535,05	1228,78
535,25	1290,22
535,44	1228,78
535,64	1243,12
535,84	1288,17
536,04	1325,04
536,24	1245,16
536,43	1282,03
536,63	1300,46
536,83	1171,44
537,03	1282,03
537,22	1251,31
537,42	1339,37
537,62	1286,12
537,82	1247,21
538,02	1294,32
538,21	1298,41
538,41	1308,65
538,61	1294,32
538,81	1271,79
539,00	1304,56
539,20	1316,84
539,40	1302,51
539,60	1296,36
539,79	1257,45
539,99	1263,60
540,19	1263,60
540,39	1339,37
540,58	1318,89
540,78	1232,88
540,98	1257,45
541,18	1261,55
541,37	1269,74
541,57	1234,93
541,77	1269,74
541,97	1286,12
542,16	1282,03
542,36	1294,32
542,56	1222,64
542,76	1329,13
542,95	1345,52
543,15	1296,36
543,35	1329,13
543,54	1253,36
543,74	1214,45
543,94	1236,97
544,14	1288,17
544,33	1349,61
544,53	1337,32
544,73	1257,45
544,93	1300,46
545,12	1331,18
545,32	1298,41
545,52	1202,16
545,71	1329,13
545,91	1339,37
546,11	1263,60
546,30	1263,60
546,50	1214,45
546,70	1288,17
546,90	1290,22
547,09	1345,52
547,29	1325,04
547,49	1257,45
547,68	1267,69
547,88	1257,45
548,08	1267,69
548,27	1290,22
548,47	1228,78
548,67	1230,83
548,87	1243,12
549,06	1222,64
549,26	1288,17
549,46	1290,22
549,65	1298,41
549,85	1269,74
550,05	1206,25
550,24	1214,45
550,44	1259,50
550,64	1314,80
550,83	1296,36
551,03	1331,18
551,23	1241,07
551,42	1210,35
551,62	1269,74
551,82	1234,93
552,01	1314,80
552,21	1249,26
552,41	1322,99
552,60	1202,16
552,80	1271,79
553,00	1271,79
553,19	1308,65
553,39	1310,70
553,59	1335,28
553,78	1306,60
553,98	1239,02
554,17	1284,08
554,37	1275,88
554,57	1253,36
554,76	1247,21
554,96	1212,40
555,16	1273,84
555,35	1284,08
555,55	1214,45
555,75	1271,79
555,94	1292,27
556,14	1226,73
556,33	1279,98
556,53	1286,12
556,73	1282,03
556,92	1232,88
557,12	1345,52
557,32	1224,69
557,51	1329,13
557,71	1343,47
557,90	1329,13
558,10	1249,26
558,30	1351,66
558,49	1187,82
558,69	1271,79
558,88	1290,22
559,08	1236,97
559,28	1214,45
559,47	1232,88
559,67	1267,69
559,86	1325,04
560,06	1279,98
560,26	1269,74
560,45	1239,02
560,65	1257,45
560,84	1292,27
561,04	1218,54
561,24	1206,25
561,43	1249,26
561,63	1210,35
561,82	1261,55
562,02	1284,08
562,22	1306,60
562,41	1247,21
562,61	1282,03
562,80	1269,74
563,00	1333,23
563,19	1269,74
563,39	1325,04
563,59	1325,04
563,78	1282,03
563,98	1277,93
564,17	1224,69
564,37	1316,84
564,56	1341,42
564,76	1243,12
564,96	1298,41
565,15	1277,93
565,35	1275,88
565,54	1320,94
565,74	1241,07
565,93	1200,11
566,13	1234,93
566,32	1288,17
566,52	1310,70
566,71	1337,32
566,91	1275,88
567,11	1302,51
567,30	1259,50
567,50	1265,64
567,69	1308,65
567,89	1271,79
568,08	1185,77
568,28	1302,51
568,47	1247,21
568,67	1275,88
568,86	1357,80
569,06	1267,69
569,25	1277,93
569,45	1302,51
569,64	1259,50
569,84	1292,27
570,04	1290,22
570,23	1216,49
570,43	1294,32
570,62	1333,23
570,82	1265,64
571,01	1249,26
571,21	1232,88
571,40	1286,12
571,60	1232,88
571,79	1290,22
571,99	1253,36
572,18	1226,73
572,38	1310,70
572,57	1228,78
572,77	1265,64
572,96	1271,79
573,16	1308,65
573,35	1325,04
573,55	1243,12
573,74	1261,55
573,94	1325,04
574,13	1230,83
574,33	1308,65
574,52	1279,98
574,71	1322,99
574,91	1316,84
575,10	1310,70
575,30	1282,03
575,49	1265,64
575,69	1249,26
575,88	1218,54
576,08	1277,93
576,27	1298,41
576,47	1294,32
576,66	1245,16
576,86	1236,97
577,05	1224,69
577,25	1318,89
577,44	1220,59
577,64	1269,74
577,83	1318,89
578,02	1279,98
578,22	1318,89
578,41	1253,36
578,61	1179,63
578,80	1284,08
579,00	1329,13
579,19	1249,26
579,39	1239,02
579,58	1347,56
579,77	1279,98
579,97	1257,45
580,16	1263,60
580,36	1284,08
580,55	1322,99
580,75	1251,31
580,94	1310,70
581,13	1273,84
581,33	1294,32
581,52	1298,41
581,72	1318,89
581,91	1255,40
582,11	1267,69
582,30	1298,41
582,49	1232,88
582,69	1271,79
582,88	1300,46
583,08	1300,46
583,27	1296,36
583,47	1284,08
583,66	1329,13
583,85	1249,26
584,05	1255,40
584,24	1327,08
584,44	1282,03
584,63	1296,36
584,82	1296,36
585,02	1261,55
585,21	1337,32
585,41	1304,56
585,60	1312,75
585,79	1241,07
585,99	1327,08
586,18	1335,28
586,37	1261,55
586,57	1255,40
586,76	1282,03
586,96	1341,42
587,15	1298,41
587,34	1261,55
587,54	1249,26
587,73	1263,60
587,93	1288,17
588,12	1300,46
588,31	1306,60
588,51	1306,60
588,70	1271,79
588,89	1333,23
589,09	1304,56
589,28	1253,36
589,47	1210,35
589,67	1198,06
589,86	1310,70
590,06	1241,07
590,25	1265,64
590,44	1306,60
590,64	1347,56
590,83	1279,98
591,02	1320,94
591,22	1140,72
591,41	1277,93
591,60	1222,64
591,80	1298,41
591,99	1296,36
592,18	1263,60
592,38	1230,83
592,57	1234,93
592,76	1245,16
592,96	1288,17
593,15	1302,51
593,34	1300,46
593,54	1298,41
593,73	1288,17
593,92	1306,60
594,12	1204,21
594,31	1269,74
594,50	1232,88
594,70	1261,55
594,89	1288,17
595,08	1277,93
595,28	1275,88
595,47	1265,64
595,66	1322,99
595,86	1243,12
596,05	1257,45
596,24	1191,92
596,43	1216,49
596,63	1290,22
596,82	1273,84
597,01	1232,88
597,21	1347,56
597,40	1216,49
597,59	1314,80
597,79	1212,40
597,98	1333,23
598,17	1241,07
598,36	1245,16
598,56	1308,65
598,75	1306,60
598,94	1275,88
599,14	1286,12
599,33	1290,22
599,52	1292,27
599,71	1265,64
599,91	1247,21
600,10	1232,88
600,29	1239,02
600,48	1310,70
600,68	1302,51
600,87	1290,22
601,06	1208,30
601,26	1322,99
601,45	1269,74
601,64	1366,00
601,83	1294,32
602,03	1288,17
602,22	1261,55
602,41	1277,93
602,60	1320,94
602,80	1275,88
602,99	1277,93
603,18	1339,37
603,37	1290,22
603,57	1312,75
603,76	1290,22
603,95	1241,07
604,14	1265,64
604,34	1230,83
604,53	1357,80
604,72	1269,74
604,91	1263,60
605,10	1224,69
605,30	1214,45
605,49	1265,64
605,68	1300,46
605,87	1267,69
606,07	1282,03
606,26	1249,26
606,45	1298,41
606,64	1234,93
606,84	1247,21
607,03	1261,55
607,22	1284,08
607,41	1251,31
607,60	1382,38
607,80	1312,75
607,99	1259,50
608,18	1239,02
608,37	1331,18
608,56	1226,73
608,76	1265,64
608,95	1288,17
609,14	1196,01
609,33	1239,02
609,52	1208,30
609,72	1247,21
609,91	1275,88
610,10	1224,69
610,29	1310,70
610,48	1249,26
610,68	1333,23
610,87	1222,64
611,06	1312,75
611,25	1236,97
611,44	1271,79
611,63	1308,65
611,83	1247,21
612,02	1269,74
612,21	1296,36
612,40	1314,80
612,59	1302,51
612,79	1267,69
612,98	1302,51
613,17	1269,74
613,36	1255,40
613,55	1224,69
613,74	1304,56
613,93	1261,55
614,13	1249,26
614,32	1298,41
614,51	1249,26
614,70	1239,02
614,89	1302,51
615,08	1236,97
615,28	1265,64
615,47	1290,22
615,66	1298,41
615,85	1320,94
616,04	1255,40
616,23	1277,93
616,42	1277,93
616,62	1259,50
616,81	1300,46
617,00	1359,85
617,19	1345,52
617,38	1286,12
617,57	1284,08
617,76	1239,02
617,95	1226,73
618,15	1273,84
618,34	1253,36
618,53	1249,26
618,72	1279,98
618,91	1331,18
619,10	1333,23
619,29	1191,92
619,48	1279,98
619,68	1288,17
619,87	1267,69
620,06	1273,84
620,25	1247,21
620,44	1241,07
620,63	1314,80
620,82	1232,88
621,01	1296,36
621,20	1284,08
621,39	1206,25
621,59	1339,37
621,78	1286,12
621,97	1284,08
622,16	1239,02
622,35	1275,88
622,54	1310,70
622,73	1263,60
622,92	1269,74
623,11	1300,46
623,30	1253,36
623,49	1277,93
623,68	1275,88
623,88	1294,32
624,07	1245,16
624,26	1302,51
624,45	1286,12
624,64	1241,07
624,83	1284,08
625,02	1245,16
625,21	1298,41
625,40	1284,08
625,59	1251,31
625,78	1345,52
625,97	1378,28
626,16	1259,50
626,35	1306,60
626,54	1351,66
626,74	1259,50
626,93	1259,50
627,12	1253,36
627,31	1226,73
627,50	1247,21
627,69	1329,13
627,88	1267,69
628,07	1234,93
628,26	1261,55
628,45	1232,88
628,64	1255,40
628,83	1277,93
629,02	1226,73
629,21	1200,11
629,40	1298,41
629,59	1333,23
629,78	1345,52
629,97	1255,40
630,16	1284,08
630,35	1349,61
630,54	1318,89
630,73	1245,16
630,92	1320,94
631,11	1318,89
631,30	1333,23
631,49	1320,94
631,68	2002,91
631,87	5529,52
632,06	20326,09
632,25	40201,63
632,44	30797,35
632,63	24428,17
632,82	20328,14
633,01	5971,88
633,20	3239,89
633,39	3106,77
633,58	2549,72
633,77	2113,50
633,96	1933,28
634,15	1966,05
634,34	1804,26
634,53	1724,39
634,72	1621,99
634,91	1585,13
635,10	1560,55
635,29	1566,70
635,48	1466,35
635,67	1533,93
635,86	1488,87
636,05	1429,48
636,24	1390,57
636,43	1458,15
636,62	1421,29
636,81	1396,71
637,00	1357,80
637,19	1370,09
637,38	1325,04
637,57	1325,04
637,76	1312,75
637,95	1339,37
638,14	1302,51
638,33	1333,23
638,52	1361,90
638,71	1306,60
638,89	1298,41
639,08	1355,76
639,27	1204,21
639,46	1271,79
639,65	1277,93
639,84	1318,89
640,03	1173,49
640,22	1226,73
640,41	1331,18
640,60	1273,84
640,79	1261,55
640,98	1267,69
641,17	1257,45
641,36	1275,88
641,55	1249,26
641,74	1257,45
641,92	1411,05
642,11	1267,69
642,30	1314,80
642,49	1288,17
642,68	1329,13
642,87	1202,16
643,06	1327,08
643,25	1314,80
643,44	1269,74
643,63	1320,94
643,82	1343,47
644,00	1306,60
644,19	1351,66
644,38	1300,46
644,57	1275,88
644,76	1308,65
644,95	1314,80
645,14	1284,08
645,33	1232,88
645,52	1290,22
645,71	1325,04
645,89	1320,94
646,08	1208,30
646,27	1347,56
646,46	1306,60
646,65	1314,80
646,84	1335,28
647,03	1224,69
647,22	1259,50
647,40	1290,22
647,59	1306,60
647,78	1271,79
647,97	1286,12
648,16	1193,97
648,35	1282,03
648,54	1257,45
648,73	1265,64
648,91	1310,70
649,10	1228,78
649,29	1288,17
649,48	1222,64
649,67	1339,37
649,86	1306,60
650,05	1271,79
650,23	1222,64
650,42	1292,27
650,61	1224,69
650,80	1253,36
650,99	1329,13
651,18	1277,93
651,36	1263,60
651,55	1304,56
651,74	1230,83
651,93	1204,21
652,12	1275,88
652,31	1269,74
652,49	1300,46
652,68	1275,88
652,87	1284,08
653,06	1279,98
653,25	1234,93
653,44	1236,97
653,62	1322,99
653,81	1234,93
654,00	1347,56
654,19	1302,51
654,38	1200,11
654,56	1273,84
654,75	1263,60
654,94	1380,33
655,13	1259,50
655,32	1279,98
655,51	1290,22
655,69	1181,68
655,88	1239,02
656,07	1267,69
656,26	1259,50
656,45	1247,21
656,63	1220,59
656,82	1234,93
657,01	1345,52
657,20	1206,25
657,38	1327,08
657,57	1296,36
657,76	1255,40
657,95	1355,76
658,14	1214,45
658,32	1279,98
658,51	1245,16
658,70	1253,36
658,89	1212,40
659,08	1290,22
659,26	1234,93
659,45	1273,84
659,64	1288,17
659,83	1239,02
660,01	1279,98
660,20	1292,27
660,39	1271,79
660,58	1247,21
660,76	1234,93
660,95	1275,88
661,14	1239,02
661,33	1257,45
661,51	1273,84
661,70	1251,31
661,89	1243,12
662,08	1243,12
662,26	1236,97
662,45	1298,41
662,64	1310,70
662,83	1259,50
663,01	1232,88
663,20	1234,93
663,39	1273,84
663,58	1327,08
663,76	1312,75
663,95	1288,17
664,14	1239,02
664,32	1232,88
664,51	1257,45
664,70	1253,36
664,89	1249,26
665,07	1306,60
665,26	1263,60
665,45	1277,93
665,64	1290,22
665,82	1232,88
666,01	1265,64
666,20	1290,22
666,38	1359,85
666,57	1204,21
666,76	1320,94
666,95	1241,07
667,13	1226,73
667,32	1220,59
667,51	1331,18
667,69	1310,70
667,88	1273,84
668,07	1310,70
668,25	1277,93
668,44	1257,45
668,63	1255,40
668,81	1257,45
669,00	1294,32
669,19	1261,55
669,38	1249,26
669,56	1269,74
669,75	1222,64
669,94	1226,73
670,12	1279,98
670,31	1214,45
670,50	1286,12
670,68	1277,93
670,87	1337,32
671,06	1224,69
671,24	1269,74
671,43	1249,26
671,62	1318,89
671,80	1175,53
671,99	1308,65
672,18	1216,49
672,36	1267,69
672,55	1288,17
672,74	1292,27
672,92	1288,17
673,11	1259,50
673,29	1310,70
673,48	1269,74
673,67	1222,64
673,85	1243,12
674,04	1273,84
674,23	1343,47
674,41	1306,60
674,60	1312,75
674,79	1249,26
674,97	1277,93
675,16	1277,93
675,34	1310,70
675,53	1263,60
675,72	1261,55
675,90	1331,18
676,09	1251,31
676,28	1239,02
676,46	1241,07
676,65	1204,21
676,83	1230,83
677,02	1269,74
677,21	1271,79
677,39	1277,93
677,58	1306,60
677,77	1224,69
677,95	1282,03
678,14	1286,12
678,32	1300,46
678,51	1322,99
678,70	1216,49
678,88	1275,88
679,07	1339,37
679,25	1245,16
679,44	1351,66
679,63	1265,64
679,81	1251,31
680,00	1222,64
680,18	1241,07
680,37	1230,83
680,55	1230,83
680,74	1241,07
680,93	1286,12
681,11	1290,22
681,30	1245,16
681,48	1263,60
681,67	1275,88
681,85	1196,01
682,04	1226,73
682,23	1269,74
682,41	1279,98
682,60	1325,04
682,78	1269,74
682,97	1286,12
683,15	1333,23
683,34	1279,98
683,53	1247,21
683,71	1202,16
683,90	1302,51
684,08	1249,26
684,27	1271,79
684,45	1261,55
684,64	1335,28
684,82	1353,71
685,01	1294,32
685,19	1312,75
685,38	1271,79
685,57	1239,02
685,75	1273,84
685,94	1288,17
686,12	1263,60
686,31	1318,89
686,49	1327,08
686,68	1318,89
686,86	1247,21
687,05	1296,36
687,23	1273,84
687,42	1288,17
687,60	1255,40
687,79	1322,99
687,97	1208,30
688,16	1304,56
688,34	1241,07
688,53	1247,21
688,71	1234,93
688,90	1232,88
689,08	1234,93
689,27	1322,99
689,45	1243,12
689,64	1245,16
689,82	1255,40
690,01	1249,26
690,19	1277,93
690,38	1241,07
690,56	1290,22
690,75	1269,74
690,93	1239,02
691,12	1230,83
691,30	1216,49
691,49	1277,93
691,67	1310,70
691,86	1216,49
692,04	1279,98
692,23	1269,74
692,41	1288,17
692,60	1288,17
692,78	1224,69
692,97	1232,88
693,15	1245,16
693,34	1269,74
693,52	1232,88
693,71	1241,07
693,89	1286,12
694,08	1251,31
694,26	1331,18
694,44	1275,88
694,63	1322,99
694,81	1259,50
695,00	1296,36
695,18	1292,27
695,37	1320,94
695,55	1292,27
695,74	1228,78
695,92	1265,64
696,10	1275,88
696,29	1310,70
696,47	1232,88
696,66	1292,27
696,84	1271,79
697,03	1277,93
697,21	1228,78
697,40	1363,95
697,58	1282,03
697,76	1200,11
697,95	1265,64
698,13	1359,85
698,32	1228,78
698,50	1284,08
698,68	1322,99
698,87	1259,50
699,05	1314,80
699,24	1255,40
699,42	1279,98
699,61	1310,70
699,79	1247,21
699,97	1290,22
700,16	1345,52
700,34	1243,12
700,53	1300,46
700,71	1320,94
700,89	1288,17
701,08	1296,36
701,26	1345,52
701,45	1284,08
701,63	1277,93
701,81	1257,45
702,00	1275,88
702,18	1191,92
702,37	1208,30
702,55	1269,74
702,73	1236,97
702,92	1341,42
703,10	1318,89
703,28	1261,55
703,47	1294,32
703,65	1220,59
703,84	1314,80
704,02	1294,32
704,20	1290,22
704,39	1279,98
704,57	1271,79
704,75	1255,40
704,94	1304,56
705,12	1288,17
705,30	1265,64
705,49	1318,89
705,67	1318,89
705,86	1265,64
706,04	1259,50
706,22	1284,08
706,41	1267,69
706,59	1269,74
706,77	1222,64
706,96	1300,46
707,14	1249,26
707,32	1185,77
707,51	1314,80
707,69	1220,59
707,87	1253,36
708,06	1290,22
708,24	1298,41
708,42	1265,64
708,61	1314,80
708,79	1351,66
708,97	1322,99
709,16	1312,75
709,34	1275,88
709,52	1298,41
709,71	1349,61
709,89	1316,84
710,07	1230,83
710,26	1277,93
710,44	1263,60
710,62	1325,04
710,80	1296,36
710,99	1220,59
711,17	1333,23
711,35	1261,55
711,54	1325,04
711,72	1304,56
711,90	1257,45
712,09	1245,16
712,27	1290,22
712,45	1310,70
712,63	1241,07
712,82	1271,79
713,00	1236,97
713,18	1296,36
713,37	1298,41
713,55	1300,46
713,73	1265,64
713,91	1300,46
714,10	1224,69
714,28	1310,70
714,46	1239,02
714,65	1335,28
714,83	1302,51
715,01	1245,16
715,19	1273,84
715,38	1284,08
715,56	1259,50
715,74	1216,49
715,92	1253,36
716,11	1284,08
716,29	1257,45
716,47	1269,74
716,65	1298,41
716,84	1251,31
717,02	1234,93
717,20	1335,28
717,38	1253,36
717,57	1257,45
717,75	1286,12
717,93	1239,02
718,11	1363,95
718,30	1318,89
718,48	1220,59
718,66	1247,21
718,84	1269,74
719,03	1312,75
719,21	1339,37
719,39	1325,04
719,57	1298,41
719,75	1212,40
719,94	1265,64
720,12	1273,84
720,30	1271,79
720,48	1298,41
720,67	1282,03
720,85	1282,03
721,03	1247,21
721,21	1292,27
721,39	1269,74
721,58	1294,32
721,76	1325,04
721,94	1310,70
722,12	1284,08
722,30	1269,74
722,49	1232,88
722,67	1325,04
722,85	1296,36
723,03	1286,12
723,21	1249,26
723,40	1263,60
723,58	1296,36
723,76	1216,49
723,94	1224,69
724,12	1290,22
724,30	1208,30
724,49	1277,93
724,67	1212,40
724,85	1286,12
725,03	1226,73
725,21	1282,03
725,40	1249,26
725,58	1243,12
725,76	1302,51
725,94	1216,49
726,12	1273,84
726,30	1251,31
726,49	1316,84
726,67	1300,46
726,85	1198,06
727,03	1263,60
727,21	1236,97
727,39	1230,83
727,57	1298,41
727,76	1245,16
727,94	1292,27
728,12	1253,36
728,30	1300,46
728,48	1269,74
728,66	1226,73
728,84	1327,08
729,03	1243,12
729,21	1284,08
729,39	1298,41
729,57	1224,69
729,75	1239,02
729,93	1257,45
730,11	1298,41
730,30	1300,46
730,48	1255,40
730,66	1294,32
730,84	1290,22
731,02	1292,27
731,20	1306,60
731,38	1253,36
731,56	1263,60
731,74	1302,51
731,93	1275,88
732,11	1251,31
732,29	1239,02
732,47	1216,49
732,65	1265,64
732,83	1282,03
733,01	1318,89
733,19	1249,26
733,37	1267,69
733,56	1269,74
733,74	1275,88
733,92	1294,32
734,10	1282,03
734,28	1271,79
734,46	1247,21
734,64	1275,88
734,82	1284,08
735,00	1322,99
735,18	1263,60
735,36	1216,49
735,54	1282,03
735,73	1288,17
735,91	1296,36
736,09	1359,85
736,27	1372,14
736,45	1265,64
736,63	1282,03
736,81	1273,84
736,99	1302,51
737,17	1265,64
737,35	1239,02
737,53	1255,40
737,71	1206,25
737,89	1310,70
738,07	1253,36
738,25	1265,64
738,43	1228,78
738,61	1259,50
738,80	1286,12
738,98	1222,64
739,16	1308,65
739,34	1255,40
739,52	1275,88
739,70	1296,36
739,88	1255,40
740,06	1214,45
740,24	1234,93
740,42	1271,79
740,60	1279,98
740,78	1241,07
740,96	1282,03
741,14	1224,69
741,32	1241,07
741,50	1200,11
741,68	1255,40
741,86	1239,02
742,04	1306,60
742,22	1282,03
742,40	1175,53
742,58	1234,93
742,76	1228,78
742,94	1257,45
743,12	1226,73
743,30	1286,12
743,48	1241,07
743,66	1251,31
743,84	1230,83
744,02	1288,17
744,20	1292,27
744,38	1314,80
744,56	1249,26
744,74	1290,22
744,92	1251,31
745,10	1251,31
745,28	1327,08
745,46	1239,02
745,64	1322,99
745,82	1273,84
746,00	1271,79
746,18	1318,89
746,36	1239,02
746,54	1269,74
746,72	1282,03
746,90	1210,35
747,08	1312,75
747,26	1255,40
747,44	1310,70
747,62	1290,22
747,80	1241,07
747,98	1198,06
748,15	1210,35
748,33	1212,40
748,51	1236,97
748,69	1257,45
748,87	1269,74
749,05	1183,73
749,23	1310,70
749,41	1255,40
749,59	1329,13
749,77	1212,40
749,95	1331,18
750,13	1312,75
750,31	1232,88
750,49	1304,56
750,67	1279,98
750,85	1263,60
751,03	1271,79
751,20	1273,84
751,38	1294,32
751,56	1316,84
751,74	1249,26
751,92	1257,45
752,10	1279,98
752,28	1298,41
752,46	1236,97
752,64	1249,26
752,82	1239,02
753,00	1228,78
753,18	1335,28
753,35	1288,17
753,53	1329,13
753,71	1277,93
753,89	1275,88
754,07	1269,74
754,25	1230,83
754,43	1271,79
754,61	1239,02
754,79	1239,02
754,97	1296,36
755,14	1236,97
755,32	1275,88
755,50	1314,80
755,68	1267,69
755,86	1239,02
756,04	1220,59
756,22	1265,64
756,40	1306,60
756,57	1290,22
756,75	1314,80
756,93	1282,03
757,11	1282,03
757,29	1327,08
757,47	1247,21
757,65	1261,55
757,82	1372,14
758,00	1179,63
758,18	1279,98
758,36	1249,26
758,54	1363,95
758,72	1214,45
758,90	1247,21
759,07	1288,17
759,25	1277,93
759,43	1212,40
759,61	1271,79
759,79	1292,27
759,97	1337,32
760,15	1277,93
760,32	1329,13
760,50	1306,60
760,68	1239,02
760,86	1361,90
761,04	1271,79
761,22	1216,49
761,39	1284,08
761,57	1306,60
761,75	1284,08
761,93	1286,12
762,11	1263,60
762,28	1327,08
762,46	1300,46
762,64	1294,32
762,82	1259,50
763,00	1355,76
763,18	1327,08
763,35	1253,36
763,53	1275,88
763,71	1253,36
763,89	1310,70
764,07	1239,02
764,24	1279,98
764,42	1228,78
764,60	1300,46
764,78	1267,69
764,96	1290,22
765,13	1292,27
765,31	1357,80
765,49	1306,60
765,67	1325,04
765,84	1300,46
766,02	1261,55
766,20	1224,69
766,38	1245,16
766,56	1277,93
766,73	1306,60
766,91	1314,80
767,09	1241,07
767,27	1261,55
767,44	1273,84
767,62	1290,22
767,80	1226,73
767,98	1304,56
768,15	1271,79
768,33	1339,37
768,51	1275,88
768,69	1290,22
768,87	1331,18
769,04	1284,08
769,22	1404,91
769,40	1196,01
769,58	1288,17
769,75	1273,84
769,93	1290,22
770,11	1275,88
770,28	1249,26
770,46	1245,16
770,64	1241,07
770,82	1273,84
770,99	1218,54
771,17	1298,41
771,35	1200,11
771,53	1263,60
771,70	1259,50
771,88	1327,08
772,06	1230,83
772,23	1292,27
772,41	1300,46
772,59	1298,41
772,77	1267,69
772,94	1312,75
773,12	1318,89
773,30	1232,88
773,47	1257,45
773,65	1308,65
773,83	1296,36
774,01	1302,51
774,18	1257,45
774,36	1302,51
774,54	1286,12
774,71	1191,92
774,89	1214,45
775,07	1253,36
775,24	1243,12
775,42	1290,22
775,60	1204,21
775,78	1212,40
775,95	1232,88
776,13	1241,07
776,31	1282,03
776,48	1216,49
776,66	1282,03
776,84	1257,45
777,01	1273,84
777,19	1298,41
777,37	1232,88
777,54	1263,60
777,72	1269,74
777,90	1312,75
778,07	1200,11
778,25	1318,89
778,43	1236,97
778,60	1257,45
778,78	1255,40
778,96	1298,41
779,13	1269,74
779,31	1292,27
779,49	1202,16
779,66	1339,37
779,84	1263,60
780,01	1243,12
780,19	1218,54
780,37	1288,17
780,54	1234,93
780,72	1296,36
780,90	1261,55
781,07	1267,69
781,25	1232,88
781,43	1261,55
781,60	1329,13
781,78	1232,88
781,95	1208,30
782,13	1243,12
782,31	1294,32
782,48	1255,40
782,66	1306,60
782,83	1247,21
783,01	1183,73
783,19	1351,66
783,36	1282,03
783,54	1269,74
783,72	1269,74
783,89	1279,98
784,07	1243,12
784,24	1189,87
784,42	1300,46
784,60	1308,65
784,77	1322,99
784,95	1243,12
785,12	1290,22
785,30	1331,18
785,47	1257,45
785,65	1294,32
785,83	1318,89
786,00	1302,51
786,18	1228,78
786,35	1279,98
786,53	1265,64
786,71	1236,97
786,88	1259,50
787,06	1257,45
787,23	1241,07
787,41	1212,40
787,58	1259,50
787,76	1257,45
787,94	1304,56
788,11	1277,93
788,29	1306,60
788,46	1290,22
788,64	1257,45
788,81	1257,45
788,99	1222,64
789,16	1304,56
789,34	1341,42
789,52	1202,16
789,69	1288,17
789,87	1257,45
790,04	1286,12
790,22	1247,21
790,39	1224,69
790,57	1218,54
790,74	1226,73
790,92	1306,60
791,09	1253,36
791,27	1306,60
791,44	1241,07
791,62	1243,12
791,79	1337,32
791,97	1255,40
792,15	1265,64
792,32	1230,83
792,50	1247,21
792,67	1277,93
792,85	1271,79
793,02	1284,08
793,20	1322,99
793,37	1247,21
793,55	1304,56
793,72	1302,51
793,90	1245,16
794,07	1282,03
794,25	1288,17
794,42	1279,98
794,60	1245,16
794,77	1269,74
794,95	1249,26
795,12	1333,23
795,30	1253,36
795,47	1359,85
795,65	1296,36
795,82	1269,74
796,00	1204,21
796,17	1282,03
796,34	1247,21
796,52	1247,21
796,69	1263,60
796,87	1247,21
797,04	1349,61
797,22	1316,84
797,39	1249,26
797,57	1335,28
797,74	1302,51
797,92	1286,12
798,09	1226,73
798,27	1294,32
798,44	1286,12
798,62	1341,42
798,79	1300,46
798,96	1249,26
799,14	1292,27
799,31	1304,56
799,49	1269,74
799,66	1253,36
799,84	1263,60
800,01	1146,86
800,19	1253,36
800,36	1159,15
800,53	1282,03
800,71	1294,32
800,88	1230,83
801,06	1300,46
801,23	1306,60
801,41	1269,74
801,58	1232,88
801,75	1284,08
801,93	1292,27
802,10	1247,21
802,28	1279,98
802,45	1257,45
802,63	1294,32
802,80	1218,54
802,97	1239,02
803,15	1265,64
803,32	1234,93
803,50	1306,60
803,67	1251,31
803,84	1261,55
804,02	1298,41
804,19	1316,84
804,37	1284,08
804,54	1316,84
804,71	1261,55
804,89	1255,40
805,06	1312,75
805,24	1234,93
805,41	1273,84
805,58	1265,64
805,76	1265,64
805,93	1388,52
806,10	1273,84
806,28	1241,07
806,45	1271,79
806,63	1290,22
806,80	1251,31
806,97	1247,21
807,15	1273,84
807,32	1183,73
807,49	1265,64
807,67	1187,82
807,84	1251,31
808,01	1255,40
808,19	1222,64
808,36	1247,21
808,54	1247,21
808,71	1288,17
808,88	1279,98
809,06	1304,56
809,23	1269,74
809,40	1243,12
809,58	1286,12
809,75	1296,36
809,92	1259,50
810,10	1282,03
810,27	1263,60
810,44	1300,46
810,62	1214,45
810,79	1212,40
810,96	1277,93
811,14	1296,36
811,31	1298,41
811,48	1236,97
811,66	1265,64
811,83	1228,78
812,00	1304,56
812,18	1224,69
812,35	1265,64
812,52	1212,40
812,69	1271,79
812,87	1269,74
813,04	1296,36
813,21	1247,21
813,39	1304,56
813,56	1249,26
813,73	1226,73
813,91	1284,08
814,08	1345,52
814,25	1185,77
814,42	1261,55
814,60	1290,22
814,77	1302,51
814,94	1267,69
815,12	1337,32
815,29	1290,22
815,46	1263,60
815,63	1214,45
815,81	1271,79
815,98	1247,21
816,15	1275,88
816,33	1290,22
816,50	1271,79
816,67	1232,88
816,84	1249,26
817,02	1234,93
817,19	1273,84
817,36	1220,59
817,53	1214,45
817,71	1300,46
817,88	1331,18
818,05	1226,73
818,22	1282,03
818,40	1284,08
818,57	1310,70
818,74	1255,40
818,91	1327,08
819,09	1322,99
819,26	1279,98
819,43	1257,45
819,60	1273,84
819,78	1292,27
819,95	1318,89
820,12	1304,56
820,29	1259,50
820,47	1312,75
820,64	1331,18
820,81	1251,31
820,98	1312,75
821,15	1314,80
821,33	1230,83
821,50	1273,84
821,67	1273,84
821,84	1251,31
822,02	1198,06
822,19	1271,79
822,36	1236,97
822,53	1310,70
822,70	1329,13
822,88	1222,64
823,05	1206,25
823,22	1292,27
823,39	1292,27
823,56	1269,74
823,74	1300,46
823,91	1247,21
824,08	1316,84
824,25	1263,60
824,42	1331,18
824,60	1224,69
824,77	1251,31
824,94	1206,25
825,11	1298,41
825,28	1232,88
825,45	1277,93
825,63	1251,31
825,80	1331,18
825,97	1325,04
826,14	1388,52
826,31	1222,64
826,48	1282,03
826,66	1341,42
826,83	1343,47
827,00	1245,16
827,17	1263,60
827,34	1327,08
827,51	1243,12
827,69	1157,10
827,86	1265,64
828,03	1343,47
828,20	1343,47
828,37	1290,22
828,54	1218,54
828,71	1316,84
828,89	1288,17
829,06	1359,85
829,23	1310,70
829,40	1325,04
829,57	1273,84
829,74	1263,60
829,91	1218,54
830,09	1273,84
830,26	1294,32
830,43	1331,18
830,60	1228,78
830,77	1286,12
830,94	1271,79
831,11	1296,36
831,28	1261,55
831,46	1261,55
831,63	1296,36
831,80	1294,32
831,97	1277,93
832,14	1265,64
832,31	1298,41
832,48	1224,69
832,65	1279,98
832,82	1286,12
832,99	1286,12
833,17	1247,21
833,34	1292,27
833,51	1304,56
833,68	1243,12
833,85	1277,93
834,02	1239,02
834,19	1271,79
834,36	1322,99
834,53	1212,40
834,70	1279,98
834,87	1325,04
835,04	1320,94
835,22	1290,22
835,39	1220,59
835,56	1265,64
835,73	1275,88
835,90	1282,03
836,07	1306,60
836,24	1273,84
836,41	1300,46
836,58	1220,59
836,75	1232,88
836,92	1286,12
837,09	1265,64
837,26	1292,27
837,43	1267,69
837,60	1216,49
837,77	1241,07
837,94	1298,41
838,12	1232,88
838,29	1177,58
838,46	1325,04
838,63	1259,50
838,80	1239,02
838,97	1175,53
839,14	1300,46
839,31	1306,60
839,48	1171,44
839,65	1251,31
839,82	1331,18
839,99	1191,92
840,16	1273,84
840,33	1298,41
840,50	1290,22
840,67	1232,88
840,84	1261,55
841,01	1208,30
841,18	1304,56
841,35	1257,45
841,52	1222,64
841,69	1253,36
841,86	1247,21
842,03	1247,21
842,20	1255,40
842,37	1218,54
842,54	1310,70
842,71	1279,98
842,88	1185,77
843,05	1275,88
843,22	1345,52
843,39	1286,12
843,56	1275,88
843,73	1292,27
843,90	1253,36
844,07	1288,17
844,24	1357,80
844,41	1310,70
844,58	1191,92
844,75	1220,59
844,92	1300,46
845,09	1208,30
845,26	1214,45
845,43	1282,03
845,60	1212,40
845,77	1345,52
845,94	1353,71
846,10	1277,93
846,27	1288,17
846,44	1198,06
846,61	1247,21
846,78	1253,36
846,95	1259,50
847,12	1275,88
847,29	1267,69
847,46	1259,50
847,63	1265,64
847,80	1271,79
847,97	1255,40
848,14	1245,16
848,31	1273,84
848,48	1322,99
848,65	1288,17
848,82	1222,64
848,98	1271,79
849,15	1259,50
849,32	1312,75
849,49	1224,69
849,66	1310,70
849,83	1226,73
850,00	1249,26
850,17	1255,40
850,34	1269,74
850,51	1239,02
850,68	1243,12
850,85	1302,51
851,01	1265,64
851,18	1253,36
851,35	1226,73
851,52	1269,74
851,69	1316,84
851,86	1247,21
852,03	1325,04
852,20	1265,64
852,37	1298,41
852,53	1257,45
852,70	1255,40
852,87	1269,74
853,04	1267,69
853,21	1292,27
853,38	1228,78
853,55	1355,76
853,72	1226,73
853,89	1337,32
854,05	1290,22
854,22	1239,02
854,39	1265,64
854,56	1249,26
854,73	1298,41
854,90	1212,40
855,07	1288,17
855,23	1294,32
855,40	1310,70
855,57	1333,23
855,74	1288,17
855,91	1259,50
856,08	1263,60
856,25	1263,60
856,41	1247,21
856,58	1263,60
856,75	1279,98
856,92	1259,50
857,09	1261,55
857,26	1259,50
857,42	1249,26
857,59	1218,54
857,76	1292,27
857,93	1261,55
858,10	1288,17
858,27	1310,70
858,43	1267,69
858,60	1236,97
858,77	1251,31
858,94	1316,84
859,11	1329,13
859,27	1216,49
859,44	1271,79
859,61	1267,69
859,78	1335,28
859,95	1314,80
860,12	1243,12
860,28	1302,51
860,45	1255,40
860,62	1320,94
860,79	1204,21
860,95	1304,56
861,12	1277,93
861,29	1263,60
861,46	1275,88
861,63	1294,32
861,79	1253,36
861,96	1239,02
862,13	1230,83
862,30	1255,40
862,47	1234,93
862,63	1183,73
862,80	1294,32
862,97	1263,60
863,14	1187,82
863,30	1253,36
863,47	1343,47
863,64	1292,27
863,81	1290,22
863,97	1191,92
864,14	1327,08
864,31	1267,69
864,48	1314,80
864,65	1241,07
864,81	1290,22
864,98	1265,64
865,15	1355,76
865,32	1220,59
865,48	1370,09
865,65	1257,45
865,82	1335,28
865,98	1316,84
866,15	1234,93
866,32	1232,88
866,49	1245,16
866,65	1339,37
866,82	1255,40
866,99	1257,45
867,16	1257,45
867,32	1271,79
867,49	1224,69
867,66	1271,79
867,83	1226,73
867,99	1271,79
868,16	1296,36
868,33	1366,00
868,49	1249,26
868,66	1353,71
868,83	1322,99
868,99	1322,99
869,16	1343,47
869,33	1243,12
869,50	1222,64
869,66	1286,12
869,83	1230,83
870,00	1304,56
870,16	1286,12
870,33	1273,84
870,50	1167,34
870,66	1298,41
870,83	1298,41
871,00	1351,66
871,17	1249,26
871,33	1232,88
871,50	1241,07
871,67	1302,51
871,83	1286,12
872,00	1251,31
872,17	1282,03
872,33	1380,33
872,50	1282,03
872,67	1288,17
872,83	1269,74
873,00	1347,56
873,17	1208,30
873,33	1308,65
873,50	1288,17
873,67	1245,16
873,83	1232,88
874,00	1167,34
874,16	1269,74
874,33	1230,83
874,50	1222,64
874,66	1288,17
874,83	1290,22
875,00	1308,65
875,16	1251,31
875,33	1253,36
875,50	1286,12
875,66	1277,93
875,83	1282,03
875,99	1253,36
876,16	1296,36
876,33	1251,31
876,49	1302,51
876,66	1279,98
876,83	1232,88
876,99	1208,30
877,16	1265,64
877,32	1251,31
877,49	1282,03
877,66	1290,22
877,82	1241,07
877,99	1269,74
878,15	1267,69
878,32	1357,80
878,49	1202,16
878,65	1226,73
878,82	1245,16
878,98	1249,26
879,15	1249,26
879,32	1306,60
879,48	1247,21
879,65	1282,03
879,81	1292,27
879,98	1222,64
880,15	1232,88
880,31	1282,03
880,48	1282,03
880,64	1241,07
880,81	1218,54
880,97	1265,64
881,14	1241,07
881,31	1202,16
881,47	1241,07
881,64	1257,45
881,80	1257,45
881,97	1216,49
882,13	1347,56
882,30	1345,52
882,47	1314,80
882,63	1210,35
882,80	1308,65
882,96	1243,12
883,13	1300,46
883,29	1230,83
883,46	1181,68
883,62	1269,74
883,79	1300,46
883,95	1296,36
884,12	1322,99
884,29	1216,49
884,45	1288,17
884,62	1296,36
884,78	1296,36
884,95	1249,26
885,11	1253,36
885,28	1239,02
885,44	1232,88
885,61	1298,41
885,77	1288,17
885,94	1257,45
886,10	1310,70
886,27	1269,74
886,43	1230,83
886,60	1286,12
886,76	1257,45
886,93	1261,55
887,09	1312,75
887,26	1232,88
887,42	1310,70
887,59	1251,31
887,75	1275,88
887,92	1232,88
888,08	1263,60
888,25	1261,55
888,41	1265,64
888,58	1327,08
888,74	1228,78
888,91	1409,00
>>>>>End Processed Spectral Data<<<<<
