SpectraSuite Data File
++++++++++++++++++++++++++++++++++++
Date: Sun Apr 03 13:44:34 CEST 2016
User: root
Dark Spectrum Present: No
Reference Spectrum Present: No
Number of Sampled Component Spectra: 1
Spectrometers: USB4C02835
Integration Time (usec): 10000 (USB4C02835)
Spectra Averaged: 1 (USB4C02835)
Boxcar Smoothing: 0 (USB4C02835)
Correct for Electrical Dark: No (USB4C02835)
Strobe/Lamp Enabled: No (USB4C02835)
Correct for Detector Non-linearity: No (USB4C02835)
Correct for Stray Light: No (USB4C02835)
Number of Pixels in Processed Spectrum: 3648
>>>>>Begin Processed Spectral Data<<<<<
177,47	1300,46
177,69	1300,46
177,91	1300,46
178,13	1212,40
178,36	1335,28
178,58	1243,12
178,80	1322,99
179,02	1302,51
179,24	1290,22
179,46	1224,69
179,68	1239,02
179,90	1314,80
180,13	1247,21
180,35	1228,78
180,57	1185,77
180,79	1234,93
181,01	1282,03
181,23	1279,98
181,45	1296,36
181,67	1357,80
181,90	1284,08
182,12	1210,35
182,34	1261,55
182,56	1261,55
182,78	1304,56
183,00	1210,35
183,22	1271,79
183,44	1275,88
183,66	1327,08
183,89	1239,02
184,11	1263,60
184,33	1251,31
184,55	1282,03
184,77	1263,60
184,99	1284,08
185,21	1277,93
185,43	1318,89
185,65	1279,98
185,87	1230,83
186,10	1304,56
186,32	1322,99
186,54	1292,27
186,76	1230,83
186,98	1241,07
187,20	1230,83
187,42	1286,12
187,64	1290,22
187,86	1282,03
188,08	1302,51
188,30	1294,32
188,52	1298,41
188,75	1302,51
188,97	1271,79
189,19	1236,97
189,41	1263,60
189,63	1310,70
189,85	1312,75
190,07	1263,60
190,29	1249,26
190,51	1216,49
190,73	1337,32
190,95	1257,45
191,17	1279,98
191,39	1273,84
191,61	1273,84
191,84	1232,88
192,06	1314,80
192,28	1267,69
192,50	1263,60
192,72	1257,45
192,94	1243,12
193,16	1300,46
193,38	1277,93
193,60	1318,89
193,82	1263,60
194,04	1236,97
194,26	1232,88
194,48	1204,21
194,70	1273,84
194,92	1230,83
195,14	1261,55
195,36	1245,16
195,58	1314,80
195,80	1255,40
196,02	1279,98
196,24	1257,45
196,46	1329,13
196,69	1228,78
196,91	1316,84
197,13	1243,12
197,35	1279,98
197,57	1257,45
197,79	1312,75
198,01	1273,84
198,23	1255,40
198,45	1236,97
198,67	1279,98
198,89	1339,37
199,11	1259,50
199,33	1286,12
199,55	1247,21
199,77	1212,40
199,99	1273,84
200,21	1224,69
200,43	1243,12
200,65	1224,69
200,87	1212,40
201,09	1247,21
201,31	1347,56
201,53	1251,31
201,75	1269,74
201,97	1241,07
202,19	1224,69
202,41	1300,46
202,63	1257,45
202,85	1288,17
203,07	1312,75
203,29	1292,27
203,51	1253,36
203,73	1236,97
203,95	1253,36
204,17	1226,73
204,39	1302,51
204,61	1247,21
204,83	1208,30
205,05	1267,69
205,27	1271,79
205,49	1269,74
205,71	1206,25
205,93	1288,17
206,15	1241,07
206,37	1335,28
206,59	1296,36
206,81	1312,75
207,03	1241,07
207,25	1210,35
207,47	1327,08
207,69	1159,15
207,91	1263,60
208,13	1275,88
208,34	1290,22
208,56	1286,12
208,78	1329,13
209,00	1298,41
209,22	1247,21
209,44	1306,60
209,66	1300,46
209,88	1286,12
210,10	1277,93
210,32	1218,54
210,54	1230,83
210,76	1329,13
210,98	1294,32
211,20	1214,45
211,42	1253,36
211,64	1310,70
211,86	1282,03
212,08	1236,97
212,30	1259,50
212,52	1249,26
212,74	1298,41
212,96	1232,88
213,17	1265,64
213,39	1269,74
213,61	1298,41
213,83	1216,49
214,05	1314,80
214,27	1279,98
214,49	1286,12
214,71	1284,08
214,93	1353,71
215,15	1277,93
215,37	1400,81
215,59	1279,98
215,81	1193,97
216,03	1273,84
216,24	1247,21
216,46	1245,16
216,68	1269,74
216,90	1318,89
217,12	1273,84
217,34	1271,79
217,56	1269,74
217,78	1275,88
218,00	1251,31
218,22	1236,97
218,44	1243,12
218,66	1290,22
218,87	1316,84
219,09	1200,11
219,31	1288,17
219,53	1196,01
219,75	1312,75
219,97	1249,26
220,19	1249,26
220,41	1263,60
220,63	1271,79
220,85	1306,60
221,06	1296,36
221,28	1322,99
221,50	1257,45
221,72	1273,84
221,94	1320,94
222,16	1249,26
222,38	1308,65
222,60	1296,36
222,82	1275,88
223,03	1292,27
223,25	1296,36
223,47	1314,80
223,69	1251,31
223,91	1292,27
224,13	1320,94
224,35	1249,26
224,57	1308,65
224,78	1196,01
225,00	1312,75
225,22	1236,97
225,44	1257,45
225,66	1249,26
225,88	1300,46
226,10	1249,26
226,32	1312,75
226,53	1265,64
226,75	1282,03
226,97	1282,03
227,19	1294,32
227,41	1300,46
227,63	1273,84
227,85	1206,25
228,06	1341,42
228,28	1304,56
228,50	1259,50
228,72	1257,45
228,94	1228,78
229,16	1265,64
229,37	1300,46
229,59	1214,45
229,81	1284,08
230,03	1255,40
230,25	1263,60
230,47	1312,75
230,69	1312,75
230,90	1253,36
231,12	1253,36
231,34	1226,73
231,56	1335,28
231,78	1296,36
232,00	1279,98
232,21	1230,83
232,43	1286,12
232,65	1218,54
232,87	1241,07
233,09	1290,22
233,30	1249,26
233,52	1218,54
233,74	1263,60
233,96	1271,79
234,18	1214,45
234,40	1294,32
234,61	1296,36
234,83	1257,45
235,05	1247,21
235,27	1257,45
235,49	1306,60
235,70	1224,69
235,92	1298,41
236,14	1288,17
236,36	1253,36
236,58	1325,04
236,79	1267,69
237,01	1224,69
237,23	1269,74
237,45	1279,98
237,67	1286,12
237,88	1196,01
238,10	1271,79
238,32	1271,79
238,54	1322,99
238,76	1286,12
238,97	1212,40
239,19	1331,18
239,41	1322,99
239,63	1247,21
239,85	1189,87
240,06	1306,60
240,28	1214,45
240,50	1251,31
240,72	1282,03
240,93	1298,41
241,15	1372,14
241,37	1245,16
241,59	1247,21
241,81	1255,40
242,02	1214,45
242,24	1275,88
242,46	1222,64
242,68	1284,08
242,89	1277,93
243,11	1314,80
243,33	1284,08
243,55	1263,60
243,76	1316,84
243,98	1212,40
244,20	1247,21
244,42	1261,55
244,64	1273,84
244,85	1363,95
245,07	1279,98
245,29	1294,32
245,51	1243,12
245,72	1286,12
245,94	1259,50
246,16	1284,08
246,38	1273,84
246,59	1329,13
246,81	1306,60
247,03	1267,69
247,24	1312,75
247,46	1232,88
247,68	1335,28
247,90	1378,28
248,11	1200,11
248,33	1298,41
248,55	1275,88
248,77	1222,64
248,98	1259,50
249,20	1290,22
249,42	1267,69
249,64	1292,27
249,85	1277,93
250,07	1284,08
250,29	1232,88
250,50	1253,36
250,72	1249,26
250,94	1267,69
251,16	1349,61
251,37	1300,46
251,59	1282,03
251,81	1322,99
252,02	1265,64
252,24	1275,88
252,46	1220,59
252,68	1308,65
252,89	1286,12
253,11	1259,50
253,33	1249,26
253,54	1308,65
253,76	1228,78
253,98	1222,64
254,20	1349,61
254,41	1210,35
254,63	1257,45
254,85	1320,94
255,06	1308,65
255,28	1316,84
255,50	1347,56
255,71	1245,16
255,93	1273,84
256,15	1279,98
256,36	1232,88
256,58	1322,99
256,80	1306,60
257,02	1279,98
257,23	1290,22
257,45	1263,60
257,67	1236,97
257,88	1282,03
258,10	1271,79
258,32	1288,17
258,53	1314,80
258,75	1261,55
258,97	1241,07
259,18	1230,83
259,40	1279,98
259,62	1249,26
259,83	1253,36
260,05	1273,84
260,27	1361,90
260,48	1265,64
260,70	1265,64
260,92	1212,40
261,13	1230,83
261,35	1249,26
261,57	1263,60
261,78	1282,03
262,00	1239,02
262,22	1363,95
262,43	1310,70
262,65	1355,76
262,86	1245,16
263,08	1296,36
263,30	1249,26
263,51	1279,98
263,73	1253,36
263,95	1257,45
264,16	1255,40
264,38	1302,51
264,60	1273,84
264,81	1255,40
265,03	1251,31
265,25	1247,21
265,46	1292,27
265,68	1282,03
265,89	1314,80
266,11	1206,25
266,33	1241,07
266,54	1337,32
266,76	1263,60
266,98	1275,88
267,19	1298,41
267,41	1290,22
267,62	1306,60
267,84	1312,75
268,06	1284,08
268,27	1230,83
268,49	1265,64
268,70	1243,12
268,92	1273,84
269,14	1271,79
269,35	1304,56
269,57	1245,16
269,79	1308,65
270,00	1269,74
270,22	1255,40
270,43	1322,99
270,65	1230,83
270,87	1269,74
271,08	1302,51
271,30	1232,88
271,51	1269,74
271,73	1290,22
271,95	1359,85
272,16	1292,27
272,38	1214,45
272,59	1277,93
272,81	1302,51
273,02	1292,27
273,24	1292,27
273,46	1277,93
273,67	1208,30
273,89	1388,52
274,10	1247,21
274,32	1277,93
274,54	1306,60
274,75	1261,55
274,97	1249,26
275,18	1243,12
275,40	1249,26
275,61	1224,69
275,83	1263,60
276,05	1294,32
276,26	1198,06
276,48	1331,18
276,69	1167,34
276,91	1263,60
277,12	1245,16
277,34	1253,36
277,55	1257,45
277,77	1271,79
277,99	1277,93
278,20	1210,35
278,42	1294,32
278,63	1282,03
278,85	1294,32
279,06	1288,17
279,28	1310,70
279,49	1212,40
279,71	1298,41
279,93	1243,12
280,14	1171,44
280,36	1267,69
280,57	1351,66
280,79	1316,84
281,00	1232,88
281,22	1224,69
281,43	1271,79
281,65	1273,84
281,86	1302,51
282,08	1273,84
282,29	1263,60
282,51	1230,83
282,73	1269,74
282,94	1294,32
283,16	1265,64
283,37	1277,93
283,59	1388,52
283,80	1249,26
284,02	1318,89
284,23	1257,45
284,45	1275,88
284,66	1247,21
284,88	1228,78
285,09	1236,97
285,31	1318,89
285,52	1296,36
285,74	1298,41
285,95	1267,69
286,17	1249,26
286,38	1208,30
286,60	1245,16
286,81	1245,16
287,03	1333,23
287,24	1294,32
287,46	1232,88
287,67	1310,70
287,89	1333,23
288,10	1314,80
288,32	1249,26
288,53	1290,22
288,75	1359,85
288,96	1257,45
289,18	1286,12
289,39	1265,64
289,61	1282,03
289,82	1298,41
290,04	1335,28
290,25	1267,69
290,47	1279,98
290,68	1234,93
290,90	1308,65
291,11	1255,40
291,33	1286,12
291,54	1286,12
291,76	1277,93
291,97	1290,22
292,18	1282,03
292,40	1265,64
292,61	1234,93
292,83	1261,55
293,04	1359,85
293,26	1249,26
293,47	1271,79
293,69	1341,42
293,90	1318,89
294,12	1247,21
294,33	1247,21
294,55	1224,69
294,76	1298,41
294,97	1273,84
295,19	1249,26
295,40	1314,80
295,62	1234,93
295,83	1279,98
296,05	1239,02
296,26	1251,31
296,48	1232,88
296,69	1304,56
296,90	1314,80
297,12	1279,98
297,33	1355,76
297,55	1261,55
297,76	1224,69
297,98	1236,97
298,19	1304,56
298,41	1298,41
298,62	1294,32
298,83	1279,98
299,05	1296,36
299,26	1241,07
299,48	1263,60
299,69	1255,40
299,90	1273,84
300,12	1239,02
300,33	1265,64
300,55	1261,55
300,76	1279,98
300,98	1275,88
301,19	1284,08
301,40	1269,74
301,62	1284,08
301,83	1273,84
302,05	1290,22
302,26	1220,59
302,47	1265,64
302,69	1314,80
302,90	1318,89
303,12	1212,40
303,33	1296,36
303,54	1236,97
303,76	1329,13
303,97	1271,79
304,19	1312,75
304,40	1343,47
304,61	1314,80
304,83	1277,93
305,04	1304,56
305,26	1265,64
305,47	1181,68
305,68	1214,45
305,90	1292,27
306,11	1341,42
306,33	1333,23
306,54	1277,93
306,75	1261,55
306,97	1304,56
307,18	1251,31
307,39	1185,77
307,61	1200,11
307,82	1267,69
308,04	1271,79
308,25	1282,03
308,46	1263,60
308,68	1288,17
308,89	1202,16
309,10	1331,18
309,32	1355,76
309,53	1286,12
309,74	1290,22
309,96	1304,56
310,17	1292,27
310,39	1290,22
310,60	1249,26
310,81	1275,88
311,03	1290,22
311,24	1288,17
311,45	1263,60
311,67	1271,79
311,88	1232,88
312,09	1290,22
312,31	1292,27
312,52	1300,46
312,73	1275,88
312,95	1294,32
313,16	1167,34
313,37	1298,41
313,59	1368,04
313,80	1249,26
314,01	1284,08
314,23	1210,35
314,44	1255,40
314,65	1306,60
314,87	1329,13
315,08	1216,49
315,29	1322,99
315,51	1304,56
315,72	1247,21
315,93	1292,27
316,15	1300,46
316,36	1320,94
316,57	1261,55
316,79	1230,83
317,00	1261,55
317,21	1325,04
317,43	1245,16
317,64	1253,36
317,85	1263,60
318,07	1271,79
318,28	1284,08
318,49	1277,93
318,70	1316,84
318,92	1298,41
319,13	1273,84
319,34	1230,83
319,56	1329,13
319,77	1277,93
319,98	1247,21
320,20	1218,54
320,41	1331,18
320,62	1257,45
320,83	1349,61
321,05	1273,84
321,26	1314,80
321,47	1232,88
321,69	1263,60
321,90	1247,21
322,11	1308,65
322,32	1286,12
322,54	1292,27
322,75	1230,83
322,96	1322,99
323,18	1298,41
323,39	1288,17
323,60	1236,97
323,81	1236,97
324,03	1273,84
324,24	1316,84
324,45	1337,32
324,66	1206,25
324,88	1259,50
325,09	1337,32
325,30	1273,84
325,52	1257,45
325,73	1267,69
325,94	1310,70
326,15	1263,60
326,37	1247,21
326,58	1263,60
326,79	1263,60
327,00	1279,98
327,22	1363,95
327,43	1241,07
327,64	1347,56
327,85	1286,12
328,07	1279,98
328,28	1271,79
328,49	1284,08
328,70	1230,83
328,92	1247,21
329,13	1251,31
329,34	1290,22
329,55	1243,12
329,76	1275,88
329,98	1275,88
330,19	1257,45
330,40	1257,45
330,61	1300,46
330,83	1232,88
331,04	1216,49
331,25	1183,73
331,46	1341,42
331,68	1320,94
331,89	1339,37
332,10	1230,83
332,31	1261,55
332,52	1275,88
332,74	1232,88
332,95	1306,60
333,16	1351,66
333,37	1241,07
333,58	1222,64
333,80	1267,69
334,01	1300,46
334,22	1265,64
334,43	1302,51
334,64	1300,46
334,86	1247,21
335,07	1277,93
335,28	1259,50
335,49	1292,27
335,70	1259,50
335,92	1282,03
336,13	1232,88
336,34	1245,16
336,55	1263,60
336,76	1277,93
336,98	1300,46
337,19	1259,50
337,40	1296,36
337,61	1300,46
337,82	1253,36
338,04	1304,56
338,25	1302,51
338,46	1249,26
338,67	1277,93
338,88	1249,26
339,09	1388,52
339,31	1333,23
339,52	1302,51
339,73	1292,27
339,94	1292,27
340,15	1335,28
340,36	1255,40
340,58	1196,01
340,79	1226,73
341,00	1339,37
341,21	1282,03
341,42	1316,84
341,63	1325,04
341,85	1208,30
342,06	1265,64
342,27	1298,41
342,48	1333,23
342,69	1247,21
342,90	1273,84
343,12	1267,69
343,33	1302,51
343,54	1294,32
343,75	1306,60
343,96	1277,93
344,17	1298,41
344,38	1239,02
344,60	1198,06
344,81	1318,89
345,02	1282,03
345,23	1302,51
345,44	1216,49
345,65	1314,80
345,86	1263,60
346,07	1259,50
346,29	1312,75
346,50	1308,65
346,71	1320,94
346,92	1290,22
347,13	1189,87
347,34	1247,21
347,55	1327,08
347,76	1230,83
347,98	1370,09
348,19	1257,45
348,40	1300,46
348,61	1253,36
348,82	1224,69
349,03	1230,83
349,24	1337,32
349,45	1243,12
349,66	1296,36
349,88	1290,22
350,09	1290,22
350,30	1230,83
350,51	1298,41
350,72	1314,80
350,93	1290,22
351,14	1279,98
351,35	1259,50
351,56	1271,79
351,77	1200,11
351,99	1245,16
352,20	1275,88
352,41	1267,69
352,62	1286,12
352,83	1267,69
353,04	1257,45
353,25	1300,46
353,46	1253,36
353,67	1265,64
353,88	1282,03
354,09	1228,78
354,30	1255,40
354,52	1220,59
354,73	1226,73
354,94	1284,08
355,15	1282,03
355,36	1271,79
355,57	1226,73
355,78	1298,41
355,99	1265,64
356,20	1288,17
356,41	1273,84
356,62	1322,99
356,83	1335,28
357,04	1318,89
357,25	1224,69
357,46	1310,70
357,68	1277,93
357,89	1269,74
358,10	1302,51
358,31	1316,84
358,52	1331,18
358,73	1298,41
358,94	1337,32
359,15	1288,17
359,36	1347,56
359,57	1339,37
359,78	1220,59
359,99	1284,08
360,20	1263,60
360,41	1273,84
360,62	1249,26
360,83	1325,04
361,04	1210,35
361,25	1226,73
361,46	1341,42
361,67	1269,74
361,88	1226,73
362,09	1316,84
362,30	1271,79
362,51	1308,65
362,72	1247,21
362,93	1253,36
363,14	1288,17
363,35	1282,03
363,56	1300,46
363,78	1226,73
363,99	1296,36
364,20	1343,47
364,41	1261,55
364,62	1296,36
364,83	1322,99
365,04	1273,84
365,25	1265,64
365,46	1165,29
365,67	1279,98
365,88	1179,63
366,09	1335,28
366,30	1247,21
366,51	1310,70
366,72	1341,42
366,93	1261,55
367,14	1263,60
367,35	1239,02
367,56	1284,08
367,77	1273,84
367,98	1294,32
368,18	1269,74
368,39	1337,32
368,60	1269,74
368,81	1224,69
369,02	1296,36
369,23	1329,13
369,44	1286,12
369,65	1257,45
369,86	1232,88
370,07	1267,69
370,28	1282,03
370,49	1302,51
370,70	1277,93
370,91	1282,03
371,12	1296,36
371,33	1302,51
371,54	1247,21
371,75	1275,88
371,96	1265,64
372,17	1288,17
372,38	1257,45
372,59	1363,95
372,80	1222,64
373,01	1351,66
373,22	1329,13
373,43	1318,89
373,64	1296,36
373,85	1232,88
374,06	1269,74
374,26	1247,21
374,47	1271,79
374,68	1265,64
374,89	1253,36
375,10	1257,45
375,31	1318,89
375,52	1298,41
375,73	1320,94
375,94	1257,45
376,15	1241,07
376,36	1216,49
376,57	1273,84
376,78	1222,64
376,99	1243,12
377,20	1257,45
377,40	1331,18
377,61	1249,26
377,82	1304,56
378,03	1306,60
378,24	1255,40
378,45	1296,36
378,66	1310,70
378,87	1304,56
379,08	1290,22
379,29	1239,02
379,50	1314,80
379,71	1271,79
379,91	1249,26
380,12	1257,45
380,33	1300,46
380,54	1273,84
380,75	1304,56
380,96	1269,74
381,17	1247,21
381,38	1253,36
381,59	1241,07
381,80	1298,41
382,00	1243,12
382,21	1275,88
382,42	1286,12
382,63	1245,16
382,84	1308,65
383,05	1349,61
383,26	1181,68
383,47	1230,83
383,68	1241,07
383,88	1273,84
384,09	1304,56
384,30	1308,65
384,51	1273,84
384,72	1298,41
384,93	1259,50
385,14	1224,69
385,35	1271,79
385,55	1271,79
385,76	1329,13
385,97	1259,50
386,18	1269,74
386,39	1282,03
386,60	1329,13
386,81	1265,64
387,02	1265,64
387,22	1298,41
387,43	1282,03
387,64	1249,26
387,85	1277,93
388,06	1302,51
388,27	1316,84
388,48	1214,45
388,68	1331,18
388,89	1296,36
389,10	1255,40
389,31	1325,04
389,52	1247,21
389,73	1296,36
389,93	1279,98
390,14	1298,41
390,35	1279,98
390,56	1150,96
390,77	1273,84
390,98	1273,84
391,18	1271,79
391,39	1243,12
391,60	1255,40
391,81	1361,90
392,02	1267,69
392,23	1271,79
392,43	1292,27
392,64	1294,32
392,85	1222,64
393,06	1296,36
393,27	1304,56
393,47	1294,32
393,68	1263,60
393,89	1253,36
394,10	1288,17
394,31	1333,23
394,52	1267,69
394,72	1277,93
394,93	1314,80
395,14	1302,51
395,35	1322,99
395,56	1292,27
395,76	1249,26
395,97	1267,69
396,18	1331,18
396,39	1259,50
396,60	1224,69
396,80	1243,12
397,01	1220,59
397,22	1316,84
397,43	1255,40
397,64	1224,69
397,84	1273,84
398,05	1339,37
398,26	1331,18
398,47	1275,88
398,67	1302,51
398,88	1275,88
399,09	1294,32
399,30	1253,36
399,51	1253,36
399,71	1236,97
399,92	1249,26
400,13	1224,69
400,34	1255,40
400,54	1263,60
400,75	1273,84
400,96	1265,64
401,17	1279,98
401,37	1286,12
401,58	1224,69
401,79	1220,59
402,00	1282,03
402,21	1284,08
402,41	1347,56
402,62	1359,85
402,83	1230,83
403,04	1290,22
403,24	1304,56
403,45	1294,32
403,66	1314,80
403,87	1261,55
404,07	1298,41
404,28	1294,32
404,49	1234,93
404,70	1288,17
404,90	1284,08
405,11	1294,32
405,32	1265,64
405,52	1251,31
405,73	1200,11
405,94	1251,31
406,15	1329,13
406,35	1277,93
406,56	1294,32
406,77	1279,98
406,98	1265,64
407,18	1318,89
407,39	1214,45
407,60	1214,45
407,80	1228,78
408,01	1249,26
408,22	1320,94
408,43	1331,18
408,63	1288,17
408,84	1255,40
409,05	1304,56
409,25	1261,55
409,46	1310,70
409,67	1196,01
409,88	1251,31
410,08	1286,12
410,29	1298,41
410,50	1310,70
410,70	1255,40
410,91	1222,64
411,12	1243,12
411,32	1245,16
411,53	1312,75
411,74	1253,36
411,95	1277,93
412,15	1316,84
412,36	1271,79
412,57	1265,64
412,77	1243,12
412,98	1292,27
413,19	1298,41
413,39	1292,27
413,60	1212,40
413,81	1304,56
414,01	1327,08
414,22	1261,55
414,43	1253,36
414,63	1236,97
414,84	1292,27
415,05	1167,34
415,25	1255,40
415,46	1234,93
415,67	1234,93
415,87	1265,64
416,08	1302,51
416,29	1337,32
416,49	1230,83
416,70	1253,36
416,91	1259,50
417,11	1263,60
417,32	1255,40
417,53	1239,02
417,73	1204,21
417,94	1355,76
418,15	1294,32
418,35	1316,84
418,56	1335,28
418,77	1230,83
418,97	1339,37
419,18	1212,40
419,38	1308,65
419,59	1310,70
419,80	1286,12
420,00	1230,83
420,21	1247,21
420,42	1327,08
420,62	1198,06
420,83	1327,08
421,04	1308,65
421,24	1284,08
421,45	1300,46
421,65	1247,21
421,86	1273,84
422,07	1267,69
422,27	1261,55
422,48	1335,28
422,69	1298,41
422,89	1300,46
423,10	1234,93
423,30	1191,92
423,51	1355,76
423,72	1288,17
423,92	1273,84
424,13	1222,64
424,33	1236,97
424,54	1239,02
424,75	1306,60
424,95	1312,75
425,16	1341,42
425,36	1228,78
425,57	1302,51
425,78	1222,64
425,98	1318,89
426,19	1247,21
426,39	1226,73
426,60	1349,61
426,81	1363,95
427,01	1363,95
427,22	1304,56
427,42	1241,07
427,63	1216,49
427,83	1322,99
428,04	1306,60
428,25	1312,75
428,45	1193,97
428,66	1304,56
428,86	1224,69
429,07	1322,99
429,28	1288,17
429,48	1249,26
429,69	1263,60
429,89	1251,31
430,10	1335,28
430,30	1261,55
430,51	1300,46
430,71	1249,26
430,92	1343,47
431,13	1257,45
431,33	1265,64
431,54	1191,92
431,74	1286,12
431,95	1325,04
432,15	1331,18
432,36	1284,08
432,56	1308,65
432,77	1185,77
432,98	1310,70
433,18	1243,12
433,39	1290,22
433,59	1267,69
433,80	1288,17
434,00	1292,27
434,21	1232,88
434,41	1267,69
434,62	1304,56
434,82	1241,07
435,03	1249,26
435,23	1259,50
435,44	1288,17
435,64	1200,11
435,85	1325,04
436,06	1257,45
436,26	1343,47
436,47	1253,36
436,67	1200,11
436,88	1251,31
437,08	1277,93
437,29	1239,02
437,49	1249,26
437,70	1247,21
437,90	1275,88
438,11	1265,64
438,31	1306,60
438,52	1271,79
438,72	1261,55
438,93	1249,26
439,13	1275,88
439,34	1251,31
439,54	1275,88
439,75	1245,16
439,95	1255,40
440,16	1179,63
440,36	1253,36
440,57	1279,98
440,77	1310,70
440,98	1241,07
441,18	1279,98
441,39	1333,23
441,59	1329,13
441,80	1263,60
442,00	1249,26
442,21	1282,03
442,41	1253,36
442,62	1236,97
442,82	1331,18
443,02	1294,32
443,23	1327,08
443,43	1224,69
443,64	1273,84
443,84	1292,27
444,05	1263,60
444,25	1277,93
444,46	1247,21
444,66	1286,12
444,87	1380,33
445,07	1300,46
445,28	1198,06
445,48	1282,03
445,69	1259,50
445,89	1177,58
446,09	1196,01
446,30	1261,55
446,50	1306,60
446,71	1298,41
446,91	1279,98
447,12	1279,98
447,32	1314,80
447,53	1273,84
447,73	1290,22
447,93	1214,45
448,14	1255,40
448,34	1402,86
448,55	1200,11
448,75	1236,97
448,96	1327,08
449,16	1279,98
449,36	1302,51
449,57	1271,79
449,77	1265,64
449,98	1241,07
450,18	1265,64
450,39	1253,36
450,59	1275,88
450,79	1314,80
451,00	1314,80
451,20	1263,60
451,41	1279,98
451,61	1210,35
451,81	1277,93
452,02	1261,55
452,22	1314,80
452,43	1302,51
452,63	1275,88
452,84	1234,93
453,04	1214,45
453,24	1300,46
453,45	1304,56
453,65	1273,84
453,86	1255,40
454,06	1353,71
454,26	1288,17
454,47	1181,68
454,67	1198,06
454,87	1173,49
455,08	1271,79
455,28	1286,12
455,49	1286,12
455,69	1308,65
455,89	1218,54
456,10	1329,13
456,30	1329,13
456,51	1316,84
456,71	1279,98
456,91	1251,31
457,12	1335,28
457,32	1267,69
457,52	1284,08
457,73	1302,51
457,93	1327,08
458,14	1267,69
458,34	1396,71
458,54	1191,92
458,75	1183,73
458,95	1300,46
459,15	1292,27
459,36	1263,60
459,56	1253,36
459,76	1255,40
459,97	1282,03
460,17	1222,64
460,37	1279,98
460,58	1253,36
460,78	1325,04
460,99	1331,18
461,19	1320,94
461,39	1308,65
461,60	1294,32
461,80	1310,70
462,00	1265,64
462,21	1200,11
462,41	1282,03
462,61	1263,60
462,82	1243,12
463,02	1269,74
463,22	1312,75
463,43	1341,42
463,63	1372,14
463,83	1241,07
464,04	1310,70
464,24	1304,56
464,44	1275,88
464,64	1220,59
464,85	1265,64
465,05	1286,12
465,25	1320,94
465,46	1296,36
465,66	1320,94
465,86	1286,12
466,07	1325,04
466,27	1298,41
466,47	1261,55
466,68	1302,51
466,88	1310,70
467,08	1265,64
467,29	1269,74
467,49	1273,84
467,69	1257,45
467,89	1331,18
468,10	1277,93
468,30	1302,51
468,50	1247,21
468,71	1251,31
468,91	1302,51
469,11	1290,22
469,31	1345,52
469,52	1189,87
469,72	1294,32
469,92	1275,88
470,13	1296,36
470,33	1249,26
470,53	1286,12
470,73	1306,60
470,94	1312,75
471,14	1279,98
471,34	1261,55
471,54	1198,06
471,75	1277,93
471,95	1288,17
472,15	1284,08
472,36	1257,45
472,56	1284,08
472,76	1282,03
472,96	1222,64
473,17	1279,98
473,37	1286,12
473,57	1243,12
473,77	1265,64
473,98	1306,60
474,18	1261,55
474,38	1228,78
474,58	1214,45
474,79	1247,21
474,99	1273,84
475,19	1339,37
475,39	1316,84
475,60	1306,60
475,80	1284,08
476,00	1282,03
476,20	1273,84
476,41	1366,00
476,61	1251,31
476,81	1253,36
477,01	1302,51
477,21	1290,22
477,42	1273,84
477,62	1277,93
477,82	1325,04
478,02	1212,40
478,23	1230,83
478,43	1249,26
478,63	1247,21
478,83	1236,97
479,03	1273,84
479,24	1284,08
479,44	1263,60
479,64	1230,83
479,84	1292,27
480,04	1284,08
480,25	1263,60
480,45	1220,59
480,65	1257,45
480,85	1282,03
481,06	1290,22
481,26	1245,16
481,46	1245,16
481,66	1288,17
481,86	1298,41
482,06	1286,12
482,27	1239,02
482,47	1234,93
482,67	1296,36
482,87	1224,69
483,07	1296,36
483,28	1288,17
483,48	1282,03
483,68	1224,69
483,88	1216,49
484,08	1273,84
484,29	1234,93
484,49	1341,42
484,69	1327,08
484,89	1267,69
485,09	1337,32
485,29	1265,64
485,50	1261,55
485,70	1218,54
485,90	1236,97
486,10	1265,64
486,30	1284,08
486,50	1363,95
486,71	1304,56
486,91	1349,61
487,11	1241,07
487,31	1253,36
487,51	1265,64
487,71	1253,36
487,91	1265,64
488,12	1312,75
488,32	1308,65
488,52	1196,01
488,72	1314,80
488,92	1331,18
489,12	1275,88
489,32	1304,56
489,53	1241,07
489,73	1241,07
489,93	1224,69
490,13	1247,21
490,33	1214,45
490,53	1257,45
490,73	1273,84
490,94	1304,56
491,14	1236,97
491,34	1269,74
491,54	1263,60
491,74	1273,84
491,94	1302,51
492,14	1294,32
492,34	1314,80
492,54	1288,17
492,75	1212,40
492,95	1290,22
493,15	1310,70
493,35	1286,12
493,55	1277,93
493,75	1271,79
493,95	1294,32
494,15	1189,87
494,35	1263,60
494,56	1302,51
494,76	1275,88
494,96	1353,71
495,16	1310,70
495,36	1241,07
495,56	1306,60
495,76	1282,03
495,96	1337,32
496,16	1277,93
496,36	1322,99
496,56	1345,52
496,77	1249,26
496,97	1294,32
497,17	1282,03
497,37	1216,49
497,57	1304,56
497,77	1292,27
497,97	1265,64
498,17	1267,69
498,37	1318,89
498,57	1271,79
498,77	1220,59
498,97	1322,99
499,17	1312,75
499,38	1243,12
499,58	1273,84
499,78	1220,59
499,98	1241,07
500,18	1308,65
500,38	1232,88
500,58	1296,36
500,78	1253,36
500,98	1245,16
501,18	1265,64
501,38	1243,12
501,58	1296,36
501,78	1251,31
501,98	1239,02
502,18	1218,54
502,38	1304,56
502,58	1294,32
502,78	1228,78
502,98	1308,65
503,18	1279,98
503,38	1306,60
503,59	1331,18
503,79	1347,56
503,99	1288,17
504,19	1288,17
504,39	1294,32
504,59	1273,84
504,79	1230,83
504,99	1318,89
505,19	1277,93
505,39	1251,31
505,59	1304,56
505,79	1216,49
505,99	1325,04
506,19	1314,80
506,39	1228,78
506,59	1292,27
506,79	1310,70
506,99	1263,60
507,19	1288,17
507,39	1282,03
507,59	1282,03
507,79	1347,56
507,99	1269,74
508,19	1343,47
508,39	1314,80
508,59	1277,93
508,79	1310,70
508,99	1273,84
509,19	1318,89
509,39	1306,60
509,59	1218,54
509,79	1196,01
509,99	1273,84
510,19	1333,23
510,39	1284,08
510,59	1296,36
510,79	1286,12
510,99	1269,74
511,19	1277,93
511,39	1255,40
511,59	1245,16
511,79	1220,59
511,99	1345,52
512,19	1234,93
512,38	1269,74
512,58	1232,88
512,78	1239,02
512,98	1343,47
513,18	1273,84
513,38	1343,47
513,58	1251,31
513,78	1288,17
513,98	1220,59
514,18	1253,36
514,38	1277,93
514,58	1222,64
514,78	1296,36
514,98	1257,45
515,18	1263,60
515,38	1259,50
515,58	1322,99
515,78	1269,74
515,98	1290,22
516,18	1284,08
516,38	1282,03
516,57	1308,65
516,77	1331,18
516,97	1243,12
517,17	1228,78
517,37	1333,23
517,57	1351,66
517,77	1306,60
517,97	1288,17
518,17	1239,02
518,37	1210,35
518,57	1239,02
518,77	1210,35
518,97	1284,08
519,16	1222,64
519,36	1290,22
519,56	1261,55
519,76	1224,69
519,96	1220,59
520,16	1282,03
520,36	1277,93
520,56	1261,55
520,76	1255,40
520,96	1298,41
521,16	1288,17
521,35	1259,50
521,55	1282,03
521,75	1314,80
521,95	1267,69
522,15	1261,55
522,35	1331,18
522,55	1261,55
522,75	1193,97
522,95	1206,25
523,14	1275,88
523,34	1275,88
523,54	1273,84
523,74	1251,31
523,94	1298,41
524,14	1269,74
524,34	1245,16
524,54	1257,45
524,73	1273,84
524,93	1318,89
525,13	1327,08
525,33	1310,70
525,53	1331,18
525,73	1308,65
525,93	1253,36
526,13	1198,06
526,32	1265,64
526,52	1234,93
526,72	1239,02
526,92	1245,16
527,12	1310,70
527,32	1275,88
527,52	1294,32
527,71	1339,37
527,91	1230,83
528,11	1271,79
528,31	1337,32
528,51	1277,93
528,71	1288,17
528,90	1304,56
529,10	1271,79
529,30	1273,84
529,50	1282,03
529,70	1290,22
529,90	1232,88
530,09	1255,40
530,29	1273,84
530,49	1286,12
530,69	1353,71
530,89	1261,55
531,09	1265,64
531,28	1282,03
531,48	1316,84
531,68	1304,56
531,88	1181,68
532,08	1359,85
532,28	1212,40
532,47	1243,12
532,67	1267,69
532,87	1286,12
533,07	1374,19
533,27	1294,32
533,46	1271,79
533,66	1302,51
533,86	1249,26
534,06	1314,80
534,26	1257,45
534,45	1267,69
534,65	1288,17
534,85	1316,84
535,05	1296,36
535,25	1265,64
535,44	1306,60
535,64	1249,26
535,84	1234,93
536,04	1243,12
536,24	1239,02
536,43	1302,51
536,63	1353,71
536,83	1202,16
537,03	1279,98
537,22	1259,50
537,42	1257,45
537,62	1236,97
537,82	1257,45
538,02	1292,27
538,21	1261,55
538,41	1232,88
538,61	1308,65
538,81	1263,60
539,00	1314,80
539,20	1265,64
539,40	1306,60
539,60	1306,60
539,79	1286,12
539,99	1239,02
540,19	1404,91
540,39	1216,49
540,58	1333,23
540,78	1275,88
540,98	1228,78
541,18	1296,36
541,37	1271,79
541,57	1247,21
541,77	1269,74
541,97	1269,74
542,16	1253,36
542,36	1284,08
542,56	1316,84
542,76	1251,31
542,95	1304,56
543,15	1220,59
543,35	1263,60
543,54	1261,55
543,74	1320,94
543,94	1249,26
544,14	1265,64
544,33	1306,60
544,53	1337,32
544,73	1218,54
544,93	1191,92
545,12	1253,36
545,32	1308,65
545,52	1257,45
545,71	1279,98
545,91	1249,26
546,11	1306,60
546,30	1279,98
546,50	1271,79
546,70	1259,50
546,90	1300,46
547,09	1318,89
547,29	1351,66
547,49	1279,98
547,68	1286,12
547,88	1279,98
548,08	1228,78
548,27	1333,23
548,47	1277,93
548,67	1275,88
548,87	1298,41
549,06	1322,99
549,26	1331,18
549,46	1269,74
549,65	1255,40
549,85	1298,41
550,05	1286,12
550,24	1298,41
550,44	1230,83
550,64	1290,22
550,83	1247,21
551,03	1322,99
551,23	1298,41
551,42	1286,12
551,62	1277,93
551,82	1294,32
552,01	1288,17
552,21	1298,41
552,41	1265,64
552,60	1290,22
552,80	1290,22
553,00	1320,94
553,19	1325,04
553,39	1253,36
553,59	1259,50
553,78	1306,60
553,98	1300,46
554,17	1267,69
554,37	1325,04
554,57	1290,22
554,76	1302,51
554,96	1265,64
555,16	1298,41
555,35	1253,36
555,55	1284,08
555,75	1279,98
555,94	1255,40
556,14	1273,84
556,33	1257,45
556,53	1302,51
556,73	1288,17
556,92	1261,55
557,12	1220,59
557,32	1261,55
557,51	1273,84
557,71	1212,40
557,90	1224,69
558,10	1251,31
558,30	1265,64
558,49	1325,04
558,69	1351,66
558,88	1298,41
559,08	1292,27
559,28	1241,07
559,47	1320,94
559,67	1243,12
559,86	1304,56
560,06	1265,64
560,26	1265,64
560,45	1296,36
560,65	1298,41
560,84	1279,98
561,04	1288,17
561,24	1277,93
561,43	1361,90
561,63	1275,88
561,82	1226,73
562,02	1247,21
562,22	1259,50
562,41	1265,64
562,61	1279,98
562,80	1271,79
563,00	1257,45
563,19	1232,88
563,39	1288,17
563,59	1322,99
563,78	1282,03
563,98	1259,50
564,17	1314,80
564,37	1339,37
564,56	1279,98
564,76	1292,27
564,96	1322,99
565,15	1247,21
565,35	1234,93
565,54	1263,60
565,74	1253,36
565,93	1269,74
566,13	1239,02
566,32	1208,30
566,52	1249,26
566,71	1273,84
566,91	1288,17
567,11	1218,54
567,30	1265,64
567,50	1265,64
567,69	1263,60
567,89	1241,07
568,08	1308,65
568,28	1288,17
568,47	1294,32
568,67	1234,93
568,86	1290,22
569,06	1267,69
569,25	1341,42
569,45	1239,02
569,64	1288,17
569,84	1327,08
570,04	1193,97
570,23	1302,51
570,43	1312,75
570,62	1304,56
570,82	1269,74
571,01	1232,88
571,21	1273,84
571,40	1267,69
571,60	1300,46
571,79	1263,60
571,99	1236,97
572,18	1245,16
572,38	1363,95
572,57	1253,36
572,77	1273,84
572,96	1253,36
573,16	1288,17
573,35	1288,17
573,55	1327,08
573,74	1298,41
573,94	1331,18
574,13	1284,08
574,33	1337,32
574,52	1267,69
574,71	1267,69
574,91	1341,42
575,10	1327,08
575,30	1302,51
575,49	1216,49
575,69	1351,66
575,88	1257,45
576,08	1232,88
576,27	1300,46
576,47	1282,03
576,66	1300,46
576,86	1220,59
577,05	1193,97
577,25	1308,65
577,44	1306,60
577,64	1337,32
577,83	1296,36
578,02	1282,03
578,22	1318,89
578,41	1304,56
578,61	1177,58
578,80	1271,79
579,00	1331,18
579,19	1312,75
579,39	1187,82
579,58	1288,17
579,77	1279,98
579,97	1277,93
580,16	1331,18
580,36	1296,36
580,55	1271,79
580,75	1265,64
580,94	1222,64
581,13	1304,56
581,33	1282,03
581,52	1245,16
581,72	1249,26
581,91	1271,79
582,11	1275,88
582,30	1267,69
582,49	1271,79
582,69	1259,50
582,88	1232,88
583,08	1259,50
583,27	1331,18
583,47	1325,04
583,66	1226,73
583,85	1269,74
584,05	1310,70
584,24	1232,88
584,44	1232,88
584,63	1241,07
584,82	1279,98
585,02	1333,23
585,21	1275,88
585,41	1236,97
585,60	1292,27
585,79	1316,84
585,99	1304,56
586,18	1327,08
586,37	1236,97
586,57	1331,18
586,76	1284,08
586,96	1224,69
587,15	1279,98
587,34	1318,89
587,54	1378,28
587,73	1269,74
587,93	1310,70
588,12	1247,21
588,31	1193,97
588,51	1263,60
588,70	1273,84
588,89	1245,16
589,09	1277,93
589,28	1343,47
589,47	1312,75
589,67	1298,41
589,86	1259,50
590,06	1302,51
590,25	1353,71
590,44	1257,45
590,64	1259,50
590,83	1269,74
591,02	1277,93
591,22	1257,45
591,41	1282,03
591,60	1286,12
591,80	1277,93
591,99	1310,70
592,18	1214,45
592,38	1308,65
592,57	1257,45
592,76	1259,50
592,96	1279,98
593,15	1275,88
593,34	1263,60
593,54	1212,40
593,73	1284,08
593,92	1271,79
594,12	1259,50
594,31	1206,25
594,50	1275,88
594,70	1279,98
594,89	1288,17
595,08	1271,79
595,28	1261,55
595,47	1251,31
595,66	1292,27
595,86	1277,93
596,05	1337,32
596,24	1273,84
596,43	1290,22
596,63	1310,70
596,82	1308,65
597,01	1282,03
597,21	1249,26
597,40	1279,98
597,59	1345,52
597,79	1212,40
597,98	1241,07
598,17	1214,45
598,36	1234,93
598,56	1245,16
598,75	1271,79
598,94	1275,88
599,14	1282,03
599,33	1249,26
599,52	1320,94
599,71	1300,46
599,91	1298,41
600,10	1282,03
600,29	1355,76
600,48	1310,70
600,68	1325,04
600,87	1374,19
601,06	1257,45
601,26	1232,88
601,45	1259,50
601,64	1308,65
601,83	1290,22
602,03	1249,26
602,22	1292,27
602,41	1247,21
602,60	1290,22
602,80	1302,51
602,99	1343,47
603,18	1269,74
603,37	1363,95
603,57	1253,36
603,76	1271,79
603,95	1300,46
604,14	1314,80
604,34	1257,45
604,53	1282,03
604,72	1239,02
604,91	1226,73
605,10	1257,45
605,30	1259,50
605,49	1236,97
605,68	1298,41
605,87	1300,46
606,07	1220,59
606,26	1288,17
606,45	1294,32
606,64	1288,17
606,84	1290,22
607,03	1253,36
607,22	1298,41
607,41	1271,79
607,60	1222,64
607,80	1355,76
607,99	1355,76
608,18	1269,74
608,37	1306,60
608,56	1318,89
608,76	1187,82
608,95	1236,97
609,14	1275,88
609,33	1286,12
609,52	1263,60
609,72	1255,40
609,91	1273,84
610,10	1230,83
610,29	1310,70
610,48	1322,99
610,68	1277,93
610,87	1271,79
611,06	1296,36
611,25	1271,79
611,44	1288,17
611,63	1269,74
611,83	1325,04
612,02	1273,84
612,21	1232,88
612,40	1243,12
612,59	1292,27
612,79	1325,04
612,98	1325,04
613,17	1312,75
613,36	1261,55
613,55	1263,60
613,74	1292,27
613,93	1318,89
614,13	1279,98
614,32	1271,79
614,51	1310,70
614,70	1290,22
614,89	1290,22
615,08	1269,74
615,28	1273,84
615,47	1273,84
615,66	1314,80
615,85	1296,36
616,04	1282,03
616,23	1251,31
616,42	1325,04
616,62	1329,13
616,81	1312,75
617,00	1310,70
617,19	1282,03
617,38	1286,12
617,57	1304,56
617,76	1224,69
617,95	1322,99
618,15	1304,56
618,34	1329,13
618,53	1204,21
618,72	1230,83
618,91	1308,65
619,10	1370,09
619,29	1257,45
619,48	1298,41
619,68	1333,23
619,87	1263,60
620,06	1161,20
620,25	1271,79
620,44	1228,78
620,63	1312,75
620,82	1241,07
621,01	1300,46
621,20	1257,45
621,39	1331,18
621,59	1345,52
621,78	1294,32
621,97	1257,45
622,16	1234,93
622,35	1312,75
622,54	1247,21
622,73	1265,64
622,92	1298,41
623,11	1304,56
623,30	1310,70
623,49	1210,35
623,68	1259,50
623,88	1263,60
624,07	1327,08
624,26	1263,60
624,45	1275,88
624,64	1204,21
624,83	1251,31
625,02	1273,84
625,21	1304,56
625,40	1306,60
625,59	1339,37
625,78	1257,45
625,97	1265,64
626,16	1286,12
626,35	1224,69
626,54	1341,42
626,74	1300,46
626,93	1302,51
627,12	1263,60
627,31	1216,49
627,50	1253,36
627,69	1325,04
627,88	1275,88
628,07	1300,46
628,26	1259,50
628,45	1218,54
628,64	1275,88
628,83	1284,08
629,02	1310,70
629,21	1290,22
629,40	1343,47
629,59	1320,94
629,78	1322,99
629,97	1329,13
630,16	1331,18
630,35	1298,41
630,54	1349,61
630,73	1359,85
630,92	1273,84
631,11	1353,71
631,30	1320,94
631,49	1298,41
631,68	1347,56
631,87	1400,81
632,06	1564,65
632,25	1402,86
632,44	1449,96
632,63	1441,77
632,82	1728,49
633,01	2062,30
633,20	1636,33
633,39	1744,87
633,58	1714,15
633,77	1810,40
633,96	1742,82
634,15	1556,46
634,34	1605,61
634,53	1681,38
634,72	1695,72
634,91	1554,41
635,10	1503,21
635,29	1535,98
635,48	1466,35
635,67	1447,91
635,86	1460,20
636,05	1363,95
636,24	1411,05
636,43	1320,94
636,62	1351,66
636,81	1241,07
637,00	1279,98
637,19	1300,46
637,38	1390,57
637,57	1306,60
637,76	1351,66
637,95	1376,24
638,14	1402,86
638,33	1329,13
638,52	1327,08
638,71	1286,12
638,89	1269,74
639,08	1337,32
639,27	1322,99
639,46	1290,22
639,65	1269,74
639,84	1279,98
640,03	1325,04
640,22	1308,65
640,41	1279,98
640,60	1222,64
640,79	1208,30
640,98	1222,64
641,17	1361,90
641,36	1218,54
641,55	1284,08
641,74	1271,79
641,92	1308,65
642,11	1331,18
642,30	1259,50
642,49	1251,31
642,68	1304,56
642,87	1333,23
643,06	1288,17
643,25	1277,93
643,44	1314,80
643,63	1316,84
643,82	1306,60
644,00	1220,59
644,19	1239,02
644,38	1255,40
644,57	1316,84
644,76	1171,44
644,95	1230,83
645,14	1259,50
645,33	1241,07
645,52	1314,80
645,71	1269,74
645,89	1337,32
646,08	1230,83
646,27	1247,21
646,46	1239,02
646,65	1259,50
646,84	1279,98
647,03	1329,13
647,22	1374,19
647,40	1347,56
647,59	1314,80
647,78	1232,88
647,97	1257,45
648,16	1200,11
648,35	1333,23
648,54	1265,64
648,73	1322,99
648,91	1241,07
649,10	1284,08
649,29	1294,32
649,48	1277,93
649,67	1300,46
649,86	1273,84
650,05	1234,93
650,23	1312,75
650,42	1286,12
650,61	1214,45
650,80	1298,41
650,99	1241,07
651,18	1253,36
651,36	1257,45
651,55	1249,26
651,74	1253,36
651,93	1249,26
652,12	1193,97
652,31	1251,31
652,49	1296,36
652,68	1347,56
652,87	1306,60
653,06	1191,92
653,25	1327,08
653,44	1257,45
653,62	1337,32
653,81	1300,46
654,00	1294,32
654,19	1247,21
654,38	1175,53
654,56	1288,17
654,75	1282,03
654,94	1298,41
655,13	1273,84
655,32	1267,69
655,51	1329,13
655,69	1267,69
655,88	1331,18
656,07	1263,60
656,26	1253,36
656,45	1322,99
656,63	1265,64
656,82	1259,50
657,01	1290,22
657,20	1329,13
657,38	1263,60
657,57	1304,56
657,76	1296,36
657,95	1257,45
658,14	1271,79
658,32	1249,26
658,51	1290,22
658,70	1341,42
658,89	1271,79
659,08	1273,84
659,26	1286,12
659,45	1290,22
659,64	1290,22
659,83	1259,50
660,01	1265,64
660,20	1202,16
660,39	1310,70
660,58	1204,21
660,76	1271,79
660,95	1318,89
661,14	1249,26
661,33	1269,74
661,51	1327,08
661,70	1322,99
661,89	1316,84
662,08	1206,25
662,26	1273,84
662,45	1257,45
662,64	1263,60
662,83	1284,08
663,01	1294,32
663,20	1366,00
663,39	1220,59
663,58	1269,74
663,76	1253,36
663,95	1239,02
664,14	1325,04
664,32	1286,12
664,51	1253,36
664,70	1267,69
664,89	1345,52
665,07	1298,41
665,26	1277,93
665,45	1196,01
665,64	1294,32
665,82	1271,79
666,01	1249,26
666,20	1273,84
666,38	1253,36
666,57	1232,88
666,76	1288,17
666,95	1265,64
667,13	1333,23
667,32	1322,99
667,51	1243,12
667,69	1245,16
667,88	1224,69
668,07	1243,12
668,25	1261,55
668,44	1288,17
668,63	1218,54
668,81	1292,27
669,00	1292,27
669,19	1318,89
669,38	1325,04
669,56	1273,84
669,75	1218,54
669,94	1261,55
670,12	1273,84
670,31	1282,03
670,50	1320,94
670,68	1218,54
670,87	1282,03
671,06	1193,97
671,24	1243,12
671,43	1341,42
671,62	1239,02
671,80	1202,16
671,99	1325,04
672,18	1275,88
672,36	1288,17
672,55	1277,93
672,74	1308,65
672,92	1310,70
673,11	1273,84
673,29	1265,64
673,48	1294,32
673,67	1259,50
673,85	1308,65
674,04	1277,93
674,23	1271,79
674,41	1277,93
674,60	1320,94
674,79	1308,65
674,97	1243,12
675,16	1279,98
675,34	1269,74
675,53	1253,36
675,72	1284,08
675,90	1277,93
676,09	1236,97
676,28	1230,83
676,46	1277,93
676,65	1284,08
676,83	1259,50
677,02	1279,98
677,21	1366,00
677,39	1312,75
677,58	1243,12
677,77	1304,56
677,95	1267,69
678,14	1286,12
678,32	1279,98
678,51	1310,70
678,70	1298,41
678,88	1249,26
679,07	1366,00
679,25	1282,03
679,44	1255,40
679,63	1265,64
679,81	1251,31
680,00	1191,92
680,18	1290,22
680,37	1255,40
680,55	1329,13
680,74	1253,36
680,93	1239,02
681,11	1206,25
681,30	1224,69
681,48	1243,12
681,67	1269,74
681,85	1290,22
682,04	1226,73
682,23	1357,80
682,41	1312,75
682,60	1243,12
682,78	1337,32
682,97	1253,36
683,15	1196,01
683,34	1222,64
683,53	1277,93
683,71	1226,73
683,90	1290,22
684,08	1308,65
684,27	1372,14
684,45	1216,49
684,64	1341,42
684,82	1269,74
685,01	1228,78
685,19	1302,51
685,38	1304,56
685,57	1216,49
685,75	1316,84
685,94	1269,74
686,12	1216,49
686,31	1200,11
686,49	1241,07
686,68	1212,40
686,86	1273,84
687,05	1277,93
687,23	1286,12
687,42	1290,22
687,60	1314,80
687,79	1261,55
687,97	1191,92
688,16	1271,79
688,34	1257,45
688,53	1286,12
688,71	1277,93
688,90	1196,01
689,08	1236,97
689,27	1271,79
689,45	1306,60
689,64	1290,22
689,82	1226,73
690,01	1306,60
690,19	1286,12
690,38	1230,83
690,56	1222,64
690,75	1298,41
690,93	1296,36
691,12	1267,69
691,30	1339,37
691,49	1300,46
691,67	1398,76
691,86	1216,49
692,04	1263,60
692,23	1263,60
692,41	1241,07
692,60	1306,60
692,78	1224,69
692,97	1267,69
693,15	1306,60
693,34	1327,08
693,52	1298,41
693,71	1312,75
693,89	1339,37
694,08	1251,31
694,26	1265,64
694,44	1282,03
694,63	1224,69
694,81	1228,78
695,00	1294,32
695,18	1290,22
695,37	1204,21
695,55	1302,51
695,74	1310,70
695,92	1284,08
696,10	1304,56
696,29	1282,03
696,47	1255,40
696,66	1269,74
696,84	1288,17
697,03	1316,84
697,21	1267,69
697,40	1290,22
697,58	1329,13
697,76	1245,16
697,95	1284,08
698,13	1271,79
698,32	1265,64
698,50	1282,03
698,68	1302,51
698,87	1279,98
699,05	1267,69
699,24	1294,32
699,42	1361,90
699,61	1273,84
699,79	1331,18
699,97	1218,54
700,16	1300,46
700,34	1355,76
700,53	1312,75
700,71	1259,50
700,89	1404,91
701,08	1212,40
701,26	1335,28
701,45	1329,13
701,63	1271,79
701,81	1275,88
702,00	1214,45
702,18	1183,73
702,37	1171,44
702,55	1279,98
702,73	1306,60
702,92	1310,70
703,10	1296,36
703,28	1284,08
703,47	1261,55
703,65	1284,08
703,84	1251,31
704,02	1286,12
704,20	1259,50
704,39	1159,15
704,57	1325,04
704,75	1257,45
704,94	1331,18
705,12	1304,56
705,30	1286,12
705,49	1335,28
705,67	1327,08
705,86	1140,72
706,04	1292,27
706,22	1355,76
706,41	1308,65
706,59	1234,93
706,77	1316,84
706,96	1290,22
707,14	1218,54
707,32	1251,31
707,51	1253,36
707,69	1275,88
707,87	1241,07
708,06	1327,08
708,24	1302,51
708,42	1263,60
708,61	1327,08
708,79	1259,50
708,97	1333,23
709,16	1230,83
709,34	1325,04
709,52	1290,22
709,71	1288,17
709,89	1265,64
710,07	1279,98
710,26	1228,78
710,44	1263,60
710,62	1300,46
710,80	1306,60
710,99	1286,12
711,17	1331,18
711,35	1306,60
711,54	1220,59
711,72	1257,45
711,90	1286,12
712,09	1226,73
712,27	1234,93
712,45	1335,28
712,63	1357,80
712,82	1230,83
713,00	1255,40
713,18	1245,16
713,37	1279,98
713,55	1259,50
713,73	1261,55
713,91	1275,88
714,10	1232,88
714,28	1279,98
714,46	1236,97
714,65	1304,56
714,83	1308,65
715,01	1255,40
715,19	1271,79
715,38	1257,45
715,56	1302,51
715,74	1331,18
715,92	1169,39
716,11	1226,73
716,29	1216,49
716,47	1271,79
716,65	1325,04
716,84	1216,49
717,02	1234,93
717,20	1292,27
717,38	1310,70
717,57	1259,50
717,75	1304,56
717,93	1198,06
718,11	1277,93
718,30	1335,28
718,48	1318,89
718,66	1282,03
718,84	1236,97
719,03	1267,69
719,21	1296,36
719,39	1236,97
719,57	1263,60
719,75	1206,25
719,94	1202,16
720,12	1300,46
720,30	1310,70
720,48	1257,45
720,67	1286,12
720,85	1245,16
721,03	1322,99
721,21	1261,55
721,39	1296,36
721,58	1230,83
721,76	1239,02
721,94	1279,98
722,12	1292,27
722,30	1222,64
722,49	1271,79
722,67	1243,12
722,85	1220,59
723,03	1286,12
723,21	1175,53
723,40	1322,99
723,58	1304,56
723,76	1347,56
723,94	1263,60
724,12	1290,22
724,30	1265,64
724,49	1331,18
724,67	1361,90
724,85	1247,21
725,03	1224,69
725,21	1292,27
725,40	1279,98
725,58	1275,88
725,76	1298,41
725,94	1245,16
726,12	1273,84
726,30	1302,51
726,49	1310,70
726,67	1251,31
726,85	1191,92
727,03	1275,88
727,21	1294,32
727,39	1216,49
727,57	1288,17
727,76	1255,40
727,94	1241,07
728,12	1302,51
728,30	1288,17
728,48	1200,11
728,66	1296,36
728,84	1239,02
729,03	1273,84
729,21	1271,79
729,39	1249,26
729,57	1284,08
729,75	1300,46
729,93	1284,08
730,11	1302,51
730,30	1251,31
730,48	1232,88
730,66	1245,16
730,84	1257,45
731,02	1208,30
731,20	1257,45
731,38	1218,54
731,56	1335,28
731,74	1286,12
731,93	1267,69
732,11	1290,22
732,29	1298,41
732,47	1355,76
732,65	1290,22
732,83	1271,79
733,01	1292,27
733,19	1322,99
733,37	1222,64
733,56	1273,84
733,74	1290,22
733,92	1265,64
734,10	1282,03
734,28	1265,64
734,46	1218,54
734,64	1318,89
734,82	1300,46
735,00	1218,54
735,18	1218,54
735,36	1282,03
735,54	1253,36
735,73	1271,79
735,91	1257,45
736,09	1257,45
736,27	1304,56
736,45	1269,74
736,63	1236,97
736,81	1234,93
736,99	1339,37
737,17	1253,36
737,35	1343,47
737,53	1304,56
737,71	1228,78
737,89	1243,12
738,07	1208,30
738,25	1275,88
738,43	1230,83
738,61	1255,40
738,80	1316,84
738,98	1325,04
739,16	1257,45
739,34	1277,93
739,52	1284,08
739,70	1296,36
739,88	1284,08
740,06	1251,31
740,24	1312,75
740,42	1234,93
740,60	1282,03
740,78	1302,51
740,96	1257,45
741,14	1224,69
741,32	1290,22
741,50	1271,79
741,68	1198,06
741,86	1253,36
742,04	1269,74
742,22	1173,49
742,40	1318,89
742,58	1357,80
742,76	1224,69
742,94	1224,69
743,12	1239,02
743,30	1333,23
743,48	1263,60
743,66	1286,12
743,84	1275,88
744,02	1300,46
744,20	1286,12
744,38	1376,24
744,56	1230,83
744,74	1259,50
744,92	1335,28
745,10	1239,02
745,28	1253,36
745,46	1343,47
745,64	1277,93
745,82	1325,04
746,00	1204,21
746,18	1310,70
746,36	1273,84
746,54	1239,02
746,72	1304,56
746,90	1322,99
747,08	1275,88
747,26	1300,46
747,44	1230,83
747,62	1265,64
747,80	1247,21
747,98	1222,64
748,15	1155,05
748,33	1341,42
748,51	1290,22
748,69	1249,26
748,87	1234,93
749,05	1241,07
749,23	1300,46
749,41	1230,83
749,59	1263,60
749,77	1257,45
749,95	1210,35
750,13	1277,93
750,31	1269,74
750,49	1261,55
750,67	1294,32
750,85	1282,03
751,03	1236,97
751,20	1245,16
751,38	1247,21
751,56	1353,71
751,74	1259,50
751,92	1275,88
752,10	1220,59
752,28	1271,79
752,46	1335,28
752,64	1359,85
752,82	1302,51
753,00	1228,78
753,18	1282,03
753,35	1269,74
753,53	1230,83
753,71	1261,55
753,89	1339,37
754,07	1263,60
754,25	1312,75
754,43	1298,41
754,61	1308,65
754,79	1310,70
754,97	1255,40
755,14	1288,17
755,32	1292,27
755,50	1286,12
755,68	1308,65
755,86	1286,12
756,04	1296,36
756,22	1265,64
756,40	1286,12
756,57	1331,18
756,75	1273,84
756,93	1234,93
757,11	1198,06
757,29	1247,21
757,47	1234,93
757,65	1255,40
757,82	1232,88
758,00	1222,64
758,18	1380,33
758,36	1216,49
758,54	1269,74
758,72	1169,39
758,90	1241,07
759,07	1269,74
759,25	1241,07
759,43	1226,73
759,61	1298,41
759,79	1271,79
759,97	1261,55
760,15	1320,94
760,32	1300,46
760,50	1282,03
760,68	1380,33
760,86	1327,08
761,04	1327,08
761,22	1251,31
761,39	1269,74
761,57	1218,54
761,75	1296,36
761,93	1327,08
762,11	1277,93
762,28	1263,60
762,46	1261,55
762,64	1218,54
762,82	1265,64
763,00	1290,22
763,18	1216,49
763,35	1304,56
763,53	1245,16
763,71	1298,41
763,89	1261,55
764,07	1224,69
764,24	1241,07
764,42	1314,80
764,60	1275,88
764,78	1218,54
764,96	1304,56
765,13	1279,98
765,31	1212,40
765,49	1318,89
765,67	1243,12
765,84	1257,45
766,02	1302,51
766,20	1222,64
766,38	1239,02
766,56	1265,64
766,73	1320,94
766,91	1302,51
767,09	1288,17
767,27	1275,88
767,44	1255,40
767,62	1228,78
767,80	1259,50
767,98	1232,88
768,15	1300,46
768,33	1236,97
768,51	1331,18
768,69	1265,64
768,87	1183,73
769,04	1306,60
769,22	1310,70
769,40	1247,21
769,58	1325,04
769,75	1239,02
769,93	1198,06
770,11	1243,12
770,28	1247,21
770,46	1253,36
770,64	1257,45
770,82	1349,61
770,99	1265,64
771,17	1316,84
771,35	1257,45
771,53	1286,12
771,70	1286,12
771,88	1282,03
772,06	1263,60
772,23	1232,88
772,41	1273,84
772,59	1271,79
772,77	1314,80
772,94	1214,45
773,12	1226,73
773,30	1218,54
773,47	1370,09
773,65	1306,60
773,83	1282,03
774,01	1282,03
774,18	1279,98
774,36	1329,13
774,54	1226,73
774,71	1284,08
774,89	1290,22
775,07	1173,49
775,24	1316,84
775,42	1288,17
775,60	1220,59
775,78	1251,31
775,95	1273,84
776,13	1265,64
776,31	1232,88
776,48	1265,64
776,66	1236,97
776,84	1265,64
777,01	1312,75
777,19	1298,41
777,37	1302,51
777,54	1257,45
777,72	1353,71
777,90	1271,79
778,07	1234,93
778,25	1275,88
778,43	1290,22
778,60	1202,16
778,78	1279,98
778,96	1222,64
779,13	1236,97
779,31	1302,51
779,49	1331,18
779,66	1210,35
779,84	1271,79
780,01	1298,41
780,19	1273,84
780,37	1288,17
780,54	1234,93
780,72	1355,76
780,90	1275,88
781,07	1257,45
781,25	1249,26
781,43	1261,55
781,60	1290,22
781,78	1286,12
781,95	1232,88
782,13	1239,02
782,31	1232,88
782,48	1337,32
782,66	1312,75
782,83	1288,17
783,01	1232,88
783,19	1292,27
783,36	1247,21
783,54	1316,84
783,72	1298,41
783,89	1232,88
784,07	1384,43
784,24	1300,46
784,42	1241,07
784,60	1292,27
784,77	1224,69
784,95	1282,03
785,12	1255,40
785,30	1222,64
785,47	1279,98
785,65	1216,49
785,83	1241,07
786,00	1267,69
786,18	1308,65
786,35	1230,83
786,53	1267,69
786,71	1210,35
786,88	1339,37
787,06	1234,93
787,23	1284,08
787,41	1339,37
787,58	1247,21
787,76	1263,60
787,94	1220,59
788,11	1306,60
788,29	1275,88
788,46	1269,74
788,64	1277,93
788,81	1245,16
788,99	1286,12
789,16	1179,63
789,34	1263,60
789,52	1228,78
789,69	1173,49
789,87	1279,98
790,04	1214,45
790,22	1265,64
790,39	1298,41
790,57	1327,08
790,74	1341,42
790,92	1308,65
791,09	1290,22
791,27	1284,08
791,44	1292,27
791,62	1247,21
791,79	1292,27
791,97	1255,40
792,15	1275,88
792,32	1257,45
792,50	1320,94
792,67	1245,16
792,85	1273,84
793,02	1265,64
793,20	1273,84
793,37	1284,08
793,55	1277,93
793,72	1222,64
793,90	1208,30
794,07	1300,46
794,25	1249,26
794,42	1339,37
794,60	1329,13
794,77	1322,99
794,95	1316,84
795,12	1255,40
795,30	1316,84
795,47	1232,88
795,65	1273,84
795,82	1271,79
796,00	1251,31
796,17	1275,88
796,34	1341,42
796,52	1255,40
796,69	1312,75
796,87	1361,90
797,04	1249,26
797,22	1267,69
797,39	1279,98
797,57	1216,49
797,74	1232,88
797,92	1316,84
798,09	1255,40
798,27	1251,31
798,44	1267,69
798,62	1282,03
798,79	1251,31
798,96	1298,41
799,14	1288,17
799,31	1245,16
799,49	1245,16
799,66	1294,32
799,84	1265,64
800,01	1351,66
800,19	1288,17
800,36	1318,89
800,53	1241,07
800,71	1318,89
800,88	1236,97
801,06	1271,79
801,23	1265,64
801,41	1273,84
801,58	1232,88
801,75	1333,23
801,93	1302,51
802,10	1243,12
802,28	1263,60
802,45	1306,60
802,63	1341,42
802,80	1310,70
802,97	1277,93
803,15	1339,37
803,32	1284,08
803,50	1206,25
803,67	1353,71
803,84	1296,36
804,02	1243,12
804,19	1228,78
804,37	1243,12
804,54	1284,08
804,71	1279,98
804,89	1269,74
805,06	1239,02
805,24	1259,50
805,41	1329,13
805,58	1202,16
805,76	1265,64
805,93	1214,45
806,10	1232,88
806,28	1265,64
806,45	1269,74
806,63	1243,12
806,80	1236,97
806,97	1234,93
807,15	1261,55
807,32	1224,69
807,49	1288,17
807,67	1261,55
807,84	1263,60
808,01	1204,21
808,19	1329,13
808,36	1288,17
808,54	1298,41
808,71	1249,26
808,88	1279,98
809,06	1191,92
809,23	1253,36
809,40	1271,79
809,58	1296,36
809,75	1277,93
809,92	1265,64
810,10	1286,12
810,27	1288,17
810,44	1269,74
810,62	1267,69
810,79	1267,69
810,96	1257,45
811,14	1239,02
811,31	1355,76
811,48	1286,12
811,66	1306,60
811,83	1288,17
812,00	1316,84
812,18	1245,16
812,35	1245,16
812,52	1333,23
812,69	1298,41
812,87	1241,07
813,04	1288,17
813,21	1298,41
813,39	1286,12
813,56	1267,69
813,73	1277,93
813,91	1263,60
814,08	1355,76
814,25	1318,89
814,42	1279,98
814,60	1224,69
814,77	1329,13
814,94	1286,12
815,12	1224,69
815,29	1273,84
815,46	1304,56
815,63	1228,78
815,81	1316,84
815,98	1273,84
816,15	1267,69
816,33	1275,88
816,50	1232,88
816,67	1239,02
816,84	1339,37
817,02	1243,12
817,19	1294,32
817,36	1279,98
817,53	1300,46
817,71	1314,80
817,88	1279,98
818,05	1214,45
818,22	1310,70
818,40	1255,40
818,57	1241,07
818,74	1269,74
818,91	1247,21
819,09	1279,98
819,26	1284,08
819,43	1284,08
819,60	1241,07
819,78	1290,22
819,95	1208,30
820,12	1234,93
820,29	1279,98
820,47	1286,12
820,64	1290,22
820,81	1294,32
820,98	1273,84
821,15	1236,97
821,33	1267,69
821,50	1243,12
821,67	1255,40
821,84	1236,97
822,02	1286,12
822,19	1269,74
822,36	1267,69
822,53	1279,98
822,70	1290,22
822,88	1304,56
823,05	1259,50
823,22	1294,32
823,39	1282,03
823,56	1255,40
823,74	1279,98
823,91	1380,33
824,08	1304,56
824,25	1325,04
824,42	1263,60
824,60	1263,60
824,77	1316,84
824,94	1284,08
825,11	1331,18
825,28	1245,16
825,45	1265,64
825,63	1320,94
825,80	1267,69
825,97	1273,84
826,14	1300,46
826,31	1300,46
826,48	1312,75
826,66	1275,88
826,83	1273,84
827,00	1249,26
827,17	1261,55
827,34	1290,22
827,51	1308,65
827,69	1241,07
827,86	1265,64
828,03	1212,40
828,20	1304,56
828,37	1333,23
828,54	1310,70
828,71	1251,31
828,89	1267,69
829,06	1234,93
829,23	1288,17
829,40	1290,22
829,57	1292,27
829,74	1279,98
829,91	1316,84
830,09	1294,32
830,26	1296,36
830,43	1284,08
830,60	1306,60
830,77	1255,40
830,94	1261,55
831,11	1279,98
831,28	1202,16
831,46	1282,03
831,63	1259,50
831,80	1312,75
831,97	1259,50
832,14	1275,88
832,31	1300,46
832,48	1282,03
832,65	1290,22
832,82	1239,02
832,99	1312,75
833,17	1220,59
833,34	1306,60
833,51	1259,50
833,68	1234,93
833,85	1202,16
834,02	1290,22
834,19	1288,17
834,36	1265,64
834,53	1269,74
834,70	1279,98
834,87	1243,12
835,04	1263,60
835,22	1282,03
835,39	1241,07
835,56	1269,74
835,73	1271,79
835,90	1257,45
836,07	1269,74
836,24	1361,90
836,41	1226,73
836,58	1286,12
836,75	1263,60
836,92	1271,79
837,09	1181,68
837,26	1302,51
837,43	1302,51
837,60	1263,60
837,77	1294,32
837,94	1236,97
838,12	1257,45
838,29	1216,49
838,46	1302,51
838,63	1226,73
838,80	1306,60
838,97	1261,55
839,14	1230,83
839,31	1306,60
839,48	1357,80
839,65	1322,99
839,82	1298,41
839,99	1241,07
840,16	1298,41
840,33	1312,75
840,50	1279,98
840,67	1322,99
840,84	1239,02
841,01	1284,08
841,18	1249,26
841,35	1218,54
841,52	1282,03
841,69	1271,79
841,86	1230,83
842,03	1310,70
842,20	1316,84
842,37	1210,35
842,54	1298,41
842,71	1236,97
842,88	1183,73
843,05	1306,60
843,22	1288,17
843,39	1193,97
843,56	1282,03
843,73	1228,78
843,90	1236,97
844,07	1312,75
844,24	1204,21
844,41	1255,40
844,58	1269,74
844,75	1329,13
844,92	1212,40
845,09	1243,12
845,26	1286,12
845,43	1249,26
845,60	1306,60
845,77	1277,93
845,94	1208,30
846,10	1279,98
846,27	1298,41
846,44	1329,13
846,61	1218,54
846,78	1277,93
846,95	1234,93
847,12	1288,17
847,29	1241,07
847,46	1202,16
847,63	1325,04
847,80	1241,07
847,97	1269,74
848,14	1269,74
848,31	1306,60
848,48	1251,31
848,65	1222,64
848,82	1226,73
848,98	1312,75
849,15	1228,78
849,32	1208,30
849,49	1275,88
849,66	1255,40
849,83	1265,64
850,00	1325,04
850,17	1228,78
850,34	1247,21
850,51	1206,25
850,68	1339,37
850,85	1275,88
851,01	1339,37
851,18	1187,82
851,35	1243,12
851,52	1308,65
851,69	1306,60
851,86	1306,60
852,03	1298,41
852,20	1304,56
852,37	1218,54
852,53	1290,22
852,70	1322,99
852,87	1316,84
853,04	1241,07
853,21	1329,13
853,38	1306,60
853,55	1245,16
853,72	1302,51
853,89	1290,22
854,05	1265,64
854,22	1273,84
854,39	1282,03
854,56	1302,51
854,73	1306,60
854,90	1198,06
855,07	1286,12
855,23	1226,73
855,40	1251,31
855,57	1306,60
855,74	1316,84
855,91	1290,22
856,08	1243,12
856,25	1284,08
856,41	1269,74
856,58	1267,69
856,75	1345,52
856,92	1314,80
857,09	1269,74
857,26	1255,40
857,42	1306,60
857,59	1300,46
857,76	1370,09
857,93	1230,83
858,10	1331,18
858,27	1249,26
858,43	1279,98
858,60	1314,80
858,77	1189,87
858,94	1191,92
859,11	1320,94
859,27	1290,22
859,44	1302,51
859,61	1273,84
859,78	1263,60
859,95	1282,03
860,12	1267,69
860,28	1284,08
860,45	1269,74
860,62	1271,79
860,79	1273,84
860,95	1245,16
861,12	1290,22
861,29	1271,79
861,46	1273,84
861,63	1253,36
861,79	1347,56
861,96	1222,64
862,13	1245,16
862,30	1277,93
862,47	1333,23
862,63	1314,80
862,80	1216,49
862,97	1253,36
863,14	1259,50
863,30	1269,74
863,47	1279,98
863,64	1263,60
863,81	1257,45
863,97	1273,84
864,14	1245,16
864,31	1198,06
864,48	1263,60
864,65	1304,56
864,81	1265,64
864,98	1290,22
865,15	1411,05
865,32	1298,41
865,48	1275,88
865,65	1308,65
865,82	1247,21
865,98	1183,73
866,15	1298,41
866,32	1208,30
866,49	1300,46
866,65	1269,74
866,82	1310,70
866,99	1273,84
867,16	1277,93
867,32	1298,41
867,49	1271,79
867,66	1286,12
867,83	1296,36
867,99	1298,41
868,16	1236,97
868,33	1261,55
868,49	1292,27
868,66	1290,22
868,83	1257,45
868,99	1239,02
869,16	1275,88
869,33	1261,55
869,50	1304,56
869,66	1247,21
869,83	1286,12
870,00	1290,22
870,16	1349,61
870,33	1257,45
870,50	1279,98
870,66	1296,36
870,83	1239,02
871,00	1218,54
871,17	1282,03
871,33	1314,80
871,50	1275,88
871,67	1277,93
871,83	1322,99
872,00	1241,07
872,17	1253,36
872,33	1273,84
872,50	1275,88
872,67	1288,17
872,83	1226,73
873,00	1234,93
873,17	1265,64
873,33	1282,03
873,50	1259,50
873,67	1267,69
873,83	1335,28
874,00	1265,64
874,16	1327,08
874,33	1273,84
874,50	1333,23
874,66	1279,98
874,83	1265,64
875,00	1255,40
875,16	1249,26
875,33	1314,80
875,50	1279,98
875,66	1261,55
875,83	1241,07
875,99	1351,66
876,16	1347,56
876,33	1220,59
876,49	1255,40
876,66	1255,40
876,83	1290,22
876,99	1220,59
877,16	1341,42
877,32	1314,80
877,49	1347,56
877,66	1275,88
877,82	1275,88
877,99	1316,84
878,15	1296,36
878,32	1325,04
878,49	1359,85
878,65	1171,44
878,82	1343,47
878,98	1247,21
879,15	1316,84
879,32	1284,08
879,48	1298,41
879,65	1257,45
879,81	1322,99
879,98	1306,60
880,15	1282,03
880,31	1239,02
880,48	1304,56
880,64	1296,36
880,81	1261,55
880,97	1261,55
881,14	1357,80
881,31	1277,93
881,47	1322,99
881,64	1306,60
881,80	1279,98
881,97	1271,79
882,13	1363,95
882,30	1247,21
882,47	1267,69
882,63	1200,11
882,80	1304,56
882,96	1253,36
883,13	1236,97
883,29	1253,36
883,46	1282,03
883,62	1267,69
883,79	1210,35
883,95	1316,84
884,12	1320,94
884,29	1314,80
884,45	1290,22
884,62	1333,23
884,78	1286,12
884,95	1314,80
885,11	1325,04
885,28	1339,37
885,44	1253,36
885,61	1325,04
885,77	1384,43
885,94	1349,61
886,10	1200,11
886,27	1267,69
886,43	1228,78
886,60	1273,84
886,76	1282,03
886,93	1271,79
887,09	1267,69
887,26	1263,60
887,42	1282,03
887,59	1236,97
887,75	1306,60
887,92	1277,93
888,08	1282,03
888,25	1269,74
888,41	1282,03
888,58	1286,12
888,74	1331,18
888,91	1228,78
>>>>>End Processed Spectral Data<<<<<
