SpectraSuite Data File
++++++++++++++++++++++++++++++++++++
Date: Wed May 04 22:45:24 CEST 2016
User: root
Dark Spectrum Present: No
Reference Spectrum Present: No
Number of Sampled Component Spectra: 1
Spectrometers: USB4C02835
Integration Time (usec): 100000 (USB4C02835)
Spectra Averaged: 1 (USB4C02835)
Boxcar Smoothing: 0 (USB4C02835)
Correct for Electrical Dark: No (USB4C02835)
Strobe/Lamp Enabled: No (USB4C02835)
Correct for Detector Non-linearity: No (USB4C02835)
Correct for Stray Light: No (USB4C02835)
Number of Pixels in Processed Spectrum: 3648
>>>>>Begin Processed Spectral Data<<<<<
177.47	1578.98
177.69	1578.98
177.91	1578.98
178.13	1581.03
178.36	1624.04
178.58	1865.70
178.80	1978.34
179.02	1910.75
179.24	1908.71
179.46	1890.28
179.68	2023.39
179.90	1998.82
180.13	1955.81
180.35	1816.55
180.57	1834.98
180.79	2019.30
181.01	1892.32
181.23	1988.58
181.45	2093.02
181.67	1974.24
181.90	1966.05
182.12	1875.94
182.34	1834.98
182.56	1953.76
182.78	2009.06
183.00	1949.67
183.22	1916.90
183.44	1839.08
183.66	2195.42
183.89	2023.39
184.11	1916.90
184.33	2029.54
184.55	2035.68
184.77	1953.76
184.99	2023.39
185.21	1920.99
185.43	2095.07
185.65	1884.13
185.87	1990.63
186.10	2101.22
186.32	2158.56
186.54	1951.71
186.76	1892.32
186.98	2056.16
187.20	1986.53
187.42	1892.32
187.64	1986.53
187.86	2011.11
188.08	2041.82
188.30	1906.66
188.52	1890.28
188.75	2009.06
188.97	2090.98
189.19	1931.23
189.41	1994.72
189.63	1941.47
189.85	1988.58
190.07	1908.71
190.29	1898.47
190.51	1947.62
190.73	1824.74
190.95	2033.63
191.17	1935.33
191.39	1873.89
191.61	1867.75
191.84	1912.80
192.06	1961.95
192.28	1877.99
192.50	2187.23
192.72	2017.25
192.94	1992.67
193.16	2000.87
193.38	2076.64
193.60	1839.08
193.82	1898.47
194.04	2013.15
194.26	2009.06
194.48	1923.04
194.70	1906.66
194.92	1914.85
195.14	2074.59
195.36	1855.46
195.58	1935.33
195.80	1974.24
196.02	1951.71
196.24	1908.71
196.46	1986.53
196.69	1972.19
196.91	2109.41
197.13	1937.38
197.35	1880.04
197.57	1980.39
197.79	2009.06
198.01	1970.15
198.23	1996.77
198.45	2017.25
198.67	1849.32
198.89	1888.23
199.11	1986.53
199.33	1910.75
199.55	1748.97
199.77	1931.23
199.99	2002.91
200.21	1929.19
200.43	1943.52
200.65	1845.22
200.87	1826.79
201.09	1984.48
201.31	1931.23
201.53	1988.58
201.75	1918.95
201.97	1961.95
202.19	1978.34
202.41	2021.35
202.63	2140.13
202.85	2015.20
203.07	1945.57
203.29	1884.13
203.51	1894.37
203.73	1947.62
203.95	2240.48
204.17	1970.15
204.39	1974.24
204.61	1875.94
204.83	1945.57
205.05	2002.91
205.27	2004.96
205.49	2090.98
205.71	1957.86
205.93	1867.75
206.15	1914.85
206.37	1912.80
206.59	1935.33
206.81	1880.04
207.03	1861.60
207.25	1851.36
207.47	2013.15
207.69	1931.23
207.91	2070.50
208.13	1964.00
208.34	1841.12
208.56	1847.27
208.78	1951.71
209.00	1984.48
209.22	1884.13
209.44	1929.19
209.66	1918.95
209.88	1996.77
210.10	1953.76
210.32	1935.33
210.54	1947.62
210.76	1978.34
210.98	1933.28
211.20	1816.55
211.42	2002.91
211.64	2033.63
211.86	1937.38
212.08	1996.77
212.30	1951.71
212.52	1927.14
212.74	1986.53
212.96	1941.47
213.17	2023.39
213.39	2021.35
213.61	2039.78
213.83	1923.04
214.05	1961.95
214.27	2047.97
214.49	1908.71
214.71	1937.38
214.93	2037.73
215.15	1984.48
215.37	2058.21
215.59	1873.89
215.81	2011.11
216.03	1984.48
216.24	1994.72
216.46	1910.75
216.68	1957.86
216.90	2007.01
217.12	2068.45
217.34	1920.99
217.56	1970.15
217.78	2047.97
218.00	1966.05
218.22	1929.19
218.44	2025.44
218.66	1996.77
218.87	2088.93
219.09	1951.71
219.31	1939.43
219.53	1949.67
219.75	1941.47
219.97	1892.32
220.19	1968.10
220.41	1875.94
220.63	2058.21
220.85	1986.53
221.06	1925.09
221.28	2066.40
221.50	2011.11
221.72	1951.71
221.94	1994.72
222.16	1912.80
222.38	1998.82
222.60	1939.43
222.82	1959.91
223.03	2039.78
223.25	1851.36
223.47	1935.33
223.69	2031.58
223.91	1998.82
224.13	1968.10
224.35	1886.18
224.57	2009.06
224.78	1955.81
225.00	1830.88
225.22	1910.75
225.44	1882.08
225.66	1966.05
225.88	1957.86
226.10	2015.20
226.32	2002.91
226.53	1980.39
226.75	1992.67
226.97	1951.71
227.19	1900.52
227.41	1861.60
227.63	1900.52
227.85	1834.98
228.06	1931.23
228.28	1980.39
228.50	1994.72
228.72	1865.70
228.94	1920.99
229.16	1800.16
229.37	1849.32
229.59	1867.75
229.81	2080.74
230.03	1957.86
230.25	1929.19
230.47	1818.60
230.69	1855.46
230.90	2015.20
231.12	1943.52
231.34	1935.33
231.56	2000.87
231.78	1855.46
232.00	1937.38
232.21	1937.38
232.43	1896.42
232.65	1798.12
232.87	1978.34
233.09	1824.74
233.30	1912.80
233.52	2066.40
233.74	1974.24
233.96	1898.47
234.18	1955.81
234.40	1937.38
234.61	2168.80
234.83	1824.74
235.05	1859.56
235.27	2125.79
235.49	2050.02
235.70	1937.38
235.92	2009.06
236.14	1976.29
236.36	2129.89
236.58	1855.46
236.79	1990.63
237.01	1920.99
237.23	1951.71
237.45	2076.64
237.67	1908.71
237.88	1972.19
238.10	2131.94
238.32	1892.32
238.54	1892.32
238.76	1920.99
238.97	1812.45
239.19	1826.79
239.41	1992.67
239.63	2052.06
239.85	1941.47
240.06	1906.66
240.28	1867.75
240.50	2103.26
240.72	2002.91
240.93	1966.05
241.15	2019.30
241.37	1990.63
241.59	2031.58
241.81	1908.71
242.02	1808.36
242.24	1957.86
242.46	2045.92
242.68	1890.28
242.89	1941.47
243.11	2060.26
243.33	1908.71
243.55	2011.11
243.76	1941.47
243.98	1877.99
244.20	1914.85
244.42	1933.28
244.64	2000.87
244.85	1910.75
245.07	1783.78
245.29	1951.71
245.51	2011.11
245.72	1964.00
245.94	2054.11
246.16	1996.77
246.38	1998.82
246.59	1890.28
246.81	1941.47
247.03	1892.32
247.24	1849.32
247.46	1906.66
247.68	1914.85
247.90	1912.80
248.11	1953.76
248.33	2095.07
248.55	1873.89
248.77	1914.85
248.98	1980.39
249.20	2060.26
249.42	1972.19
249.64	1964.00
249.85	1939.43
250.07	1923.04
250.29	2004.96
250.50	2000.87
250.72	1875.94
250.94	1990.63
251.16	2090.98
251.37	1937.38
251.59	1964.00
251.81	1939.43
252.02	1998.82
252.24	1863.65
252.46	1998.82
252.68	1933.28
252.89	1945.57
253.11	1873.89
253.33	2070.50
253.54	2154.46
253.76	1853.41
253.98	1941.47
254.20	1904.61
254.41	1904.61
254.63	1988.58
254.85	1802.21
255.06	1980.39
255.28	1982.43
255.50	1953.76
255.71	1906.66
255.93	1904.61
256.15	2029.54
256.36	1998.82
256.58	1886.18
256.80	1988.58
257.02	1920.99
257.23	1884.13
257.45	1877.99
257.67	1933.28
257.88	1931.23
258.10	2013.15
258.32	1931.23
258.53	1927.14
258.75	2078.69
258.97	1888.23
259.18	1882.08
259.40	1957.86
259.62	2084.83
259.83	2000.87
260.05	1949.67
260.27	2195.42
260.48	1994.72
260.70	1871.84
260.92	1886.18
261.13	1902.56
261.35	1970.15
261.57	2017.25
261.78	1775.59
262.00	1867.75
262.22	2056.16
262.43	1839.08
262.65	1945.57
262.86	1947.62
263.08	2070.50
263.30	2002.91
263.51	1783.78
263.73	1871.84
263.95	2052.06
264.16	1894.37
264.38	1875.94
264.60	2002.91
264.81	1927.14
265.03	2037.73
265.25	2013.15
265.46	1925.09
265.68	2066.40
265.89	2002.91
266.11	1789.92
266.33	2025.44
266.54	1998.82
266.76	2099.17
266.98	2019.30
267.19	2009.06
267.41	2043.87
267.62	1896.42
267.84	1816.55
268.06	1966.05
268.27	1992.67
268.49	2058.21
268.70	1986.53
268.92	1941.47
269.14	1869.80
269.35	1834.98
269.57	1980.39
269.79	1947.62
270.00	1976.29
270.22	2154.46
270.43	1837.03
270.65	1769.44
270.87	1970.15
271.08	1988.58
271.30	2031.58
271.51	1920.99
271.73	1984.48
271.95	2070.50
272.16	1927.14
272.38	1992.67
272.59	1880.04
272.81	1951.71
273.02	1984.48
273.24	1873.89
273.46	1986.53
273.67	1904.61
273.89	1894.37
274.10	1908.71
274.32	2025.44
274.54	1964.00
274.75	1972.19
274.97	1896.42
275.18	2013.15
275.40	1998.82
275.61	1947.62
275.83	2029.54
276.05	1837.03
276.26	1902.56
276.48	1943.52
276.69	1941.47
276.91	1927.14
277.12	2066.40
277.34	1968.10
277.55	2111.46
277.77	1980.39
277.99	2000.87
278.20	1888.23
278.42	1861.60
278.63	1933.28
278.85	1824.74
279.06	1916.90
279.28	1914.85
279.49	1966.05
279.71	2064.35
279.93	1951.71
280.14	1910.75
280.36	1877.99
280.57	2027.49
280.79	2027.49
281.00	1945.57
281.22	1929.19
281.43	1906.66
281.65	1832.93
281.86	1857.51
282.08	1959.91
282.29	2115.55
282.51	1929.19
282.73	1843.17
282.94	1857.51
283.16	2064.35
283.37	2058.21
283.59	1920.99
283.80	2015.20
284.02	1892.32
284.23	1957.86
284.45	1920.99
284.66	1898.47
284.88	1945.57
285.09	1957.86
285.31	1955.81
285.52	1972.19
285.74	1849.32
285.95	2031.58
286.17	1947.62
286.38	2015.20
286.60	1988.58
286.81	1902.56
287.03	1970.15
287.24	1875.94
287.46	2002.91
287.67	1951.71
287.89	2136.03
288.10	2023.39
288.32	2027.49
288.53	2115.55
288.75	1996.77
288.96	1998.82
289.18	1935.33
289.39	1939.43
289.61	2052.06
289.82	2133.98
290.04	2058.21
290.25	1851.36
290.47	1941.47
290.68	1964.00
290.90	2054.11
291.11	1884.13
291.33	1986.53
291.54	1931.23
291.76	1892.32
291.97	2009.06
292.18	1916.90
292.40	1939.43
292.61	1906.66
292.83	2148.32
293.04	2027.49
293.26	1976.29
293.47	1949.67
293.69	1882.08
293.90	1964.00
294.12	2023.39
294.33	1943.52
294.55	1888.23
294.76	2074.59
294.97	2041.82
295.19	2082.78
295.40	1873.89
295.62	1964.00
295.83	2047.97
296.05	1910.75
296.26	2002.91
296.48	1853.41
296.69	1935.33
296.90	1976.29
297.12	2009.06
297.33	2031.58
297.55	1994.72
297.76	1996.77
297.98	2033.63
298.19	1992.67
298.41	1877.99
298.62	1935.33
298.83	2086.88
299.05	1982.43
299.26	1959.91
299.48	1841.12
299.69	1939.43
299.90	1929.19
300.12	1931.23
300.33	2064.35
300.55	1986.53
300.76	2041.82
300.98	1937.38
301.19	1986.53
301.40	1972.19
301.62	1914.85
301.83	2027.49
302.05	1941.47
302.26	1961.95
302.47	1972.19
302.69	1892.32
302.90	1898.47
303.12	1873.89
303.33	1902.56
303.54	2140.13
303.76	1908.71
303.97	1943.52
304.19	2090.98
304.40	1837.03
304.61	2004.96
304.83	2072.54
305.04	2080.74
305.26	2002.91
305.47	1857.51
305.68	2043.87
305.90	1884.13
306.11	2058.21
306.33	1892.32
306.54	1865.70
306.75	1929.19
306.97	1853.41
307.18	1843.17
307.39	1892.32
307.61	2007.01
307.82	1894.37
308.04	1970.15
308.25	1902.56
308.46	1947.62
308.68	1964.00
308.89	1972.19
309.10	2047.97
309.32	1937.38
309.53	1904.61
309.74	2009.06
309.96	1869.80
310.17	2095.07
310.39	1966.05
310.60	2027.49
310.81	1966.05
311.03	1871.84
311.24	1994.72
311.45	1980.39
311.67	2097.12
311.88	2017.25
312.09	1886.18
312.31	2007.01
312.52	1931.23
312.73	1982.43
312.95	1810.40
313.16	1990.63
313.37	2027.49
313.59	1972.19
313.80	1986.53
314.01	2066.40
314.23	1898.47
314.44	1914.85
314.65	1816.55
314.87	1837.03
315.08	1937.38
315.29	1939.43
315.51	1910.75
315.72	1806.31
315.93	2138.08
316.15	1961.95
316.36	1918.95
316.57	1947.62
316.79	1935.33
317.00	1996.77
317.21	1978.34
317.43	1886.18
317.64	1941.47
317.85	1966.05
318.07	1783.78
318.28	1931.23
318.49	2088.93
318.70	2240.48
318.92	2129.89
319.13	2203.61
319.34	2203.61
319.56	2066.40
319.77	2103.26
319.98	2101.22
320.20	2111.46
320.41	2074.59
320.62	2080.74
320.83	1933.28
321.05	2121.70
321.26	1988.58
321.47	2025.44
321.69	2117.60
321.90	1804.26
322.11	1877.99
322.32	2015.20
322.54	2056.16
322.75	1925.09
322.96	2154.46
323.18	1873.89
323.39	1753.06
323.60	1859.56
323.81	2043.87
324.03	1906.66
324.24	1947.62
324.45	2050.02
324.66	1910.75
324.88	2031.58
325.09	2060.26
325.30	1941.47
325.52	2015.20
325.73	2056.16
325.94	1906.66
326.15	1810.40
326.37	1890.28
326.58	2115.55
326.79	2060.26
327.00	1859.56
327.22	2004.96
327.43	1935.33
327.64	1837.03
327.85	2013.15
328.07	2052.06
328.28	2121.70
328.49	1902.56
328.70	1988.58
328.92	1910.75
329.13	1929.19
329.34	1964.00
329.55	2045.92
329.76	2019.30
329.98	1886.18
330.19	2056.16
330.40	1996.77
330.61	1980.39
330.83	1920.99
331.04	1898.47
331.25	1959.91
331.46	1931.23
331.68	1849.32
331.89	2054.11
332.10	1959.91
332.31	1826.79
332.52	1945.57
332.74	2093.02
332.95	1912.80
333.16	1933.28
333.37	1982.43
333.58	1988.58
333.80	1908.71
334.01	1851.36
334.22	1916.90
334.43	1990.63
334.64	1939.43
334.86	1877.99
335.07	1869.80
335.28	2129.89
335.49	1808.36
335.70	1986.53
335.92	2086.88
336.13	2121.70
336.34	2052.06
336.55	1935.33
336.76	1964.00
336.98	1828.84
337.19	1898.47
337.40	2025.44
337.61	2099.17
337.82	1910.75
338.04	2045.92
338.25	1841.12
338.46	1949.67
338.67	1968.10
338.88	1886.18
339.09	1865.70
339.31	1873.89
339.52	1914.85
339.73	1906.66
339.94	1959.91
340.15	2056.16
340.36	1937.38
340.58	1986.53
340.79	1949.67
341.00	1970.15
341.21	1859.56
341.42	2095.07
341.63	1959.91
341.85	1968.10
342.06	1947.62
342.27	1900.52
342.48	1937.38
342.69	1896.42
342.90	1980.39
343.12	2004.96
343.33	1839.08
343.54	2045.92
343.75	2146.27
343.96	2004.96
344.17	1904.61
344.38	1947.62
344.60	1947.62
344.81	1855.46
345.02	1990.63
345.23	2109.41
345.44	2150.37
345.65	1957.86
345.86	1988.58
346.07	1941.47
346.29	1808.36
346.50	2002.91
346.71	1978.34
346.92	2078.69
347.13	2052.06
347.34	2009.06
347.55	1978.34
347.76	1964.00
347.98	1890.28
348.19	1923.04
348.40	2031.58
348.61	2017.25
348.82	2043.87
349.03	1974.24
349.24	1826.79
349.45	2090.98
349.66	1871.84
349.88	1904.61
350.09	1941.47
350.30	2007.01
350.51	2023.39
350.72	1982.43
350.93	2013.15
351.14	1857.51
351.35	1916.90
351.56	1865.70
351.77	1943.52
351.99	1937.38
352.20	2099.17
352.41	2070.50
352.62	1779.68
352.83	1867.75
353.04	1882.08
353.25	1884.13
353.46	1990.63
353.67	2023.39
353.88	1822.69
354.09	2004.96
354.30	1929.19
354.52	2007.01
354.73	1918.95
354.94	1892.32
355.15	2025.44
355.36	2131.94
355.57	1914.85
355.78	1974.24
355.99	1984.48
356.20	1925.09
356.41	2023.39
356.62	1916.90
356.83	1925.09
357.04	2109.41
357.25	1849.32
357.46	1884.13
357.68	1806.31
357.89	1916.90
358.10	1961.95
358.31	1964.00
358.52	1925.09
358.73	1867.75
358.94	1890.28
359.15	1869.80
359.36	2007.01
359.57	1990.63
359.78	1910.75
359.99	2002.91
360.20	1859.56
360.41	1935.33
360.62	1994.72
360.83	1970.15
361.04	1957.86
361.25	2039.78
361.46	2021.35
361.67	2050.02
361.88	2054.11
362.09	2064.35
362.30	1959.91
362.51	1974.24
362.72	1927.14
362.93	2041.82
363.14	1976.29
363.35	1964.00
363.56	1910.75
363.78	2013.15
363.99	1937.38
364.20	1886.18
364.41	1994.72
364.62	2064.35
364.83	1988.58
365.04	1953.76
365.25	1935.33
365.46	2119.65
365.67	1871.84
365.88	1920.99
366.09	1877.99
366.30	1970.15
366.51	1943.52
366.72	1826.79
366.93	1968.10
367.14	1974.24
367.35	2115.55
367.56	1955.81
367.77	2033.63
367.98	1953.76
368.18	2002.91
368.39	1914.85
368.60	1894.37
368.81	2035.68
369.02	1949.67
369.23	1990.63
369.44	1918.95
369.65	1959.91
369.86	1916.90
370.07	1951.71
370.28	1859.56
370.49	1994.72
370.70	2084.83
370.91	1925.09
371.12	1923.04
371.33	2062.30
371.54	1894.37
371.75	2029.54
371.96	1816.55
372.17	1964.00
372.38	1931.23
372.59	1935.33
372.80	1976.29
373.01	1902.56
373.22	1894.37
373.43	2000.87
373.64	1910.75
373.85	2121.70
374.06	2084.83
374.26	2029.54
374.47	2029.54
374.68	2043.87
374.89	1996.77
375.10	1935.33
375.31	2101.22
375.52	1986.53
375.73	1937.38
375.94	1888.23
376.15	2035.68
376.36	1941.47
376.57	1822.69
376.78	1951.71
376.99	1902.56
377.20	2041.82
377.40	1892.32
377.61	2103.26
377.82	1888.23
378.03	2015.20
378.24	2029.54
378.45	1939.43
378.66	2007.01
378.87	1841.12
379.08	1849.32
379.29	1861.60
379.50	2039.78
379.71	1918.95
379.91	2119.65
380.12	1972.19
380.33	1984.48
380.54	1974.24
380.75	1904.61
380.96	1945.57
381.17	2041.82
381.38	1978.34
381.59	2084.83
381.80	2015.20
382.00	2162.66
382.21	1976.29
382.42	2164.70
382.63	2211.81
382.84	1980.39
383.05	2050.02
383.26	2103.26
383.47	1988.58
383.68	2070.50
383.88	1986.53
384.09	1964.00
384.30	2101.22
384.51	2017.25
384.72	1964.00
384.93	1947.62
385.14	1998.82
385.35	2021.35
385.55	1892.32
385.76	2074.59
385.97	1964.00
386.18	1880.04
386.39	1869.80
386.60	2009.06
386.81	2015.20
387.02	1953.76
387.22	1896.42
387.43	2088.93
387.64	2007.01
387.85	2133.98
388.06	2295.77
388.27	3987.40
388.48	8726.39
388.68	12339.01
388.89	14417.70
389.10	15511.32
389.31	14020.39
389.52	11038.55
389.73	9637.74
389.93	8671.10
390.14	8028.04
390.35	7133.08
390.56	6477.73
390.77	5326.77
390.98	4071.36
391.18	3213.26
391.39	2504.67
391.60	2185.18
391.81	2127.84
392.02	1931.23
392.23	2138.08
392.43	2058.21
392.64	2009.06
392.85	1888.23
393.06	2066.40
393.27	1996.77
393.47	1953.76
393.68	1904.61
393.89	1898.47
394.10	2035.68
394.31	1968.10
394.52	1974.24
394.72	1890.28
394.93	2064.35
395.14	1920.99
395.35	2039.78
395.56	1939.43
395.76	1900.52
395.97	2023.39
396.18	2123.74
396.39	2140.13
396.60	2381.79
396.80	2258.91
397.01	2195.42
397.22	2220.00
397.43	2131.94
397.64	2050.02
397.84	2039.78
398.05	2228.19
398.26	2023.39
398.47	2088.93
398.67	2062.30
398.88	1927.14
399.09	2002.91
399.30	1961.95
399.51	2029.54
399.71	1908.71
399.92	1992.67
400.13	1980.39
400.34	1910.75
400.54	2009.06
400.75	2045.92
400.96	1988.58
401.17	2074.59
401.37	2013.15
401.58	1943.52
401.79	2031.58
402.00	2111.46
402.21	2291.68
402.41	2265.05
402.62	2322.40
402.83	2422.75
403.04	2451.42
403.24	2484.19
403.45	2127.84
403.66	2269.15
403.87	2170.85
404.07	2187.23
404.28	2209.76
404.49	2242.53
404.70	2015.20
404.90	2068.45
405.11	2015.20
405.32	1980.39
405.52	1906.66
405.73	1920.99
405.94	1927.14
406.15	1955.81
406.35	1964.00
406.56	1961.95
406.77	2013.15
406.98	1992.67
407.18	1931.23
407.39	2080.74
407.60	1894.37
407.80	2025.44
408.01	1943.52
408.22	1935.33
408.43	1955.81
408.63	2058.21
408.84	2021.35
409.05	1951.71
409.25	1961.95
409.46	1925.09
409.67	1875.94
409.88	1927.14
410.08	1947.62
410.29	1916.90
410.50	2039.78
410.70	1988.58
410.91	1888.23
411.12	2004.96
411.32	1970.15
411.53	1937.38
411.74	2097.12
411.95	2058.21
412.15	2056.16
412.36	2146.27
412.57	1990.63
412.77	2086.88
412.98	2011.11
413.19	1939.43
413.39	2000.87
413.60	2041.82
413.81	2023.39
414.01	1935.33
414.22	1968.10
414.43	1984.48
414.63	1935.33
414.84	2043.87
415.05	1904.61
415.25	1828.84
415.46	1964.00
415.67	1957.86
415.87	2017.25
416.08	1918.95
416.29	1920.99
416.49	1994.72
416.70	1912.80
416.91	1861.60
417.11	1988.58
417.32	1974.24
417.53	2045.92
417.73	1980.39
417.94	1990.63
418.15	1974.24
418.35	1984.48
418.56	2000.87
418.77	2101.22
418.97	1900.52
419.18	1912.80
419.38	1785.83
419.59	1978.34
419.80	2054.11
420.00	1910.75
420.21	1904.61
420.42	1998.82
420.62	1939.43
420.83	1914.85
421.04	1908.71
421.24	2029.54
421.45	1982.43
421.65	1947.62
421.86	1882.08
422.07	1978.34
422.27	1935.33
422.48	2045.92
422.69	1951.71
422.89	1968.10
423.10	1886.18
423.30	1847.27
423.51	1945.57
423.72	1996.77
423.92	2074.59
424.13	1875.94
424.33	1953.76
424.54	2031.58
424.75	1998.82
424.95	2043.87
425.16	2017.25
425.36	2011.11
425.57	2043.87
425.78	1996.77
425.98	2037.73
426.19	1912.80
426.39	1855.46
426.60	2027.49
426.81	2029.54
427.01	1902.56
427.22	1869.80
427.42	1845.22
427.63	1929.19
427.83	1949.67
428.04	2080.74
428.25	2064.35
428.45	2084.83
428.66	2050.02
428.86	1978.34
429.07	1927.14
429.28	2019.30
429.48	1904.61
429.69	1937.38
429.89	1996.77
430.10	1865.70
430.30	1923.04
430.51	2029.54
430.71	1939.43
430.92	2015.20
431.13	1888.23
431.33	1976.29
431.54	2000.87
431.74	2078.69
431.95	2127.84
432.15	1937.38
432.36	2017.25
432.56	2033.63
432.77	2097.12
432.98	2076.64
433.18	1992.67
433.39	1959.91
433.59	1964.00
433.80	2060.26
434.00	2127.84
434.21	1943.52
434.41	1892.32
434.62	2125.79
434.82	1925.09
435.03	1863.65
435.23	1996.77
435.44	1859.56
435.64	1982.43
435.85	1929.19
436.06	2007.01
436.26	2019.30
436.47	2009.06
436.67	1841.12
436.88	1959.91
437.08	2041.82
437.29	2113.50
437.49	2037.73
437.70	2068.45
437.90	1972.19
438.11	2105.31
438.31	2064.35
438.52	2148.32
438.72	2148.32
438.93	2263.01
439.13	2041.82
439.34	2136.03
439.54	2060.26
439.75	2084.83
439.95	2058.21
440.16	1892.32
440.36	1918.95
440.57	2023.39
440.77	2019.30
440.98	2050.02
441.18	2047.97
441.39	1918.95
441.59	1877.99
441.80	2136.03
442.00	1966.05
442.21	2076.64
442.41	1869.80
442.62	2054.11
442.82	1916.90
443.02	1941.47
443.23	2000.87
443.43	1994.72
443.64	2152.42
443.84	1945.57
444.05	2154.46
444.25	2000.87
444.46	2009.06
444.66	1966.05
444.87	2058.21
445.07	1855.46
445.28	1978.34
445.48	2103.26
445.69	2019.30
445.89	2189.28
446.09	1941.47
446.30	2195.42
446.50	2648.02
446.71	4143.04
446.91	5253.04
447.12	6141.86
447.32	6645.66
447.53	6061.99
447.73	4904.89
447.93	4298.69
448.14	3979.20
448.34	3743.69
448.55	3297.23
448.75	3395.53
448.96	3241.93
449.16	2858.96
449.36	2703.32
449.57	2297.82
449.77	2103.26
449.98	2076.64
450.18	2037.73
450.39	2058.21
450.59	2097.12
450.79	1972.19
451.00	1916.90
451.20	2009.06
451.41	2015.20
451.61	1947.62
451.81	1961.95
452.02	2019.30
452.22	1947.62
452.43	1935.33
452.63	1945.57
452.84	2031.58
453.04	1996.77
453.24	2019.30
453.45	1976.29
453.65	1908.71
453.86	2037.73
454.06	2060.26
454.26	1990.63
454.47	1972.19
454.67	2080.74
454.87	2080.74
455.08	1931.23
455.28	2099.17
455.49	1970.15
455.69	1972.19
455.89	2201.57
456.10	2078.69
456.30	1959.91
456.51	2029.54
456.71	1937.38
456.91	2009.06
457.12	1982.43
457.32	2007.01
457.52	1916.90
457.73	1996.77
457.93	2084.83
458.14	1943.52
458.34	1959.91
458.54	2015.20
458.75	1937.38
458.95	2121.70
459.15	1964.00
459.36	1947.62
459.56	2011.11
459.76	2117.60
459.97	1943.52
460.17	1951.71
460.37	2111.46
460.58	1980.39
460.78	2013.15
460.99	1918.95
461.19	2004.96
461.39	1990.63
461.60	1974.24
461.80	2007.01
462.00	1892.32
462.21	1943.52
462.41	1929.19
462.61	1972.19
462.82	1787.88
463.02	2054.11
463.22	1968.10
463.43	2039.78
463.63	1918.95
463.83	2086.88
464.04	2037.73
464.24	1947.62
464.44	1929.19
464.64	1978.34
464.85	2035.68
465.05	2021.35
465.25	1966.05
465.46	1951.71
465.66	1998.82
465.86	1970.15
466.07	2019.30
466.27	1986.53
466.47	1888.23
466.68	1855.46
466.88	2064.35
467.08	1970.15
467.29	2027.49
467.49	1933.28
467.69	2076.64
467.89	1935.33
468.10	1898.47
468.30	2004.96
468.50	2076.64
468.71	2054.11
468.91	1828.84
469.11	2144.22
469.31	2002.91
469.52	1925.09
469.72	2080.74
469.92	2185.18
470.13	2052.06
470.33	2037.73
470.53	2115.55
470.73	2471.90
470.94	2887.64
471.14	3166.16
471.34	3356.62
471.54	3243.98
471.75	2947.03
471.95	2635.74
472.15	2609.11
472.36	2586.58
472.56	2465.75
472.76	2418.65
472.96	2437.08
473.17	2281.44
473.37	2236.38
473.57	2060.26
473.77	2060.26
473.98	2066.40
474.18	1890.28
474.38	2183.13
474.58	1906.66
474.79	1863.65
474.99	2029.54
475.19	2070.50
475.39	1943.52
475.60	1970.15
475.80	1992.67
476.00	1990.63
476.20	1970.15
476.41	2015.20
476.61	2045.92
476.81	2068.45
477.01	1916.90
477.21	2181.09
477.42	2072.54
477.62	1896.42
477.82	1980.39
478.02	1986.53
478.23	1961.95
478.43	1918.95
478.63	2045.92
478.83	2070.50
479.03	1953.76
479.24	2080.74
479.44	2142.18
479.64	1834.98
479.84	1837.03
480.04	1892.32
480.25	2078.69
480.45	1904.61
480.65	1910.75
480.85	2074.59
481.06	1945.57
481.26	1998.82
481.46	1923.04
481.66	2054.11
481.86	1916.90
482.06	2078.69
482.27	1998.82
482.47	1871.84
482.67	1896.42
482.87	1923.04
483.07	1982.43
483.28	1982.43
483.48	1908.71
483.68	1939.43
483.88	1888.23
484.08	1867.75
484.29	1890.28
484.49	1970.15
484.69	1859.56
484.89	1988.58
485.09	2011.11
485.29	2017.25
485.50	2045.92
485.70	1908.71
485.90	2056.16
486.10	1994.72
486.30	2076.64
486.50	2084.83
486.71	1978.34
486.91	2017.25
487.11	2047.97
487.31	1916.90
487.51	1994.72
487.71	1800.16
487.91	1859.56
488.12	1951.71
488.32	1826.79
488.52	1951.71
488.72	1783.78
488.92	1994.72
489.12	2103.26
489.32	2062.30
489.53	2027.49
489.73	1871.84
489.93	2086.88
490.13	1935.33
490.33	1873.89
490.53	1927.14
490.73	2076.64
490.94	1826.79
491.14	2017.25
491.34	2086.88
491.54	2357.21
491.74	2930.64
491.94	3491.79
492.14	3835.85
492.34	3831.75
492.54	3579.85
492.75	2949.08
492.95	2920.40
493.15	2734.04
493.35	2697.17
493.55	2635.74
493.75	2492.38
493.95	2535.39
494.15	2326.49
494.35	2232.29
494.56	2150.37
494.76	1988.58
494.96	2052.06
495.16	2021.35
495.36	2031.58
495.56	2000.87
495.76	1953.76
495.96	1951.71
496.16	1943.52
496.36	2121.70
496.56	1937.38
496.77	2019.30
496.97	1998.82
497.17	2027.49
497.37	1918.95
497.57	1988.58
497.77	1918.95
497.97	1980.39
498.17	1964.00
498.37	1986.53
498.57	2021.35
498.77	1947.62
498.97	1992.67
499.17	2101.22
499.38	2000.87
499.58	1941.47
499.78	2097.12
499.98	2080.74
500.18	2007.01
500.38	1929.19
500.58	2076.64
500.78	2635.74
500.98	4788.15
501.18	6961.05
501.38	8849.27
501.58	9688.94
501.78	9662.32
501.98	7577.48
502.18	6270.88
502.38	5509.04
502.58	4954.04
502.78	4419.52
502.98	4218.82
503.18	4145.09
503.38	3766.21
503.59	3303.37
503.79	2996.18
503.99	2799.57
504.19	2582.49
504.39	2621.40
504.59	2652.12
504.79	2650.07
504.99	2611.16
505.19	2381.79
505.39	2203.61
505.59	2312.16
505.79	2260.96
505.99	2232.29
506.19	2119.65
506.39	2236.38
506.59	1988.58
506.79	2080.74
506.99	2172.89
507.19	2054.11
507.39	2095.07
507.59	1888.23
507.79	1902.56
507.99	1920.99
508.19	1986.53
508.39	1964.00
508.59	1988.58
508.79	2095.07
508.99	2119.65
509.19	1894.37
509.39	2045.92
509.59	1912.80
509.79	1935.33
509.99	2037.73
510.19	2127.84
510.39	2074.59
510.59	1949.67
510.79	1853.41
510.99	1880.04
511.19	1988.58
511.39	2129.89
511.59	2054.11
511.79	2103.26
511.99	1914.85
512.19	2072.54
512.38	1951.71
512.58	1918.95
512.78	2031.58
512.98	2037.73
513.18	1992.67
513.38	1886.18
513.58	1982.43
513.78	1935.33
513.98	1914.85
514.18	2023.39
514.38	1906.66
514.58	2029.54
514.78	1943.52
514.98	1900.52
515.18	1998.82
515.38	1853.41
515.58	2119.65
515.78	1908.71
515.98	2004.96
516.18	2029.54
516.38	2027.49
516.57	1892.32
516.77	1906.66
516.97	1998.82
517.17	1918.95
517.37	1871.84
517.57	1976.29
517.77	1896.42
517.97	1927.14
518.17	1945.57
518.37	1912.80
518.57	1957.86
518.77	1951.71
518.97	1972.19
519.16	2101.22
519.36	1994.72
519.56	1918.95
519.76	1925.09
519.96	2000.87
520.16	2109.41
520.36	1873.89
520.56	2095.07
520.76	1955.81
520.96	1890.28
521.16	2015.20
521.35	2039.78
521.55	2138.08
521.75	2068.45
521.95	1900.52
522.15	1931.23
522.35	1918.95
522.55	1945.57
522.75	2017.25
522.95	1925.09
523.14	1902.56
523.34	1980.39
523.54	1937.38
523.74	2050.02
523.94	2064.35
524.14	1857.51
524.34	2099.17
524.54	2070.50
524.73	1923.04
524.93	2062.30
525.13	2027.49
525.33	1841.12
525.53	2148.32
525.73	1998.82
525.93	1951.71
526.13	1918.95
526.32	2004.96
526.52	2019.30
526.72	2047.97
526.92	2009.06
527.12	1935.33
527.32	1892.32
527.52	1998.82
527.71	2021.35
527.91	1955.81
528.11	1875.94
528.31	1980.39
528.51	1951.71
528.71	2054.11
528.90	2041.82
529.10	2027.49
529.30	2009.06
529.50	1847.27
529.70	2013.15
529.90	1980.39
530.09	2041.82
530.29	1912.80
530.49	1894.37
530.69	2199.52
530.89	1984.48
531.09	2009.06
531.28	1972.19
531.48	2037.73
531.68	2050.02
531.88	1978.34
532.08	2121.70
532.28	1986.53
532.47	2043.87
532.67	2099.17
532.87	2019.30
533.07	1988.58
533.27	2068.45
533.46	2033.63
533.66	1994.72
533.86	1998.82
534.06	2015.20
534.26	2037.73
534.45	1931.23
534.65	2056.16
534.85	2105.31
535.05	1929.19
535.25	2033.63
535.44	1888.23
535.64	2064.35
535.84	1961.95
536.04	1974.24
536.24	1988.58
536.43	1877.99
536.63	1992.67
536.83	1966.05
537.03	1945.57
537.22	1785.83
537.42	1828.84
537.62	2027.49
537.82	1939.43
538.02	2127.84
538.21	2117.60
538.41	2209.76
538.61	1994.72
538.81	1976.29
539.00	2076.64
539.20	1920.99
539.40	1974.24
539.60	2064.35
539.79	2072.54
539.99	1927.14
540.19	1976.29
540.39	2002.91
540.58	2062.30
540.78	2074.59
540.98	2004.96
541.18	2078.69
541.37	2027.49
541.57	1953.76
541.77	2004.96
541.97	1953.76
542.16	1904.61
542.36	1925.09
542.56	1955.81
542.76	2162.66
542.95	2023.39
543.15	1988.58
543.35	1994.72
543.54	1998.82
543.74	1961.95
543.94	2037.73
544.14	1953.76
544.33	1996.77
544.53	1935.33
544.73	1949.67
544.93	1933.28
545.12	2027.49
545.32	1949.67
545.52	1974.24
545.71	1886.18
545.91	1998.82
546.11	1949.67
546.30	1933.28
546.50	2015.20
546.70	2015.20
546.90	1992.67
547.09	1845.22
547.29	2037.73
547.49	2039.78
547.68	1966.05
547.88	1957.86
548.08	1980.39
548.27	2463.71
548.47	1933.28
548.67	1935.33
548.87	2033.63
549.06	1945.57
549.26	2039.78
549.46	1976.29
549.65	1853.41
549.85	1992.67
550.05	2045.92
550.24	1902.56
550.44	1996.77
550.64	2009.06
550.83	1931.23
551.03	2058.21
551.23	2019.30
551.42	2031.58
551.62	1966.05
551.82	1986.53
552.01	1941.47
552.21	2093.02
552.41	1990.63
552.60	2066.40
552.80	1916.90
553.00	1861.60
553.19	2007.01
553.39	2131.94
553.59	1898.47
553.78	2052.06
553.98	2007.01
554.17	1923.04
554.37	2037.73
554.57	2074.59
554.76	1871.84
554.96	1947.62
555.16	2002.91
555.35	1949.67
555.55	2033.63
555.75	1943.52
555.94	2093.02
556.14	1834.98
556.33	2031.58
556.53	1957.86
556.73	1916.90
556.92	2115.55
557.12	2133.98
557.32	2160.61
557.51	2066.40
557.71	2025.44
557.90	2115.55
558.10	2086.88
558.30	1980.39
558.49	2009.06
558.69	1945.57
558.88	2007.01
559.08	1970.15
559.28	1900.52
559.47	1923.04
559.67	2056.16
559.86	2109.41
560.06	1929.19
560.26	1914.85
560.45	2002.91
560.65	2027.49
560.84	2095.07
561.04	1908.71
561.24	1988.58
561.43	1896.42
561.63	2156.51
561.82	1996.77
562.02	2088.93
562.22	1906.66
562.41	1845.22
562.61	1982.43
562.80	1925.09
563.00	2176.99
563.19	2050.02
563.39	1964.00
563.59	1998.82
563.78	1923.04
563.98	1875.94
564.17	1978.34
564.37	1935.33
564.56	1988.58
564.76	1861.60
564.96	2146.27
565.15	2074.59
565.35	2162.66
565.54	1935.33
565.74	2013.15
565.93	2025.44
566.13	1902.56
566.32	1976.29
566.52	2058.21
566.71	1972.19
566.91	2113.50
567.11	2066.40
567.30	1914.85
567.50	2027.49
567.69	2007.01
567.89	1935.33
568.08	1923.04
568.28	2039.78
568.47	1871.84
568.67	2052.06
568.86	1945.57
569.06	2109.41
569.25	1959.91
569.45	1904.61
569.64	1931.23
569.84	1974.24
570.04	1935.33
570.23	1976.29
570.43	2013.15
570.62	1996.77
570.82	2066.40
571.01	1925.09
571.21	1894.37
571.40	1908.71
571.60	2082.78
571.79	1990.63
571.99	1955.81
572.18	1902.56
572.38	2095.07
572.57	1935.33
572.77	2047.97
572.96	2197.47
573.16	1988.58
573.35	2011.11
573.55	2127.84
573.74	2047.97
573.94	2043.87
574.13	1970.15
574.33	1968.10
574.52	2107.36
574.71	2002.91
574.91	2056.16
575.10	1824.74
575.30	1961.95
575.49	1955.81
575.69	1990.63
575.88	1970.15
576.08	2019.30
576.27	2093.02
576.47	2086.88
576.66	2117.60
576.86	2043.87
577.05	2093.02
577.25	1968.10
577.44	2156.51
577.64	2062.30
577.83	2021.35
578.02	2004.96
578.22	2093.02
578.41	2099.17
578.61	1974.24
578.80	2033.63
579.00	1957.86
579.19	2047.97
579.39	1939.43
579.58	2047.97
579.77	2015.20
579.97	2103.26
580.16	2080.74
580.36	2199.52
580.55	2113.50
580.75	2095.07
580.94	1998.82
581.13	2068.45
581.33	2138.08
581.52	2031.58
581.72	2166.75
581.91	2244.57
582.11	2074.59
582.30	2103.26
582.49	1974.24
582.69	2154.46
582.88	2115.55
583.08	2007.01
583.27	2074.59
583.47	2068.45
583.66	1968.10
583.85	1978.34
584.05	1976.29
584.24	2070.50
584.44	2011.11
584.63	2117.60
584.82	2211.81
585.02	2152.42
585.21	2211.81
585.41	2166.75
585.60	2054.11
585.79	2213.85
585.99	2250.72
586.18	2050.02
586.37	2602.97
586.57	4022.21
586.76	11886.41
586.96	30461.49
587.15	45065.55
587.34	54486.21
587.54	60544.10
587.73	57205.91
587.93	40037.79
588.12	30094.90
588.31	23768.73
588.51	20733.64
588.70	19144.41
588.89	17243.90
589.09	15134.49
589.28	13272.89
589.47	10760.03
589.67	8828.79
589.86	6504.35
590.06	4829.11
590.25	3827.65
590.44	3106.77
590.64	2693.08
590.83	2373.60
591.02	2250.72
591.22	2154.46
591.41	2131.94
591.60	2037.73
591.80	2244.57
591.99	1968.10
592.18	1966.05
592.38	2103.26
592.57	1992.67
592.76	2045.92
592.96	2066.40
593.15	2011.11
593.34	2072.54
593.54	1978.34
593.73	2078.69
593.92	2158.56
594.12	2062.30
594.31	2070.50
594.50	2121.70
594.70	2179.04
594.89	2228.19
595.08	1935.33
595.28	2060.26
595.47	2246.62
595.66	2152.42
595.86	1908.71
596.05	2011.11
596.24	1945.57
596.43	2113.50
596.63	2119.65
596.82	2090.98
597.01	2129.89
597.21	2187.23
597.40	2070.50
597.59	2045.92
597.79	2043.87
597.98	2121.70
598.17	2054.11
598.36	1970.15
598.56	2097.12
598.75	2045.92
598.94	1968.10
599.14	1994.72
599.33	2076.64
599.52	2086.88
599.71	2009.06
599.91	2088.93
600.10	2027.49
600.29	1955.81
600.48	2041.82
600.68	2062.30
600.87	2056.16
601.06	1972.19
601.26	1982.43
601.45	2039.78
601.64	1984.48
601.83	2095.07
602.03	1900.52
602.22	1945.57
602.41	2097.12
602.60	2209.76
602.80	2072.54
602.99	2011.11
603.18	1955.81
603.37	2021.35
603.57	1980.39
603.76	2047.97
603.95	2078.69
604.14	1796.07
604.34	1892.32
604.53	2027.49
604.72	1953.76
604.91	2004.96
605.10	1988.58
605.30	1945.57
605.49	2181.09
605.68	2080.74
605.87	2043.87
606.07	1900.52
606.26	2043.87
606.45	1992.67
606.64	1935.33
606.84	1976.29
607.03	2011.11
607.22	2156.51
607.41	2029.54
607.60	2019.30
607.80	2101.22
607.99	1998.82
608.18	2133.98
608.37	1939.43
608.56	1902.56
608.76	2166.75
608.95	2193.37
609.14	2052.06
609.33	2158.56
609.52	2117.60
609.72	2121.70
609.91	2027.49
610.10	2125.79
610.29	2105.31
610.48	2027.49
610.68	2027.49
610.87	1992.67
611.06	2023.39
611.25	1994.72
611.44	2119.65
611.63	1978.34
611.83	2064.35
612.02	1929.19
612.21	2121.70
612.40	1933.28
612.59	1857.51
612.79	1914.85
612.98	1933.28
613.17	2099.17
613.36	2031.58
613.55	2150.37
613.74	2084.83
613.93	2170.85
614.13	2230.24
614.32	2275.29
614.51	2244.57
614.70	2097.12
614.89	2025.44
615.08	2127.84
615.28	2523.10
615.47	1976.29
615.66	2015.20
615.85	2082.78
616.04	2174.94
616.23	2013.15
616.42	2076.64
616.62	2133.98
616.81	2025.44
617.00	2082.78
617.19	2080.74
617.38	1998.82
617.57	1931.23
617.76	2007.01
617.95	2045.92
618.15	2086.88
618.34	2097.12
618.53	1861.60
618.72	2070.50
618.91	2105.31
619.10	2121.70
619.29	1955.81
619.48	1992.67
619.68	1927.14
619.87	1927.14
620.06	1877.99
620.25	2060.26
620.44	1935.33
620.63	2023.39
620.82	1974.24
621.01	2041.82
621.20	1980.39
621.39	1992.67
621.59	2068.45
621.78	2025.44
621.97	1986.53
622.16	1998.82
622.35	1978.34
622.54	2064.35
622.73	2060.26
622.92	1867.75
623.11	2029.54
623.30	1947.62
623.49	1978.34
623.68	1894.37
623.88	2101.22
624.07	1968.10
624.26	1982.43
624.45	2043.87
624.64	1939.43
624.83	2033.63
625.02	1828.84
625.21	2007.01
625.40	2004.96
625.59	2080.74
625.78	2029.54
625.97	2052.06
626.16	2179.04
626.35	2109.41
626.54	2058.21
626.74	2164.70
626.93	1966.05
627.12	1988.58
627.31	2129.89
627.50	2004.96
627.69	2011.11
627.88	1929.19
628.07	1968.10
628.26	1869.80
628.45	1929.19
628.64	1957.86
628.83	1953.76
629.02	1929.19
629.21	2017.25
629.40	2052.06
629.59	1898.47
629.78	1955.81
629.97	1990.63
630.16	2021.35
630.35	2004.96
630.54	1957.86
630.73	1964.00
630.92	1978.34
631.11	2023.39
631.30	1976.29
631.49	1990.63
631.68	1927.14
631.87	1959.91
632.06	1966.05
632.25	2199.52
632.44	2060.26
632.63	2088.93
632.82	2066.40
633.01	2027.49
633.20	2088.93
633.39	2041.82
633.58	1996.77
633.77	2041.82
633.96	2093.02
634.15	1994.72
634.34	2084.83
634.53	2052.06
634.72	2086.88
634.91	1841.12
635.10	2035.68
635.29	2019.30
635.48	2029.54
635.67	1966.05
635.86	1945.57
636.05	2099.17
636.24	1988.58
636.43	2047.97
636.62	1996.77
636.81	1843.17
637.00	1939.43
637.19	2064.35
637.38	2029.54
637.57	1970.15
637.76	2050.02
637.95	2111.46
638.14	2033.63
638.33	2072.54
638.52	2080.74
638.71	1968.10
638.89	2004.96
639.08	2222.05
639.27	2148.32
639.46	2160.61
639.65	2641.88
639.84	2617.30
640.03	2863.06
640.22	2754.52
640.41	2703.32
640.60	2303.96
640.79	2287.58
640.98	2299.87
641.17	2238.43
641.36	2228.19
641.55	2144.22
641.74	2011.11
641.92	2035.68
642.11	2045.92
642.30	2068.45
642.49	1931.23
642.68	1974.24
642.87	1925.09
643.06	1992.67
643.25	1943.52
643.44	1955.81
643.63	1986.53
643.82	2039.78
644.00	1949.67
644.19	1943.52
644.38	1994.72
644.57	1955.81
644.76	1978.34
644.95	1953.76
645.14	1964.00
645.33	1984.48
645.52	1935.33
645.71	1832.93
645.89	1888.23
646.08	1898.47
646.27	1943.52
646.46	2125.79
646.65	1865.70
646.84	1951.71
647.03	1910.75
647.22	1929.19
647.40	1972.19
647.59	1953.76
647.78	1845.22
647.97	1824.74
648.16	1898.47
648.35	2088.93
648.54	2097.12
648.73	1964.00
648.91	1998.82
649.10	2058.21
649.29	1939.43
649.48	1941.47
649.67	2058.21
649.86	2011.11
650.05	2019.30
650.23	2181.09
650.42	2121.70
650.61	2232.29
650.80	2125.79
650.99	2238.43
651.18	2027.49
651.36	2191.33
651.55	1992.67
651.74	2099.17
651.93	1968.10
652.12	1929.19
652.31	2017.25
652.49	1970.15
652.68	1970.15
652.87	2203.61
653.06	2062.30
653.25	2166.75
653.44	2054.11
653.62	2136.03
653.81	1998.82
654.00	1920.99
654.19	2070.50
654.38	2191.33
654.56	1964.00
654.75	1974.24
654.94	2062.30
655.13	1992.67
655.32	1945.57
655.51	2066.40
655.69	1951.71
655.88	2058.21
656.07	1923.04
656.26	1933.28
656.45	1837.03
656.63	2025.44
656.82	2017.25
657.01	2004.96
657.20	1880.04
657.38	2115.55
657.57	1873.89
657.76	1789.92
657.95	1925.09
658.14	1947.62
658.32	1951.71
658.51	1845.22
658.70	2025.44
658.89	2039.78
659.08	2007.01
659.26	2164.70
659.45	2009.06
659.64	2095.07
659.83	2019.30
660.01	2340.83
660.20	2088.93
660.39	2119.65
660.58	1910.75
660.76	2107.36
660.95	1925.09
661.14	1966.05
661.33	1859.56
661.51	1945.57
661.70	1898.47
661.89	1951.71
662.08	1939.43
662.26	1822.69
662.45	1810.40
662.64	2121.70
662.83	2002.91
663.01	1859.56
663.20	1949.67
663.39	2099.17
663.58	1953.76
663.76	1927.14
663.95	2052.06
664.14	1920.99
664.32	2002.91
664.51	1888.23
664.70	1787.88
664.89	2017.25
665.07	1898.47
665.26	2052.06
665.45	1906.66
665.64	2039.78
665.82	1916.90
666.01	2078.69
666.20	1910.75
666.38	2072.54
666.57	2099.17
666.76	2801.62
666.95	6778.78
667.13	14927.64
667.32	20889.28
667.51	25159.30
667.69	27233.89
667.88	25990.77
668.07	18872.03
668.25	14450.47
668.44	11870.03
668.63	10098.53
668.81	9013.11
669.00	7980.93
669.19	7016.34
669.38	6109.09
669.56	5412.78
669.75	4345.79
669.94	3649.48
670.12	3045.33
670.31	2721.75
670.50	2385.88
670.68	2289.63
670.87	2146.27
671.06	2090.98
671.24	2066.40
671.43	2224.09
671.62	2056.16
671.80	2035.68
671.99	2072.54
672.18	1990.63
672.36	2054.11
672.55	2062.30
672.74	1974.24
672.92	1953.76
673.11	2045.92
673.29	1896.42
673.48	2062.30
673.67	1945.57
673.85	2058.21
674.04	1972.19
674.23	1966.05
674.41	2045.92
674.60	1904.61
674.79	1904.61
674.97	1898.47
675.16	2033.63
675.34	1988.58
675.53	2009.06
675.72	2019.30
675.90	2099.17
676.09	1970.15
676.28	1865.70
676.46	1902.56
676.65	2017.25
676.83	1910.75
677.02	1906.66
677.21	1998.82
677.39	2004.96
677.58	1873.89
677.77	1929.19
677.95	1863.65
678.14	1978.34
678.32	1918.95
678.51	1834.98
678.70	2125.79
678.88	1898.47
679.07	1998.82
679.25	2013.15
679.44	1970.15
679.63	1908.71
679.81	1974.24
680.00	2084.83
680.18	2050.02
680.37	2021.35
680.55	2029.54
680.74	1830.88
680.93	1863.65
681.11	1953.76
681.30	1933.28
681.48	1992.67
681.67	1980.39
681.85	1839.08
682.04	1882.08
682.23	1990.63
682.41	1937.38
682.60	1914.85
682.78	1996.77
682.97	1927.14
683.15	1986.53
683.34	1900.52
683.53	2086.88
683.71	1892.32
683.90	2082.78
684.08	2054.11
684.27	1918.95
684.45	2017.25
684.64	2035.68
684.82	1951.71
685.01	2013.15
685.19	2031.58
685.38	2029.54
685.57	1998.82
685.75	1984.48
685.94	1902.56
686.12	1896.42
686.31	1978.34
686.49	2117.60
686.68	1746.92
686.86	1939.43
687.05	2013.15
687.23	2103.26
687.42	1877.99
687.60	1744.87
687.79	1970.15
687.97	1988.58
688.16	1992.67
688.34	1996.77
688.53	1843.17
688.71	2047.97
688.90	2058.21
689.08	1957.86
689.27	1912.80
689.45	1974.24
689.64	2029.54
689.82	2035.68
690.01	1957.86
690.19	1974.24
690.38	1947.62
690.56	2013.15
690.75	1830.88
690.93	1980.39
691.12	1855.46
691.30	2013.15
691.49	1900.52
691.67	1937.38
691.86	2140.13
692.04	1959.91
692.23	1984.48
692.41	2011.11
692.60	2246.62
692.78	2084.83
692.97	2015.20
693.15	2095.07
693.34	2174.94
693.52	2062.30
693.71	1945.57
693.89	1964.00
694.08	1863.65
694.26	2009.06
694.44	2062.30
694.63	2090.98
694.81	1834.98
695.00	1966.05
695.18	2043.87
695.37	2213.85
695.55	1937.38
695.74	1912.80
695.92	1939.43
696.10	2066.40
696.29	1875.94
696.47	1888.23
696.66	1873.89
696.84	1929.19
697.03	1925.09
697.21	2181.09
697.40	2744.28
697.58	2015.20
697.76	1920.99
697.95	1939.43
698.13	1914.85
698.32	1920.99
698.50	2004.96
698.68	1984.48
698.87	2023.39
699.05	2056.16
699.24	1931.23
699.42	1880.04
699.61	1970.15
699.79	1974.24
699.97	1941.47
700.16	1935.33
700.34	1933.28
700.53	1916.90
700.71	2160.61
700.89	2088.93
701.08	1933.28
701.26	2052.06
701.45	2387.93
701.63	1959.91
701.81	1966.05
702.00	1984.48
702.18	2029.54
702.37	1964.00
702.55	2236.38
702.73	2238.43
702.92	2189.28
703.10	2279.39
703.28	2279.39
703.47	2148.32
703.65	2291.68
703.84	2148.32
704.02	2043.87
704.20	2176.99
704.39	2035.68
704.57	1976.29
704.75	2076.64
704.94	2111.46
705.12	2074.59
705.30	2222.05
705.49	3739.59
705.67	9375.60
705.86	18798.31
706.04	23824.02
706.22	27754.07
706.41	29374.02
706.59	26394.22
706.77	18710.24
706.96	14917.40
707.14	13023.03
707.32	11157.33
707.51	9777.00
707.69	8288.13
707.87	6815.64
708.06	5486.51
708.24	4106.18
708.42	3352.52
708.61	2906.07
708.79	2256.86
708.97	2230.24
709.16	2152.42
709.34	2148.32
709.52	2025.44
709.71	2035.68
709.89	2015.20
710.07	1970.15
710.26	1894.37
710.44	1949.67
710.62	2037.73
710.80	1964.00
710.99	2045.92
711.17	1994.72
711.35	1955.81
711.54	1949.67
711.72	2011.11
711.90	2009.06
712.09	2021.35
712.27	1980.39
712.45	2052.06
712.63	1945.57
712.82	1955.81
713.00	1984.48
713.18	2002.91
713.37	2031.58
713.55	1888.23
713.73	2017.25
713.91	2060.26
714.10	1955.81
714.28	1892.32
714.46	2070.50
714.65	2033.63
714.83	1935.33
715.01	2031.58
715.19	2021.35
715.38	1859.56
715.56	1933.28
715.74	1886.18
715.92	1859.56
716.11	2103.26
716.29	1769.44
716.47	1920.99
716.65	1931.23
716.84	1875.94
717.02	2013.15
717.20	1787.88
717.38	1888.23
717.57	1976.29
717.75	1873.89
717.93	1867.75
718.11	2017.25
718.30	1914.85
718.48	1949.67
718.66	2095.07
718.84	2064.35
719.03	2000.87
719.21	1826.79
719.39	2050.02
719.57	1984.48
719.75	2088.93
719.94	1949.67
720.12	1937.38
720.30	1966.05
720.48	2039.78
720.67	1931.23
720.85	1906.66
721.03	1888.23
721.21	1964.00
721.39	2025.44
721.58	2015.20
721.76	1861.60
721.94	2023.39
722.12	1966.05
722.30	2164.70
722.49	1943.52
722.67	1986.53
722.85	1959.91
723.03	1857.51
723.21	1890.28
723.40	2004.96
723.58	2033.63
723.76	2007.01
723.94	2060.26
724.12	2068.45
724.30	2107.36
724.49	2113.50
724.67	1925.09
724.85	2111.46
725.03	1959.91
725.21	2056.16
725.40	2105.31
725.58	1923.04
725.76	1980.39
725.94	1972.19
726.12	1902.56
726.30	2009.06
726.49	2013.15
726.67	1888.23
726.85	1994.72
727.03	2121.70
727.21	3215.31
727.39	4935.60
727.57	6137.76
727.76	6999.96
727.94	7473.04
728.12	7374.74
728.30	5982.12
728.48	4804.53
728.66	4372.41
728.84	4007.87
729.03	3475.40
729.21	2969.55
729.39	2639.83
729.57	2332.64
729.75	2228.19
729.93	2115.55
730.11	2035.68
730.30	1957.86
730.48	1986.53
730.66	2047.97
730.84	2052.06
731.02	2033.63
731.20	1964.00
731.38	1923.04
731.56	1830.88
731.74	1794.02
731.93	1923.04
732.11	1916.90
732.29	1941.47
732.47	1988.58
732.65	2013.15
732.83	2043.87
733.01	1927.14
733.19	1923.04
733.37	2009.06
733.56	1990.63
733.74	1925.09
733.92	2097.12
734.10	1918.95
734.28	2031.58
734.46	1918.95
734.64	1945.57
734.82	1943.52
735.00	1939.43
735.18	1898.47
735.36	1943.52
735.54	1980.39
735.73	1976.29
735.91	2019.30
736.09	2064.35
736.27	1937.38
736.45	2023.39
736.63	1875.94
736.81	1894.37
736.99	2037.73
737.17	2064.35
737.35	1931.23
737.53	1939.43
737.71	1949.67
737.89	2031.58
738.07	1925.09
738.25	1882.08
738.43	1855.46
738.61	1898.47
738.80	1894.37
738.98	1923.04
739.16	1877.99
739.34	1892.32
739.52	2052.06
739.70	1964.00
739.88	2080.74
740.06	2009.06
740.24	1820.64
740.42	2047.97
740.60	1865.70
740.78	1920.99
740.96	1845.22
741.14	1869.80
741.32	1996.77
741.50	1783.78
741.68	2088.93
741.86	2035.68
742.04	1896.42
742.22	1869.80
742.40	1957.86
742.58	2076.64
742.76	1918.95
742.94	2037.73
743.12	1812.45
743.30	2019.30
743.48	1927.14
743.66	1992.67
743.84	1937.38
744.02	1916.90
744.20	2002.91
744.38	1890.28
744.56	1927.14
744.74	2074.59
744.92	1947.62
745.10	2197.47
745.28	2000.87
745.46	1984.48
745.64	1943.52
745.82	1957.86
746.00	1976.29
746.18	1988.58
746.36	1853.41
746.54	1939.43
746.72	1925.09
746.90	1880.04
747.08	2045.92
747.26	1920.99
747.44	2019.30
747.62	1992.67
747.80	2031.58
747.98	2007.01
748.15	1920.99
748.33	2099.17
748.51	1884.13
748.69	2029.54
748.87	1869.80
749.05	1959.91
749.23	1925.09
749.41	1957.86
749.59	2000.87
749.77	2101.22
749.95	1892.32
750.13	1908.71
750.31	1984.48
750.49	1968.10
750.67	2068.45
750.85	2099.17
751.03	1992.67
751.20	2136.03
751.38	1873.89
751.56	1947.62
751.74	1941.47
751.92	1912.80
752.10	1871.84
752.28	2013.15
752.46	1849.32
752.64	1970.15
752.82	1935.33
753.00	2009.06
753.18	1916.90
753.35	1929.19
753.53	1943.52
753.71	1890.28
753.89	2066.40
754.07	1912.80
754.25	2045.92
754.43	2000.87
754.61	1824.74
754.79	1964.00
754.97	1914.85
755.14	2064.35
755.32	1875.94
755.50	1959.91
755.68	1947.62
755.86	1935.33
756.04	1853.41
756.22	1832.93
756.40	1959.91
756.57	2050.02
756.75	1875.94
756.93	1968.10
757.11	2033.63
757.29	1904.61
757.47	1888.23
757.65	1824.74
757.82	1789.92
758.00	1927.14
758.18	1892.32
758.36	1982.43
758.54	2105.31
758.72	1810.40
758.90	2043.87
759.07	1955.81
759.25	1904.61
759.43	1953.76
759.61	1882.08
759.79	2498.52
759.97	2078.69
760.15	1839.08
760.32	1951.71
760.50	2019.30
760.68	2123.74
760.86	1837.03
761.04	1998.82
761.22	2013.15
761.39	1990.63
761.57	2056.16
761.75	1904.61
761.93	2062.30
762.11	1959.91
762.28	1949.67
762.46	1955.81
762.64	1980.39
762.82	1814.50
763.00	2047.97
763.18	2027.49
763.35	1888.23
763.53	2035.68
763.71	1982.43
763.89	2060.26
764.07	1949.67
764.24	1959.91
764.42	1992.67
764.60	1972.19
764.78	1927.14
764.96	1994.72
765.13	1998.82
765.31	1900.52
765.49	1994.72
765.67	1906.66
765.84	1943.52
766.02	1937.38
766.20	1869.80
766.38	1929.19
766.56	2041.82
766.73	2017.25
766.91	1935.33
767.09	1966.05
767.27	2031.58
767.44	1873.89
767.62	1998.82
767.80	2031.58
767.98	1859.56
768.15	1906.66
768.33	2111.46
768.51	1957.86
768.69	1996.77
768.87	2021.35
769.04	1964.00
769.22	2090.98
769.40	2056.16
769.58	2123.74
769.75	1935.33
769.93	2056.16
770.11	1966.05
770.28	1910.75
770.46	1939.43
770.64	1972.19
770.82	1851.36
770.99	2002.91
771.17	1992.67
771.35	1933.28
771.53	2011.11
771.70	1875.94
771.88	1968.10
772.06	1957.86
772.23	1931.23
772.41	1986.53
772.59	1914.85
772.77	1877.99
772.94	1941.47
773.12	1974.24
773.30	1990.63
773.47	1970.15
773.65	1941.47
773.83	2093.02
774.01	2021.35
774.18	1742.82
774.36	1955.81
774.54	1849.32
774.71	1994.72
774.89	1873.89
775.07	1861.60
775.24	1927.14
775.42	1931.23
775.60	2160.61
775.78	1900.52
775.95	1912.80
776.13	1849.32
776.31	1814.50
776.48	1943.52
776.66	2047.97
776.84	1931.23
777.01	1882.08
777.19	1937.38
777.37	1914.85
777.54	1974.24
777.72	2084.83
777.90	2021.35
778.07	1904.61
778.25	2172.89
778.43	2045.92
778.60	1951.71
778.78	2025.44
778.96	2154.46
779.13	1834.98
779.31	2004.96
779.49	1998.82
779.66	1994.72
779.84	1931.23
780.01	1916.90
780.19	1943.52
780.37	1964.00
780.54	2050.02
780.72	1880.04
780.90	1984.48
781.07	1916.90
781.25	1861.60
781.43	2002.91
781.60	1994.72
781.78	1972.19
781.95	1894.37
782.13	1968.10
782.31	2004.96
782.48	1820.64
782.66	1920.99
782.83	2082.78
783.01	1984.48
783.19	2029.54
783.36	1882.08
783.54	1847.27
783.72	2084.83
783.89	1984.48
784.07	2035.68
784.24	1951.71
784.42	2070.50
784.60	1982.43
784.77	2021.35
784.95	1820.64
785.12	1966.05
785.30	1927.14
785.47	1849.32
785.65	1880.04
785.83	1933.28
786.00	1910.75
786.18	1939.43
786.35	1890.28
786.53	1890.28
786.71	2039.78
786.88	2011.11
787.06	1927.14
787.23	1939.43
787.41	1851.36
787.58	1968.10
787.76	1914.85
787.94	1892.32
788.11	2011.11
788.29	1843.17
788.46	1816.55
788.64	1843.17
788.81	1900.52
788.99	1865.70
789.16	1900.52
789.34	1978.34
789.52	1884.13
789.69	1929.19
789.87	1908.71
790.04	1877.99
790.22	1957.86
790.39	2084.83
790.57	1925.09
790.74	1888.23
790.92	1978.34
791.09	1832.93
791.27	1974.24
791.44	2031.58
791.62	1886.18
791.79	2064.35
791.97	1902.56
792.15	2205.66
792.32	2011.11
792.50	2002.91
792.67	2064.35
792.85	2084.83
793.02	1970.15
793.20	1927.14
793.37	1837.03
793.55	1865.70
793.72	1818.60
793.90	1988.58
794.07	1923.04
794.25	1902.56
794.42	2017.25
794.60	1937.38
794.77	1949.67
794.95	2011.11
795.12	2066.40
795.30	1933.28
795.47	1863.65
795.65	2148.32
795.82	1990.63
796.00	1931.23
796.17	1900.52
796.34	1923.04
796.52	1951.71
796.69	2009.06
796.87	1988.58
797.04	1986.53
797.22	2015.20
797.39	2035.68
797.57	2002.91
797.74	1990.63
797.92	1959.91
798.09	1849.32
798.27	2031.58
798.44	1925.09
798.62	1931.23
798.79	1953.76
798.96	2074.59
799.14	1873.89
799.31	2056.16
799.49	1947.62
799.66	1918.95
799.84	1986.53
800.01	1849.32
800.19	1966.05
800.36	1843.17
800.53	1992.67
800.71	1986.53
800.88	2039.78
801.06	1843.17
801.23	1918.95
801.41	1920.99
801.58	1951.71
801.75	2015.20
801.93	1961.95
802.10	1998.82
802.28	1935.33
802.45	1923.04
802.63	2017.25
802.80	2078.69
802.97	1888.23
803.15	1957.86
803.32	1902.56
803.50	1933.28
803.67	1873.89
803.84	1941.47
804.02	1970.15
804.19	1890.28
804.37	1798.12
804.54	1869.80
804.71	1939.43
804.89	1976.29
805.06	1892.32
805.24	1828.84
805.41	1892.32
805.58	1863.65
805.76	2176.99
805.93	2035.68
806.10	2095.07
806.28	1961.95
806.45	1918.95
806.63	1988.58
806.80	2015.20
806.97	1974.24
807.15	1994.72
807.32	1968.10
807.49	1941.47
807.67	1927.14
807.84	1943.52
808.01	1865.70
808.19	2174.94
808.36	2082.78
808.54	1972.19
808.71	1916.90
808.88	2017.25
809.06	2039.78
809.23	2117.60
809.40	1957.86
809.58	2082.78
809.75	1892.32
809.92	1906.66
810.10	2072.54
810.27	1945.57
810.44	1972.19
810.62	2017.25
810.79	1990.63
810.96	1886.18
811.14	1912.80
811.31	2000.87
811.48	1947.62
811.66	1955.81
811.83	2090.98
812.00	1953.76
812.18	1943.52
812.35	2084.83
812.52	1882.08
812.69	1906.66
812.87	1966.05
813.04	1904.61
813.21	1904.61
813.39	1863.65
813.56	1853.41
813.73	1980.39
813.91	1824.74
814.08	1943.52
814.25	1966.05
814.42	1910.75
814.60	1927.14
814.77	1916.90
814.94	1961.95
815.12	1974.24
815.29	2050.02
815.46	1861.60
815.63	1988.58
815.81	2007.01
815.98	1916.90
816.15	1898.47
816.33	1982.43
816.50	1884.13
816.67	1951.71
816.84	1943.52
817.02	1863.65
817.19	1941.47
817.36	1935.33
817.53	1916.90
817.71	1867.75
817.88	2047.97
818.05	1955.81
818.22	1925.09
818.40	2031.58
818.57	1939.43
818.74	2009.06
818.91	1980.39
819.09	2045.92
819.26	1914.85
819.43	1933.28
819.60	1890.28
819.78	1959.91
819.95	1990.63
820.12	1912.80
820.29	2074.59
820.47	2105.31
820.64	1910.75
820.81	1849.32
820.98	1902.56
821.15	1959.91
821.33	2076.64
821.50	1830.88
821.67	2043.87
821.84	1951.71
822.02	1955.81
822.19	2082.78
822.36	1937.38
822.53	1925.09
822.70	1894.37
822.88	1871.84
823.05	2066.40
823.22	1875.94
823.39	2119.65
823.56	1929.19
823.74	2002.91
823.91	1880.04
824.08	1929.19
824.25	1890.28
824.42	2082.78
824.60	1808.36
824.77	1986.53
824.94	1929.19
825.11	1961.95
825.28	1804.26
825.45	1951.71
825.63	1939.43
825.80	1834.98
825.97	2076.64
826.14	1884.13
826.31	1912.80
826.48	1959.91
826.66	1949.67
826.83	1867.75
827.00	1845.22
827.17	1898.47
827.34	1945.57
827.51	1955.81
827.69	1982.43
827.86	1904.61
828.03	1902.56
828.20	1947.62
828.37	1906.66
828.54	1941.47
828.71	1941.47
828.89	2068.45
829.06	1929.19
829.23	2095.07
829.40	1857.51
829.57	1896.42
829.74	1925.09
829.91	1953.76
830.09	1896.42
830.26	2004.96
830.43	2113.50
830.60	1953.76
830.77	1964.00
830.94	2037.73
831.11	2031.58
831.28	1939.43
831.46	2000.87
831.63	1871.84
831.80	2033.63
831.97	1843.17
832.14	1890.28
832.31	2017.25
832.48	1964.00
832.65	2013.15
832.82	1927.14
832.99	1980.39
833.17	1966.05
833.34	2138.08
833.51	1920.99
833.68	1837.03
833.85	2035.68
834.02	1816.55
834.19	1853.41
834.36	1843.17
834.53	2002.91
834.70	2029.54
834.87	2015.20
835.04	1851.36
835.22	1873.89
835.39	1931.23
835.56	1861.60
835.73	1896.42
835.90	2072.54
836.07	1834.98
836.24	1990.63
836.41	1857.51
836.58	1943.52
836.75	2045.92
836.92	1992.67
837.09	1959.91
837.26	2060.26
837.43	1984.48
837.60	2017.25
837.77	1929.19
837.94	1970.15
838.12	2054.11
838.29	1970.15
838.46	1847.27
838.63	1845.22
838.80	2027.49
838.97	1990.63
839.14	1902.56
839.31	1974.24
839.48	1986.53
839.65	1888.23
839.82	2029.54
839.99	1970.15
840.16	1943.52
840.33	1918.95
840.50	1961.95
840.67	1863.65
840.84	1806.31
841.01	1968.10
841.18	1918.95
841.35	1884.13
841.52	1976.29
841.69	2029.54
841.86	1961.95
842.03	1937.38
842.20	2037.73
842.37	1945.57
842.54	1937.38
842.71	1953.76
842.88	1839.08
843.05	2037.73
843.22	1882.08
843.39	2033.63
843.56	1902.56
843.73	1964.00
843.90	1937.38
844.07	2007.01
844.24	2095.07
844.41	2066.40
844.58	1961.95
844.75	2029.54
844.92	1964.00
845.09	1882.08
845.26	1945.57
845.43	2031.58
845.60	2000.87
845.77	2097.12
845.94	1925.09
846.10	2015.20
846.27	1855.46
846.44	1839.08
846.61	1869.80
846.78	1925.09
846.95	1927.14
847.12	1996.77
847.29	2011.11
847.46	1812.45
847.63	2025.44
847.80	1898.47
847.97	1873.89
848.14	2095.07
848.31	1974.24
848.48	1828.84
848.65	1961.95
848.82	1888.23
848.98	2099.17
849.15	2013.15
849.32	2060.26
849.49	2052.06
849.66	1974.24
849.83	1974.24
850.00	1953.76
850.17	2072.54
850.34	1918.95
850.51	1904.61
850.68	1957.86
850.85	2142.18
851.01	2041.82
851.18	1937.38
851.35	1871.84
851.52	1970.15
851.69	2127.84
851.86	1769.44
852.03	1959.91
852.20	1959.91
852.37	1918.95
852.53	1882.08
852.70	1970.15
852.87	1933.28
853.04	2029.54
853.21	1986.53
853.38	2074.59
853.55	2103.26
853.72	1998.82
853.89	1970.15
854.05	1880.04
854.22	1949.67
854.39	1923.04
854.56	1933.28
854.73	2052.06
854.90	1832.93
855.07	1943.52
855.23	1869.80
855.40	1849.32
855.57	1974.24
855.74	1814.50
855.91	2142.18
856.08	1871.84
856.25	1839.08
856.41	1867.75
856.58	1939.43
856.75	1884.13
856.92	1886.18
857.09	2050.02
857.26	1863.65
857.42	1978.34
857.59	2023.39
857.76	1916.90
857.93	1939.43
858.10	1933.28
858.27	1902.56
858.43	1957.86
858.60	1918.95
858.77	1867.75
858.94	1880.04
859.11	2050.02
859.27	1828.84
859.44	1855.46
859.61	2088.93
859.78	1988.58
859.95	1904.61
860.12	1873.89
860.28	2072.54
860.45	2166.75
860.62	1888.23
860.79	1849.32
860.95	1943.52
861.12	1918.95
861.29	1880.04
861.46	1949.67
861.63	2009.06
861.79	1978.34
861.96	1886.18
862.13	1871.84
862.30	2127.84
862.47	1945.57
862.63	1951.71
862.80	2045.92
862.97	1982.43
863.14	2015.20
863.30	1923.04
863.47	1972.19
863.64	2064.35
863.81	1957.86
863.97	1898.47
864.14	1906.66
864.31	1875.94
864.48	1890.28
864.65	1861.60
864.81	2019.30
864.98	1970.15
865.15	2058.21
865.32	2047.97
865.48	1998.82
865.65	2066.40
865.82	1961.95
865.98	1945.57
866.15	2000.87
866.32	1886.18
866.49	1994.72
866.65	2000.87
866.82	1847.27
866.99	1957.86
867.16	1929.19
867.32	1843.17
867.49	1953.76
867.66	1992.67
867.83	1894.37
867.99	1800.16
868.16	1933.28
868.33	1853.41
868.49	1988.58
868.66	1959.91
868.83	2041.82
868.99	2019.30
869.16	1961.95
869.33	2023.39
869.50	2064.35
869.66	2011.11
869.83	1900.52
870.00	1880.04
870.16	2041.82
870.33	1931.23
870.50	2025.44
870.66	1925.09
870.83	2056.16
871.00	1943.52
871.17	1914.85
871.33	1976.29
871.50	1902.56
871.67	1939.43
871.83	1927.14
872.00	2029.54
872.17	1941.47
872.33	2021.35
872.50	2097.12
872.67	1855.46
872.83	1920.99
873.00	2056.16
873.17	1935.33
873.33	1996.77
873.50	2029.54
873.67	1863.65
873.83	1886.18
874.00	1925.09
874.16	1996.77
874.33	1961.95
874.50	1888.23
874.66	1898.47
874.83	1933.28
875.00	1984.48
875.16	2054.11
875.33	2009.06
875.50	1802.21
875.66	1923.04
875.83	1990.63
875.99	2007.01
876.16	1904.61
876.33	1916.90
876.49	1859.56
876.66	1992.67
876.83	1892.32
876.99	1857.51
877.16	1937.38
877.32	1904.61
877.49	1982.43
877.66	1959.91
877.82	2050.02
877.99	2039.78
878.15	2064.35
878.32	1994.72
878.49	1943.52
878.65	1937.38
878.82	2031.58
878.98	1898.47
879.15	2029.54
879.32	2015.20
879.48	2011.11
879.65	2004.96
879.81	1931.23
879.98	1966.05
880.15	1892.32
880.31	2017.25
880.48	1927.14
880.64	2039.78
880.81	1937.38
880.97	2078.69
881.14	2070.50
881.31	1884.13
881.47	2140.13
881.64	1927.14
881.80	1880.04
881.97	1976.29
882.13	1976.29
882.30	1923.04
882.47	1875.94
882.63	1939.43
882.80	1892.32
882.96	1949.67
883.13	2017.25
883.29	1920.99
883.46	1992.67
883.62	2082.78
883.79	1927.14
883.95	2052.06
884.12	1902.56
884.29	2002.91
884.45	1951.71
884.62	2011.11
884.78	1773.54
884.95	2111.46
885.11	1837.03
885.28	1933.28
885.44	1892.32
885.61	2045.92
885.77	2082.78
885.94	1988.58
886.10	1939.43
886.27	1992.67
886.43	2133.98
886.60	2047.97
886.76	1861.60
886.93	1947.62
887.09	1994.72
887.26	1810.40
887.42	1904.61
887.59	1978.34
887.75	2029.54
887.92	2054.11
888.08	1974.24
888.25	2101.22
888.41	1994.72
888.58	1972.19
888.74	1900.52
888.91	1894.37
>>>>>End Processed Spectral Data<<<<<
