SpectraSuite Data File
++++++++++++++++++++++++++++++++++++
Date: Wed May 04 22:45:56 CEST 2016
User: root
Dark Spectrum Present: No
Reference Spectrum Present: No
Number of Sampled Component Spectra: 1
Spectrometers: USB4C02835
Integration Time (usec): 100000 (USB4C02835)
Spectra Averaged: 1 (USB4C02835)
Boxcar Smoothing: 0 (USB4C02835)
Correct for Electrical Dark: No (USB4C02835)
Strobe/Lamp Enabled: No (USB4C02835)
Correct for Detector Non-linearity: No (USB4C02835)
Correct for Stray Light: No (USB4C02835)
Number of Pixels in Processed Spectrum: 3648
>>>>>Begin Processed Spectral Data<<<<<
177.47	1675.24
177.69	1675.24
177.91	1675.24
178.13	1611.75
178.36	1654.76
178.58	1871.84
178.80	2002.91
179.02	1822.69
179.24	1873.89
179.46	1898.47
179.68	1982.43
179.90	1933.28
180.13	1894.37
180.35	1970.15
180.57	1888.23
180.79	1974.24
181.01	1935.33
181.23	2045.92
181.45	2050.02
181.67	2088.93
181.90	2043.87
182.12	1886.18
182.34	1832.93
182.56	1966.05
182.78	2007.01
183.00	1902.56
183.22	1925.09
183.44	1761.25
183.66	2160.61
183.89	1990.63
184.11	1933.28
184.33	2009.06
184.55	1984.48
184.77	1931.23
184.99	1935.33
185.21	1890.28
185.43	2152.42
185.65	1861.60
185.87	1931.23
186.10	2119.65
186.32	2158.56
186.54	1920.99
186.76	1998.82
186.98	2025.44
187.20	1984.48
187.42	1959.91
187.64	1974.24
187.86	2015.20
188.08	1998.82
188.30	1900.52
188.52	1912.80
188.75	2101.22
188.97	2064.35
189.19	1861.60
189.41	1900.52
189.63	1982.43
189.85	1925.09
190.07	1839.08
190.29	1861.60
190.51	1992.67
190.73	1886.18
190.95	1980.39
191.17	1955.81
191.39	1884.13
191.61	1871.84
191.84	1890.28
192.06	1988.58
192.28	1908.71
192.50	2152.42
192.72	1974.24
192.94	1943.52
193.16	2011.11
193.38	2017.25
193.60	1914.85
193.82	1974.24
194.04	2015.20
194.26	1961.95
194.48	1972.19
194.70	1904.61
194.92	1863.65
195.14	1931.23
195.36	1851.36
195.58	1914.85
195.80	1964.00
196.02	1896.42
196.24	1925.09
196.46	2037.73
196.69	1939.43
196.91	2193.37
197.13	1896.42
197.35	1886.18
197.57	2062.30
197.79	1970.15
198.01	1959.91
198.23	2035.68
198.45	1943.52
198.67	1865.70
198.89	1974.24
199.11	2043.87
199.33	1918.95
199.55	1779.68
199.77	1935.33
199.99	2066.40
200.21	1937.38
200.43	2015.20
200.65	1855.46
200.87	1736.68
201.09	1947.62
201.31	2050.02
201.53	1945.57
201.75	1916.90
201.97	2007.01
202.19	2017.25
202.41	2023.39
202.63	2127.84
202.85	2013.15
203.07	2000.87
203.29	1904.61
203.51	1898.47
203.73	1955.81
203.95	2207.71
204.17	1927.14
204.39	1957.86
204.61	1908.71
204.83	1902.56
205.05	1947.62
205.27	1955.81
205.49	2162.66
205.71	1892.32
205.93	1816.55
206.15	1839.08
206.37	1992.67
206.59	1949.67
206.81	1904.61
207.03	1890.28
207.25	1925.09
207.47	2000.87
207.69	1970.15
207.91	1914.85
208.13	2080.74
208.34	1857.51
208.56	1873.89
208.78	1923.04
209.00	1929.19
209.22	1906.66
209.44	1933.28
209.66	1920.99
209.88	1941.47
210.10	1972.19
210.32	1873.89
210.54	2023.39
210.76	1904.61
210.98	2045.92
211.20	1820.64
211.42	2021.35
211.64	2035.68
211.86	1972.19
212.08	1970.15
212.30	1951.71
212.52	1923.04
212.74	2045.92
212.96	1867.75
213.17	1976.29
213.39	2058.21
213.61	2117.60
213.83	1978.34
214.05	1910.75
214.27	2002.91
214.49	1902.56
214.71	1865.70
214.93	2007.01
215.15	2023.39
215.37	2052.06
215.59	1812.45
215.81	2023.39
216.03	1986.53
216.24	1947.62
216.46	1898.47
216.68	1974.24
216.90	1966.05
217.12	2047.97
217.34	1906.66
217.56	1988.58
217.78	2056.16
218.00	1957.86
218.22	1968.10
218.44	1974.24
218.66	1961.95
218.87	2045.92
219.09	1953.76
219.31	1920.99
219.53	2007.01
219.75	1910.75
219.97	1955.81
220.19	2058.21
220.41	1951.71
220.63	2035.68
220.85	2000.87
221.06	1886.18
221.28	1986.53
221.50	1992.67
221.72	1916.90
221.94	1927.14
222.16	1982.43
222.38	2029.54
222.60	2031.58
222.82	1964.00
223.03	2045.92
223.25	1890.28
223.47	1935.33
223.69	2037.73
223.91	1910.75
224.13	1994.72
224.35	1912.80
224.57	2017.25
224.78	1972.19
225.00	1886.18
225.22	1925.09
225.44	1918.95
225.66	1990.63
225.88	1949.67
226.10	1988.58
226.32	1931.23
226.53	1988.58
226.75	1875.94
226.97	1968.10
227.19	1966.05
227.41	1908.71
227.63	1912.80
227.85	1818.60
228.06	1884.13
228.28	1968.10
228.50	2119.65
228.72	1904.61
228.94	1896.42
229.16	1841.12
229.37	1814.50
229.59	1851.36
229.81	2004.96
230.03	1972.19
230.25	1839.08
230.47	1865.70
230.69	1826.79
230.90	2009.06
231.12	1951.71
231.34	1996.77
231.56	2068.45
231.78	1863.65
232.00	1992.67
232.21	1914.85
232.43	1900.52
232.65	1767.40
232.87	2035.68
233.09	1918.95
233.30	1884.13
233.52	1980.39
233.74	1925.09
233.96	1976.29
234.18	1920.99
234.40	1916.90
234.61	2162.66
234.83	1896.42
235.05	1859.56
235.27	2129.89
235.49	2093.02
235.70	1933.28
235.92	2027.49
236.14	1923.04
236.36	2164.70
236.58	1892.32
236.79	1970.15
237.01	1941.47
237.23	1970.15
237.45	2074.59
237.67	1884.13
237.88	1933.28
238.10	2093.02
238.32	1812.45
238.54	1927.14
238.76	1964.00
238.97	1886.18
239.19	1886.18
239.41	1941.47
239.63	2168.80
239.85	1943.52
240.06	1937.38
240.28	1912.80
240.50	2060.26
240.72	1966.05
240.93	1900.52
241.15	2037.73
241.37	1955.81
241.59	2017.25
241.81	1912.80
242.02	1939.43
242.24	1949.67
242.46	1980.39
242.68	1925.09
242.89	1906.66
243.11	2027.49
243.33	1947.62
243.55	1978.34
243.76	1964.00
243.98	1927.14
244.20	1914.85
244.42	1888.23
244.64	1990.63
244.85	1892.32
245.07	1925.09
245.29	1994.72
245.51	1982.43
245.72	1916.90
245.94	1974.24
246.16	1972.19
246.38	1998.82
246.59	1898.47
246.81	1918.95
247.03	1839.08
247.24	1839.08
247.46	1970.15
247.68	1988.58
247.90	1955.81
248.11	1914.85
248.33	2000.87
248.55	1955.81
248.77	1968.10
248.98	2009.06
249.20	2123.74
249.42	1939.43
249.64	1910.75
249.85	1867.75
250.07	1925.09
250.29	2025.44
250.50	1992.67
250.72	1892.32
250.94	2007.01
251.16	2066.40
251.37	1988.58
251.59	1951.71
251.81	2013.15
252.02	2103.26
252.24	1896.42
252.46	2033.63
252.68	1884.13
252.89	1857.51
253.11	1882.08
253.33	2050.02
253.54	2074.59
253.76	1894.37
253.98	1880.04
254.20	1929.19
254.41	1837.03
254.63	1988.58
254.85	1824.74
255.06	1970.15
255.28	1957.86
255.50	1964.00
255.71	1904.61
255.93	1849.32
256.15	1970.15
256.36	2002.91
256.58	1888.23
256.80	1949.67
257.02	1939.43
257.23	1972.19
257.45	1867.75
257.67	1992.67
257.88	1857.51
258.10	1957.86
258.32	1974.24
258.53	1925.09
258.75	2037.73
258.97	1904.61
259.18	1918.95
259.40	2013.15
259.62	2146.27
259.83	2070.50
260.05	1988.58
260.27	2308.06
260.48	1980.39
260.70	1906.66
260.92	1949.67
261.13	1892.32
261.35	1980.39
261.57	1931.23
261.78	1843.17
262.00	1916.90
262.22	2054.11
262.43	1849.32
262.65	1869.80
262.86	1894.37
263.08	2105.31
263.30	1976.29
263.51	1855.46
263.73	1966.05
263.95	2097.12
264.16	1927.14
264.38	1894.37
264.60	1859.56
264.81	1951.71
265.03	2041.82
265.25	2015.20
265.46	1945.57
265.68	2019.30
265.89	1996.77
266.11	1845.22
266.33	1957.86
266.54	2090.98
266.76	2002.91
266.98	1986.53
267.19	2007.01
267.41	2103.26
267.62	1959.91
267.84	1873.89
268.06	1933.28
268.27	1951.71
268.49	1998.82
268.70	1966.05
268.92	1898.47
269.14	1918.95
269.35	1863.65
269.57	1986.53
269.79	2027.49
270.00	1918.95
270.22	2084.83
270.43	1849.32
270.65	1730.53
270.87	1912.80
271.08	1964.00
271.30	1953.76
271.51	1957.86
271.73	2050.02
271.95	1998.82
272.16	1984.48
272.38	2025.44
272.59	1882.08
272.81	1959.91
273.02	2002.91
273.24	1957.86
273.46	1994.72
273.67	1943.52
273.89	1884.13
274.10	1949.67
274.32	2023.39
274.54	1918.95
274.75	2002.91
274.97	1873.89
275.18	2029.54
275.40	1970.15
275.61	1941.47
275.83	1925.09
276.05	1898.47
276.26	1920.99
276.48	1945.57
276.69	1865.70
276.91	1892.32
277.12	2086.88
277.34	2041.82
277.55	2023.39
277.77	1996.77
277.99	1912.80
278.20	1841.12
278.42	1888.23
278.63	1828.84
278.85	1931.23
279.06	1898.47
279.28	1896.42
279.49	2050.02
279.71	2039.78
279.93	1984.48
280.14	1976.29
280.36	1851.36
280.57	2037.73
280.79	2074.59
281.00	1951.71
281.22	1890.28
281.43	2072.54
281.65	1779.68
281.86	1929.19
282.08	1982.43
282.29	2111.46
282.51	1884.13
282.73	1830.88
282.94	1867.75
283.16	1931.23
283.37	2050.02
283.59	2025.44
283.80	1949.67
284.02	1882.08
284.23	1974.24
284.45	1978.34
284.66	1896.42
284.88	1947.62
285.09	1953.76
285.31	2070.50
285.52	2031.58
285.74	1914.85
285.95	1994.72
286.17	1951.71
286.38	2056.16
286.60	1882.08
286.81	1880.04
287.03	1980.39
287.24	1964.00
287.46	2023.39
287.67	1935.33
287.89	2093.02
288.10	1943.52
288.32	1941.47
288.53	2078.69
288.75	1984.48
288.96	1947.62
289.18	1933.28
289.39	1841.12
289.61	2054.11
289.82	2117.60
290.04	2148.32
290.25	1859.56
290.47	1984.48
290.68	1904.61
290.90	2033.63
291.11	1898.47
291.33	1964.00
291.54	1841.12
291.76	1863.65
291.97	2054.11
292.18	1961.95
292.40	1892.32
292.61	1972.19
292.83	2066.40
293.04	2002.91
293.26	2013.15
293.47	1964.00
293.69	1886.18
293.90	1832.93
294.12	1980.39
294.33	1970.15
294.55	2031.58
294.76	2041.82
294.97	2062.30
295.19	2121.70
295.40	1912.80
295.62	1996.77
295.83	1998.82
296.05	1892.32
296.26	1972.19
296.48	1894.37
296.69	1945.57
296.90	1970.15
297.12	1990.63
297.33	2011.11
297.55	1959.91
297.76	2004.96
297.98	1998.82
298.19	1964.00
298.41	1920.99
298.62	1843.17
298.83	2078.69
299.05	2009.06
299.26	1937.38
299.48	1859.56
299.69	2000.87
299.90	1935.33
300.12	1884.13
300.33	2045.92
300.55	1937.38
300.76	2058.21
300.98	1843.17
301.19	2037.73
301.40	1900.52
301.62	1935.33
301.83	2017.25
302.05	1957.86
302.26	1912.80
302.47	1941.47
302.69	1892.32
302.90	1955.81
303.12	1824.74
303.33	1990.63
303.54	2140.13
303.76	1925.09
303.97	1970.15
304.19	2140.13
304.40	1845.22
304.61	1984.48
304.83	2127.84
305.04	2142.18
305.26	1964.00
305.47	1933.28
305.68	1996.77
305.90	1851.36
306.11	2054.11
306.33	1902.56
306.54	1994.72
306.75	1937.38
306.97	1906.66
307.18	1806.31
307.39	1961.95
307.61	1970.15
307.82	2025.44
308.04	1976.29
308.25	1912.80
308.46	1931.23
308.68	1900.52
308.89	1896.42
309.10	2062.30
309.32	1990.63
309.53	1994.72
309.74	1968.10
309.96	1964.00
310.17	1966.05
310.39	1890.28
310.60	2017.25
310.81	1947.62
311.03	1839.08
311.24	2062.30
311.45	1992.67
311.67	2131.94
311.88	1978.34
312.09	1947.62
312.31	1820.64
312.52	1898.47
312.73	1974.24
312.95	1875.94
313.16	1875.94
313.37	1988.58
313.59	1949.67
313.80	2080.74
314.01	2031.58
314.23	1970.15
314.44	1861.60
314.65	1925.09
314.87	1914.85
315.08	1927.14
315.29	1914.85
315.51	1851.36
315.72	1849.32
315.93	2103.26
316.15	1970.15
316.36	1974.24
316.57	1974.24
316.79	1990.63
317.00	1916.90
317.21	1964.00
317.43	1886.18
317.64	1966.05
317.85	1880.04
318.07	1972.19
318.28	1988.58
318.49	2070.50
318.70	2314.20
318.92	2138.08
319.13	2156.51
319.34	2197.47
319.56	2101.22
319.77	2150.37
319.98	2152.42
320.20	2107.36
320.41	2033.63
320.62	2019.30
320.83	1896.42
321.05	2140.13
321.26	2013.15
321.47	1955.81
321.69	2052.06
321.90	1904.61
322.11	1830.88
322.32	1925.09
322.54	2090.98
322.75	1914.85
322.96	2138.08
323.18	1873.89
323.39	1853.41
323.60	1845.22
323.81	1953.76
324.03	1845.22
324.24	2000.87
324.45	1996.77
324.66	1892.32
324.88	2076.64
325.09	2105.31
325.30	1877.99
325.52	1974.24
325.73	2025.44
325.94	1875.94
326.15	1898.47
326.37	1953.76
326.58	2047.97
326.79	2033.63
327.00	1912.80
327.22	1890.28
327.43	1929.19
327.64	1925.09
327.85	2011.11
328.07	1931.23
328.28	2090.98
328.49	1939.43
328.70	1906.66
328.92	1955.81
329.13	1929.19
329.34	1916.90
329.55	2045.92
329.76	2037.73
329.98	1943.52
330.19	2119.65
330.40	1994.72
330.61	1900.52
330.83	1966.05
331.04	1859.56
331.25	1916.90
331.46	1968.10
331.68	1859.56
331.89	2052.06
332.10	1994.72
332.31	1755.11
332.52	1914.85
332.74	2000.87
332.95	1851.36
333.16	1894.37
333.37	2029.54
333.58	1896.42
333.80	2074.59
334.01	1869.80
334.22	2019.30
334.43	1877.99
334.64	1920.99
334.86	1820.64
335.07	1912.80
335.28	2084.83
335.49	1877.99
335.70	2009.06
335.92	2004.96
336.13	2146.27
336.34	2000.87
336.55	2023.39
336.76	2045.92
336.98	1826.79
337.19	1923.04
337.40	2078.69
337.61	2113.50
337.82	1957.86
338.04	2078.69
338.25	1845.22
338.46	1986.53
338.67	1955.81
338.88	1830.88
339.09	1859.56
339.31	1847.27
339.52	1896.42
339.73	1894.37
339.94	1933.28
340.15	2058.21
340.36	1869.80
340.58	2002.91
340.79	1830.88
341.00	1949.67
341.21	1898.47
341.42	2039.78
341.63	2000.87
341.85	2013.15
342.06	1953.76
342.27	1937.38
342.48	1943.52
342.69	1863.65
342.90	1949.67
343.12	2004.96
343.33	2004.96
343.54	1978.34
343.75	2037.73
343.96	1890.28
344.17	1875.94
344.38	1939.43
344.60	1914.85
344.81	1859.56
345.02	1939.43
345.23	2109.41
345.44	2166.75
345.65	2052.06
345.86	2050.02
346.07	1875.94
346.29	1945.57
346.50	2000.87
346.71	1953.76
346.92	2070.50
347.13	2090.98
347.34	1931.23
347.55	1982.43
347.76	1925.09
347.98	1832.93
348.19	1978.34
348.40	2066.40
348.61	1888.23
348.82	2109.41
349.03	1949.67
349.24	1906.66
349.45	2097.12
349.66	1857.51
349.88	1968.10
350.09	1900.52
350.30	2088.93
350.51	2035.68
350.72	1959.91
350.93	1941.47
351.14	1884.13
351.35	2037.73
351.56	1916.90
351.77	1961.95
351.99	1982.43
352.20	2050.02
352.41	2070.50
352.62	1806.31
352.83	1937.38
353.04	2035.68
353.25	1951.71
353.46	2090.98
353.67	1982.43
353.88	1867.75
354.09	1949.67
354.30	1937.38
354.52	2013.15
354.73	1961.95
354.94	1918.95
355.15	1896.42
355.36	2029.54
355.57	1912.80
355.78	2039.78
355.99	1869.80
356.20	1966.05
356.41	2101.22
356.62	2007.01
356.83	2004.96
357.04	2027.49
357.25	1783.78
357.46	1970.15
357.68	1902.56
357.89	1855.46
358.10	1912.80
358.31	2037.73
358.52	1882.08
358.73	1871.84
358.94	1853.41
359.15	1931.23
359.36	1994.72
359.57	1976.29
359.78	1986.53
359.99	2023.39
360.20	1916.90
360.41	1953.76
360.62	1984.48
360.83	1980.39
361.04	1898.47
361.25	1931.23
361.46	2058.21
361.67	1970.15
361.88	2033.63
362.09	2035.68
362.30	2031.58
362.51	1886.18
362.72	2011.11
362.93	1988.58
363.14	1933.28
363.35	1959.91
363.56	1923.04
363.78	2056.16
363.99	2002.91
364.20	1890.28
364.41	1996.77
364.62	2109.41
364.83	1902.56
365.04	2029.54
365.25	1933.28
365.46	2162.66
365.67	1931.23
365.88	1951.71
366.09	1949.67
366.30	1857.51
366.51	1908.71
366.72	1925.09
366.93	1959.91
367.14	1976.29
367.35	2013.15
367.56	1974.24
367.77	2086.88
367.98	1902.56
368.18	1980.39
368.39	2011.11
368.60	1859.56
368.81	2050.02
369.02	1984.48
369.23	1927.14
369.44	1783.78
369.65	1867.75
369.86	2019.30
370.07	2056.16
370.28	1894.37
370.49	2039.78
370.70	2011.11
370.91	1841.12
371.12	1912.80
371.33	2027.49
371.54	1910.75
371.75	2086.88
371.96	1779.68
372.17	1900.52
372.38	1978.34
372.59	2000.87
372.80	1943.52
373.01	1927.14
373.22	2056.16
373.43	1976.29
373.64	1818.60
373.85	1998.82
374.06	2109.41
374.26	2002.91
374.47	1925.09
374.68	1992.67
374.89	2033.63
375.10	1923.04
375.31	2025.44
375.52	1998.82
375.73	1925.09
375.94	1910.75
376.15	2050.02
376.36	1896.42
376.57	1826.79
376.78	2002.91
376.99	1927.14
377.20	2076.64
377.40	2029.54
377.61	2058.21
377.82	1961.95
378.03	2043.87
378.24	1992.67
378.45	1943.52
378.66	1976.29
378.87	1810.40
379.08	1882.08
379.29	1898.47
379.50	2035.68
379.71	2009.06
379.91	2035.68
380.12	1966.05
380.33	1998.82
380.54	2013.15
380.75	1904.61
380.96	1939.43
381.17	2041.82
381.38	1955.81
381.59	1966.05
381.80	1974.24
382.00	2129.89
382.21	1984.48
382.42	2033.63
382.63	2301.92
382.84	2021.35
383.05	2074.59
383.26	2127.84
383.47	1978.34
383.68	2011.11
383.88	2045.92
384.09	1951.71
384.30	2103.26
384.51	1980.39
384.72	1955.81
384.93	1910.75
385.14	1984.48
385.35	2123.74
385.55	1923.04
385.76	2090.98
385.97	1941.47
386.18	1955.81
386.39	1880.04
386.60	1908.71
386.81	1941.47
387.02	1925.09
387.22	1871.84
387.43	2144.22
387.64	1984.48
387.85	2076.64
388.06	2199.52
388.27	4042.69
388.48	8681.34
388.68	12121.93
388.89	14262.05
389.10	15531.80
389.31	14212.90
389.52	11122.52
389.73	9715.56
389.93	8871.80
390.14	7995.27
390.35	7380.88
390.56	6543.26
390.77	5402.54
390.98	4036.55
391.18	3200.98
391.39	2498.52
391.60	2187.23
391.81	2244.57
392.02	1964.00
392.23	2154.46
392.43	2002.91
392.64	2119.65
392.85	1937.38
393.06	2101.22
393.27	1920.99
393.47	1890.28
393.68	2019.30
393.89	1978.34
394.10	2004.96
394.31	1908.71
394.52	1918.95
394.72	1910.75
394.93	2064.35
395.14	1927.14
395.35	2033.63
395.56	1892.32
395.76	1884.13
395.97	1996.77
396.18	2056.16
396.39	2119.65
396.60	2453.47
396.80	2220.00
397.01	2054.11
397.22	2113.50
397.43	2199.52
397.64	1986.53
397.84	2117.60
398.05	2170.85
398.26	1996.77
398.47	2080.74
398.67	2054.11
398.88	1943.52
399.09	1957.86
399.30	1964.00
399.51	1947.62
399.71	1880.04
399.92	1937.38
400.13	1929.19
400.34	1951.71
400.54	1968.10
400.75	2037.73
400.96	1974.24
401.17	2076.64
401.37	2019.30
401.58	1957.86
401.79	2004.96
402.00	2052.06
402.21	2316.25
402.41	2346.97
402.62	2396.12
402.83	2445.27
403.04	2353.12
403.24	2473.95
403.45	2133.98
403.66	2195.42
403.87	2205.66
404.07	2205.66
404.28	2220.00
404.49	2105.31
404.70	2109.41
404.90	2095.07
405.11	1992.67
405.32	1951.71
405.52	1941.47
405.73	2019.30
405.94	1871.84
406.15	1961.95
406.35	1988.58
406.56	2025.44
406.77	2031.58
406.98	1951.71
407.18	1914.85
407.39	2025.44
407.60	1998.82
407.80	2013.15
408.01	1998.82
408.22	2072.54
408.43	1898.47
408.63	2066.40
408.84	2013.15
409.05	2021.35
409.25	1832.93
409.46	1947.62
409.67	1916.90
409.88	1941.47
410.08	1982.43
410.29	1925.09
410.50	2041.82
410.70	1927.14
410.91	1974.24
411.12	1955.81
411.32	1976.29
411.53	1912.80
411.74	2029.54
411.95	2111.46
412.15	2068.45
412.36	2082.78
412.57	2111.46
412.77	2062.30
412.98	2019.30
413.19	1910.75
413.39	2047.97
413.60	2004.96
413.81	2101.22
414.01	1959.91
414.22	2043.87
414.43	1988.58
414.63	1992.67
414.84	1959.91
415.05	1912.80
415.25	1867.75
415.46	1968.10
415.67	1937.38
415.87	2004.96
416.08	1982.43
416.29	1941.47
416.49	1978.34
416.70	1939.43
416.91	1972.19
417.11	1920.99
417.32	2066.40
417.53	2004.96
417.73	2000.87
417.94	1982.43
418.15	1912.80
418.35	1992.67
418.56	1961.95
418.77	2097.12
418.97	1929.19
419.18	1943.52
419.38	1810.40
419.59	1908.71
419.80	2095.07
420.00	1882.08
420.21	1986.53
420.42	1976.29
420.62	1970.15
420.83	1861.60
421.04	2011.11
421.24	1982.43
421.45	2072.54
421.65	1994.72
421.86	1880.04
422.07	1953.76
422.27	2004.96
422.48	2011.11
422.69	1910.75
422.89	1996.77
423.10	1949.67
423.30	1873.89
423.51	1996.77
423.72	1931.23
423.92	2017.25
424.13	1826.79
424.33	1920.99
424.54	1955.81
424.75	1986.53
424.95	2078.69
425.16	1994.72
425.36	1964.00
425.57	2002.91
425.78	2004.96
425.98	2035.68
426.19	1968.10
426.39	1904.61
426.60	1925.09
426.81	2027.49
427.01	2009.06
427.22	1894.37
427.42	1814.50
427.63	1880.04
427.83	1990.63
428.04	2023.39
428.25	2035.68
428.45	2074.59
428.66	2095.07
428.86	1968.10
429.07	1941.47
429.28	1933.28
429.48	1943.52
429.69	1888.23
429.89	1976.29
430.10	1877.99
430.30	1972.19
430.51	2066.40
430.71	1839.08
430.92	1984.48
431.13	1931.23
431.33	1935.33
431.54	1912.80
431.74	2037.73
431.95	2117.60
432.15	1865.70
432.36	1972.19
432.56	1970.15
432.77	2117.60
432.98	2140.13
433.18	1968.10
433.39	1974.24
433.59	1902.56
433.80	2111.46
434.00	2174.94
434.21	1890.28
434.41	1867.75
434.62	2203.61
434.82	1898.47
435.03	1890.28
435.23	1984.48
435.44	1888.23
435.64	1890.28
435.85	1933.28
436.06	2004.96
436.26	2015.20
436.47	1894.37
436.67	1996.77
436.88	1939.43
437.08	2021.35
437.29	2050.02
437.49	1955.81
437.70	1996.77
437.90	1980.39
438.11	2090.98
438.31	2033.63
438.52	2158.56
438.72	2174.94
438.93	2236.38
439.13	2146.27
439.34	2121.70
439.54	2068.45
439.75	2064.35
439.95	2131.94
440.16	1943.52
440.36	2041.82
440.57	2027.49
440.77	2052.06
440.98	2066.40
441.18	2078.69
441.39	2002.91
441.59	1900.52
441.80	2142.18
442.00	1996.77
442.21	2000.87
442.41	1961.95
442.62	2035.68
442.82	1906.66
443.02	1961.95
443.23	1996.77
443.43	1996.77
443.64	2047.97
443.84	1964.00
444.05	2125.79
444.25	1994.72
444.46	1863.65
444.66	2047.97
444.87	2033.63
445.07	1873.89
445.28	2025.44
445.48	2068.45
445.69	2017.25
445.89	2164.70
446.09	1959.91
446.30	2326.49
446.50	2639.83
446.71	4190.14
446.91	5502.89
447.12	6150.05
447.32	6539.16
447.53	6018.98
447.73	4851.64
447.93	4278.21
448.14	3934.15
448.34	3809.22
448.55	3471.31
448.75	3393.48
448.96	3078.10
449.16	2838.48
449.36	2617.30
449.57	2342.88
449.77	2195.42
449.98	2031.58
450.18	2090.98
450.39	2052.06
450.59	2082.78
450.79	1982.43
451.00	1873.89
451.20	2013.15
451.41	1955.81
451.61	2000.87
451.81	2007.01
452.02	2013.15
452.22	1968.10
452.43	1992.67
452.63	1910.75
452.84	1906.66
453.04	1865.70
453.24	2023.39
453.45	1945.57
453.65	2029.54
453.86	1992.67
454.06	2054.11
454.26	1943.52
454.47	1945.57
454.67	2121.70
454.87	1945.57
455.08	2015.20
455.28	2064.35
455.49	2052.06
455.69	1937.38
455.89	2133.98
456.10	2105.31
456.30	1955.81
456.51	2000.87
456.71	1998.82
456.91	1994.72
457.12	1957.86
457.32	2004.96
457.52	1861.60
457.73	2060.26
457.93	2056.16
458.14	1925.09
458.34	1796.07
458.54	1980.39
458.75	1959.91
458.95	2054.11
459.15	1980.39
459.36	1945.57
459.56	2025.44
459.76	2181.09
459.97	1959.91
460.17	2009.06
460.37	2066.40
460.58	2000.87
460.78	1992.67
460.99	2002.91
461.19	1980.39
461.39	1980.39
461.60	1927.14
461.80	2009.06
462.00	1951.71
462.21	1976.29
462.41	1933.28
462.61	1906.66
462.82	1888.23
463.02	2033.63
463.22	2029.54
463.43	2045.92
463.63	2045.92
463.83	2082.78
464.04	2007.01
464.24	2023.39
464.44	1869.80
464.64	1984.48
464.85	2090.98
465.05	2050.02
465.25	1992.67
465.46	1933.28
465.66	1980.39
465.86	2082.78
466.07	1970.15
466.27	2045.92
466.47	1822.69
466.68	1927.14
466.88	2111.46
467.08	2056.16
467.29	2031.58
467.49	2002.91
467.69	2050.02
467.89	1945.57
468.10	1974.24
468.30	1970.15
468.50	2058.21
468.71	2039.78
468.91	1888.23
469.11	2086.88
469.31	1968.10
469.52	1939.43
469.72	2113.50
469.92	2170.85
470.13	1982.43
470.33	1923.04
470.53	2062.30
470.73	2342.88
470.94	2846.68
471.14	3071.95
471.34	3260.37
471.54	3325.90
471.75	2987.99
471.95	2727.89
472.15	2484.19
472.36	2478.04
472.56	2465.75
472.76	2400.22
472.96	2441.18
473.17	2203.61
473.37	2263.01
473.57	1980.39
473.77	2072.54
473.98	1957.86
474.18	1877.99
474.38	2256.86
474.58	1933.28
474.79	1998.82
474.99	1978.34
475.19	2066.40
475.39	1894.37
475.60	1992.67
475.80	1992.67
476.00	1970.15
476.20	1910.75
476.41	2037.73
476.61	2103.26
476.81	2097.12
477.01	1947.62
477.21	2127.84
477.42	2056.16
477.62	1902.56
477.82	2033.63
478.02	1894.37
478.23	1943.52
478.43	1929.19
478.63	2004.96
478.83	1941.47
479.03	2019.30
479.24	2060.26
479.44	2121.70
479.64	1937.38
479.84	1890.28
480.04	1966.05
480.25	2035.68
480.45	1941.47
480.65	1943.52
480.85	2121.70
481.06	1884.13
481.26	2035.68
481.46	2000.87
481.66	1998.82
481.86	1882.08
482.06	2109.41
482.27	1953.76
482.47	1990.63
482.67	1976.29
482.87	2029.54
483.07	1959.91
483.28	1931.23
483.48	1910.75
483.68	1933.28
483.88	1904.61
484.08	1791.97
484.29	1849.32
484.49	2039.78
484.69	1894.37
484.89	2121.70
485.09	2066.40
485.29	1986.53
485.50	2054.11
485.70	1986.53
485.90	1961.95
486.10	1957.86
486.30	2000.87
486.50	2084.83
486.71	2072.54
486.91	2027.49
487.11	2050.02
487.31	1894.37
487.51	2002.91
487.71	1937.38
487.91	1865.70
488.12	1902.56
488.32	1828.84
488.52	1964.00
488.72	1877.99
488.92	1953.76
489.12	2050.02
489.32	2111.46
489.53	1959.91
489.73	1849.32
489.93	2129.89
490.13	1943.52
490.33	1808.36
490.53	2086.88
490.73	1968.10
490.94	1814.50
491.14	2084.83
491.34	2009.06
491.54	2312.16
491.74	2981.84
491.94	3563.47
492.14	3864.52
492.34	3831.75
492.54	3610.57
492.75	2949.08
492.95	2998.23
493.15	2678.74
493.35	2650.07
493.55	2641.88
493.75	2463.71
493.95	2539.48
494.15	2312.16
494.35	2189.28
494.56	2078.69
494.76	2062.30
494.96	2072.54
495.16	2078.69
495.36	1998.82
495.56	1912.80
495.76	1974.24
495.96	2045.92
496.16	1945.57
496.36	2121.70
496.56	2007.01
496.77	2025.44
496.97	1980.39
497.17	2111.46
497.37	1865.70
497.57	1966.05
497.77	1968.10
497.97	1865.70
498.17	2000.87
498.37	2009.06
498.57	2047.97
498.77	1882.08
498.97	2027.49
499.17	2115.55
499.38	2097.12
499.58	2056.16
499.78	2041.82
499.98	2160.61
500.18	1964.00
500.38	1935.33
500.58	2088.93
500.78	2553.82
500.98	4876.21
501.18	7063.44
501.38	8808.31
501.58	9756.52
501.78	9502.58
501.98	7565.20
502.18	6178.72
502.38	5373.87
502.58	4872.12
502.78	4411.32
502.98	4335.55
503.18	4071.36
503.38	3694.54
503.59	3383.24
503.79	3074.00
503.99	2858.96
504.19	2541.53
504.39	2578.39
504.59	2658.26
504.79	2672.60
504.99	2641.88
505.19	2346.97
505.39	2258.91
505.59	2308.06
505.79	2269.15
505.99	2209.76
506.19	2121.70
506.39	2215.90
506.59	1972.19
506.79	1976.29
506.99	2125.79
507.19	1957.86
507.39	2011.11
507.59	1929.19
507.79	1910.75
507.99	1939.43
508.19	2045.92
508.39	1935.33
508.59	2082.78
508.79	2121.70
508.99	2066.40
509.19	1976.29
509.39	2095.07
509.59	1925.09
509.79	1896.42
509.99	2009.06
510.19	2023.39
510.39	2115.55
510.59	1996.77
510.79	1916.90
510.99	1880.04
511.19	2050.02
511.39	2066.40
511.59	2045.92
511.79	2111.46
511.99	2015.20
512.19	2150.37
512.38	2052.06
512.58	1896.42
512.78	2000.87
512.98	2142.18
513.18	2064.35
513.38	1851.36
513.58	1951.71
513.78	1898.47
513.98	1972.19
514.18	1918.95
514.38	1982.43
514.58	2050.02
514.78	1880.04
514.98	1900.52
515.18	2013.15
515.38	1875.94
515.58	2058.21
515.78	1966.05
515.98	1912.80
516.18	2086.88
516.38	1976.29
516.57	1880.04
516.77	1892.32
516.97	2037.73
517.17	1984.48
517.37	1912.80
517.57	2021.35
517.77	1945.57
517.97	1947.62
518.17	2097.12
518.37	1953.76
518.57	1949.67
518.77	1927.14
518.97	1931.23
519.16	2000.87
519.36	2011.11
519.56	1953.76
519.76	1976.29
519.96	2103.26
520.16	2093.02
520.36	1877.99
520.56	2133.98
520.76	1927.14
520.96	1974.24
521.16	2052.06
521.35	2041.82
521.55	2164.70
521.75	1984.48
521.95	1914.85
522.15	1972.19
522.35	1947.62
522.55	1918.95
522.75	2070.50
522.95	1972.19
523.14	1855.46
523.34	1996.77
523.54	1939.43
523.74	2031.58
523.94	1941.47
524.14	1824.74
524.34	1998.82
524.54	2125.79
524.73	2004.96
524.93	2033.63
525.13	1931.23
525.33	1912.80
525.53	2154.46
525.73	2033.63
525.93	2007.01
526.13	1964.00
526.32	1929.19
526.52	1972.19
526.72	2021.35
526.92	1972.19
527.12	1933.28
527.32	1849.32
527.52	2076.64
527.71	1994.72
527.91	2050.02
528.11	1933.28
528.31	1978.34
528.51	1867.75
528.71	1916.90
528.90	2052.06
529.10	2023.39
529.30	2029.54
529.50	1845.22
529.70	2015.20
529.90	1896.42
530.09	1927.14
530.29	1847.27
530.49	1828.84
530.69	2252.77
530.89	2074.59
531.09	2086.88
531.28	1955.81
531.48	2076.64
531.68	2015.20
531.88	1992.67
532.08	2060.26
532.28	1945.57
532.47	2086.88
532.67	2021.35
532.87	2043.87
533.07	1927.14
533.27	2041.82
533.46	2060.26
533.66	1996.77
533.86	1916.90
534.06	1980.39
534.26	2041.82
534.45	2062.30
534.65	2056.16
534.85	2080.74
535.05	1935.33
535.25	2017.25
535.44	1822.69
535.64	2064.35
535.84	1970.15
536.04	1972.19
536.24	1941.47
536.43	1945.57
536.63	2002.91
536.83	1972.19
537.03	1947.62
537.22	1916.90
537.42	1843.17
537.62	2047.97
537.82	1923.04
538.02	2162.66
538.21	2084.83
538.41	2183.13
538.61	1996.77
538.81	1951.71
539.00	2052.06
539.20	1865.70
539.40	2031.58
539.60	1935.33
539.79	2029.54
539.99	1994.72
540.19	1978.34
540.39	1957.86
540.58	2058.21
540.78	2054.11
540.98	1982.43
541.18	2043.87
541.37	2039.78
541.57	2029.54
541.77	1998.82
541.97	1867.75
542.16	1884.13
542.36	1988.58
542.56	1996.77
542.76	2080.74
542.95	2009.06
543.15	2031.58
543.35	2070.50
543.54	1961.95
543.74	1929.19
543.94	2068.45
544.14	1959.91
544.33	1996.77
544.53	1994.72
544.73	2004.96
544.93	1947.62
545.12	1923.04
545.32	1992.67
545.52	1916.90
545.71	1996.77
545.91	1933.28
546.11	1929.19
546.30	1964.00
546.50	1998.82
546.70	1986.53
546.90	1994.72
547.09	1959.91
547.29	2017.25
547.49	1998.82
547.68	2002.91
547.88	1964.00
548.08	2013.15
548.27	2521.05
548.47	1937.38
548.67	1937.38
548.87	1984.48
549.06	1935.33
549.26	1976.29
549.46	2037.73
549.65	1886.18
549.85	2021.35
550.05	1972.19
550.24	1918.95
550.44	1939.43
550.64	1984.48
550.83	2007.01
551.03	2099.17
551.23	2101.22
551.42	1992.67
551.62	1968.10
551.82	1957.86
552.01	1900.52
552.21	1988.58
552.41	2002.91
552.60	2105.31
552.80	2035.68
553.00	1908.71
553.19	1990.63
553.39	2076.64
553.59	1837.03
553.78	1984.48
553.98	2002.91
554.17	1955.81
554.37	1910.75
554.57	2095.07
554.76	1935.33
554.96	2011.11
555.16	1943.52
555.35	1943.52
555.55	2056.16
555.75	1970.15
555.94	1990.63
556.14	1859.56
556.33	2047.97
556.53	1964.00
556.73	2074.59
556.92	2037.73
557.12	2099.17
557.32	2101.22
557.51	2052.06
557.71	2072.54
557.90	2035.68
558.10	2136.03
558.30	1978.34
558.49	1970.15
558.69	1914.85
558.88	2031.58
559.08	2023.39
559.28	1937.38
559.47	1966.05
559.67	2047.97
559.86	2131.94
560.06	1966.05
560.26	1943.52
560.45	2021.35
560.65	1943.52
560.84	2076.64
561.04	1957.86
561.24	2023.39
561.43	1935.33
561.63	2086.88
561.82	1968.10
562.02	1976.29
562.22	1939.43
562.41	1949.67
562.61	1939.43
562.80	1982.43
563.00	2281.44
563.19	1982.43
563.39	1912.80
563.59	2019.30
563.78	1974.24
563.98	1832.93
564.17	1972.19
564.37	1855.46
564.56	1966.05
564.76	1808.36
564.96	2056.16
565.15	1974.24
565.35	2166.75
565.54	1914.85
565.74	2068.45
565.93	2037.73
566.13	1966.05
566.32	2054.11
566.52	1982.43
566.71	1994.72
566.91	2054.11
567.11	1984.48
567.30	1931.23
567.50	1978.34
567.69	1996.77
567.89	1945.57
568.08	2007.01
568.28	2031.58
568.47	1939.43
568.67	2011.11
568.86	1972.19
569.06	2105.31
569.25	1955.81
569.45	1890.28
569.64	1990.63
569.84	1957.86
570.04	2066.40
570.23	1951.71
570.43	1957.86
570.62	1972.19
570.82	2084.83
571.01	1937.38
571.21	1947.62
571.40	1918.95
571.60	2099.17
571.79	2004.96
571.99	1959.91
572.18	1953.76
572.38	2009.06
572.57	1929.19
572.77	2121.70
572.96	2158.56
573.16	2037.73
573.35	1955.81
573.55	2039.78
573.74	2027.49
573.94	1959.91
574.13	1990.63
574.33	2088.93
574.52	2052.06
574.71	2023.39
574.91	2047.97
575.10	1904.61
575.30	1951.71
575.49	1923.04
575.69	1961.95
575.88	2023.39
576.08	2062.30
576.27	2086.88
576.47	2064.35
576.66	2140.13
576.86	2117.60
577.05	2072.54
577.25	2095.07
577.44	2199.52
577.64	2009.06
577.83	2052.06
578.02	1972.19
578.22	2121.70
578.41	2076.64
578.61	2035.68
578.80	1896.42
579.00	2068.45
579.19	1992.67
579.39	2095.07
579.58	2076.64
579.77	2047.97
579.97	2062.30
580.16	2127.84
580.36	2043.87
580.55	2117.60
580.75	2023.39
580.94	2033.63
581.13	2166.75
581.33	2023.39
581.52	2023.39
581.72	2105.31
581.91	2193.37
582.11	2019.30
582.30	2127.84
582.49	2131.94
582.69	2078.69
582.88	1980.39
583.08	2035.68
583.27	2144.22
583.47	2060.26
583.66	1978.34
583.85	1945.57
584.05	2017.25
584.24	2043.87
584.44	2037.73
584.63	2121.70
584.82	2170.85
585.02	2156.51
585.21	2234.33
585.41	2076.64
585.60	2097.12
585.79	2297.82
585.99	2252.77
586.18	2148.32
586.37	2568.15
586.57	3901.38
586.76	12142.41
586.96	30930.47
587.15	45366.60
587.34	54815.93
587.54	60816.48
587.73	57177.24
587.93	40623.51
588.12	30232.11
588.31	24303.25
588.51	20813.51
588.70	19353.30
588.89	17510.13
589.09	15228.70
589.28	13131.58
589.47	11034.46
589.67	8781.69
589.86	6684.57
590.06	4997.04
590.25	3901.38
590.44	3129.30
590.64	2623.45
590.83	2414.56
591.02	2242.53
591.22	2189.28
591.41	2131.94
591.60	2080.74
591.80	2213.85
591.99	1884.13
592.18	1974.24
592.38	2017.25
592.57	1982.43
592.76	2015.20
592.96	1990.63
593.15	2017.25
593.34	2099.17
593.54	2047.97
593.73	2072.54
593.92	2064.35
594.12	2125.79
594.31	2076.64
594.50	2222.05
594.70	2084.83
594.89	2238.43
595.08	1982.43
595.28	2060.26
595.47	2293.72
595.66	2123.74
595.86	1966.05
596.05	1986.53
596.24	1982.43
596.43	2199.52
596.63	2056.16
596.82	2037.73
597.01	2015.20
597.21	2166.75
597.40	2074.59
597.59	1996.77
597.79	1978.34
597.98	2047.97
598.17	2015.20
598.36	1978.34
598.56	2062.30
598.75	1867.75
598.94	2047.97
599.14	1984.48
599.33	1945.57
599.52	2025.44
599.71	2093.02
599.91	2058.21
600.10	2107.36
600.29	2029.54
600.48	2019.30
600.68	2009.06
600.87	1988.58
601.06	2027.49
601.26	1966.05
601.45	2070.50
601.64	1945.57
601.83	2095.07
602.03	2050.02
602.22	1976.29
602.41	1990.63
602.60	2105.31
602.80	2068.45
602.99	2009.06
603.18	1990.63
603.37	1992.67
603.57	1990.63
603.76	2021.35
603.95	2101.22
604.14	1931.23
604.34	1939.43
604.53	1959.91
604.72	2043.87
604.91	2039.78
605.10	2052.06
605.30	1767.40
605.49	2111.46
605.68	2111.46
605.87	2082.78
606.07	1935.33
606.26	1980.39
606.45	2000.87
606.64	2029.54
606.84	2011.11
607.03	2035.68
607.22	2090.98
607.41	1945.57
607.60	1978.34
607.80	2064.35
607.99	1961.95
608.18	1988.58
608.37	1941.47
608.56	1955.81
608.76	2131.94
608.95	2181.09
609.14	2047.97
609.33	2107.36
609.52	2133.98
609.72	2164.70
609.91	2099.17
610.10	2058.21
610.29	2125.79
610.48	2084.83
610.68	2045.92
610.87	2000.87
611.06	2144.22
611.25	2004.96
611.44	2084.83
611.63	1998.82
611.83	2011.11
612.02	1908.71
612.21	2093.02
612.40	1816.55
612.59	1855.46
612.79	1933.28
612.98	1990.63
613.17	2035.68
613.36	1994.72
613.55	2197.47
613.74	2090.98
613.93	2185.18
614.13	2230.24
614.32	2201.57
614.51	2228.19
614.70	2062.30
614.89	2011.11
615.08	2105.31
615.28	2475.99
615.47	1941.47
615.66	2054.11
615.85	2090.98
616.04	2146.27
616.23	1998.82
616.42	2031.58
616.62	2072.54
616.81	2131.94
617.00	2068.45
617.19	2113.50
617.38	1888.23
617.57	1994.72
617.76	2019.30
617.95	2107.36
618.15	2056.16
618.34	2064.35
618.53	1951.71
618.72	2078.69
618.91	2058.21
619.10	2150.37
619.29	2011.11
619.48	2054.11
619.68	1927.14
619.87	1964.00
620.06	1925.09
620.25	1972.19
620.44	1920.99
620.63	1968.10
620.82	1988.58
621.01	2011.11
621.20	2039.78
621.39	2043.87
621.59	1992.67
621.78	2011.11
621.97	2021.35
622.16	2045.92
622.35	2021.35
622.54	2099.17
622.73	2037.73
622.92	1781.73
623.11	2045.92
623.30	2007.01
623.49	2058.21
623.68	1966.05
623.88	2142.18
624.07	1998.82
624.26	1902.56
624.45	2017.25
624.64	1916.90
624.83	2064.35
625.02	2029.54
625.21	1998.82
625.40	1990.63
625.59	2103.26
625.78	2007.01
625.97	2074.59
626.16	2088.93
626.35	2111.46
626.54	2013.15
626.74	2123.74
626.93	2000.87
627.12	2029.54
627.31	2080.74
627.50	2000.87
627.69	2123.74
627.88	1996.77
628.07	1888.23
628.26	1904.61
628.45	2007.01
628.64	1933.28
628.83	2004.96
629.02	1886.18
629.21	2004.96
629.40	1964.00
629.59	1898.47
629.78	1966.05
629.97	1974.24
630.16	2080.74
630.35	2002.91
630.54	2027.49
630.73	1953.76
630.92	2023.39
631.11	1998.82
631.30	1945.57
631.49	2064.35
631.68	1968.10
631.87	1980.39
632.06	1918.95
632.25	2156.51
632.44	1982.43
632.63	2070.50
632.82	2078.69
633.01	2072.54
633.20	2099.17
633.39	2019.30
633.58	2017.25
633.77	2111.46
633.96	2088.93
634.15	2035.68
634.34	1990.63
634.53	2037.73
634.72	1873.89
634.91	1888.23
635.10	2093.02
635.29	2031.58
635.48	2045.92
635.67	1986.53
635.86	1951.71
636.05	2021.35
636.24	2000.87
636.43	2004.96
636.62	1904.61
636.81	1830.88
637.00	1990.63
637.19	1984.48
637.38	1970.15
637.57	1867.75
637.76	1978.34
637.95	2185.18
638.14	2052.06
638.33	2080.74
638.52	2060.26
638.71	1939.43
638.89	1886.18
639.08	2252.77
639.27	2078.69
639.46	2238.43
639.65	2566.10
639.84	2551.77
640.03	2838.48
640.22	2801.62
640.41	2740.18
640.60	2377.69
640.79	2426.84
640.98	2201.57
641.17	2269.15
641.36	2250.72
641.55	2125.79
641.74	2037.73
641.92	2043.87
642.11	1947.62
642.30	2047.97
642.49	1945.57
642.68	1910.75
642.87	1949.67
643.06	2013.15
643.25	1908.71
643.44	1957.86
643.63	1976.29
643.82	2052.06
644.00	1923.04
644.19	1961.95
644.38	1892.32
644.57	1957.86
644.76	2023.39
644.95	1941.47
645.14	1923.04
645.33	1966.05
645.52	1976.29
645.71	1892.32
645.89	1884.13
646.08	1976.29
646.27	1935.33
646.46	2111.46
646.65	1841.12
646.84	1920.99
647.03	1953.76
647.22	2041.82
647.40	2021.35
647.59	1949.67
647.78	1818.60
647.97	1877.99
648.16	1877.99
648.35	2105.31
648.54	2043.87
648.73	1902.56
648.91	2047.97
649.10	1996.77
649.29	1880.04
649.48	1974.24
649.67	2023.39
649.86	2019.30
650.05	2041.82
650.23	2226.14
650.42	2058.21
650.61	2238.43
650.80	2195.42
650.99	2207.71
651.18	2080.74
651.36	2088.93
651.55	2000.87
651.74	2062.30
651.93	1964.00
652.12	1953.76
652.31	2007.01
652.49	1974.24
652.68	2004.96
652.87	2115.55
653.06	2047.97
653.25	2115.55
653.44	2035.68
653.62	2138.08
653.81	1933.28
654.00	1980.39
654.19	2031.58
654.38	2174.94
654.56	1978.34
654.75	2013.15
654.94	2076.64
655.13	1970.15
655.32	1992.67
655.51	1976.29
655.69	1935.33
655.88	2045.92
656.07	1902.56
656.26	1984.48
656.45	1898.47
656.63	2004.96
656.82	1935.33
657.01	2013.15
657.20	1951.71
657.38	2123.74
657.57	1910.75
657.76	1896.42
657.95	2054.11
658.14	1914.85
658.32	1916.90
658.51	1920.99
658.70	1974.24
658.89	1964.00
659.08	1980.39
659.26	2129.89
659.45	1923.04
659.64	2086.88
659.83	1959.91
660.01	2301.92
660.20	2031.58
660.39	2074.59
660.58	1845.22
660.76	2002.91
660.95	1857.51
661.14	1980.39
661.33	1916.90
661.51	2033.63
661.70	1916.90
661.89	2043.87
662.08	1945.57
662.26	1894.37
662.45	1974.24
662.64	2078.69
662.83	1959.91
663.01	1961.95
663.20	1998.82
663.39	2041.82
663.58	2019.30
663.76	1994.72
663.95	2029.54
664.14	1853.41
664.32	1925.09
664.51	1908.71
664.70	1910.75
664.89	1945.57
665.07	1904.61
665.26	1988.58
665.45	1906.66
665.64	2045.92
665.82	1982.43
666.01	2062.30
666.20	1892.32
666.38	2097.12
666.57	2172.89
666.76	2793.43
666.95	6750.10
667.13	15030.04
667.32	21075.65
667.51	25136.77
667.69	27190.88
667.88	25984.63
668.07	18949.85
668.25	14810.91
668.44	11970.38
668.63	10110.82
668.81	8912.76
669.00	7917.45
669.19	6991.77
669.38	6043.56
669.56	5361.58
669.75	4396.99
669.94	3758.02
670.12	3112.91
670.31	2639.83
670.50	2449.37
670.68	2338.78
670.87	2166.75
671.06	2082.78
671.24	2150.37
671.43	2181.09
671.62	2121.70
671.80	2047.97
671.99	2060.26
672.18	2039.78
672.36	1988.58
672.55	2027.49
672.74	1972.19
672.92	1898.47
673.11	2084.83
673.29	1886.18
673.48	1984.48
673.67	1900.52
673.85	2123.74
674.04	1898.47
674.23	1935.33
674.41	2125.79
674.60	1867.75
674.79	1910.75
674.97	1900.52
675.16	2080.74
675.34	2004.96
675.53	1904.61
675.72	2045.92
675.90	2101.22
676.09	1978.34
676.28	1918.95
676.46	1863.65
676.65	2007.01
676.83	1869.80
677.02	1949.67
677.21	2068.45
677.39	1918.95
677.58	1910.75
677.77	1923.04
677.95	1945.57
678.14	2027.49
678.32	1947.62
678.51	1845.22
678.70	2080.74
678.88	1933.28
679.07	2027.49
679.25	1988.58
679.44	1964.00
679.63	1798.12
679.81	2004.96
680.00	2074.59
680.18	2062.30
680.37	2097.12
680.55	1896.42
680.74	1908.71
680.93	1796.07
681.11	1961.95
681.30	1986.53
681.48	1994.72
681.67	1953.76
681.85	1988.58
682.04	1941.47
682.23	2000.87
682.41	2023.39
682.60	1972.19
682.78	1986.53
682.97	1806.31
683.15	1968.10
683.34	2039.78
683.53	2166.75
683.71	1834.98
683.90	2107.36
684.08	2078.69
684.27	2011.11
684.45	1992.67
684.64	2066.40
684.82	1929.19
685.01	2002.91
685.19	1953.76
685.38	2115.55
685.57	1931.23
685.75	1839.08
685.94	1857.51
686.12	1918.95
686.31	1918.95
686.49	2097.12
686.68	1769.44
686.86	1974.24
687.05	1880.04
687.23	2025.44
687.42	1998.82
687.60	1880.04
687.79	2084.83
687.97	2002.91
688.16	2074.59
688.34	2078.69
688.53	1908.71
688.71	1990.63
688.90	2062.30
689.08	1964.00
689.27	1824.74
689.45	1986.53
689.64	2019.30
689.82	1980.39
690.01	2000.87
690.19	2011.11
690.38	1920.99
690.56	1947.62
690.75	1912.80
690.93	1880.04
691.12	1931.23
691.30	1994.72
691.49	1980.39
691.67	2000.87
691.86	2185.18
692.04	1888.23
692.23	1966.05
692.41	2035.68
692.60	2131.94
692.78	2107.36
692.97	1996.77
693.15	2052.06
693.34	2150.37
693.52	2097.12
693.71	1949.67
693.89	1906.66
694.08	1841.12
694.26	2080.74
694.44	1974.24
694.63	1998.82
694.81	1910.75
695.00	1910.75
695.18	2021.35
695.37	2052.06
695.55	2035.68
695.74	1941.47
695.92	1906.66
696.10	2047.97
696.29	1884.13
696.47	1920.99
696.66	1918.95
696.84	1916.90
697.03	1978.34
697.21	2068.45
697.40	2797.53
697.58	2086.88
697.76	1912.80
697.95	1920.99
698.13	1849.32
698.32	1939.43
698.50	2011.11
698.68	2035.68
698.87	2007.01
699.05	2086.88
699.24	1959.91
699.42	1841.12
699.61	1927.14
699.79	1990.63
699.97	1972.19
700.16	1884.13
700.34	1875.94
700.53	1992.67
700.71	2019.30
700.89	2078.69
701.08	1933.28
701.26	1929.19
701.45	2508.76
701.63	2000.87
701.81	1900.52
702.00	2037.73
702.18	1941.47
702.37	1968.10
702.55	2215.90
702.73	2205.66
702.92	2199.52
703.10	2344.92
703.28	2236.38
703.47	2027.49
703.65	2199.52
703.84	2179.04
704.02	2035.68
704.20	2103.26
704.39	1939.43
704.57	2027.49
704.75	2103.26
704.94	2074.59
705.12	2117.60
705.30	2277.34
705.49	3762.12
705.67	9164.66
705.86	18376.42
706.04	23574.17
706.22	27375.20
706.41	29093.44
706.59	25841.27
706.77	18409.19
706.96	14544.67
707.14	12515.14
707.32	10942.30
707.51	9715.56
707.69	8216.45
707.87	6662.04
708.06	5207.98
708.24	4100.03
708.42	3270.61
708.61	2822.10
708.79	2353.12
708.97	2224.09
709.16	2174.94
709.34	2090.98
709.52	2019.30
709.71	1927.14
709.89	2013.15
710.07	1964.00
710.26	1955.81
710.44	1943.52
710.62	2009.06
710.80	1906.66
710.99	2039.78
711.17	2060.26
711.35	1865.70
711.54	1945.57
711.72	2115.55
711.90	2033.63
712.09	2007.01
712.27	1886.18
712.45	1996.77
712.63	1947.62
712.82	2004.96
713.00	1957.86
713.18	1982.43
713.37	1964.00
713.55	2017.25
713.73	2009.06
713.91	1925.09
714.10	1896.42
714.28	1998.82
714.46	1947.62
714.65	1974.24
714.83	2011.11
715.01	1953.76
715.19	2031.58
715.38	1945.57
715.56	1990.63
715.74	2007.01
715.92	1925.09
716.11	2127.84
716.29	1865.70
716.47	1947.62
716.65	1914.85
716.84	1914.85
717.02	2035.68
717.20	1806.31
717.38	1935.33
717.57	1941.47
717.75	2035.68
717.93	1861.60
718.11	2004.96
718.30	1886.18
718.48	1984.48
718.66	1976.29
718.84	2043.87
719.03	1966.05
719.21	1898.47
719.39	2183.13
719.57	1990.63
719.75	2062.30
719.94	1990.63
720.12	1900.52
720.30	1927.14
720.48	2082.78
720.67	1920.99
720.85	1857.51
721.03	2004.96
721.21	1906.66
721.39	2013.15
721.58	1996.77
721.76	1986.53
721.94	2002.91
722.12	1953.76
722.30	2078.69
722.49	1931.23
722.67	1982.43
722.85	2013.15
723.03	1884.13
723.21	1894.37
723.40	2045.92
723.58	2078.69
723.76	2039.78
723.94	2111.46
724.12	2058.21
724.30	2050.02
724.49	2136.03
724.67	1968.10
724.85	2023.39
725.03	1888.23
725.21	2072.54
725.40	2111.46
725.58	1968.10
725.76	2080.74
725.94	2037.73
726.12	1968.10
726.30	1980.39
726.49	2017.25
726.67	1902.56
726.85	1988.58
727.03	2166.75
727.21	3071.95
727.39	4782.01
727.57	6109.09
727.76	6879.13
727.94	7419.79
728.12	7116.69
728.30	5892.01
728.48	4861.88
728.66	4261.82
728.84	3944.39
729.03	3317.71
729.21	2983.89
729.39	2652.12
729.57	2326.49
729.75	2191.33
729.93	2107.36
730.11	2031.58
730.30	2029.54
730.48	1945.57
730.66	2127.84
730.84	2009.06
731.02	1970.15
731.20	1984.48
731.38	1927.14
731.56	1935.33
731.74	1865.70
731.93	1929.19
732.11	1959.91
732.29	1890.28
732.47	2021.35
732.65	2043.87
732.83	2070.50
733.01	1998.82
733.19	1892.32
733.37	1966.05
733.56	1978.34
733.74	1931.23
733.92	2066.40
734.10	1863.65
734.28	2058.21
734.46	1849.32
734.64	1974.24
734.82	1953.76
735.00	1804.26
735.18	1896.42
735.36	2029.54
735.54	1925.09
735.73	1976.29
735.91	1943.52
736.09	2064.35
736.27	1945.57
736.45	1966.05
736.63	1843.17
736.81	1892.32
736.99	1992.67
737.17	2072.54
737.35	1935.33
737.53	1906.66
737.71	1986.53
737.89	2027.49
738.07	1970.15
738.25	1857.51
738.43	1810.40
738.61	1945.57
738.80	1884.13
738.98	1892.32
739.16	1900.52
739.34	1898.47
739.52	2129.89
739.70	1886.18
739.88	2031.58
740.06	2031.58
740.24	1861.60
740.42	2025.44
740.60	1804.26
740.78	1910.75
740.96	1773.54
741.14	1955.81
741.32	1955.81
741.50	1937.38
741.68	2117.60
741.86	1961.95
742.04	1898.47
742.22	1865.70
742.40	1972.19
742.58	2011.11
742.76	1904.61
742.94	2052.06
743.12	1912.80
743.30	1988.58
743.48	2021.35
743.66	1943.52
743.84	1964.00
744.02	2037.73
744.20	1888.23
744.38	1923.04
744.56	1920.99
744.74	2072.54
744.92	1996.77
745.10	2025.44
745.28	1992.67
745.46	2115.55
745.64	1925.09
745.82	2037.73
746.00	1998.82
746.18	1933.28
746.36	1945.57
746.54	1918.95
746.72	1955.81
746.90	1873.89
747.08	2052.06
747.26	1933.28
747.44	1968.10
747.62	1982.43
747.80	1970.15
747.98	1986.53
748.15	1855.46
748.33	2150.37
748.51	1920.99
748.69	2039.78
748.87	1923.04
749.05	2011.11
749.23	1939.43
749.41	2015.20
749.59	1880.04
749.77	2068.45
749.95	1910.75
750.13	1882.08
750.31	1998.82
750.49	1968.10
750.67	2035.68
750.85	2097.12
751.03	1955.81
751.20	2099.17
751.38	1951.71
751.56	1976.29
751.74	2015.20
751.92	1984.48
752.10	1931.23
752.28	2045.92
752.46	1929.19
752.64	1900.52
752.82	1982.43
753.00	2133.98
753.18	1929.19
753.35	1966.05
753.53	1964.00
753.71	1927.14
753.89	2007.01
754.07	1953.76
754.25	2000.87
754.43	1964.00
754.61	1888.23
754.79	1959.91
754.97	1990.63
755.14	2037.73
755.32	1945.57
755.50	2041.82
755.68	1916.90
755.86	1843.17
756.04	1935.33
756.22	1839.08
756.40	1964.00
756.57	2160.61
756.75	1914.85
756.93	2084.83
757.11	2090.98
757.29	1832.93
757.47	1886.18
757.65	1818.60
757.82	1771.49
758.00	1931.23
758.18	1912.80
758.36	1953.76
758.54	2017.25
758.72	1849.32
758.90	2019.30
759.07	1937.38
759.25	1877.99
759.43	1959.91
759.61	1826.79
759.79	2621.40
759.97	1982.43
760.15	1906.66
760.32	1927.14
760.50	1964.00
760.68	2033.63
760.86	1884.13
761.04	2072.54
761.22	2054.11
761.39	1978.34
761.57	2015.20
761.75	1947.62
761.93	1953.76
762.11	1925.09
762.28	2031.58
762.46	1830.88
762.64	2060.26
762.82	1886.18
763.00	1900.52
763.18	2054.11
763.35	1904.61
763.53	1992.67
763.71	1974.24
763.89	1916.90
764.07	1994.72
764.24	1851.36
764.42	1931.23
764.60	1933.28
764.78	1959.91
764.96	2013.15
765.13	2007.01
765.31	1906.66
765.49	2004.96
765.67	1843.17
765.84	1890.28
766.02	1955.81
766.20	1873.89
766.38	2027.49
766.56	1912.80
766.73	2029.54
766.91	1961.95
767.09	1968.10
767.27	1980.39
767.44	1834.98
767.62	1992.67
767.80	1982.43
767.98	1927.14
768.15	1880.04
768.33	1972.19
768.51	2047.97
768.69	2023.39
768.87	2060.26
769.04	2035.68
769.22	2166.75
769.40	2093.02
769.58	2193.37
769.75	1933.28
769.93	2072.54
770.11	1961.95
770.28	1935.33
770.46	1996.77
770.64	1968.10
770.82	1939.43
770.99	1951.71
771.17	1974.24
771.35	1929.19
771.53	1978.34
771.70	1800.16
771.88	1980.39
772.06	1890.28
772.23	1898.47
772.41	2050.02
772.59	1970.15
772.77	1880.04
772.94	1929.19
773.12	1986.53
773.30	1906.66
773.47	2068.45
773.65	1871.84
773.83	2150.37
774.01	1996.77
774.18	1841.12
774.36	1947.62
774.54	1877.99
774.71	1890.28
774.89	1804.26
775.07	1845.22
775.24	1961.95
775.42	1941.47
775.60	2084.83
775.78	1890.28
775.95	1886.18
776.13	1834.98
776.31	1794.02
776.48	1957.86
776.66	2002.91
776.84	1912.80
777.01	1955.81
777.19	1796.07
777.37	1902.56
777.54	2035.68
777.72	2148.32
777.90	2058.21
778.07	1757.16
778.25	2172.89
778.43	2029.54
778.60	1869.80
778.78	2041.82
778.96	2105.31
779.13	1849.32
779.31	2099.17
779.49	1957.86
779.66	2037.73
779.84	2013.15
780.01	1992.67
780.19	1892.32
780.37	2099.17
780.54	2015.20
780.72	1865.70
780.90	1896.42
781.07	1923.04
781.25	1931.23
781.43	2039.78
781.60	1849.32
781.78	2123.74
781.95	1927.14
782.13	1923.04
782.31	1978.34
782.48	1871.84
782.66	1935.33
782.83	2062.30
783.01	1953.76
783.19	1992.67
783.36	1988.58
783.54	1908.71
783.72	2045.92
783.89	1908.71
784.07	1912.80
784.24	2035.68
784.42	2097.12
784.60	1953.76
784.77	2045.92
784.95	1828.84
785.12	1953.76
785.30	2058.21
785.47	1837.03
785.65	1957.86
785.83	1916.90
786.00	1796.07
786.18	2037.73
786.35	1859.56
786.53	1865.70
786.71	1943.52
786.88	1980.39
787.06	1945.57
787.23	1957.86
787.41	1839.08
787.58	1937.38
787.76	1982.43
787.94	1929.19
788.11	1996.77
788.29	1861.60
788.46	1920.99
788.64	1892.32
788.81	1859.56
788.99	1857.51
789.16	1953.76
789.34	1964.00
789.52	1970.15
789.69	1886.18
789.87	1861.60
790.04	1910.75
790.22	1935.33
790.39	2054.11
790.57	1789.92
790.74	1880.04
790.92	2029.54
791.09	1853.41
791.27	1908.71
791.44	2002.91
791.62	1949.67
791.79	2009.06
791.97	2009.06
792.15	2166.75
792.32	1988.58
792.50	2019.30
792.67	2033.63
792.85	2043.87
793.02	1972.19
793.20	1912.80
793.37	1822.69
793.55	1896.42
793.72	1955.81
793.90	1974.24
794.07	1882.08
794.25	1869.80
794.42	1929.19
794.60	1964.00
794.77	1910.75
794.95	1984.48
795.12	2002.91
795.30	1918.95
795.47	1783.78
795.65	2179.04
795.82	1982.43
796.00	1898.47
796.17	1947.62
796.34	1968.10
796.52	2004.96
796.69	2021.35
796.87	1976.29
797.04	2023.39
797.22	2004.96
797.39	1972.19
797.57	1994.72
797.74	1955.81
797.92	1910.75
798.09	1918.95
798.27	2041.82
798.44	1992.67
798.62	1908.71
798.79	2050.02
798.96	1951.71
799.14	1933.28
799.31	2076.64
799.49	1894.37
799.66	1845.22
799.84	2009.06
800.01	1834.98
800.19	1988.58
800.36	1849.32
800.53	1970.15
800.71	1918.95
800.88	2086.88
801.06	1841.12
801.23	1904.61
801.41	1931.23
801.58	1961.95
801.75	1923.04
801.93	1865.70
802.10	1955.81
802.28	1953.76
802.45	1871.84
802.63	1988.58
802.80	1961.95
802.97	1966.05
803.15	1982.43
803.32	1939.43
803.50	1916.90
803.67	1939.43
803.84	1898.47
804.02	1953.76
804.19	1925.09
804.37	1802.21
804.54	1875.94
804.71	1949.67
804.89	2000.87
805.06	1847.27
805.24	1916.90
805.41	1904.61
805.58	1871.84
805.76	2154.46
805.93	1939.43
806.10	2054.11
806.28	1990.63
806.45	1996.77
806.63	2002.91
806.80	2025.44
806.97	1996.77
807.15	1988.58
807.32	2039.78
807.49	1918.95
807.67	1808.36
807.84	1964.00
808.01	1865.70
808.19	2095.07
808.36	2131.94
808.54	1964.00
808.71	1972.19
808.88	2000.87
809.06	2021.35
809.23	2084.83
809.40	1912.80
809.58	1906.66
809.75	1927.14
809.92	1847.27
810.10	2179.04
810.27	1929.19
810.44	1964.00
810.62	2002.91
810.79	2054.11
810.96	1929.19
811.14	1896.42
811.31	1988.58
811.48	2078.69
811.66	1959.91
811.83	2019.30
812.00	2007.01
812.18	1957.86
812.35	2088.93
812.52	1976.29
812.69	2002.91
812.87	1925.09
813.04	1900.52
813.21	2029.54
813.39	1888.23
813.56	1888.23
813.73	2045.92
813.91	1871.84
814.08	1914.85
814.25	1949.67
814.42	1818.60
814.60	1931.23
814.77	1992.67
814.94	1982.43
815.12	1968.10
815.29	2017.25
815.46	1845.22
815.63	1935.33
815.81	1910.75
815.98	1925.09
816.15	1916.90
816.33	1966.05
816.50	1947.62
816.67	1982.43
816.84	1976.29
817.02	1890.28
817.19	1947.62
817.36	1949.67
817.53	1990.63
817.71	1929.19
817.88	1994.72
818.05	1988.58
818.22	1951.71
818.40	2058.21
818.57	1939.43
818.74	1953.76
818.91	1978.34
819.09	1978.34
819.26	1974.24
819.43	1974.24
819.60	1886.18
819.78	2021.35
819.95	1980.39
820.12	1845.22
820.29	2031.58
820.47	1988.58
820.64	1927.14
820.81	1871.84
820.98	1880.04
821.15	1916.90
821.33	2025.44
821.50	1800.16
821.67	1931.23
821.84	1931.23
822.02	1990.63
822.19	1955.81
822.36	1943.52
822.53	1925.09
822.70	1839.08
822.88	1898.47
823.05	2088.93
823.22	1912.80
823.39	1968.10
823.56	1939.43
823.74	2009.06
823.91	1837.03
824.08	1880.04
824.25	1886.18
824.42	2045.92
824.60	1900.52
824.77	1976.29
824.94	1908.71
825.11	2013.15
825.28	1871.84
825.45	2017.25
825.63	1964.00
825.80	1884.13
825.97	1982.43
826.14	1998.82
826.31	1759.21
826.48	1945.57
826.66	1925.09
826.83	1918.95
827.00	1900.52
827.17	1898.47
827.34	1910.75
827.51	1904.61
827.69	1906.66
827.86	1818.60
828.03	1988.58
828.20	1988.58
828.37	1949.67
828.54	1984.48
828.71	1982.43
828.89	2105.31
829.06	2045.92
829.23	2047.97
829.40	1849.32
829.57	1918.95
829.74	1951.71
829.91	1923.04
830.09	1935.33
830.26	1964.00
830.43	2035.68
830.60	1984.48
830.77	2043.87
830.94	2029.54
831.11	2023.39
831.28	1939.43
831.46	2068.45
831.63	1875.94
831.80	2015.20
831.97	1927.14
832.14	1984.48
832.31	1976.29
832.48	1953.76
832.65	2023.39
832.82	2050.02
832.99	2021.35
833.17	1875.94
833.34	2060.26
833.51	1964.00
833.68	1785.83
833.85	2011.11
834.02	1894.37
834.19	1841.12
834.36	1925.09
834.53	2002.91
834.70	2050.02
834.87	2039.78
835.04	1955.81
835.22	1882.08
835.39	1914.85
835.56	1877.99
835.73	1839.08
835.90	2031.58
836.07	1785.83
836.24	2007.01
836.41	1882.08
836.58	1875.94
836.75	2039.78
836.92	2027.49
837.09	1865.70
837.26	2023.39
837.43	1959.91
837.60	2035.68
837.77	1937.38
837.94	2031.58
838.12	2068.45
838.29	1939.43
838.46	1884.13
838.63	1859.56
838.80	2004.96
838.97	1980.39
839.14	1961.95
839.31	1888.23
839.48	2047.97
839.65	1925.09
839.82	1982.43
839.99	1986.53
840.16	1939.43
840.33	1888.23
840.50	1998.82
840.67	1886.18
840.84	1810.40
841.01	2017.25
841.18	1845.22
841.35	1837.03
841.52	1980.39
841.69	2047.97
841.86	1880.04
842.03	1929.19
842.20	2082.78
842.37	1941.47
842.54	1941.47
842.71	1943.52
842.88	1882.08
843.05	2021.35
843.22	1877.99
843.39	1974.24
843.56	1927.14
843.73	1949.67
843.90	1927.14
844.07	1888.23
844.24	2095.07
844.41	2054.11
844.58	1904.61
844.75	1968.10
844.92	2043.87
845.09	2015.20
845.26	1822.69
845.43	1998.82
845.60	1947.62
845.77	2054.11
845.94	1949.67
846.10	2015.20
846.27	1841.12
846.44	1812.45
846.61	1927.14
846.78	1961.95
846.95	1996.77
847.12	2000.87
847.29	1920.99
847.46	1898.47
847.63	2027.49
847.80	1845.22
847.97	1890.28
848.14	2090.98
848.31	1961.95
848.48	1884.13
848.65	2054.11
848.82	1904.61
848.98	2215.90
849.15	2021.35
849.32	2047.97
849.49	1968.10
849.66	1900.52
849.83	1966.05
850.00	1892.32
850.17	1955.81
850.34	1920.99
850.51	1894.37
850.68	1935.33
850.85	2050.02
851.01	1992.67
851.18	2011.11
851.35	1941.47
851.52	2037.73
851.69	1959.91
851.86	1869.80
852.03	1896.42
852.20	1959.91
852.37	1951.71
852.53	1875.94
852.70	1927.14
852.87	2000.87
853.04	2013.15
853.21	1923.04
853.38	1992.67
853.55	2052.06
853.72	2027.49
853.89	1900.52
854.05	1884.13
854.22	1910.75
854.39	1935.33
854.56	1949.67
854.73	2027.49
854.90	1880.04
855.07	1980.39
855.23	1880.04
855.40	1947.62
855.57	1894.37
855.74	1794.02
855.91	2144.22
856.08	1906.66
856.25	1959.91
856.41	1918.95
856.58	1949.67
856.75	1916.90
856.92	1861.60
857.09	2009.06
857.26	1853.41
857.42	1918.95
857.59	2039.78
857.76	1918.95
857.93	1959.91
858.10	2041.82
858.27	1861.60
858.43	1949.67
858.60	1832.93
858.77	1822.69
858.94	1865.70
859.11	2086.88
859.27	2027.49
859.44	2002.91
859.61	2125.79
859.78	2011.11
859.95	1929.19
860.12	1982.43
860.28	2066.40
860.45	2002.91
860.62	1886.18
860.79	1996.77
860.95	1974.24
861.12	1964.00
861.29	1920.99
861.46	1916.90
861.63	1916.90
861.79	1894.37
861.96	1935.33
862.13	1892.32
862.30	2117.60
862.47	1953.76
862.63	1828.84
862.80	2066.40
862.97	2047.97
863.14	1941.47
863.30	1998.82
863.47	1882.08
863.64	2086.88
863.81	2007.01
863.97	1912.80
864.14	1943.52
864.31	1910.75
864.48	2011.11
864.65	1941.47
864.81	1920.99
864.98	2015.20
865.15	1968.10
865.32	2039.78
865.48	2002.91
865.65	2013.15
865.82	1935.33
865.98	2050.02
866.15	2027.49
866.32	1920.99
866.49	1912.80
866.65	2058.21
866.82	1789.92
866.99	1955.81
867.16	1961.95
867.32	1894.37
867.49	1908.71
867.66	1990.63
867.83	1945.57
867.99	1900.52
868.16	1980.39
868.33	1861.60
868.49	1939.43
868.66	1949.67
868.83	2000.87
868.99	1906.66
869.16	1951.71
869.33	2084.83
869.50	2076.64
869.66	1966.05
869.83	2017.25
870.00	1849.32
870.16	1914.85
870.33	1900.52
870.50	2072.54
870.66	1945.57
870.83	2064.35
871.00	1980.39
871.17	2068.45
871.33	2015.20
871.50	1927.14
871.67	1986.53
871.83	1912.80
872.00	2142.18
872.17	2025.44
872.33	2058.21
872.50	2037.73
872.67	1961.95
872.83	1920.99
873.00	1972.19
873.17	1990.63
873.33	1970.15
873.50	1992.67
873.67	1882.08
873.83	1910.75
874.00	1951.71
874.16	2023.39
874.33	1935.33
874.50	1830.88
874.66	1974.24
874.83	1912.80
875.00	1982.43
875.16	2035.68
875.33	2021.35
875.50	1853.41
875.66	1931.23
875.83	1959.91
875.99	1937.38
876.16	1916.90
876.33	1923.04
876.49	1925.09
876.66	2045.92
876.83	1949.67
876.99	1859.56
877.16	1914.85
877.32	1880.04
877.49	1918.95
877.66	1920.99
877.82	1988.58
877.99	1955.81
878.15	2060.26
878.32	1961.95
878.49	1986.53
878.65	1927.14
878.82	2082.78
878.98	1918.95
879.15	1998.82
879.32	1988.58
879.48	1947.62
879.65	2037.73
879.81	1910.75
879.98	1935.33
880.15	1920.99
880.31	1988.58
880.48	1908.71
880.64	1937.38
880.81	2021.35
880.97	2080.74
881.14	2000.87
881.31	1943.52
881.47	2142.18
881.64	1959.91
881.80	1863.65
881.97	1959.91
882.13	1935.33
882.30	1923.04
882.47	1945.57
882.63	1857.51
882.80	1894.37
882.96	1918.95
883.13	2058.21
883.29	1912.80
883.46	1966.05
883.62	2125.79
883.79	1990.63
883.95	1998.82
884.12	1910.75
884.29	1933.28
884.45	1900.52
884.62	1894.37
884.78	1880.04
884.95	2066.40
885.11	1947.62
885.28	1964.00
885.44	1888.23
885.61	2025.44
885.77	2099.17
885.94	2000.87
886.10	1931.23
886.27	1900.52
886.43	2025.44
886.60	2054.11
886.76	1941.47
886.93	1890.28
887.09	1968.10
887.26	1880.04
887.42	1894.37
887.59	2019.30
887.75	2060.26
887.92	1970.15
888.08	2043.87
888.25	2033.63
888.41	2011.11
888.58	1941.47
888.74	1912.80
888.91	1933.28
>>>>>End Processed Spectral Data<<<<<
