SpectraSuite Data File
++++++++++++++++++++++++++++++++++++
Date: Wed May 04 22:45:26 CEST 2016
User: root
Dark Spectrum Present: No
Reference Spectrum Present: No
Number of Sampled Component Spectra: 1
Spectrometers: USB4C02835
Integration Time (usec): 100000 (USB4C02835)
Spectra Averaged: 1 (USB4C02835)
Boxcar Smoothing: 0 (USB4C02835)
Correct for Electrical Dark: No (USB4C02835)
Strobe/Lamp Enabled: No (USB4C02835)
Correct for Detector Non-linearity: No (USB4C02835)
Correct for Stray Light: No (USB4C02835)
Number of Pixels in Processed Spectrum: 3648
>>>>>Begin Processed Spectral Data<<<<<
177.47	1656.81
177.69	1656.81
177.91	1656.81
178.13	1597.42
178.36	1660.90
178.58	1847.27
178.80	1943.52
179.02	1929.19
179.24	1939.43
179.46	1968.10
179.68	1910.75
179.90	1949.67
180.13	2031.58
180.35	1933.28
180.57	1988.58
180.79	2023.39
181.01	1884.13
181.23	2054.11
181.45	2025.44
181.67	1964.00
181.90	2052.06
182.12	1865.70
182.34	1863.65
182.56	1998.82
182.78	2019.30
183.00	1988.58
183.22	1955.81
183.44	1843.17
183.66	2170.85
183.89	2023.39
184.11	1976.29
184.33	1976.29
184.55	2004.96
184.77	1900.52
184.99	1976.29
185.21	1906.66
185.43	2136.03
185.65	1931.23
185.87	1927.14
186.10	2146.27
186.32	2148.32
186.54	2043.87
186.76	1912.80
186.98	2004.96
187.20	1980.39
187.42	1906.66
187.64	1906.66
187.86	2045.92
188.08	1976.29
188.30	1957.86
188.52	1947.62
188.75	2054.11
188.97	2007.01
189.19	1882.08
189.41	1988.58
189.63	2009.06
189.85	1886.18
190.07	1818.60
190.29	1873.89
190.51	2033.63
190.73	1855.46
190.95	2031.58
191.17	1945.57
191.39	1933.28
191.61	2021.35
191.84	1894.37
192.06	1990.63
192.28	1859.56
192.50	2203.61
192.72	1990.63
192.94	1892.32
193.16	2068.45
193.38	1992.67
193.60	1845.22
193.82	1896.42
194.04	1998.82
194.26	2043.87
194.48	1861.60
194.70	1966.05
194.92	1961.95
195.14	2021.35
195.36	1927.14
195.58	1904.61
195.80	2023.39
196.02	1892.32
196.24	1900.52
196.46	1980.39
196.69	1947.62
196.91	2140.13
197.13	1884.13
197.35	1908.71
197.57	2144.22
197.79	2011.11
198.01	1990.63
198.23	1996.77
198.45	2000.87
198.67	1908.71
198.89	1914.85
199.11	2037.73
199.33	1947.62
199.55	1732.58
199.77	1947.62
199.99	1976.29
200.21	1974.24
200.43	1978.34
200.65	1832.93
200.87	1781.73
201.09	1974.24
201.31	1955.81
201.53	1955.81
201.75	2007.01
201.97	2000.87
202.19	1947.62
202.41	2023.39
202.63	2131.94
202.85	1998.82
203.07	1951.71
203.29	1908.71
203.51	1898.47
203.73	1898.47
203.95	2211.81
204.17	1986.53
204.39	1949.67
204.61	1908.71
204.83	1884.13
205.05	2027.49
205.27	1949.67
205.49	2156.51
205.71	1982.43
205.93	1884.13
206.15	1935.33
206.37	1937.38
206.59	1923.04
206.81	1845.22
207.03	1798.12
207.25	1931.23
207.47	2009.06
207.69	1945.57
207.91	2029.54
208.13	2107.36
208.34	1859.56
208.56	1882.08
208.78	1988.58
209.00	1920.99
209.22	1978.34
209.44	1961.95
209.66	1859.56
209.88	1961.95
210.10	1918.95
210.32	1953.76
210.54	2043.87
210.76	1980.39
210.98	2052.06
211.20	1763.30
211.42	1986.53
211.64	1941.47
211.86	1939.43
212.08	1929.19
212.30	1976.29
212.52	1974.24
212.74	1918.95
212.96	1980.39
213.17	2027.49
213.39	2019.30
213.61	2191.33
213.83	1955.81
214.05	1888.23
214.27	2074.59
214.49	1871.84
214.71	1918.95
214.93	2068.45
215.15	1976.29
215.37	2009.06
215.59	1871.84
215.81	1943.52
216.03	2121.70
216.24	1957.86
216.46	1908.71
216.68	1939.43
216.90	2027.49
217.12	2074.59
217.34	1914.85
217.56	1957.86
217.78	2031.58
218.00	1943.52
218.22	1964.00
218.44	1970.15
218.66	1937.38
218.87	2054.11
219.09	1849.32
219.31	2013.15
219.53	1918.95
219.75	1888.23
219.97	1861.60
220.19	1912.80
220.41	1877.99
220.63	1986.53
220.85	1906.66
221.06	1959.91
221.28	2029.54
221.50	2041.82
221.72	1951.71
221.94	1869.80
222.16	2013.15
222.38	2041.82
222.60	2009.06
222.82	1941.47
223.03	2004.96
223.25	1873.89
223.47	1959.91
223.69	2095.07
223.91	2033.63
224.13	1980.39
224.35	1929.19
224.57	2041.82
224.78	1966.05
225.00	1918.95
225.22	1931.23
225.44	1945.57
225.66	2035.68
225.88	1927.14
226.10	1982.43
226.32	2015.20
226.53	2133.98
226.75	1863.65
226.97	1908.71
227.19	1939.43
227.41	1949.67
227.63	1877.99
227.85	1865.70
228.06	1935.33
228.28	1982.43
228.50	2011.11
228.72	1857.51
228.94	1918.95
229.16	1898.47
229.37	1865.70
229.59	1834.98
229.81	2019.30
230.03	2039.78
230.25	1861.60
230.47	1880.04
230.69	1871.84
230.90	1943.52
231.12	1959.91
231.34	1964.00
231.56	1955.81
231.78	1882.08
232.00	1949.67
232.21	1871.84
232.43	1908.71
232.65	1875.94
232.87	2000.87
233.09	1935.33
233.30	1820.64
233.52	2078.69
233.74	1964.00
233.96	1941.47
234.18	1986.53
234.40	2007.01
234.61	2146.27
234.83	1863.65
235.05	1789.92
235.27	2054.11
235.49	1914.85
235.70	1978.34
235.92	2015.20
236.14	1990.63
236.36	2222.05
236.58	1847.27
236.79	2029.54
237.01	2004.96
237.23	1998.82
237.45	2129.89
237.67	1892.32
237.88	1949.67
238.10	2125.79
238.32	1828.84
238.54	1904.61
238.76	1853.41
238.97	1849.32
239.19	1939.43
239.41	2033.63
239.63	2017.25
239.85	1880.04
240.06	1912.80
240.28	1966.05
240.50	1968.10
240.72	1945.57
240.93	1894.37
241.15	1998.82
241.37	1943.52
241.59	2043.87
241.81	1877.99
242.02	1945.57
242.24	2037.73
242.46	2004.96
242.68	1853.41
242.89	1949.67
243.11	1992.67
243.33	1964.00
243.55	1984.48
243.76	2045.92
243.98	1984.48
244.20	1968.10
244.42	1957.86
244.64	1857.51
244.85	1908.71
245.07	1896.42
245.29	1920.99
245.51	1884.13
245.72	2027.49
245.94	2103.26
246.16	1957.86
246.38	1947.62
246.59	1871.84
246.81	1920.99
247.03	1927.14
247.24	1894.37
247.46	1853.41
247.68	1953.76
247.90	1968.10
248.11	1941.47
248.33	2015.20
248.55	1992.67
248.77	1925.09
248.98	2015.20
249.20	2031.58
249.42	1957.86
249.64	2000.87
249.85	1914.85
250.07	1884.13
250.29	2080.74
250.50	2011.11
250.72	1961.95
250.94	2029.54
251.16	2205.66
251.37	1970.15
251.59	2007.01
251.81	2009.06
252.02	2129.89
252.24	1933.28
252.46	1990.63
252.68	1900.52
252.89	1992.67
253.11	1814.50
253.33	2019.30
253.54	2050.02
253.76	1931.23
253.98	1890.28
254.20	1945.57
254.41	1804.26
254.63	1941.47
254.85	1851.36
255.06	1894.37
255.28	1994.72
255.50	1931.23
255.71	1863.65
255.93	1898.47
256.15	1976.29
256.36	1968.10
256.58	1890.28
256.80	1970.15
257.02	1839.08
257.23	1986.53
257.45	1951.71
257.67	1986.53
257.88	1982.43
258.10	2015.20
258.32	1949.67
258.53	1970.15
258.75	2095.07
258.97	1859.56
259.18	1892.32
259.40	1927.14
259.62	2015.20
259.83	2045.92
260.05	2054.11
260.27	2220.00
260.48	2033.63
260.70	1916.90
260.92	1941.47
261.13	1886.18
261.35	1959.91
261.57	1943.52
261.78	1824.74
262.00	1812.45
262.22	1898.47
262.43	1894.37
262.65	1877.99
262.86	1927.14
263.08	2166.75
263.30	1970.15
263.51	1822.69
263.73	1873.89
263.95	2088.93
264.16	1847.27
264.38	1906.66
264.60	1949.67
264.81	1951.71
265.03	2039.78
265.25	2080.74
265.46	1867.75
265.68	2052.06
265.89	2033.63
266.11	1828.84
266.33	2021.35
266.54	2025.44
266.76	2015.20
266.98	1918.95
267.19	2037.73
267.41	1998.82
267.62	1933.28
267.84	1857.51
268.06	1943.52
268.27	2050.02
268.49	1953.76
268.70	2047.97
268.92	2019.30
269.14	1841.12
269.35	1822.69
269.57	1982.43
269.79	1918.95
270.00	1920.99
270.22	2117.60
270.43	1828.84
270.65	1742.82
270.87	1933.28
271.08	1992.67
271.30	1961.95
271.51	1986.53
271.73	2070.50
271.95	1974.24
272.16	1914.85
272.38	1933.28
272.59	1886.18
272.81	2015.20
273.02	1959.91
273.24	1937.38
273.46	2015.20
273.67	1806.31
273.89	1902.56
274.10	1884.13
274.32	2047.97
274.54	2002.91
274.75	1980.39
274.97	1957.86
275.18	1980.39
275.40	1916.90
275.61	1918.95
275.83	2007.01
276.05	1902.56
276.26	2025.44
276.48	1972.19
276.69	1976.29
276.91	1927.14
277.12	1972.19
277.34	2015.20
277.55	2011.11
277.77	1918.95
277.99	1914.85
278.20	1923.04
278.42	1843.17
278.63	1916.90
278.85	1877.99
279.06	1832.93
279.28	1992.67
279.49	1978.34
279.71	2019.30
279.93	2009.06
280.14	1947.62
280.36	1910.75
280.57	2015.20
280.79	2000.87
281.00	1857.51
281.22	1914.85
281.43	2011.11
281.65	1773.54
281.86	1968.10
282.08	2043.87
282.29	2181.09
282.51	1806.31
282.73	1863.65
282.94	1900.52
283.16	2050.02
283.37	2103.26
283.59	1955.81
283.80	1982.43
284.02	1988.58
284.23	1947.62
284.45	1933.28
284.66	1877.99
284.88	1894.37
285.09	2007.01
285.31	2037.73
285.52	2029.54
285.74	1824.74
285.95	1966.05
286.17	1972.19
286.38	2041.82
286.60	1914.85
286.81	1941.47
287.03	1902.56
287.24	1953.76
287.46	2027.49
287.67	2009.06
287.89	2080.74
288.10	1853.41
288.32	2002.91
288.53	2045.92
288.75	1994.72
288.96	1970.15
289.18	1896.42
289.39	1910.75
289.61	2047.97
289.82	2070.50
290.04	2107.36
290.25	1873.89
290.47	1978.34
290.68	1914.85
290.90	2037.73
291.11	1798.12
291.33	2031.58
291.54	1822.69
291.76	1929.19
291.97	1978.34
292.18	1941.47
292.40	1959.91
292.61	1849.32
292.83	2101.22
293.04	1976.29
293.26	1974.24
293.47	1953.76
293.69	1886.18
293.90	1906.66
294.12	2074.59
294.33	1943.52
294.55	1865.70
294.76	2035.68
294.97	2037.73
295.19	2170.85
295.40	1931.23
295.62	2041.82
295.83	1984.48
296.05	1869.80
296.26	1980.39
296.48	1923.04
296.69	1839.08
296.90	1900.52
297.12	2054.11
297.33	2041.82
297.55	1904.61
297.76	1964.00
297.98	2007.01
298.19	1980.39
298.41	1974.24
298.62	1884.13
298.83	1986.53
299.05	1953.76
299.26	1937.38
299.48	1931.23
299.69	2004.96
299.90	1949.67
300.12	1914.85
300.33	1980.39
300.55	1959.91
300.76	1951.71
300.98	1894.37
301.19	2004.96
301.40	1912.80
301.62	1943.52
301.83	2019.30
302.05	1925.09
302.26	1976.29
302.47	1925.09
302.69	1863.65
302.90	1955.81
303.12	1851.36
303.33	2027.49
303.54	2070.50
303.76	1920.99
303.97	1914.85
304.19	2029.54
304.40	1880.04
304.61	2004.96
304.83	2070.50
305.04	1959.91
305.26	2047.97
305.47	1972.19
305.68	1941.47
305.90	1853.41
306.11	2039.78
306.33	1992.67
306.54	1920.99
306.75	1953.76
306.97	1847.27
307.18	1910.75
307.39	1947.62
307.61	2045.92
307.82	1933.28
308.04	1941.47
308.25	1894.37
308.46	1953.76
308.68	1970.15
308.89	2002.91
309.10	2074.59
309.32	2000.87
309.53	2015.20
309.74	2072.54
309.96	1906.66
310.17	2109.41
310.39	1920.99
310.60	2000.87
310.81	1974.24
311.03	1920.99
311.24	2004.96
311.45	1935.33
311.67	2117.60
311.88	1931.23
312.09	1939.43
312.31	1939.43
312.52	1855.46
312.73	1853.41
312.95	1779.68
313.16	1880.04
313.37	2111.46
313.59	1972.19
313.80	2050.02
314.01	2054.11
314.23	2007.01
314.44	1908.71
314.65	1898.47
314.87	1861.60
315.08	2009.06
315.29	1918.95
315.51	1853.41
315.72	1929.19
315.93	2017.25
316.15	2013.15
316.36	1982.43
316.57	1925.09
316.79	1949.67
317.00	1947.62
317.21	2058.21
317.43	1855.46
317.64	1972.19
317.85	1992.67
318.07	1902.56
318.28	1994.72
318.49	2138.08
318.70	2238.43
318.92	2095.07
319.13	2125.79
319.34	2125.79
319.56	2060.26
319.77	2140.13
319.98	2084.83
320.20	2127.84
320.41	2060.26
320.62	2023.39
320.83	1951.71
321.05	2090.98
321.26	2035.68
321.47	1908.71
321.69	2093.02
321.90	1869.80
322.11	1912.80
322.32	1998.82
322.54	2090.98
322.75	1910.75
322.96	2158.56
323.18	1888.23
323.39	1814.50
323.60	1851.36
323.81	2025.44
324.03	1941.47
324.24	2011.11
324.45	1998.82
324.66	1898.47
324.88	1945.57
325.09	2052.06
325.30	1873.89
325.52	1992.67
325.73	1920.99
325.94	1914.85
326.15	1845.22
326.37	1904.61
326.58	1955.81
326.79	1996.77
327.00	1859.56
327.22	1990.63
327.43	1906.66
327.64	1902.56
327.85	1923.04
328.07	2015.20
328.28	2052.06
328.49	1908.71
328.70	1937.38
328.92	2025.44
329.13	1990.63
329.34	1976.29
329.55	2058.21
329.76	2033.63
329.98	1875.94
330.19	1955.81
330.40	1994.72
330.61	1908.71
330.83	1970.15
331.04	1918.95
331.25	1968.10
331.46	1939.43
331.68	1865.70
331.89	2041.82
332.10	1959.91
332.31	1832.93
332.52	1910.75
332.74	1984.48
332.95	1941.47
333.16	1957.86
333.37	2033.63
333.58	1951.71
333.80	1937.38
334.01	1834.98
334.22	1945.57
334.43	1886.18
334.64	1923.04
334.86	1859.56
335.07	1845.22
335.28	2088.93
335.49	1853.41
335.70	2011.11
335.92	2039.78
336.13	2041.82
336.34	2043.87
336.55	2066.40
336.76	1966.05
336.98	1839.08
337.19	1941.47
337.40	1937.38
337.61	2082.78
337.82	1841.12
338.04	2066.40
338.25	1873.89
338.46	1877.99
338.67	1964.00
338.88	1884.13
339.09	1896.42
339.31	1888.23
339.52	1908.71
339.73	1857.51
339.94	1951.71
340.15	2021.35
340.36	1882.08
340.58	1961.95
340.79	1894.37
341.00	1990.63
341.21	1822.69
341.42	2113.50
341.63	1849.32
341.85	2021.35
342.06	1873.89
342.27	1916.90
342.48	2000.87
342.69	1867.75
342.90	2099.17
343.12	2068.45
343.33	1935.33
343.54	1937.38
343.75	2029.54
343.96	1933.28
344.17	1857.51
344.38	1937.38
344.60	1980.39
344.81	1894.37
345.02	1920.99
345.23	2023.39
345.44	2160.61
345.65	2004.96
345.86	2052.06
346.07	2035.68
346.29	1857.51
346.50	1992.67
346.71	1927.14
346.92	2107.36
347.13	2166.75
347.34	1904.61
347.55	1988.58
347.76	1980.39
347.98	1810.40
348.19	1957.86
348.40	2043.87
348.61	1992.67
348.82	2109.41
349.03	2000.87
349.24	1914.85
349.45	2058.21
349.66	1865.70
349.88	1964.00
350.09	1949.67
350.30	2062.30
350.51	2060.26
350.72	1951.71
350.93	1986.53
351.14	1996.77
351.35	1961.95
351.56	1970.15
351.77	1974.24
351.99	1974.24
352.20	2076.64
352.41	1978.34
352.62	1843.17
352.83	1953.76
353.04	1974.24
353.25	1945.57
353.46	2060.26
353.67	1925.09
353.88	1904.61
354.09	1918.95
354.30	1933.28
354.52	2054.11
354.73	2011.11
354.94	1865.70
355.15	1961.95
355.36	2101.22
355.57	1812.45
355.78	1949.67
355.99	1908.71
356.20	1945.57
356.41	2107.36
356.62	1869.80
356.83	1953.76
357.04	2007.01
357.25	1810.40
357.46	1882.08
357.68	1884.13
357.89	1861.60
358.10	1951.71
358.31	1877.99
358.52	1941.47
358.73	1886.18
358.94	1873.89
359.15	1918.95
359.36	2002.91
359.57	1949.67
359.78	1884.13
359.99	1947.62
360.20	1892.32
360.41	2023.39
360.62	2011.11
360.83	1986.53
361.04	2027.49
361.25	2060.26
361.46	2031.58
361.67	2004.96
361.88	2021.35
362.09	1998.82
362.30	1961.95
362.51	2004.96
362.72	1961.95
362.93	2058.21
363.14	2062.30
363.35	2007.01
363.56	1877.99
363.78	2045.92
363.99	2078.69
364.20	1988.58
364.41	1896.42
364.62	2136.03
364.83	2002.91
365.04	1894.37
365.25	1884.13
365.46	2166.75
365.67	1925.09
365.88	1964.00
366.09	1861.60
366.30	1902.56
366.51	1988.58
366.72	1900.52
366.93	1943.52
367.14	2000.87
367.35	2066.40
367.56	1906.66
367.77	2150.37
367.98	1925.09
368.18	1988.58
368.39	1964.00
368.60	1894.37
368.81	2027.49
369.02	2015.20
369.23	1884.13
369.44	1888.23
369.65	1937.38
369.86	2011.11
370.07	2017.25
370.28	1888.23
370.49	2031.58
370.70	2064.35
370.91	1912.80
371.12	1861.60
371.33	2090.98
371.54	1925.09
371.75	2084.83
371.96	1804.26
372.17	1953.76
372.38	1927.14
372.59	2021.35
372.80	1931.23
373.01	1955.81
373.22	1937.38
373.43	1992.67
373.64	1886.18
373.85	2011.11
374.06	2131.94
374.26	2039.78
374.47	1951.71
374.68	2050.02
374.89	1939.43
375.10	1949.67
375.31	2011.11
375.52	1890.28
375.73	2009.06
375.94	1906.66
376.15	2041.82
376.36	1841.12
376.57	1918.95
376.78	1953.76
376.99	1992.67
377.20	2033.63
377.40	1961.95
377.61	2074.59
377.82	1964.00
378.03	2070.50
378.24	1974.24
378.45	1931.23
378.66	1990.63
378.87	1837.03
379.08	1849.32
379.29	1972.19
379.50	1968.10
379.71	1900.52
379.91	2088.93
380.12	1851.36
380.33	1970.15
380.54	1892.32
380.75	1925.09
380.96	2017.25
381.17	2017.25
381.38	1935.33
381.59	2009.06
381.80	2033.63
382.00	2193.37
382.21	2064.35
382.42	2113.50
382.63	2199.52
382.84	2015.20
383.05	2039.78
383.26	2127.84
383.47	1992.67
383.68	2007.01
383.88	2000.87
384.09	1923.04
384.30	2047.97
384.51	1992.67
384.72	1923.04
384.93	1849.32
385.14	2013.15
385.35	2064.35
385.55	1945.57
385.76	2062.30
385.97	1947.62
386.18	1933.28
386.39	2041.82
386.60	1935.33
386.81	1943.52
387.02	1892.32
387.22	1898.47
387.43	2023.39
387.64	2086.88
387.85	2138.08
388.06	2174.94
388.27	3942.34
388.48	8693.63
388.68	12322.63
388.89	14651.17
389.10	15693.58
389.31	14327.59
389.52	11312.98
389.73	9715.56
389.93	8703.87
390.14	8017.80
390.35	7227.28
390.56	6596.51
390.77	5300.14
390.98	4110.27
391.18	3248.08
391.39	2521.05
391.60	2203.61
391.81	2140.13
392.02	1920.99
392.23	2224.09
392.43	2023.39
392.64	2103.26
392.85	2060.26
393.06	2050.02
393.27	1951.71
393.47	1970.15
393.68	1990.63
393.89	2017.25
394.10	2097.12
394.31	1863.65
394.52	1871.84
394.72	1945.57
394.93	2070.50
395.14	1857.51
395.35	1996.77
395.56	1898.47
395.76	1957.86
395.97	1998.82
396.18	2176.99
396.39	2127.84
396.60	2312.16
396.80	2207.71
397.01	2162.66
397.22	2119.65
397.43	2152.42
397.64	1966.05
397.84	2007.01
398.05	2168.80
398.26	1927.14
398.47	2052.06
398.67	2041.82
398.88	1966.05
399.09	2027.49
399.30	1968.10
399.51	2009.06
399.71	1894.37
399.92	1929.19
400.13	2029.54
400.34	1980.39
400.54	1972.19
400.75	2160.61
400.96	1980.39
401.17	2131.94
401.37	2054.11
401.58	1953.76
401.79	1929.19
402.00	2133.98
402.21	2244.57
402.41	2328.54
402.62	2318.30
402.83	2400.22
403.04	2445.27
403.24	2447.32
403.45	2148.32
403.66	2273.25
403.87	2138.08
404.07	2179.04
404.28	2267.10
404.49	2168.80
404.70	2078.69
404.90	2066.40
405.11	1972.19
405.32	2019.30
405.52	1886.18
405.73	1935.33
405.94	1937.38
406.15	1972.19
406.35	2080.74
406.56	2088.93
406.77	2017.25
406.98	1959.91
407.18	1900.52
407.39	2062.30
407.60	1951.71
407.80	2017.25
408.01	1886.18
408.22	2017.25
408.43	1955.81
408.63	1970.15
408.84	2004.96
409.05	1966.05
409.25	1949.67
409.46	1959.91
409.67	1880.04
409.88	1908.71
410.08	1943.52
410.29	1869.80
410.50	1980.39
410.70	1894.37
410.91	1886.18
411.12	2004.96
411.32	2033.63
411.53	1902.56
411.74	2127.84
411.95	2101.22
412.15	1988.58
412.36	2097.12
412.57	2019.30
412.77	2027.49
412.98	2023.39
413.19	1929.19
413.39	2056.16
413.60	1990.63
413.81	2162.66
414.01	1908.71
414.22	2004.96
414.43	1986.53
414.63	2013.15
414.84	2041.82
415.05	2027.49
415.25	1867.75
415.46	2017.25
415.67	2017.25
415.87	2031.58
416.08	1949.67
416.29	1918.95
416.49	1896.42
416.70	1947.62
416.91	1912.80
417.11	1970.15
417.32	2062.30
417.53	2013.15
417.73	1947.62
417.94	2035.68
418.15	1939.43
418.35	1976.29
418.56	1968.10
418.77	2078.69
418.97	1978.34
419.18	1929.19
419.38	1791.97
419.59	1957.86
419.80	2060.26
420.00	1937.38
420.21	1941.47
420.42	2086.88
420.62	1996.77
420.83	1857.51
421.04	1882.08
421.24	1900.52
421.45	1990.63
421.65	1935.33
421.86	1929.19
422.07	2050.02
422.27	2021.35
422.48	1996.77
422.69	1894.37
422.89	1992.67
423.10	1964.00
423.30	1822.69
423.51	1970.15
423.72	1988.58
423.92	1978.34
424.13	1857.51
424.33	1966.05
424.54	2025.44
424.75	1982.43
424.95	2181.09
425.16	1986.53
425.36	1980.39
425.57	2064.35
425.78	2004.96
425.98	2025.44
426.19	1920.99
426.39	1869.80
426.60	1984.48
426.81	2062.30
427.01	1966.05
427.22	1888.23
427.42	1877.99
427.63	1937.38
427.83	2031.58
428.04	2082.78
428.25	2039.78
428.45	2043.87
428.66	2043.87
428.86	1931.23
429.07	1943.52
429.28	1992.67
429.48	1996.77
429.69	1947.62
429.89	1978.34
430.10	1886.18
430.30	1984.48
430.51	2011.11
430.71	1908.71
430.92	1931.23
431.13	1959.91
431.33	2074.59
431.54	1990.63
431.74	2070.50
431.95	2088.93
432.15	1896.42
432.36	1947.62
432.56	1998.82
432.77	2115.55
432.98	2150.37
433.18	1927.14
433.39	1931.23
433.59	2002.91
433.80	2117.60
434.00	2168.80
434.21	1880.04
434.41	1918.95
434.62	2150.37
434.82	1896.42
435.03	1966.05
435.23	1982.43
435.44	1830.88
435.64	1996.77
435.85	1980.39
436.06	2031.58
436.26	1957.86
436.47	1914.85
436.67	1902.56
436.88	1959.91
437.08	1988.58
437.29	2062.30
437.49	1933.28
437.70	2119.65
437.90	1964.00
438.11	2097.12
438.31	2080.74
438.52	2181.09
438.72	2156.51
438.93	2234.33
439.13	1996.77
439.34	2138.08
439.54	2056.16
439.75	2099.17
439.95	2117.60
440.16	2056.16
440.36	1923.04
440.57	2041.82
440.77	2078.69
440.98	2041.82
441.18	2021.35
441.39	1972.19
441.59	1859.56
441.80	2056.16
442.00	1953.76
442.21	2127.84
442.41	1992.67
442.62	2029.54
442.82	1898.47
443.02	1988.58
443.23	1943.52
443.43	2013.15
443.64	2107.36
443.84	2007.01
444.05	2119.65
444.25	1970.15
444.46	1972.19
444.66	1964.00
444.87	2052.06
445.07	1869.80
445.28	1986.53
445.48	2119.65
445.69	2009.06
445.89	2172.89
446.09	2062.30
446.30	2250.72
446.50	2682.84
446.71	4175.81
446.91	5351.34
447.12	6201.25
447.32	6602.65
447.53	5990.31
447.73	4906.93
447.93	4417.47
448.14	4032.45
448.34	3774.41
448.55	3477.45
448.75	3446.73
448.96	3125.20
449.16	2869.20
449.36	2660.31
449.57	2318.30
449.77	2160.61
449.98	2029.54
450.18	2033.63
450.39	2076.64
450.59	2070.50
450.79	1986.53
451.00	1886.18
451.20	2076.64
451.41	1994.72
451.61	2045.92
451.81	2002.91
452.02	1925.09
452.22	1916.90
452.43	1994.72
452.63	1871.84
452.84	2013.15
453.04	2002.91
453.24	1931.23
453.45	1892.32
453.65	1953.76
453.86	2009.06
454.06	1980.39
454.26	2039.78
454.47	1931.23
454.67	2136.03
454.87	2060.26
455.08	1988.58
455.28	2115.55
455.49	2029.54
455.69	1925.09
455.89	2176.99
456.10	2021.35
456.30	1984.48
456.51	2060.26
456.71	2054.11
456.91	2023.39
457.12	2043.87
457.32	2045.92
457.52	1843.17
457.73	2002.91
457.93	2060.26
458.14	1939.43
458.34	1886.18
458.54	1988.58
458.75	1875.94
458.95	2021.35
459.15	2004.96
459.36	2064.35
459.56	1990.63
459.76	2125.79
459.97	2002.91
460.17	1982.43
460.37	2113.50
460.58	1939.43
460.78	1959.91
460.99	1941.47
461.19	1984.48
461.39	1935.33
461.60	1970.15
461.80	1998.82
462.00	1925.09
462.21	1947.62
462.41	1867.75
462.61	1957.86
462.82	1794.02
463.02	1970.15
463.22	1949.67
463.43	2023.39
463.63	1912.80
463.83	2105.31
464.04	1994.72
464.24	1988.58
464.44	1955.81
464.64	2004.96
464.85	1918.95
465.05	1986.53
465.25	1998.82
465.46	1900.52
465.66	2013.15
465.86	2009.06
466.07	2054.11
466.27	1941.47
466.47	1884.13
466.68	1828.84
466.88	2068.45
467.08	2019.30
467.29	1984.48
467.49	2009.06
467.69	1914.85
467.89	1970.15
468.10	1914.85
468.30	1964.00
468.50	2144.22
468.71	2103.26
468.91	1906.66
469.11	2115.55
469.31	2013.15
469.52	1941.47
469.72	2074.59
469.92	2215.90
470.13	1994.72
470.33	2009.06
470.53	2058.21
470.73	2383.84
470.94	2879.44
471.14	3041.23
471.34	3289.04
471.54	3301.33
471.75	2938.84
471.95	2623.45
472.15	2557.91
472.36	2543.58
472.56	2373.60
472.76	2435.03
472.96	2381.79
473.17	2301.92
473.37	2285.53
473.57	2007.01
473.77	2121.70
473.98	2009.06
474.18	1884.13
474.38	2154.46
474.58	1964.00
474.79	1955.81
474.99	2013.15
475.19	2007.01
475.39	1863.65
475.60	1998.82
475.80	1980.39
476.00	1906.66
476.20	1896.42
476.41	2009.06
476.61	2054.11
476.81	1988.58
477.01	1961.95
477.21	2125.79
477.42	2041.82
477.62	1822.69
477.82	2025.44
478.02	1957.86
478.23	1972.19
478.43	1882.08
478.63	1970.15
478.83	1937.38
479.03	1910.75
479.24	2129.89
479.44	2107.36
479.64	2031.58
479.84	1882.08
480.04	1920.99
480.25	2007.01
480.45	1916.90
480.65	2000.87
480.85	2076.64
481.06	1998.82
481.26	1957.86
481.46	1982.43
481.66	1976.29
481.86	1890.28
482.06	2050.02
482.27	2019.30
482.47	1904.61
482.67	2025.44
482.87	1943.52
483.07	2082.78
483.28	1925.09
483.48	1880.04
483.68	1935.33
483.88	1851.36
484.08	1767.40
484.29	1908.71
484.49	2072.54
484.69	1898.47
484.89	1955.81
485.09	2041.82
485.29	1976.29
485.50	1984.48
485.70	1966.05
485.90	2097.12
486.10	1998.82
486.30	2019.30
486.50	2080.74
486.71	1957.86
486.91	2021.35
487.11	2066.40
487.31	1933.28
487.51	1943.52
487.71	1877.99
487.91	1957.86
488.12	1902.56
488.32	1718.25
488.52	1890.28
488.72	1824.74
488.92	1974.24
489.12	2068.45
489.32	2115.55
489.53	2084.83
489.73	1816.55
489.93	2027.49
490.13	1986.53
490.33	1894.37
490.53	2039.78
490.73	2013.15
490.94	1781.73
491.14	1955.81
491.34	2109.41
491.54	2342.88
491.74	2965.46
491.94	3516.36
492.14	3827.65
492.34	3952.58
492.54	3602.38
492.75	3016.66
492.95	2897.88
493.15	2750.42
493.35	2641.88
493.55	2580.44
493.75	2443.23
493.95	2484.19
494.15	2346.97
494.35	2113.50
494.56	2039.78
494.76	2000.87
494.96	2035.68
495.16	1994.72
495.36	1966.05
495.56	2011.11
495.76	1947.62
495.96	1970.15
496.16	1925.09
496.36	2117.60
496.56	1957.86
496.77	1951.71
496.97	2011.11
497.17	2129.89
497.37	1832.93
497.57	2025.44
497.77	1972.19
497.97	1931.23
498.17	1912.80
498.37	1900.52
498.57	2029.54
498.77	1996.77
498.97	2033.63
499.17	2150.37
499.38	1974.24
499.58	2062.30
499.78	2011.11
499.98	2088.93
500.18	1935.33
500.38	1949.67
500.58	2140.13
500.78	2660.31
500.98	4784.06
501.18	7167.89
501.38	8841.08
501.58	9709.42
501.78	9553.77
501.98	7679.88
502.18	6367.13
502.38	5414.83
502.58	5021.62
502.78	4394.94
502.98	4270.01
503.18	4104.13
503.38	3672.01
503.59	3323.85
503.79	3082.19
503.99	2826.20
504.19	2670.55
504.39	2621.40
504.59	2760.66
504.79	2703.32
504.99	2619.35
505.19	2361.31
505.39	2201.57
505.59	2363.36
505.79	2271.20
505.99	2234.33
506.19	2121.70
506.39	2285.53
506.59	2031.58
506.79	2002.91
506.99	2086.88
507.19	1980.39
507.39	2074.59
507.59	1918.95
507.79	1898.47
507.99	1951.71
508.19	1996.77
508.39	1970.15
508.59	1994.72
508.79	2099.17
508.99	2201.57
509.19	1920.99
509.39	2050.02
509.59	1884.13
509.79	1976.29
509.99	2019.30
510.19	2029.54
510.39	2056.16
510.59	1982.43
510.79	1986.53
510.99	1947.62
511.19	1941.47
511.39	2125.79
511.59	2031.58
511.79	2086.88
511.99	1943.52
512.19	2142.18
512.38	2019.30
512.58	1927.14
512.78	1920.99
512.98	2121.70
513.18	2086.88
513.38	1775.59
513.58	2004.96
513.78	1980.39
513.98	2013.15
514.18	1916.90
514.38	1933.28
514.58	2019.30
514.78	1937.38
514.98	1916.90
515.18	1978.34
515.38	1912.80
515.58	2105.31
515.78	1982.43
515.98	1935.33
516.18	1996.77
516.38	1976.29
516.57	1910.75
516.77	1906.66
516.97	2019.30
517.17	1920.99
517.37	1882.08
517.57	1972.19
517.77	1933.28
517.97	1937.38
518.17	2041.82
518.37	1923.04
518.57	1906.66
518.77	1943.52
518.97	1957.86
519.16	2045.92
519.36	2097.12
519.56	1947.62
519.76	2009.06
519.96	1990.63
520.16	2101.22
520.36	1818.60
520.56	2031.58
520.76	1920.99
520.96	1943.52
521.16	2037.73
521.35	2078.69
521.55	2039.78
521.75	1996.77
521.95	1964.00
522.15	1931.23
522.35	1918.95
522.55	1861.60
522.75	2105.31
522.95	1945.57
523.14	1861.60
523.34	2043.87
523.54	1941.47
523.74	1996.77
523.94	2029.54
524.14	1818.60
524.34	1986.53
524.54	2078.69
524.73	1900.52
524.93	1976.29
525.13	2031.58
525.33	1961.95
525.53	2172.89
525.73	2068.45
525.93	1939.43
526.13	1941.47
526.32	1908.71
526.52	2076.64
526.72	2009.06
526.92	1994.72
527.12	1931.23
527.32	1828.84
527.52	1931.23
527.71	2070.50
527.91	1998.82
528.11	1927.14
528.31	1990.63
528.51	1927.14
528.71	1990.63
528.90	1945.57
529.10	2025.44
529.30	2045.92
529.50	1828.84
529.70	2041.82
529.90	1964.00
530.09	2045.92
530.29	1916.90
530.49	1871.84
530.69	2148.32
530.89	1996.77
531.09	2060.26
531.28	1920.99
531.48	2058.21
531.68	1978.34
531.88	1984.48
532.08	2029.54
532.28	1972.19
532.47	1996.77
532.67	2131.94
532.87	2103.26
533.07	1882.08
533.27	2072.54
533.46	1994.72
533.66	1968.10
533.86	1873.89
534.06	1980.39
534.26	2052.06
534.45	1939.43
534.65	2133.98
534.85	2037.73
535.05	1861.60
535.25	2099.17
535.44	1916.90
535.64	1966.05
535.84	1980.39
536.04	1951.71
536.24	1912.80
536.43	1914.85
536.63	2007.01
536.83	1970.15
537.03	1941.47
537.22	1896.42
537.42	1820.64
537.62	1990.63
537.82	1943.52
538.02	2088.93
538.21	2023.39
538.41	2160.61
538.61	2054.11
538.81	1953.76
539.00	2023.39
539.20	1873.89
539.40	1902.56
539.60	1994.72
539.79	2009.06
539.99	1935.33
540.19	1998.82
540.39	1970.15
540.58	1937.38
540.78	2035.68
540.98	1976.29
541.18	2050.02
541.37	2123.74
541.57	2011.11
541.77	1996.77
541.97	1871.84
542.16	1937.38
542.36	1978.34
542.56	1886.18
542.76	2090.98
542.95	2023.39
543.15	2000.87
543.35	2056.16
543.54	1941.47
543.74	1976.29
543.94	2041.82
544.14	1957.86
544.33	2025.44
544.53	1918.95
544.73	1970.15
544.93	1959.91
545.12	1996.77
545.32	2068.45
545.52	1933.28
545.71	1984.48
545.91	1867.75
546.11	2039.78
546.30	1966.05
546.50	1937.38
546.70	1992.67
546.90	1951.71
547.09	1857.51
547.29	1982.43
547.49	2050.02
547.68	2013.15
547.88	1867.75
548.08	2058.21
548.27	2473.95
548.47	1961.95
548.67	1949.67
548.87	2009.06
549.06	1949.67
549.26	2007.01
549.46	1994.72
549.65	1914.85
549.85	1996.77
550.05	2060.26
550.24	1937.38
550.44	1961.95
550.64	1916.90
550.83	1959.91
551.03	2066.40
551.23	2031.58
551.42	2025.44
551.62	1972.19
551.82	1947.62
552.01	1980.39
552.21	2088.93
552.41	1929.19
552.60	2013.15
552.80	2007.01
553.00	1961.95
553.19	2037.73
553.39	2043.87
553.59	1851.36
553.78	2058.21
553.98	2017.25
554.17	1966.05
554.37	2052.06
554.57	1890.28
554.76	1943.52
554.96	1841.12
555.16	2039.78
555.35	2009.06
555.55	1982.43
555.75	2011.11
555.94	2017.25
556.14	1843.17
556.33	2033.63
556.53	1961.95
556.73	1994.72
556.92	2021.35
557.12	2050.02
557.32	2168.80
557.51	2037.73
557.71	1955.81
557.90	2123.74
558.10	2095.07
558.30	1933.28
558.49	2007.01
558.69	1859.56
558.88	2023.39
559.08	2033.63
559.28	1964.00
559.47	2029.54
559.67	1951.71
559.86	2156.51
560.06	1937.38
560.26	1959.91
560.45	1920.99
560.65	1992.67
560.84	2117.60
561.04	1923.04
561.24	1986.53
561.43	1884.13
561.63	2056.16
561.82	1996.77
562.02	2027.49
562.22	1929.19
562.41	1947.62
562.61	1976.29
562.80	1861.60
563.00	2195.42
563.19	2002.91
563.39	2062.30
563.59	2029.54
563.78	1894.37
563.98	1800.16
564.17	1974.24
564.37	1873.89
564.56	1984.48
564.76	1916.90
564.96	2097.12
565.15	2054.11
565.35	2117.60
565.54	1966.05
565.74	2052.06
565.93	2056.16
566.13	2017.25
566.32	1996.77
566.52	2041.82
566.71	1968.10
566.91	1994.72
567.11	1955.81
567.30	1890.28
567.50	1988.58
567.69	2035.68
567.89	1980.39
568.08	1892.32
568.28	2019.30
568.47	1951.71
568.67	2043.87
568.86	1982.43
569.06	2037.73
569.25	1937.38
569.45	1910.75
569.64	2033.63
569.84	1964.00
570.04	2052.06
570.23	1966.05
570.43	1888.23
570.62	2064.35
570.82	2121.70
571.01	1959.91
571.21	1974.24
571.40	1882.08
571.60	2084.83
571.79	1953.76
571.99	2043.87
572.18	1834.98
572.38	2017.25
572.57	1941.47
572.77	1980.39
572.96	2140.13
573.16	2097.12
573.35	2021.35
573.55	2097.12
573.74	2080.74
573.94	1904.61
574.13	1982.43
574.33	2072.54
574.52	2109.41
574.71	1968.10
574.91	2109.41
575.10	1871.84
575.30	2058.21
575.49	1900.52
575.69	1961.95
575.88	2060.26
576.08	2064.35
576.27	2138.08
576.47	2103.26
576.66	2197.47
576.86	2215.90
577.05	2033.63
577.25	2082.78
577.44	2240.48
577.64	2031.58
577.83	2068.45
578.02	1998.82
578.22	2119.65
578.41	2181.09
578.61	1933.28
578.80	1964.00
579.00	2002.91
579.19	2043.87
579.39	2035.68
579.58	2078.69
579.77	1988.58
579.97	2144.22
580.16	2064.35
580.36	2113.50
580.55	2152.42
580.75	2107.36
580.94	2013.15
581.13	2127.84
581.33	2150.37
581.52	2052.06
581.72	2193.37
581.91	2199.52
582.11	2058.21
582.30	2080.74
582.49	2017.25
582.69	2142.18
582.88	2090.98
583.08	2072.54
583.27	2064.35
583.47	2076.64
583.66	1914.85
583.85	1961.95
584.05	2072.54
584.24	2088.93
584.44	2011.11
584.63	2129.89
584.82	2254.81
585.02	2172.89
585.21	2099.17
585.41	2179.04
585.60	2125.79
585.79	2338.78
585.99	2238.43
586.18	2158.56
586.37	2531.29
586.57	3995.59
586.76	11968.33
586.96	30629.42
587.15	45032.78
587.34	55129.27
587.54	60759.14
587.73	56896.67
587.93	40652.18
588.12	30383.66
588.31	24043.15
588.51	20829.89
588.70	19259.10
588.89	17452.79
589.09	15597.33
589.28	13293.37
589.47	10856.28
589.67	8781.69
589.86	6678.43
590.06	4825.01
590.25	3827.65
590.44	3112.91
590.64	2693.08
590.83	2408.41
591.02	2271.20
591.22	2111.46
591.41	2158.56
591.60	2056.16
591.80	2238.43
591.99	1998.82
592.18	1984.48
592.38	2064.35
592.57	2029.54
592.76	2021.35
592.96	2068.45
593.15	1988.58
593.34	2027.49
593.54	1945.57
593.73	2117.60
593.92	2007.01
594.12	2039.78
594.31	1996.77
594.50	2152.42
594.70	2023.39
594.89	2240.48
595.08	1892.32
595.28	2121.70
595.47	2295.77
595.66	2004.96
595.86	1890.28
596.05	2004.96
596.24	2009.06
596.43	2131.94
596.63	2080.74
596.82	1974.24
597.01	2080.74
597.21	2170.85
597.40	2066.40
597.59	2076.64
597.79	2041.82
597.98	2070.50
598.17	1998.82
598.36	2052.06
598.56	2013.15
598.75	1957.86
598.94	2021.35
599.14	1982.43
599.33	1951.71
599.52	2088.93
599.71	2011.11
599.91	2093.02
600.10	2103.26
600.29	2090.98
600.48	2023.39
600.68	2007.01
600.87	2072.54
601.06	1916.90
601.26	1994.72
601.45	2078.69
601.64	1968.10
601.83	2097.12
602.03	1939.43
602.22	1888.23
602.41	2095.07
602.60	2189.28
602.80	2029.54
602.99	2084.83
603.18	1935.33
603.37	1937.38
603.57	1978.34
603.76	2064.35
603.95	2045.92
604.14	2017.25
604.34	1898.47
604.53	1914.85
604.72	2013.15
604.91	2090.98
605.10	1939.43
605.30	1916.90
605.49	2187.23
605.68	2013.15
605.87	1998.82
606.07	1902.56
606.26	2007.01
606.45	1980.39
606.64	2013.15
606.84	1988.58
607.03	2047.97
607.22	2062.30
607.41	1912.80
607.60	1959.91
607.80	2097.12
607.99	2054.11
608.18	1986.53
608.37	1976.29
608.56	1935.33
608.76	2142.18
608.95	2160.61
609.14	2043.87
609.33	2181.09
609.52	2144.22
609.72	2148.32
609.91	2095.07
610.10	2111.46
610.29	2160.61
610.48	2097.12
610.68	2068.45
610.87	2000.87
611.06	2021.35
611.25	1990.63
611.44	2058.21
611.63	1966.05
611.83	2146.27
612.02	1894.37
612.21	2148.32
612.40	1847.27
612.59	1908.71
612.79	1880.04
612.98	2039.78
613.17	2131.94
613.36	1941.47
613.55	2138.08
613.74	2115.55
613.93	2242.53
614.13	2127.84
614.32	2291.68
614.51	2230.24
614.70	2211.81
614.89	2035.68
615.08	2068.45
615.28	2465.75
615.47	2047.97
615.66	2088.93
615.85	2009.06
616.04	2230.24
616.23	2021.35
616.42	2009.06
616.62	2045.92
616.81	2045.92
617.00	1953.76
617.19	2103.26
617.38	1961.95
617.57	2000.87
617.76	2099.17
617.95	2025.44
618.15	2080.74
618.34	2209.76
618.53	1939.43
618.72	2099.17
618.91	1988.58
619.10	2082.78
619.29	1996.77
619.48	2023.39
619.68	1933.28
619.87	1996.77
620.06	1923.04
620.25	2029.54
620.44	1945.57
620.63	2023.39
620.82	1986.53
621.01	1998.82
621.20	2004.96
621.39	1980.39
621.59	2041.82
621.78	2035.68
621.97	1955.81
622.16	2033.63
622.35	1970.15
622.54	2099.17
622.73	2062.30
622.92	1859.56
623.11	2043.87
623.30	1953.76
623.49	2082.78
623.68	1970.15
623.88	2002.91
624.07	1947.62
624.26	2000.87
624.45	1968.10
624.64	2017.25
624.83	1943.52
625.02	1978.34
625.21	1947.62
625.40	1992.67
625.59	2117.60
625.78	2041.82
625.97	2035.68
626.16	2154.46
626.35	2166.75
626.54	2045.92
626.74	2193.37
626.93	2029.54
627.12	2023.39
627.31	2037.73
627.50	2050.02
627.69	2029.54
627.88	1953.76
628.07	1964.00
628.26	1890.28
628.45	1976.29
628.64	1912.80
628.83	2023.39
629.02	1890.28
629.21	2109.41
629.40	1961.95
629.59	1873.89
629.78	1929.19
629.97	2025.44
630.16	2029.54
630.35	1982.43
630.54	2050.02
630.73	1990.63
630.92	1986.53
631.11	1955.81
631.30	1972.19
631.49	2082.78
631.68	1906.66
631.87	2037.73
632.06	1910.75
632.25	2217.95
632.44	2009.06
632.63	2074.59
632.82	2021.35
633.01	2037.73
633.20	2066.40
633.39	2074.59
633.58	1957.86
633.77	1990.63
633.96	2125.79
634.15	2078.69
634.34	2031.58
634.53	2029.54
634.72	2009.06
634.91	1857.51
635.10	2037.73
635.29	2047.97
635.48	2060.26
635.67	1955.81
635.86	1900.52
636.05	2062.30
636.24	2027.49
636.43	1882.08
636.62	1920.99
636.81	1794.02
637.00	1998.82
637.19	1990.63
637.38	2017.25
637.57	1953.76
637.76	2011.11
637.95	2082.78
638.14	1996.77
638.33	2160.61
638.52	2183.13
638.71	1906.66
638.89	1910.75
639.08	2250.72
639.27	2148.32
639.46	2199.52
639.65	2562.01
639.84	2703.32
640.03	2867.16
640.22	2705.37
640.41	2736.09
640.60	2344.92
640.79	2306.01
640.98	2267.10
641.17	2211.81
641.36	2301.92
641.55	2181.09
641.74	1982.43
641.92	1964.00
642.11	2002.91
642.30	2033.63
642.49	1957.86
642.68	1906.66
642.87	2039.78
643.06	2023.39
643.25	1951.71
643.44	1945.57
643.63	2011.11
643.82	2064.35
644.00	1906.66
644.19	1961.95
644.38	1937.38
644.57	2041.82
644.76	2037.73
644.95	2004.96
645.14	1986.53
645.33	1984.48
645.52	1984.48
645.71	1910.75
645.89	1904.61
646.08	1959.91
646.27	2002.91
646.46	2093.02
646.65	1927.14
646.84	1986.53
647.03	1925.09
647.22	1966.05
647.40	2015.20
647.59	1976.29
647.78	1890.28
647.97	1890.28
648.16	1877.99
648.35	2127.84
648.54	2095.07
648.73	1945.57
648.91	2080.74
649.10	1986.53
649.29	1955.81
649.48	1900.52
649.67	1990.63
649.86	1996.77
650.05	2031.58
650.23	2201.57
650.42	2088.93
650.61	2279.39
650.80	2203.61
650.99	2232.29
651.18	2179.04
651.36	2086.88
651.55	2019.30
651.74	2002.91
651.93	1968.10
652.12	2009.06
652.31	1931.23
652.49	2007.01
652.68	1953.76
652.87	2140.13
653.06	2056.16
653.25	2119.65
653.44	1935.33
653.62	2152.42
653.81	2019.30
654.00	2021.35
654.19	2007.01
654.38	2189.28
654.56	2029.54
654.75	1970.15
654.94	2078.69
655.13	2021.35
655.32	1875.94
655.51	1974.24
655.69	1976.29
655.88	2047.97
656.07	1914.85
656.26	1992.67
656.45	1894.37
656.63	2017.25
656.82	1986.53
657.01	2025.44
657.20	1896.42
657.38	2103.26
657.57	1964.00
657.76	1863.65
657.95	2062.30
658.14	1998.82
658.32	2004.96
658.51	1843.17
658.70	1964.00
658.89	1957.86
659.08	1968.10
659.26	2193.37
659.45	1986.53
659.64	2062.30
659.83	1980.39
660.01	2297.82
660.20	2066.40
660.39	2166.75
660.58	1884.13
660.76	2013.15
660.95	1902.56
661.14	1992.67
661.33	1857.51
661.51	1931.23
661.70	1912.80
661.89	2019.30
662.08	2045.92
662.26	1918.95
662.45	1867.75
662.64	2088.93
662.83	2033.63
663.01	1863.65
663.20	1984.48
663.39	2076.64
663.58	1892.32
663.76	2076.64
663.95	2117.60
664.14	1882.08
664.32	1941.47
664.51	1900.52
664.70	1869.80
664.89	1994.72
665.07	1931.23
665.26	2062.30
665.45	1961.95
665.64	1994.72
665.82	1916.90
666.01	2007.01
666.20	1931.23
666.38	2041.82
666.57	2105.31
666.76	2840.53
666.95	6881.18
667.13	15247.13
667.32	21348.03
667.51	25024.13
667.69	27709.02
667.88	26197.62
668.07	18835.17
668.25	14669.60
668.44	12025.67
668.63	10254.18
668.81	8896.38
669.00	8148.87
669.19	6954.90
669.38	6047.65
669.56	5296.05
669.75	4349.89
669.94	3741.64
670.12	3100.62
670.31	2768.85
670.50	2447.32
670.68	2207.71
670.87	2068.45
671.06	2062.30
671.24	2113.50
671.43	2125.79
671.62	2086.88
671.80	1974.24
671.99	2082.78
672.18	2017.25
672.36	2025.44
672.55	1972.19
672.74	2011.11
672.92	1972.19
673.11	1992.67
673.29	1974.24
673.48	2033.63
673.67	1947.62
673.85	2060.26
674.04	1923.04
674.23	1951.71
674.41	2099.17
674.60	1894.37
674.79	1855.46
674.97	1931.23
675.16	2078.69
675.34	2054.11
675.53	1873.89
675.72	2037.73
675.90	2060.26
676.09	1947.62
676.28	1916.90
676.46	1841.12
676.65	1939.43
676.83	1890.28
677.02	1988.58
677.21	2037.73
677.39	2041.82
677.58	1957.86
677.77	2000.87
677.95	1900.52
678.14	1986.53
678.32	1992.67
678.51	1902.56
678.70	2127.84
678.88	1886.18
679.07	1990.63
679.25	1966.05
679.44	1945.57
679.63	1900.52
679.81	1968.10
680.00	2000.87
680.18	1957.86
680.37	2162.66
680.55	1974.24
680.74	1861.60
680.93	1877.99
681.11	2017.25
681.30	1953.76
681.48	2058.21
681.67	1920.99
681.85	1920.99
682.04	1935.33
682.23	2080.74
682.41	1970.15
682.60	1931.23
682.78	1873.89
682.97	1923.04
683.15	1933.28
683.34	1916.90
683.53	2080.74
683.71	1880.04
683.90	2080.74
684.08	2107.36
684.27	1986.53
684.45	1972.19
684.64	2068.45
684.82	1968.10
685.01	2021.35
685.19	1970.15
685.38	2133.98
685.57	1920.99
685.75	1927.14
685.94	1869.80
686.12	1877.99
686.31	1972.19
686.49	2045.92
686.68	1857.51
686.86	2033.63
687.05	1968.10
687.23	2078.69
687.42	1906.66
687.60	1892.32
687.79	2023.39
687.97	2097.12
688.16	2052.06
688.34	2058.21
688.53	1822.69
688.71	1990.63
688.90	2129.89
689.08	1951.71
689.27	1902.56
689.45	1996.77
689.64	1992.67
689.82	1941.47
690.01	1998.82
690.19	1996.77
690.38	1904.61
690.56	2072.54
690.75	1947.62
690.93	1972.19
691.12	1888.23
691.30	1912.80
691.49	1947.62
691.67	1945.57
691.86	2088.93
692.04	2050.02
692.23	1970.15
692.41	1982.43
692.60	2211.81
692.78	2195.42
692.97	2058.21
693.15	2078.69
693.34	2095.07
693.52	2131.94
693.71	1894.37
693.89	1953.76
694.08	1933.28
694.26	2052.06
694.44	2009.06
694.63	2017.25
694.81	1904.61
695.00	1961.95
695.18	2013.15
695.37	2101.22
695.55	1974.24
695.74	2058.21
695.92	1976.29
696.10	2052.06
696.29	1841.12
696.47	2007.01
696.66	1867.75
696.84	1871.84
697.03	1966.05
697.21	2033.63
697.40	2783.19
697.58	1980.39
697.76	1869.80
697.95	1910.75
698.13	1902.56
698.32	1994.72
698.50	1976.29
698.68	1996.77
698.87	1947.62
699.05	2070.50
699.24	2045.92
699.42	1867.75
699.61	1980.39
699.79	1939.43
699.97	1898.47
700.16	1898.47
700.34	1914.85
700.53	1941.47
700.71	2158.56
700.89	2095.07
701.08	1978.34
701.26	1953.76
701.45	2443.23
701.63	1894.37
701.81	1945.57
702.00	1978.34
702.18	1968.10
702.37	2013.15
702.55	2209.76
702.73	2170.85
702.92	2099.17
703.10	2398.17
703.28	2133.98
703.47	2080.74
703.65	2238.43
703.84	2232.29
704.02	2082.78
704.20	2181.09
704.39	2023.39
704.57	2056.16
704.75	2125.79
704.94	2064.35
705.12	2023.39
705.30	2213.85
705.49	3698.63
705.67	9559.92
705.86	19025.63
706.04	24143.50
706.22	27567.71
706.41	29562.43
706.59	26523.24
706.77	18814.69
706.96	14956.32
707.14	13043.51
707.32	11161.43
707.51	9885.55
707.69	8306.56
707.87	6768.54
708.06	5248.94
708.24	4257.73
708.42	3313.61
708.61	2871.25
708.79	2353.12
708.97	2303.96
709.16	2211.81
709.34	2086.88
709.52	1961.95
709.71	1929.19
709.89	2086.88
710.07	1966.05
710.26	2009.06
710.44	2031.58
710.62	2002.91
710.80	1972.19
710.99	2086.88
711.17	2023.39
711.35	1888.23
711.54	1978.34
711.72	2009.06
711.90	1994.72
712.09	2023.39
712.27	1918.95
712.45	2070.50
712.63	1955.81
712.82	1976.29
713.00	1961.95
713.18	2066.40
713.37	1988.58
713.55	1994.72
713.73	2019.30
713.91	2013.15
714.10	1966.05
714.28	1951.71
714.46	1951.71
714.65	2009.06
714.83	2023.39
715.01	1982.43
715.19	2045.92
715.38	1910.75
715.56	2062.30
715.74	1937.38
715.92	1935.33
716.11	2097.12
716.29	1812.45
716.47	2047.97
716.65	1939.43
716.84	1851.36
717.02	1996.77
717.20	1861.60
717.38	1886.18
717.57	2000.87
717.75	1929.19
717.93	1964.00
718.11	2041.82
718.30	1929.19
718.48	2058.21
718.66	2031.58
718.84	2000.87
719.03	1994.72
719.21	1929.19
719.39	2127.84
719.57	2037.73
719.75	2058.21
719.94	1826.79
720.12	1920.99
720.30	1998.82
720.48	2021.35
720.67	1939.43
720.85	1861.60
721.03	1871.84
721.21	2021.35
721.39	2129.89
721.58	2021.35
721.76	1888.23
721.94	2004.96
722.12	1964.00
722.30	2086.88
722.49	1982.43
722.67	1959.91
722.85	1964.00
723.03	1886.18
723.21	1894.37
723.40	2037.73
723.58	2150.37
723.76	2039.78
723.94	2109.41
724.12	2056.16
724.30	2129.89
724.49	2174.94
724.67	1972.19
724.85	2150.37
725.03	1935.33
725.21	1998.82
725.40	2090.98
725.58	1961.95
725.76	2082.78
725.94	2002.91
726.12	1869.80
726.30	1943.52
726.49	1976.29
726.67	1937.38
726.85	1953.76
727.03	2136.03
727.21	3129.30
727.39	5074.87
727.57	6281.12
727.76	6940.57
727.94	7618.44
728.12	7311.25
728.30	5973.92
728.48	4861.88
728.66	4409.28
728.84	4005.83
729.03	3352.52
729.21	3071.95
729.39	2623.45
729.57	2344.92
729.75	2197.47
729.93	2054.11
730.11	1968.10
730.30	1998.82
730.48	2066.40
730.66	2160.61
730.84	2058.21
731.02	1961.95
731.20	1982.43
731.38	1939.43
731.56	1945.57
731.74	1843.17
731.93	1968.10
732.11	2017.25
732.29	1935.33
732.47	1925.09
732.65	1964.00
732.83	2023.39
733.01	1990.63
733.19	1890.28
733.37	2011.11
733.56	2019.30
733.74	1966.05
733.92	2064.35
734.10	1935.33
734.28	2025.44
734.46	1875.94
734.64	1939.43
734.82	1929.19
735.00	1837.03
735.18	1894.37
735.36	1918.95
735.54	1939.43
735.73	1955.81
735.91	1959.91
736.09	1994.72
736.27	2004.96
736.45	1978.34
736.63	1775.59
736.81	1959.91
736.99	1959.91
737.17	2115.55
737.35	2011.11
737.53	1976.29
737.71	1957.86
737.89	1964.00
738.07	1888.23
738.25	1830.88
738.43	1865.70
738.61	1898.47
738.80	1925.09
738.98	1894.37
739.16	1890.28
739.34	1945.57
739.52	2088.93
739.70	1988.58
739.88	2050.02
740.06	1972.19
740.24	1871.84
740.42	2095.07
740.60	1849.32
740.78	1902.56
740.96	1884.13
741.14	1912.80
741.32	1961.95
741.50	1871.84
741.68	2142.18
741.86	2000.87
742.04	1859.56
742.22	1888.23
742.40	1943.52
742.58	2052.06
742.76	1990.63
742.94	2023.39
743.12	1929.19
743.30	1972.19
743.48	2017.25
743.66	1841.12
743.84	1984.48
744.02	1968.10
744.20	1898.47
744.38	1904.61
744.56	1927.14
744.74	2039.78
744.92	2004.96
745.10	2017.25
745.28	1949.67
745.46	2000.87
745.64	1906.66
745.82	2013.15
746.00	1904.61
746.18	2029.54
746.36	1869.80
746.54	2027.49
746.72	1968.10
746.90	1896.42
747.08	1998.82
747.26	2013.15
747.44	2027.49
747.62	1896.42
747.80	1959.91
747.98	1947.62
748.15	1986.53
748.33	2086.88
748.51	2029.54
748.69	2017.25
748.87	1972.19
749.05	1935.33
749.23	1984.48
749.41	1976.29
749.59	1992.67
749.77	2070.50
749.95	1968.10
750.13	1953.76
750.31	1982.43
750.49	1914.85
750.67	1961.95
750.85	2097.12
751.03	1990.63
751.20	2138.08
751.38	1941.47
751.56	1871.84
751.74	2078.69
751.92	2011.11
752.10	1818.60
752.28	2062.30
752.46	1929.19
752.64	1914.85
752.82	1976.29
753.00	2054.11
753.18	1857.51
753.35	2035.68
753.53	1992.67
753.71	1976.29
753.89	2009.06
754.07	1964.00
754.25	2025.44
754.43	1974.24
754.61	1961.95
754.79	2013.15
754.97	1904.61
755.14	2050.02
755.32	1929.19
755.50	1980.39
755.68	1951.71
755.86	1976.29
756.04	1834.98
756.22	1853.41
756.40	2023.39
756.57	2076.64
756.75	1923.04
756.93	2033.63
757.11	2025.44
757.29	1910.75
757.47	1884.13
757.65	1880.04
757.82	1753.06
758.00	1873.89
758.18	1939.43
758.36	1935.33
758.54	2084.83
758.72	1849.32
758.90	2029.54
759.07	1865.70
759.25	1880.04
759.43	1998.82
759.61	1886.18
759.79	2539.48
759.97	1980.39
760.15	1904.61
760.32	1970.15
760.50	1955.81
760.68	2058.21
760.86	1853.41
761.04	2095.07
761.22	2047.97
761.39	2009.06
761.57	1912.80
761.75	1988.58
761.93	1935.33
762.11	1951.71
762.28	1964.00
762.46	1894.37
762.64	2062.30
762.82	1898.47
763.00	1898.47
763.18	1988.58
763.35	1845.22
763.53	2015.20
763.71	1968.10
763.89	1968.10
764.07	1970.15
764.24	1920.99
764.42	2007.01
764.60	1929.19
764.78	2009.06
764.96	2019.30
765.13	2033.63
765.31	1935.33
765.49	2004.96
765.67	1927.14
765.84	1845.22
766.02	1888.23
766.20	1882.08
766.38	1964.00
766.56	1980.39
766.73	1978.34
766.91	1990.63
767.09	1966.05
767.27	2033.63
767.44	1957.86
767.62	1966.05
767.80	1984.48
767.98	1964.00
768.15	1925.09
768.33	2039.78
768.51	2027.49
768.69	1925.09
768.87	1980.39
769.04	1880.04
769.22	2176.99
769.40	2080.74
769.58	2078.69
769.75	2021.35
769.93	2007.01
770.11	2029.54
770.28	1953.76
770.46	1998.82
770.64	1935.33
770.82	1939.43
770.99	1986.53
771.17	2056.16
771.35	1957.86
771.53	1900.52
771.70	1943.52
771.88	2035.68
772.06	1978.34
772.23	1908.71
772.41	1992.67
772.59	1937.38
772.77	1783.78
772.94	1929.19
773.12	1992.67
773.30	1933.28
773.47	1931.23
773.65	1871.84
773.83	2017.25
774.01	1951.71
774.18	1871.84
774.36	2009.06
774.54	1902.56
774.71	1959.91
774.89	1865.70
775.07	1865.70
775.24	1914.85
775.42	1947.62
775.60	2037.73
775.78	1906.66
775.95	1900.52
776.13	1873.89
776.31	1806.31
776.48	2027.49
776.66	2109.41
776.84	1964.00
777.01	1859.56
777.19	1871.84
777.37	1916.90
777.54	1970.15
777.72	2068.45
777.90	1984.48
778.07	1892.32
778.25	2246.62
778.43	2019.30
778.60	1875.94
778.78	2023.39
778.96	2031.58
779.13	1871.84
779.31	2031.58
779.49	1982.43
779.66	1998.82
779.84	1925.09
780.01	1912.80
780.19	1929.19
780.37	2017.25
780.54	1978.34
780.72	1871.84
780.90	1908.71
781.07	1898.47
781.25	1984.48
781.43	1972.19
781.60	1951.71
781.78	2052.06
781.95	2027.49
782.13	1896.42
782.31	2000.87
782.48	1859.56
782.66	1961.95
782.83	2119.65
783.01	2017.25
783.19	1990.63
783.36	1951.71
783.54	1882.08
783.72	2082.78
783.89	1920.99
784.07	1974.24
784.24	1976.29
784.42	2002.91
784.60	1951.71
784.77	2035.68
784.95	1767.40
785.12	1884.13
785.30	1998.82
785.47	1787.88
785.65	1855.46
785.83	1892.32
786.00	1912.80
786.18	1982.43
786.35	1785.83
786.53	1908.71
786.71	2017.25
786.88	2052.06
787.06	1968.10
787.23	1947.62
787.41	1859.56
787.58	2019.30
787.76	1888.23
787.94	1984.48
788.11	1929.19
788.29	1961.95
788.46	1933.28
788.64	1845.22
788.81	1896.42
788.99	1816.55
789.16	1949.67
789.34	1931.23
789.52	1964.00
789.69	1875.94
789.87	1777.64
790.04	1945.57
790.22	1935.33
790.39	2072.54
790.57	1837.03
790.74	1861.60
790.92	2045.92
791.09	1822.69
791.27	2021.35
791.44	1968.10
791.62	1880.04
791.79	1994.72
791.97	1978.34
792.15	2226.14
792.32	1984.48
792.50	2019.30
792.67	2029.54
792.85	2119.65
793.02	1923.04
793.20	1945.57
793.37	1763.30
793.55	1918.95
793.72	1888.23
793.90	2009.06
794.07	1900.52
794.25	1867.75
794.42	1982.43
794.60	1945.57
794.77	1980.39
794.95	2013.15
795.12	1978.34
795.30	1925.09
795.47	1843.17
795.65	2217.95
795.82	1959.91
796.00	1916.90
796.17	1890.28
796.34	1882.08
796.52	2000.87
796.69	2054.11
796.87	1986.53
797.04	1931.23
797.22	1982.43
797.39	2025.44
797.57	1953.76
797.74	1978.34
797.92	1947.62
798.09	1857.51
798.27	2047.97
798.44	1943.52
798.62	1978.34
798.79	1923.04
798.96	1976.29
799.14	2002.91
799.31	2080.74
799.49	1943.52
799.66	1894.37
799.84	1923.04
800.01	1834.98
800.19	2011.11
800.36	1882.08
800.53	1988.58
800.71	2017.25
800.88	2060.26
801.06	1970.15
801.23	1783.78
801.41	1918.95
801.58	1906.66
801.75	1900.52
801.93	1998.82
802.10	1951.71
802.28	1929.19
802.45	1964.00
802.63	1992.67
802.80	2072.54
802.97	1951.71
803.15	1933.28
803.32	1968.10
803.50	1943.52
803.67	1865.70
803.84	1839.08
804.02	1923.04
804.19	1941.47
804.37	1863.65
804.54	1861.60
804.71	1966.05
804.89	1974.24
805.06	1882.08
805.24	1859.56
805.41	1851.36
805.58	1845.22
805.76	2158.56
805.93	1990.63
806.10	2041.82
806.28	1955.81
806.45	1974.24
806.63	1998.82
806.80	1886.18
806.97	1925.09
807.15	1998.82
807.32	1988.58
807.49	1957.86
807.67	1890.28
807.84	1982.43
808.01	1855.46
808.19	2095.07
808.36	2127.84
808.54	1918.95
808.71	1908.71
808.88	1939.43
809.06	2015.20
809.23	1994.72
809.40	1957.86
809.58	2015.20
809.75	1976.29
809.92	1894.37
810.10	2193.37
810.27	1955.81
810.44	1978.34
810.62	2009.06
810.79	1929.19
810.96	1861.60
811.14	2007.01
811.31	1990.63
811.48	2009.06
811.66	1931.23
811.83	2002.91
812.00	1996.77
812.18	1951.71
812.35	2152.42
812.52	1916.90
812.69	1951.71
812.87	1931.23
813.04	1880.04
813.21	1904.61
813.39	1900.52
813.56	1777.64
813.73	2027.49
813.91	1826.79
814.08	1974.24
814.25	1957.86
814.42	1812.45
814.60	1964.00
814.77	2004.96
814.94	1935.33
815.12	1941.47
815.29	2023.39
815.46	1904.61
815.63	1955.81
815.81	1869.80
815.98	1992.67
816.15	1882.08
816.33	1865.70
816.50	1996.77
816.67	1849.32
816.84	1961.95
817.02	1910.75
817.19	1941.47
817.36	1976.29
817.53	2086.88
817.71	1908.71
817.88	2066.40
818.05	2029.54
818.22	1859.56
818.40	2133.98
818.57	1912.80
818.74	1933.28
818.91	1953.76
819.09	2037.73
819.26	2084.83
819.43	1972.19
819.60	1966.05
819.78	1992.67
819.95	2039.78
820.12	1830.88
820.29	2121.70
820.47	2021.35
820.64	1849.32
820.81	1857.51
820.98	1941.47
821.15	1910.75
821.33	1943.52
821.50	1845.22
821.67	2019.30
821.84	1923.04
822.02	2080.74
822.19	1968.10
822.36	1918.95
822.53	1970.15
822.70	1849.32
822.88	1853.41
823.05	2023.39
823.22	1910.75
823.39	2007.01
823.56	1992.67
823.74	2031.58
823.91	1861.60
824.08	1861.60
824.25	1849.32
824.42	2062.30
824.60	1855.46
824.77	2000.87
824.94	1974.24
825.11	2031.58
825.28	1837.03
825.45	2013.15
825.63	1978.34
825.80	1904.61
825.97	1916.90
826.14	1900.52
826.31	1925.09
826.48	2015.20
826.66	1920.99
826.83	1900.52
827.00	1953.76
827.17	1941.47
827.34	1931.23
827.51	1939.43
827.69	1988.58
827.86	1855.46
828.03	1949.67
828.20	2037.73
828.37	1910.75
828.54	1966.05
828.71	1855.46
828.89	2162.66
829.06	1925.09
829.23	2011.11
829.40	1865.70
829.57	1931.23
829.74	1964.00
829.91	1990.63
830.09	1890.28
830.26	1966.05
830.43	2131.94
830.60	1914.85
830.77	2056.16
830.94	1992.67
831.11	2072.54
831.28	1927.14
831.46	2004.96
831.63	1888.23
831.80	1972.19
831.97	1927.14
832.14	1877.99
832.31	2031.58
832.48	1961.95
832.65	1943.52
832.82	1920.99
832.99	1880.04
833.17	1849.32
833.34	2060.26
833.51	1976.29
833.68	1781.73
833.85	1996.77
834.02	1935.33
834.19	1898.47
834.36	1865.70
834.53	1941.47
834.70	2099.17
834.87	2013.15
835.04	1906.66
835.22	1880.04
835.39	1912.80
835.56	1910.75
835.73	1923.04
835.90	2111.46
836.07	1898.47
836.24	1933.28
836.41	1841.12
836.58	1873.89
836.75	2000.87
836.92	1982.43
837.09	1964.00
837.26	1957.86
837.43	1992.67
837.60	1886.18
837.77	1912.80
837.94	2023.39
838.12	2031.58
838.29	1931.23
838.46	1886.18
838.63	1875.94
838.80	2088.93
838.97	2015.20
839.14	1920.99
839.31	1959.91
839.48	2029.54
839.65	1914.85
839.82	1890.28
839.99	1937.38
840.16	1941.47
840.33	1859.56
840.50	2009.06
840.67	1873.89
840.84	1779.68
841.01	2035.68
841.18	1925.09
841.35	1992.67
841.52	2000.87
841.69	2174.94
841.86	1894.37
842.03	2029.54
842.20	1996.77
842.37	1908.71
842.54	1929.19
842.71	1947.62
842.88	1925.09
843.05	1959.91
843.22	1875.94
843.39	2023.39
843.56	1976.29
843.73	1877.99
843.90	2031.58
844.07	1873.89
844.24	2021.35
844.41	1955.81
844.58	1886.18
844.75	1865.70
844.92	1933.28
845.09	1959.91
845.26	1941.47
845.43	1970.15
845.60	1896.42
845.77	2039.78
845.94	1966.05
846.10	1968.10
846.27	1890.28
846.44	1920.99
846.61	1925.09
846.78	1970.15
846.95	2047.97
847.12	1945.57
847.29	1855.46
847.46	1888.23
847.63	2023.39
847.80	1886.18
847.97	2009.06
848.14	2113.50
848.31	1931.23
848.48	1853.41
848.65	2007.01
848.82	1964.00
848.98	2084.83
849.15	1955.81
849.32	2019.30
849.49	2000.87
849.66	1904.61
849.83	1949.67
850.00	1849.32
850.17	1957.86
850.34	1968.10
850.51	1912.80
850.68	1986.53
850.85	2121.70
851.01	1982.43
851.18	1882.08
851.35	1918.95
851.52	2062.30
851.69	2072.54
851.86	1826.79
852.03	1894.37
852.20	1957.86
852.37	1941.47
852.53	1828.84
852.70	1933.28
852.87	1935.33
853.04	1990.63
853.21	1925.09
853.38	2033.63
853.55	2103.26
853.72	2068.45
853.89	1869.80
854.05	1904.61
854.22	1898.47
854.39	1927.14
854.56	1986.53
854.73	2039.78
854.90	1834.98
855.07	2027.49
855.23	1916.90
855.40	1937.38
855.57	1880.04
855.74	1796.07
855.91	2117.60
856.08	1867.75
856.25	1888.23
856.41	1955.81
856.58	1955.81
856.75	1966.05
856.92	1779.68
857.09	2004.96
857.26	1861.60
857.42	1894.37
857.59	1976.29
857.76	1880.04
857.93	1984.48
858.10	2021.35
858.27	1890.28
858.43	1945.57
858.60	1912.80
858.77	1830.88
858.94	1961.95
859.11	1937.38
859.27	1916.90
859.44	1894.37
859.61	2183.13
859.78	1980.39
859.95	1888.23
860.12	1894.37
860.28	2070.50
860.45	2101.22
860.62	1906.66
860.79	1951.71
860.95	1902.56
861.12	1880.04
861.29	1923.04
861.46	1945.57
861.63	1916.90
861.79	1941.47
861.96	1898.47
862.13	1914.85
862.30	1970.15
862.47	1896.42
862.63	1828.84
862.80	1994.72
862.97	1998.82
863.14	1984.48
863.30	1939.43
863.47	1929.19
863.64	2050.02
863.81	1955.81
863.97	1931.23
864.14	2000.87
864.31	1972.19
864.48	1894.37
864.65	2002.91
864.81	2084.83
864.98	1910.75
865.15	2000.87
865.32	2013.15
865.48	2052.06
865.65	2131.94
865.82	1875.94
865.98	1978.34
866.15	2013.15
866.32	1910.75
866.49	1923.04
866.65	2039.78
866.82	1841.12
866.99	1982.43
867.16	1947.62
867.32	1898.47
867.49	1873.89
867.66	1945.57
867.83	1861.60
867.99	1826.79
868.16	1865.70
868.33	1923.04
868.49	1941.47
868.66	1959.91
868.83	2000.87
868.99	1957.86
869.16	2019.30
869.33	2007.01
869.50	1988.58
869.66	1970.15
869.83	2056.16
870.00	1882.08
870.16	2045.92
870.33	1959.91
870.50	1974.24
870.66	1957.86
870.83	2035.68
871.00	1894.37
871.17	1998.82
871.33	2045.92
871.50	1929.19
871.67	1927.14
871.83	1939.43
872.00	2011.11
872.17	1941.47
872.33	2080.74
872.50	1974.24
872.67	2011.11
872.83	2015.20
873.00	2000.87
873.17	2009.06
873.33	1925.09
873.50	2007.01
873.67	1882.08
873.83	1961.95
874.00	1935.33
874.16	2009.06
874.33	2105.31
874.50	1826.79
874.66	1916.90
874.83	1964.00
875.00	2031.58
875.16	1978.34
875.33	2056.16
875.50	1789.92
875.66	1861.60
875.83	1929.19
875.99	1974.24
876.16	1916.90
876.33	1877.99
876.49	2039.78
876.66	1966.05
876.83	1943.52
876.99	1787.88
877.16	1927.14
877.32	1964.00
877.49	1863.65
877.66	1949.67
877.82	2045.92
877.99	2017.25
878.15	2002.91
878.32	1968.10
878.49	2009.06
878.65	1982.43
878.82	2009.06
878.98	1908.71
879.15	1974.24
879.32	1941.47
879.48	2019.30
879.65	1925.09
879.81	1837.03
879.98	1894.37
880.15	1918.95
880.31	2025.44
880.48	1927.14
880.64	1964.00
880.81	1959.91
880.97	2062.30
881.14	2027.49
881.31	1853.41
881.47	2097.12
881.64	1859.56
881.80	1882.08
881.97	1929.19
882.13	1974.24
882.30	1841.12
882.47	1941.47
882.63	1937.38
882.80	1820.64
882.96	1918.95
883.13	2000.87
883.29	2015.20
883.46	2011.11
883.62	2052.06
883.79	1949.67
883.95	1931.23
884.12	1972.19
884.29	1990.63
884.45	1978.34
884.62	1947.62
884.78	1851.36
884.95	2052.06
885.11	1845.22
885.28	1914.85
885.44	1900.52
885.61	2007.01
885.77	2002.91
885.94	1955.81
886.10	2023.39
886.27	1994.72
886.43	2054.11
886.60	2011.11
886.76	1931.23
886.93	1902.56
887.09	1955.81
887.26	1855.46
887.42	1949.67
887.59	2050.02
887.75	2197.47
887.92	2058.21
888.08	2017.25
888.25	2136.03
888.41	2025.44
888.58	1937.38
888.74	1853.41
888.91	1966.05
>>>>>End Processed Spectral Data<<<<<
