SpectraSuite Data File
++++++++++++++++++++++++++++++++++++
Date: Wed May 04 22:45:30 CEST 2016
User: root
Dark Spectrum Present: No
Reference Spectrum Present: No
Number of Sampled Component Spectra: 1
Spectrometers: USB4C02835
Integration Time (usec): 100000 (USB4C02835)
Spectra Averaged: 1 (USB4C02835)
Boxcar Smoothing: 0 (USB4C02835)
Correct for Electrical Dark: No (USB4C02835)
Strobe/Lamp Enabled: No (USB4C02835)
Correct for Detector Non-linearity: No (USB4C02835)
Correct for Stray Light: No (USB4C02835)
Number of Pixels in Processed Spectrum: 3648
>>>>>Begin Processed Spectral Data<<<<<
177.47	1613.80
177.69	1613.80
177.91	1613.80
178.13	1591.27
178.36	1603.56
178.58	1882.08
178.80	2017.25
179.02	1855.46
179.24	1855.46
179.46	1945.57
179.68	2015.20
179.90	1978.34
180.13	2025.44
180.35	1816.55
180.57	1918.95
180.79	1978.34
181.01	1976.29
181.23	2000.87
181.45	2043.87
181.67	1964.00
181.90	2070.50
182.12	1931.23
182.34	1853.41
182.56	1976.29
182.78	1980.39
183.00	1947.62
183.22	1865.70
183.44	1828.84
183.66	2123.74
183.89	2037.73
184.11	2007.01
184.33	2035.68
184.55	2033.63
184.77	1916.90
184.99	1945.57
185.21	1937.38
185.43	2215.90
185.65	1990.63
185.87	1994.72
186.10	2133.98
186.32	2068.45
186.54	1886.18
186.76	1966.05
186.98	2037.73
187.20	1986.53
187.42	1898.47
187.64	1918.95
187.86	1953.76
188.08	2082.78
188.30	1888.23
188.52	1964.00
188.75	2086.88
188.97	2070.50
189.19	1931.23
189.41	1920.99
189.63	2013.15
189.85	1961.95
190.07	1841.12
190.29	1837.03
190.51	2002.91
190.73	1896.42
190.95	2025.44
191.17	1937.38
191.39	1851.36
191.61	1902.56
191.84	1855.46
192.06	1873.89
192.28	1814.50
192.50	2209.76
192.72	1875.94
192.94	1906.66
193.16	1996.77
193.38	2025.44
193.60	1841.12
193.82	1933.28
194.04	2080.74
194.26	1970.15
194.48	2025.44
194.70	1951.71
194.92	1925.09
195.14	2056.16
195.36	1871.84
195.58	1920.99
195.80	1968.10
196.02	1920.99
196.24	1939.43
196.46	1898.47
196.69	1925.09
196.91	2107.36
197.13	1910.75
197.35	1923.04
197.57	2111.46
197.79	1972.19
198.01	1894.37
198.23	1918.95
198.45	1931.23
198.67	1937.38
198.89	1867.75
199.11	1945.57
199.33	1888.23
199.55	1769.44
199.77	1972.19
199.99	2041.82
200.21	1894.37
200.43	2056.16
200.65	1818.60
200.87	1812.45
201.09	1933.28
201.31	1947.62
201.53	2039.78
201.75	1955.81
201.97	1970.15
202.19	1959.91
202.41	1992.67
202.63	2074.59
202.85	1998.82
203.07	1953.76
203.29	1906.66
203.51	1863.65
203.73	1964.00
203.95	2111.46
204.17	2031.58
204.39	1980.39
204.61	2004.96
204.83	1953.76
205.05	1937.38
205.27	1916.90
205.49	2152.42
205.71	1972.19
205.93	1900.52
206.15	1984.48
206.37	2017.25
206.59	1982.43
206.81	1820.64
207.03	1843.17
207.25	1902.56
207.47	1966.05
207.69	1966.05
207.91	2037.73
208.13	2070.50
208.34	1896.42
208.56	1918.95
208.78	1994.72
209.00	1875.94
209.22	1947.62
209.44	1949.67
209.66	1898.47
209.88	1984.48
210.10	1927.14
210.32	1916.90
210.54	2000.87
210.76	2015.20
210.98	2025.44
211.20	1832.93
211.42	1980.39
211.64	2056.16
211.86	2002.91
212.08	1968.10
212.30	1925.09
212.52	1953.76
212.74	1986.53
212.96	1964.00
213.17	1955.81
213.39	2009.06
213.61	2093.02
213.83	1918.95
214.05	1896.42
214.27	2047.97
214.49	1910.75
214.71	1912.80
214.93	1984.48
215.15	1941.47
215.37	2041.82
215.59	1865.70
215.81	1972.19
216.03	2029.54
216.24	1961.95
216.46	1892.32
216.68	1964.00
216.90	1935.33
217.12	1959.91
217.34	1943.52
217.56	2002.91
217.78	2062.30
218.00	1978.34
218.22	2066.40
218.44	2023.39
218.66	2007.01
218.87	2086.88
219.09	1904.61
219.31	1974.24
219.53	1996.77
219.75	1937.38
219.97	1918.95
220.19	1927.14
220.41	1982.43
220.63	2025.44
220.85	1947.62
221.06	1957.86
221.28	2021.35
221.50	1966.05
221.72	1873.89
221.94	1935.33
222.16	1996.77
222.38	2078.69
222.60	1964.00
222.82	1888.23
223.03	2074.59
223.25	1859.56
223.47	1984.48
223.69	2050.02
223.91	2029.54
224.13	1955.81
224.35	1902.56
224.57	2009.06
224.78	2031.58
225.00	1920.99
225.22	1920.99
225.44	2009.06
225.66	2056.16
225.88	1970.15
226.10	2017.25
226.32	1912.80
226.53	2013.15
226.75	1982.43
226.97	1902.56
227.19	2007.01
227.41	1851.36
227.63	1884.13
227.85	1867.75
228.06	1980.39
228.28	2015.20
228.50	2009.06
228.72	1859.56
228.94	1859.56
229.16	1886.18
229.37	1877.99
229.59	1904.61
229.81	2035.68
230.03	1943.52
230.25	1824.74
230.47	1800.16
230.69	1859.56
230.90	2045.92
231.12	1929.19
231.34	1927.14
231.56	1980.39
231.78	1890.28
232.00	1912.80
232.21	1949.67
232.43	1914.85
232.65	1849.32
232.87	1978.34
233.09	1892.32
233.30	1933.28
233.52	2037.73
233.74	1964.00
233.96	1935.33
234.18	1939.43
234.40	2037.73
234.61	2099.17
234.83	1875.94
235.05	1882.08
235.27	2160.61
235.49	2068.45
235.70	1941.47
235.92	2039.78
236.14	1988.58
236.36	2201.57
236.58	1894.37
236.79	1947.62
237.01	1937.38
237.23	2009.06
237.45	2123.74
237.67	1976.29
237.88	2043.87
238.10	2138.08
238.32	1863.65
238.54	1914.85
238.76	1904.61
238.97	1880.04
239.19	1882.08
239.41	2009.06
239.63	2088.93
239.85	1871.84
240.06	1912.80
240.28	1896.42
240.50	1906.66
240.72	1980.39
240.93	1923.04
241.15	1933.28
241.37	1992.67
241.59	2039.78
241.81	1900.52
242.02	1894.37
242.24	1990.63
242.46	2064.35
242.68	1855.46
242.89	1888.23
243.11	2064.35
243.33	1929.19
243.55	1900.52
243.76	1951.71
243.98	1972.19
244.20	1992.67
244.42	1859.56
244.64	1966.05
244.85	1884.13
245.07	1888.23
245.29	1931.23
245.51	1961.95
245.72	1984.48
245.94	2043.87
246.16	1964.00
246.38	1929.19
246.59	1861.60
246.81	1830.88
247.03	1951.71
247.24	1816.55
247.46	1859.56
247.68	2052.06
247.90	1898.47
248.11	1865.70
248.33	2011.11
248.55	1976.29
248.77	1992.67
248.98	1978.34
249.20	2146.27
249.42	1920.99
249.64	1945.57
249.85	1896.42
250.07	1949.67
250.29	1996.77
250.50	2031.58
250.72	1820.64
250.94	1974.24
251.16	2093.02
251.37	2027.49
251.59	1986.53
251.81	2029.54
252.02	2138.08
252.24	1910.75
252.46	1968.10
252.68	1867.75
252.89	1947.62
253.11	1796.07
253.33	2017.25
253.54	2050.02
253.76	1849.32
253.98	1925.09
254.20	1994.72
254.41	1834.98
254.63	1984.48
254.85	1855.46
255.06	2021.35
255.28	2029.54
255.50	1859.56
255.71	1865.70
255.93	1884.13
256.15	2017.25
256.36	2033.63
256.58	1877.99
256.80	1877.99
257.02	1935.33
257.23	1927.14
257.45	2007.01
257.67	1959.91
257.88	1861.60
258.10	2009.06
258.32	2002.91
258.53	1886.18
258.75	2037.73
258.97	1877.99
259.18	1916.90
259.40	1941.47
259.62	2066.40
259.83	2052.06
260.05	1898.47
260.27	2308.06
260.48	2035.68
260.70	1841.12
260.92	1875.94
261.13	1978.34
261.35	1920.99
261.57	1904.61
261.78	1900.52
262.00	1931.23
262.22	1990.63
262.43	1882.08
262.65	1929.19
262.86	1943.52
263.08	2166.75
263.30	1929.19
263.51	1837.03
263.73	1927.14
263.95	2127.84
264.16	1867.75
264.38	1943.52
264.60	1986.53
264.81	1984.48
265.03	2013.15
265.25	2054.11
265.46	1929.19
265.68	2101.22
265.89	2074.59
266.11	1845.22
266.33	2027.49
266.54	2000.87
266.76	2013.15
266.98	1996.77
267.19	2017.25
267.41	2027.49
267.62	1978.34
267.84	1816.55
268.06	2002.91
268.27	1957.86
268.49	2000.87
268.70	1998.82
268.92	1943.52
269.14	1894.37
269.35	1888.23
269.57	2066.40
269.79	2011.11
270.00	1902.56
270.22	2072.54
270.43	1824.74
270.65	1841.12
270.87	2047.97
271.08	2023.39
271.30	1980.39
271.51	1890.28
271.73	2009.06
271.95	2033.63
272.16	1925.09
272.38	1959.91
272.59	1908.71
272.81	2019.30
273.02	1994.72
273.24	1998.82
273.46	2041.82
273.67	1896.42
273.89	1886.18
274.10	1951.71
274.32	2037.73
274.54	2039.78
274.75	1943.52
274.97	1916.90
275.18	2058.21
275.40	2000.87
275.61	1982.43
275.83	1949.67
276.05	1890.28
276.26	1927.14
276.48	1988.58
276.69	1935.33
276.91	1871.84
277.12	2062.30
277.34	2060.26
277.55	2029.54
277.77	1884.13
277.99	1916.90
278.20	1896.42
278.42	1816.55
278.63	1845.22
278.85	1947.62
279.06	1880.04
279.28	1972.19
279.49	1982.43
279.71	1990.63
279.93	1931.23
280.14	1951.71
280.36	1877.99
280.57	2009.06
280.79	2002.91
281.00	1916.90
281.22	1920.99
281.43	2088.93
281.65	1834.98
281.86	1877.99
282.08	1972.19
282.29	2015.20
282.51	1908.71
282.73	1830.88
282.94	1902.56
283.16	2002.91
283.37	2027.49
283.59	1947.62
283.80	2011.11
284.02	1968.10
284.23	2050.02
284.45	1900.52
284.66	1947.62
284.88	1941.47
285.09	1933.28
285.31	2035.68
285.52	2004.96
285.74	1839.08
285.95	2017.25
286.17	1949.67
286.38	2103.26
286.60	1927.14
286.81	1828.84
287.03	1939.43
287.24	1964.00
287.46	2009.06
287.67	2009.06
287.89	2170.85
288.10	1996.77
288.32	2002.91
288.53	2031.58
288.75	1982.43
288.96	1978.34
289.18	1892.32
289.39	1994.72
289.61	2009.06
289.82	2095.07
290.04	2095.07
290.25	1916.90
290.47	1914.85
290.68	2043.87
290.90	2086.88
291.11	1818.60
291.33	2009.06
291.54	1957.86
291.76	1941.47
291.97	2004.96
292.18	1998.82
292.40	1916.90
292.61	1900.52
292.83	2138.08
293.04	1984.48
293.26	1980.39
293.47	1861.60
293.69	1910.75
293.90	1937.38
294.12	2000.87
294.33	2031.58
294.55	1974.24
294.76	1996.77
294.97	2002.91
295.19	2058.21
295.40	1943.52
295.62	1986.53
295.83	1964.00
296.05	1961.95
296.26	1980.39
296.48	1916.90
296.69	1966.05
296.90	1947.62
297.12	2023.39
297.33	2019.30
297.55	1941.47
297.76	2027.49
297.98	2056.16
298.19	1990.63
298.41	2004.96
298.62	1888.23
298.83	2052.06
299.05	2029.54
299.26	1882.08
299.48	1943.52
299.69	2043.87
299.90	1884.13
300.12	1873.89
300.33	1972.19
300.55	1980.39
300.76	1949.67
300.98	1916.90
301.19	2000.87
301.40	1939.43
301.62	1904.61
301.83	1916.90
302.05	1978.34
302.26	1996.77
302.47	1964.00
302.69	1839.08
302.90	1931.23
303.12	1839.08
303.33	2029.54
303.54	2072.54
303.76	1861.60
303.97	1902.56
304.19	2054.11
304.40	1896.42
304.61	1972.19
304.83	2138.08
305.04	2002.91
305.26	1931.23
305.47	1957.86
305.68	1935.33
305.90	1832.93
306.11	2002.91
306.33	1935.33
306.54	1910.75
306.75	1920.99
306.97	1867.75
307.18	1933.28
307.39	1904.61
307.61	2035.68
307.82	1980.39
308.04	1986.53
308.25	1916.90
308.46	2017.25
308.68	1996.77
308.89	1961.95
309.10	2023.39
309.32	1939.43
309.53	1953.76
309.74	1974.24
309.96	1976.29
310.17	2017.25
310.39	1949.67
310.60	1955.81
310.81	1916.90
311.03	1882.08
311.24	1972.19
311.45	1949.67
311.67	2033.63
311.88	1935.33
312.09	1972.19
312.31	1910.75
312.52	1914.85
312.73	1931.23
312.95	1892.32
313.16	1929.19
313.37	2123.74
313.59	1937.38
313.80	2023.39
314.01	2041.82
314.23	1849.32
314.44	1871.84
314.65	1880.04
314.87	1880.04
315.08	1941.47
315.29	1929.19
315.51	1912.80
315.72	1812.45
315.93	2058.21
316.15	2035.68
316.36	1982.43
316.57	1918.95
316.79	1939.43
317.00	1877.99
317.21	1923.04
317.43	1847.27
317.64	2041.82
317.85	1964.00
318.07	1931.23
318.28	1996.77
318.49	2097.12
318.70	2201.57
318.92	2117.60
319.13	2107.36
319.34	2125.79
319.56	2117.60
319.77	2080.74
319.98	2105.31
320.20	2095.07
320.41	2072.54
320.62	2076.64
320.83	1861.60
321.05	2127.84
321.26	1988.58
321.47	1914.85
321.69	2017.25
321.90	1769.44
322.11	1906.66
322.32	1925.09
322.54	2146.27
322.75	1853.41
322.96	2127.84
323.18	1849.32
323.39	1824.74
323.60	1939.43
323.81	1961.95
324.03	1908.71
324.24	1982.43
324.45	1968.10
324.66	1947.62
324.88	2021.35
325.09	2031.58
325.30	2000.87
325.52	1980.39
325.73	2007.01
325.94	1861.60
326.15	1791.97
326.37	1894.37
326.58	2000.87
326.79	2080.74
327.00	1871.84
327.22	1888.23
327.43	1976.29
327.64	1896.42
327.85	1978.34
328.07	1961.95
328.28	2043.87
328.49	2004.96
328.70	1943.52
328.92	2000.87
329.13	1939.43
329.34	2002.91
329.55	2004.96
329.76	1947.62
329.98	1908.71
330.19	2107.36
330.40	2041.82
330.61	1955.81
330.83	2086.88
331.04	1837.03
331.25	1982.43
331.46	1904.61
331.68	1818.60
331.89	2043.87
332.10	1880.04
332.31	1849.32
332.52	1972.19
332.74	2058.21
332.95	1843.17
333.16	1970.15
333.37	1970.15
333.58	1951.71
333.80	1994.72
334.01	1828.84
334.22	1918.95
334.43	1935.33
334.64	1914.85
334.86	1794.02
335.07	1931.23
335.28	2084.83
335.49	1845.22
335.70	1986.53
335.92	2054.11
336.13	2121.70
336.34	2099.17
336.55	1968.10
336.76	2000.87
336.98	1888.23
337.19	1933.28
337.40	2111.46
337.61	2174.94
337.82	1947.62
338.04	2004.96
338.25	1843.17
338.46	1890.28
338.67	1916.90
338.88	1953.76
339.09	1918.95
339.31	1910.75
339.52	1949.67
339.73	1837.03
339.94	2009.06
340.15	2013.15
340.36	1900.52
340.58	1937.38
340.79	1908.71
341.00	1988.58
341.21	1873.89
341.42	2103.26
341.63	1867.75
341.85	2015.20
342.06	1929.19
342.27	1851.36
342.48	1992.67
342.69	1851.36
342.90	2002.91
343.12	1961.95
343.33	1902.56
343.54	2043.87
343.75	1982.43
343.96	1955.81
344.17	1918.95
344.38	1961.95
344.60	1875.94
344.81	1814.50
345.02	1961.95
345.23	2009.06
345.44	2107.36
345.65	2074.59
345.86	1984.48
346.07	1943.52
346.29	1904.61
346.50	1964.00
346.71	1992.67
346.92	2050.02
347.13	2109.41
347.34	1918.95
347.55	2004.96
347.76	1974.24
347.98	1892.32
348.19	1949.67
348.40	2058.21
348.61	1943.52
348.82	2103.26
349.03	2031.58
349.24	1902.56
349.45	1982.43
349.66	1812.45
349.88	1918.95
350.09	1949.67
350.30	2017.25
350.51	2082.78
350.72	1937.38
350.93	2072.54
351.14	1945.57
351.35	2027.49
351.56	1972.19
351.77	1920.99
351.99	1994.72
352.20	2043.87
352.41	2052.06
352.62	1828.84
352.83	1906.66
353.04	2007.01
353.25	1900.52
353.46	2037.73
353.67	2041.82
353.88	1777.64
354.09	1949.67
354.30	1935.33
354.52	1990.63
354.73	1945.57
354.94	1929.19
355.15	1892.32
355.36	2138.08
355.57	1884.13
355.78	1953.76
355.99	1918.95
356.20	1980.39
356.41	2060.26
356.62	1937.38
356.83	1978.34
357.04	2056.16
357.25	1771.49
357.46	1920.99
357.68	1892.32
357.89	1771.49
358.10	1939.43
358.31	1935.33
358.52	1918.95
358.73	1869.80
358.94	1853.41
359.15	1953.76
359.36	2021.35
359.57	1988.58
359.78	1970.15
359.99	1998.82
360.20	1857.51
360.41	1964.00
360.62	1964.00
360.83	1972.19
361.04	1935.33
361.25	1972.19
361.46	2084.83
361.67	2045.92
361.88	2033.63
362.09	2078.69
362.30	1961.95
362.51	1949.67
362.72	1945.57
362.93	2088.93
363.14	2054.11
363.35	2035.68
363.56	1847.27
363.78	1966.05
363.99	2047.97
364.20	1867.75
364.41	2007.01
364.62	2037.73
364.83	2007.01
365.04	1945.57
365.25	1959.91
365.46	2088.93
365.67	1867.75
365.88	1986.53
366.09	1910.75
366.30	1951.71
366.51	2002.91
366.72	1867.75
366.93	1980.39
367.14	1945.57
367.35	2019.30
367.56	1925.09
367.77	2029.54
367.98	1955.81
368.18	1986.53
368.39	1961.95
368.60	1918.95
368.81	2009.06
369.02	1982.43
369.23	1931.23
369.44	1808.36
369.65	1955.81
369.86	2093.02
370.07	2002.91
370.28	1927.14
370.49	1984.48
370.70	1980.39
370.91	1923.04
371.12	1830.88
371.33	2090.98
371.54	1916.90
371.75	2029.54
371.96	1765.35
372.17	1931.23
372.38	2000.87
372.59	1951.71
372.80	2021.35
373.01	1961.95
373.22	1943.52
373.43	1935.33
373.64	1851.36
373.85	1988.58
374.06	2099.17
374.26	1988.58
374.47	1994.72
374.68	2070.50
374.89	1937.38
375.10	1953.76
375.31	2027.49
375.52	1949.67
375.73	1906.66
375.94	1884.13
376.15	2047.97
376.36	1847.27
376.57	1849.32
376.78	1959.91
376.99	1980.39
377.20	2072.54
377.40	1927.14
377.61	2095.07
377.82	1882.08
378.03	2031.58
378.24	1982.43
378.45	1945.57
378.66	1939.43
378.87	1861.60
379.08	1943.52
379.29	2013.15
379.50	2140.13
379.71	1933.28
379.91	2002.91
380.12	1902.56
380.33	1875.94
380.54	1920.99
380.75	1939.43
380.96	1892.32
381.17	2064.35
381.38	1894.37
381.59	1978.34
381.80	1920.99
382.00	2146.27
382.21	1970.15
382.42	2160.61
382.63	2193.37
382.84	1951.71
383.05	2107.36
383.26	2088.93
383.47	1951.71
383.68	2031.58
383.88	2025.44
384.09	1984.48
384.30	2107.36
384.51	1916.90
384.72	2021.35
384.93	1857.51
385.14	1947.62
385.35	2058.21
385.55	1839.08
385.76	2013.15
385.97	2007.01
386.18	1853.41
386.39	1978.34
386.60	1955.81
386.81	1871.84
387.02	1861.60
387.22	1845.22
387.43	2004.96
387.64	2068.45
387.85	2117.60
388.06	2234.33
388.27	3895.24
388.48	8462.21
388.68	11999.05
388.89	14145.32
389.10	15324.95
389.31	13731.63
389.52	10858.33
389.73	9475.95
389.93	8546.17
390.14	7911.30
390.35	7200.66
390.56	6438.81
390.77	5302.19
390.98	4134.85
391.18	3174.35
391.39	2578.39
391.60	2146.27
391.81	2189.28
392.02	1992.67
392.23	2220.00
392.43	2080.74
392.64	2103.26
392.85	1937.38
393.06	2123.74
393.27	2011.11
393.47	1945.57
393.68	1941.47
393.89	1976.29
394.10	2140.13
394.31	1892.32
394.52	1859.56
394.72	1994.72
394.93	2142.18
395.14	1892.32
395.35	1998.82
395.56	1914.85
395.76	2021.35
395.97	2047.97
396.18	2093.02
396.39	2142.18
396.60	2451.42
396.80	2283.49
397.01	2138.08
397.22	2097.12
397.43	2142.18
397.64	1927.14
397.84	2031.58
398.05	2121.70
398.26	2027.49
398.47	1990.63
398.67	2031.58
398.88	1953.76
399.09	2017.25
399.30	1933.28
399.51	2045.92
399.71	1929.19
399.92	1945.57
400.13	1984.48
400.34	1943.52
400.54	2021.35
400.75	2140.13
400.96	2021.35
401.17	2072.54
401.37	2060.26
401.58	2025.44
401.79	1925.09
402.00	2056.16
402.21	2365.40
402.41	2248.67
402.62	2459.61
402.83	2400.22
403.04	2557.91
403.24	2500.57
403.45	2113.50
403.66	2207.71
403.87	2183.13
404.07	2254.81
404.28	2156.51
404.49	2187.23
404.70	2029.54
404.90	2031.58
405.11	2021.35
405.32	2007.01
405.52	1986.53
405.73	1992.67
405.94	1945.57
406.15	1900.52
406.35	1961.95
406.56	2058.21
406.77	1966.05
406.98	2011.11
407.18	1910.75
407.39	2101.22
407.60	1994.72
407.80	1955.81
408.01	1935.33
408.22	2068.45
408.43	1927.14
408.63	1976.29
408.84	1986.53
409.05	2058.21
409.25	1986.53
409.46	1910.75
409.67	1877.99
409.88	1873.89
410.08	1966.05
410.29	2007.01
410.50	1978.34
410.70	1970.15
410.91	1916.90
411.12	2045.92
411.32	1933.28
411.53	1998.82
411.74	2154.46
411.95	2107.36
412.15	2093.02
412.36	2123.74
412.57	2086.88
412.77	2111.46
412.98	1992.67
413.19	2023.39
413.39	2009.06
413.60	2027.49
413.81	2076.64
414.01	1931.23
414.22	2078.69
414.43	2037.73
414.63	1980.39
414.84	2013.15
415.05	2000.87
415.25	1877.99
415.46	2009.06
415.67	1896.42
415.87	2043.87
416.08	1964.00
416.29	1865.70
416.49	2021.35
416.70	1945.57
416.91	1914.85
417.11	1986.53
417.32	2078.69
417.53	2068.45
417.73	2000.87
417.94	1951.71
418.15	1994.72
418.35	1998.82
418.56	1892.32
418.77	2154.46
418.97	1957.86
419.18	1980.39
419.38	1886.18
419.59	1949.67
419.80	2002.91
420.00	1992.67
420.21	1994.72
420.42	2025.44
420.62	2047.97
420.83	1925.09
421.04	1998.82
421.24	1941.47
421.45	1988.58
421.65	1998.82
421.86	1939.43
422.07	2054.11
422.27	2060.26
422.48	1931.23
422.69	1894.37
422.89	1970.15
423.10	1961.95
423.30	1914.85
423.51	1951.71
423.72	2062.30
423.92	2021.35
424.13	1855.46
424.33	2095.07
424.54	1966.05
424.75	1996.77
424.95	2060.26
425.16	2060.26
425.36	1925.09
425.57	2023.39
425.78	1984.48
425.98	2037.73
426.19	1896.42
426.39	1851.36
426.60	1959.91
426.81	1990.63
427.01	2013.15
427.22	1923.04
427.42	1863.65
427.63	1939.43
427.83	2027.49
428.04	2009.06
428.25	2060.26
428.45	2009.06
428.66	2045.92
428.86	1935.33
429.07	1910.75
429.28	1935.33
429.48	1923.04
429.69	1953.76
429.89	2056.16
430.10	1802.21
430.30	1955.81
430.51	2013.15
430.71	1910.75
430.92	1910.75
431.13	1906.66
431.33	2015.20
431.54	1986.53
431.74	2076.64
431.95	2062.30
432.15	1949.67
432.36	1961.95
432.56	1980.39
432.77	2160.61
432.98	2097.12
433.18	2011.11
433.39	1947.62
433.59	1923.04
433.80	2119.65
434.00	2158.56
434.21	1880.04
434.41	1918.95
434.62	2101.22
434.82	1994.72
435.03	1937.38
435.23	1972.19
435.44	1822.69
435.64	2023.39
435.85	2000.87
436.06	1980.39
436.26	2099.17
436.47	1947.62
436.67	1896.42
436.88	1894.37
437.08	2027.49
437.29	2107.36
437.49	2037.73
437.70	2043.87
437.90	1953.76
438.11	2082.78
438.31	2041.82
438.52	2226.14
438.72	2129.89
438.93	2234.33
439.13	2086.88
439.34	2174.94
439.54	2007.01
439.75	2082.78
439.95	2045.92
440.16	1947.62
440.36	2035.68
440.57	2039.78
440.77	2045.92
440.98	1976.29
441.18	1978.34
441.39	1984.48
441.59	1904.61
441.80	2146.27
442.00	1888.23
442.21	2052.06
442.41	1964.00
442.62	2080.74
442.82	1898.47
443.02	1949.67
443.23	1964.00
443.43	1966.05
443.64	2009.06
443.84	1906.66
444.05	2131.94
444.25	2007.01
444.46	1935.33
444.66	1943.52
444.87	2056.16
445.07	1918.95
445.28	1964.00
445.48	2107.36
445.69	1972.19
445.89	2183.13
446.09	1988.58
446.30	2228.19
446.50	2568.15
446.71	4063.17
446.91	5230.51
447.12	6174.63
447.32	6404.00
447.53	5814.18
447.73	4743.10
447.93	4378.56
448.14	3938.24
448.34	3741.64
448.55	3483.59
448.75	3450.83
448.96	3198.93
449.16	2893.78
449.36	2772.95
449.57	2320.35
449.77	2170.85
449.98	1996.77
450.18	2090.98
450.39	2043.87
450.59	2080.74
450.79	1951.71
451.00	1929.19
451.20	2025.44
451.41	1961.95
451.61	2035.68
451.81	1974.24
452.02	1996.77
452.22	2054.11
452.43	1898.47
452.63	1982.43
452.84	1933.28
453.04	2009.06
453.24	2035.68
453.45	1970.15
453.65	1996.77
453.86	1902.56
454.06	2074.59
454.26	1970.15
454.47	1927.14
454.67	2068.45
454.87	2088.93
455.08	2066.40
455.28	2129.89
455.49	2058.21
455.69	1931.23
455.89	2154.46
456.10	2027.49
456.30	1890.28
456.51	1986.53
456.71	1984.48
456.91	2004.96
457.12	1914.85
457.32	2021.35
457.52	1890.28
457.73	1935.33
457.93	2013.15
458.14	1910.75
458.34	1853.41
458.54	1998.82
458.75	1964.00
458.95	2045.92
459.15	1939.43
459.36	1953.76
459.56	2043.87
459.76	2125.79
459.97	1994.72
460.17	1955.81
460.37	2064.35
460.58	1961.95
460.78	2011.11
460.99	1900.52
461.19	1994.72
461.39	1920.99
461.60	2009.06
461.80	1974.24
462.00	1925.09
462.21	1877.99
462.41	1853.41
462.61	1863.65
462.82	1845.22
463.02	1939.43
463.22	2025.44
463.43	2047.97
463.63	1966.05
463.83	2050.02
464.04	2045.92
464.24	1937.38
464.44	1959.91
464.64	1972.19
464.85	2086.88
465.05	2023.39
465.25	2050.02
465.46	1867.75
465.66	2019.30
465.86	2058.21
466.07	2025.44
466.27	1953.76
466.47	1900.52
466.68	1914.85
466.88	2105.31
467.08	1978.34
467.29	1982.43
467.49	2023.39
467.69	1964.00
467.89	1966.05
468.10	1871.84
468.30	2047.97
468.50	2115.55
468.71	2021.35
468.91	1877.99
469.11	2131.94
469.31	2017.25
469.52	1980.39
469.72	2111.46
469.92	2164.70
470.13	2009.06
470.33	2009.06
470.53	2058.21
470.73	2396.12
470.94	2858.96
471.14	2961.36
471.34	3252.17
471.54	3274.70
471.75	2912.21
471.95	2682.84
472.15	2592.73
472.36	2559.96
472.56	2510.81
472.76	2463.71
472.96	2402.27
473.17	2342.88
473.37	2263.01
473.57	2082.78
473.77	2105.31
473.98	2099.17
474.18	1966.05
474.38	2133.98
474.58	1937.38
474.79	1900.52
474.99	2004.96
475.19	2097.12
475.39	1875.94
475.60	2056.16
475.80	2000.87
476.00	1953.76
476.20	1880.04
476.41	1947.62
476.61	2076.64
476.81	2021.35
477.01	1935.33
477.21	2068.45
477.42	2105.31
477.62	1925.09
477.82	2039.78
478.02	1935.33
478.23	2039.78
478.43	1914.85
478.63	1996.77
478.83	1974.24
479.03	1941.47
479.24	2054.11
479.44	2123.74
479.64	1877.99
479.84	1853.41
480.04	1931.23
480.25	2047.97
480.45	1923.04
480.65	1974.24
480.85	1970.15
481.06	1920.99
481.26	2029.54
481.46	1935.33
481.66	1939.43
481.86	1871.84
482.06	2050.02
482.27	1947.62
482.47	1955.81
482.67	1968.10
482.87	1957.86
483.07	2031.58
483.28	1937.38
483.48	1908.71
483.68	1871.84
483.88	1855.46
484.08	1894.37
484.29	1910.75
484.49	1955.81
484.69	1937.38
484.89	2168.80
485.09	1998.82
485.29	2037.73
485.50	2035.68
485.70	2004.96
485.90	2054.11
486.10	2039.78
486.30	1966.05
486.50	2068.45
486.71	2025.44
486.91	1955.81
487.11	2086.88
487.31	1882.08
487.51	1912.80
487.71	1953.76
487.91	1988.58
488.12	1920.99
488.32	1824.74
488.52	1896.42
488.72	1847.27
488.92	2021.35
489.12	2023.39
489.32	2047.97
489.53	2021.35
489.73	1882.08
489.93	2138.08
490.13	1896.42
490.33	1849.32
490.53	1943.52
490.73	2027.49
490.94	1898.47
491.14	2002.91
491.34	2111.46
491.54	2324.44
491.74	2932.69
491.94	3389.39
492.14	3760.07
492.34	3874.76
492.54	3581.90
492.75	3045.33
492.95	2873.30
493.15	2748.37
493.35	2658.26
493.55	2543.58
493.75	2430.94
493.95	2504.67
494.15	2279.39
494.35	2281.44
494.56	2090.98
494.76	2009.06
494.96	2117.60
495.16	2088.93
495.36	1964.00
495.56	1947.62
495.76	1894.37
495.96	1943.52
496.16	1873.89
496.36	2158.56
496.56	1912.80
496.77	2013.15
496.97	1996.77
497.17	2095.07
497.37	1896.42
497.57	2002.91
497.77	1978.34
497.97	1947.62
498.17	2004.96
498.37	1886.18
498.57	1943.52
498.77	1935.33
498.97	2066.40
499.17	2142.18
499.38	1947.62
499.58	2152.42
499.78	2039.78
499.98	2066.40
500.18	1916.90
500.38	1943.52
500.58	2158.56
500.78	2557.91
500.98	4634.55
501.18	7051.16
501.38	8748.92
501.58	9516.91
501.78	9465.71
501.98	7550.86
502.18	6234.02
502.38	5300.14
502.58	4980.66
502.78	4444.09
502.98	4151.23
503.18	4075.46
503.38	3731.40
503.59	3164.11
503.79	3045.33
503.99	2801.62
504.19	2633.69
504.39	2605.02
504.59	2662.36
504.79	2617.30
504.99	2570.20
505.19	2303.96
505.39	2314.20
505.59	2338.78
505.79	2174.94
505.99	2123.74
506.19	2168.80
506.39	2226.14
506.59	1986.53
506.79	1984.48
506.99	2174.94
507.19	1996.77
507.39	2058.21
507.59	1908.71
507.79	1943.52
507.99	1914.85
508.19	1970.15
508.39	1949.67
508.59	2058.21
508.79	2105.31
508.99	2129.89
509.19	1916.90
509.39	2056.16
509.59	1935.33
509.79	1945.57
509.99	1947.62
510.19	2041.82
510.39	2074.59
510.59	1912.80
510.79	1892.32
510.99	1984.48
511.19	1998.82
511.39	2158.56
511.59	2082.78
511.79	1996.77
511.99	2043.87
512.19	2107.36
512.38	2037.73
512.58	1931.23
512.78	1984.48
512.98	2076.64
513.18	2054.11
513.38	1839.08
513.58	1988.58
513.78	1916.90
513.98	2004.96
514.18	1980.39
514.38	1918.95
514.58	2045.92
514.78	1980.39
514.98	1884.13
515.18	1906.66
515.38	1890.28
515.58	2162.66
515.78	1906.66
515.98	1964.00
516.18	2027.49
516.38	1992.67
516.57	1953.76
516.77	1898.47
516.97	2043.87
517.17	1961.95
517.37	1888.23
517.57	2099.17
517.77	2007.01
517.97	1929.19
518.17	2021.35
518.37	1943.52
518.57	1978.34
518.77	1970.15
518.97	1939.43
519.16	1966.05
519.36	2084.83
519.56	1947.62
519.76	1957.86
519.96	1953.76
520.16	2101.22
520.36	1927.14
520.56	2074.59
520.76	1972.19
520.96	1964.00
521.16	2037.73
521.35	2078.69
521.55	2148.32
521.75	2007.01
521.95	1892.32
522.15	1875.94
522.35	1880.04
522.55	1974.24
522.75	2062.30
522.95	1951.71
523.14	1964.00
523.34	2043.87
523.54	1970.15
523.74	2033.63
523.94	2029.54
524.14	1849.32
524.34	2095.07
524.54	2080.74
524.73	1884.13
524.93	1996.77
525.13	2064.35
525.33	1896.42
525.53	2162.66
525.73	1972.19
525.93	1918.95
526.13	1939.43
526.32	2031.58
526.52	2007.01
526.72	2113.50
526.92	1988.58
527.12	1896.42
527.32	1906.66
527.52	1980.39
527.71	2099.17
527.91	2023.39
528.11	1906.66
528.31	1959.91
528.51	1902.56
528.71	2056.16
528.90	2054.11
529.10	2080.74
529.30	2047.97
529.50	1777.64
529.70	1988.58
529.90	2011.11
530.09	2015.20
530.29	1839.08
530.49	1912.80
530.69	2170.85
530.89	1914.85
531.09	2045.92
531.28	1949.67
531.48	2004.96
531.68	2025.44
531.88	2025.44
532.08	2017.25
532.28	2002.91
532.47	2029.54
532.67	2052.06
532.87	1964.00
533.07	1949.67
533.27	2060.26
533.46	2013.15
533.66	2023.39
533.86	2007.01
534.06	1984.48
534.26	2056.16
534.45	1988.58
534.65	2076.64
534.85	2047.97
535.05	1937.38
535.25	2021.35
535.44	1925.09
535.64	2043.87
535.84	1980.39
536.04	2004.96
536.24	1923.04
536.43	1914.85
536.63	2013.15
536.83	1994.72
537.03	1968.10
537.22	1863.65
537.42	1834.98
537.62	2009.06
537.82	1957.86
538.02	2062.30
538.21	2099.17
538.41	2176.99
538.61	1961.95
538.81	2060.26
539.00	2084.83
539.20	1904.61
539.40	1871.84
539.60	2074.59
539.79	2035.68
539.99	1943.52
540.19	1945.57
540.39	1898.47
540.58	1982.43
540.78	2058.21
540.98	2066.40
541.18	2002.91
541.37	2007.01
541.57	2068.45
541.77	1982.43
541.97	1839.08
542.16	1859.56
542.36	1992.67
542.56	2004.96
542.76	2133.98
542.95	2007.01
543.15	2062.30
543.35	2035.68
543.54	1955.81
543.74	1929.19
543.94	2047.97
544.14	1900.52
544.33	2000.87
544.53	1920.99
544.73	1935.33
544.93	1935.33
545.12	1929.19
545.32	1959.91
545.52	1968.10
545.71	1902.56
545.91	1951.71
546.11	1914.85
546.30	1853.41
546.50	1941.47
546.70	2037.73
546.90	1994.72
547.09	1863.65
547.29	1986.53
547.49	2107.36
547.68	2052.06
547.88	1941.47
548.08	2002.91
548.27	2508.76
548.47	1978.34
548.67	2029.54
548.87	2064.35
549.06	1927.14
549.26	2072.54
549.46	1953.76
549.65	1871.84
549.85	2025.44
550.05	2011.11
550.24	1890.28
550.44	2035.68
550.64	1953.76
550.83	2021.35
551.03	2025.44
551.23	2076.64
551.42	1939.43
551.62	1978.34
551.82	2007.01
552.01	1951.71
552.21	2138.08
552.41	2023.39
552.60	2084.83
552.80	2066.40
553.00	1888.23
553.19	1908.71
553.39	2119.65
553.59	1867.75
553.78	1941.47
553.98	1988.58
554.17	1871.84
554.37	1937.38
554.57	2050.02
554.76	1857.51
554.96	1906.66
555.16	1943.52
555.35	2007.01
555.55	1990.63
555.75	2068.45
555.94	2078.69
556.14	1839.08
556.33	1980.39
556.53	1970.15
556.73	1947.62
556.92	2017.25
557.12	2125.79
557.32	2131.94
557.51	2047.97
557.71	2045.92
557.90	2090.98
558.10	2127.84
558.30	1927.14
558.49	1976.29
558.69	1937.38
558.88	1992.67
559.08	1986.53
559.28	1877.99
559.47	2029.54
559.67	2035.68
559.86	2119.65
560.06	1882.08
560.26	2023.39
560.45	1998.82
560.65	1974.24
560.84	2007.01
561.04	1976.29
561.24	1986.53
561.43	1882.08
561.63	2074.59
561.82	2023.39
562.02	2058.21
562.22	1947.62
562.41	1927.14
562.61	1896.42
562.80	1877.99
563.00	2176.99
563.19	2031.58
563.39	2007.01
563.59	1972.19
563.78	1945.57
563.98	1900.52
564.17	1947.62
564.37	1841.12
564.56	1976.29
564.76	1822.69
564.96	2129.89
565.15	1964.00
565.35	2152.42
565.54	2011.11
565.74	1992.67
565.93	1988.58
566.13	2011.11
566.32	2050.02
566.52	2093.02
566.71	1961.95
566.91	2074.59
567.11	1982.43
567.30	1880.04
567.50	2078.69
567.69	1937.38
567.89	1957.86
568.08	1935.33
568.28	2035.68
568.47	1929.19
568.67	1968.10
568.86	1890.28
569.06	2074.59
569.25	1888.23
569.45	1875.94
569.64	1929.19
569.84	2025.44
570.04	2070.50
570.23	1984.48
570.43	2013.15
570.62	2027.49
570.82	2119.65
571.01	1873.89
571.21	1873.89
571.40	1959.91
571.60	2066.40
571.79	2047.97
571.99	1992.67
572.18	1873.89
572.38	2066.40
572.57	1996.77
572.77	2011.11
572.96	2158.56
573.16	1959.91
573.35	2025.44
573.55	2041.82
573.74	2062.30
573.94	1947.62
574.13	1920.99
574.33	2101.22
574.52	2019.30
574.71	2011.11
574.91	2023.39
575.10	1939.43
575.30	1978.34
575.49	2025.44
575.69	1939.43
575.88	2133.98
576.08	2013.15
576.27	2179.04
576.47	2101.22
576.66	2236.38
576.86	2131.94
577.05	2078.69
577.25	2115.55
577.44	2148.32
577.64	1992.67
577.83	2131.94
578.02	2058.21
578.22	2099.17
578.41	2084.83
578.61	1968.10
578.80	1857.51
579.00	1984.48
579.19	2007.01
579.39	1994.72
579.58	2105.31
579.77	1961.95
579.97	2133.98
580.16	2127.84
580.36	2060.26
580.55	2111.46
580.75	1970.15
580.94	2103.26
581.13	2207.71
581.33	2146.27
581.52	1986.53
581.72	2209.76
581.91	2197.47
582.11	2101.22
582.30	2090.98
582.49	2037.73
582.69	2174.94
582.88	2068.45
583.08	2064.35
583.27	2101.22
583.47	2017.25
583.66	2004.96
583.85	1941.47
584.05	1984.48
584.24	2097.12
584.44	2029.54
584.63	2121.70
584.82	2191.33
585.02	2271.20
585.21	2205.66
585.41	2199.52
585.60	2129.89
585.79	2256.86
585.99	2258.91
586.18	2164.70
586.37	2602.97
586.57	3944.39
586.76	11700.05
586.96	29859.38
587.15	44297.56
587.34	53873.87
587.54	59462.77
587.73	55766.19
587.93	39769.51
588.12	29623.87
588.31	23608.98
588.51	20283.08
588.70	18925.28
588.89	16938.75
589.09	14999.32
589.28	13057.85
589.47	10800.99
589.67	8515.45
589.86	6606.75
590.06	4767.67
590.25	3909.57
590.44	3110.86
590.64	2633.69
590.83	2383.84
591.02	2297.82
591.22	2164.70
591.41	2244.57
591.60	2045.92
591.80	2303.96
591.99	2021.35
592.18	2031.58
592.38	2199.52
592.57	1978.34
592.76	2058.21
592.96	1978.34
593.15	2117.60
593.34	2105.31
593.54	2029.54
593.73	2052.06
593.92	2090.98
594.12	2166.75
594.31	2086.88
594.50	2150.37
594.70	2107.36
594.89	2220.00
595.08	1894.37
595.28	2080.74
595.47	2265.05
595.66	2101.22
595.86	1951.71
596.05	2027.49
596.24	1998.82
596.43	2156.51
596.63	2107.36
596.82	2070.50
597.01	1964.00
597.21	2115.55
597.40	2111.46
597.59	2078.69
597.79	1953.76
597.98	2095.07
598.17	2043.87
598.36	2086.88
598.56	2111.46
598.75	2025.44
598.94	2060.26
599.14	1988.58
599.33	1980.39
599.52	2072.54
599.71	1994.72
599.91	2064.35
600.10	2072.54
600.29	1957.86
600.48	2025.44
600.68	2000.87
600.87	2004.96
601.06	1972.19
601.26	1939.43
601.45	1945.57
601.64	1959.91
601.83	2099.17
602.03	1974.24
602.22	1906.66
602.41	2007.01
602.60	2142.18
602.80	2095.07
602.99	2041.82
603.18	2004.96
603.37	1992.67
603.57	2007.01
603.76	2019.30
603.95	2054.11
604.14	1964.00
604.34	1912.80
604.53	1927.14
604.72	1990.63
604.91	2000.87
605.10	2047.97
605.30	1884.13
605.49	2101.22
605.68	2078.69
605.87	2109.41
606.07	1898.47
606.26	2084.83
606.45	2047.97
606.64	2080.74
606.84	1927.14
607.03	2011.11
607.22	2150.37
607.41	2041.82
607.60	1945.57
607.80	2082.78
607.99	1966.05
608.18	2037.73
608.37	2047.97
608.56	1931.23
608.76	2103.26
608.95	2125.79
609.14	2019.30
609.33	2127.84
609.52	2138.08
609.72	1998.82
609.91	2099.17
610.10	2043.87
610.29	2176.99
610.48	2101.22
610.68	2054.11
610.87	1982.43
611.06	2045.92
611.25	1984.48
611.44	2047.97
611.63	1892.32
611.83	2172.89
612.02	1847.27
612.21	2121.70
612.40	1859.56
612.59	1882.08
612.79	1888.23
612.98	1939.43
613.17	2097.12
613.36	1974.24
613.55	2074.59
613.74	2068.45
613.93	2125.79
614.13	2220.00
614.32	2265.05
614.51	2254.81
614.70	2093.02
614.89	2060.26
615.08	2064.35
615.28	2496.47
615.47	1998.82
615.66	2097.12
615.85	2099.17
616.04	2176.99
616.23	2019.30
616.42	1994.72
616.62	2097.12
616.81	2035.68
617.00	2009.06
617.19	1966.05
617.38	2052.06
617.57	2000.87
617.76	1972.19
617.95	2103.26
618.15	1974.24
618.34	2121.70
618.53	1937.38
618.72	2072.54
618.91	2133.98
619.10	2152.42
619.29	1970.15
619.48	2029.54
619.68	2000.87
619.87	1914.85
620.06	1980.39
620.25	2054.11
620.44	1935.33
620.63	1951.71
620.82	2113.50
621.01	2082.78
621.20	1900.52
621.39	2060.26
621.59	2011.11
621.78	2002.91
621.97	2025.44
622.16	2009.06
622.35	1947.62
622.54	2023.39
622.73	2064.35
622.92	1908.71
623.11	2062.30
623.30	2072.54
623.49	1941.47
623.68	1902.56
623.88	2035.68
624.07	2004.96
624.26	2052.06
624.45	2050.02
624.64	2017.25
624.83	1986.53
625.02	1931.23
625.21	1957.86
625.40	1978.34
625.59	2041.82
625.78	2078.69
625.97	2015.20
626.16	2258.91
626.35	2070.50
626.54	2109.41
626.74	2158.56
626.93	2041.82
627.12	2052.06
627.31	2138.08
627.50	2058.21
627.69	2074.59
627.88	1935.33
628.07	1970.15
628.26	1970.15
628.45	1925.09
628.64	1941.47
628.83	2009.06
629.02	1968.10
629.21	2052.06
629.40	1945.57
629.59	1908.71
629.78	1947.62
629.97	1968.10
630.16	1992.67
630.35	1894.37
630.54	2025.44
630.73	1951.71
630.92	1959.91
631.11	1859.56
631.30	2013.15
631.49	1980.39
631.68	1972.19
631.87	1998.82
632.06	1933.28
632.25	2158.56
632.44	2015.20
632.63	2019.30
632.82	2129.89
633.01	2039.78
633.20	2101.22
633.39	2086.88
633.58	2050.02
633.77	2113.50
633.96	2115.55
634.15	2074.59
634.34	2058.21
634.53	2056.16
634.72	1904.61
634.91	1863.65
635.10	1984.48
635.29	2088.93
635.48	1953.76
635.67	1892.32
635.86	1886.18
636.05	2058.21
636.24	2009.06
636.43	1968.10
636.62	2060.26
636.81	1826.79
637.00	1941.47
637.19	1974.24
637.38	2011.11
637.57	1935.33
637.76	2021.35
637.95	2138.08
638.14	2066.40
638.33	2125.79
638.52	2068.45
638.71	1910.75
638.89	1978.34
639.08	2222.05
639.27	2150.37
639.46	2220.00
639.65	2621.40
639.84	2701.27
640.03	2793.43
640.22	2756.57
640.41	2664.41
640.60	2375.64
640.79	2303.96
640.98	2070.50
641.17	2183.13
641.36	2254.81
641.55	2172.89
641.74	2043.87
641.92	2047.97
642.11	2025.44
642.30	1951.71
642.49	1935.33
642.68	1902.56
642.87	1964.00
643.06	2000.87
643.25	1945.57
643.44	1925.09
643.63	1990.63
643.82	1970.15
644.00	1929.19
644.19	1982.43
644.38	1910.75
644.57	1994.72
644.76	1972.19
644.95	1955.81
645.14	1982.43
645.33	1980.39
645.52	1986.53
645.71	1880.04
645.89	1925.09
646.08	1869.80
646.27	1972.19
646.46	2103.26
646.65	1841.12
646.84	2027.49
647.03	1925.09
647.22	2099.17
647.40	1927.14
647.59	1957.86
647.78	1824.74
647.97	1976.29
648.16	1894.37
648.35	2162.66
648.54	2084.83
648.73	1947.62
648.91	2076.64
649.10	1980.39
649.29	1957.86
649.48	2027.49
649.67	2066.40
649.86	1892.32
650.05	2062.30
650.23	2244.57
650.42	2080.74
650.61	2207.71
650.80	2095.07
650.99	2310.11
651.18	2183.13
651.36	2119.65
651.55	2021.35
651.74	2074.59
651.93	1920.99
652.12	1996.77
652.31	1966.05
652.49	1949.67
652.68	2021.35
652.87	2125.79
653.06	1982.43
653.25	2185.18
653.44	2037.73
653.62	2250.72
653.81	2004.96
654.00	1918.95
654.19	2080.74
654.38	2217.95
654.56	2054.11
654.75	1929.19
654.94	2039.78
655.13	1920.99
655.32	1974.24
655.51	2013.15
655.69	1906.66
655.88	2000.87
656.07	1918.95
656.26	1988.58
656.45	1886.18
656.63	2035.68
656.82	1941.47
657.01	2060.26
657.20	1923.04
657.38	2039.78
657.57	2021.35
657.76	1830.88
657.95	2078.69
658.14	1972.19
658.32	1970.15
658.51	1894.37
658.70	1990.63
658.89	1949.67
659.08	1951.71
659.26	2148.32
659.45	1976.29
659.64	2052.06
659.83	2060.26
660.01	2285.53
660.20	1984.48
660.39	2127.84
660.58	1820.64
660.76	2039.78
660.95	1886.18
661.14	1949.67
661.33	1871.84
661.51	1935.33
661.70	1906.66
661.89	2084.83
662.08	1978.34
662.26	1880.04
662.45	1859.56
662.64	2017.25
662.83	2054.11
663.01	1851.36
663.20	1947.62
663.39	2002.91
663.58	1916.90
663.76	1933.28
663.95	2013.15
664.14	1847.27
664.32	1933.28
664.51	1953.76
664.70	1812.45
664.89	2082.78
665.07	1884.13
665.26	2105.31
665.45	1892.32
665.64	1990.63
665.82	1982.43
666.01	2009.06
666.20	1877.99
666.38	2093.02
666.57	2164.70
666.76	2750.42
666.95	6508.44
667.13	14927.64
667.32	20788.93
667.51	24602.25
667.69	26941.03
667.88	25669.24
668.07	18429.67
668.25	14317.35
668.44	11591.50
668.63	9801.58
668.81	8701.82
669.00	7788.43
669.19	6987.67
669.38	6039.46
669.56	5218.22
669.75	4417.47
669.94	3749.83
670.12	3055.57
670.31	2684.89
670.50	2496.47
670.68	2275.29
670.87	2127.84
671.06	2031.58
671.24	2099.17
671.43	2136.03
671.62	2174.94
671.80	1939.43
671.99	1941.47
672.18	2074.59
672.36	2093.02
672.55	2013.15
672.74	2017.25
672.92	1904.61
673.11	2076.64
673.29	1902.56
673.48	2060.26
673.67	2031.58
673.85	2027.49
674.04	1888.23
674.23	2004.96
674.41	2115.55
674.60	1961.95
674.79	1904.61
674.97	1900.52
675.16	2060.26
675.34	2007.01
675.53	1953.76
675.72	1976.29
675.90	2084.83
676.09	1972.19
676.28	2019.30
676.46	1871.84
676.65	2002.91
676.83	1882.08
677.02	1947.62
677.21	1945.57
677.39	2017.25
677.58	1859.56
677.77	1976.29
677.95	1925.09
678.14	1935.33
678.32	1976.29
678.51	1943.52
678.70	2131.94
678.88	1957.86
679.07	2002.91
679.25	2033.63
679.44	2033.63
679.63	1849.32
679.81	1941.47
680.00	2088.93
680.18	2017.25
680.37	2088.93
680.55	1896.42
680.74	1925.09
680.93	1812.45
681.11	2056.16
681.30	2013.15
681.48	1978.34
681.67	1998.82
681.85	2013.15
682.04	1961.95
682.23	2031.58
682.41	2031.58
682.60	1978.34
682.78	1937.38
682.97	1812.45
683.15	1947.62
683.34	1949.67
683.53	2142.18
683.71	1888.23
683.90	2099.17
684.08	2127.84
684.27	1953.76
684.45	1902.56
684.64	2099.17
684.82	1980.39
685.01	1957.86
685.19	1990.63
685.38	2072.54
685.57	1994.72
685.75	1918.95
685.94	1916.90
686.12	1867.75
686.31	1923.04
686.49	2070.50
686.68	1851.36
686.86	1955.81
687.05	1939.43
687.23	2158.56
687.42	1920.99
687.60	1900.52
687.79	2000.87
687.97	2047.97
688.16	2033.63
688.34	2080.74
688.53	1849.32
688.71	1935.33
688.90	2144.22
689.08	1873.89
689.27	1886.18
689.45	2013.15
689.64	2045.92
689.82	1990.63
690.01	1996.77
690.19	1927.14
690.38	1970.15
690.56	1970.15
690.75	1853.41
690.93	1863.65
691.12	1884.13
691.30	1992.67
691.49	1990.63
691.67	1908.71
691.86	2121.70
692.04	1990.63
692.23	2021.35
692.41	1992.67
692.60	2232.29
692.78	2035.68
692.97	2093.02
693.15	2082.78
693.34	2107.36
693.52	2113.50
693.71	1923.04
693.89	1947.62
694.08	1898.47
694.26	2052.06
694.44	2148.32
694.63	2099.17
694.81	1871.84
695.00	1943.52
695.18	2039.78
695.37	2205.66
695.55	1974.24
695.74	1976.29
695.92	1869.80
696.10	2088.93
696.29	1902.56
696.47	2007.01
696.66	1978.34
696.84	1910.75
697.03	1867.75
697.21	2211.81
697.40	2836.44
697.58	2033.63
697.76	1951.71
697.95	1933.28
698.13	1890.28
698.32	1964.00
698.50	1974.24
698.68	2009.06
698.87	1978.34
699.05	2052.06
699.24	1929.19
699.42	1961.95
699.61	1972.19
699.79	2004.96
699.97	1957.86
700.16	1888.23
700.34	1937.38
700.53	1968.10
700.71	2031.58
700.89	1994.72
701.08	2015.20
701.26	2033.63
701.45	2449.37
701.63	1843.17
701.81	1996.77
702.00	1935.33
702.18	2062.30
702.37	2031.58
702.55	2217.95
702.73	2232.29
702.92	2156.51
703.10	2299.87
703.28	2201.57
703.47	2148.32
703.65	2205.66
703.84	2033.63
704.02	2002.91
704.20	2117.60
704.39	2039.78
704.57	1990.63
704.75	2066.40
704.94	2015.20
705.12	2082.78
705.30	2230.24
705.49	3549.13
705.67	9426.80
705.86	18984.67
706.04	23578.26
706.22	27086.43
706.41	28563.02
706.59	25826.93
706.77	18462.44
706.96	14620.45
707.14	12609.34
707.32	11001.69
707.51	9832.30
707.69	8165.25
707.87	6584.22
708.06	5144.50
708.24	4286.40
708.42	3243.98
708.61	2914.26
708.79	2365.40
708.97	2168.80
709.16	2195.42
709.34	2099.17
709.52	2039.78
709.71	2029.54
709.89	2064.35
710.07	1964.00
710.26	1927.14
710.44	1910.75
710.62	2172.89
710.80	1933.28
710.99	2004.96
711.17	2017.25
711.35	2002.91
711.54	1925.09
711.72	1996.77
711.90	2074.59
712.09	2074.59
712.27	1933.28
712.45	2072.54
712.63	1927.14
712.82	1947.62
713.00	1916.90
713.18	2060.26
713.37	1959.91
713.55	2052.06
713.73	2035.68
713.91	1961.95
714.10	1929.19
714.28	1935.33
714.46	2039.78
714.65	1947.62
714.83	1994.72
715.01	2017.25
715.19	2025.44
715.38	1834.98
715.56	1988.58
715.74	1994.72
715.92	1892.32
716.11	2080.74
716.29	1884.13
716.47	1912.80
716.65	1886.18
716.84	1853.41
717.02	1974.24
717.20	1839.08
717.38	1884.13
717.57	2019.30
717.75	2013.15
717.93	1955.81
718.11	1968.10
718.30	1929.19
718.48	1970.15
718.66	2072.54
718.84	2021.35
719.03	1984.48
719.21	1857.51
719.39	2152.42
719.57	2017.25
719.75	1959.91
719.94	1800.16
720.12	1947.62
720.30	1961.95
720.48	1968.10
720.67	1923.04
720.85	1896.42
721.03	1914.85
721.21	1916.90
721.39	1980.39
721.58	2013.15
721.76	2017.25
721.94	1959.91
722.12	1953.76
722.30	2070.50
722.49	1931.23
722.67	1845.22
722.85	1990.63
723.03	1785.83
723.21	1935.33
723.40	2025.44
723.58	2031.58
723.76	2080.74
723.94	2074.59
724.12	2090.98
724.30	2185.18
724.49	2189.28
724.67	1957.86
724.85	2164.70
725.03	1867.75
725.21	1959.91
725.40	2152.42
725.58	1892.32
725.76	2072.54
725.94	2056.16
726.12	1953.76
726.30	1908.71
726.49	1976.29
726.67	1980.39
726.85	2000.87
727.03	2258.91
727.21	3207.12
727.39	4865.97
727.57	6164.39
727.76	6774.68
727.94	7311.25
728.12	7290.77
728.30	5838.76
728.48	4693.94
728.66	4382.65
728.84	3930.05
729.03	3434.44
729.21	3004.37
729.39	2639.83
729.57	2289.63
729.75	2150.37
729.93	2101.22
730.11	2045.92
730.30	1939.43
730.48	1998.82
730.66	2123.74
730.84	2060.26
731.02	2004.96
731.20	1918.95
731.38	1959.91
731.56	1800.16
731.74	1882.08
731.93	2009.06
732.11	1927.14
732.29	1904.61
732.47	1964.00
732.65	1980.39
732.83	2086.88
733.01	2029.54
733.19	1880.04
733.37	1982.43
733.56	2000.87
733.74	1910.75
733.92	2007.01
734.10	1894.37
734.28	2064.35
734.46	1787.88
734.64	1937.38
734.82	1961.95
735.00	1886.18
735.18	2035.68
735.36	1970.15
735.54	1902.56
735.73	1957.86
735.91	1966.05
736.09	2068.45
736.27	1953.76
736.45	1996.77
736.63	1832.93
736.81	1925.09
736.99	2037.73
737.17	2023.39
737.35	1941.47
737.53	1978.34
737.71	2031.58
737.89	2041.82
738.07	2015.20
738.25	1861.60
738.43	1806.31
738.61	1953.76
738.80	1880.04
738.98	1902.56
739.16	1982.43
739.34	1947.62
739.52	2002.91
739.70	1845.22
739.88	2037.73
740.06	2031.58
740.24	1789.92
740.42	2047.97
740.60	1855.46
740.78	1939.43
740.96	1849.32
741.14	2004.96
741.32	1986.53
741.50	1902.56
741.68	2119.65
741.86	2062.30
742.04	1853.41
742.22	1920.99
742.40	1959.91
742.58	2023.39
742.76	1984.48
742.94	1982.43
743.12	1865.70
743.30	1964.00
743.48	1970.15
743.66	1908.71
743.84	1968.10
744.02	1976.29
744.20	1947.62
744.38	1974.24
744.56	1929.19
744.74	2113.50
744.92	2013.15
745.10	2045.92
745.28	2086.88
745.46	2099.17
745.64	1918.95
745.82	2039.78
746.00	1949.67
746.18	1966.05
746.36	1957.86
746.54	1986.53
746.72	1968.10
746.90	1927.14
747.08	2039.78
747.26	1982.43
747.44	2125.79
747.62	1939.43
747.80	1884.13
747.98	1994.72
748.15	1943.52
748.33	2078.69
748.51	1974.24
748.69	2039.78
748.87	1964.00
749.05	1898.47
749.23	1900.52
749.41	1984.48
749.59	1955.81
749.77	1988.58
749.95	1914.85
750.13	1892.32
750.31	2033.63
750.49	1978.34
750.67	2033.63
750.85	2078.69
751.03	2037.73
751.20	2136.03
751.38	1937.38
751.56	1933.28
751.74	1970.15
751.92	1873.89
752.10	1914.85
752.28	1988.58
752.46	1877.99
752.64	1861.60
752.82	1943.52
753.00	1996.77
753.18	1918.95
753.35	1959.91
753.53	2015.20
753.71	1955.81
753.89	2066.40
754.07	1945.57
754.25	1953.76
754.43	1949.67
754.61	1875.94
754.79	1994.72
754.97	1953.76
755.14	2007.01
755.32	1851.36
755.50	1978.34
755.68	1894.37
755.86	1894.37
756.04	1898.47
756.22	1884.13
756.40	2015.20
756.57	2078.69
756.75	1937.38
756.93	2113.50
757.11	2041.82
757.29	1908.71
757.47	1912.80
757.65	1820.64
757.82	1832.93
758.00	1898.47
758.18	1814.50
758.36	1939.43
758.54	2015.20
758.72	1834.98
758.90	2031.58
759.07	1982.43
759.25	1916.90
759.43	1974.24
759.61	1832.93
759.79	2615.26
759.97	2090.98
760.15	1943.52
760.32	1937.38
760.50	1916.90
760.68	2095.07
760.86	1875.94
761.04	2043.87
761.22	2019.30
761.39	1968.10
761.57	2009.06
761.75	1949.67
761.93	1970.15
762.11	1966.05
762.28	1959.91
762.46	1837.03
762.64	1986.53
762.82	1851.36
763.00	1955.81
763.18	2025.44
763.35	1877.99
763.53	2052.06
763.71	1939.43
763.89	2004.96
764.07	1964.00
764.24	1953.76
764.42	2023.39
764.60	1980.39
764.78	1949.67
764.96	1933.28
765.13	2004.96
765.31	1902.56
765.49	2015.20
765.67	1898.47
765.84	1939.43
766.02	1920.99
766.20	1794.02
766.38	2000.87
766.56	1951.71
766.73	1964.00
766.91	2019.30
767.09	1990.63
767.27	1994.72
767.44	1845.22
767.62	1918.95
767.80	1916.90
767.98	1900.52
768.15	1925.09
768.33	1939.43
768.51	2000.87
768.69	1982.43
768.87	2045.92
769.04	1955.81
769.22	2131.94
769.40	2054.11
769.58	2127.84
769.75	2031.58
769.93	2033.63
770.11	1974.24
770.28	1867.75
770.46	1957.86
770.64	1980.39
770.82	1853.41
770.99	1877.99
771.17	2011.11
771.35	1959.91
771.53	1984.48
771.70	1982.43
771.88	1970.15
772.06	1925.09
772.23	2000.87
772.41	1949.67
772.59	1964.00
772.77	1935.33
772.94	1943.52
773.12	2009.06
773.30	1896.42
773.47	1929.19
773.65	1898.47
773.83	2103.26
774.01	1867.75
774.18	1802.21
774.36	1918.95
774.54	1871.84
774.71	1918.95
774.89	1857.51
775.07	1951.71
775.24	1896.42
775.42	1920.99
775.60	2117.60
775.78	1955.81
775.95	1884.13
776.13	1828.84
776.31	1857.51
776.48	1968.10
776.66	2074.59
776.84	1826.79
777.01	1861.60
777.19	1890.28
777.37	1890.28
777.54	1988.58
777.72	2101.22
777.90	1996.77
778.07	1910.75
778.25	2170.85
778.43	1996.77
778.60	1904.61
778.78	2013.15
778.96	2082.78
779.13	1834.98
779.31	2090.98
779.49	1957.86
779.66	1966.05
779.84	1904.61
780.01	1914.85
780.19	1892.32
780.37	2039.78
780.54	2004.96
780.72	1947.62
780.90	1984.48
781.07	1968.10
781.25	1886.18
781.43	2041.82
781.60	1949.67
781.78	2072.54
781.95	1959.91
782.13	1875.94
782.31	2037.73
782.48	1798.12
782.66	1945.57
782.83	2123.74
783.01	1994.72
783.19	1998.82
783.36	1882.08
783.54	1920.99
783.72	1984.48
783.89	1964.00
784.07	1964.00
784.24	1986.53
784.42	2084.83
784.60	1890.28
784.77	1994.72
784.95	1753.06
785.12	1896.42
785.30	1951.71
785.47	1933.28
785.65	1902.56
785.83	1935.33
786.00	1925.09
786.18	1918.95
786.35	1886.18
786.53	1892.32
786.71	1986.53
786.88	1976.29
787.06	1955.81
787.23	1974.24
787.41	1839.08
787.58	1943.52
787.76	1980.39
787.94	1918.95
788.11	1953.76
788.29	1910.75
788.46	1871.84
788.64	1871.84
788.81	1931.23
788.99	1832.93
789.16	1859.56
789.34	1976.29
789.52	1877.99
789.69	1902.56
789.87	1824.74
790.04	1935.33
790.22	1941.47
790.39	2121.70
790.57	1873.89
790.74	1970.15
790.92	2004.96
791.09	1802.21
791.27	1855.46
791.44	2019.30
791.62	1957.86
791.79	2035.68
791.97	1916.90
792.15	2187.23
792.32	2045.92
792.50	1964.00
792.67	2070.50
792.85	2144.22
793.02	1902.56
793.20	1920.99
793.37	1849.32
793.55	1918.95
793.72	1849.32
793.90	1988.58
794.07	1898.47
794.25	1822.69
794.42	2025.44
794.60	1978.34
794.77	1964.00
794.95	2035.68
795.12	1931.23
795.30	1902.56
795.47	1808.36
795.65	2168.80
795.82	1943.52
796.00	1931.23
796.17	1961.95
796.34	1912.80
796.52	1955.81
796.69	2007.01
796.87	2019.30
797.04	1959.91
797.22	1990.63
797.39	1994.72
797.57	1978.34
797.74	1984.48
797.92	2021.35
798.09	1961.95
798.27	2023.39
798.44	1970.15
798.62	1949.67
798.79	2025.44
798.96	1933.28
799.14	1902.56
799.31	2142.18
799.49	2041.82
799.66	1964.00
799.84	1988.58
800.01	1853.41
800.19	1972.19
800.36	1828.84
800.53	1984.48
800.71	2007.01
800.88	2019.30
801.06	1875.94
801.23	1920.99
801.41	1964.00
801.58	1955.81
801.75	1880.04
801.93	1961.95
802.10	1980.39
802.28	1859.56
802.45	1935.33
802.63	2027.49
802.80	1984.48
802.97	1941.47
803.15	2043.87
803.32	1957.86
803.50	1843.17
803.67	1880.04
803.84	1861.60
804.02	2025.44
804.19	1992.67
804.37	1871.84
804.54	1902.56
804.71	2007.01
804.89	1996.77
805.06	1933.28
805.24	1896.42
805.41	1882.08
805.58	1896.42
805.76	2090.98
805.93	1998.82
806.10	2097.12
806.28	2023.39
806.45	1957.86
806.63	1986.53
806.80	1986.53
806.97	1925.09
807.15	1945.57
807.32	1978.34
807.49	1998.82
807.67	1882.08
807.84	2035.68
808.01	1859.56
808.19	2129.89
808.36	2115.55
808.54	1892.32
808.71	1869.80
808.88	1972.19
809.06	2072.54
809.23	2068.45
809.40	1927.14
809.58	2000.87
809.75	1953.76
809.92	1880.04
810.10	2119.65
810.27	1951.71
810.44	2064.35
810.62	1964.00
810.79	2011.11
810.96	1918.95
811.14	1888.23
811.31	2015.20
811.48	2017.25
811.66	1914.85
811.83	2027.49
812.00	2019.30
812.18	1959.91
812.35	2035.68
812.52	1978.34
812.69	1927.14
812.87	1886.18
813.04	1890.28
813.21	1968.10
813.39	1912.80
813.56	1912.80
813.73	2025.44
813.91	1763.30
814.08	1984.48
814.25	1961.95
814.42	1880.04
814.60	1951.71
814.77	2027.49
814.94	1955.81
815.12	1910.75
815.29	2076.64
815.46	1902.56
815.63	2013.15
815.81	1923.04
815.98	1947.62
816.15	1853.41
816.33	1980.39
816.50	1900.52
816.67	1884.13
816.84	1898.47
817.02	1920.99
817.19	2007.01
817.36	1980.39
817.53	2041.82
817.71	1884.13
817.88	1972.19
818.05	1984.48
818.22	1875.94
818.40	2121.70
818.57	1964.00
818.74	2017.25
818.91	1949.67
819.09	1996.77
819.26	2027.49
819.43	1859.56
819.60	1925.09
819.78	1943.52
819.95	2058.21
820.12	1931.23
820.29	2031.58
820.47	2066.40
820.64	1941.47
820.81	1847.27
820.98	1892.32
821.15	1912.80
821.33	1998.82
821.50	1867.75
821.67	1955.81
821.84	1818.60
822.02	2007.01
822.19	2068.45
822.36	1939.43
822.53	1906.66
822.70	1828.84
822.88	2017.25
823.05	2066.40
823.22	1863.65
823.39	1998.82
823.56	1992.67
823.74	2076.64
823.91	1849.32
824.08	1859.56
824.25	1855.46
824.42	2133.98
824.60	1896.42
824.77	2033.63
824.94	1945.57
825.11	1957.86
825.28	1861.60
825.45	1984.48
825.63	1880.04
825.80	1886.18
825.97	1947.62
826.14	1929.19
826.31	1738.73
826.48	1925.09
826.66	1902.56
826.83	1871.84
827.00	1937.38
827.17	1890.28
827.34	1961.95
827.51	1875.94
827.69	1986.53
827.86	1900.52
828.03	1861.60
828.20	1945.57
828.37	1923.04
828.54	1931.23
828.71	1916.90
828.89	2025.44
829.06	2004.96
829.23	2088.93
829.40	1892.32
829.57	1873.89
829.74	2004.96
829.91	1959.91
830.09	1914.85
830.26	2031.58
830.43	2035.68
830.60	1968.10
830.77	2070.50
830.94	2011.11
831.11	1990.63
831.28	1871.84
831.46	2013.15
831.63	1925.09
831.80	2013.15
831.97	1949.67
832.14	1886.18
832.31	1984.48
832.48	2004.96
832.65	2029.54
832.82	1927.14
832.99	1986.53
833.17	1828.84
833.34	2033.63
833.51	1994.72
833.68	1925.09
833.85	2011.11
834.02	1910.75
834.19	1845.22
834.36	1867.75
834.53	1984.48
834.70	1990.63
834.87	1994.72
835.04	1892.32
835.22	1916.90
835.39	1882.08
835.56	1845.22
835.73	1853.41
835.90	2062.30
836.07	1890.28
836.24	2025.44
836.41	1875.94
836.58	1843.17
836.75	2052.06
836.92	1984.48
837.09	1966.05
837.26	2007.01
837.43	1908.71
837.60	1988.58
837.77	2002.91
837.94	2035.68
838.12	2090.98
838.29	1974.24
838.46	1855.46
838.63	1900.52
838.80	2019.30
838.97	2037.73
839.14	1964.00
839.31	1923.04
839.48	2019.30
839.65	1939.43
839.82	1982.43
839.99	2011.11
840.16	1923.04
840.33	1865.70
840.50	1986.53
840.67	1900.52
840.84	1783.78
841.01	1902.56
841.18	1966.05
841.35	1910.75
841.52	2037.73
841.69	2111.46
841.86	1964.00
842.03	1996.77
842.20	1972.19
842.37	1923.04
842.54	1896.42
842.71	1980.39
842.88	1853.41
843.05	1980.39
843.22	1880.04
843.39	2004.96
843.56	1955.81
843.73	1914.85
843.90	2009.06
844.07	1914.85
844.24	2041.82
844.41	1996.77
844.58	1916.90
844.75	2031.58
844.92	1945.57
845.09	1927.14
845.26	1955.81
845.43	1939.43
845.60	1951.71
845.77	1992.67
845.94	1970.15
846.10	2023.39
846.27	1845.22
846.44	1873.89
846.61	1920.99
846.78	1980.39
846.95	1966.05
847.12	1857.51
847.29	1959.91
847.46	1832.93
847.63	2037.73
847.80	1918.95
847.97	1914.85
848.14	2119.65
848.31	1920.99
848.48	1900.52
848.65	1968.10
848.82	1859.56
848.98	2121.70
849.15	2002.91
849.32	2123.74
849.49	2021.35
849.66	1898.47
849.83	1998.82
850.00	1877.99
850.17	2056.16
850.34	1865.70
850.51	1920.99
850.68	1920.99
850.85	2070.50
851.01	2009.06
851.18	1984.48
851.35	1886.18
851.52	2002.91
851.69	2058.21
851.86	1865.70
852.03	1935.33
852.20	1968.10
852.37	1927.14
852.53	1900.52
852.70	1912.80
852.87	1955.81
853.04	1951.71
853.21	1968.10
853.38	1941.47
853.55	2019.30
853.72	1980.39
853.89	1941.47
854.05	1900.52
854.22	1951.71
854.39	1931.23
854.56	2002.91
854.73	1976.29
854.90	1865.70
855.07	1906.66
855.23	1978.34
855.40	1918.95
855.57	1982.43
855.74	1873.89
855.91	2072.54
856.08	1834.98
856.25	1865.70
856.41	1918.95
856.58	1937.38
856.75	1935.33
856.92	1890.28
857.09	2070.50
857.26	1767.40
857.42	1961.95
857.59	2047.97
857.76	1931.23
857.93	2004.96
858.10	1953.76
858.27	1886.18
858.43	1984.48
858.60	1886.18
858.77	1851.36
858.94	1931.23
859.11	2025.44
859.27	1935.33
859.44	1957.86
859.61	2080.74
859.78	1992.67
859.95	1923.04
860.12	1920.99
860.28	2113.50
860.45	2103.26
860.62	1880.04
860.79	1927.14
860.95	1933.28
861.12	1882.08
861.29	1873.89
861.46	1904.61
861.63	1957.86
861.79	1943.52
861.96	1865.70
862.13	1937.38
862.30	2039.78
862.47	1914.85
862.63	1906.66
862.80	2007.01
862.97	2007.01
863.14	2019.30
863.30	1920.99
863.47	1978.34
863.64	2064.35
863.81	2025.44
863.97	1916.90
864.14	1964.00
864.31	1984.48
864.48	1974.24
864.65	1900.52
864.81	2023.39
864.98	1947.62
865.15	2052.06
865.32	2031.58
865.48	2082.78
865.65	2095.07
865.82	1974.24
865.98	1982.43
866.15	2004.96
866.32	2007.01
866.49	1910.75
866.65	2039.78
866.82	1865.70
866.99	2021.35
867.16	1941.47
867.32	1912.80
867.49	1882.08
867.66	1974.24
867.83	1896.42
867.99	1839.08
868.16	1902.56
868.33	1947.62
868.49	1916.90
868.66	1894.37
868.83	1957.86
868.99	1968.10
869.16	1920.99
869.33	2068.45
869.50	2043.87
869.66	1902.56
869.83	1912.80
870.00	1843.17
870.16	2002.91
870.33	1939.43
870.50	1990.63
870.66	1986.53
870.83	2009.06
871.00	1929.19
871.17	1970.15
871.33	1978.34
871.50	1888.23
871.67	1929.19
871.83	1920.99
872.00	2090.98
872.17	1941.47
872.33	2058.21
872.50	2043.87
872.67	1910.75
872.83	1961.95
873.00	2011.11
873.17	1912.80
873.33	2002.91
873.50	1959.91
873.67	1877.99
873.83	1877.99
874.00	1884.13
874.16	2033.63
874.33	1947.62
874.50	1886.18
874.66	2076.64
874.83	1910.75
875.00	2056.16
875.16	1961.95
875.33	2037.73
875.50	1769.44
875.66	1943.52
875.83	1972.19
875.99	2031.58
876.16	1920.99
876.33	1904.61
876.49	1920.99
876.66	1976.29
876.83	2000.87
876.99	1857.51
877.16	1918.95
877.32	1873.89
877.49	1961.95
877.66	1966.05
877.82	2017.25
877.99	1947.62
878.15	2023.39
878.32	1923.04
878.49	1931.23
878.65	1951.71
878.82	2054.11
878.98	1951.71
879.15	2078.69
879.32	2007.01
879.48	1961.95
879.65	1906.66
879.81	1892.32
879.98	1894.37
880.15	1974.24
880.31	2064.35
880.48	1853.41
880.64	2041.82
880.81	2025.44
880.97	2015.20
881.14	2082.78
881.31	1812.45
881.47	2054.11
881.64	1931.23
881.80	1789.92
881.97	1959.91
882.13	1978.34
882.30	1896.42
882.47	1873.89
882.63	1837.03
882.80	1896.42
882.96	1935.33
883.13	2058.21
883.29	1908.71
883.46	2011.11
883.62	2088.93
883.79	1980.39
883.95	1980.39
884.12	1976.29
884.29	2041.82
884.45	1951.71
884.62	2056.16
884.78	1867.75
884.95	2064.35
885.11	1869.80
885.28	2017.25
885.44	1916.90
885.61	2002.91
885.77	2066.40
885.94	2007.01
886.10	1982.43
886.27	2011.11
886.43	2007.01
886.60	2043.87
886.76	1912.80
886.93	1974.24
887.09	1982.43
887.26	1843.17
887.42	1929.19
887.59	2070.50
887.75	2105.31
887.92	2064.35
888.08	2031.58
888.25	2097.12
888.41	2054.11
888.58	1904.61
888.74	1898.47
888.91	1939.43
>>>>>End Processed Spectral Data<<<<<
