SpectraSuite Data File
++++++++++++++++++++++++++++++++++++
Date: Wed May 04 22:45:42 CEST 2016
User: root
Dark Spectrum Present: No
Reference Spectrum Present: No
Number of Sampled Component Spectra: 1
Spectrometers: USB4C02835
Integration Time (usec): 100000 (USB4C02835)
Spectra Averaged: 1 (USB4C02835)
Boxcar Smoothing: 0 (USB4C02835)
Correct for Electrical Dark: No (USB4C02835)
Strobe/Lamp Enabled: No (USB4C02835)
Correct for Detector Non-linearity: No (USB4C02835)
Correct for Stray Light: No (USB4C02835)
Number of Pixels in Processed Spectrum: 3648
>>>>>Begin Processed Spectral Data<<<<<
177.47	1654.76
177.69	1654.76
177.91	1654.76
178.13	1675.24
178.36	1636.33
178.58	1857.51
178.80	1978.34
179.02	1882.08
179.24	1947.62
179.46	1961.95
179.68	1968.10
179.90	1968.10
180.13	1904.61
180.35	1910.75
180.57	1886.18
180.79	2113.50
181.01	1871.84
181.23	2043.87
181.45	1951.71
181.67	2041.82
181.90	1964.00
182.12	1957.86
182.34	1779.68
182.56	1959.91
182.78	2011.11
183.00	1853.41
183.22	2009.06
183.44	1816.55
183.66	2082.78
183.89	2058.21
184.11	1968.10
184.33	1982.43
184.55	2078.69
184.77	2045.92
184.99	1902.56
185.21	1970.15
185.43	2160.61
185.65	1888.23
185.87	1949.67
186.10	2064.35
186.32	2248.67
186.54	1935.33
186.76	1998.82
186.98	2068.45
187.20	1970.15
187.42	1974.24
187.64	1916.90
187.86	1980.39
188.08	2021.35
188.30	1968.10
188.52	1943.52
188.75	2095.07
188.97	2043.87
189.19	1894.37
189.41	1886.18
189.63	1982.43
189.85	1970.15
190.07	1882.08
190.29	1873.89
190.51	1941.47
190.73	1908.71
190.95	2029.54
191.17	1937.38
191.39	1882.08
191.61	1939.43
191.84	1953.76
192.06	2056.16
192.28	1794.02
192.50	2211.81
192.72	1998.82
192.94	1945.57
193.16	2088.93
193.38	1972.19
193.60	1939.43
193.82	1955.81
194.04	2002.91
194.26	2017.25
194.48	1920.99
194.70	1873.89
194.92	1888.23
195.14	2004.96
195.36	1923.04
195.58	1966.05
195.80	1943.52
196.02	1890.28
196.24	1927.14
196.46	1914.85
196.69	1890.28
196.91	2172.89
197.13	1918.95
197.35	1947.62
197.57	2064.35
197.79	1896.42
198.01	1914.85
198.23	2011.11
198.45	1990.63
198.67	1843.17
198.89	1914.85
199.11	2029.54
199.33	1978.34
199.55	1892.32
199.77	1892.32
199.99	2060.26
200.21	1886.18
200.43	2043.87
200.65	1859.56
200.87	1761.25
201.09	1966.05
201.31	1877.99
201.53	2031.58
201.75	1978.34
201.97	2021.35
202.19	1912.80
202.41	1931.23
202.63	2027.49
202.85	1994.72
203.07	1972.19
203.29	1890.28
203.51	1929.19
203.73	1904.61
203.95	2211.81
204.17	2015.20
204.39	1871.84
204.61	1918.95
204.83	1951.71
205.05	2017.25
205.27	2035.68
205.49	2082.78
205.71	2011.11
205.93	1871.84
206.15	1894.37
206.37	1953.76
206.59	1955.81
206.81	1865.70
207.03	1920.99
207.25	1925.09
207.47	1933.28
207.69	1951.71
207.91	2047.97
208.13	2070.50
208.34	1873.89
208.56	1871.84
208.78	1947.62
209.00	1865.70
209.22	1943.52
209.44	1935.33
209.66	1902.56
209.88	1875.94
210.10	1961.95
210.32	1920.99
210.54	2041.82
210.76	1920.99
210.98	2031.58
211.20	1834.98
211.42	1896.42
211.64	2011.11
211.86	2007.01
212.08	1968.10
212.30	1916.90
212.52	1978.34
212.74	1994.72
212.96	1927.14
213.17	1998.82
213.39	2054.11
213.61	2072.54
213.83	1925.09
214.05	1914.85
214.27	2088.93
214.49	1832.93
214.71	1875.94
214.93	2019.30
215.15	1912.80
215.37	1976.29
215.59	1818.60
215.81	1890.28
216.03	2064.35
216.24	1955.81
216.46	1906.66
216.68	1972.19
216.90	2131.94
217.12	1992.67
217.34	1943.52
217.56	1955.81
217.78	2127.84
218.00	1974.24
218.22	2039.78
218.44	1994.72
218.66	1916.90
218.87	2152.42
219.09	1869.80
219.31	1939.43
219.53	2021.35
219.75	2007.01
219.97	1961.95
220.19	2002.91
220.41	1953.76
220.63	2068.45
220.85	1968.10
221.06	1916.90
221.28	1992.67
221.50	1966.05
221.72	1957.86
221.94	1984.48
222.16	1976.29
222.38	1990.63
222.60	1955.81
222.82	1929.19
223.03	2029.54
223.25	1824.74
223.47	1966.05
223.69	2097.12
223.91	2007.01
224.13	1970.15
224.35	1894.37
224.57	2113.50
224.78	2000.87
225.00	1869.80
225.22	1978.34
225.44	1898.47
225.66	2007.01
225.88	1961.95
226.10	2015.20
226.32	1972.19
226.53	2052.06
226.75	1945.57
226.97	1849.32
227.19	1923.04
227.41	1920.99
227.63	1933.28
227.85	1794.02
228.06	1947.62
228.28	1964.00
228.50	2050.02
228.72	1804.26
228.94	1867.75
229.16	1841.12
229.37	1890.28
229.59	1871.84
229.81	2054.11
230.03	1851.36
230.25	1888.23
230.47	1898.47
230.69	1832.93
230.90	2045.92
231.12	1785.83
231.34	1931.23
231.56	2033.63
231.78	1865.70
232.00	2004.96
232.21	1951.71
232.43	1884.13
232.65	1832.93
232.87	1980.39
233.09	1853.41
233.30	1894.37
233.52	1988.58
233.74	2009.06
233.96	1902.56
234.18	1943.52
234.40	2007.01
234.61	2131.94
234.83	1910.75
235.05	1837.03
235.27	2148.32
235.49	2054.11
235.70	1941.47
235.92	2011.11
236.14	1984.48
236.36	2160.61
236.58	1820.64
236.79	1949.67
237.01	1947.62
237.23	1941.47
237.45	2076.64
237.67	1894.37
237.88	1968.10
238.10	2070.50
238.32	1824.74
238.54	1918.95
238.76	1939.43
238.97	1892.32
239.19	1918.95
239.41	1986.53
239.63	2062.30
239.85	1916.90
240.06	1959.91
240.28	1900.52
240.50	2101.22
240.72	1894.37
240.93	1931.23
241.15	1976.29
241.37	1947.62
241.59	2060.26
241.81	1916.90
242.02	1949.67
242.24	2004.96
242.46	2037.73
242.68	1865.70
242.89	1976.29
243.11	2052.06
243.33	1978.34
243.55	1957.86
243.76	2029.54
243.98	1972.19
244.20	1998.82
244.42	1949.67
244.64	1964.00
244.85	1826.79
245.07	1841.12
245.29	1976.29
245.51	1943.52
245.72	2023.39
245.94	2041.82
246.16	1974.24
246.38	1966.05
246.59	1927.14
246.81	1871.84
247.03	1972.19
247.24	1802.21
247.46	1896.42
247.68	2023.39
247.90	1884.13
248.11	1904.61
248.33	2050.02
248.55	1976.29
248.77	1933.28
248.98	2002.91
249.20	2144.22
249.42	1945.57
249.64	1974.24
249.85	1882.08
250.07	1933.28
250.29	2050.02
250.50	1929.19
250.72	1869.80
250.94	2000.87
251.16	2093.02
251.37	1957.86
251.59	1974.24
251.81	1943.52
252.02	2015.20
252.24	1845.22
252.46	2013.15
252.68	1828.84
252.89	1972.19
253.11	1902.56
253.33	2115.55
253.54	2019.30
253.76	1920.99
253.98	1951.71
254.20	1916.90
254.41	1794.02
254.63	1898.47
254.85	1888.23
255.06	1943.52
255.28	1990.63
255.50	1935.33
255.71	1875.94
255.93	1865.70
256.15	1914.85
256.36	2019.30
256.58	1916.90
256.80	1945.57
257.02	1966.05
257.23	1902.56
257.45	1957.86
257.67	2060.26
257.88	1884.13
258.10	2047.97
258.32	1951.71
258.53	1914.85
258.75	2084.83
258.97	1970.15
259.18	1933.28
259.40	1918.95
259.62	2088.93
259.83	1972.19
260.05	1980.39
260.27	2312.16
260.48	2031.58
260.70	1861.60
260.92	1900.52
261.13	1951.71
261.35	1957.86
261.57	1992.67
261.78	1863.65
262.00	1849.32
262.22	1996.77
262.43	1947.62
262.65	1953.76
262.86	1961.95
263.08	2189.28
263.30	1914.85
263.51	1804.26
263.73	1875.94
263.95	2060.26
264.16	1953.76
264.38	1914.85
264.60	1968.10
264.81	2019.30
265.03	2107.36
265.25	2050.02
265.46	1994.72
265.68	2068.45
265.89	1966.05
266.11	1832.93
266.33	1996.77
266.54	2058.21
266.76	1941.47
266.98	2002.91
267.19	2027.49
267.41	1945.57
267.62	2019.30
267.84	1886.18
268.06	1986.53
268.27	1951.71
268.49	1939.43
268.70	2054.11
268.92	1972.19
269.14	1859.56
269.35	1886.18
269.57	1955.81
269.79	1972.19
270.00	1937.38
270.22	2093.02
270.43	1890.28
270.65	1798.12
270.87	2002.91
271.08	2007.01
271.30	2066.40
271.51	1941.47
271.73	2031.58
271.95	2068.45
272.16	1984.48
272.38	1898.47
272.59	1849.32
272.81	1931.23
273.02	1974.24
273.24	1992.67
273.46	2035.68
273.67	1865.70
273.89	1845.22
274.10	1949.67
274.32	2011.11
274.54	1957.86
274.75	1912.80
274.97	1908.71
275.18	1912.80
275.40	1961.95
275.61	1910.75
275.83	2052.06
276.05	1898.47
276.26	2015.20
276.48	1968.10
276.69	1949.67
276.91	1923.04
277.12	2043.87
277.34	1998.82
277.55	2002.91
277.77	1937.38
277.99	1912.80
278.20	1890.28
278.42	1865.70
278.63	1929.19
278.85	1806.31
279.06	1830.88
279.28	1941.47
279.49	2043.87
279.71	1943.52
279.93	2007.01
280.14	1990.63
280.36	1937.38
280.57	2023.39
280.79	2045.92
281.00	1945.57
281.22	1839.08
281.43	1964.00
281.65	1814.50
281.86	1834.98
282.08	2090.98
282.29	2084.83
282.51	1816.55
282.73	1841.12
282.94	1861.60
283.16	2009.06
283.37	2127.84
283.59	1853.41
283.80	1910.75
284.02	1970.15
284.23	1900.52
284.45	1929.19
284.66	1867.75
284.88	1886.18
285.09	1968.10
285.31	1972.19
285.52	1927.14
285.74	1853.41
285.95	2066.40
286.17	1970.15
286.38	2117.60
286.60	1927.14
286.81	1935.33
287.03	1970.15
287.24	2009.06
287.46	1994.72
287.67	1959.91
287.89	2121.70
288.10	1988.58
288.32	1937.38
288.53	2082.78
288.75	1953.76
288.96	2027.49
289.18	1841.12
289.39	1910.75
289.61	2007.01
289.82	2129.89
290.04	2142.18
290.25	1847.27
290.47	1941.47
290.68	1943.52
290.90	2007.01
291.11	1800.16
291.33	2021.35
291.54	1812.45
291.76	1816.55
291.97	1955.81
292.18	1886.18
292.40	1914.85
292.61	1949.67
292.83	2140.13
293.04	1984.48
293.26	1986.53
293.47	1957.86
293.69	1914.85
293.90	1988.58
294.12	2031.58
294.33	1992.67
294.55	1906.66
294.76	2009.06
294.97	2070.50
295.19	2090.98
295.40	1912.80
295.62	1990.63
295.83	2095.07
296.05	1910.75
296.26	1957.86
296.48	1914.85
296.69	1935.33
296.90	1908.71
297.12	1980.39
297.33	2004.96
297.55	1994.72
297.76	1941.47
297.98	2025.44
298.19	1996.77
298.41	1966.05
298.62	1892.32
298.83	2062.30
299.05	2009.06
299.26	1857.51
299.48	1947.62
299.69	1996.77
299.90	1994.72
300.12	1906.66
300.33	1982.43
300.55	1935.33
300.76	2004.96
300.98	1918.95
301.19	1988.58
301.40	1955.81
301.62	1904.61
301.83	1953.76
302.05	2017.25
302.26	1920.99
302.47	2004.96
302.69	1853.41
302.90	2023.39
303.12	1847.27
303.33	1990.63
303.54	2095.07
303.76	1955.81
303.97	2025.44
304.19	2052.06
304.40	1908.71
304.61	1970.15
304.83	2093.02
305.04	2066.40
305.26	1929.19
305.47	1896.42
305.68	1929.19
305.90	1863.65
306.11	2009.06
306.33	1898.47
306.54	1902.56
306.75	1955.81
306.97	1839.08
307.18	1875.94
307.39	1900.52
307.61	2031.58
307.82	1957.86
308.04	1982.43
308.25	1902.56
308.46	1976.29
308.68	1961.95
308.89	1961.95
309.10	2035.68
309.32	2025.44
309.53	1939.43
309.74	1935.33
309.96	1912.80
310.17	2066.40
310.39	1929.19
310.60	1978.34
310.81	1998.82
311.03	1873.89
311.24	2021.35
311.45	1947.62
311.67	2148.32
311.88	1980.39
312.09	1892.32
312.31	1875.94
312.52	1937.38
312.73	1931.23
312.95	1877.99
313.16	1839.08
313.37	2033.63
313.59	2056.16
313.80	1970.15
314.01	2068.45
314.23	1908.71
314.44	1910.75
314.65	1927.14
314.87	1974.24
315.08	1966.05
315.29	1914.85
315.51	1843.17
315.72	1869.80
315.93	2054.11
316.15	1992.67
316.36	1892.32
316.57	1937.38
316.79	1992.67
317.00	1898.47
317.21	2009.06
317.43	1802.21
317.64	1918.95
317.85	1802.21
318.07	1898.47
318.28	2058.21
318.49	2133.98
318.70	2179.04
318.92	2152.42
319.13	2127.84
319.34	2144.22
319.56	2033.63
319.77	2148.32
319.98	2047.97
320.20	2013.15
320.41	2047.97
320.62	2084.83
320.83	1935.33
321.05	2127.84
321.26	1990.63
321.47	1920.99
321.69	2029.54
321.90	1855.46
322.11	1943.52
322.32	1964.00
322.54	2058.21
322.75	1929.19
322.96	2199.52
323.18	1834.98
323.39	1783.78
323.60	1847.27
323.81	2013.15
324.03	1957.86
324.24	1955.81
324.45	1920.99
324.66	1882.08
324.88	2004.96
325.09	2052.06
325.30	1961.95
325.52	1980.39
325.73	1978.34
325.94	1949.67
326.15	1890.28
326.37	1939.43
326.58	1980.39
326.79	2103.26
327.00	1863.65
327.22	2000.87
327.43	1961.95
327.64	1916.90
327.85	1992.67
328.07	1939.43
328.28	2074.59
328.49	1859.56
328.70	1949.67
328.92	1923.04
329.13	1955.81
329.34	2031.58
329.55	2080.74
329.76	2113.50
329.98	1927.14
330.19	2070.50
330.40	1972.19
330.61	1955.81
330.83	1961.95
331.04	1912.80
331.25	1933.28
331.46	1890.28
331.68	1880.04
331.89	2011.11
332.10	1949.67
332.31	1910.75
332.52	1875.94
332.74	1980.39
332.95	1902.56
333.16	1925.09
333.37	1974.24
333.58	1941.47
333.80	2064.35
334.01	1886.18
334.22	1959.91
334.43	1912.80
334.64	1916.90
334.86	1871.84
335.07	1849.32
335.28	2136.03
335.49	1931.23
335.70	2029.54
335.92	2035.68
336.13	2062.30
336.34	1968.10
336.55	2019.30
336.76	1937.38
336.98	1818.60
337.19	1880.04
337.40	1990.63
337.61	2113.50
337.82	1982.43
338.04	2058.21
338.25	1896.42
338.46	1925.09
338.67	1953.76
338.88	1912.80
339.09	1873.89
339.31	1888.23
339.52	1847.27
339.73	1871.84
339.94	1906.66
340.15	1986.53
340.36	1890.28
340.58	1953.76
340.79	1906.66
341.00	1976.29
341.21	1875.94
341.42	2045.92
341.63	1877.99
341.85	2004.96
342.06	1949.67
342.27	1892.32
342.48	1994.72
342.69	1841.12
342.90	2047.97
343.12	2107.36
343.33	1988.58
343.54	1998.82
343.75	2138.08
343.96	1959.91
344.17	1898.47
344.38	1910.75
344.60	1896.42
344.81	1886.18
345.02	1994.72
345.23	2082.78
345.44	2115.55
345.65	2002.91
345.86	1959.91
346.07	1970.15
346.29	1832.93
346.50	2000.87
346.71	2043.87
346.92	2015.20
347.13	2086.88
347.34	1910.75
347.55	1964.00
347.76	1996.77
347.98	1839.08
348.19	1929.19
348.40	2033.63
348.61	1972.19
348.82	2119.65
349.03	2029.54
349.24	1857.51
349.45	2154.46
349.66	1863.65
349.88	1964.00
350.09	1990.63
350.30	2148.32
350.51	2076.64
350.72	1955.81
350.93	1998.82
351.14	1988.58
351.35	2000.87
351.56	1988.58
351.77	1966.05
351.99	2027.49
352.20	2047.97
352.41	1986.53
352.62	1839.08
352.83	1925.09
353.04	2076.64
353.25	1845.22
353.46	2056.16
353.67	1982.43
353.88	1820.64
354.09	1982.43
354.30	1959.91
354.52	1966.05
354.73	1904.61
354.94	1896.42
355.15	1920.99
355.36	1994.72
355.57	1900.52
355.78	2004.96
355.99	1890.28
356.20	1918.95
356.41	2035.68
356.62	1984.48
356.83	2007.01
357.04	2068.45
357.25	1855.46
357.46	1886.18
357.68	1787.88
357.89	1867.75
358.10	1976.29
358.31	1961.95
358.52	2011.11
358.73	1882.08
358.94	1886.18
359.15	1898.47
359.36	1994.72
359.57	2000.87
359.78	1927.14
359.99	2002.91
360.20	1888.23
360.41	1974.24
360.62	1925.09
360.83	1892.32
361.04	1920.99
361.25	1988.58
361.46	2088.93
361.67	2002.91
361.88	2056.16
362.09	2002.91
362.30	2009.06
362.51	1869.80
362.72	1976.29
362.93	1978.34
363.14	2033.63
363.35	1931.23
363.56	1834.98
363.78	2074.59
363.99	1968.10
364.20	1943.52
364.41	1945.57
364.62	2107.36
364.83	1935.33
365.04	1920.99
365.25	1929.19
365.46	2103.26
365.67	1892.32
365.88	1908.71
366.09	1957.86
366.30	1945.57
366.51	1951.71
366.72	1832.93
366.93	1953.76
367.14	2045.92
367.35	2123.74
367.56	1929.19
367.77	2080.74
367.98	2015.20
368.18	1910.75
368.39	1996.77
368.60	1920.99
368.81	2058.21
369.02	1935.33
369.23	1961.95
369.44	1867.75
369.65	1826.79
369.86	2041.82
370.07	1996.77
370.28	1875.94
370.49	1972.19
370.70	2023.39
370.91	1937.38
371.12	1830.88
371.33	2062.30
371.54	1896.42
371.75	2125.79
371.96	1802.21
372.17	2013.15
372.38	1935.33
372.59	1908.71
372.80	1916.90
373.01	1990.63
373.22	2033.63
373.43	1916.90
373.64	1931.23
373.85	2136.03
374.06	2117.60
374.26	2029.54
374.47	1937.38
374.68	2064.35
374.89	1927.14
375.10	1935.33
375.31	2021.35
375.52	2009.06
375.73	1906.66
375.94	1894.37
376.15	2119.65
376.36	1933.28
376.57	1877.99
376.78	1859.56
376.99	1945.57
377.20	2090.98
377.40	1886.18
377.61	2111.46
377.82	1849.32
378.03	2166.75
378.24	1994.72
378.45	1968.10
378.66	2013.15
378.87	1886.18
379.08	1912.80
379.29	1910.75
379.50	2082.78
379.71	1972.19
379.91	2064.35
380.12	1941.47
380.33	1927.14
380.54	1894.37
380.75	1972.19
380.96	1961.95
381.17	1912.80
381.38	1943.52
381.59	2037.73
381.80	1982.43
382.00	2109.41
382.21	2015.20
382.42	2181.09
382.63	2201.57
382.84	2066.40
383.05	2015.20
383.26	2170.85
383.47	2015.20
383.68	2047.97
383.88	2013.15
384.09	1949.67
384.30	2119.65
384.51	2078.69
384.72	1830.88
384.93	1806.31
385.14	1966.05
385.35	2027.49
385.55	1904.61
385.76	2035.68
385.97	1875.94
386.18	1888.23
386.39	1884.13
386.60	1937.38
386.81	1910.75
387.02	1896.42
387.22	1877.99
387.43	2074.59
387.64	2000.87
387.85	2226.14
388.06	2234.33
388.27	4014.02
388.48	8714.11
388.68	12105.54
388.89	14034.73
389.10	15408.92
389.31	14141.22
389.52	11130.71
389.73	9609.07
389.93	8660.86
390.14	7989.13
390.35	7280.53
390.56	6430.62
390.77	5265.33
390.98	4052.93
391.18	3252.17
391.39	2539.48
391.60	2189.28
391.81	2140.13
392.02	1947.62
392.23	2121.70
392.43	1992.67
392.64	2000.87
392.85	2021.35
393.06	2058.21
393.27	1974.24
393.47	1912.80
393.68	2047.97
393.89	1933.28
394.10	2101.22
394.31	1968.10
394.52	1918.95
394.72	1957.86
394.93	2123.74
395.14	1976.29
395.35	1990.63
395.56	1900.52
395.76	1945.57
395.97	2021.35
396.18	2115.55
396.39	2170.85
396.60	2422.75
396.80	2185.18
397.01	2140.13
397.22	2166.75
397.43	2125.79
397.64	2009.06
397.84	1996.77
398.05	2271.20
398.26	2015.20
398.47	2029.54
398.67	2090.98
398.88	2004.96
399.09	2004.96
399.30	1961.95
399.51	2025.44
399.71	1939.43
399.92	1970.15
400.13	1984.48
400.34	1896.42
400.54	1964.00
400.75	2039.78
400.96	1984.48
401.17	2097.12
401.37	1939.43
401.58	1984.48
401.79	2004.96
402.00	2080.74
402.21	2369.50
402.41	2377.69
402.62	2392.03
402.83	2357.21
403.04	2389.98
403.24	2441.18
403.45	2119.65
403.66	2318.30
403.87	2164.70
404.07	2176.99
404.28	2203.61
404.49	2209.76
404.70	1998.82
404.90	2027.49
405.11	2041.82
405.32	2099.17
405.52	1867.75
405.73	1902.56
405.94	1978.34
406.15	1939.43
406.35	1998.82
406.56	1976.29
406.77	1990.63
406.98	1966.05
407.18	1865.70
407.39	2068.45
407.60	2011.11
407.80	1976.29
408.01	1925.09
408.22	1994.72
408.43	1933.28
408.63	1988.58
408.84	2064.35
409.05	1988.58
409.25	1935.33
409.46	1853.41
409.67	1886.18
409.88	1949.67
410.08	1994.72
410.29	1902.56
410.50	2029.54
410.70	2086.88
410.91	1898.47
411.12	1980.39
411.32	1935.33
411.53	1871.84
411.74	2111.46
411.95	2140.13
412.15	2088.93
412.36	2080.74
412.57	2064.35
412.77	2052.06
412.98	2037.73
413.19	2004.96
413.39	2117.60
413.60	2004.96
413.81	2033.63
414.01	1941.47
414.22	2021.35
414.43	2027.49
414.63	2029.54
414.84	2064.35
415.05	1914.85
415.25	1845.22
415.46	1988.58
415.67	1914.85
415.87	1994.72
416.08	1990.63
416.29	1920.99
416.49	1976.29
416.70	1931.23
416.91	1943.52
417.11	1996.77
417.32	1929.19
417.53	1933.28
417.73	1933.28
417.94	2013.15
418.15	1951.71
418.35	2015.20
418.56	2035.68
418.77	2129.89
418.97	1976.29
419.18	1943.52
419.38	1763.30
419.59	1986.53
419.80	2058.21
420.00	1937.38
420.21	1894.37
420.42	1961.95
420.62	1982.43
420.83	1853.41
421.04	2000.87
421.24	1988.58
421.45	1957.86
421.65	2043.87
421.86	1966.05
422.07	2035.68
422.27	1961.95
422.48	1955.81
422.69	1845.22
422.89	1939.43
423.10	1914.85
423.30	1929.19
423.51	2000.87
423.72	2064.35
423.92	1943.52
424.13	1826.79
424.33	1961.95
424.54	1966.05
424.75	1902.56
424.95	2074.59
425.16	1939.43
425.36	1931.23
425.57	2013.15
425.78	2035.68
425.98	2056.16
426.19	1945.57
426.39	1906.66
426.60	2039.78
426.81	2025.44
427.01	1996.77
427.22	1970.15
427.42	1834.98
427.63	1933.28
427.83	1964.00
428.04	2074.59
428.25	2074.59
428.45	2084.83
428.66	2082.78
428.86	1884.13
429.07	1943.52
429.28	2004.96
429.48	1935.33
429.69	1959.91
429.89	2062.30
430.10	1923.04
430.30	2007.01
430.51	2072.54
430.71	1931.23
430.92	1964.00
431.13	1966.05
431.33	2056.16
431.54	2029.54
431.74	2111.46
431.95	2090.98
432.15	1857.51
432.36	1929.19
432.56	2029.54
432.77	2086.88
432.98	2109.41
433.18	1906.66
433.39	1884.13
433.59	1976.29
433.80	2115.55
434.00	2133.98
434.21	1984.48
434.41	1884.13
434.62	2127.84
434.82	1837.03
435.03	1845.22
435.23	1966.05
435.44	1810.40
435.64	2043.87
435.85	1996.77
436.06	2050.02
436.26	2029.54
436.47	1871.84
436.67	1943.52
436.88	1857.51
437.08	2043.87
437.29	2078.69
437.49	2050.02
437.70	2025.44
437.90	1990.63
438.11	2084.83
438.31	2011.11
438.52	2127.84
438.72	2205.66
438.93	2215.90
439.13	2174.94
439.34	2133.98
439.54	2060.26
439.75	2052.06
439.95	2078.69
440.16	2031.58
440.36	2004.96
440.57	2011.11
440.77	2047.97
440.98	2015.20
441.18	1970.15
441.39	1964.00
441.59	1908.71
441.80	2146.27
442.00	1974.24
442.21	2076.64
442.41	1904.61
442.62	1996.77
442.82	1941.47
443.02	1877.99
443.23	1955.81
443.43	2023.39
443.64	2095.07
443.84	1953.76
444.05	2093.02
444.25	2021.35
444.46	2004.96
444.66	1986.53
444.87	2156.51
445.07	1898.47
445.28	1951.71
445.48	2086.88
445.69	2015.20
445.89	2179.04
446.09	1994.72
446.30	2246.62
446.50	2637.78
446.71	4186.05
446.91	5339.05
447.12	5961.64
447.32	6545.31
447.53	6088.61
447.73	4849.59
447.93	4437.95
448.14	4044.74
448.34	3813.32
448.55	3471.31
448.75	3250.13
448.96	3207.12
449.16	2861.01
449.36	2691.03
449.57	2340.83
449.77	2150.37
449.98	2023.39
450.18	2082.78
450.39	2007.01
450.59	2097.12
450.79	1959.91
451.00	1972.19
451.20	1996.77
451.41	1941.47
451.61	2029.54
451.81	1982.43
452.02	1947.62
452.22	1978.34
452.43	1894.37
452.63	1914.85
452.84	1974.24
453.04	1916.90
453.24	1939.43
453.45	1916.90
453.65	1957.86
453.86	1966.05
454.06	2062.30
454.26	1945.57
454.47	1929.19
454.67	2058.21
454.87	1986.53
455.08	1943.52
455.28	2136.03
455.49	2021.35
455.69	1968.10
455.89	2113.50
456.10	2074.59
456.30	1939.43
456.51	2021.35
456.71	1974.24
456.91	2060.26
457.12	2103.26
457.32	2011.11
457.52	1939.43
457.73	2033.63
457.93	1916.90
458.14	1923.04
458.34	1970.15
458.54	1943.52
458.75	1980.39
458.95	1933.28
459.15	1966.05
459.36	2021.35
459.56	1994.72
459.76	2187.23
459.97	1945.57
460.17	1955.81
460.37	2039.78
460.58	1978.34
460.78	2041.82
460.99	1931.23
461.19	1980.39
461.39	1902.56
461.60	1955.81
461.80	2058.21
462.00	1923.04
462.21	1996.77
462.41	1898.47
462.61	1949.67
462.82	1898.47
463.02	1955.81
463.22	1959.91
463.43	2097.12
463.63	2015.20
463.83	2115.55
464.04	2007.01
464.24	2019.30
464.44	1867.75
464.64	1976.29
464.85	2013.15
465.05	2133.98
465.25	1972.19
465.46	1943.52
465.66	1941.47
465.86	1990.63
466.07	1916.90
466.27	1953.76
466.47	1861.60
466.68	1845.22
466.88	2093.02
467.08	2031.58
467.29	2072.54
467.49	2072.54
467.69	2011.11
467.89	2000.87
468.10	1935.33
468.30	1908.71
468.50	2097.12
468.71	2086.88
468.91	1857.51
469.11	2084.83
469.31	2007.01
469.52	1888.23
469.72	2103.26
469.92	2213.85
470.13	1961.95
470.33	1982.43
470.53	2066.40
470.73	2447.32
470.94	2934.74
471.14	2971.60
471.34	3409.87
471.54	3313.61
471.75	2985.94
471.95	2629.59
472.15	2555.86
472.36	2566.10
472.56	2465.75
472.76	2422.75
472.96	2316.25
473.17	2361.31
473.37	2213.85
473.57	2115.55
473.77	2160.61
473.98	2037.73
474.18	1961.95
474.38	2203.61
474.58	1877.99
474.79	1855.46
474.99	2011.11
475.19	2074.59
475.39	1839.08
475.60	1980.39
475.80	1974.24
476.00	1947.62
476.20	1912.80
476.41	1953.76
476.61	2037.73
476.81	2082.78
477.01	1914.85
477.21	2025.44
477.42	2115.55
477.62	1900.52
477.82	2052.06
478.02	1828.84
478.23	2017.25
478.43	1949.67
478.63	1916.90
478.83	1968.10
479.03	1902.56
479.24	2054.11
479.44	2217.95
479.64	1947.62
479.84	1810.40
480.04	1939.43
480.25	2019.30
480.45	1951.71
480.65	1943.52
480.85	2064.35
481.06	1880.04
481.26	2035.68
481.46	2011.11
481.66	1990.63
481.86	1931.23
482.06	2072.54
482.27	1953.76
482.47	1941.47
482.67	2002.91
482.87	1929.19
483.07	1937.38
483.28	1966.05
483.48	1927.14
483.68	1941.47
483.88	1875.94
484.08	1794.02
484.29	1884.13
484.49	1939.43
484.69	1902.56
484.89	2097.12
485.09	2093.02
485.29	2019.30
485.50	1966.05
485.70	2017.25
485.90	2136.03
486.10	1925.09
486.30	2058.21
486.50	2054.11
486.71	1994.72
486.91	2054.11
487.11	2101.22
487.31	1914.85
487.51	1949.67
487.71	1949.67
487.91	1902.56
488.12	1908.71
488.32	1785.83
488.52	1976.29
488.72	1802.21
488.92	1974.24
489.12	1998.82
489.32	2090.98
489.53	2037.73
489.73	1908.71
489.93	2076.64
490.13	1888.23
490.33	1804.26
490.53	1937.38
490.73	2109.41
490.94	1898.47
491.14	2068.45
491.34	2062.30
491.54	2260.96
491.74	2981.84
491.94	3520.46
492.14	3852.23
492.34	3860.42
492.54	3579.85
492.75	3106.77
492.95	2942.93
493.15	2727.89
493.35	2654.17
493.55	2498.52
493.75	2521.05
493.95	2471.90
494.15	2340.83
494.35	2217.95
494.56	2086.88
494.76	1994.72
494.96	2072.54
495.16	2035.68
495.36	2011.11
495.56	2011.11
495.76	1976.29
495.96	1953.76
496.16	1947.62
496.36	2142.18
496.56	1949.67
496.77	2070.50
496.97	2037.73
497.17	2011.11
497.37	1880.04
497.57	2023.39
497.77	1949.67
497.97	1927.14
498.17	1982.43
498.37	1886.18
498.57	2056.16
498.77	1877.99
498.97	1982.43
499.17	2129.89
499.38	1939.43
499.58	1990.63
499.78	2072.54
499.98	2127.84
500.18	2007.01
500.38	2015.20
500.58	2183.13
500.78	2562.01
500.98	4820.92
501.18	6965.14
501.38	8793.98
501.58	9824.11
501.78	9586.54
501.98	7552.91
502.18	6391.71
502.38	5363.63
502.58	5005.24
502.78	4470.72
502.98	4306.88
503.18	4028.35
503.38	3755.97
503.59	3313.61
503.79	2994.13
503.99	2822.10
504.19	2676.70
504.39	2514.91
504.59	2682.84
504.79	2668.50
504.99	2576.34
505.19	2353.12
505.39	2240.48
505.59	2338.78
505.79	2289.63
505.99	2172.89
506.19	2103.26
506.39	2203.61
506.59	2041.82
506.79	2023.39
506.99	2066.40
507.19	2035.68
507.39	2013.15
507.59	1933.28
507.79	1978.34
507.99	1939.43
508.19	1953.76
508.39	1978.34
508.59	2041.82
508.79	2080.74
508.99	2193.37
509.19	1996.77
509.39	2045.92
509.59	1904.61
509.79	1984.48
509.99	1964.00
510.19	2021.35
510.39	2045.92
510.59	2023.39
510.79	1931.23
510.99	1869.80
511.19	2045.92
511.39	2131.94
511.59	2062.30
511.79	2138.08
511.99	1990.63
512.19	2060.26
512.38	2004.96
512.58	1992.67
512.78	1943.52
512.98	2072.54
513.18	2115.55
513.38	1800.16
513.58	2015.20
513.78	1900.52
513.98	1990.63
514.18	1943.52
514.38	1980.39
514.58	2009.06
514.78	1959.91
514.98	1964.00
515.18	1998.82
515.38	1908.71
515.58	2111.46
515.78	1914.85
515.98	1918.95
516.18	1949.67
516.38	2029.54
516.57	1916.90
516.77	1888.23
516.97	2017.25
517.17	1898.47
517.37	1863.65
517.57	1976.29
517.77	2136.03
517.97	1867.75
518.17	2066.40
518.37	1927.14
518.57	1892.32
518.77	1982.43
518.97	2045.92
519.16	1994.72
519.36	2121.70
519.56	2017.25
519.76	1996.77
519.96	2066.40
520.16	2109.41
520.36	1939.43
520.56	2039.78
520.76	1902.56
520.96	2007.01
521.16	2031.58
521.35	2160.61
521.55	2086.88
521.75	1941.47
521.95	1959.91
522.15	1984.48
522.35	1794.02
522.55	1935.33
522.75	2078.69
522.95	1994.72
523.14	1912.80
523.34	1955.81
523.54	1949.67
523.74	2029.54
523.94	1992.67
524.14	1910.75
524.34	1994.72
524.54	2179.04
524.73	1978.34
524.93	2007.01
525.13	1910.75
525.33	1853.41
525.53	2166.75
525.73	1959.91
525.93	1966.05
526.13	1976.29
526.32	1943.52
526.52	2050.02
526.72	2039.78
526.92	1935.33
527.12	1978.34
527.32	1943.52
527.52	2035.68
527.71	2009.06
527.91	1943.52
528.11	2009.06
528.31	2011.11
528.51	1900.52
528.71	1974.24
528.90	2045.92
529.10	2111.46
529.30	2045.92
529.50	1888.23
529.70	2013.15
529.90	1933.28
530.09	1945.57
530.29	1953.76
530.49	1861.60
530.69	2195.42
530.89	2007.01
531.09	2037.73
531.28	1945.57
531.48	2023.39
531.68	2015.20
531.88	2007.01
532.08	2062.30
532.28	1951.71
532.47	2062.30
532.67	2080.74
532.87	2037.73
533.07	1939.43
533.27	2099.17
533.46	2043.87
533.66	1974.24
533.86	1988.58
534.06	1968.10
534.26	2050.02
534.45	1998.82
534.65	2076.64
534.85	2011.11
535.05	1931.23
535.25	2019.30
535.44	1865.70
535.64	2027.49
535.84	1978.34
536.04	1976.29
536.24	1994.72
536.43	1947.62
536.63	1996.77
536.83	1939.43
537.03	1978.34
537.22	1951.71
537.42	1935.33
537.62	1968.10
537.82	1959.91
538.02	2082.78
538.21	2080.74
538.41	2273.25
538.61	1994.72
538.81	1992.67
539.00	2052.06
539.20	1859.56
539.40	1896.42
539.60	2015.20
539.79	2070.50
539.99	1994.72
540.19	1869.80
540.39	2002.91
540.58	2043.87
540.78	1996.77
540.98	1992.67
541.18	2093.02
541.37	2060.26
541.57	1982.43
541.77	2070.50
541.97	1867.75
542.16	1906.66
542.36	1951.71
542.56	1914.85
542.76	2189.28
542.95	2074.59
543.15	1982.43
543.35	1966.05
543.54	1933.28
543.74	1877.99
543.94	2027.49
544.14	1923.04
544.33	1945.57
544.53	1941.47
544.73	1900.52
544.93	2019.30
545.12	2023.39
545.32	1961.95
545.52	1951.71
545.71	1906.66
545.91	1918.95
546.11	1990.63
546.30	1853.41
546.50	2002.91
546.70	2011.11
546.90	2002.91
547.09	1828.84
547.29	1949.67
547.49	2068.45
547.68	1994.72
547.88	1980.39
548.08	2047.97
548.27	2449.37
548.47	1986.53
548.67	1892.32
548.87	2025.44
549.06	1961.95
549.26	2013.15
549.46	2070.50
549.65	1912.80
549.85	1972.19
550.05	2031.58
550.24	1923.04
550.44	1955.81
550.64	2023.39
550.83	1964.00
551.03	2088.93
551.23	2029.54
551.42	2111.46
551.62	1949.67
551.82	2013.15
552.01	1996.77
552.21	2060.26
552.41	1992.67
552.60	2047.97
552.80	1990.63
553.00	1937.38
553.19	1978.34
553.39	2105.31
553.59	1943.52
553.78	2031.58
553.98	2033.63
554.17	1880.04
554.37	1996.77
554.57	2015.20
554.76	1912.80
554.96	2019.30
555.16	1976.29
555.35	2015.20
555.55	1984.48
555.75	2000.87
555.94	2041.82
556.14	1894.37
556.33	2029.54
556.53	1947.62
556.73	1978.34
556.92	1955.81
557.12	2070.50
557.32	2160.61
557.51	2136.03
557.71	2082.78
557.90	2117.60
558.10	2029.54
558.30	1904.61
558.49	1970.15
558.69	1914.85
558.88	1982.43
559.08	2031.58
559.28	2000.87
559.47	1939.43
559.67	2021.35
559.86	2072.54
560.06	1976.29
560.26	1970.15
560.45	1941.47
560.65	1939.43
560.84	2090.98
561.04	1947.62
561.24	1996.77
561.43	1937.38
561.63	2162.66
561.82	1992.67
562.02	2070.50
562.22	1994.72
562.41	1904.61
562.61	1996.77
562.80	1951.71
563.00	2127.84
563.19	2047.97
563.39	2017.25
563.59	2115.55
563.78	1900.52
563.98	1791.97
564.17	1943.52
564.37	1783.78
564.56	2013.15
564.76	1847.27
564.96	2074.59
565.15	2021.35
565.35	2123.74
565.54	1925.09
565.74	2037.73
565.93	1990.63
566.13	2009.06
566.32	2033.63
566.52	2025.44
566.71	1904.61
566.91	2009.06
567.11	1970.15
567.30	1890.28
567.50	2004.96
567.69	2017.25
567.89	2099.17
568.08	1906.66
568.28	1949.67
568.47	1906.66
568.67	2045.92
568.86	1980.39
569.06	2035.68
569.25	1978.34
569.45	1910.75
569.64	1984.48
569.84	1957.86
570.04	2000.87
570.23	1931.23
570.43	1974.24
570.62	1992.67
570.82	2086.88
571.01	1861.60
571.21	1949.67
571.40	1937.38
571.60	2154.46
571.79	2052.06
571.99	2011.11
572.18	1904.61
572.38	2009.06
572.57	1888.23
572.77	2031.58
572.96	2129.89
573.16	2078.69
573.35	1886.18
573.55	2066.40
573.74	2039.78
573.94	1920.99
574.13	1845.22
574.33	2105.31
574.52	2146.27
574.71	2013.15
574.91	2023.39
575.10	1892.32
575.30	2019.30
575.49	1871.84
575.69	1974.24
575.88	2084.83
576.08	1980.39
576.27	2121.70
576.47	2031.58
576.66	2158.56
576.86	2080.74
577.05	2113.50
577.25	2076.64
577.44	2131.94
577.64	1900.52
577.83	2052.06
578.02	2045.92
578.22	2084.83
578.41	2109.41
578.61	1927.14
578.80	1834.98
579.00	1933.28
579.19	2007.01
579.39	2066.40
579.58	2039.78
579.77	2004.96
579.97	2121.70
580.16	2078.69
580.36	2013.15
580.55	2138.08
580.75	2068.45
580.94	2072.54
581.13	2168.80
581.33	2097.12
581.52	1974.24
581.72	2275.29
581.91	2140.13
582.11	2009.06
582.30	2076.64
582.49	2062.30
582.69	2131.94
582.88	2056.16
583.08	2007.01
583.27	2101.22
583.47	2039.78
583.66	1933.28
583.85	1912.80
584.05	2045.92
584.24	2097.12
584.44	2101.22
584.63	2168.80
584.82	2133.98
585.02	2136.03
585.21	2275.29
585.41	2090.98
585.60	2095.07
585.79	2263.01
585.99	2281.44
586.18	2125.79
586.37	2576.34
586.57	3991.49
586.76	11571.02
586.96	30643.76
587.15	44754.26
587.34	54351.04
587.54	59886.70
587.73	56329.38
587.93	39703.97
588.12	29761.08
588.31	24227.47
588.51	20799.17
588.70	18831.07
588.89	17170.17
589.09	15279.89
589.28	13207.35
589.47	10868.57
589.67	8591.23
589.86	6629.27
590.06	4949.94
590.25	3801.03
590.44	3137.49
590.64	2623.45
590.83	2410.46
591.02	2201.57
591.22	2195.42
591.41	2101.22
591.60	2054.11
591.80	2170.85
591.99	1968.10
592.18	1978.34
592.38	2125.79
592.57	1980.39
592.76	1957.86
592.96	2000.87
593.15	1964.00
593.34	2086.88
593.54	1947.62
593.73	2170.85
593.92	2058.21
594.12	2050.02
594.31	2111.46
594.50	2068.45
594.70	2097.12
594.89	2154.46
595.08	1875.94
595.28	2082.78
595.47	2281.44
595.66	2070.50
595.86	1974.24
596.05	1953.76
596.24	2035.68
596.43	2203.61
596.63	2021.35
596.82	2047.97
597.01	2086.88
597.21	2189.28
597.40	2062.30
597.59	2000.87
597.79	2101.22
597.98	2103.26
598.17	2033.63
598.36	2086.88
598.56	2123.74
598.75	1980.39
598.94	2066.40
599.14	1990.63
599.33	1931.23
599.52	2015.20
599.71	2054.11
599.91	2060.26
600.10	2019.30
600.29	1947.62
600.48	2029.54
600.68	2035.68
600.87	2031.58
601.06	1953.76
601.26	1955.81
601.45	1996.77
601.64	1947.62
601.83	2103.26
602.03	1959.91
602.22	1959.91
602.41	2041.82
602.60	2166.75
602.80	2090.98
602.99	2033.63
603.18	1875.94
603.37	2062.30
603.57	1992.67
603.76	2090.98
603.95	2027.49
604.14	1959.91
604.34	1886.18
604.53	2052.06
604.72	2070.50
604.91	2035.68
605.10	2031.58
605.30	1863.65
605.49	2113.50
605.68	2021.35
605.87	1974.24
606.07	1929.19
606.26	2004.96
606.45	2033.63
606.64	2011.11
606.84	2000.87
607.03	1990.63
607.22	2068.45
607.41	2019.30
607.60	1953.76
607.80	2029.54
607.99	1988.58
608.18	2031.58
608.37	2004.96
608.56	1990.63
608.76	2050.02
608.95	2162.66
609.14	2076.64
609.33	2160.61
609.52	2230.24
609.72	2113.50
609.91	2058.21
610.10	2041.82
610.29	2209.76
610.48	2107.36
610.68	1984.48
610.87	2013.15
611.06	2039.78
611.25	2000.87
611.44	2156.51
611.63	1927.14
611.83	2142.18
612.02	1908.71
612.21	2017.25
612.40	1855.46
612.59	1935.33
612.79	1875.94
612.98	1998.82
613.17	2064.35
613.36	2000.87
613.55	2168.80
613.74	2037.73
613.93	2093.02
614.13	2236.38
614.32	2252.77
614.51	2314.20
614.70	2142.18
614.89	2035.68
615.08	2099.17
615.28	2449.37
615.47	1998.82
615.66	2127.84
615.85	2037.73
616.04	2129.89
616.23	1990.63
616.42	2011.11
616.62	2047.97
616.81	2004.96
617.00	2037.73
617.19	2027.49
617.38	2015.20
617.57	2019.30
617.76	2041.82
617.95	2041.82
618.15	2015.20
618.34	2088.93
618.53	1939.43
618.72	1931.23
618.91	2072.54
619.10	2129.89
619.29	1990.63
619.48	1970.15
619.68	1947.62
619.87	1984.48
620.06	1937.38
620.25	2023.39
620.44	1957.86
620.63	1974.24
620.82	2047.97
621.01	1978.34
621.20	2070.50
621.39	2056.16
621.59	2058.21
621.78	2062.30
621.97	2015.20
622.16	2047.97
622.35	2097.12
622.54	2105.31
622.73	2000.87
622.92	1847.27
623.11	1994.72
623.30	1961.95
623.49	2023.39
623.68	2011.11
623.88	2064.35
624.07	1941.47
624.26	1951.71
624.45	1996.77
624.64	2007.01
624.83	1984.48
625.02	1988.58
625.21	1980.39
625.40	1984.48
625.59	2088.93
625.78	2023.39
625.97	2148.32
626.16	2060.26
626.35	2140.13
626.54	2088.93
626.74	2136.03
626.93	2009.06
627.12	1972.19
627.31	2131.94
627.50	2043.87
627.69	2047.97
627.88	1877.99
628.07	1996.77
628.26	1902.56
628.45	1927.14
628.64	1914.85
628.83	1931.23
629.02	1894.37
629.21	2095.07
629.40	1984.48
629.59	1966.05
629.78	2011.11
629.97	2009.06
630.16	1990.63
630.35	1964.00
630.54	1984.48
630.73	1931.23
630.92	1914.85
631.11	1900.52
631.30	2027.49
631.49	2037.73
631.68	2056.16
631.87	2023.39
632.06	1880.04
632.25	2181.09
632.44	2045.92
632.63	2047.97
632.82	1888.23
633.01	1988.58
633.20	2080.74
633.39	2154.46
633.58	1978.34
633.77	2066.40
633.96	2027.49
634.15	2099.17
634.34	2074.59
634.53	2054.11
634.72	1941.47
634.91	1916.90
635.10	2009.06
635.29	2072.54
635.48	2027.49
635.67	1964.00
635.86	1925.09
636.05	2007.01
636.24	2007.01
636.43	2009.06
636.62	2080.74
636.81	1818.60
637.00	1970.15
637.19	2047.97
637.38	1961.95
637.57	2015.20
637.76	2031.58
637.95	2164.70
638.14	2101.22
638.33	2168.80
638.52	2029.54
638.71	1945.57
638.89	1908.71
639.08	2189.28
639.27	2078.69
639.46	2195.42
639.65	2682.84
639.84	2682.84
640.03	2865.11
640.22	2734.04
640.41	2803.67
640.60	2357.21
640.79	2293.72
640.98	2191.33
641.17	2248.67
641.36	2150.37
641.55	2189.28
641.74	2033.63
641.92	2103.26
642.11	2015.20
642.30	2000.87
642.49	1974.24
642.68	1980.39
642.87	2056.16
643.06	2013.15
643.25	1904.61
643.44	2002.91
643.63	1900.52
643.82	2023.39
644.00	1910.75
644.19	1957.86
644.38	1974.24
644.57	2054.11
644.76	1945.57
644.95	1980.39
645.14	2068.45
645.33	2011.11
645.52	1972.19
645.71	1851.36
645.89	1925.09
646.08	1941.47
646.27	1945.57
646.46	2111.46
646.65	1910.75
646.84	1992.67
647.03	1847.27
647.22	2019.30
647.40	2002.91
647.59	1980.39
647.78	1761.25
647.97	1888.23
648.16	1814.50
648.35	2019.30
648.54	2019.30
648.73	1943.52
648.91	1984.48
649.10	1925.09
649.29	1927.14
649.48	1886.18
649.67	1957.86
649.86	2066.40
650.05	2062.30
650.23	2244.57
650.42	2080.74
650.61	2215.90
650.80	2179.04
650.99	2269.15
651.18	2176.99
651.36	2090.98
651.55	1966.05
651.74	2101.22
651.93	1910.75
652.12	1886.18
652.31	1982.43
652.49	1988.58
652.68	1947.62
652.87	2070.50
653.06	2021.35
653.25	2164.70
653.44	2027.49
653.62	2123.74
653.81	1912.80
654.00	1994.72
654.19	2023.39
654.38	2205.66
654.56	1968.10
654.75	1988.58
654.94	2041.82
655.13	1945.57
655.32	1968.10
655.51	2035.68
655.69	1929.19
655.88	2011.11
656.07	1920.99
656.26	1961.95
656.45	1884.13
656.63	1951.71
656.82	1986.53
657.01	1990.63
657.20	1929.19
657.38	2033.63
657.57	1951.71
657.76	1871.84
657.95	1959.91
658.14	1941.47
658.32	1964.00
658.51	1890.28
658.70	2004.96
658.89	2011.11
659.08	1996.77
659.26	2095.07
659.45	1959.91
659.64	2074.59
659.83	2060.26
660.01	2287.58
660.20	1998.82
660.39	2129.89
660.58	1832.93
660.76	2021.35
660.95	1894.37
661.14	1951.71
661.33	1892.32
661.51	1966.05
661.70	2013.15
661.89	2015.20
662.08	1916.90
662.26	1951.71
662.45	1841.12
662.64	2150.37
662.83	1992.67
663.01	1837.03
663.20	1957.86
663.39	2076.64
663.58	1949.67
663.76	1894.37
663.95	1984.48
664.14	1937.38
664.32	1951.71
664.51	1841.12
664.70	1841.12
664.89	2041.82
665.07	1869.80
665.26	2054.11
665.45	1935.33
665.64	2035.68
665.82	2029.54
666.01	2105.31
666.20	1886.18
666.38	2060.26
666.57	2058.21
666.76	2818.00
666.95	6875.03
667.13	14903.07
667.32	20930.24
667.51	25073.28
667.69	27160.16
667.88	25771.64
668.07	18566.88
668.25	14407.46
668.44	11648.85
668.63	10100.58
668.81	8898.42
669.00	7931.78
669.19	7012.24
669.38	6289.31
669.56	5250.99
669.75	4358.08
669.94	3704.78
670.12	3100.62
670.31	2682.84
670.50	2410.46
670.68	2291.68
670.87	2133.98
671.06	2045.92
671.24	2068.45
671.43	2162.66
671.62	2060.26
671.80	2004.96
671.99	1988.58
672.18	1970.15
672.36	2076.64
672.55	1996.77
672.74	1943.52
672.92	1978.34
673.11	2045.92
673.29	2013.15
673.48	1961.95
673.67	1959.91
673.85	1982.43
674.04	1925.09
674.23	2009.06
674.41	2070.50
674.60	1918.95
674.79	1871.84
674.97	1957.86
675.16	1902.56
675.34	1937.38
675.53	1871.84
675.72	1976.29
675.90	2033.63
676.09	1920.99
676.28	1951.71
676.46	1861.60
676.65	1914.85
676.83	1855.46
677.02	1982.43
677.21	1968.10
677.39	1945.57
677.58	1841.12
677.77	1959.91
677.95	1818.60
678.14	1949.67
678.32	1982.43
678.51	1923.04
678.70	2168.80
678.88	1920.99
679.07	2021.35
679.25	1947.62
679.44	1994.72
679.63	1914.85
679.81	1982.43
680.00	2031.58
680.18	2035.68
680.37	2099.17
680.55	2007.01
680.74	1800.16
680.93	1843.17
681.11	2078.69
681.30	1994.72
681.48	2062.30
681.67	1904.61
681.85	1984.48
682.04	1941.47
682.23	2045.92
682.41	2045.92
682.60	1972.19
682.78	1902.56
682.97	1877.99
683.15	1992.67
683.34	1996.77
683.53	2072.54
683.71	1908.71
683.90	2125.79
684.08	2127.84
684.27	1920.99
684.45	1994.72
684.64	2037.73
684.82	2043.87
685.01	1929.19
685.19	1990.63
685.38	1966.05
685.57	2017.25
685.75	1929.19
685.94	1931.23
686.12	1925.09
686.31	1966.05
686.49	2076.64
686.68	1861.60
686.86	1988.58
687.05	1910.75
687.23	2121.70
687.42	1972.19
687.60	1814.50
687.79	1992.67
687.97	2111.46
688.16	2033.63
688.34	2045.92
688.53	1957.86
688.71	1984.48
688.90	2084.83
689.08	1947.62
689.27	1818.60
689.45	1925.09
689.64	1974.24
689.82	1966.05
690.01	2019.30
690.19	2017.25
690.38	1966.05
690.56	2099.17
690.75	1900.52
690.93	1955.81
691.12	1910.75
691.30	1937.38
691.49	1941.47
691.67	1970.15
691.86	2045.92
692.04	1900.52
692.23	1976.29
692.41	2025.44
692.60	2115.55
692.78	2146.27
692.97	2076.64
693.15	2074.59
693.34	2117.60
693.52	2062.30
693.71	1941.47
693.89	1939.43
694.08	1863.65
694.26	1994.72
694.44	2045.92
694.63	2066.40
694.81	1955.81
695.00	1894.37
695.18	2119.65
695.37	2152.42
695.55	1943.52
695.74	1939.43
695.92	1914.85
696.10	2115.55
696.29	1882.08
696.47	1972.19
696.66	1892.32
696.84	1884.13
697.03	1925.09
697.21	2090.98
697.40	2811.86
697.58	2035.68
697.76	1867.75
697.95	1871.84
698.13	1949.67
698.32	1914.85
698.50	2002.91
698.68	2007.01
698.87	1947.62
699.05	2074.59
699.24	2009.06
699.42	1859.56
699.61	1968.10
699.79	1970.15
699.97	2037.73
700.16	1941.47
700.34	1820.64
700.53	1992.67
700.71	2123.74
700.89	2078.69
701.08	1951.71
701.26	2021.35
701.45	2506.71
701.63	1949.67
701.81	1998.82
702.00	1888.23
702.18	1943.52
702.37	1980.39
702.55	2201.57
702.73	2246.62
702.92	2179.04
703.10	2326.49
703.28	2230.24
703.47	2090.98
703.65	2150.37
703.84	2189.28
704.02	2011.11
704.20	2115.55
704.39	1957.86
704.57	1986.53
704.75	2013.15
704.94	2039.78
705.12	2029.54
705.30	2254.81
705.49	3618.76
705.67	9154.42
705.86	18431.72
706.04	23623.32
706.22	27258.46
706.41	29220.42
706.59	25652.86
706.77	18366.18
706.96	14477.09
707.14	12697.41
707.32	10889.05
707.51	9707.37
707.69	8130.44
707.87	6840.22
708.06	5330.86
708.24	4173.76
708.42	3354.57
708.61	2918.36
708.79	2338.78
708.97	2269.15
709.16	2146.27
709.34	2058.21
709.52	2039.78
709.71	1986.53
709.89	2043.87
710.07	1929.19
710.26	1886.18
710.44	2029.54
710.62	2000.87
710.80	1974.24
710.99	2095.07
711.17	2101.22
711.35	1982.43
711.54	1964.00
711.72	2072.54
711.90	2013.15
712.09	1945.57
712.27	2000.87
712.45	2023.39
712.63	1904.61
712.82	2017.25
713.00	1927.14
713.18	2064.35
713.37	2052.06
713.55	1990.63
713.73	2007.01
713.91	2009.06
714.10	1869.80
714.28	1931.23
714.46	2015.20
714.65	1955.81
714.83	2000.87
715.01	1888.23
715.19	2076.64
715.38	1900.52
715.56	2070.50
715.74	1933.28
715.92	1974.24
716.11	2101.22
716.29	1769.44
716.47	1933.28
716.65	1996.77
716.84	1912.80
717.02	2099.17
717.20	1857.51
717.38	1933.28
717.57	1986.53
717.75	2045.92
717.93	1910.75
718.11	1964.00
718.30	1931.23
718.48	1994.72
718.66	2062.30
718.84	2056.16
719.03	1959.91
719.21	1935.33
719.39	2095.07
719.57	1980.39
719.75	2076.64
719.94	1916.90
720.12	1945.57
720.30	1974.24
720.48	2031.58
720.67	1949.67
720.85	1904.61
721.03	1925.09
721.21	1880.04
721.39	2047.97
721.58	1980.39
721.76	2017.25
721.94	1972.19
722.12	2017.25
722.30	2045.92
722.49	1949.67
722.67	1986.53
722.85	2084.83
723.03	1888.23
723.21	1920.99
723.40	1988.58
723.58	2054.11
723.76	2107.36
723.94	2152.42
724.12	2045.92
724.30	2240.48
724.49	2148.32
724.67	2045.92
724.85	2066.40
725.03	1988.58
725.21	2019.30
725.40	2076.64
725.58	1896.42
725.76	2080.74
725.94	1939.43
726.12	1947.62
726.30	1974.24
726.49	2015.20
726.67	1914.85
726.85	1980.39
727.03	2164.70
727.21	3143.63
727.39	4753.34
727.57	5982.12
727.76	6801.30
727.94	7419.79
728.12	7141.27
728.30	5943.21
728.48	4777.91
728.66	4394.94
728.84	3925.96
729.03	3368.91
729.21	2877.40
729.39	2611.16
729.57	2387.93
729.75	2174.94
729.93	2138.08
730.11	2031.58
730.30	1980.39
730.48	1964.00
730.66	2133.98
730.84	1992.67
731.02	1980.39
731.20	1904.61
731.38	1906.66
731.56	1945.57
731.74	1834.98
731.93	2000.87
732.11	1964.00
732.29	1910.75
732.47	2021.35
732.65	2021.35
732.83	2017.25
733.01	1988.58
733.19	1851.36
733.37	1953.76
733.56	2009.06
733.74	1884.13
733.92	2009.06
734.10	1935.33
734.28	2095.07
734.46	1845.22
734.64	1877.99
734.82	1964.00
735.00	1916.90
735.18	1933.28
735.36	1947.62
735.54	2019.30
735.73	1990.63
735.91	1953.76
736.09	1992.67
736.27	2007.01
736.45	1957.86
736.63	1904.61
736.81	1851.36
736.99	2019.30
737.17	2045.92
737.35	1949.67
737.53	1959.91
737.71	1916.90
737.89	2086.88
738.07	1920.99
738.25	1949.67
738.43	1845.22
738.61	1908.71
738.80	1923.04
738.98	1863.65
739.16	1896.42
739.34	1888.23
739.52	2113.50
739.70	1869.80
739.88	2033.63
740.06	2019.30
740.24	1832.93
740.42	1961.95
740.60	1925.09
740.78	1896.42
740.96	1804.26
741.14	1912.80
741.32	1966.05
741.50	1800.16
741.68	2068.45
741.86	1996.77
742.04	1841.12
742.22	1937.38
742.40	1925.09
742.58	2088.93
742.76	1882.08
742.94	2041.82
743.12	1851.36
743.30	1955.81
743.48	2021.35
743.66	2009.06
743.84	1998.82
744.02	1992.67
744.20	1982.43
744.38	1857.51
744.56	1892.32
744.74	2070.50
744.92	2074.59
745.10	2170.85
745.28	2029.54
745.46	2084.83
745.64	2021.35
745.82	2011.11
746.00	1945.57
746.18	1951.71
746.36	1900.52
746.54	1980.39
746.72	1890.28
746.90	1916.90
747.08	2043.87
747.26	1939.43
747.44	1970.15
747.62	1937.38
747.80	2066.40
747.98	2039.78
748.15	2011.11
748.33	2029.54
748.51	1970.15
748.69	2050.02
748.87	1834.98
749.05	1880.04
749.23	1970.15
749.41	1951.71
749.59	1923.04
749.77	2031.58
749.95	1884.13
750.13	1849.32
750.31	2009.06
750.49	1964.00
750.67	2019.30
750.85	2086.88
751.03	1898.47
751.20	2119.65
751.38	1935.33
751.56	1961.95
751.74	1986.53
751.92	1910.75
752.10	1927.14
752.28	2031.58
752.46	1849.32
752.64	1964.00
752.82	1974.24
753.00	1996.77
753.18	1927.14
753.35	1880.04
753.53	1871.84
753.71	1968.10
753.89	1982.43
754.07	1998.82
754.25	2080.74
754.43	2009.06
754.61	1847.27
754.79	1916.90
754.97	1931.23
755.14	2064.35
755.32	1832.93
755.50	1957.86
755.68	1982.43
755.86	1875.94
756.04	1935.33
756.22	1841.12
756.40	2011.11
756.57	2086.88
756.75	1945.57
756.93	2068.45
757.11	1984.48
757.29	1789.92
757.47	1867.75
757.65	1861.60
757.82	1794.02
758.00	1955.81
758.18	1951.71
758.36	1808.36
758.54	2054.11
758.72	1859.56
758.90	1984.48
759.07	1935.33
759.25	1961.95
759.43	1990.63
759.61	1863.65
759.79	2578.39
759.97	2066.40
760.15	1964.00
760.32	1898.47
760.50	1972.19
760.68	2074.59
760.86	1873.89
761.04	2035.68
761.22	2064.35
761.39	1945.57
761.57	2037.73
761.75	1984.48
761.93	2023.39
762.11	1929.19
762.28	1972.19
762.46	1855.46
762.64	2017.25
762.82	1898.47
763.00	1990.63
763.18	2060.26
763.35	1845.22
763.53	1970.15
763.71	1943.52
763.89	2015.20
764.07	1990.63
764.24	1884.13
764.42	2086.88
764.60	1916.90
764.78	2004.96
764.96	1990.63
765.13	1978.34
765.31	1925.09
765.49	2064.35
765.67	1906.66
765.84	1912.80
766.02	1945.57
766.20	1853.41
766.38	1970.15
766.56	1998.82
766.73	1986.53
766.91	1970.15
767.09	1968.10
767.27	2078.69
767.44	1910.75
767.62	1984.48
767.80	1923.04
767.98	1910.75
768.15	1980.39
768.33	1988.58
768.51	1964.00
768.69	1964.00
768.87	1961.95
769.04	1910.75
769.22	2136.03
769.40	2084.83
769.58	2105.31
769.75	1984.48
769.93	2058.21
770.11	1961.95
770.28	1898.47
770.46	2035.68
770.64	1984.48
770.82	1939.43
770.99	1912.80
771.17	1970.15
771.35	1959.91
771.53	1972.19
771.70	1931.23
771.88	2054.11
772.06	1998.82
772.23	1894.37
772.41	1945.57
772.59	1916.90
772.77	1812.45
772.94	1992.67
773.12	2002.91
773.30	1949.67
773.47	2000.87
773.65	1939.43
773.83	2078.69
774.01	1961.95
774.18	1818.60
774.36	1947.62
774.54	1902.56
774.71	2009.06
774.89	1808.36
775.07	1918.95
775.24	1869.80
775.42	2015.20
775.60	2105.31
775.78	1931.23
775.95	1837.03
776.13	1832.93
776.31	1771.49
776.48	1920.99
776.66	2035.68
776.84	1931.23
777.01	1925.09
777.19	1873.89
777.37	1925.09
777.54	1984.48
777.72	2019.30
777.90	1945.57
778.07	1949.67
778.25	2170.85
778.43	2037.73
778.60	1935.33
778.78	1992.67
778.96	2056.16
779.13	1892.32
779.31	1988.58
779.49	1937.38
779.66	1947.62
779.84	1927.14
780.01	1996.77
780.19	1900.52
780.37	2088.93
780.54	1974.24
780.72	1918.95
780.90	1980.39
781.07	1925.09
781.25	1980.39
781.43	1982.43
781.60	1978.34
781.78	2029.54
781.95	1918.95
782.13	1943.52
782.31	1906.66
782.48	1828.84
782.66	1923.04
782.83	2125.79
783.01	2017.25
783.19	2064.35
783.36	2017.25
783.54	1791.97
783.72	2021.35
783.89	1916.90
784.07	1992.67
784.24	1957.86
784.42	2082.78
784.60	2019.30
784.77	1988.58
784.95	1802.21
785.12	1853.41
785.30	1947.62
785.47	1855.46
785.65	1892.32
785.83	1951.71
786.00	1939.43
786.18	1998.82
786.35	1939.43
786.53	1910.75
786.71	2111.46
786.88	2066.40
787.06	1984.48
787.23	1943.52
787.41	1857.51
787.58	2002.91
787.76	1843.17
787.94	1916.90
788.11	1980.39
788.29	1933.28
788.46	1867.75
788.64	1769.44
788.81	1968.10
788.99	1933.28
789.16	1910.75
789.34	1910.75
789.52	1957.86
789.69	1873.89
789.87	1812.45
790.04	1918.95
790.22	1923.04
790.39	2170.85
790.57	1871.84
790.74	1877.99
790.92	2047.97
791.09	1890.28
791.27	2039.78
791.44	1968.10
791.62	1871.84
791.79	1982.43
791.97	1923.04
792.15	2113.50
792.32	1949.67
792.50	1945.57
792.67	2033.63
792.85	2123.74
793.02	2002.91
793.20	1939.43
793.37	1847.27
793.55	1980.39
793.72	1849.32
793.90	1976.29
794.07	1918.95
794.25	1949.67
794.42	1964.00
794.60	1949.67
794.77	2039.78
794.95	1941.47
795.12	1927.14
795.30	1959.91
795.47	1873.89
795.65	2179.04
795.82	2009.06
796.00	1867.75
796.17	1898.47
796.34	1929.19
796.52	1972.19
796.69	1961.95
796.87	2052.06
797.04	2041.82
797.22	2004.96
797.39	1896.42
797.57	2078.69
797.74	1923.04
797.92	1925.09
798.09	1886.18
798.27	2031.58
798.44	1980.39
798.62	1939.43
798.79	2050.02
798.96	1964.00
799.14	1972.19
799.31	2150.37
799.49	1970.15
799.66	1933.28
799.84	1927.14
800.01	1867.75
800.19	1880.04
800.36	1877.99
800.53	1951.71
800.71	2074.59
800.88	2050.02
801.06	1935.33
801.23	2002.91
801.41	1904.61
801.58	2041.82
801.75	1853.41
801.93	1949.67
802.10	2004.96
802.28	2000.87
802.45	1880.04
802.63	2004.96
802.80	2045.92
802.97	1873.89
803.15	1925.09
803.32	1900.52
803.50	1875.94
803.67	1959.91
803.84	1865.70
804.02	2019.30
804.19	1914.85
804.37	1798.12
804.54	1849.32
804.71	1943.52
804.89	1949.67
805.06	1794.02
805.24	1818.60
805.41	1871.84
805.58	1980.39
805.76	2121.70
805.93	1951.71
806.10	1937.38
806.28	1933.28
806.45	1951.71
806.63	1964.00
806.80	2121.70
806.97	2011.11
807.15	1990.63
807.32	1986.53
807.49	1871.84
807.67	1847.27
807.84	1906.66
808.01	1857.51
808.19	2086.88
808.36	2164.70
808.54	1970.15
808.71	1894.37
808.88	1949.67
809.06	2070.50
809.23	2050.02
809.40	1890.28
809.58	1968.10
809.75	1972.19
809.92	1925.09
810.10	2156.51
810.27	1927.14
810.44	2037.73
810.62	2033.63
810.79	1978.34
810.96	1892.32
811.14	1972.19
811.31	1957.86
811.48	1886.18
811.66	1918.95
811.83	2007.01
812.00	2041.82
812.18	1968.10
812.35	2023.39
812.52	1914.85
812.69	1937.38
812.87	1896.42
813.04	1914.85
813.21	1990.63
813.39	1871.84
813.56	1935.33
813.73	2121.70
813.91	1830.88
814.08	1982.43
814.25	2019.30
814.42	1912.80
814.60	1939.43
814.77	1953.76
814.94	1974.24
815.12	1941.47
815.29	2105.31
815.46	1849.32
815.63	1984.48
815.81	1976.29
815.98	1828.84
816.15	1929.19
816.33	1908.71
816.50	1908.71
816.67	1923.04
816.84	2019.30
817.02	1847.27
817.19	1861.60
817.36	2013.15
817.53	1951.71
817.71	1943.52
817.88	2013.15
818.05	1861.60
818.22	1892.32
818.40	2136.03
818.57	1933.28
818.74	2004.96
818.91	1902.56
819.09	1923.04
819.26	2025.44
819.43	1877.99
819.60	1953.76
819.78	2004.96
819.95	2095.07
820.12	1914.85
820.29	1996.77
820.47	2103.26
820.64	1964.00
820.81	1771.49
820.98	1853.41
821.15	1900.52
821.33	2041.82
821.50	1861.60
821.67	1992.67
821.84	1941.47
822.02	1990.63
822.19	2025.44
822.36	1937.38
822.53	1939.43
822.70	1945.57
822.88	1884.13
823.05	2045.92
823.22	1935.33
823.39	1914.85
823.56	1857.51
823.74	2121.70
823.91	1933.28
824.08	1877.99
824.25	1939.43
824.42	2066.40
824.60	1849.32
824.77	1912.80
824.94	1947.62
825.11	2025.44
825.28	1898.47
825.45	1972.19
825.63	1961.95
825.80	1892.32
825.97	1974.24
826.14	1888.23
826.31	1830.88
826.48	1974.24
826.66	1847.27
826.83	1955.81
827.00	1906.66
827.17	1845.22
827.34	1974.24
827.51	1943.52
827.69	1961.95
827.86	1877.99
828.03	1943.52
828.20	1918.95
828.37	1908.71
828.54	2013.15
828.71	1978.34
828.89	2123.74
829.06	1974.24
829.23	2047.97
829.40	1920.99
829.57	1953.76
829.74	1957.86
829.91	1904.61
830.09	1916.90
830.26	1992.67
830.43	2033.63
830.60	1892.32
830.77	2009.06
830.94	2019.30
831.11	2025.44
831.28	1994.72
831.46	2045.92
831.63	1853.41
831.80	2029.54
831.97	1890.28
832.14	1920.99
832.31	1959.91
832.48	1918.95
832.65	2023.39
832.82	1982.43
832.99	1947.62
833.17	1873.89
833.34	1957.86
833.51	1978.34
833.68	1847.27
833.85	1996.77
834.02	1859.56
834.19	1818.60
834.36	1927.14
834.53	1898.47
834.70	2031.58
834.87	2050.02
835.04	1945.57
835.22	1859.56
835.39	1892.32
835.56	1910.75
835.73	1896.42
835.90	2058.21
836.07	1877.99
836.24	2037.73
836.41	1863.65
836.58	1871.84
836.75	2013.15
836.92	1966.05
837.09	1984.48
837.26	1996.77
837.43	2019.30
837.60	1998.82
837.77	1845.22
837.94	2064.35
838.12	2011.11
838.29	1906.66
838.46	1802.21
838.63	1871.84
838.80	2025.44
838.97	1929.19
839.14	1998.82
839.31	1994.72
839.48	1951.71
839.65	1937.38
839.82	1974.24
839.99	1955.81
840.16	2004.96
840.33	1937.38
840.50	1992.67
840.67	1828.84
840.84	1783.78
841.01	1923.04
841.18	1957.86
841.35	2011.11
841.52	1986.53
841.69	2088.93
841.86	1920.99
842.03	2007.01
842.20	2062.30
842.37	1910.75
842.54	1912.80
842.71	1976.29
842.88	1873.89
843.05	2023.39
843.22	1972.19
843.39	1939.43
843.56	1890.28
843.73	1951.71
843.90	1972.19
844.07	1984.48
844.24	1998.82
844.41	2054.11
844.58	1923.04
844.75	1931.23
844.92	2017.25
845.09	1929.19
845.26	1873.89
845.43	2052.06
845.60	1935.33
845.77	1964.00
845.94	2021.35
846.10	2015.20
846.27	1865.70
846.44	1806.31
846.61	1845.22
846.78	1990.63
846.95	1970.15
847.12	1923.04
847.29	1916.90
847.46	1859.56
847.63	1976.29
847.80	2037.73
847.97	1812.45
848.14	2131.94
848.31	1955.81
848.48	1865.70
848.65	1959.91
848.82	1853.41
848.98	2113.50
849.15	1955.81
849.32	2033.63
849.49	1998.82
849.66	1972.19
849.83	1957.86
850.00	1896.42
850.17	2039.78
850.34	1918.95
850.51	1882.08
850.68	1849.32
850.85	2201.57
851.01	1931.23
851.18	1914.85
851.35	1988.58
851.52	1988.58
851.69	2117.60
851.86	1804.26
852.03	1884.13
852.20	1937.38
852.37	1966.05
852.53	1867.75
852.70	2002.91
852.87	1980.39
853.04	1961.95
853.21	1935.33
853.38	1935.33
853.55	2070.50
853.72	2029.54
853.89	1863.65
854.05	1830.88
854.22	1925.09
854.39	1961.95
854.56	1970.15
854.73	2041.82
854.90	1789.92
855.07	1904.61
855.23	1970.15
855.40	1904.61
855.57	1994.72
855.74	1791.97
855.91	2058.21
856.08	1886.18
856.25	1914.85
856.41	1933.28
856.58	1863.65
856.75	1896.42
856.92	1822.69
857.09	2052.06
857.26	1798.12
857.42	1898.47
857.59	1968.10
857.76	2013.15
857.93	2015.20
858.10	2019.30
858.27	1841.12
858.43	1941.47
858.60	1869.80
858.77	1806.31
858.94	2025.44
859.11	2013.15
859.27	1875.94
859.44	1880.04
859.61	2129.89
859.78	2002.91
859.95	1908.71
860.12	1884.13
860.28	2107.36
860.45	2166.75
860.62	1920.99
860.79	1996.77
860.95	1898.47
861.12	1888.23
861.29	1910.75
861.46	1951.71
861.63	1972.19
861.79	1964.00
861.96	1923.04
862.13	1943.52
862.30	1982.43
862.47	1816.55
862.63	1871.84
862.80	1970.15
862.97	1966.05
863.14	1937.38
863.30	1970.15
863.47	1898.47
863.64	2052.06
863.81	2000.87
863.97	1916.90
864.14	1929.19
864.31	1900.52
864.48	1898.47
864.65	1972.19
864.81	2070.50
864.98	1992.67
865.15	2013.15
865.32	2029.54
865.48	1990.63
865.65	2074.59
865.82	1959.91
865.98	1974.24
866.15	1994.72
866.32	1902.56
866.49	1972.19
866.65	1976.29
866.82	1945.57
866.99	1929.19
867.16	1976.29
867.32	1884.13
867.49	1957.86
867.66	1933.28
867.83	1916.90
867.99	1830.88
868.16	1941.47
868.33	1863.65
868.49	1961.95
868.66	1910.75
868.83	1947.62
868.99	1970.15
869.16	1906.66
869.33	2136.03
869.50	1992.67
869.66	2019.30
869.83	1880.04
870.00	1824.74
870.16	2047.97
870.33	1920.99
870.50	2031.58
870.66	1933.28
870.83	2070.50
871.00	1953.76
871.17	1894.37
871.33	2021.35
871.50	1906.66
871.67	1970.15
871.83	1904.61
872.00	2080.74
872.17	1906.66
872.33	2060.26
872.50	1998.82
872.67	1912.80
872.83	1949.67
873.00	1968.10
873.17	1951.71
873.33	1994.72
873.50	2002.91
873.67	1910.75
873.83	1906.66
874.00	1953.76
874.16	2015.20
874.33	1970.15
874.50	1861.60
874.66	2043.87
874.83	1941.47
875.00	1992.67
875.16	1976.29
875.33	1970.15
875.50	1802.21
875.66	1947.62
875.83	1943.52
875.99	1966.05
876.16	1939.43
876.33	1916.90
876.49	1961.95
876.66	2007.01
876.83	1943.52
876.99	1902.56
877.16	1964.00
877.32	1931.23
877.49	1937.38
877.66	2035.68
877.82	2004.96
877.99	2002.91
878.15	2035.68
878.32	2068.45
878.49	1925.09
878.65	1939.43
878.82	1964.00
878.98	1914.85
879.15	2011.11
879.32	1970.15
879.48	1992.67
879.65	1925.09
879.81	1935.33
879.98	1939.43
880.15	1974.24
880.31	1929.19
880.48	1828.84
880.64	1986.53
880.81	2019.30
880.97	2039.78
881.14	1996.77
881.31	1896.42
881.47	2097.12
881.64	1882.08
881.80	1808.36
881.97	1937.38
882.13	1984.48
882.30	1859.56
882.47	1966.05
882.63	1908.71
882.80	1931.23
882.96	1910.75
883.13	2011.11
883.29	1914.85
883.46	1929.19
883.62	2140.13
883.79	1945.57
883.95	2072.54
884.12	1968.10
884.29	2058.21
884.45	1912.80
884.62	2035.68
884.78	1894.37
884.95	2105.31
885.11	1968.10
885.28	1945.57
885.44	1959.91
885.61	1996.77
885.77	2037.73
885.94	1982.43
886.10	1972.19
886.27	1951.71
886.43	2097.12
886.60	1949.67
886.76	1906.66
886.93	1761.25
887.09	1990.63
887.26	1931.23
887.42	1992.67
887.59	1978.34
887.75	2127.84
887.92	2062.30
888.08	1968.10
888.25	2039.78
888.41	1992.67
888.58	1982.43
888.74	1875.94
888.91	1931.23
>>>>>End Processed Spectral Data<<<<<
