SpectraSuite Data File
++++++++++++++++++++++++++++++++++++
Date: Wed May 04 22:45:32 CEST 2016
User: root
Dark Spectrum Present: No
Reference Spectrum Present: No
Number of Sampled Component Spectra: 1
Spectrometers: USB4C02835
Integration Time (usec): 100000 (USB4C02835)
Spectra Averaged: 1 (USB4C02835)
Boxcar Smoothing: 0 (USB4C02835)
Correct for Electrical Dark: No (USB4C02835)
Strobe/Lamp Enabled: No (USB4C02835)
Correct for Detector Non-linearity: No (USB4C02835)
Correct for Stray Light: No (USB4C02835)
Number of Pixels in Processed Spectrum: 3648
>>>>>Begin Processed Spectral Data<<<<<
177.47	1595.37
177.69	1595.37
177.91	1595.37
178.13	1642.47
178.36	1667.05
178.58	1880.04
178.80	1937.38
179.02	1916.90
179.24	1877.99
179.46	1988.58
179.68	1961.95
179.90	1961.95
180.13	1959.91
180.35	1925.09
180.57	1929.19
180.79	1990.63
181.01	2025.44
181.23	2058.21
181.45	2045.92
181.67	1996.77
181.90	2021.35
182.12	1888.23
182.34	1865.70
182.56	1955.81
182.78	2105.31
183.00	1884.13
183.22	1976.29
183.44	1916.90
183.66	2185.18
183.89	2033.63
184.11	1996.77
184.33	2043.87
184.55	2039.78
184.77	1933.28
184.99	1894.37
185.21	1902.56
185.43	2136.03
185.65	1808.36
185.87	1984.48
186.10	2076.64
186.32	2203.61
186.54	2029.54
186.76	2039.78
186.98	2082.78
187.20	1939.43
187.42	1912.80
187.64	1988.58
187.86	1947.62
188.08	2009.06
188.30	1933.28
188.52	1980.39
188.75	1990.63
188.97	2011.11
189.19	1947.62
189.41	1896.42
189.63	1970.15
189.85	1953.76
190.07	1875.94
190.29	1853.41
190.51	1988.58
190.73	1816.55
190.95	2027.49
191.17	1972.19
191.39	1791.97
191.61	1931.23
191.84	1824.74
192.06	2027.49
192.28	1855.46
192.50	2283.49
192.72	1964.00
192.94	1920.99
193.16	2060.26
193.38	1982.43
193.60	1875.94
193.82	1916.90
194.04	2035.68
194.26	1986.53
194.48	1945.57
194.70	1896.42
194.92	1892.32
195.14	2047.97
195.36	1873.89
195.58	1976.29
195.80	2023.39
196.02	1923.04
196.24	1943.52
196.46	1927.14
196.69	1908.71
196.91	2093.02
197.13	1935.33
197.35	1869.80
197.57	2013.15
197.79	2107.36
198.01	1920.99
198.23	1974.24
198.45	1982.43
198.67	1861.60
198.89	1941.47
199.11	1951.71
199.33	1880.04
199.55	1775.59
199.77	1994.72
199.99	1978.34
200.21	1961.95
200.43	1953.76
200.65	1882.08
200.87	1746.92
201.09	1933.28
201.31	1929.19
201.53	1939.43
201.75	2033.63
201.97	1939.43
202.19	1990.63
202.41	1974.24
202.63	2058.21
202.85	2004.96
203.07	1961.95
203.29	1908.71
203.51	1843.17
203.73	1982.43
203.95	2179.04
204.17	1941.47
204.39	1927.14
204.61	2002.91
204.83	1980.39
205.05	2050.02
205.27	1990.63
205.49	2103.26
205.71	1916.90
205.93	1974.24
206.15	1900.52
206.37	2023.39
206.59	1955.81
206.81	1798.12
207.03	1789.92
207.25	2007.01
207.47	1984.48
207.69	1914.85
207.91	2052.06
208.13	2072.54
208.34	1976.29
208.56	1904.61
208.78	1941.47
209.00	1953.76
209.22	1910.75
209.44	1923.04
209.66	1933.28
209.88	1988.58
210.10	1933.28
210.32	2002.91
210.54	2021.35
210.76	1959.91
210.98	2050.02
211.20	1783.78
211.42	1953.76
211.64	2056.16
211.86	1976.29
212.08	2011.11
212.30	1939.43
212.52	2009.06
212.74	2015.20
212.96	1955.81
213.17	2047.97
213.39	2027.49
213.61	2062.30
213.83	1908.71
214.05	1945.57
214.27	2066.40
214.49	1886.18
214.71	1957.86
214.93	1990.63
215.15	1974.24
215.37	2007.01
215.59	1931.23
215.81	1918.95
216.03	2043.87
216.24	1966.05
216.46	1941.47
216.68	2004.96
216.90	2011.11
217.12	2064.35
217.34	1908.71
217.56	2027.49
217.78	2080.74
218.00	1968.10
218.22	1978.34
218.44	2019.30
218.66	2013.15
218.87	2047.97
219.09	1843.17
219.31	1978.34
219.53	1978.34
219.75	1906.66
219.97	1904.61
220.19	1968.10
220.41	1972.19
220.63	2088.93
220.85	1918.95
221.06	1949.67
221.28	2086.88
221.50	1972.19
221.72	1871.84
221.94	1916.90
222.16	1984.48
222.38	1992.67
222.60	2000.87
222.82	1951.71
223.03	2078.69
223.25	1869.80
223.47	1943.52
223.69	2031.58
223.91	2060.26
224.13	1972.19
224.35	1925.09
224.57	1994.72
224.78	1961.95
225.00	1882.08
225.22	1906.66
225.44	1947.62
225.66	2056.16
225.88	1892.32
226.10	2058.21
226.32	1961.95
226.53	2050.02
226.75	1882.08
226.97	1914.85
227.19	1951.71
227.41	1884.13
227.63	1918.95
227.85	1810.40
228.06	1902.56
228.28	2023.39
228.50	2011.11
228.72	1843.17
228.94	1937.38
229.16	1826.79
229.37	1912.80
229.59	1834.98
229.81	2080.74
230.03	1908.71
230.25	1900.52
230.47	1834.98
230.69	1804.26
230.90	2015.20
231.12	1834.98
231.34	1923.04
231.56	2004.96
231.78	1908.71
232.00	1931.23
232.21	1880.04
232.43	1863.65
232.65	1810.40
232.87	1988.58
233.09	1818.60
233.30	1984.48
233.52	2009.06
233.74	1918.95
233.96	1949.67
234.18	1933.28
234.40	1964.00
234.61	2062.30
234.83	1865.70
235.05	1898.47
235.27	2095.07
235.49	2123.74
235.70	1902.56
235.92	1968.10
236.14	1959.91
236.36	2086.88
236.58	1812.45
236.79	2035.68
237.01	1937.38
237.23	1859.56
237.45	2000.87
237.67	1875.94
237.88	1998.82
238.10	2133.98
238.32	1884.13
238.54	1935.33
238.76	1941.47
238.97	1894.37
239.19	1912.80
239.41	1978.34
239.63	2086.88
239.85	1847.27
240.06	1894.37
240.28	1947.62
240.50	2039.78
240.72	1937.38
240.93	1949.67
241.15	2013.15
241.37	2017.25
241.59	2039.78
241.81	1986.53
242.02	1927.14
242.24	1998.82
242.46	1996.77
242.68	1847.27
242.89	1886.18
243.11	2019.30
243.33	2017.25
243.55	1970.15
243.76	1980.39
243.98	1949.67
244.20	1986.53
244.42	1941.47
244.64	1949.67
244.85	1845.22
245.07	1861.60
245.29	2004.96
245.51	1949.67
245.72	2011.11
245.94	2021.35
246.16	1961.95
246.38	1982.43
246.59	1898.47
246.81	1941.47
247.03	1923.04
247.24	1857.51
247.46	1980.39
247.68	1964.00
247.90	1900.52
248.11	1826.79
248.33	2035.68
248.55	1849.32
248.77	1945.57
248.98	2058.21
249.20	2043.87
249.42	1988.58
249.64	1964.00
249.85	1923.04
250.07	1892.32
250.29	2004.96
250.50	2041.82
250.72	1851.36
250.94	2062.30
251.16	2060.26
251.37	2025.44
251.59	1974.24
251.81	1972.19
252.02	2045.92
252.24	1918.95
252.46	2041.82
252.68	1886.18
252.89	1869.80
253.11	1781.73
253.33	2078.69
253.54	2039.78
253.76	1861.60
253.98	1941.47
254.20	1943.52
254.41	1849.32
254.63	1957.86
254.85	1882.08
255.06	1933.28
255.28	1980.39
255.50	1996.77
255.71	1931.23
255.93	1834.98
256.15	2047.97
256.36	1951.71
256.58	1941.47
256.80	1955.81
257.02	1902.56
257.23	1992.67
257.45	1964.00
257.67	1986.53
257.88	1904.61
258.10	1931.23
258.32	1941.47
258.53	1896.42
258.75	2082.78
258.97	1914.85
259.18	1939.43
259.40	1955.81
259.62	2099.17
259.83	2109.41
260.05	1996.77
260.27	2277.34
260.48	2054.11
260.70	1886.18
260.92	1869.80
261.13	1880.04
261.35	1988.58
261.57	2002.91
261.78	1806.31
262.00	1783.78
262.22	1992.67
262.43	1859.56
262.65	1888.23
262.86	1955.81
263.08	2066.40
263.30	2017.25
263.51	1843.17
263.73	1892.32
263.95	2023.39
264.16	1984.48
264.38	1880.04
264.60	1976.29
264.81	1906.66
265.03	1980.39
265.25	2037.73
265.46	1886.18
265.68	2090.98
265.89	1984.48
266.11	1808.36
266.33	1970.15
266.54	2035.68
266.76	1953.76
266.98	1939.43
267.19	2025.44
267.41	1927.14
267.62	1908.71
267.84	1857.51
268.06	2009.06
268.27	1931.23
268.49	2029.54
268.70	2082.78
268.92	1933.28
269.14	1812.45
269.35	1957.86
269.57	2021.35
269.79	1972.19
270.00	1906.66
270.22	2062.30
270.43	1814.50
270.65	1781.73
270.87	1986.53
271.08	2025.44
271.30	1945.57
271.51	1914.85
271.73	1972.19
271.95	2050.02
272.16	1951.71
272.38	1943.52
272.59	1900.52
272.81	1988.58
273.02	1955.81
273.24	2064.35
273.46	2074.59
273.67	1849.32
273.89	1847.27
274.10	1886.18
274.32	1988.58
274.54	1933.28
274.75	1968.10
274.97	1927.14
275.18	1943.52
275.40	2007.01
275.61	1964.00
275.83	1984.48
276.05	1892.32
276.26	1886.18
276.48	2019.30
276.69	1869.80
276.91	2009.06
277.12	2101.22
277.34	2023.39
277.55	2045.92
277.77	1990.63
277.99	1918.95
278.20	1953.76
278.42	1839.08
278.63	1904.61
278.85	1869.80
279.06	1841.12
279.28	1980.39
279.49	2019.30
279.71	2050.02
279.93	1953.76
280.14	2011.11
280.36	1863.65
280.57	2054.11
280.79	1970.15
281.00	1976.29
281.22	1978.34
281.43	2011.11
281.65	1834.98
281.86	1888.23
282.08	1982.43
282.29	2052.06
282.51	1902.56
282.73	1857.51
282.94	1841.12
283.16	1990.63
283.37	2041.82
283.59	1990.63
283.80	1959.91
284.02	1908.71
284.23	1920.99
284.45	1886.18
284.66	1875.94
284.88	1941.47
285.09	1964.00
285.31	2017.25
285.52	1986.53
285.74	1839.08
285.95	2043.87
286.17	1974.24
286.38	2037.73
286.60	1865.70
286.81	1861.60
287.03	1945.57
287.24	1931.23
287.46	2029.54
287.67	1882.08
287.89	2097.12
288.10	1947.62
288.32	1953.76
288.53	2013.15
288.75	1927.14
288.96	2002.91
289.18	1970.15
289.39	1869.80
289.61	1966.05
289.82	2138.08
290.04	2097.12
290.25	1857.51
290.47	1896.42
290.68	1904.61
290.90	2000.87
291.11	1849.32
291.33	2072.54
291.54	1826.79
291.76	1916.90
291.97	1986.53
292.18	1929.19
292.40	1949.67
292.61	1894.37
292.83	2119.65
293.04	2021.35
293.26	1982.43
293.47	1943.52
293.69	1847.27
293.90	1970.15
294.12	2060.26
294.33	1964.00
294.55	1918.95
294.76	1992.67
294.97	2062.30
295.19	2109.41
295.40	1927.14
295.62	1925.09
295.83	2052.06
296.05	1918.95
296.26	1961.95
296.48	1902.56
296.69	2029.54
296.90	1894.37
297.12	2082.78
297.33	2107.36
297.55	2035.68
297.76	1957.86
297.98	2013.15
298.19	1957.86
298.41	2074.59
298.62	1898.47
298.83	2064.35
299.05	1990.63
299.26	1974.24
299.48	1937.38
299.69	1994.72
299.90	1984.48
300.12	1898.47
300.33	2009.06
300.55	1943.52
300.76	2041.82
300.98	1925.09
301.19	2009.06
301.40	1865.70
301.62	1890.28
301.83	2039.78
302.05	2025.44
302.26	1949.67
302.47	1966.05
302.69	1853.41
302.90	1972.19
303.12	1834.98
303.33	2041.82
303.54	2084.83
303.76	1970.15
303.97	2029.54
304.19	2111.46
304.40	1873.89
304.61	1974.24
304.83	2066.40
305.04	2007.01
305.26	2033.63
305.47	1898.47
305.68	1937.38
305.90	1890.28
306.11	2050.02
306.33	1925.09
306.54	1929.19
306.75	1937.38
306.97	1916.90
307.18	1875.94
307.39	1904.61
307.61	1933.28
307.82	1920.99
308.04	1976.29
308.25	1880.04
308.46	2007.01
308.68	1988.58
308.89	1941.47
309.10	2068.45
309.32	1982.43
309.53	1972.19
309.74	1970.15
309.96	1884.13
310.17	2060.26
310.39	1986.53
310.60	1992.67
310.81	1925.09
311.03	1843.17
311.24	1974.24
311.45	1957.86
311.67	2138.08
311.88	1953.76
312.09	1914.85
312.31	1912.80
312.52	2031.58
312.73	1996.77
312.95	1818.60
313.16	1886.18
313.37	2074.59
313.59	2093.02
313.80	2015.20
314.01	2078.69
314.23	1923.04
314.44	1867.75
314.65	1914.85
314.87	1941.47
315.08	1931.23
315.29	1880.04
315.51	1871.84
315.72	1806.31
315.93	2056.16
316.15	2015.20
316.36	1918.95
316.57	1968.10
316.79	2058.21
317.00	1910.75
317.21	2025.44
317.43	1832.93
317.64	1957.86
317.85	1968.10
318.07	1990.63
318.28	1992.67
318.49	2084.83
318.70	2316.25
318.92	2146.27
319.13	2129.89
319.34	2189.28
319.56	2070.50
319.77	2160.61
319.98	2099.17
320.20	2121.70
320.41	2123.74
320.62	2025.44
320.83	1867.75
321.05	2138.08
321.26	2029.54
321.47	1978.34
321.69	2066.40
321.90	1877.99
322.11	1943.52
322.32	1953.76
322.54	2052.06
322.75	1953.76
322.96	2123.74
323.18	1806.31
323.39	1783.78
323.60	1933.28
323.81	2041.82
324.03	1849.32
324.24	1953.76
324.45	1994.72
324.66	1968.10
324.88	2025.44
325.09	2035.68
325.30	1912.80
325.52	1990.63
325.73	1972.19
325.94	1906.66
326.15	1890.28
326.37	1912.80
326.58	1992.67
326.79	2068.45
327.00	1927.14
327.22	1986.53
327.43	1923.04
327.64	1830.88
327.85	1931.23
328.07	2041.82
328.28	2133.98
328.49	1937.38
328.70	1945.57
328.92	1937.38
329.13	1923.04
329.34	1904.61
329.55	2170.85
329.76	1953.76
329.98	1972.19
330.19	2090.98
330.40	1906.66
330.61	1964.00
330.83	2054.11
331.04	1904.61
331.25	1974.24
331.46	1957.86
331.68	1834.98
331.89	2027.49
332.10	1941.47
332.31	1822.69
332.52	2017.25
332.74	2035.68
332.95	1834.98
333.16	1935.33
333.37	2066.40
333.58	1939.43
333.80	1982.43
334.01	1886.18
334.22	1927.14
334.43	1855.46
334.64	1949.67
334.86	1802.21
335.07	1923.04
335.28	2088.93
335.49	1869.80
335.70	1918.95
335.92	2070.50
336.13	2142.18
336.34	2060.26
336.55	1953.76
336.76	1976.29
336.98	1814.50
337.19	1974.24
337.40	2043.87
337.61	2123.74
337.82	1865.70
338.04	2037.73
338.25	1816.55
338.46	1937.38
338.67	1937.38
338.88	1925.09
339.09	1826.79
339.31	1964.00
339.52	1953.76
339.73	1863.65
339.94	1935.33
340.15	1984.48
340.36	1912.80
340.58	1968.10
340.79	1871.84
341.00	2002.91
341.21	1925.09
341.42	2127.84
341.63	1939.43
341.85	2019.30
342.06	1882.08
342.27	1964.00
342.48	2070.50
342.69	1832.93
342.90	1970.15
343.12	2054.11
343.33	1867.75
343.54	2025.44
343.75	2078.69
343.96	1894.37
344.17	1959.91
344.38	1974.24
344.60	1935.33
344.81	1945.57
345.02	1886.18
345.23	2103.26
345.44	2179.04
345.65	2004.96
345.86	2086.88
346.07	1945.57
346.29	1896.42
346.50	2037.73
346.71	1986.53
346.92	2037.73
347.13	2123.74
347.34	1923.04
347.55	1935.33
347.76	2037.73
347.98	1869.80
348.19	1918.95
348.40	2004.96
348.61	1933.28
348.82	2146.27
349.03	2070.50
349.24	1894.37
349.45	2133.98
349.66	1808.36
349.88	1959.91
350.09	1912.80
350.30	2002.91
350.51	2027.49
350.72	2037.73
350.93	1994.72
351.14	1984.48
351.35	1964.00
351.56	1947.62
351.77	1980.39
351.99	2052.06
352.20	2095.07
352.41	2017.25
352.62	1798.12
352.83	1966.05
353.04	1902.56
353.25	1912.80
353.46	1992.67
353.67	2011.11
353.88	1767.40
354.09	1990.63
354.30	1914.85
354.52	2029.54
354.73	1964.00
354.94	1943.52
355.15	1925.09
355.36	2072.54
355.57	2023.39
355.78	1955.81
355.99	1920.99
356.20	1927.14
356.41	2062.30
356.62	2015.20
356.83	1935.33
357.04	2029.54
357.25	1920.99
357.46	1951.71
357.68	1820.64
357.89	1859.56
358.10	1933.28
358.31	1961.95
358.52	2031.58
358.73	1904.61
358.94	1904.61
359.15	1863.65
359.36	2045.92
359.57	1939.43
359.78	1984.48
359.99	2056.16
360.20	1847.27
360.41	1880.04
360.62	1949.67
360.83	1970.15
361.04	2041.82
361.25	1920.99
361.46	2113.50
361.67	1990.63
361.88	2007.01
362.09	2017.25
362.30	2002.91
362.51	1910.75
362.72	1908.71
362.93	2039.78
363.14	1947.62
363.35	1961.95
363.56	1871.84
363.78	1992.67
363.99	2009.06
364.20	1845.22
364.41	1970.15
364.62	2052.06
364.83	1966.05
365.04	1845.22
365.25	1992.67
365.46	2099.17
365.67	1851.36
365.88	1951.71
366.09	1931.23
366.30	1951.71
366.51	1964.00
366.72	1884.13
366.93	1894.37
367.14	1957.86
367.35	2011.11
367.56	1986.53
367.77	2009.06
367.98	1949.67
368.18	1972.19
368.39	1966.05
368.60	1882.08
368.81	2019.30
369.02	2017.25
369.23	1998.82
369.44	1873.89
369.65	1964.00
369.86	2017.25
370.07	1941.47
370.28	1964.00
370.49	1976.29
370.70	1986.53
370.91	1871.84
371.12	1886.18
371.33	2056.16
371.54	1912.80
371.75	2027.49
371.96	1742.82
372.17	2031.58
372.38	2009.06
372.59	1988.58
372.80	1902.56
373.01	1951.71
373.22	1947.62
373.43	1959.91
373.64	1914.85
373.85	2054.11
374.06	2052.06
374.26	1947.62
374.47	1994.72
374.68	2097.12
374.89	1994.72
375.10	1931.23
375.31	2031.58
375.52	1955.81
375.73	2000.87
375.94	1900.52
376.15	2052.06
376.36	1855.46
376.57	1918.95
376.78	1957.86
376.99	2017.25
377.20	2043.87
377.40	1970.15
377.61	2056.16
377.82	1890.28
378.03	2123.74
378.24	2103.26
378.45	1937.38
378.66	1966.05
378.87	1845.22
379.08	1896.42
379.29	1955.81
379.50	2031.58
379.71	1949.67
379.91	2007.01
380.12	1914.85
380.33	1908.71
380.54	1916.90
380.75	1968.10
380.96	2025.44
381.17	2082.78
381.38	2025.44
381.59	1953.76
381.80	2017.25
382.00	2121.70
382.21	1961.95
382.42	2138.08
382.63	2189.28
382.84	2090.98
383.05	2082.78
383.26	2068.45
383.47	1941.47
383.68	2023.39
383.88	1994.72
384.09	2002.91
384.30	2170.85
384.51	2004.96
384.72	1941.47
384.93	1875.94
385.14	2015.20
385.35	2164.70
385.55	1898.47
385.76	2086.88
385.97	1961.95
386.18	1832.93
386.39	1972.19
386.60	1869.80
386.81	1900.52
387.02	1863.65
387.22	1939.43
387.43	2127.84
387.64	2105.31
387.85	2140.13
388.06	2310.11
388.27	3880.90
388.48	8654.72
388.68	12277.57
388.89	14362.40
389.10	15533.84
389.31	14139.18
389.52	11009.88
389.73	9600.88
389.93	8716.16
390.14	8019.85
390.35	7247.76
390.56	6502.30
390.77	5361.58
390.98	4038.59
391.18	3143.63
391.39	2609.11
391.60	2154.46
391.81	2119.65
392.02	1994.72
392.23	2109.41
392.43	2074.59
392.64	2117.60
392.85	1961.95
393.06	2156.51
393.27	1964.00
393.47	1933.28
393.68	1986.53
393.89	1916.90
394.10	2138.08
394.31	1961.95
394.52	1914.85
394.72	1914.85
394.93	2115.55
395.14	2007.01
395.35	1984.48
395.56	1865.70
395.76	2011.11
395.97	2047.97
396.18	2103.26
396.39	2154.46
396.60	2363.36
396.80	2226.14
397.01	2183.13
397.22	2152.42
397.43	2160.61
397.64	1998.82
397.84	2070.50
398.05	2183.13
398.26	2097.12
398.47	2052.06
398.67	2060.26
398.88	1923.04
399.09	2000.87
399.30	1834.98
399.51	2029.54
399.71	1892.32
399.92	1920.99
400.13	2056.16
400.34	1998.82
400.54	1998.82
400.75	2117.60
400.96	1966.05
401.17	2170.85
401.37	1957.86
401.58	1959.91
401.79	1918.95
402.00	2078.69
402.21	2293.72
402.41	2248.67
402.62	2379.74
402.83	2396.12
403.04	2439.13
403.24	2453.47
403.45	2045.92
403.66	2256.86
403.87	2201.57
404.07	2183.13
404.28	2258.91
404.49	2242.53
404.70	2052.06
404.90	2068.45
405.11	1920.99
405.32	2027.49
405.52	1865.70
405.73	1996.77
405.94	1869.80
406.15	1933.28
406.35	1966.05
406.56	2025.44
406.77	1988.58
406.98	2050.02
407.18	1949.67
407.39	1992.67
407.60	1927.14
407.80	1949.67
408.01	1992.67
408.22	2017.25
408.43	1861.60
408.63	2023.39
408.84	2062.30
409.05	2031.58
409.25	1935.33
409.46	1914.85
409.67	1896.42
409.88	1920.99
410.08	2033.63
410.29	2013.15
410.50	2058.21
410.70	1941.47
410.91	1898.47
411.12	2000.87
411.32	1992.67
411.53	1902.56
411.74	2093.02
411.95	2033.63
412.15	2035.68
412.36	2062.30
412.57	2047.97
412.77	2047.97
412.98	1957.86
413.19	1968.10
413.39	2047.97
413.60	2011.11
413.81	2019.30
414.01	1974.24
414.22	2066.40
414.43	2088.93
414.63	1994.72
414.84	2019.30
415.05	1959.91
415.25	1759.21
415.46	2009.06
415.67	1966.05
415.87	2015.20
416.08	1937.38
416.29	1933.28
416.49	2033.63
416.70	1964.00
416.91	1908.71
417.11	1955.81
417.32	2007.01
417.53	2041.82
417.73	2023.39
417.94	1992.67
418.15	2004.96
418.35	1935.33
418.56	1931.23
418.77	2213.85
418.97	1961.95
419.18	1964.00
419.38	1826.79
419.59	1894.37
419.80	2052.06
420.00	1798.12
420.21	1951.71
420.42	2078.69
420.62	2002.91
420.83	1918.95
421.04	1976.29
421.24	1937.38
421.45	2000.87
421.65	1957.86
421.86	1880.04
422.07	1955.81
422.27	1998.82
422.48	1949.67
422.69	2007.01
422.89	2039.78
423.10	2045.92
423.30	1857.51
423.51	1898.47
423.72	1957.86
423.92	2062.30
424.13	1847.27
424.33	1918.95
424.54	2023.39
424.75	2050.02
424.95	2187.23
425.16	1961.95
425.36	1961.95
425.57	2109.41
425.78	1988.58
425.98	1992.67
426.19	1918.95
426.39	1818.60
426.60	2029.54
426.81	2052.06
427.01	2000.87
427.22	1869.80
427.42	1794.02
427.63	1884.13
427.83	1998.82
428.04	2054.11
428.25	2037.73
428.45	2056.16
428.66	2093.02
428.86	1984.48
429.07	1859.56
429.28	1992.67
429.48	1886.18
429.69	1834.98
429.89	1920.99
430.10	1904.61
430.30	2000.87
430.51	1951.71
430.71	1964.00
430.92	1937.38
431.13	1906.66
431.33	2050.02
431.54	1966.05
431.74	2074.59
431.95	2138.08
432.15	1892.32
432.36	2033.63
432.56	2025.44
432.77	2039.78
432.98	2146.27
433.18	1974.24
433.39	1914.85
433.59	1933.28
433.80	2090.98
434.00	2152.42
434.21	1857.51
434.41	1951.71
434.62	2125.79
434.82	1916.90
435.03	1945.57
435.23	1943.52
435.44	1806.31
435.64	1892.32
435.85	2009.06
436.06	1984.48
436.26	2000.87
436.47	1892.32
436.67	1984.48
436.88	1918.95
437.08	2056.16
437.29	2133.98
437.49	2023.39
437.70	2129.89
437.90	1980.39
438.11	2109.41
438.31	2074.59
438.52	2156.51
438.72	2164.70
438.93	2252.77
439.13	2009.06
439.34	2269.15
439.54	1986.53
439.75	2002.91
439.95	2107.36
440.16	1994.72
440.36	1959.91
440.57	1957.86
440.77	2004.96
440.98	1951.71
441.18	2066.40
441.39	1968.10
441.59	1888.23
441.80	2230.24
442.00	1888.23
442.21	2039.78
442.41	1880.04
442.62	2000.87
442.82	1990.63
443.02	1980.39
443.23	2015.20
443.43	1996.77
443.64	2123.74
443.84	1888.23
444.05	2138.08
444.25	2002.91
444.46	1988.58
444.66	2009.06
444.87	2052.06
445.07	1871.84
445.28	2002.91
445.48	2025.44
445.69	2011.11
445.89	2119.65
446.09	2009.06
446.30	2195.42
446.50	2633.69
446.71	4267.97
446.91	5318.57
447.12	6215.59
447.32	6614.94
447.53	5969.83
447.73	4913.08
447.93	4472.76
448.14	3950.53
448.34	3717.06
448.55	3446.73
448.75	3342.28
448.96	3143.63
449.16	2879.44
449.36	2658.26
449.57	2314.20
449.77	2119.65
449.98	2045.92
450.18	2068.45
450.39	2056.16
450.59	2058.21
450.79	1959.91
451.00	1947.62
451.20	2050.02
451.41	1947.62
451.61	2019.30
451.81	1980.39
452.02	2047.97
452.22	2015.20
452.43	1953.76
452.63	1959.91
452.84	2015.20
453.04	2043.87
453.24	2037.73
453.45	1976.29
453.65	2000.87
453.86	1980.39
454.06	1984.48
454.26	1949.67
454.47	1865.70
454.67	2062.30
454.87	2017.25
455.08	2025.44
455.28	2095.07
455.49	2013.15
455.69	1912.80
455.89	2152.42
456.10	2117.60
456.30	2004.96
456.51	2004.96
456.71	2015.20
456.91	2019.30
457.12	1910.75
457.32	2017.25
457.52	1927.14
457.73	2062.30
457.93	1986.53
458.14	1927.14
458.34	1888.23
458.54	1966.05
458.75	1972.19
458.95	2088.93
459.15	1898.47
459.36	2039.78
459.56	2041.82
459.76	2185.18
459.97	1964.00
460.17	1959.91
460.37	2004.96
460.58	1953.76
460.78	2070.50
460.99	1941.47
461.19	1912.80
461.39	1949.67
461.60	1947.62
461.80	2002.91
462.00	1888.23
462.21	2070.50
462.41	1959.91
462.61	1877.99
462.82	1871.84
463.02	2056.16
463.22	1941.47
463.43	2203.61
463.63	1998.82
463.83	2031.58
464.04	2037.73
464.24	1978.34
464.44	1884.13
464.64	1947.62
464.85	2076.64
465.05	2002.91
465.25	1914.85
465.46	1945.57
465.66	2029.54
465.86	2080.74
466.07	1951.71
466.27	1978.34
466.47	1945.57
466.68	1916.90
466.88	2052.06
467.08	2045.92
467.29	2072.54
467.49	1998.82
467.69	1964.00
467.89	2015.20
468.10	1947.62
468.30	1992.67
468.50	2109.41
468.71	2140.13
468.91	1916.90
469.11	2095.07
469.31	1951.71
469.52	1837.03
469.72	2064.35
469.92	2129.89
470.13	1992.67
470.33	1959.91
470.53	2164.70
470.73	2500.57
470.94	2875.35
471.14	3000.27
471.34	3465.16
471.54	3219.41
471.75	2895.83
471.95	2723.80
472.15	2525.15
472.36	2654.17
472.56	2484.19
472.76	2506.71
472.96	2402.27
473.17	2322.40
473.37	2250.72
473.57	2115.55
473.77	2113.50
473.98	2043.87
474.18	1861.60
474.38	2228.19
474.58	1918.95
474.79	1966.05
474.99	2031.58
475.19	2047.97
475.39	1920.99
475.60	1988.58
475.80	1943.52
476.00	1959.91
476.20	1941.47
476.41	1966.05
476.61	2072.54
476.81	2088.93
477.01	1937.38
477.21	2062.30
477.42	2047.97
477.62	1834.98
477.82	2066.40
478.02	1970.15
478.23	1945.57
478.43	1939.43
478.63	1945.57
478.83	1955.81
479.03	1841.12
479.24	2095.07
479.44	2209.76
479.64	1968.10
479.84	1810.40
480.04	1902.56
480.25	2017.25
480.45	1900.52
480.65	1943.52
480.85	2078.69
481.06	1992.67
481.26	2004.96
481.46	1943.52
481.66	1964.00
481.86	1904.61
482.06	1970.15
482.27	1935.33
482.47	1923.04
482.67	1961.95
482.87	1953.76
483.07	1982.43
483.28	2000.87
483.48	1951.71
483.68	1943.52
483.88	1935.33
484.08	1859.56
484.29	1966.05
484.49	1961.95
484.69	1843.17
484.89	2090.98
485.09	2056.16
485.29	2045.92
485.50	1964.00
485.70	1935.33
485.90	2068.45
486.10	1984.48
486.30	2013.15
486.50	2045.92
486.71	1957.86
486.91	2013.15
487.11	2070.50
487.31	1980.39
487.51	2060.26
487.71	2007.01
487.91	1861.60
488.12	1877.99
488.32	1779.68
488.52	1955.81
488.72	1816.55
488.92	2009.06
489.12	2129.89
489.32	2031.58
489.53	1976.29
489.73	1865.70
489.93	2156.51
490.13	1892.32
490.33	1869.80
490.53	2062.30
490.73	2019.30
490.94	1845.22
491.14	2037.73
491.34	2117.60
491.54	2293.72
491.74	2877.40
491.94	3596.23
492.14	3872.71
492.34	3848.13
492.54	3624.90
492.75	3047.38
492.95	2914.26
493.15	2719.70
493.35	2641.88
493.55	2633.69
493.75	2496.47
493.95	2428.89
494.15	2226.14
494.35	2138.08
494.56	2097.12
494.76	2093.02
494.96	2056.16
495.16	2062.30
495.36	2002.91
495.56	1943.52
495.76	1990.63
495.96	1920.99
496.16	1892.32
496.36	2166.75
496.56	1939.43
496.77	2023.39
496.97	1980.39
497.17	2072.54
497.37	1875.94
497.57	2093.02
497.77	1957.86
497.97	1906.66
498.17	1935.33
498.37	1949.67
498.57	2019.30
498.77	1990.63
498.97	2086.88
499.17	2097.12
499.38	1959.91
499.58	2019.30
499.78	2080.74
499.98	2076.64
500.18	1964.00
500.38	1880.04
500.58	2187.23
500.78	2654.17
500.98	4857.78
501.18	7071.64
501.38	8718.20
501.58	9820.01
501.78	9471.86
501.98	7514.00
502.18	6371.23
502.38	5365.68
502.58	4913.08
502.78	4558.78
502.98	4499.39
503.18	4089.79
503.38	3758.02
503.59	3313.61
503.79	3055.57
503.99	2795.48
504.19	2533.34
504.39	2619.35
504.59	2645.98
504.79	2684.89
504.99	2600.92
505.19	2320.35
505.39	2295.77
505.59	2406.36
505.79	2289.63
505.99	2193.37
506.19	2133.98
506.39	2232.29
506.59	1947.62
506.79	2033.63
506.99	2107.36
507.19	2037.73
507.39	2060.26
507.59	1853.41
507.79	1939.43
507.99	1947.62
508.19	1968.10
508.39	1959.91
508.59	1966.05
508.79	2105.31
508.99	2062.30
509.19	1904.61
509.39	2090.98
509.59	1863.65
509.79	1916.90
509.99	2023.39
510.19	1996.77
510.39	2037.73
510.59	2009.06
510.79	1929.19
510.99	1855.46
511.19	2035.68
511.39	2144.22
511.59	2002.91
511.79	2068.45
511.99	2004.96
512.19	2086.88
512.38	1984.48
512.58	1863.65
512.78	1935.33
512.98	2078.69
513.18	2043.87
513.38	1802.21
513.58	2045.92
513.78	1906.66
513.98	1951.71
514.18	1931.23
514.38	2002.91
514.58	2050.02
514.78	1957.86
514.98	2031.58
515.18	2007.01
515.38	1943.52
515.58	2111.46
515.78	1941.47
515.98	2025.44
516.18	2023.39
516.38	1947.62
516.57	1957.86
516.77	1890.28
516.97	2021.35
517.17	1955.81
517.37	1892.32
517.57	2056.16
517.77	1927.14
517.97	1906.66
518.17	1947.62
518.37	1916.90
518.57	1904.61
518.77	1986.53
518.97	1970.15
519.16	2050.02
519.36	2023.39
519.56	1998.82
519.76	2013.15
519.96	1966.05
520.16	2031.58
520.36	1898.47
520.56	2086.88
520.76	2000.87
520.96	1943.52
521.16	2031.58
521.35	2047.97
521.55	2068.45
521.75	1966.05
521.95	1976.29
522.15	1986.53
522.35	1863.65
522.55	1863.65
522.75	2015.20
522.95	2007.01
523.14	1859.56
523.34	2004.96
523.54	1945.57
523.74	2078.69
523.94	2002.91
524.14	1828.84
524.34	2095.07
524.54	2152.42
524.73	1894.37
524.93	2013.15
525.13	1968.10
525.33	1943.52
525.53	2209.76
525.73	2066.40
525.93	2000.87
526.13	1972.19
526.32	1986.53
526.52	2047.97
526.72	2041.82
526.92	1990.63
527.12	1902.56
527.32	1822.69
527.52	1966.05
527.71	2039.78
527.91	1945.57
528.11	1927.14
528.31	1980.39
528.51	1892.32
528.71	2076.64
528.90	2037.73
529.10	2066.40
529.30	2023.39
529.50	1902.56
529.70	1974.24
529.90	1998.82
530.09	1923.04
530.29	1904.61
530.49	1902.56
530.69	2115.55
530.89	1980.39
531.09	2054.11
531.28	1990.63
531.48	2082.78
531.68	2035.68
531.88	1980.39
532.08	2088.93
532.28	1923.04
532.47	2056.16
532.67	2070.50
532.87	2027.49
533.07	1966.05
533.27	2000.87
533.46	2052.06
533.66	2011.11
533.86	2064.35
534.06	2101.22
534.26	2045.92
534.45	1935.33
534.65	1982.43
534.85	1998.82
535.05	1955.81
535.25	2082.78
535.44	1849.32
535.64	2039.78
535.84	1980.39
536.04	1945.57
536.24	1886.18
536.43	1966.05
536.63	1978.34
536.83	1980.39
537.03	2037.73
537.22	1802.21
537.42	1894.37
537.62	2029.54
537.82	1882.08
538.02	2131.94
538.21	2097.12
538.41	2179.04
538.61	2045.92
538.81	1978.34
539.00	2037.73
539.20	1894.37
539.40	1951.71
539.60	1998.82
539.79	2076.64
539.99	1908.71
540.19	1849.32
540.39	1968.10
540.58	1935.33
540.78	1972.19
540.98	2035.68
541.18	2119.65
541.37	1982.43
541.57	1916.90
541.77	1951.71
541.97	1953.76
542.16	1861.60
542.36	1996.77
542.56	1994.72
542.76	2228.19
542.95	2050.02
543.15	1937.38
543.35	2074.59
543.54	1904.61
543.74	1996.77
543.94	2070.50
544.14	1949.67
544.33	2058.21
544.53	1904.61
544.73	1953.76
544.93	1888.23
545.12	1943.52
545.32	1951.71
545.52	1943.52
545.71	1914.85
545.91	2068.45
546.11	1929.19
546.30	1882.08
546.50	1966.05
546.70	2025.44
546.90	1986.53
547.09	1869.80
547.29	1961.95
547.49	2056.16
547.68	1968.10
547.88	1955.81
548.08	2068.45
548.27	2480.09
548.47	1970.15
548.67	2011.11
548.87	1974.24
549.06	2031.58
549.26	2033.63
549.46	2023.39
549.65	1920.99
549.85	2029.54
550.05	2009.06
550.24	1861.60
550.44	2009.06
550.64	1908.71
550.83	2011.11
551.03	2039.78
551.23	2037.73
551.42	2015.20
551.62	1945.57
551.82	1964.00
552.01	1910.75
552.21	2052.06
552.41	1931.23
552.60	2103.26
552.80	1949.67
553.00	1943.52
553.19	2021.35
553.39	2144.22
553.59	1859.56
553.78	2062.30
553.98	2021.35
554.17	1925.09
554.37	2017.25
554.57	1998.82
554.76	1914.85
554.96	1929.19
555.16	1931.23
555.35	2013.15
555.55	2045.92
555.75	2013.15
555.94	1984.48
556.14	1914.85
556.33	1986.53
556.53	1966.05
556.73	2029.54
556.92	2023.39
557.12	2060.26
557.32	2154.46
557.51	2086.88
557.71	2029.54
557.90	2107.36
558.10	2097.12
558.30	1964.00
558.49	1931.23
558.69	1996.77
558.88	2078.69
559.08	1957.86
559.28	1976.29
559.47	2011.11
559.67	2004.96
559.86	2174.94
560.06	1949.67
560.26	1880.04
560.45	2054.11
560.65	1978.34
560.84	2086.88
561.04	1894.37
561.24	2004.96
561.43	1920.99
561.63	2115.55
561.82	2080.74
562.02	2019.30
562.22	1853.41
562.41	1929.19
562.61	1929.19
562.80	1939.43
563.00	2115.55
563.19	2009.06
563.39	2037.73
563.59	1955.81
563.78	1882.08
563.98	1859.56
564.17	1853.41
564.37	1800.16
564.56	1947.62
564.76	1908.71
564.96	2082.78
565.15	1998.82
565.35	2174.94
565.54	1955.81
565.74	2080.74
565.93	1964.00
566.13	1996.77
566.32	2025.44
566.52	2015.20
566.71	2037.73
566.91	2045.92
567.11	1994.72
567.30	1873.89
567.50	2023.39
567.69	1974.24
567.89	1916.90
568.08	1939.43
568.28	2031.58
568.47	1998.82
568.67	2029.54
568.86	1914.85
569.06	2050.02
569.25	1970.15
569.45	1933.28
569.64	1947.62
569.84	1970.15
570.04	2017.25
570.23	1912.80
570.43	1986.53
570.62	2035.68
570.82	2136.03
571.01	1849.32
571.21	1912.80
571.40	1832.93
571.60	2078.69
571.79	1984.48
571.99	1972.19
572.18	1910.75
572.38	2007.01
572.57	2017.25
572.77	2013.15
572.96	2170.85
573.16	1992.67
573.35	1996.77
573.55	2125.79
573.74	2103.26
573.94	2037.73
574.13	1951.71
574.33	2074.59
574.52	2105.31
574.71	1970.15
574.91	2037.73
575.10	1923.04
575.30	2011.11
575.49	1941.47
575.69	1935.33
575.88	2127.84
576.08	1929.19
576.27	2140.13
576.47	2033.63
576.66	2187.23
576.86	2195.42
577.05	2088.93
577.25	2015.20
577.44	2209.76
577.64	1990.63
577.83	2078.69
578.02	2033.63
578.22	2127.84
578.41	2150.37
578.61	1996.77
578.80	1898.47
579.00	2015.20
579.19	2000.87
579.39	2027.49
579.58	2072.54
579.77	2070.50
579.97	2197.47
580.16	2097.12
580.36	2103.26
580.55	2117.60
580.75	1988.58
580.94	2047.97
581.13	2072.54
581.33	2127.84
581.52	1982.43
581.72	2215.90
581.91	2146.27
582.11	1998.82
582.30	2082.78
582.49	2050.02
582.69	2142.18
582.88	2052.06
583.08	2068.45
583.27	2086.88
583.47	2002.91
583.66	1947.62
583.85	1875.94
584.05	1998.82
584.24	2039.78
584.44	2052.06
584.63	2144.22
584.82	2189.28
585.02	2172.89
585.21	2158.56
585.41	2154.46
585.60	2099.17
585.79	2242.53
585.99	2234.33
586.18	2174.94
586.37	2596.82
586.57	3938.24
586.76	11970.38
586.96	30813.74
587.15	45024.59
587.34	54873.27
587.54	60261.48
587.73	56208.55
587.93	40328.60
588.12	30199.35
588.31	24284.81
588.51	20870.85
588.70	19150.56
588.89	17325.82
589.09	15152.92
589.28	13436.72
589.47	10798.94
589.67	8701.82
589.86	6596.51
590.06	4947.89
590.25	3784.65
590.44	3086.29
590.64	2723.80
590.83	2500.57
591.02	2265.05
591.22	2226.14
591.41	2123.74
591.60	2039.78
591.80	2183.13
591.99	2007.01
592.18	2088.93
592.38	2035.68
592.57	2002.91
592.76	2050.02
592.96	1951.71
593.15	2009.06
593.34	2133.98
593.54	1986.53
593.73	2115.55
593.92	2138.08
594.12	2068.45
594.31	2101.22
594.50	2146.27
594.70	2103.26
594.89	2162.66
595.08	1918.95
595.28	2060.26
595.47	2148.32
595.66	2052.06
595.86	1951.71
596.05	2021.35
596.24	2004.96
596.43	2203.61
596.63	2138.08
596.82	2062.30
597.01	2076.64
597.21	2197.47
597.40	2105.31
597.59	2050.02
597.79	2043.87
597.98	2033.63
598.17	2019.30
598.36	2064.35
598.56	2072.54
598.75	1910.75
598.94	1994.72
599.14	2082.78
599.33	1998.82
599.52	2017.25
599.71	2050.02
599.91	2064.35
600.10	2039.78
600.29	1984.48
600.48	2131.94
600.68	2007.01
600.87	1988.58
601.06	1949.67
601.26	1968.10
601.45	2093.02
601.64	1920.99
601.83	2070.50
602.03	1943.52
602.22	1990.63
602.41	1974.24
602.60	2156.51
602.80	2039.78
602.99	2043.87
603.18	2043.87
603.37	2002.91
603.57	2072.54
603.76	2072.54
603.95	2115.55
604.14	2002.91
604.34	2025.44
604.53	1976.29
604.72	2007.01
604.91	2025.44
605.10	2015.20
605.30	1920.99
605.49	2209.76
605.68	2070.50
605.87	2015.20
606.07	1951.71
606.26	2027.49
606.45	2021.35
606.64	1931.23
606.84	1900.52
607.03	2064.35
607.22	2047.97
607.41	1986.53
607.60	2009.06
607.80	2109.41
607.99	2041.82
608.18	2000.87
608.37	2050.02
608.56	1908.71
608.76	2093.02
608.95	2088.93
609.14	2115.55
609.33	2150.37
609.52	2242.53
609.72	2150.37
609.91	2154.46
610.10	2076.64
610.29	2150.37
610.48	1996.77
610.68	2099.17
610.87	1974.24
611.06	2064.35
611.25	2013.15
611.44	2095.07
611.63	1945.57
611.83	2086.88
612.02	1984.48
612.21	2068.45
612.40	1931.23
612.59	1906.66
612.79	1994.72
612.98	1945.57
613.17	2033.63
613.36	1986.53
613.55	2164.70
613.74	2011.11
613.93	2162.66
614.13	2250.72
614.32	2297.82
614.51	2265.05
614.70	2158.56
614.89	2035.68
615.08	2050.02
615.28	2504.67
615.47	1955.81
615.66	2086.88
615.85	2062.30
616.04	2224.09
616.23	2019.30
616.42	2074.59
616.62	2033.63
616.81	1984.48
617.00	2002.91
617.19	2101.22
617.38	1978.34
617.57	2013.15
617.76	2095.07
617.95	2015.20
618.15	2090.98
618.34	2084.83
618.53	1961.95
618.72	2074.59
618.91	2109.41
619.10	2131.94
619.29	2066.40
619.48	2015.20
619.68	1884.13
619.87	1955.81
620.06	1875.94
620.25	2019.30
620.44	1982.43
620.63	1968.10
620.82	2031.58
621.01	1994.72
621.20	2004.96
621.39	2029.54
621.59	2027.49
621.78	2033.63
621.97	1957.86
622.16	2062.30
622.35	1951.71
622.54	2033.63
622.73	2082.78
622.92	1890.28
623.11	2054.11
623.30	1955.81
623.49	2015.20
623.68	1998.82
623.88	1996.77
624.07	2027.49
624.26	2013.15
624.45	1959.91
624.64	1929.19
624.83	1984.48
625.02	1955.81
625.21	2025.44
625.40	1996.77
625.59	2074.59
625.78	2004.96
625.97	2133.98
626.16	2179.04
626.35	2095.07
626.54	2039.78
626.74	2187.23
626.93	2019.30
627.12	2066.40
627.31	2078.69
627.50	2035.68
627.69	2099.17
627.88	2021.35
628.07	1964.00
628.26	1890.28
628.45	1912.80
628.64	1955.81
628.83	1992.67
629.02	1914.85
629.21	2078.69
629.40	2017.25
629.59	1937.38
629.78	1976.29
629.97	1978.34
630.16	2033.63
630.35	2000.87
630.54	1949.67
630.73	1914.85
630.92	1988.58
631.11	1986.53
631.30	1951.71
631.49	2007.01
631.68	1998.82
631.87	1955.81
632.06	1957.86
632.25	2207.71
632.44	1959.91
632.63	2070.50
632.82	2007.01
633.01	2070.50
633.20	2142.18
633.39	2078.69
633.58	2013.15
633.77	2076.64
633.96	2052.06
634.15	2041.82
634.34	2082.78
634.53	1992.67
634.72	1970.15
634.91	2000.87
635.10	2080.74
635.29	2090.98
635.48	1955.81
635.67	1964.00
635.86	1839.08
636.05	2062.30
636.24	1953.76
636.43	1994.72
636.62	1992.67
636.81	1720.29
637.00	1970.15
637.19	2019.30
637.38	2019.30
637.57	2027.49
637.76	2033.63
637.95	2133.98
638.14	2176.99
638.33	2103.26
638.52	2066.40
638.71	1910.75
638.89	2027.49
639.08	2174.94
639.27	2129.89
639.46	2224.09
639.65	2588.63
639.84	2670.55
640.03	2867.16
640.22	2752.47
640.41	2760.66
640.60	2330.59
640.79	2320.35
640.98	2250.72
641.17	2217.95
641.36	2228.19
641.55	2215.90
641.74	1927.14
641.92	2086.88
642.11	1988.58
642.30	1986.53
642.49	1953.76
642.68	1920.99
642.87	2013.15
643.06	2084.83
643.25	1892.32
643.44	1892.32
643.63	1959.91
643.82	2095.07
644.00	1912.80
644.19	2029.54
644.38	1855.46
644.57	1996.77
644.76	2025.44
644.95	1900.52
645.14	1970.15
645.33	1941.47
645.52	1949.67
645.71	1918.95
645.89	1849.32
646.08	1998.82
646.27	2007.01
646.46	2099.17
646.65	1837.03
646.84	1978.34
647.03	1886.18
647.22	2062.30
647.40	2025.44
647.59	1947.62
647.78	1857.51
647.97	1894.37
648.16	1871.84
648.35	2072.54
648.54	2127.84
648.73	1916.90
648.91	1957.86
649.10	2007.01
649.29	1888.23
649.48	1947.62
649.67	1978.34
649.86	2054.11
650.05	2000.87
650.23	2236.38
650.42	2156.51
650.61	2248.67
650.80	2146.27
650.99	2240.48
651.18	2209.76
651.36	2136.03
651.55	2007.01
651.74	2056.16
651.93	2013.15
652.12	2004.96
652.31	2015.20
652.49	1957.86
652.68	2009.06
652.87	2086.88
653.06	1996.77
653.25	2146.27
653.44	2074.59
653.62	2082.78
653.81	2041.82
654.00	1970.15
654.19	1990.63
654.38	2174.94
654.56	2019.30
654.75	1984.48
654.94	2033.63
655.13	1990.63
655.32	1974.24
655.51	2056.16
655.69	1972.19
655.88	1994.72
656.07	1955.81
656.26	1976.29
656.45	1912.80
656.63	2017.25
656.82	1982.43
657.01	2031.58
657.20	2015.20
657.38	2060.26
657.57	2023.39
657.76	1863.65
657.95	2019.30
658.14	1953.76
658.32	1910.75
658.51	1863.65
658.70	1943.52
658.89	2004.96
659.08	1959.91
659.26	2117.60
659.45	1972.19
659.64	2068.45
659.83	1988.58
660.01	2252.77
660.20	2041.82
660.39	2041.82
660.58	1890.28
660.76	2019.30
660.95	1861.60
661.14	1925.09
661.33	1845.22
661.51	1904.61
661.70	2009.06
661.89	2019.30
662.08	1949.67
662.26	1851.36
662.45	1949.67
662.64	2099.17
662.83	2056.16
663.01	1779.68
663.20	1966.05
663.39	2084.83
663.58	1918.95
663.76	2002.91
663.95	1998.82
664.14	1914.85
664.32	1908.71
664.51	1992.67
664.70	1931.23
664.89	1968.10
665.07	1886.18
665.26	2068.45
665.45	1925.09
665.64	1935.33
665.82	1904.61
666.01	2131.94
666.20	1912.80
666.38	2011.11
666.57	2076.64
666.76	2844.63
666.95	6713.24
667.13	15130.39
667.32	20903.62
667.51	24630.92
667.69	27403.87
667.88	25986.68
668.07	18876.13
668.25	14538.53
668.44	12021.58
668.63	10078.05
668.81	9039.73
669.00	8030.09
669.19	7045.01
669.38	6090.66
669.56	5179.31
669.75	4347.84
669.94	3786.69
670.12	3117.01
670.31	2576.34
670.50	2473.95
670.68	2263.01
670.87	2168.80
671.06	2031.58
671.24	2148.32
671.43	2181.09
671.62	2082.78
671.80	1988.58
671.99	1974.24
672.18	1988.58
672.36	2115.55
672.55	2023.39
672.74	2031.58
672.92	1968.10
673.11	2074.59
673.29	1970.15
673.48	1972.19
673.67	1990.63
673.85	2066.40
674.04	1941.47
674.23	1984.48
674.41	2148.32
674.60	1892.32
674.79	1826.79
674.97	1951.71
675.16	2015.20
675.34	1990.63
675.53	1898.47
675.72	2050.02
675.90	2127.84
676.09	1974.24
676.28	1957.86
676.46	1808.36
676.65	2060.26
676.83	1888.23
677.02	2013.15
677.21	2009.06
677.39	1892.32
677.58	1939.43
677.77	1927.14
677.95	1869.80
678.14	1912.80
678.32	1947.62
678.51	1888.23
678.70	2140.13
678.88	2000.87
679.07	2009.06
679.25	1931.23
679.44	1941.47
679.63	1902.56
679.81	1970.15
680.00	2011.11
680.18	2062.30
680.37	2136.03
680.55	1966.05
680.74	1873.89
680.93	1830.88
681.11	2088.93
681.30	1955.81
681.48	1986.53
681.67	2011.11
681.85	1992.67
682.04	1937.38
682.23	2011.11
682.41	1961.95
682.60	1894.37
682.78	2002.91
682.97	1904.61
683.15	1953.76
683.34	1996.77
683.53	2033.63
683.71	1824.74
683.90	2068.45
684.08	2025.44
684.27	1937.38
684.45	1970.15
684.64	2060.26
684.82	1949.67
685.01	2019.30
685.19	1964.00
685.38	2017.25
685.57	2052.06
685.75	1943.52
685.94	1927.14
686.12	1906.66
686.31	1920.99
686.49	2070.50
686.68	1826.79
686.86	1996.77
687.05	1957.86
687.23	2060.26
687.42	1898.47
687.60	1873.89
687.79	1996.77
687.97	2041.82
688.16	2121.70
688.34	2070.50
688.53	1908.71
688.71	1992.67
688.90	2064.35
689.08	1980.39
689.27	1843.17
689.45	1992.67
689.64	1984.48
689.82	2033.63
690.01	1941.47
690.19	2023.39
690.38	1943.52
690.56	2039.78
690.75	1918.95
690.93	1902.56
691.12	1871.84
691.30	1908.71
691.49	1988.58
691.67	1892.32
691.86	2068.45
692.04	1980.39
692.23	1957.86
692.41	2007.01
692.60	2166.75
692.78	2148.32
692.97	2064.35
693.15	2086.88
693.34	2142.18
693.52	2146.27
693.71	1941.47
693.89	1978.34
694.08	1931.23
694.26	2035.68
694.44	1978.34
694.63	2007.01
694.81	1906.66
695.00	1865.70
695.18	2054.11
695.37	2183.13
695.55	1929.19
695.74	1947.62
695.92	1863.65
696.10	2156.51
696.29	1886.18
696.47	1959.91
696.66	1906.66
696.84	1902.56
697.03	2000.87
697.21	2111.46
697.40	2775.00
697.58	2007.01
697.76	1873.89
697.95	1957.86
698.13	1888.23
698.32	1968.10
698.50	1972.19
698.68	2041.82
698.87	2021.35
699.05	2101.22
699.24	1943.52
699.42	1892.32
699.61	2039.78
699.79	1964.00
699.97	1943.52
700.16	1914.85
700.34	1904.61
700.53	1970.15
700.71	2066.40
700.89	2009.06
701.08	1982.43
701.26	1982.43
701.45	2453.47
701.63	1947.62
701.81	1955.81
702.00	1966.05
702.18	2002.91
702.37	2035.68
702.55	2199.52
702.73	2207.71
702.92	2172.89
703.10	2275.29
703.28	2306.01
703.47	2084.83
703.65	2234.33
703.84	2133.98
704.02	2066.40
704.20	2158.56
704.39	2088.93
704.57	2039.78
704.75	2119.65
704.94	2115.55
705.12	2084.83
705.30	2195.42
705.49	3532.75
705.67	9529.20
705.86	18669.28
706.04	23924.37
706.22	27571.80
706.41	29163.08
706.59	26193.52
706.77	18505.45
706.96	14935.84
707.14	12699.45
707.32	10991.45
707.51	9764.72
707.69	8402.82
707.87	6754.20
708.06	5414.83
708.24	4184.00
708.42	3225.55
708.61	2920.40
708.79	2379.74
708.97	2265.05
709.16	2162.66
709.34	2041.82
709.52	2035.68
709.71	2009.06
709.89	2066.40
710.07	1918.95
710.26	1912.80
710.44	2013.15
710.62	1976.29
710.80	1992.67
710.99	2047.97
711.17	2037.73
711.35	1941.47
711.54	1859.56
711.72	2033.63
711.90	2009.06
712.09	2025.44
712.27	1990.63
712.45	2074.59
712.63	1918.95
712.82	1972.19
713.00	1939.43
713.18	2045.92
713.37	1998.82
713.55	1959.91
713.73	1968.10
713.91	2004.96
714.10	1937.38
714.28	1886.18
714.46	1974.24
714.65	2011.11
714.83	2013.15
715.01	1929.19
715.19	1972.19
715.38	1873.89
715.56	1933.28
715.74	1959.91
715.92	1884.13
716.11	2152.42
716.29	1769.44
716.47	1974.24
716.65	1937.38
716.84	1920.99
717.02	1943.52
717.20	1882.08
717.38	1880.04
717.57	1996.77
717.75	1966.05
717.93	1939.43
718.11	1959.91
718.30	1880.04
718.48	2035.68
718.66	1980.39
718.84	2088.93
719.03	1931.23
719.21	1920.99
719.39	2000.87
719.57	1994.72
719.75	2041.82
719.94	1939.43
720.12	1904.61
720.30	1992.67
720.48	2019.30
720.67	1920.99
720.85	1931.23
721.03	1947.62
721.21	1873.89
721.39	2004.96
721.58	2011.11
721.76	1998.82
721.94	2050.02
722.12	2035.68
722.30	2111.46
722.49	1947.62
722.67	1941.47
722.85	1947.62
723.03	1873.89
723.21	1892.32
723.40	1996.77
723.58	2047.97
723.76	2105.31
723.94	2084.83
724.12	2076.64
724.30	2111.46
724.49	2093.02
724.67	1902.56
724.85	2217.95
725.03	1904.61
725.21	2017.25
725.40	2068.45
725.58	1968.10
725.76	2078.69
725.94	1980.39
726.12	1863.65
726.30	1982.43
726.49	1964.00
726.67	1953.76
726.85	2058.21
727.03	2220.00
727.21	3174.35
727.39	4794.29
727.57	6178.72
727.76	6852.50
727.94	7430.03
728.12	7085.97
728.30	5840.81
728.48	4825.01
728.66	4353.98
728.84	3991.49
729.03	3407.82
729.21	2938.84
729.39	2564.06
729.57	2285.53
729.75	2265.05
729.93	2093.02
730.11	2039.78
730.30	1923.04
730.48	1982.43
730.66	2099.17
730.84	2062.30
731.02	1939.43
731.20	1970.15
731.38	1947.62
731.56	1937.38
731.74	1865.70
731.93	1998.82
732.11	1947.62
732.29	1937.38
732.47	2054.11
732.65	1925.09
732.83	1988.58
733.01	2035.68
733.19	1892.32
733.37	1970.15
733.56	2013.15
733.74	1931.23
733.92	2054.11
734.10	1912.80
734.28	1996.77
734.46	1892.32
734.64	1939.43
734.82	1947.62
735.00	1918.95
735.18	1937.38
735.36	1994.72
735.54	1912.80
735.73	1966.05
735.91	1937.38
736.09	2090.98
736.27	1935.33
736.45	2013.15
736.63	1730.53
736.81	1978.34
736.99	2025.44
737.17	1961.95
737.35	1961.95
737.53	1980.39
737.71	1927.14
737.89	2035.68
738.07	1892.32
738.25	1908.71
738.43	1869.80
738.61	1949.67
738.80	1806.31
738.98	1900.52
739.16	1904.61
739.34	1873.89
739.52	2041.82
739.70	1886.18
739.88	2013.15
740.06	2088.93
740.24	1851.36
740.42	2095.07
740.60	1865.70
740.78	1855.46
740.96	1820.64
741.14	1992.67
741.32	1961.95
741.50	1865.70
741.68	2115.55
741.86	2113.50
742.04	1902.56
742.22	1902.56
742.40	1974.24
742.58	1974.24
742.76	1896.42
742.94	2097.12
743.12	1888.23
743.30	1976.29
743.48	1964.00
743.66	1945.57
743.84	2029.54
744.02	1961.95
744.20	1888.23
744.38	1957.86
744.56	1837.03
744.74	2093.02
744.92	2035.68
745.10	2095.07
745.28	2009.06
745.46	2084.83
745.64	1849.32
745.82	2066.40
746.00	1945.57
746.18	1996.77
746.36	1961.95
746.54	1914.85
746.72	2015.20
746.90	1935.33
747.08	1964.00
747.26	1933.28
747.44	1961.95
747.62	1994.72
747.80	1929.19
747.98	2021.35
748.15	2007.01
748.33	2154.46
748.51	2013.15
748.69	1998.82
748.87	1863.65
749.05	1920.99
749.23	1957.86
749.41	1986.53
749.59	1996.77
749.77	1955.81
749.95	1880.04
750.13	1912.80
750.31	1955.81
750.49	1951.71
750.67	2007.01
750.85	1982.43
751.03	2029.54
751.20	2095.07
751.38	1951.71
751.56	1986.53
751.74	1966.05
751.92	1947.62
752.10	1861.60
752.28	1943.52
752.46	1945.57
752.64	1914.85
752.82	1976.29
753.00	2060.26
753.18	1937.38
753.35	1959.91
753.53	1900.52
753.71	1933.28
753.89	2007.01
754.07	1941.47
754.25	2093.02
754.43	1990.63
754.61	1814.50
754.79	2023.39
754.97	1961.95
755.14	2027.49
755.32	1900.52
755.50	2017.25
755.68	1957.86
755.86	1925.09
756.04	1894.37
756.22	1877.99
756.40	2062.30
756.57	2142.18
756.75	1851.36
756.93	2068.45
757.11	2043.87
757.29	1910.75
757.47	1949.67
757.65	1816.55
757.82	1785.83
758.00	1894.37
758.18	1886.18
758.36	1834.98
758.54	2160.61
758.72	1849.32
758.90	1980.39
759.07	1980.39
759.25	1929.19
759.43	1994.72
759.61	1787.88
759.79	2625.50
759.97	2115.55
760.15	1929.19
760.32	1964.00
760.50	2011.11
760.68	2099.17
760.86	1800.16
761.04	2082.78
761.22	1974.24
761.39	1912.80
761.57	1953.76
761.75	1914.85
761.93	2000.87
762.11	1884.13
762.28	1947.62
762.46	1912.80
762.64	2029.54
762.82	1828.84
763.00	1931.23
763.18	2011.11
763.35	1847.27
763.53	1994.72
763.71	1920.99
763.89	1869.80
764.07	2009.06
764.24	2037.73
764.42	1961.95
764.60	1830.88
764.78	1978.34
764.96	1966.05
765.13	1978.34
765.31	1949.67
765.49	2002.91
765.67	1900.52
765.84	1896.42
766.02	1923.04
766.20	1884.13
766.38	2002.91
766.56	2097.12
766.73	1992.67
766.91	1953.76
767.09	1957.86
767.27	2017.25
767.44	1892.32
767.62	1996.77
767.80	1951.71
767.98	1976.29
768.15	1865.70
768.33	2009.06
768.51	1978.34
768.69	2035.68
768.87	2000.87
769.04	1943.52
769.22	2093.02
769.40	2025.44
769.58	2144.22
769.75	1943.52
769.93	2115.55
770.11	1886.18
770.28	1943.52
770.46	1992.67
770.64	2009.06
770.82	1902.56
770.99	1957.86
771.17	1923.04
771.35	1953.76
771.53	1980.39
771.70	1877.99
771.88	1961.95
772.06	1931.23
772.23	1935.33
772.41	2093.02
772.59	1904.61
772.77	1964.00
772.94	1931.23
773.12	1994.72
773.30	1943.52
773.47	1920.99
773.65	1869.80
773.83	2078.69
774.01	1927.14
774.18	1791.97
774.36	1943.52
774.54	1886.18
774.71	1961.95
774.89	1902.56
775.07	1916.90
775.24	1984.48
775.42	1937.38
775.60	2103.26
775.78	1888.23
775.95	1906.66
776.13	1830.88
776.31	1843.17
776.48	1941.47
776.66	2037.73
776.84	1853.41
777.01	1939.43
777.19	1900.52
777.37	1849.32
777.54	2031.58
777.72	2115.55
777.90	1939.43
778.07	1916.90
778.25	2228.19
778.43	2002.91
778.60	1867.75
778.78	2056.16
778.96	2033.63
779.13	1877.99
779.31	1990.63
779.49	1853.41
779.66	1974.24
779.84	1976.29
780.01	1877.99
780.19	1947.62
780.37	2068.45
780.54	2027.49
780.72	1890.28
780.90	1941.47
781.07	1875.94
781.25	1939.43
781.43	2082.78
781.60	1990.63
781.78	2136.03
781.95	1949.67
782.13	1906.66
782.31	1931.23
782.48	1798.12
782.66	1939.43
782.83	2025.44
783.01	1959.91
783.19	2027.49
783.36	1941.47
783.54	1869.80
783.72	2017.25
783.89	2035.68
784.07	2033.63
784.24	1933.28
784.42	2054.11
784.60	1964.00
784.77	1984.48
784.95	1851.36
785.12	1959.91
785.30	1998.82
785.47	1896.42
785.65	1824.74
785.83	1968.10
786.00	1849.32
786.18	2000.87
786.35	1861.60
786.53	1871.84
786.71	2029.54
786.88	1978.34
787.06	2093.02
787.23	2015.20
787.41	1902.56
787.58	1939.43
787.76	1920.99
787.94	1957.86
788.11	1906.66
788.29	1839.08
788.46	1964.00
788.64	1900.52
788.81	1929.19
788.99	1925.09
789.16	1904.61
789.34	1984.48
789.52	1898.47
789.69	1920.99
789.87	1867.75
790.04	1890.28
790.22	1884.13
790.39	2113.50
790.57	1894.37
790.74	1916.90
790.92	2035.68
791.09	1871.84
791.27	1908.71
791.44	2029.54
791.62	1986.53
791.79	2027.49
791.97	2000.87
792.15	2181.09
792.32	1972.19
792.50	2047.97
792.67	2076.64
792.85	2041.82
793.02	1982.43
793.20	1904.61
793.37	1888.23
793.55	1988.58
793.72	1818.60
793.90	2007.01
794.07	1820.64
794.25	1927.14
794.42	1957.86
794.60	1923.04
794.77	2027.49
794.95	2086.88
795.12	1898.47
795.30	1949.67
795.47	1857.51
795.65	2181.09
795.82	2007.01
796.00	1898.47
796.17	1918.95
796.34	1935.33
796.52	1986.53
796.69	2017.25
796.87	1908.71
797.04	1937.38
797.22	1996.77
797.39	1961.95
797.57	1978.34
797.74	2011.11
797.92	1906.66
798.09	1902.56
798.27	2115.55
798.44	1925.09
798.62	1820.64
798.79	1931.23
798.96	1990.63
799.14	1935.33
799.31	2111.46
799.49	1986.53
799.66	1865.70
799.84	1959.91
800.01	1888.23
800.19	1953.76
800.36	1871.84
800.53	1943.52
800.71	2039.78
800.88	2031.58
801.06	1961.95
801.23	1855.46
801.41	1906.66
801.58	1920.99
801.75	1861.60
801.93	1990.63
802.10	2035.68
802.28	1927.14
802.45	2007.01
802.63	1992.67
802.80	2009.06
802.97	1884.13
803.15	1990.63
803.32	1920.99
803.50	1867.75
803.67	1966.05
803.84	1843.17
804.02	1939.43
804.19	1945.57
804.37	1796.07
804.54	1865.70
804.71	1943.52
804.89	1900.52
805.06	1869.80
805.24	1880.04
805.41	1908.71
805.58	1939.43
805.76	2107.36
805.93	1941.47
806.10	2011.11
806.28	1923.04
806.45	2013.15
806.63	1970.15
806.80	1976.29
806.97	1914.85
807.15	1925.09
807.32	2021.35
807.49	1951.71
807.67	1863.65
807.84	2060.26
808.01	1828.84
808.19	2140.13
808.36	2148.32
808.54	1920.99
808.71	1914.85
808.88	1920.99
809.06	2070.50
809.23	2084.83
809.40	1929.19
809.58	1994.72
809.75	2011.11
809.92	1884.13
810.10	2129.89
810.27	1951.71
810.44	2033.63
810.62	2023.39
810.79	2039.78
810.96	1810.40
811.14	1949.67
811.31	1982.43
811.48	2009.06
811.66	1939.43
811.83	2060.26
812.00	1918.95
812.18	2009.06
812.35	2099.17
812.52	1941.47
812.69	1937.38
812.87	1894.37
813.04	1859.56
813.21	1873.89
813.39	1918.95
813.56	1847.27
813.73	1974.24
813.91	1847.27
814.08	1912.80
814.25	1937.38
814.42	1839.08
814.60	1976.29
814.77	1923.04
814.94	1951.71
815.12	1972.19
815.29	2082.78
815.46	1939.43
815.63	1910.75
815.81	1927.14
815.98	1988.58
816.15	1923.04
816.33	1900.52
816.50	2011.11
816.67	1955.81
816.84	2002.91
817.02	1875.94
817.19	2002.91
817.36	1927.14
817.53	2000.87
817.71	1916.90
817.88	1998.82
818.05	1869.80
818.22	1920.99
818.40	2076.64
818.57	1998.82
818.74	2064.35
818.91	1877.99
819.09	2037.73
819.26	2025.44
819.43	1974.24
819.60	1945.57
819.78	1947.62
819.95	2025.44
820.12	1990.63
820.29	1961.95
820.47	2109.41
820.64	1888.23
820.81	1902.56
820.98	1925.09
821.15	1957.86
821.33	2011.11
821.50	1865.70
821.67	1974.24
821.84	1910.75
822.02	1951.71
822.19	1996.77
822.36	1886.18
822.53	1947.62
822.70	1884.13
822.88	1970.15
823.05	2064.35
823.22	1873.89
823.39	2058.21
823.56	1884.13
823.74	2035.68
823.91	1904.61
824.08	1849.32
824.25	1877.99
824.42	2150.37
824.60	1873.89
824.77	1900.52
824.94	1957.86
825.11	2060.26
825.28	1841.12
825.45	1937.38
825.63	1974.24
825.80	1923.04
825.97	2013.15
826.14	1951.71
826.31	1771.49
826.48	2019.30
826.66	1847.27
826.83	1871.84
827.00	1923.04
827.17	1964.00
827.34	1974.24
827.51	1902.56
827.69	1871.84
827.86	1839.08
828.03	1945.57
828.20	1880.04
828.37	1886.18
828.54	1949.67
828.71	1900.52
828.89	2074.59
829.06	1976.29
829.23	2191.33
829.40	1894.37
829.57	1896.42
829.74	1996.77
829.91	1896.42
830.09	1873.89
830.26	1990.63
830.43	2142.18
830.60	1996.77
830.77	2037.73
830.94	1994.72
831.11	1912.80
831.28	1943.52
831.46	1929.19
831.63	2019.30
831.80	2054.11
831.97	1931.23
832.14	1923.04
832.31	2041.82
832.48	1964.00
832.65	2011.11
832.82	1988.58
832.99	1959.91
833.17	1873.89
833.34	2017.25
833.51	1951.71
833.68	1828.84
833.85	1984.48
834.02	1949.67
834.19	1830.88
834.36	1904.61
834.53	2017.25
834.70	2021.35
834.87	2037.73
835.04	1955.81
835.22	1908.71
835.39	1939.43
835.56	1882.08
835.73	1949.67
835.90	2029.54
836.07	1853.41
836.24	2025.44
836.41	1859.56
836.58	1880.04
836.75	1972.19
836.92	1992.67
837.09	1943.52
837.26	2050.02
837.43	2015.20
837.60	1984.48
837.77	1935.33
837.94	1953.76
838.12	2019.30
838.29	2064.35
838.46	1920.99
838.63	1906.66
838.80	2043.87
838.97	1998.82
839.14	1980.39
839.31	2019.30
839.48	1984.48
839.65	1900.52
839.82	2058.21
839.99	1935.33
840.16	1929.19
840.33	1904.61
840.50	1961.95
840.67	1863.65
840.84	1757.16
841.01	1943.52
841.18	1966.05
841.35	1974.24
841.52	1994.72
841.69	2047.97
841.86	1951.71
842.03	1857.51
842.20	2080.74
842.37	1929.19
842.54	1935.33
842.71	1945.57
842.88	1914.85
843.05	2058.21
843.22	1949.67
843.39	1957.86
843.56	1896.42
843.73	1914.85
843.90	1990.63
844.07	1986.53
844.24	2047.97
844.41	1888.23
844.58	1929.19
844.75	1884.13
844.92	1980.39
845.09	1994.72
845.26	1837.03
845.43	2029.54
845.60	1925.09
845.77	1974.24
845.94	2025.44
846.10	2043.87
846.27	1863.65
846.44	1892.32
846.61	1900.52
846.78	1949.67
846.95	2013.15
847.12	1925.09
847.29	2000.87
847.46	1937.38
847.63	1943.52
847.80	1902.56
847.97	1937.38
848.14	2086.88
848.31	1941.47
848.48	1894.37
848.65	2011.11
848.82	1910.75
848.98	2127.84
849.15	1984.48
849.32	2033.63
849.49	2011.11
849.66	2000.87
849.83	2015.20
850.00	1814.50
850.17	2062.30
850.34	1959.91
850.51	1877.99
850.68	1906.66
850.85	2074.59
851.01	1978.34
851.18	2000.87
851.35	1970.15
851.52	1955.81
851.69	2070.50
851.86	1847.27
852.03	1886.18
852.20	1980.39
852.37	1920.99
852.53	1855.46
852.70	1933.28
852.87	1861.60
853.04	1976.29
853.21	1945.57
853.38	1941.47
853.55	2068.45
853.72	2017.25
853.89	1877.99
854.05	1890.28
854.22	1933.28
854.39	1898.47
854.56	1945.57
854.73	1988.58
854.90	1920.99
855.07	1929.19
855.23	1896.42
855.40	1968.10
855.57	1877.99
855.74	1822.69
855.91	2129.89
856.08	1937.38
856.25	1888.23
856.41	1855.46
856.58	1910.75
856.75	1904.61
856.92	1894.37
857.09	1988.58
857.26	1832.93
857.42	1902.56
857.59	2007.01
857.76	1984.48
857.93	1961.95
858.10	2009.06
858.27	1830.88
858.43	1959.91
858.60	1927.14
858.77	1843.17
858.94	1986.53
859.11	2002.91
859.27	1832.93
859.44	1933.28
859.61	2121.70
859.78	2041.82
859.95	1875.94
860.12	1869.80
860.28	2086.88
860.45	2080.74
860.62	1943.52
860.79	1914.85
860.95	1857.51
861.12	1873.89
861.29	1912.80
861.46	1849.32
861.63	2007.01
861.79	1972.19
861.96	1851.36
862.13	1964.00
862.30	2082.78
862.47	1880.04
862.63	1890.28
862.80	1986.53
862.97	1990.63
863.14	2062.30
863.30	1970.15
863.47	1912.80
863.64	2064.35
863.81	2000.87
863.97	1935.33
864.14	1964.00
864.31	1916.90
864.48	1966.05
864.65	1970.15
864.81	2095.07
864.98	2088.93
865.15	1966.05
865.32	1984.48
865.48	1976.29
865.65	2074.59
865.82	1945.57
865.98	1937.38
866.15	2060.26
866.32	1935.33
866.49	1914.85
866.65	1949.67
866.82	1820.64
866.99	1904.61
867.16	1871.84
867.32	1886.18
867.49	1935.33
867.66	1937.38
867.83	1877.99
867.99	1824.74
868.16	1931.23
868.33	1871.84
868.49	1953.76
868.66	1923.04
868.83	2039.78
868.99	2029.54
869.16	1939.43
869.33	1996.77
869.50	2041.82
869.66	1925.09
869.83	1947.62
870.00	1798.12
870.16	1945.57
870.33	1912.80
870.50	2000.87
870.66	1939.43
870.83	2011.11
871.00	2000.87
871.17	1933.28
871.33	2064.35
871.50	1798.12
871.67	1841.12
871.83	1941.47
872.00	2041.82
872.17	1929.19
872.33	2142.18
872.50	1972.19
872.67	1920.99
872.83	1941.47
873.00	2004.96
873.17	1957.86
873.33	2004.96
873.50	2039.78
873.67	1890.28
873.83	1890.28
874.00	1978.34
874.16	1990.63
874.33	1912.80
874.50	1837.03
874.66	1961.95
874.83	1935.33
875.00	2027.49
875.16	1992.67
875.33	2119.65
875.50	1751.01
875.66	1959.91
875.83	1937.38
875.99	1990.63
876.16	1859.56
876.33	1902.56
876.49	1964.00
876.66	1920.99
876.83	1845.22
876.99	1898.47
877.16	1968.10
877.32	1912.80
877.49	1914.85
877.66	1959.91
877.82	2058.21
877.99	1910.75
878.15	2056.16
878.32	2011.11
878.49	1974.24
878.65	1910.75
878.82	2035.68
878.98	1943.52
879.15	2007.01
879.32	2033.63
879.48	1929.19
879.65	1900.52
879.81	2037.73
879.98	1968.10
880.15	1873.89
880.31	2045.92
880.48	1937.38
880.64	2011.11
880.81	1972.19
880.97	2072.54
881.14	2045.92
881.31	1863.65
881.47	2107.36
881.64	1966.05
881.80	1832.93
881.97	1964.00
882.13	1966.05
882.30	1886.18
882.47	1892.32
882.63	1875.94
882.80	1894.37
882.96	1906.66
883.13	2070.50
883.29	1955.81
883.46	1955.81
883.62	2097.12
883.79	1910.75
883.95	1923.04
884.12	1929.19
884.29	1990.63
884.45	1955.81
884.62	2027.49
884.78	1796.07
884.95	2056.16
885.11	1861.60
885.28	2004.96
885.44	1925.09
885.61	1970.15
885.77	2107.36
885.94	1904.61
886.10	1841.12
886.27	1955.81
886.43	2103.26
886.60	2002.91
886.76	1877.99
886.93	1839.08
887.09	2009.06
887.26	1882.08
887.42	1961.95
887.59	1974.24
887.75	2066.40
887.92	2070.50
888.08	2002.91
888.25	2123.74
888.41	2015.20
888.58	1910.75
888.74	1853.41
888.91	1871.84
>>>>>End Processed Spectral Data<<<<<
