SpectraSuite Data File
++++++++++++++++++++++++++++++++++++
Date: Wed May 04 22:45:40 CEST 2016
User: root
Dark Spectrum Present: No
Reference Spectrum Present: No
Number of Sampled Component Spectra: 1
Spectrometers: USB4C02835
Integration Time (usec): 100000 (USB4C02835)
Spectra Averaged: 1 (USB4C02835)
Boxcar Smoothing: 0 (USB4C02835)
Correct for Electrical Dark: No (USB4C02835)
Strobe/Lamp Enabled: No (USB4C02835)
Correct for Detector Non-linearity: No (USB4C02835)
Correct for Stray Light: No (USB4C02835)
Number of Pixels in Processed Spectrum: 3648
>>>>>Begin Processed Spectral Data<<<<<
177.47	1628.14
177.69	1628.14
177.91	1628.14
178.13	1634.28
178.36	1595.37
178.58	1865.70
178.80	2064.35
179.02	1923.04
179.24	1898.47
179.46	1859.56
179.68	2021.35
179.90	1982.43
180.13	1992.67
180.35	1869.80
180.57	1914.85
180.79	1964.00
181.01	1964.00
181.23	1982.43
181.45	2023.39
181.67	1947.62
181.90	1980.39
182.12	1908.71
182.34	1787.88
182.56	1990.63
182.78	1966.05
183.00	1869.80
183.22	1943.52
183.44	1800.16
183.66	2172.89
183.89	1990.63
184.11	1959.91
184.33	2074.59
184.55	2082.78
184.77	1957.86
184.99	1890.28
185.21	1865.70
185.43	2183.13
185.65	1904.61
185.87	1929.19
186.10	2093.02
186.32	2125.79
186.54	1920.99
186.76	1933.28
186.98	1994.72
187.20	1918.95
187.42	1863.65
187.64	1945.57
187.86	1949.67
188.08	2035.68
188.30	1904.61
188.52	1923.04
188.75	2105.31
188.97	2035.68
189.19	1892.32
189.41	1927.14
189.63	2004.96
189.85	1982.43
190.07	1880.04
190.29	1877.99
190.51	1955.81
190.73	1832.93
190.95	1974.24
191.17	1920.99
191.39	1867.75
191.61	1894.37
191.84	1888.23
192.06	1968.10
192.28	1802.21
192.50	2138.08
192.72	1953.76
192.94	1929.19
193.16	2035.68
193.38	2037.73
193.60	1841.12
193.82	1880.04
194.04	2050.02
194.26	1988.58
194.48	1875.94
194.70	1900.52
194.92	1929.19
195.14	2056.16
195.36	1900.52
195.58	1902.56
195.80	1964.00
196.02	1904.61
196.24	1943.52
196.46	2037.73
196.69	1812.45
196.91	2195.42
197.13	1923.04
197.35	1888.23
197.57	2021.35
197.79	2019.30
198.01	2023.39
198.23	1961.95
198.45	1968.10
198.67	1925.09
198.89	1898.47
199.11	1943.52
199.33	1904.61
199.55	1751.01
199.77	1843.17
199.99	1980.39
200.21	1961.95
200.43	2017.25
200.65	1855.46
200.87	1761.25
201.09	1939.43
201.31	1849.32
201.53	2033.63
201.75	1972.19
201.97	2047.97
202.19	1998.82
202.41	1941.47
202.63	2043.87
202.85	1923.04
203.07	1974.24
203.29	1920.99
203.51	1964.00
203.73	1912.80
203.95	2164.70
204.17	1927.14
204.39	1904.61
204.61	1957.86
204.83	1929.19
205.05	1976.29
205.27	2013.15
205.49	2097.12
205.71	1990.63
205.93	1888.23
206.15	1857.51
206.37	1970.15
206.59	1941.47
206.81	1855.46
207.03	1794.02
207.25	1918.95
207.47	2056.16
207.69	1945.57
207.91	1957.86
208.13	2054.11
208.34	1900.52
208.56	1898.47
208.78	1935.33
209.00	1900.52
209.22	1906.66
209.44	1939.43
209.66	1820.64
209.88	1904.61
210.10	1961.95
210.32	1908.71
210.54	2027.49
210.76	1982.43
210.98	2058.21
211.20	1863.65
211.42	2000.87
211.64	2029.54
211.86	1902.56
212.08	1974.24
212.30	1990.63
212.52	1996.77
212.74	2027.49
212.96	1957.86
213.17	1992.67
213.39	1974.24
213.61	2093.02
213.83	1892.32
214.05	2007.01
214.27	2054.11
214.49	1947.62
214.71	1908.71
214.93	2023.39
215.15	1959.91
215.37	2019.30
215.59	1816.55
215.81	1976.29
216.03	2103.26
216.24	1900.52
216.46	1955.81
216.68	1990.63
216.90	1961.95
217.12	2021.35
217.34	1884.13
217.56	1918.95
217.78	2066.40
218.00	2021.35
218.22	2015.20
218.44	2004.96
218.66	2031.58
218.87	2082.78
219.09	1882.08
219.31	1937.38
219.53	2013.15
219.75	1986.53
219.97	1925.09
220.19	1908.71
220.41	1912.80
220.63	2056.16
220.85	1984.48
221.06	1910.75
221.28	2056.16
221.50	1943.52
221.72	1951.71
221.94	1896.42
222.16	1964.00
222.38	2033.63
222.60	2015.20
222.82	1918.95
223.03	1865.70
223.25	1914.85
223.47	2047.97
223.69	2111.46
223.91	2045.92
224.13	2086.88
224.35	1894.37
224.57	1947.62
224.78	2074.59
225.00	1929.19
225.22	2025.44
225.44	1927.14
225.66	2101.22
225.88	1947.62
226.10	2039.78
226.32	1900.52
226.53	2129.89
226.75	1941.47
226.97	1890.28
227.19	1961.95
227.41	1951.71
227.63	1880.04
227.85	1783.78
228.06	1966.05
228.28	1980.39
228.50	2039.78
228.72	1822.69
228.94	1880.04
229.16	1851.36
229.37	1861.60
229.59	1867.75
229.81	2074.59
230.03	1863.65
230.25	1896.42
230.47	1847.27
230.69	1849.32
230.90	2015.20
231.12	1906.66
231.34	1861.60
231.56	2017.25
231.78	1902.56
232.00	2017.25
232.21	1908.71
232.43	1953.76
232.65	1824.74
232.87	1968.10
233.09	1800.16
233.30	1898.47
233.52	2054.11
233.74	1912.80
233.96	1996.77
234.18	1970.15
234.40	1943.52
234.61	2203.61
234.83	1877.99
235.05	1918.95
235.27	2215.90
235.49	2029.54
235.70	1955.81
235.92	1961.95
236.14	1939.43
236.36	2103.26
236.58	1861.60
236.79	1978.34
237.01	1964.00
237.23	1980.39
237.45	2127.84
237.67	1941.47
237.88	2052.06
238.10	2074.59
238.32	1927.14
238.54	1916.90
238.76	1886.18
238.97	1816.55
239.19	1904.61
239.41	2056.16
239.63	1988.58
239.85	1886.18
240.06	1937.38
240.28	1865.70
240.50	1986.53
240.72	1941.47
240.93	1884.13
241.15	2107.36
241.37	1959.91
241.59	2136.03
241.81	1906.66
242.02	1943.52
242.24	1974.24
242.46	1974.24
242.68	1898.47
242.89	1892.32
243.11	1998.82
243.33	1937.38
243.55	1984.48
243.76	1984.48
243.98	1892.32
244.20	1939.43
244.42	1964.00
244.64	1957.86
244.85	1873.89
245.07	1863.65
245.29	1953.76
245.51	1957.86
245.72	2004.96
245.94	1970.15
246.16	1953.76
246.38	1986.53
246.59	1959.91
246.81	1865.70
247.03	1886.18
247.24	1849.32
247.46	1947.62
247.68	2021.35
247.90	1894.37
248.11	1904.61
248.33	1931.23
248.55	2025.44
248.77	2007.01
248.98	2050.02
249.20	2166.75
249.42	1933.28
249.64	1920.99
249.85	1933.28
250.07	1968.10
250.29	1888.23
250.50	2019.30
250.72	1867.75
250.94	1957.86
251.16	2080.74
251.37	1902.56
251.59	1976.29
251.81	1986.53
252.02	2101.22
252.24	1951.71
252.46	2009.06
252.68	1867.75
252.89	1923.04
253.11	1781.73
253.33	2033.63
253.54	2002.91
253.76	1947.62
253.98	1941.47
254.20	1918.95
254.41	1894.37
254.63	1968.10
254.85	1843.17
255.06	1966.05
255.28	1988.58
255.50	1939.43
255.71	1798.12
255.93	1900.52
256.15	1980.39
256.36	1986.53
256.58	1920.99
256.80	1992.67
257.02	1990.63
257.23	1943.52
257.45	1947.62
257.67	1988.58
257.88	1959.91
258.10	2074.59
258.32	1939.43
258.53	1978.34
258.75	2082.78
258.97	1894.37
259.18	1943.52
259.40	1904.61
259.62	2093.02
259.83	2050.02
260.05	1978.34
260.27	2265.05
260.48	2023.39
260.70	1894.37
260.92	1906.66
261.13	1884.13
261.35	1976.29
261.57	2037.73
261.78	1853.41
262.00	1949.67
262.22	2041.82
262.43	1914.85
262.65	1920.99
262.86	2013.15
263.08	2107.36
263.30	1947.62
263.51	1853.41
263.73	1935.33
263.95	2068.45
264.16	1894.37
264.38	1857.51
264.60	1990.63
264.81	1937.38
265.03	2009.06
265.25	2097.12
265.46	1964.00
265.68	2119.65
265.89	1974.24
266.11	1814.50
266.33	2023.39
266.54	2031.58
266.76	1970.15
266.98	1906.66
267.19	2064.35
267.41	2019.30
267.62	1939.43
267.84	1851.36
268.06	1937.38
268.27	1970.15
268.49	2076.64
268.70	1947.62
268.92	1898.47
269.14	1912.80
269.35	1910.75
269.57	1943.52
269.79	2013.15
270.00	1927.14
270.22	2039.78
270.43	1953.76
270.65	1734.63
270.87	1964.00
271.08	2068.45
271.30	1970.15
271.51	1951.71
271.73	1957.86
271.95	1996.77
272.16	1888.23
272.38	1925.09
272.59	1935.33
272.81	2086.88
273.02	1980.39
273.24	1968.10
273.46	2035.68
273.67	1843.17
273.89	1873.89
274.10	1923.04
274.32	2082.78
274.54	1929.19
274.75	1923.04
274.97	1894.37
275.18	2021.35
275.40	2054.11
275.61	1890.28
275.83	1996.77
276.05	1843.17
276.26	1953.76
276.48	1953.76
276.69	1892.32
276.91	1961.95
277.12	2105.31
277.34	2056.16
277.55	2056.16
277.77	1955.81
277.99	1927.14
278.20	1845.22
278.42	1828.84
278.63	1875.94
278.85	1927.14
279.06	1937.38
279.28	2060.26
279.49	1957.86
279.71	1935.33
279.93	1998.82
280.14	1871.84
280.36	1826.79
280.57	2019.30
280.79	2064.35
281.00	1912.80
281.22	1875.94
281.43	2076.64
281.65	1849.32
281.86	1964.00
282.08	1988.58
282.29	2058.21
282.51	1943.52
282.73	1914.85
282.94	1867.75
283.16	2019.30
283.37	2052.06
283.59	1949.67
283.80	1994.72
284.02	2039.78
284.23	1972.19
284.45	1886.18
284.66	1839.08
284.88	1855.46
285.09	1947.62
285.31	1992.67
285.52	2037.73
285.74	1865.70
285.95	2043.87
286.17	1994.72
286.38	2070.50
286.60	1886.18
286.81	1943.52
287.03	1849.32
287.24	1935.33
287.46	2009.06
287.67	1918.95
287.89	2064.35
288.10	1937.38
288.32	1972.19
288.53	2082.78
288.75	1943.52
288.96	2029.54
289.18	1845.22
289.39	1892.32
289.61	2025.44
289.82	2043.87
290.04	2103.26
290.25	1896.42
290.47	1918.95
290.68	1871.84
290.90	2004.96
291.11	1828.84
291.33	1966.05
291.54	1890.28
291.76	1953.76
291.97	2033.63
292.18	1925.09
292.40	1988.58
292.61	1873.89
292.83	2146.27
293.04	1968.10
293.26	1916.90
293.47	1957.86
293.69	1861.60
293.90	2023.39
294.12	2062.30
294.33	1914.85
294.55	1898.47
294.76	1996.77
294.97	2025.44
295.19	2088.93
295.40	1896.42
295.62	1929.19
295.83	2101.22
296.05	1916.90
296.26	1984.48
296.48	1947.62
296.69	1978.34
296.90	1941.47
297.12	2062.30
297.33	2062.30
297.55	1908.71
297.76	1955.81
297.98	2019.30
298.19	1972.19
298.41	1925.09
298.62	1877.99
298.83	2064.35
299.05	2004.96
299.26	1961.95
299.48	1920.99
299.69	1955.81
299.90	1966.05
300.12	1925.09
300.33	2011.11
300.55	1968.10
300.76	2078.69
300.98	1837.03
301.19	2052.06
301.40	2004.96
301.62	1986.53
301.83	1894.37
302.05	1929.19
302.26	1947.62
302.47	1988.58
302.69	1920.99
302.90	1941.47
303.12	1755.11
303.33	1951.71
303.54	2076.64
303.76	1888.23
303.97	1986.53
304.19	1990.63
304.40	1906.66
304.61	2068.45
304.83	2146.27
305.04	2052.06
305.26	2029.54
305.47	1873.89
305.68	1957.86
305.90	1947.62
306.11	2011.11
306.33	2021.35
306.54	1898.47
306.75	1910.75
306.97	1857.51
307.18	1857.51
307.39	1834.98
307.61	2002.91
307.82	1947.62
308.04	2041.82
308.25	1906.66
308.46	1978.34
308.68	1972.19
308.89	1953.76
309.10	2070.50
309.32	1951.71
309.53	1902.56
309.74	1966.05
309.96	1927.14
310.17	2093.02
310.39	1984.48
310.60	1984.48
310.81	1964.00
311.03	1920.99
311.24	2013.15
311.45	2013.15
311.67	2054.11
311.88	1916.90
312.09	1992.67
312.31	1914.85
312.52	1974.24
312.73	1912.80
312.95	1918.95
313.16	1832.93
313.37	2002.91
313.59	1998.82
313.80	2068.45
314.01	2041.82
314.23	1929.19
314.44	1966.05
314.65	1814.50
314.87	1906.66
315.08	1890.28
315.29	1877.99
315.51	1849.32
315.72	1847.27
315.93	2088.93
316.15	1990.63
316.36	1847.27
316.57	1961.95
316.79	2009.06
317.00	1949.67
317.21	1957.86
317.43	1918.95
317.64	1931.23
317.85	1869.80
318.07	1908.71
318.28	1957.86
318.49	2148.32
318.70	2189.28
318.92	2109.41
319.13	2164.70
319.34	2242.53
319.56	2062.30
319.77	2095.07
319.98	2129.89
320.20	2023.39
320.41	2060.26
320.62	2025.44
320.83	1902.56
321.05	2152.42
321.26	2023.39
321.47	2015.20
321.69	1986.53
321.90	1818.60
322.11	1918.95
322.32	1986.53
322.54	2027.49
322.75	1927.14
322.96	2119.65
323.18	1845.22
323.39	1775.59
323.60	1869.80
323.81	2004.96
324.03	1964.00
324.24	1990.63
324.45	1955.81
324.66	1974.24
324.88	1966.05
325.09	2047.97
325.30	1992.67
325.52	2033.63
325.73	1951.71
325.94	1912.80
326.15	1841.12
326.37	1884.13
326.58	1970.15
326.79	2090.98
327.00	1855.46
327.22	1988.58
327.43	1925.09
327.64	1892.32
327.85	2017.25
328.07	1976.29
328.28	2074.59
328.49	1994.72
328.70	1945.57
328.92	1892.32
329.13	1947.62
329.34	1927.14
329.55	2154.46
329.76	2015.20
329.98	1953.76
330.19	2066.40
330.40	1980.39
330.61	1974.24
330.83	2037.73
331.04	1927.14
331.25	1927.14
331.46	1964.00
331.68	1851.36
331.89	2062.30
332.10	1906.66
332.31	1898.47
332.52	1953.76
332.74	2076.64
332.95	1822.69
333.16	1939.43
333.37	2025.44
333.58	1935.33
333.80	1982.43
334.01	1857.51
334.22	1914.85
334.43	1953.76
334.64	1892.32
334.86	1961.95
335.07	1892.32
335.28	2084.83
335.49	1892.32
335.70	2068.45
335.92	2031.58
336.13	2097.12
336.34	2023.39
336.55	1920.99
336.76	2043.87
336.98	1855.46
337.19	1900.52
337.40	2080.74
337.61	2133.98
337.82	1935.33
338.04	2062.30
338.25	1867.75
338.46	1972.19
338.67	1925.09
338.88	1849.32
339.09	1869.80
339.31	1945.57
339.52	1916.90
339.73	1910.75
339.94	1927.14
340.15	1941.47
340.36	1923.04
340.58	1916.90
340.79	1841.12
341.00	2037.73
341.21	1904.61
341.42	2119.65
341.63	2015.20
341.85	2025.44
342.06	2047.97
342.27	1820.64
342.48	2009.06
342.69	1869.80
342.90	2015.20
343.12	2013.15
343.33	1927.14
343.54	1994.72
343.75	2068.45
343.96	2000.87
344.17	1880.04
344.38	1916.90
344.60	1920.99
344.81	1900.52
345.02	1974.24
345.23	2041.82
345.44	2101.22
345.65	2039.78
345.86	1937.38
346.07	1834.98
346.29	1947.62
346.50	2029.54
346.71	1984.48
346.92	2027.49
347.13	2113.50
347.34	1964.00
347.55	1959.91
347.76	2039.78
347.98	1847.27
348.19	1972.19
348.40	2125.79
348.61	1894.37
348.82	2064.35
349.03	2007.01
349.24	1902.56
349.45	2140.13
349.66	1877.99
349.88	1959.91
350.09	1943.52
350.30	2078.69
350.51	2017.25
350.72	2052.06
350.93	1976.29
351.14	1863.65
351.35	1996.77
351.56	1953.76
351.77	1959.91
351.99	2076.64
352.20	2115.55
352.41	2023.39
352.62	1880.04
352.83	1953.76
353.04	1941.47
353.25	1927.14
353.46	2027.49
353.67	1968.10
353.88	1871.84
354.09	1986.53
354.30	1939.43
354.52	2000.87
354.73	1990.63
354.94	1900.52
355.15	1964.00
355.36	2168.80
355.57	1980.39
355.78	1964.00
355.99	1861.60
356.20	1986.53
356.41	2013.15
356.62	1982.43
356.83	1914.85
357.04	2027.49
357.25	1845.22
357.46	1933.28
357.68	1873.89
357.89	1947.62
358.10	2002.91
358.31	1896.42
358.52	1943.52
358.73	1882.08
358.94	1837.03
359.15	1951.71
359.36	2023.39
359.57	1898.47
359.78	1978.34
359.99	2029.54
360.20	1869.80
360.41	1947.62
360.62	2009.06
360.83	1984.48
361.04	1994.72
361.25	2082.78
361.46	2080.74
361.67	2013.15
361.88	2017.25
362.09	1986.53
362.30	1964.00
362.51	1974.24
362.72	1890.28
362.93	2070.50
363.14	2013.15
363.35	1966.05
363.56	1886.18
363.78	2068.45
363.99	2009.06
364.20	1920.99
364.41	1966.05
364.62	2097.12
364.83	1927.14
365.04	2004.96
365.25	1959.91
365.46	2144.22
365.67	1955.81
365.88	1957.86
366.09	1900.52
366.30	1855.46
366.51	1980.39
366.72	1851.36
366.93	1992.67
367.14	1982.43
367.35	1992.67
367.56	1941.47
367.77	2105.31
367.98	1925.09
368.18	1984.48
368.39	2056.16
368.60	1896.42
368.81	2037.73
369.02	1986.53
369.23	1951.71
369.44	1841.12
369.65	1925.09
369.86	1955.81
370.07	2004.96
370.28	1871.84
370.49	1939.43
370.70	1968.10
370.91	1988.58
371.12	1859.56
371.33	2047.97
371.54	1978.34
371.75	2064.35
371.96	1849.32
372.17	1978.34
372.38	1986.53
372.59	2029.54
372.80	1951.71
373.01	1970.15
373.22	1974.24
373.43	1980.39
373.64	1886.18
373.85	2086.88
374.06	2047.97
374.26	2058.21
374.47	1972.19
374.68	2146.27
374.89	1955.81
375.10	1925.09
375.31	2017.25
375.52	1988.58
375.73	1953.76
375.94	1920.99
376.15	2072.54
376.36	1871.84
376.57	1910.75
376.78	1939.43
376.99	1972.19
377.20	1996.77
377.40	1923.04
377.61	2133.98
377.82	1877.99
378.03	2025.44
378.24	1994.72
378.45	1992.67
378.66	2000.87
378.87	1871.84
379.08	1904.61
379.29	1966.05
379.50	2054.11
379.71	1931.23
379.91	2076.64
380.12	1875.94
380.33	1923.04
380.54	1894.37
380.75	1943.52
380.96	1918.95
381.17	1984.48
381.38	2011.11
381.59	1980.39
381.80	2054.11
382.00	2131.94
382.21	2109.41
382.42	2189.28
382.63	2181.09
382.84	2068.45
383.05	2078.69
383.26	2037.73
383.47	1974.24
383.68	1986.53
383.88	2015.20
384.09	2029.54
384.30	2095.07
384.51	2025.44
384.72	1955.81
384.93	1863.65
385.14	1968.10
385.35	2058.21
385.55	1828.84
385.76	2080.74
385.97	1949.67
386.18	1894.37
386.39	1945.57
386.60	1890.28
386.81	1978.34
387.02	1861.60
387.22	1918.95
387.43	2107.36
387.64	2013.15
387.85	2103.26
388.06	2195.42
388.27	3936.20
388.48	8511.36
388.68	12058.44
388.89	14421.80
389.10	15587.09
389.31	13991.72
389.52	11108.18
389.73	9557.87
389.93	8519.55
390.14	7939.97
390.35	7212.95
390.56	6453.15
390.77	5255.09
390.98	4067.27
391.18	3180.50
391.39	2490.33
391.60	2168.80
391.81	2123.74
392.02	2000.87
392.23	2187.23
392.43	2033.63
392.64	1980.39
392.85	1884.13
393.06	2074.59
393.27	1925.09
393.47	1867.75
393.68	1957.86
393.89	1964.00
394.10	2050.02
394.31	1894.37
394.52	1923.04
394.72	1904.61
394.93	2088.93
395.14	1949.67
395.35	1976.29
395.56	1972.19
395.76	2060.26
395.97	2021.35
396.18	2086.88
396.39	2164.70
396.60	2422.75
396.80	2168.80
397.01	2193.37
397.22	2097.12
397.43	2181.09
397.64	1970.15
397.84	2086.88
398.05	2174.94
398.26	1982.43
398.47	2076.64
398.67	2013.15
398.88	2033.63
399.09	1976.29
399.30	1914.85
399.51	2076.64
399.71	1892.32
399.92	1830.88
400.13	1992.67
400.34	2015.20
400.54	1898.47
400.75	2111.46
400.96	2004.96
401.17	2152.42
401.37	2000.87
401.58	1949.67
401.79	1941.47
402.00	2054.11
402.21	2240.48
402.41	2258.91
402.62	2314.20
402.83	2373.60
403.04	2357.21
403.24	2467.80
403.45	2138.08
403.66	2308.06
403.87	2181.09
404.07	2156.51
404.28	2254.81
404.49	2181.09
404.70	2070.50
404.90	2090.98
405.11	1992.67
405.32	2082.78
405.52	1923.04
405.73	1927.14
405.94	1947.62
406.15	2004.96
406.35	2039.78
406.56	1996.77
406.77	2052.06
406.98	1988.58
407.18	1814.50
407.39	2011.11
407.60	1931.23
407.80	1990.63
408.01	1869.80
408.22	1996.77
408.43	1904.61
408.63	1945.57
408.84	2027.49
409.05	2045.92
409.25	1910.75
409.46	1943.52
409.67	1953.76
409.88	1947.62
410.08	1982.43
410.29	1914.85
410.50	1998.82
410.70	1990.63
410.91	1822.69
411.12	1990.63
411.32	1982.43
411.53	1869.80
411.74	2029.54
411.95	2099.17
412.15	2074.59
412.36	2121.70
412.57	2117.60
412.77	2146.27
412.98	1992.67
413.19	2017.25
413.39	2035.68
413.60	2025.44
413.81	2099.17
414.01	1984.48
414.22	1955.81
414.43	2058.21
414.63	1900.52
414.84	1994.72
415.05	1964.00
415.25	1861.60
415.46	2039.78
415.67	1943.52
415.87	1998.82
416.08	1961.95
416.29	1933.28
416.49	1992.67
416.70	1925.09
416.91	1898.47
417.11	1964.00
417.32	1920.99
417.53	2070.50
417.73	2013.15
417.94	1957.86
418.15	2109.41
418.35	2070.50
418.56	1996.77
418.77	2148.32
418.97	1998.82
419.18	1970.15
419.38	1783.78
419.59	1951.71
419.80	2099.17
420.00	1923.04
420.21	1974.24
420.42	2095.07
420.62	1959.91
420.83	1861.60
421.04	1953.76
421.24	1929.19
421.45	2019.30
421.65	1959.91
421.86	1884.13
422.07	1998.82
422.27	1992.67
422.48	1931.23
422.69	1927.14
422.89	1929.19
423.10	1945.57
423.30	1886.18
423.51	1994.72
423.72	2017.25
423.92	2066.40
424.13	1847.27
424.33	1976.29
424.54	1988.58
424.75	1939.43
424.95	2086.88
425.16	1986.53
425.36	1884.13
425.57	2070.50
425.78	2062.30
425.98	2013.15
426.19	1859.56
426.39	1916.90
426.60	1982.43
426.81	2027.49
427.01	1964.00
427.22	1910.75
427.42	1822.69
427.63	1978.34
427.83	1982.43
428.04	2140.13
428.25	2027.49
428.45	2033.63
428.66	2103.26
428.86	1970.15
429.07	1959.91
429.28	1970.15
429.48	1957.86
429.69	1880.04
429.89	1982.43
430.10	1933.28
430.30	1939.43
430.51	1959.91
430.71	1980.39
430.92	1968.10
431.13	1920.99
431.33	2011.11
431.54	1990.63
431.74	2113.50
431.95	2172.89
432.15	1861.60
432.36	1970.15
432.56	2129.89
432.77	2074.59
432.98	2154.46
433.18	2047.97
433.39	1904.61
433.59	1935.33
433.80	2058.21
434.00	2076.64
434.21	1970.15
434.41	1906.66
434.62	2133.98
434.82	1908.71
435.03	1912.80
435.23	1972.19
435.44	1832.93
435.64	1908.71
435.85	1998.82
436.06	2031.58
436.26	2023.39
436.47	1933.28
436.67	1957.86
436.88	1890.28
437.08	2027.49
437.29	2054.11
437.49	2107.36
437.70	2033.63
437.90	1927.14
438.11	2119.65
438.31	2088.93
438.52	2189.28
438.72	2207.71
438.93	2193.37
439.13	2074.59
439.34	2148.32
439.54	2037.73
439.75	2097.12
439.95	2029.54
440.16	2019.30
440.36	2004.96
440.57	2097.12
440.77	2107.36
440.98	1972.19
441.18	1980.39
441.39	1992.67
441.59	1884.13
441.80	2099.17
442.00	2002.91
442.21	2060.26
442.41	1816.55
442.62	2072.54
442.82	1920.99
443.02	1949.67
443.23	1990.63
443.43	1994.72
443.64	2090.98
443.84	1943.52
444.05	2027.49
444.25	1978.34
444.46	1966.05
444.66	1927.14
444.87	2107.36
445.07	1869.80
445.28	1933.28
445.48	2060.26
445.69	2009.06
445.89	2154.46
446.09	1968.10
446.30	2195.42
446.50	2703.32
446.71	4194.24
446.91	5259.18
447.12	6127.52
447.32	6428.57
447.53	6084.52
447.73	4880.31
447.93	4417.47
448.14	3950.53
448.34	3798.98
448.55	3483.59
448.75	3358.67
448.96	3133.39
449.16	2940.88
449.36	2580.44
449.57	2338.78
449.77	2086.88
449.98	2082.78
450.18	2025.44
450.39	2047.97
450.59	2058.21
450.79	1988.58
451.00	1935.33
451.20	2000.87
451.41	2007.01
451.61	2021.35
451.81	1988.58
452.02	1900.52
452.22	1976.29
452.43	1904.61
452.63	1951.71
452.84	1970.15
453.04	1892.32
453.24	2002.91
453.45	1943.52
453.65	1941.47
453.86	2066.40
454.06	1982.43
454.26	2015.20
454.47	1957.86
454.67	2002.91
454.87	1994.72
455.08	1978.34
455.28	2113.50
455.49	1980.39
455.69	1904.61
455.89	2158.56
456.10	1982.43
456.30	1968.10
456.51	2027.49
456.71	2000.87
456.91	2015.20
457.12	1982.43
457.32	1978.34
457.52	1900.52
457.73	2029.54
457.93	1996.77
458.14	1976.29
458.34	1933.28
458.54	2021.35
458.75	1880.04
458.95	2045.92
459.15	2019.30
459.36	2000.87
459.56	2066.40
459.76	2176.99
459.97	2037.73
460.17	1996.77
460.37	2056.16
460.58	1976.29
460.78	2000.87
460.99	1861.60
461.19	1970.15
461.39	1972.19
461.60	1996.77
461.80	1986.53
462.00	1896.42
462.21	1957.86
462.41	1871.84
462.61	1900.52
462.82	1849.32
463.02	1990.63
463.22	1918.95
463.43	2050.02
463.63	1976.29
463.83	2095.07
464.04	1996.77
464.24	1994.72
464.44	1894.37
464.64	1939.43
464.85	2015.20
465.05	2039.78
465.25	2082.78
465.46	1916.90
465.66	1935.33
465.86	2084.83
466.07	1947.62
466.27	1966.05
466.47	1843.17
466.68	1865.70
466.88	2080.74
467.08	1978.34
467.29	1966.05
467.49	2062.30
467.69	1976.29
467.89	1959.91
468.10	1923.04
468.30	2041.82
468.50	1974.24
468.71	2029.54
468.91	1847.27
469.11	2090.98
469.31	1953.76
469.52	1920.99
469.72	2068.45
469.92	2136.03
470.13	2009.06
470.33	2025.44
470.53	2082.78
470.73	2375.64
470.94	2832.34
471.14	3074.00
471.34	3395.53
471.54	3205.07
471.75	2938.84
471.95	2637.78
472.15	2557.91
472.36	2551.77
472.56	2506.71
472.76	2469.85
472.96	2512.86
473.17	2330.59
473.37	2242.53
473.57	2131.94
473.77	2097.12
473.98	2056.16
474.18	1947.62
474.38	2242.53
474.58	2002.91
474.79	1892.32
474.99	1980.39
475.19	2023.39
475.39	1918.95
475.60	2062.30
475.80	1986.53
476.00	1970.15
476.20	1947.62
476.41	2019.30
476.61	2062.30
476.81	2095.07
477.01	1871.84
477.21	2115.55
477.42	2050.02
477.62	1935.33
477.82	2017.25
478.02	1982.43
478.23	1929.19
478.43	1898.47
478.63	1982.43
478.83	1935.33
479.03	1964.00
479.24	1982.43
479.44	2115.55
479.64	1927.14
479.84	1794.02
480.04	1978.34
480.25	1998.82
480.45	1949.67
480.65	2002.91
480.85	2000.87
481.06	1918.95
481.26	2009.06
481.46	2019.30
481.66	1966.05
481.86	1931.23
482.06	2047.97
482.27	1961.95
482.47	1966.05
482.67	1988.58
482.87	1941.47
483.07	2082.78
483.28	1961.95
483.48	1845.22
483.68	1916.90
483.88	1888.23
484.08	1826.79
484.29	1896.42
484.49	1941.47
484.69	1837.03
484.89	2078.69
485.09	2072.54
485.29	1990.63
485.50	1949.67
485.70	1984.48
485.90	2043.87
486.10	1990.63
486.30	2007.01
486.50	2099.17
486.71	1998.82
486.91	2017.25
487.11	2052.06
487.31	1877.99
487.51	2019.30
487.71	2023.39
487.91	1982.43
488.12	1804.26
488.32	1814.50
488.52	1890.28
488.72	1834.98
488.92	2011.11
489.12	1982.43
489.32	2082.78
489.53	2009.06
489.73	1906.66
489.93	2070.50
490.13	1974.24
490.33	1847.27
490.53	1939.43
490.73	2033.63
490.94	1863.65
491.14	1978.34
491.34	2009.06
491.54	2326.49
491.74	2951.12
491.94	3583.95
492.14	3762.12
492.34	3870.66
492.54	3588.04
492.75	2996.18
492.95	2901.97
493.15	2748.37
493.35	2693.08
493.55	2623.45
493.75	2533.34
493.95	2531.29
494.15	2338.78
494.35	2232.29
494.56	2127.84
494.76	1976.29
494.96	2146.27
495.16	2088.93
495.36	2011.11
495.56	1968.10
495.76	1978.34
495.96	1972.19
496.16	1910.75
496.36	2090.98
496.56	2025.44
496.77	1970.15
496.97	1855.46
497.17	2007.01
497.37	1857.51
497.57	1984.48
497.77	1990.63
497.97	1904.61
498.17	1935.33
498.37	2029.54
498.57	2013.15
498.77	1939.43
498.97	1996.77
499.17	2125.79
499.38	1974.24
499.58	2084.83
499.78	1972.19
499.98	2160.61
500.18	2043.87
500.38	1923.04
500.58	2113.50
500.78	2615.26
500.98	4769.72
501.18	6922.13
501.38	8824.70
501.58	9639.79
501.78	9471.86
501.98	7554.96
502.18	6178.72
502.38	5330.86
502.58	4861.88
502.78	4534.20
502.98	4302.78
503.18	4063.17
503.38	3751.88
503.59	3233.74
503.79	3157.97
503.99	2797.53
504.19	2631.64
504.39	2584.54
504.59	2648.02
504.79	2588.63
504.99	2598.87
505.19	2383.84
505.39	2205.66
505.59	2328.54
505.79	2285.53
505.99	2176.99
506.19	2082.78
506.39	2189.28
506.59	1961.95
506.79	1976.29
506.99	2113.50
507.19	2064.35
507.39	1906.66
507.59	1906.66
507.79	1902.56
507.99	1943.52
508.19	2035.68
508.39	1920.99
508.59	1972.19
508.79	2105.31
508.99	2115.55
509.19	1982.43
509.39	2056.16
509.59	1964.00
509.79	1996.77
509.99	2123.74
510.19	2052.06
510.39	2027.49
510.59	2041.82
510.79	1953.76
510.99	1892.32
511.19	2041.82
511.39	2140.13
511.59	2050.02
511.79	2099.17
511.99	1964.00
512.19	2150.37
512.38	1937.38
512.58	1951.71
512.78	1964.00
512.98	1992.67
513.18	2117.60
513.38	1920.99
513.58	2033.63
513.78	1939.43
513.98	1873.89
514.18	1947.62
514.38	1894.37
514.58	2000.87
514.78	1929.19
514.98	1920.99
515.18	1957.86
515.38	1882.08
515.58	2133.98
515.78	1994.72
515.98	1890.28
516.18	1943.52
516.38	1976.29
516.57	1910.75
516.77	1875.94
516.97	2062.30
517.17	1968.10
517.37	1830.88
517.57	2002.91
517.77	1982.43
517.97	1888.23
518.17	1988.58
518.37	1961.95
518.57	1939.43
518.77	1961.95
518.97	2050.02
519.16	1996.77
519.36	2056.16
519.56	1937.38
519.76	1992.67
519.96	1953.76
520.16	2086.88
520.36	1867.75
520.56	2111.46
520.76	1910.75
520.96	1859.56
521.16	2078.69
521.35	2039.78
521.55	2060.26
521.75	1923.04
521.95	1912.80
522.15	1912.80
522.35	1914.85
522.55	1914.85
522.75	2058.21
522.95	1937.38
523.14	1933.28
523.34	1931.23
523.54	2007.01
523.74	1982.43
523.94	1980.39
524.14	1888.23
524.34	1980.39
524.54	2015.20
524.73	1892.32
524.93	2047.97
525.13	1978.34
525.33	1920.99
525.53	2183.13
525.73	1986.53
525.93	2062.30
526.13	1970.15
526.32	1961.95
526.52	1988.58
526.72	2074.59
526.92	1886.18
527.12	1964.00
527.32	1902.56
527.52	1923.04
527.71	1968.10
527.91	1910.75
528.11	1986.53
528.31	1961.95
528.51	1892.32
528.71	2013.15
528.90	2054.11
529.10	1992.67
529.30	2136.03
529.50	1808.36
529.70	2021.35
529.90	1931.23
530.09	2004.96
530.29	1978.34
530.49	1914.85
530.69	2209.76
530.89	2019.30
531.09	2043.87
531.28	1937.38
531.48	2072.54
531.68	2004.96
531.88	2025.44
532.08	2047.97
532.28	1927.14
532.47	2074.59
532.67	2099.17
532.87	2062.30
533.07	1916.90
533.27	2074.59
533.46	1986.53
533.66	2031.58
533.86	2021.35
534.06	1978.34
534.26	2062.30
534.45	2072.54
534.65	2131.94
534.85	1996.77
535.05	1929.19
535.25	2002.91
535.44	1837.03
535.64	2074.59
535.84	1949.67
536.04	1982.43
536.24	1943.52
536.43	1908.71
536.63	2068.45
536.83	1998.82
537.03	1996.77
537.22	1822.69
537.42	1873.89
537.62	1964.00
537.82	1982.43
538.02	2052.06
538.21	2033.63
538.41	2240.48
538.61	2041.82
538.81	1849.32
539.00	1994.72
539.20	1910.75
539.40	1931.23
539.60	1976.29
539.79	2050.02
539.99	1957.86
540.19	1892.32
540.39	2076.64
540.58	1953.76
540.78	2047.97
540.98	2021.35
541.18	2062.30
541.37	2109.41
541.57	2070.50
541.77	2045.92
541.97	1861.60
542.16	1920.99
542.36	1990.63
542.56	1935.33
542.76	2101.22
542.95	2025.44
543.15	2025.44
543.35	2037.73
543.54	1994.72
543.74	1943.52
543.94	2111.46
544.14	1988.58
544.33	2058.21
544.53	1992.67
544.73	2013.15
544.93	1964.00
545.12	2013.15
545.32	1925.09
545.52	1925.09
545.71	1923.04
545.91	1974.24
546.11	1990.63
546.30	1853.41
546.50	1875.94
546.70	1959.91
546.90	1982.43
547.09	1826.79
547.29	1957.86
547.49	2056.16
547.68	2007.01
547.88	1927.14
548.08	2027.49
548.27	2486.23
548.47	1918.95
548.67	1916.90
548.87	2054.11
549.06	2015.20
549.26	2072.54
549.46	1994.72
549.65	1957.86
549.85	2056.16
550.05	2029.54
550.24	1923.04
550.44	2080.74
550.64	1949.67
550.83	1894.37
551.03	2060.26
551.23	2023.39
551.42	1961.95
551.62	1947.62
551.82	2074.59
552.01	1900.52
552.21	2062.30
552.41	1988.58
552.60	2113.50
552.80	2011.11
553.00	1953.76
553.19	2004.96
553.39	2095.07
553.59	1947.62
553.78	2078.69
553.98	1970.15
554.17	1916.90
554.37	1955.81
554.57	2019.30
554.76	1865.70
554.96	1900.52
555.16	1961.95
555.35	2078.69
555.55	2019.30
555.75	1959.91
555.94	2064.35
556.14	1890.28
556.33	2045.92
556.53	2033.63
556.73	1970.15
556.92	2029.54
557.12	2138.08
557.32	2152.42
557.51	2144.22
557.71	1976.29
557.90	2119.65
558.10	2146.27
558.30	1937.38
558.49	1982.43
558.69	2011.11
558.88	2029.54
559.08	2062.30
559.28	1949.67
559.47	1906.66
559.67	2029.54
559.86	2070.50
560.06	1978.34
560.26	1959.91
560.45	2093.02
560.65	2000.87
560.84	2138.08
561.04	1964.00
561.24	2019.30
561.43	1925.09
561.63	2142.18
561.82	1984.48
562.02	2054.11
562.22	1957.86
562.41	2019.30
562.61	1988.58
562.80	1951.71
563.00	2101.22
563.19	2037.73
563.39	2074.59
563.59	2015.20
563.78	1964.00
563.98	1837.03
564.17	1959.91
564.37	1861.60
564.56	2002.91
564.76	1863.65
564.96	2050.02
565.15	1988.58
565.35	2101.22
565.54	1929.19
565.74	1998.82
565.93	1982.43
566.13	1996.77
566.32	2000.87
566.52	2000.87
566.71	1949.67
566.91	2088.93
567.11	2054.11
567.30	1968.10
567.50	2076.64
567.69	2000.87
567.89	1949.67
568.08	1920.99
568.28	2035.68
568.47	1865.70
568.67	1937.38
568.86	1964.00
569.06	2123.74
569.25	1933.28
569.45	1937.38
569.64	1875.94
569.84	1953.76
570.04	1927.14
570.23	1964.00
570.43	1968.10
570.62	2033.63
570.82	2068.45
571.01	1910.75
571.21	1929.19
571.40	1900.52
571.60	2078.69
571.79	2019.30
571.99	2023.39
572.18	1941.47
572.38	1984.48
572.57	1949.67
572.77	2093.02
572.96	2199.52
573.16	1929.19
573.35	1988.58
573.55	2115.55
573.74	2054.11
573.94	1900.52
574.13	1888.23
574.33	2109.41
574.52	2095.07
574.71	2068.45
574.91	1982.43
575.10	1912.80
575.30	1927.14
575.49	1978.34
575.69	1916.90
575.88	2025.44
576.08	1990.63
576.27	2099.17
576.47	2004.96
576.66	2195.42
576.86	2054.11
577.05	1976.29
577.25	2090.98
577.44	2185.18
577.64	1980.39
577.83	2052.06
578.02	2068.45
578.22	2123.74
578.41	2066.40
578.61	2037.73
578.80	1914.85
579.00	1990.63
579.19	2017.25
579.39	1992.67
579.58	2090.98
579.77	2007.01
579.97	2117.60
580.16	2074.59
580.36	2129.89
580.55	2183.13
580.75	2027.49
580.94	2029.54
581.13	2080.74
581.33	2138.08
581.52	1984.48
581.72	2209.76
581.91	2197.47
582.11	2066.40
582.30	2066.40
582.49	2019.30
582.69	2121.70
582.88	2109.41
583.08	2050.02
583.27	2064.35
583.47	2033.63
583.66	1933.28
583.85	1923.04
584.05	2002.91
584.24	2050.02
584.44	2074.59
584.63	2035.68
584.82	2154.46
585.02	2125.79
585.21	2156.51
585.41	2154.46
585.60	2170.85
585.79	2189.28
585.99	2330.59
586.18	2142.18
586.37	2650.07
586.57	3971.01
586.76	11755.34
586.96	30492.21
587.15	45026.64
587.34	54510.78
587.54	60128.36
587.73	56636.58
587.93	40175.00
588.12	29902.39
588.31	23905.94
588.51	20358.86
588.70	18700.00
588.89	17309.43
589.09	15193.88
589.28	13231.93
589.47	11016.02
589.67	8699.77
589.86	6670.23
590.06	4865.97
590.25	3825.61
590.44	3227.60
590.64	2742.23
590.83	2400.22
591.02	2197.47
591.22	2105.31
591.41	2125.79
591.60	2095.07
591.80	2301.92
591.99	1966.05
592.18	2007.01
592.38	2125.79
592.57	1996.77
592.76	2009.06
592.96	1974.24
593.15	2019.30
593.34	2088.93
593.54	1937.38
593.73	2056.16
593.92	2099.17
594.12	2160.61
594.31	2062.30
594.50	2211.81
594.70	2056.16
594.89	2164.70
595.08	1916.90
595.28	2113.50
595.47	2318.30
595.66	2064.35
595.86	1914.85
596.05	2035.68
596.24	1992.67
596.43	2207.71
596.63	2062.30
596.82	2068.45
597.01	2039.78
597.21	2152.42
597.40	2113.50
597.59	2035.68
597.79	2041.82
597.98	2113.50
598.17	2021.35
598.36	1972.19
598.56	2058.21
598.75	1914.85
598.94	2047.97
599.14	2082.78
599.33	2035.68
599.52	2039.78
599.71	2011.11
599.91	2109.41
600.10	2084.83
600.29	1951.71
600.48	2045.92
600.68	2101.22
600.87	1955.81
601.06	1959.91
601.26	1990.63
601.45	1986.53
601.64	2035.68
601.83	2054.11
602.03	1925.09
602.22	1916.90
602.41	2099.17
602.60	2215.90
602.80	2015.20
602.99	2093.02
603.18	1923.04
603.37	1998.82
603.57	1945.57
603.76	2146.27
603.95	1992.67
604.14	1929.19
604.34	1929.19
604.53	1949.67
604.72	2009.06
604.91	2009.06
605.10	2011.11
605.30	1968.10
605.49	2133.98
605.68	1990.63
605.87	2027.49
606.07	1961.95
606.26	1982.43
606.45	2015.20
606.64	1959.91
606.84	1992.67
607.03	2050.02
607.22	2115.55
607.41	2041.82
607.60	2037.73
607.80	2097.12
607.99	2027.49
608.18	2007.01
608.37	2007.01
608.56	1980.39
608.76	2121.70
608.95	2222.05
609.14	2029.54
609.33	2125.79
609.52	2205.66
609.72	2054.11
609.91	2119.65
610.10	2023.39
610.29	2160.61
610.48	2041.82
610.68	2035.68
610.87	2064.35
611.06	2109.41
611.25	1972.19
611.44	2148.32
611.63	1964.00
611.83	2072.54
612.02	1855.46
612.21	2035.68
612.40	1865.70
612.59	1935.33
612.79	1908.71
612.98	1966.05
613.17	2045.92
613.36	2041.82
613.55	2074.59
613.74	2050.02
613.93	2158.56
614.13	2172.89
614.32	2289.63
614.51	2256.86
614.70	2185.18
614.89	2052.06
615.08	2125.79
615.28	2455.51
615.47	2002.91
615.66	2127.84
615.85	2039.78
616.04	2156.51
616.23	2070.50
616.42	2029.54
616.62	2058.21
616.81	2021.35
617.00	1970.15
617.19	2035.68
617.38	1949.67
617.57	1990.63
617.76	2035.68
617.95	2054.11
618.15	2011.11
618.34	2234.33
618.53	1976.29
618.72	2072.54
618.91	2185.18
619.10	2115.55
619.29	1978.34
619.48	1894.37
619.68	1855.46
619.87	2000.87
620.06	1839.08
620.25	2017.25
620.44	2015.20
620.63	1955.81
620.82	2002.91
621.01	2023.39
621.20	1970.15
621.39	1986.53
621.59	1998.82
621.78	1980.39
621.97	1947.62
622.16	2070.50
622.35	2021.35
622.54	2148.32
622.73	2054.11
622.92	1882.08
623.11	2068.45
623.30	1966.05
623.49	2004.96
623.68	1984.48
623.88	2097.12
624.07	1951.71
624.26	1933.28
624.45	1947.62
624.64	1898.47
624.83	1980.39
625.02	1980.39
625.21	1972.19
625.40	1972.19
625.59	2166.75
625.78	1955.81
625.97	2101.22
626.16	2101.22
626.35	2174.94
626.54	2078.69
626.74	2209.76
626.93	2000.87
627.12	2019.30
627.31	2105.31
627.50	1998.82
627.69	2039.78
627.88	1884.13
628.07	1988.58
628.26	1869.80
628.45	2023.39
628.64	1828.84
628.83	1976.29
629.02	1904.61
629.21	2068.45
629.40	1953.76
629.59	1968.10
629.78	1920.99
629.97	2052.06
630.16	1994.72
630.35	1972.19
630.54	2058.21
630.73	1949.67
630.92	1933.28
631.11	2025.44
631.30	2021.35
631.49	2019.30
631.68	1898.47
631.87	2000.87
632.06	1892.32
632.25	2154.46
632.44	2029.54
632.63	2095.07
632.82	2000.87
633.01	2127.84
633.20	2183.13
633.39	2121.70
633.58	1998.82
633.77	2070.50
633.96	2052.06
634.15	2125.79
634.34	2015.20
634.53	2068.45
634.72	2027.49
634.91	1972.19
635.10	1964.00
635.29	1996.77
635.48	1939.43
635.67	1933.28
635.86	1920.99
636.05	2062.30
636.24	1978.34
636.43	1980.39
636.62	2025.44
636.81	1855.46
637.00	1984.48
637.19	2011.11
637.38	2029.54
637.57	2050.02
637.76	2078.69
637.95	2093.02
638.14	2045.92
638.33	2107.36
638.52	2033.63
638.71	2002.91
638.89	1931.23
639.08	2293.72
639.27	2097.12
639.46	2136.03
639.65	2629.59
639.84	2629.59
640.03	2846.68
640.22	2775.00
640.41	2748.37
640.60	2381.79
640.79	2295.77
640.98	2195.42
641.17	2303.96
641.36	2164.70
641.55	2158.56
641.74	1996.77
641.92	1998.82
642.11	2002.91
642.30	2060.26
642.49	1990.63
642.68	1908.71
642.87	1966.05
643.06	1976.29
643.25	1925.09
643.44	1953.76
643.63	1964.00
643.82	1964.00
644.00	1900.52
644.19	2002.91
644.38	1931.23
644.57	2009.06
644.76	1976.29
644.95	1978.34
645.14	2029.54
645.33	1951.71
645.52	2009.06
645.71	1923.04
645.89	1900.52
646.08	1951.71
646.27	1988.58
646.46	2209.76
646.65	1880.04
646.84	1968.10
647.03	1918.95
647.22	2105.31
647.40	2043.87
647.59	1945.57
647.78	1902.56
647.97	1941.47
648.16	1968.10
648.35	2111.46
648.54	2004.96
648.73	1949.67
648.91	2047.97
649.10	2007.01
649.29	1912.80
649.48	1966.05
649.67	2033.63
649.86	1955.81
650.05	2062.30
650.23	2152.42
650.42	2152.42
650.61	2293.72
650.80	2238.43
650.99	2353.12
651.18	2138.08
651.36	2043.87
651.55	2025.44
651.74	2045.92
651.93	1964.00
652.12	1986.53
652.31	1982.43
652.49	1966.05
652.68	1994.72
652.87	2131.94
653.06	1994.72
653.25	2125.79
653.44	1966.05
653.62	2123.74
653.81	1972.19
654.00	2078.69
654.19	2062.30
654.38	2174.94
654.56	1978.34
654.75	1898.47
654.94	2027.49
655.13	1961.95
655.32	2000.87
655.51	1933.28
655.69	1834.98
655.88	1931.23
656.07	1910.75
656.26	1959.91
656.45	1867.75
656.63	1957.86
656.82	1984.48
657.01	1996.77
657.20	1871.84
657.38	2070.50
657.57	1959.91
657.76	1861.60
657.95	1996.77
658.14	1863.65
658.32	1949.67
658.51	1906.66
658.70	1968.10
658.89	1964.00
659.08	1927.14
659.26	2123.74
659.45	1939.43
659.64	1990.63
659.83	1959.91
660.01	2342.88
660.20	2033.63
660.39	2115.55
660.58	1884.13
660.76	1968.10
660.95	1902.56
661.14	2035.68
661.33	1894.37
661.51	1943.52
661.70	1941.47
661.89	2043.87
662.08	1923.04
662.26	1843.17
662.45	1900.52
662.64	2093.02
662.83	2064.35
663.01	1863.65
663.20	1955.81
663.39	2136.03
663.58	1935.33
663.76	1957.86
663.95	1974.24
664.14	1888.23
664.32	1898.47
664.51	1896.42
664.70	1853.41
664.89	1974.24
665.07	1785.83
665.26	2052.06
665.45	1945.57
665.64	1964.00
665.82	1988.58
666.01	2004.96
666.20	1865.70
666.38	2105.31
666.57	2152.42
666.76	2840.53
666.95	6789.02
667.13	14913.31
667.32	21180.09
667.51	24759.94
667.69	27047.52
667.88	25738.87
668.07	18589.41
668.25	14673.70
668.44	11769.68
668.63	10178.40
668.81	8849.27
669.00	7907.21
669.19	6948.76
669.38	6078.37
669.56	5214.13
669.75	4380.61
669.94	3721.16
670.12	3016.66
670.31	2668.50
670.50	2418.65
670.68	2318.30
670.87	2209.76
671.06	2131.94
671.24	2138.08
671.43	2263.01
671.62	2154.46
671.80	2015.20
671.99	2039.78
672.18	2064.35
672.36	1984.48
672.55	2023.39
672.74	2019.30
672.92	1968.10
673.11	2019.30
673.29	1888.23
673.48	2072.54
673.67	1978.34
673.85	2035.68
674.04	1935.33
674.23	2050.02
674.41	2074.59
674.60	1837.03
674.79	1804.26
674.97	1933.28
675.16	1933.28
675.34	1970.15
675.53	1945.57
675.72	1980.39
675.90	2099.17
676.09	1947.62
676.28	1978.34
676.46	1914.85
676.65	1998.82
676.83	1931.23
677.02	1906.66
677.21	2000.87
677.39	2002.91
677.58	1886.18
677.77	1873.89
677.95	1986.53
678.14	1992.67
678.32	1920.99
678.51	1918.95
678.70	2140.13
678.88	1923.04
679.07	1988.58
679.25	2002.91
679.44	1988.58
679.63	1892.32
679.81	1966.05
680.00	2029.54
680.18	2004.96
680.37	2031.58
680.55	1978.34
680.74	1863.65
680.93	1886.18
681.11	2027.49
681.30	1886.18
681.48	1966.05
681.67	1949.67
681.85	1890.28
682.04	1908.71
682.23	1953.76
682.41	2025.44
682.60	1976.29
682.78	2015.20
682.97	1834.98
683.15	1947.62
683.34	1988.58
683.53	2095.07
683.71	1820.64
683.90	2052.06
684.08	2062.30
684.27	1904.61
684.45	1949.67
684.64	2170.85
684.82	2015.20
685.01	1998.82
685.19	1961.95
685.38	2080.74
685.57	1968.10
685.75	1966.05
685.94	1927.14
686.12	1925.09
686.31	1871.84
686.49	2138.08
686.68	1791.97
686.86	1955.81
687.05	1894.37
687.23	2129.89
687.42	2031.58
687.60	1828.84
687.79	2058.21
687.97	2054.11
688.16	2011.11
688.34	2035.68
688.53	1863.65
688.71	2037.73
688.90	1984.48
689.08	1980.39
689.27	1826.79
689.45	1988.58
689.64	2031.58
689.82	1994.72
690.01	2013.15
690.19	2011.11
690.38	1955.81
690.56	2011.11
690.75	1867.75
690.93	1978.34
691.12	1834.98
691.30	1941.47
691.49	1949.67
691.67	1976.29
691.86	2189.28
692.04	1935.33
692.23	2095.07
692.41	2023.39
692.60	2205.66
692.78	2133.98
692.97	2078.69
693.15	2054.11
693.34	2133.98
693.52	2127.84
693.71	1964.00
693.89	1941.47
694.08	1873.89
694.26	2115.55
694.44	2052.06
694.63	2045.92
694.81	1837.03
695.00	1941.47
695.18	2047.97
695.37	2105.31
695.55	1998.82
695.74	1912.80
695.92	1961.95
696.10	2107.36
696.29	1920.99
696.47	1867.75
696.66	1871.84
696.84	1802.21
697.03	2029.54
697.21	2127.84
697.40	2781.14
697.58	2082.78
697.76	1951.71
697.95	1894.37
698.13	1955.81
698.32	1906.66
698.50	1976.29
698.68	2052.06
698.87	2033.63
699.05	2076.64
699.24	1996.77
699.42	1918.95
699.61	2007.01
699.79	1994.72
699.97	1974.24
700.16	1873.89
700.34	1886.18
700.53	1984.48
700.71	2074.59
700.89	2015.20
701.08	1925.09
701.26	2025.44
701.45	2387.93
701.63	1904.61
701.81	1966.05
702.00	1949.67
702.18	1996.77
702.37	2011.11
702.55	2121.70
702.73	2209.76
702.92	2160.61
703.10	2342.88
703.28	2215.90
703.47	2172.89
703.65	2162.66
703.84	2140.13
704.02	2015.20
704.20	2185.18
704.39	2013.15
704.57	1949.67
704.75	2105.31
704.94	2068.45
705.12	2023.39
705.30	2232.29
705.49	3663.82
705.67	9308.02
705.86	18728.67
706.04	23613.08
706.22	26967.65
706.41	28931.65
706.59	26041.97
706.77	18509.54
706.96	14753.57
707.14	12787.52
707.32	10985.30
707.51	9686.89
707.69	8241.03
707.87	6727.58
708.06	5377.97
708.24	4147.14
708.42	3229.65
708.61	3016.66
708.79	2332.64
708.97	2105.31
709.16	2189.28
709.34	2062.30
709.52	1970.15
709.71	2039.78
709.89	2068.45
710.07	2000.87
710.26	1931.23
710.44	2056.16
710.62	2076.64
710.80	1984.48
710.99	2056.16
711.17	2043.87
711.35	1923.04
711.54	1959.91
711.72	1976.29
711.90	2002.91
712.09	2043.87
712.27	1976.29
712.45	2058.21
712.63	1914.85
712.82	2015.20
713.00	1920.99
713.18	2019.30
713.37	2019.30
713.55	2015.20
713.73	2015.20
713.91	1984.48
714.10	1941.47
714.28	2000.87
714.46	1910.75
714.65	2013.15
714.83	2009.06
715.01	1920.99
715.19	2050.02
715.38	1923.04
715.56	1980.39
715.74	1923.04
715.92	1871.84
716.11	2133.98
716.29	1855.46
716.47	2000.87
716.65	1937.38
716.84	1824.74
717.02	2080.74
717.20	1904.61
717.38	1933.28
717.57	1941.47
717.75	1990.63
717.93	1914.85
718.11	1939.43
718.30	1916.90
718.48	2086.88
718.66	2002.91
718.84	2011.11
719.03	1970.15
719.21	1892.32
719.39	2164.70
719.57	1970.15
719.75	2047.97
719.94	1880.04
720.12	1996.77
720.30	1949.67
720.48	2021.35
720.67	1984.48
720.85	1943.52
721.03	1918.95
721.21	1923.04
721.39	1988.58
721.58	2004.96
721.76	1923.04
721.94	1988.58
722.12	1953.76
722.30	2060.26
722.49	1894.37
722.67	1992.67
722.85	2027.49
723.03	1822.69
723.21	1961.95
723.40	1957.86
723.58	2041.82
723.76	2086.88
723.94	2080.74
724.12	2095.07
724.30	2166.75
724.49	2090.98
724.67	2041.82
724.85	2105.31
725.03	1841.12
725.21	2093.02
725.40	2082.78
725.58	1910.75
725.76	2084.83
725.94	2101.22
726.12	1882.08
726.30	1929.19
726.49	1927.14
726.67	2054.11
726.85	2031.58
727.03	2246.62
727.21	3196.88
727.39	4767.67
727.57	6174.63
727.76	6864.79
727.94	7458.70
728.12	7251.86
728.30	5758.89
728.48	4810.68
728.66	4399.04
728.84	3821.51
729.03	3405.77
729.21	3022.80
729.39	2672.60
729.57	2222.05
729.75	2193.37
729.93	2111.46
730.11	2033.63
730.30	1974.24
730.48	1972.19
730.66	2101.22
730.84	2093.02
731.02	1947.62
731.20	1918.95
731.38	2033.63
731.56	1896.42
731.74	1869.80
731.93	1996.77
732.11	1931.23
732.29	1961.95
732.47	2054.11
732.65	1968.10
732.83	2070.50
733.01	2062.30
733.19	1900.52
733.37	1986.53
733.56	1994.72
733.74	1961.95
733.92	2066.40
734.10	1947.62
734.28	2000.87
734.46	1912.80
734.64	1978.34
734.82	1953.76
735.00	1964.00
735.18	1961.95
735.36	1935.33
735.54	1949.67
735.73	1920.99
735.91	2054.11
736.09	2078.69
736.27	2007.01
736.45	2019.30
736.63	1869.80
736.81	1939.43
736.99	2027.49
737.17	1978.34
737.35	1951.71
737.53	1947.62
737.71	1970.15
737.89	2060.26
738.07	1873.89
738.25	1957.86
738.43	1871.84
738.61	1886.18
738.80	1849.32
738.98	1937.38
739.16	1992.67
739.34	1920.99
739.52	1970.15
739.70	1964.00
739.88	2000.87
740.06	2084.83
740.24	1902.56
740.42	2111.46
740.60	1900.52
740.78	1914.85
740.96	1871.84
741.14	2025.44
741.32	1970.15
741.50	1814.50
741.68	2158.56
741.86	2025.44
742.04	1892.32
742.22	1904.61
742.40	1951.71
742.58	1992.67
742.76	1873.89
742.94	2021.35
743.12	1834.98
743.30	1964.00
743.48	1978.34
743.66	1927.14
743.84	2025.44
744.02	2007.01
744.20	1990.63
744.38	1941.47
744.56	1957.86
744.74	1974.24
744.92	1953.76
745.10	2064.35
745.28	2019.30
745.46	2117.60
745.64	1966.05
745.82	2025.44
746.00	1906.66
746.18	1959.91
746.36	1875.94
746.54	1877.99
746.72	2004.96
746.90	1914.85
747.08	2045.92
747.26	1941.47
747.44	2074.59
747.62	2064.35
747.80	2011.11
747.98	2045.92
748.15	1894.37
748.33	2138.08
748.51	1988.58
748.69	2035.68
748.87	1888.23
749.05	1959.91
749.23	1927.14
749.41	2099.17
749.59	1988.58
749.77	2021.35
749.95	1906.66
750.13	1929.19
750.31	2009.06
750.49	1931.23
750.67	2029.54
750.85	2084.83
751.03	1941.47
751.20	2070.50
751.38	1902.56
751.56	1957.86
751.74	1974.24
751.92	1910.75
752.10	1859.56
752.28	2031.58
752.46	1992.67
752.64	1949.67
752.82	2017.25
753.00	1990.63
753.18	2013.15
753.35	1957.86
753.53	1980.39
753.71	1892.32
753.89	2045.92
754.07	1959.91
754.25	2052.06
754.43	1939.43
754.61	1902.56
754.79	2050.02
754.97	1906.66
755.14	2072.54
755.32	1869.80
755.50	1933.28
755.68	2052.06
755.86	1855.46
756.04	1941.47
756.22	1849.32
756.40	1945.57
756.57	2103.26
756.75	2019.30
756.93	2013.15
757.11	1953.76
757.29	1923.04
757.47	1826.79
757.65	1847.27
757.82	1814.50
758.00	1923.04
758.18	1902.56
758.36	1873.89
758.54	2111.46
758.72	1898.47
758.90	2058.21
759.07	1949.67
759.25	1871.84
759.43	2027.49
759.61	1925.09
759.79	2658.26
759.97	2007.01
760.15	1849.32
760.32	2004.96
760.50	1996.77
760.68	2017.25
760.86	1857.51
761.04	2015.20
761.22	2004.96
761.39	1986.53
761.57	1949.67
761.75	1923.04
761.93	1941.47
762.11	1961.95
762.28	1982.43
762.46	1898.47
762.64	2039.78
762.82	1902.56
763.00	1916.90
763.18	2023.39
763.35	1949.67
763.53	2078.69
763.71	2041.82
763.89	1929.19
764.07	1992.67
764.24	1996.77
764.42	1974.24
764.60	1898.47
764.78	2019.30
764.96	2056.16
765.13	2066.40
765.31	1923.04
765.49	2062.30
765.67	1939.43
765.84	1859.56
766.02	1968.10
766.20	1822.69
766.38	1953.76
766.56	2021.35
766.73	2025.44
766.91	1929.19
767.09	1916.90
767.27	1996.77
767.44	1808.36
767.62	2023.39
767.80	2007.01
767.98	1906.66
768.15	1912.80
768.33	1957.86
768.51	1978.34
768.69	1976.29
768.87	1982.43
769.04	1892.32
769.22	2086.88
769.40	2078.69
769.58	2148.32
769.75	1947.62
769.93	2066.40
770.11	1877.99
770.28	1910.75
770.46	2113.50
770.64	1986.53
770.82	1898.47
770.99	1939.43
771.17	2013.15
771.35	1937.38
771.53	1959.91
771.70	1959.91
771.88	1990.63
772.06	1910.75
772.23	1861.60
772.41	2052.06
772.59	1904.61
772.77	1939.43
772.94	1929.19
773.12	2027.49
773.30	1890.28
773.47	1933.28
773.65	1834.98
773.83	2119.65
774.01	1910.75
774.18	1871.84
774.36	1957.86
774.54	1894.37
774.71	1992.67
774.89	1851.36
775.07	1920.99
775.24	1892.32
775.42	1949.67
775.60	2074.59
775.78	1912.80
775.95	1939.43
776.13	1873.89
776.31	1779.68
776.48	1941.47
776.66	2158.56
776.84	1996.77
777.01	1888.23
777.19	1943.52
777.37	1871.84
777.54	2002.91
777.72	2158.56
777.90	1873.89
778.07	1931.23
778.25	2117.60
778.43	1986.53
778.60	1918.95
778.78	2025.44
778.96	2127.84
779.13	1828.84
779.31	2076.64
779.49	1986.53
779.66	1947.62
779.84	1906.66
780.01	1896.42
780.19	1859.56
780.37	2007.01
780.54	2019.30
780.72	1892.32
780.90	2009.06
781.07	1994.72
781.25	1861.60
781.43	1998.82
781.60	1863.65
781.78	2023.39
781.95	1988.58
782.13	1816.55
782.31	2017.25
782.48	1738.73
782.66	1939.43
782.83	2074.59
783.01	1996.77
783.19	2039.78
783.36	1910.75
783.54	1865.70
783.72	2007.01
783.89	1892.32
784.07	2027.49
784.24	1955.81
784.42	2017.25
784.60	2029.54
784.77	1896.42
784.95	1824.74
785.12	1839.08
785.30	1994.72
785.47	1900.52
785.65	1869.80
785.83	1931.23
786.00	1933.28
786.18	1996.77
786.35	1888.23
786.53	1925.09
786.71	2074.59
786.88	2031.58
787.06	1923.04
787.23	1949.67
787.41	1875.94
787.58	1898.47
787.76	1896.42
787.94	2084.83
788.11	1933.28
788.29	1828.84
788.46	1867.75
788.64	1816.55
788.81	1994.72
788.99	1888.23
789.16	1892.32
789.34	1912.80
789.52	1857.51
789.69	1910.75
789.87	1796.07
790.04	1914.85
790.22	1949.67
790.39	2078.69
790.57	1900.52
790.74	1918.95
790.92	1970.15
791.09	1804.26
791.27	2011.11
791.44	2078.69
791.62	1931.23
791.79	1941.47
791.97	1959.91
792.15	2162.66
792.32	1986.53
792.50	2007.01
792.67	2107.36
792.85	2062.30
793.02	1943.52
793.20	1882.08
793.37	1966.05
793.55	1906.66
793.72	1900.52
793.90	1931.23
794.07	1906.66
794.25	1880.04
794.42	1920.99
794.60	1933.28
794.77	2058.21
794.95	1918.95
795.12	1998.82
795.30	1959.91
795.47	1816.55
795.65	2117.60
795.82	1925.09
796.00	1910.75
796.17	1927.14
796.34	1890.28
796.52	1976.29
796.69	2013.15
796.87	1974.24
797.04	1980.39
797.22	2031.58
797.39	2011.11
797.57	2037.73
797.74	1976.29
797.92	1957.86
798.09	1898.47
798.27	2045.92
798.44	2025.44
798.62	1902.56
798.79	1933.28
798.96	2019.30
799.14	1937.38
799.31	2138.08
799.49	1908.71
799.66	1943.52
799.84	1914.85
800.01	1861.60
800.19	2004.96
800.36	1822.69
800.53	1955.81
800.71	1976.29
800.88	2019.30
801.06	1925.09
801.23	1826.79
801.41	2050.02
801.58	1937.38
801.75	1910.75
801.93	1951.71
802.10	2013.15
802.28	1902.56
802.45	1900.52
802.63	2000.87
802.80	2117.60
802.97	1951.71
803.15	1982.43
803.32	1966.05
803.50	1925.09
803.67	1845.22
803.84	1912.80
804.02	1890.28
804.19	1882.08
804.37	1814.50
804.54	1855.46
804.71	1884.13
804.89	1873.89
805.06	1851.36
805.24	1933.28
805.41	1867.75
805.58	1943.52
805.76	2095.07
805.93	1974.24
806.10	2025.44
806.28	1994.72
806.45	1910.75
806.63	1996.77
806.80	1982.43
806.97	1978.34
807.15	1959.91
807.32	2004.96
807.49	2013.15
807.67	1875.94
807.84	1955.81
808.01	1937.38
808.19	2097.12
808.36	2111.46
808.54	1916.90
808.71	1843.17
808.88	2009.06
809.06	2074.59
809.23	2121.70
809.40	1912.80
809.58	2025.44
809.75	1927.14
809.92	1845.22
810.10	2121.70
810.27	1964.00
810.44	1994.72
810.62	2019.30
810.79	2045.92
810.96	1904.61
811.14	1947.62
811.31	2027.49
811.48	2011.11
811.66	1951.71
811.83	2062.30
812.00	2000.87
812.18	1996.77
812.35	2103.26
812.52	1861.60
812.69	1933.28
812.87	1880.04
813.04	1892.32
813.21	1914.85
813.39	1914.85
813.56	1914.85
813.73	2033.63
813.91	1791.97
814.08	1947.62
814.25	1972.19
814.42	1976.29
814.60	1955.81
814.77	1933.28
814.94	2017.25
815.12	1945.57
815.29	2111.46
815.46	1841.12
815.63	1982.43
815.81	1980.39
815.98	1873.89
816.15	1904.61
816.33	1931.23
816.50	1970.15
816.67	2002.91
816.84	1916.90
817.02	1957.86
817.19	1892.32
817.36	1978.34
817.53	2080.74
817.71	1824.74
817.88	2041.82
818.05	1892.32
818.22	1890.28
818.40	2084.83
818.57	1992.67
818.74	1982.43
818.91	1955.81
819.09	2033.63
819.26	2007.01
819.43	1832.93
819.60	1853.41
819.78	1982.43
819.95	2095.07
820.12	1941.47
820.29	2054.11
820.47	1984.48
820.64	1929.19
820.81	1822.69
820.98	1914.85
821.15	1968.10
821.33	2097.12
821.50	1828.84
821.67	2045.92
821.84	1988.58
822.02	1929.19
822.19	2099.17
822.36	1947.62
822.53	1982.43
822.70	1884.13
822.88	1933.28
823.05	2050.02
823.22	1941.47
823.39	2015.20
823.56	2007.01
823.74	2015.20
823.91	1920.99
824.08	1953.76
824.25	1912.80
824.42	2060.26
824.60	1822.69
824.77	1978.34
824.94	1945.57
825.11	2015.20
825.28	1841.12
825.45	2000.87
825.63	2013.15
825.80	1890.28
825.97	1990.63
826.14	1923.04
826.31	1834.98
826.48	1988.58
826.66	1908.71
826.83	1882.08
827.00	1892.32
827.17	1855.46
827.34	1982.43
827.51	1945.57
827.69	1949.67
827.86	1904.61
828.03	1994.72
828.20	1896.42
828.37	1890.28
828.54	1994.72
828.71	1884.13
828.89	2027.49
829.06	2021.35
829.23	2105.31
829.40	1806.31
829.57	1910.75
829.74	2009.06
829.91	1949.67
830.09	1892.32
830.26	2021.35
830.43	2035.68
830.60	1826.79
830.77	1949.67
830.94	2052.06
831.11	1982.43
831.28	1927.14
831.46	2039.78
831.63	1904.61
831.80	2002.91
831.97	1920.99
832.14	1931.23
832.31	1966.05
832.48	2035.68
832.65	1998.82
832.82	1982.43
832.99	2045.92
833.17	1896.42
833.34	2047.97
833.51	1998.82
833.68	1841.12
833.85	2050.02
834.02	1929.19
834.19	1957.86
834.36	1937.38
834.53	2004.96
834.70	2090.98
834.87	2013.15
835.04	1966.05
835.22	1884.13
835.39	1882.08
835.56	1855.46
835.73	1978.34
835.90	1976.29
836.07	1929.19
836.24	1982.43
836.41	1873.89
836.58	1925.09
836.75	2031.58
836.92	1980.39
837.09	1898.47
837.26	1978.34
837.43	2068.45
837.60	1972.19
837.77	1914.85
837.94	1996.77
838.12	2037.73
838.29	1968.10
838.46	1898.47
838.63	1820.64
838.80	2095.07
838.97	2070.50
839.14	2027.49
839.31	1953.76
839.48	2037.73
839.65	1920.99
839.82	1998.82
839.99	1988.58
840.16	1959.91
840.33	1916.90
840.50	1929.19
840.67	1916.90
840.84	1748.97
841.01	1888.23
841.18	1896.42
841.35	1914.85
841.52	1923.04
841.69	2121.70
841.86	1988.58
842.03	1980.39
842.20	1974.24
842.37	1937.38
842.54	1908.71
842.71	2004.96
842.88	1900.52
843.05	1982.43
843.22	1947.62
843.39	1941.47
843.56	1933.28
843.73	1955.81
843.90	1968.10
844.07	1970.15
844.24	2035.68
844.41	2097.12
844.58	1904.61
844.75	1974.24
844.92	2025.44
845.09	1978.34
845.26	1927.14
845.43	2041.82
845.60	1966.05
845.77	1972.19
845.94	1943.52
846.10	2023.39
846.27	1855.46
846.44	1779.68
846.61	1865.70
846.78	1955.81
846.95	2103.26
847.12	1855.46
847.29	1920.99
847.46	1904.61
847.63	1998.82
847.80	1904.61
847.97	1912.80
848.14	2113.50
848.31	1918.95
848.48	1847.27
848.65	1988.58
848.82	1978.34
848.98	2160.61
849.15	1980.39
849.32	2035.68
849.49	2064.35
849.66	1947.62
849.83	2004.96
850.00	1855.46
850.17	2088.93
850.34	1886.18
850.51	1857.51
850.68	1894.37
850.85	2117.60
851.01	1970.15
851.18	1974.24
851.35	1970.15
851.52	2095.07
851.69	2054.11
851.86	1759.21
852.03	1996.77
852.20	2045.92
852.37	1937.38
852.53	1820.64
852.70	1982.43
852.87	1902.56
853.04	1972.19
853.21	1996.77
853.38	2021.35
853.55	2068.45
853.72	2070.50
853.89	1900.52
854.05	1822.69
854.22	1894.37
854.39	1931.23
854.56	2060.26
854.73	2062.30
854.90	1972.19
855.07	1904.61
855.23	1920.99
855.40	1957.86
855.57	1910.75
855.74	1789.92
855.91	2095.07
856.08	1804.26
856.25	1955.81
856.41	1912.80
856.58	1964.00
856.75	1978.34
856.92	1880.04
857.09	2050.02
857.26	1865.70
857.42	1914.85
857.59	2002.91
857.76	1920.99
857.93	1906.66
858.10	1949.67
858.27	1834.98
858.43	1984.48
858.60	1918.95
858.77	1894.37
858.94	1925.09
859.11	2043.87
859.27	1877.99
859.44	1957.86
859.61	2138.08
859.78	2041.82
859.95	1900.52
860.12	1953.76
860.28	2121.70
860.45	2064.35
860.62	1861.60
860.79	1982.43
860.95	1859.56
861.12	1859.56
861.29	1873.89
861.46	1886.18
861.63	1972.19
861.79	1996.77
861.96	1886.18
862.13	1904.61
862.30	2068.45
862.47	1914.85
862.63	1912.80
862.80	2088.93
862.97	2002.91
863.14	1931.23
863.30	1943.52
863.47	1902.56
863.64	2082.78
863.81	1941.47
863.97	1900.52
864.14	2060.26
864.31	1927.14
864.48	2039.78
864.65	1943.52
864.81	1966.05
864.98	1955.81
865.15	1976.29
865.32	1939.43
865.48	1988.58
865.65	2033.63
865.82	1877.99
865.98	2004.96
866.15	2027.49
866.32	1990.63
866.49	1902.56
866.65	1968.10
866.82	1949.67
866.99	1863.65
867.16	1980.39
867.32	1916.90
867.49	1857.51
867.66	1906.66
867.83	1953.76
867.99	1851.36
868.16	1900.52
868.33	1855.46
868.49	2015.20
868.66	1964.00
868.83	1994.72
868.99	2033.63
869.16	1869.80
869.33	2039.78
869.50	2050.02
869.66	1976.29
869.83	1904.61
870.00	1812.45
870.16	2023.39
870.33	1906.66
870.50	2000.87
870.66	1996.77
870.83	2068.45
871.00	2011.11
871.17	1980.39
871.33	2000.87
871.50	1943.52
871.67	1937.38
871.83	1916.90
872.00	2103.26
872.17	1957.86
872.33	2029.54
872.50	2078.69
872.67	1943.52
872.83	1869.80
873.00	1933.28
873.17	1951.71
873.33	1945.57
873.50	1964.00
873.67	1929.19
873.83	1925.09
874.00	1978.34
874.16	1992.67
874.33	1894.37
874.50	1886.18
874.66	1955.81
874.83	2007.01
875.00	1986.53
875.16	2019.30
875.33	2076.64
875.50	1859.56
875.66	1916.90
875.83	1966.05
875.99	1992.67
876.16	1941.47
876.33	1923.04
876.49	1953.76
876.66	1910.75
876.83	1947.62
876.99	1873.89
877.16	1843.17
877.32	1900.52
877.49	1834.98
877.66	1966.05
877.82	2088.93
877.99	1966.05
878.15	2035.68
878.32	1941.47
878.49	1935.33
878.65	1900.52
878.82	2035.68
878.98	1884.13
879.15	1941.47
879.32	2015.20
879.48	1867.75
879.65	2007.01
879.81	1914.85
879.98	1906.66
880.15	1910.75
880.31	2035.68
880.48	1898.47
880.64	2056.16
880.81	2019.30
880.97	2058.21
881.14	1996.77
881.31	1861.60
881.47	2133.98
881.64	1976.29
881.80	1732.58
881.97	1933.28
882.13	1953.76
882.30	1918.95
882.47	1882.08
882.63	1824.74
882.80	1945.57
882.96	1941.47
883.13	2076.64
883.29	1929.19
883.46	1877.99
883.62	2074.59
883.79	1914.85
883.95	1929.19
884.12	1931.23
884.29	2019.30
884.45	1918.95
884.62	1947.62
884.78	1908.71
884.95	2052.06
885.11	1894.37
885.28	2017.25
885.44	1890.28
885.61	1920.99
885.77	2031.58
885.94	2019.30
886.10	1941.47
886.27	1978.34
886.43	2136.03
886.60	2004.96
886.76	1914.85
886.93	1937.38
887.09	1941.47
887.26	1822.69
887.42	1935.33
887.59	2007.01
887.75	2107.36
887.92	2043.87
888.08	1992.67
888.25	2090.98
888.41	1996.77
888.58	1900.52
888.74	1890.28
888.91	1875.94
>>>>>End Processed Spectral Data<<<<<
