SpectraSuite Data File
++++++++++++++++++++++++++++++++++++
Date: Wed May 04 22:45:57 CEST 2016
User: root
Dark Spectrum Present: No
Reference Spectrum Present: No
Number of Sampled Component Spectra: 1
Spectrometers: USB4C02835
Integration Time (usec): 100000 (USB4C02835)
Spectra Averaged: 1 (USB4C02835)
Boxcar Smoothing: 0 (USB4C02835)
Correct for Electrical Dark: No (USB4C02835)
Strobe/Lamp Enabled: No (USB4C02835)
Correct for Detector Non-linearity: No (USB4C02835)
Correct for Stray Light: No (USB4C02835)
Number of Pixels in Processed Spectrum: 3648
>>>>>Begin Processed Spectral Data<<<<<
177.47	1613.80
177.69	1613.80
177.91	1613.80
178.13	1660.90
178.36	1613.80
178.58	1939.43
178.80	1882.08
179.02	1828.84
179.24	1898.47
179.46	1970.15
179.68	1978.34
179.90	1904.61
180.13	1906.66
180.35	1939.43
180.57	1941.47
180.79	2064.35
181.01	1884.13
181.23	1966.05
181.45	2009.06
181.67	1990.63
181.90	1994.72
182.12	1875.94
182.34	1853.41
182.56	1961.95
182.78	1961.95
183.00	1896.42
183.22	1908.71
183.44	1794.02
183.66	2150.37
183.89	1992.67
184.11	1906.66
184.33	1998.82
184.55	2068.45
184.77	1957.86
184.99	1896.42
185.21	1947.62
185.43	2189.28
185.65	1949.67
185.87	1925.09
186.10	2131.94
186.32	2142.18
186.54	1918.95
186.76	1949.67
186.98	1994.72
187.20	1968.10
187.42	1906.66
187.64	1961.95
187.86	1976.29
188.08	2045.92
188.30	1910.75
188.52	1918.95
188.75	2050.02
188.97	2105.31
189.19	1953.76
189.41	1890.28
189.63	1982.43
189.85	1935.33
190.07	1814.50
190.29	1802.21
190.51	1988.58
190.73	1855.46
190.95	1992.67
191.17	1990.63
191.39	1818.60
191.61	1964.00
191.84	1892.32
192.06	2017.25
192.28	1863.65
192.50	2228.19
192.72	1959.91
192.94	1972.19
193.16	2070.50
193.38	1968.10
193.60	1949.67
193.82	1964.00
194.04	2097.12
194.26	2004.96
194.48	2013.15
194.70	1908.71
194.92	1910.75
195.14	2070.50
195.36	1888.23
195.58	1939.43
195.80	1966.05
196.02	1871.84
196.24	1910.75
196.46	1990.63
196.69	1837.03
196.91	2115.55
197.13	1976.29
197.35	1894.37
197.57	2082.78
197.79	2064.35
198.01	1978.34
198.23	1929.19
198.45	1996.77
198.67	1902.56
198.89	1982.43
199.11	1964.00
199.33	1871.84
199.55	1867.75
199.77	1884.13
199.99	1986.53
200.21	1933.28
200.43	1929.19
200.65	1818.60
200.87	1755.11
201.09	1914.85
201.31	1947.62
201.53	1873.89
201.75	1927.14
201.97	1931.23
202.19	1984.48
202.41	1951.71
202.63	2109.41
202.85	2013.15
203.07	1976.29
203.29	1902.56
203.51	1929.19
203.73	1961.95
203.95	2203.61
204.17	1992.67
204.39	2004.96
204.61	1949.67
204.83	1923.04
205.05	2015.20
205.27	2023.39
205.49	2144.22
205.71	1949.67
205.93	1851.36
206.15	1875.94
206.37	2015.20
206.59	1941.47
206.81	1880.04
207.03	1890.28
207.25	1943.52
207.47	2074.59
207.69	1906.66
207.91	2072.54
208.13	2033.63
208.34	1910.75
208.56	1855.46
208.78	2023.39
209.00	1935.33
209.22	1880.04
209.44	1869.80
209.66	1861.60
209.88	1953.76
210.10	1980.39
210.32	1857.51
210.54	2058.21
210.76	1892.32
210.98	1945.57
211.20	1863.65
211.42	1933.28
211.64	2050.02
211.86	2009.06
212.08	1992.67
212.30	1992.67
212.52	1964.00
212.74	1986.53
212.96	1984.48
213.17	1961.95
213.39	1955.81
213.61	2023.39
213.83	1912.80
214.05	1939.43
214.27	2064.35
214.49	1945.57
214.71	1902.56
214.93	1972.19
215.15	2013.15
215.37	2019.30
215.59	1884.13
215.81	1964.00
216.03	2066.40
216.24	1902.56
216.46	1947.62
216.68	1957.86
216.90	2004.96
217.12	1988.58
217.34	1968.10
217.56	1888.23
217.78	2039.78
218.00	2027.49
218.22	1959.91
218.44	2009.06
218.66	1986.53
218.87	2142.18
219.09	1990.63
219.31	2015.20
219.53	1984.48
219.75	1966.05
219.97	1904.61
220.19	1945.57
220.41	1959.91
220.63	2052.06
220.85	1949.67
221.06	1880.04
221.28	2023.39
221.50	2047.97
221.72	1961.95
221.94	1896.42
222.16	1953.76
222.38	2007.01
222.60	1990.63
222.82	1951.71
223.03	1992.67
223.25	1886.18
223.47	1972.19
223.69	2123.74
223.91	1986.53
224.13	1972.19
224.35	1859.56
224.57	2084.83
224.78	2072.54
225.00	1937.38
225.22	1929.19
225.44	1953.76
225.66	2078.69
225.88	1900.52
226.10	1976.29
226.32	1953.76
226.53	2043.87
226.75	1957.86
226.97	1978.34
227.19	1855.46
227.41	1949.67
227.63	1976.29
227.85	1828.84
228.06	1880.04
228.28	1974.24
228.50	2013.15
228.72	1882.08
228.94	1918.95
229.16	1845.22
229.37	1908.71
229.59	1927.14
229.81	2041.82
230.03	1941.47
230.25	1855.46
230.47	1880.04
230.69	1832.93
230.90	2039.78
231.12	1914.85
231.34	1964.00
231.56	1990.63
231.78	1888.23
232.00	1892.32
232.21	1894.37
232.43	1826.79
232.65	1869.80
232.87	1953.76
233.09	1851.36
233.30	1886.18
233.52	2039.78
233.74	1984.48
233.96	1941.47
234.18	2025.44
234.40	1945.57
234.61	2074.59
234.83	1849.32
235.05	1884.13
235.27	2136.03
235.49	2047.97
235.70	1849.32
235.92	2021.35
236.14	1968.10
236.36	2107.36
236.58	1888.23
236.79	2011.11
237.01	2013.15
237.23	1945.57
237.45	2086.88
237.67	1949.67
237.88	1918.95
238.10	2084.83
238.32	1869.80
238.54	1931.23
238.76	1941.47
238.97	1863.65
239.19	1959.91
239.41	1904.61
239.63	1998.82
239.85	1855.46
240.06	1980.39
240.28	1925.09
240.50	2076.64
240.72	1961.95
240.93	1923.04
241.15	1972.19
241.37	1986.53
241.59	2074.59
241.81	1947.62
242.02	1894.37
242.24	1974.24
242.46	2043.87
242.68	1937.38
242.89	1884.13
243.11	1988.58
243.33	1988.58
243.55	1949.67
243.76	1970.15
243.98	1871.84
244.20	1988.58
244.42	1884.13
244.64	2013.15
244.85	1888.23
245.07	1871.84
245.29	2009.06
245.51	1959.91
245.72	1951.71
245.94	2080.74
246.16	1947.62
246.38	2029.54
246.59	2002.91
246.81	1865.70
247.03	1957.86
247.24	1869.80
247.46	1923.04
247.68	1929.19
247.90	1945.57
248.11	2013.15
248.33	2062.30
248.55	1996.77
248.77	1937.38
248.98	1953.76
249.20	2127.84
249.42	1918.95
249.64	1863.65
249.85	1898.47
250.07	1918.95
250.29	2009.06
250.50	1953.76
250.72	1847.27
250.94	1980.39
251.16	2097.12
251.37	2035.68
251.59	1945.57
251.81	2002.91
252.02	2107.36
252.24	1931.23
252.46	2023.39
252.68	1920.99
252.89	1892.32
253.11	1822.69
253.33	2025.44
253.54	2050.02
253.76	1861.60
253.98	1894.37
254.20	1929.19
254.41	1798.12
254.63	1933.28
254.85	1857.51
255.06	1943.52
255.28	2058.21
255.50	1869.80
255.71	1890.28
255.93	1849.32
256.15	1869.80
256.36	1980.39
256.58	1886.18
256.80	1931.23
257.02	1957.86
257.23	1959.91
257.45	1951.71
257.67	2080.74
257.88	1863.65
258.10	2066.40
258.32	1939.43
258.53	1908.71
258.75	2021.35
258.97	1927.14
259.18	1906.66
259.40	1939.43
259.62	2080.74
259.83	2109.41
260.05	1941.47
260.27	2289.63
260.48	1992.67
260.70	1855.46
260.92	1871.84
261.13	1941.47
261.35	1939.43
261.57	2031.58
261.78	1867.75
262.00	1861.60
262.22	1986.53
262.43	1916.90
262.65	1947.62
262.86	2007.01
263.08	2140.13
263.30	1949.67
263.51	1806.31
263.73	1923.04
263.95	2050.02
264.16	1877.99
264.38	1941.47
264.60	1912.80
264.81	1880.04
265.03	2037.73
265.25	2009.06
265.46	1968.10
265.68	2041.82
265.89	1949.67
266.11	1818.60
266.33	1970.15
266.54	1972.19
266.76	1933.28
266.98	2062.30
267.19	2105.31
267.41	2111.46
267.62	1923.04
267.84	1839.08
268.06	1929.19
268.27	1988.58
268.49	2093.02
268.70	2007.01
268.92	1947.62
269.14	1824.74
269.35	1779.68
269.57	1867.75
269.79	1992.67
270.00	1935.33
270.22	2068.45
270.43	1916.90
270.65	1806.31
270.87	1947.62
271.08	1972.19
271.30	1925.09
271.51	1914.85
271.73	1998.82
271.95	2021.35
272.16	1972.19
272.38	1955.81
272.59	1964.00
272.81	2009.06
273.02	1937.38
273.24	1994.72
273.46	1894.37
273.67	1859.56
273.89	1943.52
274.10	1929.19
274.32	2041.82
274.54	1976.29
274.75	1927.14
274.97	1918.95
275.18	1910.75
275.40	1959.91
275.61	1984.48
275.83	2015.20
276.05	1855.46
276.26	1964.00
276.48	1990.63
276.69	1912.80
276.91	1824.74
277.12	2013.15
277.34	1916.90
277.55	2035.68
277.77	1935.33
277.99	1980.39
278.20	1933.28
278.42	1918.95
278.63	1886.18
278.85	1955.81
279.06	1945.57
279.28	1984.48
279.49	2095.07
279.71	2033.63
279.93	2013.15
280.14	1886.18
280.36	1886.18
280.57	2133.98
280.79	2037.73
281.00	1918.95
281.22	1884.13
281.43	2088.93
281.65	1769.44
281.86	1888.23
282.08	2004.96
282.29	2148.32
282.51	1935.33
282.73	1877.99
282.94	1832.93
283.16	2029.54
283.37	2125.79
283.59	1951.71
283.80	1966.05
284.02	1961.95
284.23	1949.67
284.45	1900.52
284.66	1871.84
284.88	1908.71
285.09	1966.05
285.31	2029.54
285.52	2033.63
285.74	1830.88
285.95	1990.63
286.17	2019.30
286.38	2025.44
286.60	1914.85
286.81	1941.47
287.03	1904.61
287.24	1937.38
287.46	2068.45
287.67	1937.38
287.89	2066.40
288.10	1941.47
288.32	1986.53
288.53	2047.97
288.75	2002.91
288.96	2009.06
289.18	1857.51
289.39	1918.95
289.61	1968.10
289.82	2166.75
290.04	2043.87
290.25	1847.27
290.47	1998.82
290.68	1982.43
290.90	2031.58
291.11	1800.16
291.33	2039.78
291.54	1857.51
291.76	1945.57
291.97	2017.25
292.18	2099.17
292.40	1906.66
292.61	1904.61
292.83	2136.03
293.04	2027.49
293.26	1978.34
293.47	1972.19
293.69	1939.43
293.90	1968.10
294.12	2027.49
294.33	1996.77
294.55	1964.00
294.76	2047.97
294.97	2097.12
295.19	2023.39
295.40	1941.47
295.62	1968.10
295.83	2045.92
296.05	1902.56
296.26	2000.87
296.48	1841.12
296.69	1902.56
296.90	1910.75
297.12	1986.53
297.33	2068.45
297.55	1974.24
297.76	2037.73
297.98	1982.43
298.19	1951.71
298.41	1976.29
298.62	1914.85
298.83	1998.82
299.05	1959.91
299.26	1914.85
299.48	1904.61
299.69	1968.10
299.90	1998.82
300.12	1925.09
300.33	2025.44
300.55	1961.95
300.76	1980.39
300.98	1867.75
301.19	2017.25
301.40	1920.99
301.62	1937.38
301.83	1939.43
302.05	1990.63
302.26	2066.40
302.47	2021.35
302.69	1861.60
302.90	1966.05
303.12	1834.98
303.33	2060.26
303.54	2050.02
303.76	2009.06
303.97	2029.54
304.19	2078.69
304.40	1875.94
304.61	2035.68
304.83	2103.26
305.04	1986.53
305.26	1966.05
305.47	1994.72
305.68	1918.95
305.90	1925.09
306.11	2058.21
306.33	1935.33
306.54	1947.62
306.75	1912.80
306.97	1931.23
307.18	1894.37
307.39	1912.80
307.61	1943.52
307.82	1951.71
308.04	1964.00
308.25	1871.84
308.46	1906.66
308.68	1957.86
308.89	1941.47
309.10	2021.35
309.32	2013.15
309.53	1978.34
309.74	1984.48
309.96	1966.05
310.17	2029.54
310.39	1945.57
310.60	1998.82
310.81	1980.39
311.03	1898.47
311.24	1953.76
311.45	1912.80
311.67	2052.06
311.88	1970.15
312.09	1890.28
312.31	1968.10
312.52	1888.23
312.73	1918.95
312.95	1929.19
313.16	1884.13
313.37	2050.02
313.59	1902.56
313.80	1961.95
314.01	2101.22
314.23	1914.85
314.44	1839.08
314.65	1882.08
314.87	1880.04
315.08	1910.75
315.29	1916.90
315.51	1875.94
315.72	1935.33
315.93	2064.35
316.15	1980.39
316.36	1941.47
316.57	2062.30
316.79	1964.00
317.00	1935.33
317.21	2037.73
317.43	1902.56
317.64	1898.47
317.85	1869.80
318.07	1941.47
318.28	1992.67
318.49	2076.64
318.70	2201.57
318.92	2146.27
319.13	2160.61
319.34	2131.94
319.56	2088.93
319.77	2099.17
319.98	2050.02
320.20	2068.45
320.41	2027.49
320.62	2013.15
320.83	1943.52
321.05	2168.80
321.26	1984.48
321.47	1994.72
321.69	2066.40
321.90	1902.56
322.11	1808.36
322.32	2000.87
322.54	2045.92
322.75	1888.23
322.96	2140.13
323.18	1892.32
323.39	1857.51
323.60	1914.85
323.81	2009.06
324.03	1898.47
324.24	1961.95
324.45	1945.57
324.66	1871.84
324.88	2062.30
325.09	2093.02
325.30	2031.58
325.52	2011.11
325.73	1990.63
325.94	1951.71
326.15	1910.75
326.37	1988.58
326.58	2125.79
326.79	2140.13
327.00	1923.04
327.22	1984.48
327.43	1947.62
327.64	1832.93
327.85	1996.77
328.07	2009.06
328.28	2064.35
328.49	1890.28
328.70	2037.73
328.92	1976.29
329.13	1873.89
329.34	2009.06
329.55	2050.02
329.76	2009.06
329.98	1869.80
330.19	2117.60
330.40	1980.39
330.61	1957.86
330.83	2078.69
331.04	1898.47
331.25	2043.87
331.46	1923.04
331.68	1871.84
331.89	1984.48
332.10	1955.81
332.31	1849.32
332.52	1978.34
332.74	2029.54
332.95	1914.85
333.16	1945.57
333.37	2029.54
333.58	1959.91
333.80	1912.80
334.01	1914.85
334.22	1910.75
334.43	1896.42
334.64	1859.56
334.86	1849.32
335.07	1824.74
335.28	2138.08
335.49	1873.89
335.70	1990.63
335.92	2095.07
336.13	2148.32
336.34	1974.24
336.55	1972.19
336.76	2043.87
336.98	1832.93
337.19	1900.52
337.40	2119.65
337.61	2181.09
337.82	1955.81
338.04	1996.77
338.25	1808.36
338.46	1914.85
338.67	1908.71
338.88	1900.52
339.09	1898.47
339.31	1986.53
339.52	1830.88
339.73	1826.79
339.94	1966.05
340.15	2050.02
340.36	1886.18
340.58	2070.50
340.79	1949.67
341.00	2015.20
341.21	1851.36
341.42	2146.27
341.63	1925.09
341.85	2066.40
342.06	1992.67
342.27	1871.84
342.48	2007.01
342.69	1832.93
342.90	1980.39
343.12	2125.79
343.33	1925.09
343.54	2062.30
343.75	2066.40
343.96	1929.19
344.17	1845.22
344.38	1896.42
344.60	1968.10
344.81	1906.66
345.02	1986.53
345.23	2013.15
345.44	2209.76
345.65	2025.44
345.86	1992.67
346.07	1992.67
346.29	1845.22
346.50	1945.57
346.71	1998.82
346.92	2103.26
347.13	2090.98
347.34	1974.24
347.55	1890.28
347.76	2025.44
347.98	1875.94
348.19	1961.95
348.40	2056.16
348.61	1939.43
348.82	2080.74
349.03	2031.58
349.24	1988.58
349.45	2156.51
349.66	1794.02
349.88	1968.10
350.09	1894.37
350.30	2095.07
350.51	2045.92
350.72	2009.06
350.93	2007.01
351.14	1957.86
351.35	2045.92
351.56	1976.29
351.77	1941.47
351.99	1976.29
352.20	2080.74
352.41	2041.82
352.62	1834.98
352.83	1949.67
353.04	1902.56
353.25	1886.18
353.46	1970.15
353.67	2054.11
353.88	1857.51
354.09	2004.96
354.30	1986.53
354.52	2013.15
354.73	1902.56
354.94	1951.71
355.15	1980.39
355.36	2074.59
355.57	1935.33
355.78	1982.43
355.99	1863.65
356.20	1935.33
356.41	2041.82
356.62	1945.57
356.83	2021.35
357.04	2074.59
357.25	1896.42
357.46	1961.95
357.68	1855.46
357.89	1914.85
358.10	1990.63
358.31	1943.52
358.52	1994.72
358.73	1886.18
358.94	1894.37
359.15	1959.91
359.36	1982.43
359.57	1943.52
359.78	1904.61
359.99	1986.53
360.20	1900.52
360.41	1959.91
360.62	2039.78
360.83	1970.15
361.04	1966.05
361.25	1959.91
361.46	2111.46
361.67	2078.69
361.88	1953.76
362.09	2035.68
362.30	1933.28
362.51	1947.62
362.72	1925.09
362.93	2068.45
363.14	1955.81
363.35	1865.70
363.56	1816.55
363.78	2039.78
363.99	2080.74
364.20	1964.00
364.41	1966.05
364.62	2101.22
364.83	1988.58
365.04	1974.24
365.25	1916.90
365.46	2181.09
365.67	1828.84
365.88	1916.90
366.09	1933.28
366.30	1892.32
366.51	1974.24
366.72	1830.88
366.93	1976.29
367.14	1986.53
367.35	2095.07
367.56	1953.76
367.77	2121.70
367.98	1882.08
368.18	1974.24
368.39	1957.86
368.60	1869.80
368.81	2019.30
369.02	1968.10
369.23	1916.90
369.44	1867.75
369.65	1949.67
369.86	2056.16
370.07	2025.44
370.28	1865.70
370.49	2080.74
370.70	2002.91
370.91	1861.60
371.12	1861.60
371.33	2027.49
371.54	1904.61
371.75	2000.87
371.96	1740.77
372.17	1964.00
372.38	1943.52
372.59	2017.25
372.80	1998.82
373.01	1931.23
373.22	2052.06
373.43	2000.87
373.64	1890.28
373.85	2090.98
374.06	2060.26
374.26	2017.25
374.47	2041.82
374.68	2031.58
374.89	1970.15
375.10	1980.39
375.31	1935.33
375.52	1990.63
375.73	1929.19
375.94	1873.89
376.15	2136.03
376.36	1882.08
376.57	1863.65
376.78	1931.23
376.99	1933.28
377.20	2127.84
377.40	2023.39
377.61	2072.54
377.82	1873.89
378.03	2029.54
378.24	2050.02
378.45	1925.09
378.66	2013.15
378.87	1798.12
379.08	1892.32
379.29	1929.19
379.50	2088.93
379.71	1968.10
379.91	2066.40
380.12	1882.08
380.33	1976.29
380.54	1955.81
380.75	2009.06
380.96	2007.01
381.17	1992.67
381.38	2027.49
381.59	1990.63
381.80	1996.77
382.00	2121.70
382.21	2017.25
382.42	2088.93
382.63	2234.33
382.84	1933.28
383.05	2064.35
383.26	2090.98
383.47	1898.47
383.68	1927.14
383.88	2082.78
384.09	2011.11
384.30	2113.50
384.51	2070.50
384.72	1955.81
384.93	1906.66
385.14	1968.10
385.35	2027.49
385.55	1814.50
385.76	2056.16
385.97	1912.80
386.18	1861.60
386.39	1900.52
386.60	1990.63
386.81	1906.66
387.02	1931.23
387.22	1882.08
387.43	2052.06
387.64	2007.01
387.85	2133.98
388.06	2334.68
388.27	3903.43
388.48	8750.97
388.68	12076.87
388.89	14303.01
389.10	15310.61
389.31	14122.79
389.52	11024.22
389.73	9668.46
389.93	8755.07
390.14	7862.15
390.35	7296.91
390.56	6350.75
390.77	5226.42
390.98	4104.13
391.18	3262.41
391.39	2666.46
391.60	2129.89
391.81	2119.65
392.02	2013.15
392.23	2209.76
392.43	2045.92
392.64	2082.78
392.85	1980.39
393.06	2058.21
393.27	1910.75
393.47	1894.37
393.68	1937.38
393.89	1964.00
394.10	1982.43
394.31	1886.18
394.52	1875.94
394.72	1931.23
394.93	2113.50
395.14	1863.65
395.35	2009.06
395.56	1953.76
395.76	1896.42
395.97	2125.79
396.18	2109.41
396.39	2133.98
396.60	2412.51
396.80	2211.81
397.01	2195.42
397.22	2076.64
397.43	2107.36
397.64	1964.00
397.84	2078.69
398.05	2150.37
398.26	1959.91
398.47	1986.53
398.67	2050.02
398.88	2052.06
399.09	1966.05
399.30	1910.75
399.51	1990.63
399.71	1843.17
399.92	1986.53
400.13	2004.96
400.34	1935.33
400.54	1939.43
400.75	2056.16
400.96	2000.87
401.17	2066.40
401.37	2017.25
401.58	1900.52
401.79	1910.75
402.00	2121.70
402.21	2332.64
402.41	2338.78
402.62	2469.85
402.83	2475.99
403.04	2408.41
403.24	2416.60
403.45	2138.08
403.66	2191.33
403.87	2236.38
404.07	2246.62
404.28	2197.47
404.49	2125.79
404.70	2088.93
404.90	2072.54
405.11	1953.76
405.32	2027.49
405.52	1888.23
405.73	1980.39
405.94	1949.67
406.15	1933.28
406.35	2041.82
406.56	2056.16
406.77	2007.01
406.98	1982.43
407.18	1877.99
407.39	2115.55
407.60	1908.71
407.80	2011.11
408.01	1923.04
408.22	1976.29
408.43	1820.64
408.63	1916.90
408.84	1966.05
409.05	2076.64
409.25	1906.66
409.46	1974.24
409.67	1933.28
409.88	1892.32
410.08	1990.63
410.29	1949.67
410.50	2043.87
410.70	1945.57
410.91	1787.88
411.12	1996.77
411.32	1988.58
411.53	1980.39
411.74	2066.40
411.95	2031.58
412.15	2017.25
412.36	2183.13
412.57	2103.26
412.77	2047.97
412.98	1998.82
413.19	1996.77
413.39	2056.16
413.60	2021.35
413.81	2035.68
414.01	1943.52
414.22	2162.66
414.43	1992.67
414.63	1984.48
414.84	2025.44
415.05	1902.56
415.25	1886.18
415.46	1980.39
415.67	1931.23
415.87	2004.96
416.08	1953.76
416.29	1953.76
416.49	2035.68
416.70	1918.95
416.91	1986.53
417.11	1945.57
417.32	2113.50
417.53	2004.96
417.73	2033.63
417.94	1916.90
418.15	1986.53
418.35	2009.06
418.56	1951.71
418.77	2101.22
418.97	1984.48
419.18	1951.71
419.38	1816.55
419.59	2000.87
419.80	2000.87
420.00	1982.43
420.21	1953.76
420.42	2031.58
420.62	1970.15
420.83	1908.71
421.04	1976.29
421.24	1947.62
421.45	1961.95
421.65	2033.63
421.86	1968.10
422.07	2013.15
422.27	1949.67
422.48	1996.77
422.69	1855.46
422.89	1996.77
423.10	1849.32
423.30	1918.95
423.51	2004.96
423.72	2039.78
423.92	1953.76
424.13	1841.12
424.33	1953.76
424.54	2023.39
424.75	1996.77
424.95	2099.17
425.16	2017.25
425.36	1865.70
425.57	2027.49
425.78	2039.78
425.98	2029.54
426.19	1923.04
426.39	1828.84
426.60	1972.19
426.81	2115.55
427.01	1957.86
427.22	1814.50
427.42	1863.65
427.63	1886.18
427.83	2027.49
428.04	2099.17
428.25	2125.79
428.45	2009.06
428.66	2062.30
428.86	2002.91
429.07	1943.52
429.28	2078.69
429.48	1933.28
429.69	1898.47
429.89	1984.48
430.10	1810.40
430.30	1976.29
430.51	2041.82
430.71	1984.48
430.92	1951.71
431.13	1892.32
431.33	2019.30
431.54	1923.04
431.74	2066.40
431.95	2146.27
432.15	1892.32
432.36	1923.04
432.56	2029.54
432.77	2105.31
432.98	2097.12
433.18	1984.48
433.39	1972.19
433.59	1906.66
433.80	2154.46
434.00	2146.27
434.21	1939.43
434.41	1947.62
434.62	2172.89
434.82	1880.04
435.03	1951.71
435.23	1996.77
435.44	1912.80
435.64	1941.47
435.85	2017.25
436.06	1974.24
436.26	2000.87
436.47	1900.52
436.67	2000.87
436.88	1894.37
437.08	2084.83
437.29	2084.83
437.49	2002.91
437.70	1990.63
437.90	1953.76
438.11	2103.26
438.31	1939.43
438.52	2090.98
438.72	2209.76
438.93	2283.49
439.13	2043.87
439.34	2133.98
439.54	2017.25
439.75	2080.74
439.95	2144.22
440.16	1957.86
440.36	2004.96
440.57	1920.99
440.77	2017.25
440.98	1918.95
441.18	2037.73
441.39	1966.05
441.59	1904.61
441.80	2170.85
442.00	1978.34
442.21	1988.58
442.41	1976.29
442.62	2109.41
442.82	1943.52
443.02	1953.76
443.23	1961.95
443.43	1966.05
443.64	2017.25
443.84	1890.28
444.05	2093.02
444.25	1968.10
444.46	1990.63
444.66	1953.76
444.87	2115.55
445.07	1853.41
445.28	1994.72
445.48	2123.74
445.69	2097.12
445.89	2162.66
446.09	1935.33
446.30	2260.96
446.50	2684.89
446.71	4259.78
446.91	5474.22
447.12	6203.30
447.32	6463.39
447.53	6070.18
447.73	4884.41
447.93	4321.21
448.14	3893.19
448.34	3841.99
448.55	3375.05
448.75	3370.96
448.96	3215.31
449.16	2938.84
449.36	2594.78
449.57	2392.03
449.77	2158.56
449.98	2043.87
450.18	2019.30
450.39	2000.87
450.59	1966.05
450.79	1970.15
451.00	1974.24
451.20	2062.30
451.41	2023.39
451.61	2080.74
451.81	1966.05
452.02	1943.52
452.22	1955.81
452.43	1935.33
452.63	1943.52
452.84	2017.25
453.04	1914.85
453.24	1959.91
453.45	1859.56
453.65	1939.43
453.86	1976.29
454.06	2064.35
454.26	2033.63
454.47	1906.66
454.67	2029.54
454.87	1984.48
455.08	1941.47
455.28	2043.87
455.49	2002.91
455.69	1949.67
455.89	2133.98
456.10	2095.07
456.30	1959.91
456.51	2045.92
456.71	1966.05
456.91	2041.82
457.12	1978.34
457.32	1970.15
457.52	1984.48
457.73	2041.82
457.93	2068.45
458.14	1935.33
458.34	1851.36
458.54	1953.76
458.75	1914.85
458.95	2064.35
459.15	1974.24
459.36	2021.35
459.56	2082.78
459.76	2123.74
459.97	1994.72
460.17	2066.40
460.37	2041.82
460.58	2047.97
460.78	2062.30
460.99	1912.80
461.19	2033.63
461.39	1980.39
461.60	1945.57
461.80	2029.54
462.00	1914.85
462.21	1943.52
462.41	1941.47
462.61	1884.13
462.82	1863.65
463.02	2017.25
463.22	2019.30
463.43	2064.35
463.63	2002.91
463.83	2066.40
464.04	2011.11
464.24	1951.71
464.44	1925.09
464.64	2007.01
464.85	1970.15
465.05	2113.50
465.25	1933.28
465.46	1931.23
465.66	2099.17
465.86	1957.86
466.07	1939.43
466.27	1970.15
466.47	1900.52
466.68	1880.04
466.88	2099.17
467.08	2066.40
467.29	1986.53
467.49	1988.58
467.69	1912.80
467.89	2002.91
468.10	1935.33
468.30	1998.82
468.50	2086.88
468.71	2090.98
468.91	1920.99
469.11	2136.03
469.31	1961.95
469.52	1992.67
469.72	2027.49
469.92	2189.28
470.13	1980.39
470.33	2056.16
470.53	2117.60
470.73	2408.41
470.94	2877.40
471.14	3049.43
471.34	3375.05
471.54	3301.33
471.75	2990.03
471.95	2719.70
472.15	2564.06
472.36	2588.63
472.56	2541.53
472.76	2394.08
472.96	2394.08
473.17	2291.68
473.37	2256.86
473.57	2123.74
473.77	2045.92
473.98	1947.62
474.18	1900.52
474.38	2183.13
474.58	2002.91
474.79	1998.82
474.99	2050.02
475.19	2086.88
475.39	1916.90
475.60	2037.73
475.80	2017.25
476.00	1998.82
476.20	1920.99
476.41	2041.82
476.61	2015.20
476.81	2070.50
477.01	1974.24
477.21	2176.99
477.42	2131.94
477.62	1937.38
477.82	2043.87
478.02	1978.34
478.23	1929.19
478.43	1853.41
478.63	1884.13
478.83	1986.53
479.03	1880.04
479.24	2023.39
479.44	2146.27
479.64	1943.52
479.84	1886.18
480.04	1953.76
480.25	2097.12
480.45	1949.67
480.65	1953.76
480.85	2115.55
481.06	1871.84
481.26	1978.34
481.46	1949.67
481.66	2017.25
481.86	1941.47
482.06	2095.07
482.27	1890.28
482.47	1978.34
482.67	1992.67
482.87	1894.37
483.07	2039.78
483.28	1935.33
483.48	1871.84
483.68	1918.95
483.88	1939.43
484.08	1865.70
484.29	1875.94
484.49	1996.77
484.69	1935.33
484.89	2056.16
485.09	2050.02
485.29	1984.48
485.50	1978.34
485.70	1951.71
485.90	2035.68
486.10	2011.11
486.30	1976.29
486.50	2017.25
486.71	2064.35
486.91	2097.12
487.11	2025.44
487.31	1906.66
487.51	1947.62
487.71	1908.71
487.91	1923.04
488.12	1886.18
488.32	1806.31
488.52	1908.71
488.72	1832.93
488.92	1968.10
489.12	2011.11
489.32	2039.78
489.53	2000.87
489.73	1839.08
489.93	2088.93
490.13	1882.08
490.33	1777.64
490.53	1988.58
490.73	2054.11
490.94	1839.08
491.14	2035.68
491.34	2076.64
491.54	2267.10
491.74	3004.37
491.94	3506.12
492.14	3833.80
492.34	3925.96
492.54	3571.66
492.75	2953.17
492.95	2889.68
493.15	2674.65
493.35	2658.26
493.55	2521.05
493.75	2439.13
493.95	2521.05
494.15	2389.98
494.35	2181.09
494.56	2050.02
494.76	2035.68
494.96	2029.54
495.16	2009.06
495.36	1935.33
495.56	1984.48
495.76	2002.91
495.96	1992.67
496.16	1951.71
496.36	2072.54
496.56	1920.99
496.77	1964.00
496.97	2002.91
497.17	2082.78
497.37	1945.57
497.57	2060.26
497.77	1939.43
497.97	1837.03
498.17	2088.93
498.37	1953.76
498.57	2023.39
498.77	1955.81
498.97	2017.25
499.17	2162.66
499.38	1943.52
499.58	1990.63
499.78	2058.21
499.98	2156.51
500.18	2000.87
500.38	1931.23
500.58	2174.94
500.78	2641.88
500.98	4736.95
501.18	6959.00
501.38	8763.26
501.58	9512.81
501.78	9410.42
501.98	7563.15
502.18	6268.83
502.38	5369.77
502.58	4892.60
502.78	4532.15
502.98	4319.17
503.18	4059.07
503.38	3794.89
503.59	3219.41
503.79	3047.38
503.99	2893.78
504.19	2553.82
504.39	2607.06
504.59	2670.55
504.79	2680.79
504.99	2625.50
505.19	2308.06
505.39	2258.91
505.59	2215.90
505.79	2306.01
505.99	2181.09
506.19	2041.82
506.39	2226.14
506.59	2043.87
506.79	1974.24
506.99	2170.85
507.19	2033.63
507.39	2002.91
507.59	1974.24
507.79	1875.94
507.99	1882.08
508.19	1992.67
508.39	1955.81
508.59	1961.95
508.79	2088.93
508.99	2154.46
509.19	1904.61
509.39	1978.34
509.59	1894.37
509.79	1986.53
509.99	2041.82
510.19	2033.63
510.39	1970.15
510.59	2013.15
510.79	1943.52
510.99	1982.43
511.19	2021.35
511.39	2070.50
511.59	2062.30
511.79	2047.97
511.99	1990.63
512.19	2086.88
512.38	2019.30
512.58	1918.95
512.78	1925.09
512.98	2111.46
513.18	2103.26
513.38	1812.45
513.58	2019.30
513.78	1931.23
513.98	1953.76
514.18	1984.48
514.38	2027.49
514.58	1972.19
514.78	1904.61
514.98	1920.99
515.18	1894.37
515.38	1900.52
515.58	2084.83
515.78	1955.81
515.98	1955.81
516.18	2002.91
516.38	1929.19
516.57	1931.23
516.77	2033.63
516.97	2078.69
517.17	1888.23
517.37	1869.80
517.57	2084.83
517.77	1982.43
517.97	1923.04
518.17	2082.78
518.37	1976.29
518.57	1966.05
518.77	1959.91
518.97	1916.90
519.16	2011.11
519.36	2117.60
519.56	1941.47
519.76	1951.71
519.96	1945.57
520.16	2140.13
520.36	1925.09
520.56	2144.22
520.76	1951.71
520.96	1906.66
521.16	2052.06
521.35	2148.32
521.55	2103.26
521.75	1943.52
521.95	1953.76
522.15	1976.29
522.35	1857.51
522.55	1939.43
522.75	2013.15
522.95	1964.00
523.14	1906.66
523.34	2043.87
523.54	1892.32
523.74	2004.96
523.94	1923.04
524.14	1888.23
524.34	2009.06
524.54	2047.97
524.73	1957.86
524.93	2041.82
525.13	2054.11
525.33	1888.23
525.53	2291.68
525.73	1959.91
525.93	1951.71
526.13	1941.47
526.32	1984.48
526.52	2086.88
526.72	2017.25
526.92	1957.86
527.12	1968.10
527.32	1820.64
527.52	1984.48
527.71	2037.73
527.91	1937.38
528.11	2007.01
528.31	1984.48
528.51	1900.52
528.71	2002.91
528.90	2009.06
529.10	2105.31
529.30	2052.06
529.50	1843.17
529.70	1935.33
529.90	1972.19
530.09	1955.81
530.29	1902.56
530.49	1943.52
530.69	2191.33
530.89	1972.19
531.09	2064.35
531.28	1976.29
531.48	1988.58
531.68	1986.53
531.88	2025.44
532.08	2015.20
532.28	2025.44
532.47	2072.54
532.67	2074.59
532.87	2047.97
533.07	1984.48
533.27	2004.96
533.46	2052.06
533.66	2076.64
533.86	1968.10
534.06	2011.11
534.26	1998.82
534.45	1955.81
534.65	2082.78
534.85	1998.82
535.05	1916.90
535.25	2000.87
535.44	1873.89
535.64	2101.22
535.84	1918.95
536.04	1957.86
536.24	1912.80
536.43	1939.43
536.63	1996.77
536.83	2004.96
537.03	2023.39
537.22	1855.46
537.42	1927.14
537.62	1933.28
537.82	1867.75
538.02	2099.17
538.21	2101.22
538.41	2160.61
538.61	1957.86
538.81	1978.34
539.00	2103.26
539.20	1826.79
539.40	1896.42
539.60	2009.06
539.79	1908.71
539.99	1964.00
540.19	1955.81
540.39	1992.67
540.58	2058.21
540.78	2152.42
540.98	1957.86
541.18	1988.58
541.37	2015.20
541.57	1980.39
541.77	1986.53
541.97	1904.61
542.16	1920.99
542.36	2011.11
542.56	1888.23
542.76	2082.78
542.95	2050.02
543.15	2039.78
543.35	2056.16
543.54	1939.43
543.74	1982.43
543.94	2047.97
544.14	1964.00
544.33	1970.15
544.53	2039.78
544.73	2000.87
544.93	1884.13
545.12	1955.81
545.32	1943.52
545.52	1955.81
545.71	1918.95
545.91	1972.19
546.11	1918.95
546.30	1890.28
546.50	2007.01
546.70	1996.77
546.90	1957.86
547.09	1839.08
547.29	2015.20
547.49	2015.20
547.68	1996.77
547.88	1984.48
548.08	1980.39
548.27	2482.14
548.47	1898.47
548.67	1875.94
548.87	2000.87
549.06	1843.17
549.26	2058.21
549.46	2072.54
549.65	1945.57
549.85	1988.58
550.05	2007.01
550.24	1900.52
550.44	2064.35
550.64	1916.90
550.83	2037.73
551.03	2076.64
551.23	2052.06
551.42	2023.39
551.62	1978.34
551.82	2019.30
552.01	2035.68
552.21	2011.11
552.41	1990.63
552.60	2072.54
552.80	2013.15
553.00	1937.38
553.19	1941.47
553.39	2107.36
553.59	1970.15
553.78	2078.69
553.98	2031.58
554.17	1927.14
554.37	2086.88
554.57	2035.68
554.76	1865.70
554.96	1918.95
555.16	2078.69
555.35	1916.90
555.55	2072.54
555.75	1966.05
555.94	2078.69
556.14	1931.23
556.33	2060.26
556.53	1935.33
556.73	1984.48
556.92	1966.05
557.12	2133.98
557.32	2103.26
557.51	1998.82
557.71	1996.77
557.90	2050.02
558.10	2258.91
558.30	1943.52
558.49	1978.34
558.69	1951.71
558.88	2043.87
559.08	1968.10
559.28	2056.16
559.47	1964.00
559.67	2009.06
559.86	2189.28
560.06	2058.21
560.26	2007.01
560.45	2076.64
560.65	1966.05
560.84	2129.89
561.04	1951.71
561.24	2009.06
561.43	1877.99
561.63	2140.13
561.82	2017.25
562.02	2054.11
562.22	1849.32
562.41	1908.71
562.61	1898.47
562.80	1914.85
563.00	2246.62
563.19	1972.19
563.39	2021.35
563.59	2029.54
563.78	1908.71
563.98	1855.46
564.17	1892.32
564.37	1849.32
564.56	1968.10
564.76	1796.07
564.96	2113.50
565.15	2027.49
565.35	2164.70
565.54	1945.57
565.74	2099.17
565.93	1925.09
566.13	2023.39
566.32	2050.02
566.52	2052.06
566.71	2039.78
566.91	2154.46
567.11	1890.28
567.30	1943.52
567.50	1945.57
567.69	1970.15
567.89	1951.71
568.08	1970.15
568.28	2025.44
568.47	1871.84
568.67	1978.34
568.86	1941.47
569.06	2070.50
569.25	2045.92
569.45	1882.08
569.64	1923.04
569.84	1990.63
570.04	2041.82
570.23	1941.47
570.43	1920.99
570.62	1908.71
570.82	2189.28
571.01	1908.71
571.21	1941.47
571.40	1861.60
571.60	2082.78
571.79	2017.25
571.99	1966.05
572.18	1888.23
572.38	2058.21
572.57	1957.86
572.77	2058.21
572.96	2232.29
573.16	1953.76
573.35	1998.82
573.55	2146.27
573.74	2082.78
573.94	1986.53
574.13	1970.15
574.33	2002.91
574.52	2138.08
574.71	1990.63
574.91	2025.44
575.10	1964.00
575.30	2000.87
575.49	1933.28
575.69	1945.57
575.88	2023.39
576.08	2000.87
576.27	2115.55
576.47	2095.07
576.66	2187.23
576.86	2136.03
577.05	2019.30
577.25	2021.35
577.44	2248.67
577.64	1918.95
577.83	2138.08
578.02	1947.62
578.22	2076.64
578.41	2084.83
578.61	2021.35
578.80	1865.70
579.00	1998.82
579.19	2007.01
579.39	2045.92
579.58	2080.74
579.77	2000.87
579.97	2123.74
580.16	2095.07
580.36	2123.74
580.55	2082.78
580.75	2076.64
580.94	1994.72
581.13	2138.08
581.33	2140.13
581.52	1996.77
581.72	2236.38
581.91	2136.03
582.11	1974.24
582.30	2082.78
582.49	2009.06
582.69	2121.70
582.88	2007.01
583.08	2050.02
583.27	2074.59
583.47	2004.96
583.66	1949.67
583.85	1974.24
584.05	1959.91
584.24	2054.11
584.44	2060.26
584.63	2111.46
584.82	2187.23
585.02	2162.66
585.21	2154.46
585.41	2201.57
585.60	2166.75
585.79	2258.91
585.99	2222.05
586.18	2213.85
586.37	2588.63
586.57	3930.05
586.76	11849.55
586.96	30735.92
587.15	45438.28
587.34	54678.72
587.54	60669.03
587.73	56693.92
587.93	40371.61
588.12	30121.52
588.31	24194.70
588.51	20637.38
588.70	18927.33
588.89	17565.43
589.09	15320.85
589.28	13391.67
589.47	10880.86
589.67	8646.52
589.86	6758.30
590.06	4880.31
590.25	3968.96
590.44	3127.25
590.64	2617.30
590.83	2359.26
591.02	2297.82
591.22	2160.61
591.41	2168.80
591.60	2015.20
591.80	2312.16
591.99	2011.11
592.18	1966.05
592.38	2107.36
592.57	1996.77
592.76	2064.35
592.96	2000.87
593.15	1986.53
593.34	2029.54
593.54	1968.10
593.73	2025.44
593.92	2105.31
594.12	2101.22
594.31	2043.87
594.50	2113.50
594.70	2095.07
594.89	2228.19
595.08	2000.87
595.28	2068.45
595.47	2244.57
595.66	2133.98
595.86	2013.15
596.05	1918.95
596.24	2029.54
596.43	2207.71
596.63	2183.13
596.82	1918.95
597.01	2039.78
597.21	2260.96
597.40	2045.92
597.59	1939.43
597.79	2033.63
597.98	2066.40
598.17	2037.73
598.36	2023.39
598.56	2045.92
598.75	2015.20
598.94	1970.15
599.14	2050.02
599.33	1961.95
599.52	2019.30
599.71	1976.29
599.91	2070.50
600.10	2074.59
600.29	2062.30
600.48	2031.58
600.68	2045.92
600.87	2037.73
601.06	1910.75
601.26	1996.77
601.45	1980.39
601.64	1968.10
601.83	2095.07
602.03	1933.28
602.22	1902.56
602.41	1992.67
602.60	2158.56
602.80	2088.93
602.99	2107.36
603.18	1970.15
603.37	2082.78
603.57	1980.39
603.76	2101.22
603.95	2074.59
604.14	1988.58
604.34	1931.23
604.53	1947.62
604.72	2002.91
604.91	2056.16
605.10	2111.46
605.30	1834.98
605.49	2156.51
605.68	1984.48
605.87	2013.15
606.07	1943.52
606.26	2037.73
606.45	2031.58
606.64	2060.26
606.84	2043.87
607.03	2009.06
607.22	2103.26
607.41	1931.23
607.60	1998.82
607.80	2131.94
607.99	1916.90
608.18	2064.35
608.37	2047.97
608.56	1957.86
608.76	2148.32
608.95	2146.27
609.14	2107.36
609.33	2097.12
609.52	2181.09
609.72	2150.37
609.91	2111.46
610.10	2101.22
610.29	2084.83
610.48	2072.54
610.68	1984.48
610.87	1990.63
611.06	2142.18
611.25	1978.34
611.44	2019.30
611.63	1923.04
611.83	2074.59
612.02	1873.89
612.21	2054.11
612.40	1834.98
612.59	1877.99
612.79	1898.47
612.98	1986.53
613.17	2154.46
613.36	2023.39
613.55	2154.46
613.74	2088.93
613.93	2158.56
614.13	2140.13
614.32	2258.91
614.51	2242.53
614.70	2062.30
614.89	2060.26
615.08	2097.12
615.28	2432.99
615.47	2043.87
615.66	2146.27
615.85	2066.40
616.04	2140.13
616.23	2119.65
616.42	2037.73
616.62	2113.50
616.81	2027.49
617.00	1925.09
617.19	2023.39
617.38	1920.99
617.57	2029.54
617.76	2033.63
617.95	2107.36
618.15	1957.86
618.34	2131.94
618.53	1953.76
618.72	2007.01
618.91	2070.50
619.10	2068.45
619.29	1974.24
619.48	1961.95
619.68	1804.26
619.87	1951.71
620.06	1970.15
620.25	2099.17
620.44	1933.28
620.63	1904.61
620.82	2066.40
621.01	2068.45
621.20	2064.35
621.39	2043.87
621.59	2015.20
621.78	2031.58
621.97	2015.20
622.16	2041.82
622.35	1888.23
622.54	2095.07
622.73	2101.22
622.92	1882.08
623.11	2093.02
623.30	1892.32
623.49	2068.45
623.68	2021.35
623.88	2035.68
624.07	1943.52
624.26	1908.71
624.45	1980.39
624.64	1923.04
624.83	2002.91
625.02	2041.82
625.21	1982.43
625.40	1966.05
625.59	2064.35
625.78	1961.95
625.97	2123.74
626.16	2119.65
626.35	2090.98
626.54	2115.55
626.74	2162.66
626.93	2052.06
627.12	1996.77
627.31	2060.26
627.50	2007.01
627.69	2021.35
627.88	1908.71
628.07	1964.00
628.26	1951.71
628.45	1953.76
628.64	1925.09
628.83	1949.67
629.02	1863.65
629.21	2029.54
629.40	2027.49
629.59	1910.75
629.78	1961.95
629.97	2054.11
630.16	2009.06
630.35	1984.48
630.54	2013.15
630.73	1923.04
630.92	1988.58
631.11	1964.00
631.30	1992.67
631.49	1976.29
631.68	1929.19
631.87	1990.63
632.06	1894.37
632.25	2150.37
632.44	2090.98
632.63	2072.54
632.82	2019.30
633.01	2019.30
633.20	2107.36
633.39	2070.50
633.58	1964.00
633.77	2097.12
633.96	2074.59
634.15	1966.05
634.34	2078.69
634.53	2068.45
634.72	1957.86
634.91	1943.52
635.10	1970.15
635.29	2101.22
635.48	1984.48
635.67	1908.71
635.86	1847.27
636.05	2080.74
636.24	1986.53
636.43	2002.91
636.62	2009.06
636.81	1824.74
637.00	1953.76
637.19	2031.58
637.38	1974.24
637.57	1933.28
637.76	1988.58
637.95	2074.59
638.14	2025.44
638.33	2152.42
638.52	2123.74
638.71	1939.43
638.89	1986.53
639.08	2125.79
639.27	2191.33
639.46	2240.48
639.65	2582.49
639.84	2678.74
640.03	2748.37
640.22	2734.04
640.41	2750.42
640.60	2377.69
640.79	2285.53
640.98	2179.04
641.17	2201.57
641.36	2189.28
641.55	2195.42
641.74	2066.40
641.92	2041.82
642.11	1976.29
642.30	2013.15
642.49	1945.57
642.68	1920.99
642.87	1986.53
643.06	1992.67
643.25	1925.09
643.44	1912.80
643.63	1943.52
643.82	2002.91
644.00	1904.61
644.19	2033.63
644.38	1925.09
644.57	1988.58
644.76	2033.63
644.95	2021.35
645.14	1957.86
645.33	1927.14
645.52	1982.43
645.71	1943.52
645.89	1925.09
646.08	1982.43
646.27	2007.01
646.46	2090.98
646.65	1853.41
646.84	1961.95
647.03	1855.46
647.22	2066.40
647.40	1957.86
647.59	1955.81
647.78	1832.93
647.97	1863.65
648.16	1908.71
648.35	2037.73
648.54	2043.87
648.73	1877.99
648.91	2029.54
649.10	1968.10
649.29	1908.71
649.48	1968.10
649.67	2007.01
649.86	1947.62
650.05	2068.45
650.23	2250.72
650.42	2129.89
650.61	2240.48
650.80	2252.77
650.99	2287.58
651.18	2133.98
651.36	2121.70
651.55	1992.67
651.74	2146.27
651.93	1972.19
652.12	2019.30
652.31	1898.47
652.49	1937.38
652.68	1961.95
652.87	2062.30
653.06	2056.16
653.25	2123.74
653.44	2011.11
653.62	2095.07
653.81	1980.39
654.00	1976.29
654.19	1972.19
654.38	2158.56
654.56	2015.20
654.75	1920.99
654.94	2027.49
655.13	2052.06
655.32	1931.23
655.51	2080.74
655.69	1966.05
655.88	2009.06
656.07	1902.56
656.26	2025.44
656.45	1873.89
656.63	1994.72
656.82	2015.20
657.01	2045.92
657.20	1961.95
657.38	2043.87
657.57	1920.99
657.76	1808.36
657.95	2047.97
658.14	1902.56
658.32	1931.23
658.51	1892.32
658.70	1984.48
658.89	1994.72
659.08	1978.34
659.26	2191.33
659.45	1992.67
659.64	2043.87
659.83	1966.05
660.01	2312.16
660.20	2004.96
660.39	2160.61
660.58	1886.18
660.76	2060.26
660.95	1943.52
661.14	1976.29
661.33	1947.62
661.51	1925.09
661.70	1894.37
661.89	1984.48
662.08	1943.52
662.26	1908.71
662.45	1849.32
662.64	2154.46
662.83	2052.06
663.01	1888.23
663.20	2021.35
663.39	2017.25
663.58	1828.84
663.76	1996.77
663.95	2009.06
664.14	2019.30
664.32	1945.57
664.51	1947.62
664.70	1851.36
664.89	2054.11
665.07	1859.56
665.26	2011.11
665.45	1894.37
665.64	2082.78
665.82	1941.47
666.01	2017.25
666.20	1949.67
666.38	2066.40
666.57	2074.59
666.76	2834.39
666.95	6813.59
667.13	15269.66
667.32	20946.62
667.51	24991.36
667.69	27278.94
667.88	26070.64
668.07	18693.86
668.25	14583.59
668.44	12011.34
668.63	10135.40
668.81	8900.47
669.00	8023.94
669.19	6954.90
669.38	6170.53
669.56	5130.16
669.75	4388.80
669.94	3684.30
670.12	3119.06
670.31	2541.53
670.50	2422.75
670.68	2328.54
670.87	2185.18
671.06	2068.45
671.24	2090.98
671.43	2117.60
671.62	2111.46
671.80	2031.58
671.99	2054.11
672.18	2068.45
672.36	2011.11
672.55	2013.15
672.74	1955.81
672.92	2074.59
673.11	2056.16
673.29	1910.75
673.48	2097.12
673.67	1935.33
673.85	2025.44
674.04	1990.63
674.23	1923.04
674.41	2060.26
674.60	1853.41
674.79	1794.02
674.97	1941.47
675.16	2017.25
675.34	2035.68
675.53	1869.80
675.72	1949.67
675.90	2142.18
676.09	1892.32
676.28	2009.06
676.46	1845.22
676.65	2095.07
676.83	1857.51
677.02	1984.48
677.21	1904.61
677.39	1892.32
677.58	1873.89
677.77	1918.95
677.95	1937.38
678.14	1939.43
678.32	1935.33
678.51	1951.71
678.70	2197.47
678.88	1920.99
679.07	2000.87
679.25	1937.38
679.44	1931.23
679.63	1920.99
679.81	1964.00
680.00	2043.87
680.18	1961.95
680.37	2037.73
680.55	1957.86
680.74	1880.04
680.93	1832.93
681.11	1996.77
681.30	2002.91
681.48	1990.63
681.67	1982.43
681.85	2015.20
682.04	1923.04
682.23	2029.54
682.41	2041.82
682.60	1966.05
682.78	1953.76
682.97	1820.64
683.15	1986.53
683.34	1996.77
683.53	2131.94
683.71	1884.13
683.90	2037.73
684.08	2076.64
684.27	1925.09
684.45	1937.38
684.64	2070.50
684.82	1941.47
685.01	1933.28
685.19	1898.47
685.38	2013.15
685.57	2062.30
685.75	1916.90
685.94	1951.71
686.12	1857.51
686.31	1898.47
686.49	2062.30
686.68	1900.52
686.86	2033.63
687.05	1896.42
687.23	2047.97
687.42	1925.09
687.60	1894.37
687.79	2002.91
687.97	2052.06
688.16	2031.58
688.34	1968.10
688.53	1791.97
688.71	1961.95
688.90	2023.39
689.08	1970.15
689.27	1794.02
689.45	1996.77
689.64	1925.09
689.82	2019.30
690.01	1904.61
690.19	1966.05
690.38	1959.91
690.56	1978.34
690.75	1865.70
690.93	1957.86
691.12	1851.36
691.30	1992.67
691.49	1933.28
691.67	1923.04
691.86	2156.51
692.04	1894.37
692.23	1974.24
692.41	2025.44
692.60	2308.06
692.78	2107.36
692.97	2009.06
693.15	2133.98
693.34	2199.52
693.52	2076.64
693.71	2004.96
693.89	1947.62
694.08	1837.03
694.26	2095.07
694.44	2021.35
694.63	2099.17
694.81	1912.80
695.00	1916.90
695.18	2011.11
695.37	2131.94
695.55	1951.71
695.74	1955.81
695.92	1927.14
696.10	2041.82
696.29	1871.84
696.47	1904.61
696.66	1949.67
696.84	1939.43
697.03	1927.14
697.21	2152.42
697.40	2772.95
697.58	2072.54
697.76	1959.91
697.95	1875.94
698.13	1859.56
698.32	1943.52
698.50	1966.05
698.68	1992.67
698.87	1961.95
699.05	2136.03
699.24	1916.90
699.42	1951.71
699.61	2000.87
699.79	1939.43
699.97	1951.71
700.16	1851.36
700.34	1953.76
700.53	1923.04
700.71	2062.30
700.89	2041.82
701.08	2007.01
701.26	1902.56
701.45	2521.05
701.63	1892.32
701.81	1947.62
702.00	1906.66
702.18	1943.52
702.37	1994.72
702.55	2162.66
702.73	2164.70
702.92	2129.89
703.10	2275.29
703.28	2136.03
703.47	2043.87
703.65	2209.76
703.84	2129.89
704.02	1988.58
704.20	2250.72
704.39	1978.34
704.57	1986.53
704.75	2115.55
704.94	2078.69
705.12	2101.22
705.30	2197.47
705.49	3811.27
705.67	9230.20
705.86	18616.04
706.04	23717.53
706.22	26855.01
706.41	28730.95
706.59	25540.22
706.77	18405.10
706.96	14722.85
707.14	12582.72
707.32	10981.21
707.51	9813.87
707.69	8087.43
707.87	6629.27
708.06	5203.89
708.24	4222.91
708.42	3162.06
708.61	2848.72
708.79	2367.45
708.97	2260.96
709.16	2160.61
709.34	2109.41
709.52	2021.35
709.71	2015.20
709.89	2056.16
710.07	1984.48
710.26	1982.43
710.44	1943.52
710.62	2027.49
710.80	1935.33
710.99	2007.01
711.17	2039.78
711.35	1890.28
711.54	1943.52
711.72	2136.03
711.90	2013.15
712.09	1964.00
712.27	1920.99
712.45	2056.16
712.63	1882.08
712.82	1920.99
713.00	1984.48
713.18	2007.01
713.37	2025.44
713.55	2058.21
713.73	2007.01
713.91	1974.24
714.10	1923.04
714.28	1949.67
714.46	2015.20
714.65	1947.62
714.83	2045.92
715.01	1994.72
715.19	2070.50
715.38	1933.28
715.56	2039.78
715.74	1964.00
715.92	1914.85
716.11	2058.21
716.29	1837.03
716.47	1982.43
716.65	1982.43
716.84	1859.56
717.02	2127.84
717.20	1849.32
717.38	1918.95
717.57	2072.54
717.75	1998.82
717.93	1970.15
718.11	2043.87
718.30	1914.85
718.48	1992.67
718.66	1998.82
718.84	2064.35
719.03	1972.19
719.21	1914.85
719.39	2015.20
719.57	1970.15
719.75	2064.35
719.94	1939.43
720.12	1871.84
720.30	1978.34
720.48	2029.54
720.67	1986.53
720.85	1941.47
721.03	1937.38
721.21	1906.66
721.39	2060.26
721.58	2129.89
721.76	1914.85
721.94	1974.24
722.12	2033.63
722.30	2119.65
722.49	1896.42
722.67	1966.05
722.85	1951.71
723.03	1843.17
723.21	1955.81
723.40	2011.11
723.58	2007.01
723.76	2011.11
723.94	2193.37
724.12	2043.87
724.30	2148.32
724.49	2088.93
724.67	1957.86
724.85	2142.18
725.03	1951.71
725.21	2033.63
725.40	2078.69
725.58	2056.16
725.76	2101.22
725.94	2070.50
726.12	1873.89
726.30	1978.34
726.49	1867.75
726.67	1927.14
726.85	2078.69
727.03	2234.33
727.21	3133.39
727.39	4843.45
727.57	6229.92
727.76	6891.41
727.94	7366.54
728.12	7223.19
728.30	5959.59
728.48	4677.56
728.66	4265.92
728.84	3866.56
729.03	3309.52
729.21	2992.08
729.39	2723.80
729.57	2326.49
729.75	2201.57
729.93	2113.50
730.11	2052.06
730.30	2015.20
730.48	2017.25
730.66	2107.36
730.84	2023.39
731.02	2013.15
731.20	1943.52
731.38	1990.63
731.56	1867.75
731.74	1902.56
731.93	1984.48
732.11	1998.82
732.29	1976.29
732.47	1972.19
732.65	1976.29
732.83	2080.74
733.01	1978.34
733.19	1957.86
733.37	1966.05
733.56	1998.82
733.74	1914.85
733.92	2113.50
734.10	1943.52
734.28	1986.53
734.46	1814.50
734.64	1953.76
734.82	1968.10
735.00	1939.43
735.18	1904.61
735.36	1873.89
735.54	2033.63
735.73	1980.39
735.91	1972.19
736.09	2076.64
736.27	1888.23
736.45	1996.77
736.63	1814.50
736.81	1849.32
736.99	2041.82
737.17	2041.82
737.35	2009.06
737.53	1976.29
737.71	2021.35
737.89	2070.50
738.07	1896.42
738.25	1996.77
738.43	1857.51
738.61	1943.52
738.80	1822.69
738.98	1914.85
739.16	1939.43
739.34	1898.47
739.52	2062.30
739.70	1943.52
739.88	2033.63
740.06	2033.63
740.24	1886.18
740.42	2031.58
740.60	1830.88
740.78	1910.75
740.96	1873.89
741.14	1982.43
741.32	2041.82
741.50	1849.32
741.68	2099.17
741.86	2023.39
742.04	1902.56
742.22	1886.18
742.40	1920.99
742.58	1998.82
742.76	1968.10
742.94	2017.25
743.12	1810.40
743.30	2031.58
743.48	1935.33
743.66	1859.56
743.84	2017.25
744.02	1968.10
744.20	1996.77
744.38	1886.18
744.56	1935.33
744.74	2080.74
744.92	1927.14
745.10	2080.74
745.28	2037.73
745.46	2029.54
745.64	1959.91
745.82	2009.06
746.00	1978.34
746.18	1972.19
746.36	1884.13
746.54	1931.23
746.72	1998.82
746.90	1892.32
747.08	1996.77
747.26	1990.63
747.44	2050.02
747.62	1986.53
747.80	1906.66
747.98	2131.94
748.15	1941.47
748.33	2070.50
748.51	1964.00
748.69	2023.39
748.87	1888.23
749.05	1947.62
749.23	2011.11
749.41	1941.47
749.59	1923.04
749.77	1951.71
749.95	1904.61
750.13	1880.04
750.31	1964.00
750.49	1964.00
750.67	1990.63
750.85	2062.30
751.03	1978.34
751.20	2111.46
751.38	1943.52
751.56	1890.28
751.74	1945.57
751.92	1951.71
752.10	1896.42
752.28	1980.39
752.46	1961.95
752.64	2023.39
752.82	1904.61
753.00	2086.88
753.18	1998.82
753.35	2002.91
753.53	2013.15
753.71	1970.15
753.89	2064.35
754.07	1923.04
754.25	1996.77
754.43	1972.19
754.61	1875.94
754.79	1984.48
754.97	1898.47
755.14	2054.11
755.32	1841.12
755.50	1976.29
755.68	2000.87
755.86	1900.52
756.04	1849.32
756.22	1814.50
756.40	1945.57
756.57	2086.88
756.75	1949.67
756.93	2035.68
757.11	2039.78
757.29	1834.98
757.47	1898.47
757.65	1806.31
757.82	1853.41
758.00	1898.47
758.18	1900.52
758.36	1851.36
758.54	2131.94
758.72	1832.93
758.90	2031.58
759.07	2021.35
759.25	1839.08
759.43	1994.72
759.61	1865.70
759.79	2674.65
759.97	2033.63
760.15	1949.67
760.32	1943.52
760.50	2041.82
760.68	2045.92
760.86	1886.18
761.04	2078.69
761.22	2013.15
761.39	2041.82
761.57	2000.87
761.75	1849.32
761.93	1986.53
762.11	1914.85
762.28	1937.38
762.46	1884.13
762.64	1961.95
762.82	1884.13
763.00	1923.04
763.18	2072.54
763.35	1796.07
763.53	2027.49
763.71	1949.67
763.89	2015.20
764.07	1947.62
764.24	1929.19
764.42	1990.63
764.60	1896.42
764.78	2060.26
764.96	1982.43
765.13	2043.87
765.31	1906.66
765.49	2011.11
765.67	1882.08
765.84	1908.71
766.02	1966.05
766.20	1847.27
766.38	2033.63
766.56	1957.86
766.73	1992.67
766.91	2025.44
767.09	1904.61
767.27	2004.96
767.44	1955.81
767.62	2019.30
767.80	1972.19
767.98	1992.67
768.15	1908.71
768.33	1976.29
768.51	2076.64
768.69	2004.96
768.87	1994.72
769.04	1959.91
769.22	2150.37
769.40	2099.17
769.58	2191.33
769.75	1908.71
769.93	2013.15
770.11	1951.71
770.28	1927.14
770.46	1984.48
770.64	1939.43
770.82	1959.91
770.99	1892.32
771.17	1992.67
771.35	1824.74
771.53	1957.86
771.70	1976.29
771.88	2013.15
772.06	1914.85
772.23	2015.20
772.41	1982.43
772.59	1900.52
772.77	1867.75
772.94	1900.52
773.12	1986.53
773.30	1882.08
773.47	1996.77
773.65	1920.99
773.83	2002.91
774.01	2002.91
774.18	1859.56
774.36	2037.73
774.54	1847.27
774.71	2007.01
774.89	1867.75
775.07	1914.85
775.24	1957.86
775.42	1959.91
775.60	2088.93
775.78	1896.42
775.95	1896.42
776.13	1837.03
776.31	1773.54
776.48	1970.15
776.66	2045.92
776.84	1961.95
777.01	1865.70
777.19	1834.98
777.37	1910.75
777.54	2058.21
777.72	2133.98
777.90	2064.35
778.07	1877.99
778.25	2144.22
778.43	2035.68
778.60	1949.67
778.78	1941.47
778.96	1980.39
779.13	1849.32
779.31	2007.01
779.49	1988.58
779.66	1935.33
779.84	1959.91
780.01	1941.47
780.19	1863.65
780.37	1994.72
780.54	2015.20
780.72	1892.32
780.90	1972.19
781.07	1982.43
781.25	1839.08
781.43	2052.06
781.60	1947.62
781.78	2045.92
781.95	1951.71
782.13	1892.32
782.31	1923.04
782.48	1857.51
782.66	1951.71
782.83	2123.74
783.01	1953.76
783.19	1998.82
783.36	1918.95
783.54	1892.32
783.72	2070.50
783.89	1937.38
784.07	1951.71
784.24	1988.58
784.42	2021.35
784.60	1931.23
784.77	1996.77
784.95	1734.63
785.12	1929.19
785.30	1916.90
785.47	1923.04
785.65	1865.70
785.83	1972.19
786.00	1949.67
786.18	1929.19
786.35	1855.46
786.53	1925.09
786.71	2023.39
786.88	2047.97
787.06	1947.62
787.23	1902.56
787.41	1931.23
787.58	1910.75
787.76	1890.28
787.94	1931.23
788.11	2058.21
788.29	1916.90
788.46	1935.33
788.64	1861.60
788.81	1884.13
788.99	1925.09
789.16	1853.41
789.34	1941.47
789.52	1880.04
789.69	1941.47
789.87	1751.01
790.04	1978.34
790.22	1939.43
790.39	2144.22
790.57	1933.28
790.74	1861.60
790.92	2031.58
791.09	1845.22
791.27	1949.67
791.44	2045.92
791.62	1877.99
791.79	2031.58
791.97	1974.24
792.15	2170.85
792.32	2002.91
792.50	1992.67
792.67	2045.92
792.85	2117.60
793.02	2035.68
793.20	1957.86
793.37	1865.70
793.55	1873.89
793.72	1888.23
793.90	1966.05
794.07	1923.04
794.25	1847.27
794.42	1974.24
794.60	1949.67
794.77	1945.57
794.95	1959.91
795.12	1992.67
795.30	1964.00
795.47	1767.40
795.65	2179.04
795.82	2025.44
796.00	1935.33
796.17	1964.00
796.34	1890.28
796.52	1988.58
796.69	2023.39
796.87	1966.05
797.04	1906.66
797.22	2013.15
797.39	1957.86
797.57	2041.82
797.74	1976.29
797.92	2025.44
798.09	1931.23
798.27	1994.72
798.44	1988.58
798.62	1916.90
798.79	1982.43
798.96	1974.24
799.14	1933.28
799.31	2197.47
799.49	1941.47
799.66	1918.95
799.84	1957.86
800.01	1931.23
800.19	1970.15
800.36	1830.88
800.53	2025.44
800.71	1966.05
800.88	2113.50
801.06	1961.95
801.23	1935.33
801.41	1992.67
801.58	1935.33
801.75	1894.37
801.93	2033.63
802.10	2013.15
802.28	1933.28
802.45	1947.62
802.63	2025.44
802.80	2054.11
802.97	1923.04
803.15	1949.67
803.32	1906.66
803.50	1865.70
803.67	1888.23
803.84	1923.04
804.02	1941.47
804.19	1910.75
804.37	1771.49
804.54	1851.36
804.71	1949.67
804.89	2037.73
805.06	1861.60
805.24	1841.12
805.41	1886.18
805.58	1873.89
805.76	2050.02
805.93	1990.63
806.10	2062.30
806.28	1972.19
806.45	1935.33
806.63	1955.81
806.80	1964.00
806.97	2017.25
807.15	1933.28
807.32	1953.76
807.49	1941.47
807.67	1851.36
807.84	2025.44
808.01	1796.07
808.19	2045.92
808.36	2152.42
808.54	1888.23
808.71	1863.65
808.88	1947.62
809.06	2007.01
809.23	2072.54
809.40	1910.75
809.58	1996.77
809.75	1918.95
809.92	1918.95
810.10	2150.37
810.27	2027.49
810.44	1961.95
810.62	2062.30
810.79	2054.11
810.96	1902.56
811.14	1902.56
811.31	2004.96
811.48	1912.80
811.66	1982.43
811.83	1974.24
812.00	1900.52
812.18	1933.28
812.35	2023.39
812.52	1949.67
812.69	1900.52
812.87	1900.52
813.04	1970.15
813.21	2054.11
813.39	1886.18
813.56	1861.60
813.73	2060.26
813.91	1812.45
814.08	1949.67
814.25	2043.87
814.42	1877.99
814.60	1949.67
814.77	1976.29
814.94	1959.91
815.12	1927.14
815.29	2058.21
815.46	1923.04
815.63	1988.58
815.81	1914.85
815.98	1920.99
816.15	1929.19
816.33	1996.77
816.50	1949.67
816.67	1998.82
816.84	1912.80
817.02	1824.74
817.19	1914.85
817.36	2004.96
817.53	1951.71
817.71	1834.98
817.88	1968.10
818.05	1949.67
818.22	1925.09
818.40	2035.68
818.57	1927.14
818.74	1980.39
818.91	1918.95
819.09	1980.39
819.26	2056.16
819.43	1882.08
819.60	1898.47
819.78	2025.44
819.95	2043.87
820.12	1882.08
820.29	2013.15
820.47	2013.15
820.64	1875.94
820.81	1867.75
820.98	1882.08
821.15	1925.09
821.33	2025.44
821.50	1904.61
821.67	2045.92
821.84	1949.67
822.02	2031.58
822.19	1970.15
822.36	1890.28
822.53	1861.60
822.70	1877.99
822.88	1898.47
823.05	2035.68
823.22	1882.08
823.39	1947.62
823.56	2007.01
823.74	2084.83
823.91	1873.89
824.08	1837.03
824.25	1867.75
824.42	2107.36
824.60	1847.27
824.77	1978.34
824.94	1990.63
825.11	2029.54
825.28	1884.13
825.45	1908.71
825.63	1953.76
825.80	1918.95
825.97	2004.96
826.14	1910.75
826.31	1826.79
826.48	1978.34
826.66	1931.23
826.83	1882.08
827.00	1933.28
827.17	1849.32
827.34	1949.67
827.51	1871.84
827.69	1947.62
827.86	1910.75
828.03	1957.86
828.20	1974.24
828.37	1904.61
828.54	2043.87
828.71	1910.75
828.89	2086.88
829.06	1939.43
829.23	2052.06
829.40	1826.79
829.57	1974.24
829.74	1988.58
829.91	1994.72
830.09	1972.19
830.26	1986.53
830.43	2082.78
830.60	1927.14
830.77	1998.82
830.94	2086.88
831.11	2035.68
831.28	1982.43
831.46	2072.54
831.63	1880.04
831.80	2039.78
831.97	2013.15
832.14	1916.90
832.31	2011.11
832.48	1986.53
832.65	1988.58
832.82	1984.48
832.99	2013.15
833.17	1853.41
833.34	2027.49
833.51	2029.54
833.68	1832.93
833.85	2099.17
834.02	1929.19
834.19	1806.31
834.36	1873.89
834.53	2027.49
834.70	2054.11
834.87	2011.11
835.04	1847.27
835.22	1863.65
835.39	2050.02
835.56	1869.80
835.73	1964.00
835.90	2017.25
836.07	1830.88
836.24	2070.50
836.41	1875.94
836.58	1937.38
836.75	2033.63
836.92	2062.30
837.09	1961.95
837.26	1976.29
837.43	1966.05
837.60	2068.45
837.77	1990.63
837.94	2015.20
838.12	1986.53
838.29	2019.30
838.46	1863.65
838.63	1955.81
838.80	2082.78
838.97	2002.91
839.14	1951.71
839.31	1964.00
839.48	2062.30
839.65	1966.05
839.82	1955.81
839.99	1912.80
840.16	1855.46
840.33	1914.85
840.50	1937.38
840.67	1888.23
840.84	1818.60
841.01	1935.33
841.18	1875.94
841.35	1923.04
841.52	2013.15
841.69	2056.16
841.86	1959.91
842.03	1949.67
842.20	2019.30
842.37	1937.38
842.54	1914.85
842.71	1933.28
842.88	1888.23
843.05	1955.81
843.22	1943.52
843.39	1990.63
843.56	1914.85
843.73	2015.20
843.90	1976.29
844.07	1931.23
844.24	1918.95
844.41	2029.54
844.58	1933.28
844.75	1937.38
844.92	1980.39
845.09	2002.91
845.26	1863.65
845.43	1966.05
845.60	1920.99
845.77	2025.44
845.94	1980.39
846.10	1994.72
846.27	1886.18
846.44	1896.42
846.61	1808.36
846.78	1996.77
846.95	1994.72
847.12	1900.52
847.29	1959.91
847.46	1855.46
847.63	2000.87
847.80	1937.38
847.97	1892.32
848.14	2095.07
848.31	1929.19
848.48	1916.90
848.65	1949.67
848.82	1880.04
848.98	2185.18
849.15	1935.33
849.32	2037.73
849.49	2029.54
849.66	1959.91
849.83	1916.90
850.00	1957.86
850.17	2031.58
850.34	1951.71
850.51	1918.95
850.68	1972.19
850.85	2109.41
851.01	1943.52
851.18	1966.05
851.35	1935.33
851.52	2009.06
851.69	2064.35
851.86	1804.26
852.03	1996.77
852.20	1923.04
852.37	1890.28
852.53	1869.80
852.70	1953.76
852.87	1964.00
853.04	2043.87
853.21	1914.85
853.38	2007.01
853.55	1996.77
853.72	2017.25
853.89	1890.28
854.05	1902.56
854.22	1955.81
854.39	1939.43
854.56	1931.23
854.73	2078.69
854.90	1855.46
855.07	1925.09
855.23	1845.22
855.40	1861.60
855.57	1898.47
855.74	1742.82
855.91	2158.56
856.08	1863.65
856.25	1857.51
856.41	1875.94
856.58	1898.47
856.75	1908.71
856.92	1849.32
857.09	2041.82
857.26	1802.21
857.42	1920.99
857.59	1982.43
857.76	1947.62
857.93	2019.30
858.10	1935.33
858.27	1875.94
858.43	1994.72
858.60	1931.23
858.77	1851.36
858.94	1912.80
859.11	1896.42
859.27	1861.60
859.44	1976.29
859.61	2156.51
859.78	1918.95
859.95	1943.52
860.12	1892.32
860.28	2121.70
860.45	2121.70
860.62	1927.14
860.79	1964.00
860.95	1877.99
861.12	1929.19
861.29	1939.43
861.46	1916.90
861.63	1929.19
861.79	1941.47
861.96	1837.03
862.13	1947.62
862.30	1982.43
862.47	1937.38
862.63	1822.69
862.80	1949.67
862.97	2023.39
863.14	2011.11
863.30	2019.30
863.47	1904.61
863.64	2041.82
863.81	1908.71
863.97	1871.84
864.14	1943.52
864.31	1869.80
864.48	1996.77
864.65	1931.23
864.81	2062.30
864.98	2019.30
865.15	2064.35
865.32	1972.19
865.48	2058.21
865.65	2170.85
865.82	1882.08
865.98	1972.19
866.15	1984.48
866.32	1955.81
866.49	1939.43
866.65	2123.74
866.82	1877.99
866.99	2015.20
867.16	1974.24
867.32	1916.90
867.49	1966.05
867.66	1920.99
867.83	1900.52
867.99	1800.16
868.16	1951.71
868.33	1859.56
868.49	1992.67
868.66	1867.75
868.83	2019.30
868.99	2039.78
869.16	1933.28
869.33	2070.50
869.50	2013.15
869.66	1927.14
869.83	1951.71
870.00	1902.56
870.16	2011.11
870.33	1914.85
870.50	2009.06
870.66	1943.52
870.83	2082.78
871.00	1970.15
871.17	1976.29
871.33	1976.29
871.50	1941.47
871.67	1959.91
871.83	1955.81
872.00	2121.70
872.17	1894.37
872.33	2136.03
872.50	2011.11
872.67	1988.58
872.83	2013.15
873.00	1980.39
873.17	1832.93
873.33	1974.24
873.50	1966.05
873.67	1931.23
873.83	1929.19
874.00	1910.75
874.16	2035.68
874.33	1998.82
874.50	1904.61
874.66	1980.39
874.83	1925.09
875.00	2097.12
875.16	2019.30
875.33	2027.49
875.50	1783.78
875.66	1865.70
875.83	1992.67
875.99	1980.39
876.16	1865.70
876.33	1896.42
876.49	1966.05
876.66	1972.19
876.83	1966.05
876.99	1832.93
877.16	1947.62
877.32	1927.14
877.49	1861.60
877.66	1986.53
877.82	2121.70
877.99	1968.10
878.15	2041.82
878.32	1937.38
878.49	1984.48
878.65	1953.76
878.82	2088.93
878.98	1888.23
879.15	1910.75
879.32	2002.91
879.48	2039.78
879.65	1837.03
879.81	1914.85
879.98	1900.52
880.15	1970.15
880.31	2029.54
880.48	1939.43
880.64	2002.91
880.81	1947.62
880.97	2043.87
881.14	2090.98
881.31	1904.61
881.47	2117.60
881.64	1978.34
881.80	1906.66
881.97	1949.67
882.13	1976.29
882.30	1923.04
882.47	1902.56
882.63	1855.46
882.80	1931.23
882.96	1875.94
883.13	2088.93
883.29	1906.66
883.46	1923.04
883.62	2136.03
883.79	2029.54
883.95	1947.62
884.12	1914.85
884.29	1955.81
884.45	1871.84
884.62	1951.71
884.78	1933.28
884.95	2058.21
885.11	1908.71
885.28	1943.52
885.44	1892.32
885.61	2076.64
885.77	2054.11
885.94	1945.57
886.10	1939.43
886.27	1961.95
886.43	2072.54
886.60	2109.41
886.76	2045.92
886.93	1884.13
887.09	1957.86
887.26	1810.40
887.42	1959.91
887.59	2021.35
887.75	2125.79
887.92	2047.97
888.08	2037.73
888.25	2152.42
888.41	1982.43
888.58	1947.62
888.74	1908.71
888.91	1834.98
>>>>>End Processed Spectral Data<<<<<
