SpectraSuite Data File
++++++++++++++++++++++++++++++++++++
Date: Wed May 04 21:13:30 CEST 2016
User: root
Dark Spectrum Present: No
Reference Spectrum Present: No
Number of Sampled Component Spectra: 1
Spectrometers: USB4C02835
Integration Time (usec): 100000 (USB4C02835)
Spectra Averaged: 1 (USB4C02835)
Boxcar Smoothing: 0 (USB4C02835)
Correct for Electrical Dark: No (USB4C02835)
Strobe/Lamp Enabled: No (USB4C02835)
Correct for Detector Non-linearity: No (USB4C02835)
Correct for Stray Light: No (USB4C02835)
Number of Pixels in Processed Spectrum: 3648
>>>>>Begin Processed Spectral Data<<<<<
177.47	1560.55
177.69	1560.55
177.91	1560.55
178.13	1523.69
178.36	1513.45
178.58	1753.06
178.80	1880.04
179.02	1693.67
179.24	1691.62
179.46	1759.21
179.68	1828.84
179.90	1777.64
180.13	1789.92
180.35	1718.25
180.57	1863.65
180.79	1787.88
181.01	1800.16
181.23	1804.26
181.45	1869.80
181.67	1787.88
181.90	1800.16
182.12	1757.16
182.34	1751.01
182.56	1798.12
182.78	1826.79
183.00	1781.73
183.22	1863.65
183.44	1726.44
183.66	1964.00
183.89	1912.80
184.11	1845.22
184.33	1837.03
184.55	1810.40
184.77	1834.98
184.99	1847.27
185.21	1761.25
185.43	1894.37
185.65	1804.26
185.87	1822.69
186.10	1888.23
186.32	1978.34
186.54	1789.92
186.76	1853.41
186.98	1873.89
187.20	1734.63
187.42	1832.93
187.64	1761.25
187.86	1794.02
188.08	1875.94
188.30	1814.50
188.52	1832.93
188.75	1861.60
188.97	1937.38
189.19	1757.16
189.41	1765.35
189.63	1826.79
189.85	1869.80
190.07	1783.78
190.29	1730.53
190.51	1841.12
190.73	1734.63
190.95	1986.53
191.17	1783.78
191.39	1689.57
191.61	1853.41
191.84	1728.49
192.06	1837.03
192.28	1759.21
192.50	1996.77
192.72	1837.03
192.94	1761.25
193.16	1802.21
193.38	1851.36
193.60	1669.09
193.82	1816.55
194.04	1927.14
194.26	1783.78
194.48	1767.40
194.70	1730.53
194.92	1757.16
195.14	1841.12
195.36	1712.10
195.58	1800.16
195.80	1796.07
196.02	1757.16
196.24	1744.87
196.46	1800.16
196.69	1769.44
196.91	2009.06
197.13	1816.55
197.35	1744.87
197.57	1937.38
197.79	1769.44
198.01	1941.47
198.23	1822.69
198.45	1898.47
198.67	1677.29
198.89	1802.21
199.11	1875.94
199.33	1738.73
199.55	1726.44
199.77	1914.85
199.99	1886.18
200.21	1914.85
200.43	1847.27
200.65	1763.30
200.87	1695.72
201.09	1886.18
201.31	1818.60
201.53	1867.75
201.75	1837.03
201.97	1855.46
202.19	1800.16
202.41	1843.17
202.63	1939.43
202.85	1830.88
203.07	1845.22
203.29	1787.88
203.51	1712.10
203.73	1800.16
203.95	2025.44
204.17	1808.36
204.39	1849.32
204.61	1828.84
204.83	1800.16
205.05	1832.93
205.27	1812.45
205.49	1959.91
205.71	1755.11
205.93	1802.21
206.15	1744.87
206.37	1777.64
206.59	1875.94
206.81	1767.40
207.03	1730.53
207.25	1785.83
207.47	1916.90
207.69	1767.40
207.91	1896.42
208.13	1925.09
208.34	1705.96
208.56	1767.40
208.78	1896.42
209.00	1693.67
209.22	1724.39
209.44	1779.68
209.66	1810.40
209.88	1816.55
210.10	1800.16
210.32	1738.73
210.54	1863.65
210.76	1785.83
210.98	1910.75
211.20	1701.86
211.42	1791.97
211.64	1800.16
211.86	1865.70
212.08	1769.44
212.30	1796.07
212.52	1763.30
212.74	1834.98
212.96	1902.56
213.17	1859.56
213.39	1810.40
213.61	1931.23
213.83	1755.11
214.05	1742.82
214.27	1886.18
214.49	1746.92
214.71	1820.64
214.93	1912.80
215.15	1898.47
215.37	1824.74
215.59	1759.21
215.81	1853.41
216.03	1947.62
216.24	1877.99
216.46	1736.68
216.68	1800.16
216.90	1849.32
217.12	1873.89
217.34	1822.69
217.56	1861.60
217.78	1841.12
218.00	1888.23
218.22	1820.64
218.44	1785.83
218.66	1849.32
218.87	1871.84
219.09	1757.16
219.31	1853.41
219.53	1773.54
219.75	1791.97
219.97	1826.79
220.19	1771.49
220.41	1804.26
220.63	1906.66
220.85	1828.84
221.06	1806.31
221.28	1869.80
221.50	1902.56
221.72	1806.31
221.94	1847.27
222.16	1730.53
222.38	1925.09
222.60	1847.27
222.82	1755.11
223.03	1839.08
223.25	1773.54
223.47	1861.60
223.69	1943.52
223.91	1800.16
224.13	1763.30
224.35	1714.15
224.57	1937.38
224.78	1875.94
225.00	1767.40
225.22	1789.92
225.44	1861.60
225.66	1880.04
225.88	1718.25
226.10	1888.23
226.32	1888.23
226.53	1808.36
226.75	1845.22
226.97	1834.98
227.19	1824.74
227.41	1722.34
227.63	1746.92
227.85	1701.86
228.06	1834.98
228.28	1695.72
228.50	1929.19
228.72	1728.49
228.94	1765.35
229.16	1712.10
229.37	1722.34
229.59	1863.65
229.81	1841.12
230.03	1740.77
230.25	1679.33
230.47	1791.97
230.69	1773.54
230.90	1828.84
231.12	1810.40
231.34	1849.32
231.56	1865.70
231.78	1746.92
232.00	1824.74
232.21	1828.84
232.43	1771.49
232.65	1662.95
232.87	1824.74
233.09	1779.68
233.30	1800.16
233.52	1816.55
233.74	1837.03
233.96	1853.41
234.18	1890.28
234.40	1869.80
234.61	1939.43
234.83	1800.16
235.05	1669.09
235.27	1943.52
235.49	1890.28
235.70	1834.98
235.92	1867.75
236.14	1859.56
236.36	1959.91
236.58	1722.34
236.79	1798.12
237.01	1748.97
237.23	1785.83
237.45	1925.09
237.67	1787.88
237.88	1816.55
238.10	1904.61
238.32	1777.64
238.54	1837.03
238.76	1800.16
238.97	1767.40
239.19	1759.21
239.41	1853.41
239.63	1869.80
239.85	1781.73
240.06	1853.41
240.28	1777.64
240.50	1832.93
240.72	1742.82
240.93	1873.89
241.15	1933.28
241.37	1759.21
241.59	1822.69
241.81	1738.73
242.02	1757.16
242.24	1828.84
242.46	1851.36
242.68	1767.40
242.89	1800.16
243.11	1859.56
243.33	1880.04
243.55	1828.84
243.76	1820.64
243.98	1804.26
244.20	1789.92
244.42	1734.63
244.64	1875.94
244.85	1679.33
245.07	1771.49
245.29	1880.04
245.51	1814.50
245.72	1814.50
245.94	1828.84
246.16	1832.93
246.38	1802.21
246.59	1732.58
246.81	1765.35
247.03	1863.65
247.24	1667.05
247.46	1767.40
247.68	1830.88
247.90	1736.68
248.11	1767.40
248.33	1869.80
248.55	1853.41
248.77	1816.55
248.98	1898.47
249.20	1886.18
249.42	1791.97
249.64	1847.27
249.85	1751.01
250.07	1800.16
250.29	1914.85
250.50	1824.74
250.72	1730.53
250.94	1898.47
251.16	1898.47
251.37	1898.47
251.59	1746.92
251.81	1773.54
252.02	1906.66
252.24	1789.92
252.46	1896.42
252.68	1804.26
252.89	1882.08
253.11	1662.95
253.33	1857.51
253.54	1849.32
253.76	1767.40
253.98	1808.36
254.20	1789.92
254.41	1769.44
254.63	1791.97
254.85	1730.53
255.06	1832.93
255.28	1853.41
255.50	1814.50
255.71	1746.92
255.93	1638.38
256.15	1785.83
256.36	1808.36
256.58	1826.79
256.80	1873.89
257.02	1785.83
257.23	1796.07
257.45	1785.83
257.67	1822.69
257.88	1796.07
258.10	1894.37
258.32	1783.78
258.53	1773.54
258.75	1867.75
258.97	1800.16
259.18	1808.36
259.40	1783.78
259.62	1845.22
259.83	1914.85
260.05	1906.66
260.27	2072.54
260.48	1888.23
260.70	1695.72
260.92	1779.68
261.13	1771.49
261.35	1834.98
261.57	1894.37
261.78	1724.39
262.00	1771.49
262.22	1841.12
262.43	1763.30
262.65	1863.65
262.86	1736.68
263.08	1980.39
263.30	1845.22
263.51	1673.19
263.73	1755.11
263.95	1929.19
264.16	1779.68
264.38	1751.01
264.60	1798.12
264.81	1738.73
265.03	1857.51
265.25	1855.46
265.46	1742.82
265.68	1908.71
265.89	1851.36
266.11	1701.86
266.33	1845.22
266.54	1867.75
266.76	1894.37
266.98	1832.93
267.19	1861.60
267.41	1877.99
267.62	1832.93
267.84	1705.96
268.06	1877.99
268.27	1828.84
268.49	1843.17
268.70	1839.08
268.92	1759.21
269.14	1724.39
269.35	1796.07
269.57	1816.55
269.79	1920.99
270.00	1789.92
270.22	1929.19
270.43	1773.54
270.65	1689.57
270.87	1882.08
271.08	1822.69
271.30	1902.56
271.51	1828.84
271.73	1816.55
271.95	1882.08
272.16	1861.60
272.38	1894.37
272.59	1746.92
272.81	1806.31
273.02	1796.07
273.24	1785.83
273.46	1884.13
273.67	1757.16
273.89	1779.68
274.10	1812.45
274.32	1886.18
274.54	1806.31
274.75	1802.21
274.97	1755.11
275.18	1939.43
275.40	1869.80
275.61	1837.03
275.83	1800.16
276.05	1710.05
276.26	1765.35
276.48	1812.45
276.69	1777.64
276.91	1794.02
277.12	1847.27
277.34	1820.64
277.55	1877.99
277.77	1834.98
277.99	1800.16
278.20	1804.26
278.42	1714.15
278.63	1771.49
278.85	1812.45
279.06	1671.14
279.28	1753.06
279.49	1832.93
279.71	1820.64
279.93	1789.92
280.14	1798.12
280.36	1783.78
280.57	1873.89
280.79	1935.33
281.00	1732.58
281.22	1832.93
281.43	1900.52
281.65	1683.43
281.86	1726.44
282.08	1802.21
282.29	1912.80
282.51	1771.49
282.73	1714.15
282.94	1652.71
283.16	1877.99
283.37	1937.38
283.59	1843.17
283.80	1748.97
284.02	1863.65
284.23	1828.84
284.45	1806.31
284.66	1652.71
284.88	1736.68
285.09	1857.51
285.31	1853.41
285.52	1886.18
285.74	1738.73
285.95	1904.61
286.17	1882.08
286.38	1839.08
286.60	1734.63
286.81	1773.54
287.03	1837.03
287.24	1894.37
287.46	1787.88
287.67	1832.93
287.89	1972.19
288.10	1775.59
288.32	1763.30
288.53	1871.84
288.75	1806.31
288.96	1828.84
289.18	1873.89
289.39	1820.64
289.61	1798.12
289.82	2056.16
290.04	1902.56
290.25	1791.97
290.47	1812.45
290.68	1802.21
290.90	1818.60
291.11	1687.53
291.33	1853.41
291.54	1708.01
291.76	1748.97
291.97	1802.21
292.18	1816.55
292.40	1744.87
292.61	1761.25
292.83	1914.85
293.04	1796.07
293.26	1875.94
293.47	1738.73
293.69	1712.10
293.90	1808.36
294.12	1839.08
294.33	1755.11
294.55	1865.70
294.76	1867.75
294.97	1853.41
295.19	1910.75
295.40	1742.82
295.62	1865.70
295.83	1820.64
296.05	1732.58
296.26	1961.95
296.48	1781.73
296.69	1787.88
296.90	1759.21
297.12	1861.60
297.33	1910.75
297.55	1857.51
297.76	1925.09
297.98	1871.84
298.19	1814.50
298.41	1814.50
298.62	1732.58
298.83	1925.09
299.05	1843.17
299.26	1755.11
299.48	1742.82
299.69	1787.88
299.90	1798.12
300.12	1830.88
300.33	1828.84
300.55	1759.21
300.76	1853.41
300.98	1771.49
301.19	1847.27
301.40	1804.26
301.62	1791.97
301.83	1898.47
302.05	1763.30
302.26	1732.58
302.47	1802.21
302.69	1761.25
302.90	1830.88
303.12	1751.01
303.33	1855.46
303.54	1894.37
303.76	1742.82
303.97	1865.70
304.19	1923.04
304.40	1806.31
304.61	1808.36
304.83	1974.24
305.04	1964.00
305.26	1779.68
305.47	1679.33
305.68	1808.36
305.90	1695.72
306.11	1875.94
306.33	1834.98
306.54	1689.57
306.75	1791.97
306.97	1740.77
307.18	1798.12
307.39	1726.44
307.61	1941.47
307.82	1759.21
308.04	1789.92
308.25	1769.44
308.46	1837.03
308.68	1863.65
308.89	1841.12
309.10	1890.28
309.32	1830.88
309.53	1748.97
309.74	1841.12
309.96	1699.81
310.17	1892.32
310.39	1826.79
310.60	1853.41
310.81	1828.84
311.03	1765.35
311.24	1777.64
311.45	1798.12
311.67	1923.04
311.88	1845.22
312.09	1765.35
312.31	1775.59
312.52	1810.40
312.73	1798.12
312.95	1714.15
313.16	1822.69
313.37	1877.99
313.59	1845.22
313.80	1918.95
314.01	1927.14
314.23	1800.16
314.44	1818.60
314.65	1681.38
314.87	1765.35
315.08	1785.83
315.29	1822.69
315.51	1753.06
315.72	1748.97
315.93	1902.56
316.15	1920.99
316.36	1791.97
316.57	1832.93
316.79	1849.32
317.00	1755.11
317.21	1843.17
317.43	1689.57
317.64	1849.32
317.85	1789.92
318.07	1791.97
318.28	1800.16
318.49	1970.15
318.70	2019.30
318.92	1888.23
319.13	1970.15
319.34	1986.53
319.56	2017.25
319.77	1968.10
319.98	1935.33
320.20	1918.95
320.41	1849.32
320.62	1822.69
320.83	1710.05
321.05	1947.62
321.26	1832.93
321.47	1888.23
321.69	1937.38
321.90	1660.90
322.11	1730.53
322.32	1865.70
322.54	1916.90
322.75	1779.68
322.96	1968.10
323.18	1718.25
323.39	1644.52
323.60	1703.91
323.81	1865.70
324.03	1783.78
324.24	1816.55
324.45	1871.84
324.66	1814.50
324.88	1902.56
325.09	1896.42
325.30	1927.14
325.52	1761.25
325.73	1859.56
325.94	1767.40
326.15	1683.43
326.37	1746.92
326.58	1773.54
326.79	1882.08
327.00	1755.11
327.22	1781.73
327.43	1822.69
327.64	1759.21
327.85	1849.32
328.07	1898.47
328.28	1871.84
328.49	1724.39
328.70	1867.75
328.92	1826.79
329.13	1818.60
329.34	1826.79
329.55	1982.43
329.76	1933.28
329.98	1812.45
330.19	1902.56
330.40	1871.84
330.61	1837.03
330.83	1880.04
331.04	1779.68
331.25	1798.12
331.46	1798.12
331.68	1744.87
331.89	1914.85
332.10	1798.12
332.31	1755.11
332.52	1804.26
332.74	1925.09
332.95	1777.64
333.16	1845.22
333.37	1892.32
333.58	1808.36
333.80	1796.07
334.01	1761.25
334.22	1794.02
334.43	1779.68
334.64	1785.83
334.86	1738.73
335.07	1751.01
335.28	1927.14
335.49	1767.40
335.70	1914.85
335.92	1857.51
336.13	1871.84
336.34	1918.95
336.55	1830.88
336.76	1837.03
336.98	1693.67
337.19	1808.36
337.40	1951.71
337.61	2043.87
337.82	1783.78
338.04	1882.08
338.25	1714.15
338.46	1828.84
338.67	1751.01
338.88	1753.06
339.09	1660.90
339.31	1746.92
339.52	1685.48
339.73	1761.25
339.94	1849.32
340.15	1794.02
340.36	1757.16
340.58	1935.33
340.79	1777.64
341.00	1814.50
341.21	1740.77
341.42	2000.87
341.63	1757.16
341.85	1834.98
342.06	1869.80
342.27	1738.73
342.48	1849.32
342.69	1677.29
342.90	1834.98
343.12	1914.85
343.33	1755.11
343.54	1845.22
343.75	1847.27
343.96	1753.06
344.17	1791.97
344.38	1853.41
344.60	1773.54
344.81	1763.30
345.02	1814.50
345.23	1822.69
345.44	1943.52
345.65	1796.07
345.86	1781.73
346.07	1861.60
346.29	1775.59
346.50	1783.78
346.71	1943.52
346.92	1912.80
347.13	1937.38
347.34	1857.51
347.55	1804.26
347.76	1789.92
347.98	1783.78
348.19	1699.81
348.40	1914.85
348.61	1861.60
348.82	1861.60
349.03	1841.12
349.24	1685.48
349.45	1869.80
349.66	1736.68
349.88	1843.17
350.09	1767.40
350.30	1916.90
350.51	1886.18
350.72	1871.84
350.93	1871.84
351.14	1779.68
351.35	1861.60
351.56	1824.74
351.77	1810.40
351.99	1851.36
352.20	1925.09
352.41	1931.23
352.62	1724.39
352.83	1851.36
353.04	1853.41
353.25	1783.78
353.46	1863.65
353.67	1826.79
353.88	1644.52
354.09	1884.13
354.30	1861.60
354.52	1808.36
354.73	1751.01
354.94	1796.07
355.15	1726.44
355.36	1892.32
355.57	1802.21
355.78	1861.60
355.99	1738.73
356.20	1808.36
356.41	1890.28
356.62	1802.21
356.83	1771.49
357.04	1873.89
357.25	1665.00
357.46	1773.54
357.68	1722.34
357.89	1763.30
358.10	1785.83
358.31	1808.36
358.52	1810.40
358.73	1742.82
358.94	1738.73
359.15	1814.50
359.36	1804.26
359.57	1798.12
359.78	1822.69
359.99	1877.99
360.20	1726.44
360.41	1832.93
360.62	1918.95
360.83	1843.17
361.04	1796.07
361.25	1869.80
361.46	1937.38
361.67	1837.03
361.88	1882.08
362.09	1832.93
362.30	1910.75
362.51	1808.36
362.72	1816.55
362.93	1906.66
363.14	1820.64
363.35	1796.07
363.56	1800.16
363.78	1824.74
363.99	1873.89
364.20	1789.92
364.41	1884.13
364.62	1923.04
364.83	1832.93
365.04	1767.40
365.25	1843.17
365.46	1923.04
365.67	1740.77
365.88	1834.98
366.09	1748.97
366.30	1746.92
366.51	1791.97
366.72	1781.73
366.93	1828.84
367.14	1783.78
367.35	1959.91
367.56	1794.02
367.77	1966.05
367.98	1867.75
368.18	1847.27
368.39	1939.43
368.60	1705.96
368.81	1906.66
369.02	1812.45
369.23	1834.98
369.44	1810.40
369.65	1771.49
369.86	1898.47
370.07	1787.88
370.28	1703.91
370.49	1871.84
370.70	1759.21
370.91	1769.44
371.12	1722.34
371.33	1920.99
371.54	1820.64
371.75	1925.09
371.96	1701.86
372.17	1849.32
372.38	1824.74
372.59	1888.23
372.80	1779.68
373.01	1781.73
373.22	1877.99
373.43	1865.70
373.64	1716.20
373.85	1853.41
374.06	1910.75
374.26	1906.66
374.47	1779.68
374.68	1877.99
374.89	1859.56
375.10	1822.69
375.31	1849.32
375.52	1863.65
375.73	1794.02
375.94	1802.21
376.15	1898.47
376.36	1742.82
376.57	1806.31
376.78	1710.05
376.99	1845.22
377.20	1882.08
377.40	1777.64
377.61	1951.71
377.82	1767.40
378.03	1861.60
378.24	1900.52
378.45	1822.69
378.66	1849.32
378.87	1742.82
379.08	1714.15
379.29	1787.88
379.50	1916.90
379.71	1798.12
379.91	1871.84
380.12	1822.69
380.33	1804.26
380.54	1800.16
380.75	1828.84
380.96	1828.84
381.17	1951.71
381.38	1886.18
381.59	1861.60
381.80	1892.32
382.00	2007.01
382.21	1871.84
382.42	1914.85
382.63	1970.15
382.84	1886.18
383.05	1804.26
383.26	2002.91
383.47	1820.64
383.68	1837.03
383.88	1877.99
384.09	1822.69
384.30	1935.33
384.51	1894.37
384.72	1849.32
384.93	1789.92
385.14	1789.92
385.35	1931.23
385.55	1662.95
385.76	1892.32
385.97	1755.11
386.18	1705.96
386.39	1789.92
386.60	1892.32
386.81	1761.25
387.02	1841.12
387.22	1777.64
387.43	1843.17
387.64	1904.61
387.85	2045.92
388.06	2205.66
388.27	4114.37
388.48	8873.85
388.68	11630.41
388.89	13883.18
389.10	14751.52
389.31	13102.90
389.52	10289.00
389.73	9166.71
389.93	8179.59
390.14	7571.34
390.35	6913.94
390.56	6178.72
390.77	5146.55
390.98	4067.27
391.18	3045.33
391.39	2357.21
391.60	2033.63
391.81	1902.56
392.02	1849.32
392.23	1990.63
392.43	1918.95
392.64	1896.42
392.85	1855.46
393.06	1906.66
393.27	1894.37
393.47	1734.63
393.68	1779.68
393.89	1861.60
394.10	1873.89
394.31	1767.40
394.52	1740.77
394.72	1748.97
394.93	1949.67
395.14	1720.29
395.35	1910.75
395.56	1804.26
395.76	1849.32
395.97	1886.18
396.18	1937.38
396.39	2031.58
396.60	2267.10
396.80	2111.46
397.01	1984.48
397.22	1974.24
397.43	2015.20
397.64	1882.08
397.84	1875.94
398.05	1996.77
398.26	1886.18
398.47	1906.66
398.67	1886.18
398.88	1873.89
399.09	1849.32
399.30	1822.69
399.51	1818.60
399.71	1728.49
399.92	1871.84
400.13	1796.07
400.34	1765.35
400.54	1828.84
400.75	1929.19
400.96	1894.37
401.17	1947.62
401.37	1843.17
401.58	1812.45
401.79	1794.02
402.00	1986.53
402.21	2181.09
402.41	2072.54
402.62	2189.28
402.83	2299.87
403.04	2277.34
403.24	2250.72
403.45	1943.52
403.66	2133.98
403.87	2064.35
404.07	2041.82
404.28	2058.21
404.49	2072.54
404.70	1923.04
404.90	1869.80
405.11	1818.60
405.32	1912.80
405.52	1757.16
405.73	1759.21
405.94	1738.73
406.15	1814.50
406.35	1824.74
406.56	1923.04
406.77	1837.03
406.98	1783.78
407.18	1765.35
407.39	1966.05
407.60	1875.94
407.80	1812.45
408.01	1777.64
408.22	1849.32
408.43	1802.21
408.63	1853.41
408.84	1873.89
409.05	1912.80
409.25	1775.59
409.46	1789.92
409.67	1802.21
409.88	1771.49
410.08	1853.41
410.29	1808.36
410.50	1847.27
410.70	1847.27
410.91	1656.81
411.12	1882.08
411.32	1798.12
411.53	1841.12
411.74	1945.57
411.95	1859.56
412.15	1939.43
412.36	1988.58
412.57	1916.90
412.77	1992.67
412.98	1843.17
413.19	1814.50
413.39	1886.18
413.60	1902.56
413.81	1927.14
414.01	1834.98
414.22	1875.94
414.43	1880.04
414.63	1841.12
414.84	1953.76
415.05	1949.67
415.25	1802.21
415.46	1837.03
415.67	1740.77
415.87	1890.28
416.08	1796.07
416.29	1775.59
416.49	1929.19
416.70	1755.11
416.91	1832.93
417.11	1746.92
417.32	1880.04
417.53	1890.28
417.73	1865.70
417.94	1859.56
418.15	1861.60
418.35	1742.82
418.56	1849.32
418.77	1953.76
418.97	1810.40
419.18	1695.72
419.38	1722.34
419.59	1781.73
419.80	1853.41
420.00	1857.51
420.21	1857.51
420.42	1910.75
420.62	1826.79
420.83	1796.07
421.04	1812.45
421.24	1824.74
421.45	1890.28
421.65	1777.64
421.86	1806.31
422.07	1810.40
422.27	1888.23
422.48	1798.12
422.69	1822.69
422.89	1810.40
423.10	1867.75
423.30	1748.97
423.51	1832.93
423.72	1820.64
423.92	1908.71
424.13	1828.84
424.33	1796.07
424.54	1892.32
424.75	1708.01
424.95	1943.52
425.16	1849.32
425.36	1828.84
425.57	1843.17
425.78	1863.65
425.98	1867.75
426.19	1789.92
426.39	1791.97
426.60	1818.60
426.81	2015.20
427.01	1873.89
427.22	1769.44
427.42	1644.52
427.63	1761.25
427.83	1910.75
428.04	1939.43
428.25	1820.64
428.45	1912.80
428.66	1886.18
428.86	1828.84
429.07	1757.16
429.28	1959.91
429.48	1771.49
429.69	1791.97
429.89	1849.32
430.10	1679.33
430.30	1851.36
430.51	1808.36
430.71	1775.59
430.92	1798.12
431.13	1810.40
431.33	1830.88
431.54	1857.51
431.74	1927.14
431.95	1949.67
432.15	1746.92
432.36	1812.45
432.56	1855.46
432.77	1898.47
432.98	2009.06
433.18	1834.98
433.39	1796.07
433.59	1771.49
433.80	1861.60
434.00	1953.76
434.21	1834.98
434.41	1787.88
434.62	1953.76
434.82	1802.21
435.03	1744.87
435.23	1853.41
435.44	1703.91
435.64	1865.70
435.85	1847.27
436.06	1902.56
436.26	1951.71
436.47	1875.94
436.67	1828.84
436.88	1808.36
437.08	1912.80
437.29	1908.71
437.49	1898.47
437.70	1906.66
437.90	1794.02
438.11	1959.91
438.31	1933.28
438.52	1984.48
438.72	1966.05
438.93	2164.70
439.13	1875.94
439.34	1984.48
439.54	1873.89
439.75	1910.75
439.95	1896.42
440.16	1814.50
440.36	1857.51
440.57	1865.70
440.77	1869.80
440.98	1800.16
441.18	1834.98
441.39	1800.16
441.59	1802.21
441.80	1964.00
442.00	1794.02
442.21	1961.95
442.41	1753.06
442.62	1814.50
442.82	1832.93
443.02	1804.26
443.23	1869.80
443.43	1818.60
443.64	1947.62
443.84	1816.55
444.05	1937.38
444.25	1814.50
444.46	1695.72
444.66	1763.30
444.87	1935.33
445.07	1728.49
445.28	1851.36
445.48	1959.91
445.69	1920.99
445.89	1988.58
446.09	1937.38
446.30	2074.59
446.50	2668.50
446.71	4181.95
446.91	5164.98
447.12	6053.80
447.32	6248.35
447.53	5693.35
447.73	4663.22
447.93	4169.66
448.14	3823.56
448.34	3514.31
448.55	3225.55
448.75	3211.22
448.96	3008.47
449.16	2754.52
449.36	2557.91
449.57	2260.96
449.77	1970.15
449.98	1918.95
450.18	1976.29
450.39	1996.77
450.59	1857.51
450.79	1736.68
451.00	1800.16
451.20	1880.04
451.41	1847.27
451.61	1888.23
451.81	1818.60
452.02	1824.74
452.22	1806.31
452.43	1746.92
452.63	1783.78
452.84	1863.65
453.04	1820.64
453.24	1822.69
453.45	1722.34
453.65	1808.36
453.86	1843.17
454.06	1839.08
454.26	1830.88
454.47	1794.02
454.67	1931.23
454.87	1798.12
455.08	1742.82
455.28	1990.63
455.49	1834.98
455.69	1744.87
455.89	1853.41
456.10	1875.94
456.30	1789.92
456.51	1951.71
456.71	1828.84
456.91	1898.47
457.12	1888.23
457.32	1871.84
457.52	1789.92
457.73	1857.51
457.93	1886.18
458.14	1759.21
458.34	1773.54
458.54	1781.73
458.75	1814.50
458.95	1886.18
459.15	1877.99
459.36	1847.27
459.56	1861.60
459.76	2035.68
459.97	1847.27
460.17	1828.84
460.37	1920.99
460.58	1865.70
460.78	1947.62
460.99	1775.59
461.19	1757.16
461.39	1832.93
461.60	1802.21
461.80	1918.95
462.00	1771.49
462.21	1806.31
462.41	1812.45
462.61	1800.16
462.82	1759.21
463.02	1892.32
463.22	1877.99
463.43	1914.85
463.63	1845.22
463.83	1918.95
464.04	1828.84
464.24	1902.56
464.44	1759.21
464.64	1837.03
464.85	1867.75
465.05	1871.84
465.25	1832.93
465.46	1828.84
465.66	1900.52
465.86	1890.28
466.07	1863.65
466.27	1810.40
466.47	1808.36
466.68	1701.86
466.88	1902.56
467.08	1818.60
467.29	1869.80
467.49	1826.79
467.69	1861.60
467.89	1855.46
468.10	1841.12
468.30	1834.98
468.50	1918.95
468.71	1904.61
468.91	1828.84
469.11	1898.47
469.31	1839.08
469.52	1798.12
469.72	1918.95
469.92	1939.43
470.13	1822.69
470.33	1802.21
470.53	1894.37
470.73	2269.15
470.94	2740.18
471.14	2797.53
471.34	3127.25
471.54	3102.67
471.75	2678.74
471.95	2541.53
472.15	2420.70
472.36	2355.16
472.56	2328.54
472.76	2351.07
472.96	2230.24
473.17	2166.75
473.37	2054.11
473.57	1972.19
473.77	1957.86
473.98	1869.80
474.18	1832.93
474.38	2041.82
474.58	1837.03
474.79	1738.73
474.99	1882.08
475.19	1904.61
475.39	1820.64
475.60	1802.21
475.80	1841.12
476.00	1861.60
476.20	1832.93
476.41	1865.70
476.61	2013.15
476.81	1937.38
477.01	1714.15
477.21	1976.29
477.42	1955.81
477.62	1814.50
477.82	1906.66
478.02	1742.82
478.23	1853.41
478.43	1755.11
478.63	1812.45
478.83	1824.74
479.03	1806.31
479.24	1892.32
479.44	1884.13
479.64	1816.55
479.84	1708.01
480.04	1824.74
480.25	1894.37
480.45	1761.25
480.65	1855.46
480.85	1857.51
481.06	1787.88
481.26	1783.78
481.46	1875.94
481.66	1849.32
481.86	1769.44
482.06	1847.27
482.27	1783.78
482.47	1832.93
482.67	1847.27
482.87	1746.92
483.07	1894.37
483.28	1828.84
483.48	1773.54
483.68	1785.83
483.88	1708.01
484.08	1628.14
484.29	1767.40
484.49	1798.12
484.69	1755.11
484.89	1894.37
485.09	1966.05
485.29	1857.51
485.50	1863.65
485.70	1869.80
485.90	1923.04
486.10	1853.41
486.30	1912.80
486.50	1898.47
486.71	1828.84
486.91	1853.41
487.11	1912.80
487.31	1787.88
487.51	1783.78
487.71	1814.50
487.91	1769.44
488.12	1773.54
488.32	1730.53
488.52	1765.35
488.72	1796.07
488.92	1851.36
489.12	1933.28
489.32	1865.70
489.53	1955.81
489.73	1734.63
489.93	1964.00
490.13	1775.59
490.33	1716.20
490.53	1900.52
490.73	1855.46
490.94	1728.49
491.14	1845.22
491.34	1890.28
491.54	2136.03
491.74	2754.52
491.94	3323.85
492.14	3639.24
492.34	3749.83
492.54	3327.95
492.75	2815.96
492.95	2736.09
493.15	2541.53
493.35	2439.13
493.55	2494.43
493.75	2349.02
493.95	2271.20
494.15	2183.13
494.35	2095.07
494.56	2033.63
494.76	1880.04
494.96	1957.86
495.16	1900.52
495.36	1828.84
495.56	1841.12
495.76	1810.40
495.96	1875.94
496.16	1800.16
496.36	1939.43
496.56	1830.88
496.77	1808.36
496.97	1810.40
497.17	1884.13
497.37	1785.83
497.57	1857.51
497.77	1841.12
497.97	1824.74
498.17	1816.55
498.37	1810.40
498.57	1812.45
498.77	1777.64
498.97	1845.22
499.17	2000.87
499.38	1812.45
499.58	1849.32
499.78	1916.90
499.98	1949.67
500.18	1794.02
500.38	1830.88
500.58	1972.19
500.78	2361.31
500.98	4710.33
501.18	6862.74
501.38	8554.37
501.58	9418.61
501.78	9168.76
501.98	7214.99
502.18	5947.30
502.38	5187.50
502.58	4743.10
502.78	4247.49
502.98	4177.86
503.18	3989.44
503.38	3495.88
503.59	3225.55
503.79	3051.47
503.99	2713.56
504.19	2441.18
504.39	2469.85
504.59	2553.82
504.79	2492.38
504.99	2510.81
505.19	2084.83
505.39	2097.12
505.59	2197.47
505.79	2068.45
505.99	2103.26
506.19	1939.43
506.39	2045.92
506.59	1937.38
506.79	1908.71
506.99	1935.33
507.19	1863.65
507.39	1859.56
507.59	1830.88
507.79	1828.84
507.99	1781.73
508.19	1794.02
508.39	1771.49
508.59	1802.21
508.79	1918.95
508.99	2047.97
509.19	1789.92
509.39	1886.18
509.59	1837.03
509.79	1820.64
509.99	1857.51
510.19	1935.33
510.39	1935.33
510.59	1849.32
510.79	1814.50
510.99	1810.40
511.19	1877.99
511.39	1955.81
511.59	1818.60
511.79	1898.47
511.99	1906.66
512.19	1992.67
512.38	1814.50
512.58	1791.97
512.78	1853.41
512.98	1904.61
513.18	2009.06
513.38	1691.62
513.58	1849.32
513.78	1804.26
513.98	1771.49
514.18	1837.03
514.38	1800.16
514.58	1931.23
514.78	1841.12
514.98	1779.68
515.18	1869.80
515.38	1826.79
515.58	2029.54
515.78	1808.36
515.98	1837.03
516.18	1865.70
516.38	1806.31
516.57	1742.82
516.77	1877.99
516.97	1912.80
517.17	1798.12
517.37	1724.39
517.57	1910.75
517.77	1845.22
517.97	1814.50
518.17	1875.94
518.37	1820.64
518.57	1765.35
518.77	1781.73
518.97	1863.65
519.16	1824.74
519.36	1892.32
519.56	1812.45
519.76	1880.04
519.96	1918.95
520.16	1980.39
520.36	1855.46
520.56	1996.77
520.76	1783.78
520.96	1834.98
521.16	1925.09
521.35	1994.72
521.55	1904.61
521.75	1824.74
521.95	1808.36
522.15	1865.70
522.35	1834.98
522.55	1802.21
522.75	1884.13
522.95	1767.40
523.14	1816.55
523.34	1853.41
523.54	1853.41
523.74	1826.79
523.94	1839.08
524.14	1771.49
524.34	1873.89
524.54	1939.43
524.73	1845.22
524.93	1918.95
525.13	1818.60
525.33	1791.97
525.53	1947.62
525.73	1845.22
525.93	1763.30
526.13	1802.21
526.32	1841.12
526.52	1902.56
526.72	1906.66
526.92	1839.08
527.12	1847.27
527.32	1642.47
527.52	1914.85
527.71	1804.26
527.91	1861.60
528.11	1837.03
528.31	1867.75
528.51	1759.21
528.71	1951.71
528.90	1810.40
529.10	1869.80
529.30	1947.62
529.50	1751.01
529.70	1865.70
529.90	1861.60
530.09	1832.93
530.29	1787.88
530.49	1738.73
530.69	1996.77
530.89	1816.55
531.09	1855.46
531.28	1791.97
531.48	1945.57
531.68	1867.75
531.88	1857.51
532.08	1925.09
532.28	1796.07
532.47	1822.69
532.67	1923.04
532.87	1916.90
533.07	1871.84
533.27	1912.80
533.46	1892.32
533.66	1933.28
533.86	1826.79
534.06	1912.80
534.26	2019.30
534.45	1896.42
534.65	1949.67
534.85	1857.51
535.05	1822.69
535.25	1931.23
535.44	1798.12
535.64	1869.80
535.84	1816.55
536.04	1808.36
536.24	1857.51
536.43	1738.73
536.63	1796.07
536.83	1847.27
537.03	1859.56
537.22	1779.68
537.42	1699.81
537.62	1877.99
537.82	1851.36
538.02	1880.04
538.21	1933.28
538.41	2052.06
538.61	1830.88
538.81	1810.40
539.00	1959.91
539.20	1785.83
539.40	1839.08
539.60	1908.71
539.79	1890.28
539.99	1861.60
540.19	1787.88
540.39	1832.93
540.58	1877.99
540.78	1904.61
540.98	1867.75
541.18	1953.76
541.37	1832.93
541.57	1863.65
541.77	1800.16
541.97	1818.60
542.16	1675.24
542.36	1798.12
542.56	1873.89
542.76	1925.09
542.95	1873.89
543.15	1937.38
543.35	1830.88
543.54	1769.44
543.74	1775.59
543.94	1900.52
544.14	1814.50
544.33	1886.18
544.53	1837.03
544.73	1765.35
544.93	1746.92
545.12	1798.12
545.32	1892.32
545.52	1791.97
545.71	1834.98
545.91	1804.26
546.11	1771.49
546.30	1800.16
546.50	1959.91
546.70	1896.42
546.90	1875.94
547.09	1722.34
547.29	1810.40
547.49	1877.99
547.68	1863.65
547.88	1857.51
548.08	1877.99
548.27	2316.25
548.47	1806.31
548.67	1822.69
548.87	1902.56
549.06	1757.16
549.26	1892.32
549.46	1904.61
549.65	1859.56
549.85	1779.68
550.05	1880.04
550.24	1687.53
550.44	1916.90
550.64	1810.40
550.83	1834.98
551.03	1904.61
551.23	1947.62
551.42	1912.80
551.62	1789.92
551.82	1871.84
552.01	1830.88
552.21	1943.52
552.41	1808.36
552.60	1939.43
552.80	1863.65
553.00	1781.73
553.19	1880.04
553.39	1972.19
553.59	1775.59
553.78	1839.08
553.98	1802.21
554.17	1771.49
554.37	1859.56
554.57	1832.93
554.76	1765.35
554.96	1789.92
555.16	1904.61
555.35	1736.68
555.55	1900.52
555.75	1824.74
555.94	1918.95
556.14	1832.93
556.33	1867.75
556.53	1851.36
556.73	1875.94
556.92	1861.60
557.12	1880.04
557.32	1964.00
557.51	1910.75
557.71	1834.98
557.90	1886.18
558.10	1904.61
558.30	1826.79
558.49	1816.55
558.69	1845.22
558.88	1841.12
559.08	1851.36
559.28	1824.74
559.47	1845.22
559.67	1898.47
559.86	1998.82
560.06	1880.04
560.26	1800.16
560.45	1847.27
560.65	1816.55
560.84	1943.52
561.04	1816.55
561.24	1890.28
561.43	1837.03
561.63	1961.95
561.82	1869.80
562.02	1880.04
562.22	1744.87
562.41	1789.92
562.61	1834.98
562.80	1769.44
563.00	1974.24
563.19	1796.07
563.39	1908.71
563.59	1894.37
563.78	1775.59
563.98	1771.49
564.17	1730.53
564.37	1783.78
564.56	1820.64
564.76	1695.72
564.96	1941.47
565.15	1810.40
565.35	2011.11
565.54	1726.44
565.74	1890.28
565.93	1767.40
566.13	1816.55
566.32	1884.13
566.52	1798.12
566.71	1845.22
566.91	1853.41
567.11	1929.19
567.30	1802.21
567.50	1875.94
567.69	1832.93
567.89	1847.27
568.08	1857.51
568.28	1834.98
568.47	1769.44
568.67	1888.23
568.86	1839.08
569.06	1970.15
569.25	1800.16
569.45	1742.82
569.64	1839.08
569.84	1804.26
570.04	1824.74
570.23	1855.46
570.43	1785.83
570.62	1914.85
570.82	1920.99
571.01	1818.60
571.21	1746.92
571.40	1800.16
571.60	1894.37
571.79	1873.89
571.99	1859.56
572.18	1671.14
572.38	1867.75
572.57	1802.21
572.77	1910.75
572.96	1982.43
573.16	1847.27
573.35	1814.50
573.55	1896.42
573.74	1871.84
573.94	1871.84
574.13	1806.31
574.33	1929.19
574.52	1947.62
574.71	1914.85
574.91	1912.80
575.10	1918.95
575.30	1859.56
575.49	1832.93
575.69	1800.16
575.88	1898.47
576.08	1908.71
576.27	1976.29
576.47	1896.42
576.66	2041.82
576.86	1935.33
577.05	1875.94
577.25	1984.48
577.44	2072.54
577.64	1890.28
577.83	1908.71
578.02	1828.84
578.22	1992.67
578.41	1968.10
578.61	1816.55
578.80	1714.15
579.00	1853.41
579.19	1847.27
579.39	1916.90
579.58	1937.38
579.77	1845.22
579.97	1951.71
580.16	1959.91
580.36	1849.32
580.55	1935.33
580.75	1896.42
580.94	1890.28
581.13	1939.43
581.33	1959.91
581.52	1916.90
581.72	1996.77
581.91	2058.21
582.11	1845.22
582.30	1941.47
582.49	1847.27
582.69	1996.77
582.88	1959.91
583.08	1875.94
583.27	1959.91
583.47	1918.95
583.66	1839.08
583.85	1783.78
584.05	1886.18
584.24	1951.71
584.44	1843.17
584.63	1902.56
584.82	2031.58
585.02	2021.35
585.21	2078.69
585.41	2033.63
585.60	2011.11
585.79	2119.65
585.99	2074.59
586.18	2033.63
586.37	2361.31
586.57	3692.49
586.76	10737.50
586.96	28816.97
587.15	43230.57
587.34	53232.85
587.54	59294.84
587.73	55876.78
587.93	40068.51
588.12	29775.42
588.31	24237.71
588.51	20600.52
588.70	18783.97
588.89	17387.25
589.09	15177.50
589.28	13492.02
589.47	11134.81
589.67	9205.62
589.86	6987.67
590.06	5191.60
590.25	3895.24
590.44	3157.97
590.64	2662.36
590.83	2244.57
591.02	2078.69
591.22	1966.05
591.41	1992.67
591.60	1972.19
591.80	2144.22
591.99	1775.59
592.18	1828.84
592.38	1920.99
592.57	1902.56
592.76	1892.32
592.96	1957.86
593.15	1843.17
593.34	1931.23
593.54	1857.51
593.73	1927.14
593.92	1947.62
594.12	1902.56
594.31	1951.71
594.50	2037.73
594.70	1927.14
594.89	2054.11
595.08	1828.84
595.28	1900.52
595.47	2009.06
595.66	1923.04
595.86	1771.49
596.05	1855.46
596.24	1841.12
596.43	1951.71
596.63	1890.28
596.82	1925.09
597.01	1925.09
597.21	2041.82
597.40	1884.13
597.59	1904.61
597.79	1900.52
597.98	1947.62
598.17	1841.12
598.36	1949.67
598.56	1923.04
598.75	1875.94
598.94	1880.04
599.14	1882.08
599.33	1828.84
599.52	1957.86
599.71	1886.18
599.91	1949.67
600.10	1884.13
600.29	1849.32
600.48	1906.66
600.68	1857.51
600.87	1849.32
601.06	1800.16
601.26	1894.37
601.45	1916.90
601.64	1847.27
601.83	1974.24
602.03	1837.03
602.22	1804.26
602.41	1920.99
602.60	2050.02
602.80	1918.95
602.99	1898.47
603.18	1898.47
603.37	1851.36
603.57	1857.51
603.76	1875.94
603.95	1925.09
604.14	1800.16
604.34	1890.28
604.53	1763.30
604.72	1857.51
604.91	1832.93
605.10	1800.16
605.30	1773.54
605.49	1984.48
605.68	1882.08
605.87	1912.80
606.07	1705.96
606.26	1802.21
606.45	1916.90
606.64	1886.18
606.84	1826.79
607.03	1898.47
607.22	1935.33
607.41	1841.12
607.60	1877.99
607.80	1937.38
607.99	1886.18
608.18	1884.13
608.37	1875.94
608.56	1820.64
608.76	1941.47
608.95	1947.62
609.14	1896.42
609.33	2025.44
609.52	2000.87
609.72	2009.06
609.91	1886.18
610.10	1931.23
610.29	1986.53
610.48	1920.99
610.68	1945.57
610.87	1882.08
611.06	1896.42
611.25	1802.21
611.44	1964.00
611.63	1857.51
611.83	2035.68
612.02	1800.16
612.21	1920.99
612.40	1710.05
612.59	1724.39
612.79	1781.73
612.98	1863.65
613.17	1986.53
613.36	1857.51
613.55	1957.86
613.74	1935.33
613.93	2041.82
614.13	2054.11
614.32	2058.21
614.51	2129.89
614.70	2000.87
614.89	1966.05
615.08	1996.77
615.28	2328.54
615.47	1843.17
615.66	1959.91
615.85	1941.47
616.04	2023.39
616.23	1927.14
616.42	1927.14
616.62	1923.04
616.81	1886.18
617.00	1845.22
617.19	1916.90
617.38	1853.41
617.57	1791.97
617.76	1931.23
617.95	1855.46
618.15	1867.75
618.34	1984.48
618.53	1767.40
618.72	1927.14
618.91	1994.72
619.10	2013.15
619.29	1841.12
619.48	1837.03
619.68	1847.27
619.87	1820.64
620.06	1763.30
620.25	1767.40
620.44	1843.17
620.63	1851.36
620.82	1845.22
621.01	1877.99
621.20	1863.65
621.39	1882.08
621.59	1865.70
621.78	1845.22
621.97	1824.74
622.16	1853.41
622.35	1843.17
622.54	1898.47
622.73	1947.62
622.92	1724.39
623.11	1898.47
623.30	1873.89
623.49	1837.03
623.68	1828.84
623.88	1890.28
624.07	1794.02
624.26	1810.40
624.45	1871.84
624.64	1773.54
624.83	1886.18
625.02	1861.60
625.21	1902.56
625.40	1777.64
625.59	1906.66
625.78	1820.64
625.97	1933.28
626.16	1953.76
626.35	2025.44
626.54	1990.63
626.74	1978.34
626.93	1955.81
627.12	1834.98
627.31	1925.09
627.50	1853.41
627.69	1873.89
627.88	1841.12
628.07	1769.44
628.26	1701.86
628.45	1775.59
628.64	1783.78
628.83	1849.32
629.02	1787.88
629.21	1857.51
629.40	1834.98
629.59	1828.84
629.78	1806.31
629.97	1808.36
630.16	1894.37
630.35	1787.88
630.54	1828.84
630.73	1830.88
630.92	1869.80
631.11	1875.94
631.30	1902.56
631.49	1920.99
631.68	1851.36
631.87	1853.41
632.06	1810.40
632.25	2029.54
632.44	1855.46
632.63	1880.04
632.82	1908.71
633.01	1873.89
633.20	1931.23
633.39	1916.90
633.58	1820.64
633.77	1867.75
633.96	1945.57
634.15	1918.95
634.34	1996.77
634.53	1894.37
634.72	1863.65
634.91	1734.63
635.10	1894.37
635.29	1832.93
635.48	1855.46
635.67	1818.60
635.86	1697.77
636.05	1884.13
636.24	1849.32
636.43	1773.54
636.62	1912.80
636.81	1685.48
637.00	1855.46
637.19	1914.85
637.38	1796.07
637.57	1845.22
637.76	1871.84
637.95	1994.72
638.14	1937.38
638.33	1927.14
638.52	1974.24
638.71	1859.56
638.89	1871.84
639.08	2056.16
639.27	1974.24
639.46	2029.54
639.65	2414.56
639.84	2383.84
640.03	2576.34
640.22	2506.71
640.41	2539.48
640.60	2140.13
640.79	2183.13
640.98	2062.30
641.17	2056.16
641.36	1939.43
641.55	2052.06
641.74	1896.42
641.92	1853.41
642.11	1886.18
642.30	1886.18
642.49	1781.73
642.68	1845.22
642.87	1843.17
643.06	1863.65
643.25	1748.97
643.44	1800.16
643.63	1818.60
643.82	1849.32
644.00	1767.40
644.19	1763.30
644.38	1720.29
644.57	1818.60
644.76	1884.13
644.95	1839.08
645.14	1818.60
645.33	1789.92
645.52	1820.64
645.71	1714.15
645.89	1806.31
646.08	1783.78
646.27	1822.69
646.46	1947.62
646.65	1753.06
646.84	1789.92
647.03	1687.53
647.22	1974.24
647.40	1812.45
647.59	1851.36
647.78	1777.64
647.97	1826.79
648.16	1761.25
648.35	1857.51
648.54	1824.74
648.73	1796.07
648.91	1882.08
649.10	1753.06
649.29	1765.35
649.48	1816.55
649.67	1961.95
649.86	1861.60
650.05	1812.45
650.23	2052.06
650.42	1845.22
650.61	2133.98
650.80	1974.24
650.99	2084.83
651.18	1933.28
651.36	1984.48
651.55	1845.22
651.74	1920.99
651.93	1822.69
652.12	1871.84
652.31	1929.19
652.49	1820.64
652.68	1847.27
652.87	1910.75
653.06	1896.42
653.25	2009.06
653.44	1880.04
653.62	1943.52
653.81	1896.42
654.00	1820.64
654.19	1925.09
654.38	2009.06
654.56	1873.89
654.75	1824.74
654.94	1882.08
655.13	1820.64
655.32	1845.22
655.51	1857.51
655.69	1841.12
655.88	1884.13
656.07	1775.59
656.26	1890.28
656.45	1751.01
656.63	1853.41
656.82	1855.46
657.01	1884.13
657.20	1787.88
657.38	1867.75
657.57	1818.60
657.76	1732.58
657.95	1853.41
658.14	1787.88
658.32	1861.60
658.51	1767.40
658.70	1798.12
658.89	1816.55
659.08	1783.78
659.26	2017.25
659.45	1808.36
659.64	1929.19
659.83	1865.70
660.01	2113.50
660.20	1832.93
660.39	1966.05
660.58	1718.25
660.76	1871.84
660.95	1751.01
661.14	1861.60
661.33	1714.15
661.51	1730.53
661.70	1841.12
661.89	1861.60
662.08	1841.12
662.26	1808.36
662.45	1773.54
662.64	1970.15
662.83	1822.69
663.01	1722.34
663.20	1800.16
663.39	1966.05
663.58	1816.55
663.76	1818.60
663.95	1920.99
664.14	1804.26
664.32	1816.55
664.51	1841.12
664.70	1728.49
664.89	1828.84
665.07	1718.25
665.26	1929.19
665.45	1791.97
665.64	1916.90
665.82	1753.06
666.01	1886.18
666.20	1816.55
666.38	1937.38
666.57	1982.43
666.76	2488.28
666.95	5543.85
667.13	13246.26
667.32	19756.75
667.51	23735.96
667.69	26181.23
667.88	25706.10
668.07	19148.51
668.25	14440.23
668.44	11962.19
668.63	10041.19
668.81	8744.83
669.00	7720.84
669.19	7014.29
669.38	6217.63
669.56	5203.89
669.75	4366.27
669.94	3751.88
670.12	3008.47
670.31	2648.02
670.50	2428.89
670.68	2140.13
670.87	2058.21
671.06	1947.62
671.24	1939.43
671.43	1968.10
671.62	1964.00
671.80	1804.26
671.99	1867.75
672.18	1947.62
672.36	1896.42
672.55	1843.17
672.74	1865.70
672.92	1818.60
673.11	1892.32
673.29	1814.50
673.48	1859.56
673.67	1783.78
673.85	1923.04
674.04	1863.65
674.23	1898.47
674.41	1927.14
674.60	1716.20
674.79	1730.53
674.97	1753.06
675.16	1845.22
675.34	1914.85
675.53	1789.92
675.72	1886.18
675.90	1916.90
676.09	1785.83
676.28	1894.37
676.46	1785.83
676.65	1855.46
676.83	1744.87
677.02	1791.97
677.21	1834.98
677.39	1824.74
677.58	1820.64
677.77	1826.79
677.95	1814.50
678.14	1759.21
678.32	1847.27
678.51	1818.60
678.70	1978.34
678.88	1847.27
679.07	1869.80
679.25	1832.93
679.44	1845.22
679.63	1734.63
679.81	1775.59
680.00	1877.99
680.18	1765.35
680.37	1886.18
680.55	1789.92
680.74	1820.64
680.93	1662.95
681.11	1832.93
681.30	1841.12
681.48	1789.92
681.67	1796.07
681.85	1898.47
682.04	1701.86
682.23	1910.75
682.41	1773.54
682.60	1779.68
682.78	1812.45
682.97	1714.15
683.15	1824.74
683.34	1837.03
683.53	1892.32
683.71	1763.30
683.90	1898.47
684.08	1865.70
684.27	1771.49
684.45	1904.61
684.64	1918.95
684.82	1699.81
685.01	1904.61
685.19	1818.60
685.38	1916.90
685.57	1826.79
685.75	1841.12
685.94	1779.68
686.12	1794.02
686.31	1800.16
686.49	1968.10
686.68	1714.15
686.86	1884.13
687.05	1785.83
687.23	1892.32
687.42	1779.68
687.60	1806.31
687.79	1851.36
687.97	1912.80
688.16	1865.70
688.34	1896.42
688.53	1640.42
688.71	1845.22
688.90	1906.66
689.08	1789.92
689.27	1767.40
689.45	1798.12
689.64	1837.03
689.82	1888.23
690.01	1867.75
690.19	1791.97
690.38	1851.36
690.56	1916.90
690.75	1791.97
690.93	1751.01
691.12	1732.58
691.30	1810.40
691.49	1843.17
691.67	1857.51
691.86	1949.67
692.04	1716.20
692.23	1802.21
692.41	1871.84
692.60	2119.65
692.78	1966.05
692.97	1869.80
693.15	1894.37
693.34	1880.04
693.52	1920.99
693.71	1828.84
693.89	1834.98
694.08	1665.00
694.26	1839.08
694.44	1902.56
694.63	1869.80
694.81	1699.81
695.00	1746.92
695.18	1820.64
695.37	1988.58
695.55	1857.51
695.74	1787.88
695.92	1753.06
696.10	1925.09
696.29	1761.25
696.47	1822.69
696.66	1714.15
696.84	1718.25
697.03	1841.12
697.21	1941.47
697.40	2541.53
697.58	1832.93
697.76	1693.67
697.95	1751.01
698.13	1734.63
698.32	1824.74
698.50	1869.80
698.68	1832.93
698.87	1834.98
699.05	1882.08
699.24	1847.27
699.42	1812.45
699.61	1916.90
699.79	1789.92
699.97	1822.69
700.16	1742.82
700.34	1869.80
700.53	1927.14
700.71	1959.91
700.89	1935.33
701.08	1812.45
701.26	1904.61
701.45	2271.20
701.63	1763.30
701.81	1771.49
702.00	1869.80
702.18	1796.07
702.37	1830.88
702.55	1970.15
702.73	2017.25
702.92	1984.48
703.10	2209.76
703.28	2072.54
703.47	1964.00
703.65	2007.01
703.84	1992.67
704.02	1880.04
704.20	1933.28
704.39	1830.88
704.57	1873.89
704.75	1918.95
704.94	1933.28
705.12	1894.37
705.30	1996.77
705.49	2893.78
705.67	7237.52
705.86	15777.55
706.04	21311.16
706.22	24950.40
706.41	27063.91
706.59	25409.15
706.77	18661.09
706.96	14200.62
707.14	12248.90
707.32	10450.78
707.51	9283.44
707.69	8046.47
707.87	6700.95
708.06	5316.53
708.24	4181.95
708.42	3336.14
708.61	2754.52
708.79	2230.24
708.97	2109.41
709.16	2047.97
709.34	1984.48
709.52	1900.52
709.71	1961.95
709.89	1892.32
710.07	1814.50
710.26	1845.22
710.44	1830.88
710.62	1908.71
710.80	1888.23
710.99	1884.13
711.17	1886.18
711.35	1832.93
711.54	1742.82
711.72	1849.32
711.90	1832.93
712.09	1832.93
712.27	1720.29
712.45	1740.77
712.63	1781.73
712.82	1906.66
713.00	1814.50
713.18	1853.41
713.37	1837.03
713.55	1959.91
713.73	1853.41
713.91	1867.75
714.10	1796.07
714.28	1806.31
714.46	1822.69
714.65	1804.26
714.83	1845.22
715.01	1769.44
715.19	1918.95
715.38	1791.97
715.56	1861.60
715.74	1800.16
715.92	1781.73
716.11	1961.95
716.29	1646.57
716.47	1775.59
716.65	1832.93
716.84	1796.07
717.02	1923.04
717.20	1740.77
717.38	1775.59
717.57	1841.12
717.75	1863.65
717.93	1865.70
718.11	1812.45
718.30	1718.25
718.48	1832.93
718.66	1906.66
718.84	1875.94
719.03	1918.95
719.21	1730.53
719.39	1972.19
719.57	1812.45
719.75	1859.56
719.94	1746.92
720.12	1767.40
720.30	1902.56
720.48	1834.98
720.67	1787.88
720.85	1673.19
721.03	1851.36
721.21	1769.44
721.39	1927.14
721.58	1816.55
721.76	1826.79
721.94	1894.37
722.12	1861.60
722.30	1888.23
722.49	1769.44
722.67	1853.41
722.85	1918.95
723.03	1695.72
723.21	1740.77
723.40	1820.64
723.58	1884.13
723.76	1828.84
723.94	1947.62
724.12	1890.28
724.30	2017.25
724.49	1918.95
724.67	1964.00
724.85	1974.24
725.03	1724.39
725.21	1902.56
725.40	1900.52
725.58	1828.84
725.76	1902.56
725.94	1906.66
726.12	1775.59
726.30	1763.30
726.49	1941.47
726.67	1853.41
726.85	1925.09
727.03	1988.58
727.21	2697.17
727.39	4128.70
727.57	5558.19
727.76	6205.35
727.94	6780.82
728.12	6743.96
728.30	5883.81
728.48	4581.31
728.66	4237.25
728.84	3719.11
729.03	3313.61
729.21	2914.26
729.39	2537.43
729.57	2154.46
729.75	2080.74
729.93	2009.06
730.11	1916.90
730.30	1814.50
730.48	1816.55
730.66	1955.81
730.84	1939.43
731.02	1800.16
731.20	1810.40
731.38	1783.78
731.56	1738.73
731.74	1757.16
731.93	1884.13
732.11	1740.77
732.29	1775.59
732.47	1800.16
732.65	1849.32
732.83	1861.60
733.01	1820.64
733.19	1705.96
733.37	1859.56
733.56	1789.92
733.74	1808.36
733.92	1910.75
734.10	1753.06
734.28	1859.56
734.46	1689.57
734.64	1734.63
734.82	1869.80
735.00	1757.16
735.18	1789.92
735.36	1814.50
735.54	1826.79
735.73	1830.88
735.91	1853.41
736.09	1880.04
736.27	1861.60
736.45	1873.89
736.63	1665.00
736.81	1757.16
736.99	1843.17
737.17	1931.23
737.35	1824.74
737.53	1820.64
737.71	1798.12
737.89	1867.75
738.07	1736.68
738.25	1757.16
738.43	1720.29
738.61	1839.08
738.80	1710.05
738.98	1798.12
739.16	1785.83
739.34	1806.31
739.52	1857.51
739.70	1800.16
739.88	1886.18
740.06	1830.88
740.24	1693.67
740.42	1906.66
740.60	1720.29
740.78	1769.44
740.96	1718.25
741.14	1767.40
741.32	1855.46
741.50	1730.53
741.68	2066.40
741.86	1800.16
742.04	1679.33
742.22	1773.54
742.40	1935.33
742.58	1847.27
742.76	1810.40
742.94	1865.70
743.12	1757.16
743.30	1789.92
743.48	1947.62
743.66	1843.17
743.84	1847.27
744.02	1789.92
744.20	1765.35
744.38	1789.92
744.56	1779.68
744.74	1920.99
744.92	1890.28
745.10	1863.65
745.28	1873.89
745.46	1894.37
745.64	1789.92
745.82	1861.60
746.00	1834.98
746.18	1791.97
746.36	1871.84
746.54	1798.12
746.72	1882.08
746.90	1675.24
747.08	1871.84
747.26	1775.59
747.44	1834.98
747.62	1877.99
747.80	1882.08
747.98	1834.98
748.15	1951.71
748.33	1951.71
748.51	1812.45
748.69	1918.95
748.87	1789.92
749.05	1882.08
749.23	1771.49
749.41	1886.18
749.59	1812.45
749.77	1882.08
749.95	1814.50
750.13	1781.73
750.31	1892.32
750.49	1812.45
750.67	1888.23
750.85	1933.28
751.03	1808.36
751.20	1955.81
751.38	1802.21
751.56	1828.84
751.74	1834.98
751.92	1746.92
752.10	1730.53
752.28	1949.67
752.46	1744.87
752.64	1843.17
752.82	1816.55
753.00	1943.52
753.18	1755.11
753.35	1880.04
753.53	1886.18
753.71	1839.08
753.89	1916.90
754.07	1841.12
754.25	1820.64
754.43	1898.47
754.61	1722.34
754.79	1861.60
754.97	1877.99
755.14	1941.47
755.32	1740.77
755.50	1855.46
755.68	1902.56
755.86	1736.68
756.04	1777.64
756.22	1738.73
756.40	1855.46
756.57	1896.42
756.75	1773.54
756.93	1900.52
757.11	1828.84
757.29	1783.78
757.47	1789.92
757.65	1808.36
757.82	1726.44
758.00	1785.83
758.18	1775.59
758.36	1818.60
758.54	1943.52
758.72	1757.16
758.90	1918.95
759.07	1826.79
759.25	1677.29
759.43	1937.38
759.61	1738.73
759.79	2349.02
759.97	1935.33
760.15	1777.64
760.32	1718.25
760.50	1857.51
760.68	1884.13
760.86	1761.25
761.04	1906.66
761.22	1845.22
761.39	1757.16
761.57	1880.04
761.75	1785.83
761.93	1808.36
762.11	1785.83
762.28	1861.60
762.46	1716.20
762.64	1896.42
762.82	1810.40
763.00	1832.93
763.18	1890.28
763.35	1720.29
763.53	1779.68
763.71	1853.41
763.89	1767.40
764.07	1732.58
764.24	1851.36
764.42	1927.14
764.60	1757.16
764.78	1816.55
764.96	1824.74
765.13	1826.79
765.31	1771.49
765.49	1812.45
765.67	1740.77
765.84	1777.64
766.02	1832.93
766.20	1701.86
766.38	1910.75
766.56	1853.41
766.73	1877.99
766.91	1820.64
767.09	1865.70
767.27	1867.75
767.44	1744.87
767.62	1830.88
767.80	1853.41
767.98	1765.35
768.15	1806.31
768.33	1927.14
768.51	1843.17
768.69	1916.90
768.87	1839.08
769.04	1812.45
769.22	1925.09
769.40	1857.51
769.58	1976.29
769.75	1839.08
769.93	1896.42
770.11	1781.73
770.28	1773.54
770.46	1853.41
770.64	1904.61
770.82	1800.16
770.99	1771.49
771.17	1775.59
771.35	1812.45
771.53	1824.74
771.70	1744.87
771.88	1890.28
772.06	1832.93
772.23	1853.41
772.41	1849.32
772.59	1798.12
772.77	1757.16
772.94	1775.59
773.12	1861.60
773.30	1810.40
773.47	1863.65
773.65	1728.49
773.83	1869.80
774.01	1779.68
774.18	1804.26
774.36	1841.12
774.54	1718.25
774.71	1769.44
774.89	1699.81
775.07	1720.29
775.24	1771.49
775.42	1708.01
775.60	1992.67
775.78	1722.34
775.95	1791.97
776.13	1710.05
776.31	1673.19
776.48	1914.85
776.66	1886.18
776.84	1822.69
777.01	1710.05
777.19	1746.92
777.37	1697.77
777.54	1861.60
777.72	1912.80
777.90	1783.78
778.07	1751.01
778.25	1970.15
778.43	1853.41
778.60	1748.97
778.78	1912.80
778.96	1945.57
779.13	1730.53
779.31	1914.85
779.49	1763.30
779.66	1824.74
779.84	1791.97
780.01	1800.16
780.19	1789.92
780.37	1898.47
780.54	1816.55
780.72	1794.02
780.90	1884.13
781.07	1812.45
781.25	1773.54
781.43	1869.80
781.60	1810.40
781.78	1927.14
781.95	1775.59
782.13	1751.01
782.31	1826.79
782.48	1755.11
782.66	1873.89
782.83	1869.80
783.01	1873.89
783.19	1929.19
783.36	1773.54
783.54	1685.48
783.72	1855.46
783.89	1728.49
784.07	1794.02
784.24	1820.64
784.42	1796.07
784.60	1843.17
784.77	1871.84
784.95	1716.20
785.12	1751.01
785.30	1828.84
785.47	1755.11
785.65	1734.63
785.83	1849.32
786.00	1720.29
786.18	1875.94
786.35	1791.97
786.53	1767.40
786.71	1865.70
786.88	1918.95
787.06	1884.13
787.23	1853.41
787.41	1716.20
787.58	1802.21
787.76	1742.82
787.94	1882.08
788.11	1863.65
788.29	1800.16
788.46	1771.49
788.64	1728.49
788.81	1777.64
788.99	1804.26
789.16	1763.30
789.34	1779.68
789.52	1724.39
789.69	1746.92
789.87	1712.10
790.04	1714.15
790.22	1779.68
790.39	1990.63
790.57	1794.02
790.74	1814.50
790.92	1933.28
791.09	1695.72
791.27	1804.26
791.44	1859.56
791.62	1765.35
791.79	1877.99
791.97	1877.99
792.15	2084.83
792.32	1884.13
792.50	1828.84
792.67	1947.62
792.85	1888.23
793.02	1857.51
793.20	1757.16
793.37	1689.57
793.55	1800.16
793.72	1802.21
793.90	1753.06
794.07	1763.30
794.25	1724.39
794.42	1839.08
794.60	1822.69
794.77	1845.22
794.95	1738.73
795.12	1943.52
795.30	1814.50
795.47	1705.96
795.65	1935.33
795.82	1877.99
796.00	1822.69
796.17	1808.36
796.34	1800.16
796.52	1923.04
796.69	1873.89
796.87	1884.13
797.04	1888.23
797.22	1804.26
797.39	1824.74
797.57	1812.45
797.74	1843.17
797.92	1791.97
798.09	1818.60
798.27	1863.65
798.44	1812.45
798.62	1787.88
798.79	1855.46
798.96	1800.16
799.14	1740.77
799.31	2015.20
799.49	1830.88
799.66	1755.11
799.84	1830.88
800.01	1769.44
800.19	1898.47
800.36	1720.29
800.53	1839.08
800.71	1810.40
800.88	1935.33
801.06	1761.25
801.23	1761.25
801.41	1832.93
801.58	1789.92
801.75	1691.62
801.93	1869.80
802.10	1894.37
802.28	1781.73
802.45	1767.40
802.63	1886.18
802.80	1875.94
802.97	1734.63
803.15	1861.60
803.32	1806.31
803.50	1744.87
803.67	1769.44
803.84	1724.39
804.02	1837.03
804.19	1886.18
804.37	1722.34
804.54	1619.94
804.71	1832.93
804.89	1757.16
805.06	1798.12
805.24	1761.25
805.41	1771.49
805.58	1765.35
805.76	1988.58
805.93	1798.12
806.10	1869.80
806.28	1828.84
806.45	1755.11
806.63	1808.36
806.80	1857.51
806.97	1828.84
807.15	1802.21
807.32	1808.36
807.49	1798.12
807.67	1777.64
807.84	1888.23
808.01	1755.11
808.19	1873.89
808.36	1986.53
808.54	1779.68
808.71	1789.92
808.88	1794.02
809.06	1886.18
809.23	1839.08
809.40	1779.68
809.58	1857.51
809.75	1773.54
809.92	1699.81
810.10	1980.39
810.27	1810.40
810.44	1814.50
810.62	1851.36
810.79	1841.12
810.96	1816.55
811.14	1753.06
811.31	1845.22
811.48	1857.51
811.66	1800.16
811.83	1888.23
812.00	1851.36
812.18	1865.70
812.35	1951.71
812.52	1787.88
812.69	1806.31
812.87	1775.59
813.04	1738.73
813.21	1853.41
813.39	1699.81
813.56	1685.48
813.73	1802.21
813.91	1744.87
814.08	1810.40
814.25	1843.17
814.42	1720.29
814.60	1824.74
814.77	1886.18
814.94	1738.73
815.12	1824.74
815.29	1902.56
815.46	1761.25
815.63	1859.56
815.81	1808.36
815.98	1728.49
816.15	1820.64
816.33	1787.88
816.50	1798.12
816.67	1783.78
816.84	1726.44
817.02	1773.54
817.19	1779.68
817.36	1861.60
817.53	1837.03
817.71	1794.02
817.88	1785.83
818.05	1814.50
818.22	1800.16
818.40	1918.95
818.57	1759.21
818.74	1834.98
818.91	1812.45
819.09	1867.75
819.26	1910.75
819.43	1796.07
819.60	1724.39
819.78	1865.70
819.95	1908.71
820.12	1736.68
820.29	1857.51
820.47	1861.60
820.64	1769.44
820.81	1732.58
820.98	1734.63
821.15	1761.25
821.33	1900.52
821.50	1748.97
821.67	1929.19
821.84	1834.98
822.02	1808.36
822.19	1906.66
822.36	1834.98
822.53	1781.73
822.70	1746.92
822.88	1767.40
823.05	1847.27
823.22	1867.75
823.39	1837.03
823.56	1722.34
823.74	1882.08
823.91	1806.31
824.08	1693.67
824.25	1771.49
824.42	1853.41
824.60	1769.44
824.77	1767.40
824.94	1794.02
825.11	1886.18
825.28	1679.33
825.45	1869.80
825.63	1822.69
825.80	1736.68
825.97	1851.36
826.14	1816.55
826.31	1720.29
826.48	1857.51
826.66	1732.58
826.83	1812.45
827.00	1830.88
827.17	1742.82
827.34	1796.07
827.51	1834.98
827.69	1886.18
827.86	1781.73
828.03	1812.45
828.20	1841.12
828.37	1748.97
828.54	1773.54
828.71	1804.26
828.89	1898.47
829.06	1851.36
829.23	1855.46
829.40	1763.30
829.57	1763.30
829.74	1873.89
829.91	1755.11
830.09	1783.78
830.26	1837.03
830.43	1945.57
830.60	1867.75
830.77	1890.28
830.94	1861.60
831.11	1877.99
831.28	1746.92
831.46	1849.32
831.63	1716.20
831.80	1847.27
831.97	1804.26
832.14	1765.35
832.31	1861.60
832.48	1869.80
832.65	1853.41
832.82	1841.12
832.99	1822.69
833.17	1787.88
833.34	1976.29
833.51	1894.37
833.68	1720.29
833.85	1820.64
834.02	1791.97
834.19	1761.25
834.36	1800.16
834.53	1804.26
834.70	1855.46
834.87	1818.60
835.04	1730.53
835.22	1826.79
835.39	1767.40
835.56	1759.21
835.73	1810.40
835.90	1826.79
836.07	1742.82
836.24	1800.16
836.41	1699.81
836.58	1841.12
836.75	1869.80
836.92	1787.88
837.09	1806.31
837.26	1847.27
837.43	1898.47
837.60	1855.46
837.77	1830.88
837.94	1918.95
838.12	1898.47
838.29	1849.32
838.46	1679.33
838.63	1789.92
838.80	1964.00
838.97	1859.56
839.14	1920.99
839.31	1753.06
839.48	1830.88
839.65	1724.39
839.82	1904.61
839.99	1877.99
840.16	1796.07
840.33	1773.54
840.50	1814.50
840.67	1755.11
840.84	1669.09
841.01	1837.03
841.18	1834.98
841.35	1832.93
841.52	1898.47
841.69	1912.80
841.86	1845.22
842.03	1798.12
842.20	1873.89
842.37	1834.98
842.54	1812.45
842.71	1796.07
842.88	1712.10
843.05	1816.55
843.22	1798.12
843.39	1841.12
843.56	1843.17
843.73	1798.12
843.90	1779.68
844.07	1849.32
844.24	1849.32
844.41	1796.07
844.58	1824.74
844.75	1775.59
844.92	1839.08
845.09	1773.54
845.26	1798.12
845.43	1802.21
845.60	1769.44
845.77	1974.24
845.94	1787.88
846.10	1824.74
846.27	1734.63
846.44	1767.40
846.61	1757.16
846.78	1804.26
846.95	1931.23
847.12	1865.70
847.29	1787.88
847.46	1783.78
847.63	1837.03
847.80	1744.87
847.97	1785.83
848.14	1978.34
848.31	1781.73
848.48	1812.45
848.65	1880.04
848.82	1736.68
848.98	1984.48
849.15	1855.46
849.32	1918.95
849.49	1886.18
849.66	1812.45
849.83	1781.73
850.00	1746.92
850.17	1841.12
850.34	1751.01
850.51	1775.59
850.68	1736.68
850.85	1980.39
851.01	1787.88
851.18	1873.89
851.35	1816.55
851.52	1789.92
851.69	1880.04
851.86	1738.73
852.03	1781.73
852.20	1920.99
852.37	1861.60
852.53	1726.44
852.70	1808.36
852.87	1806.31
853.04	1785.83
853.21	1830.88
853.38	1812.45
853.55	1910.75
853.72	1826.79
853.89	1748.97
854.05	1785.83
854.22	1773.54
854.39	1865.70
854.56	1830.88
854.73	1884.13
854.90	1757.16
855.07	1816.55
855.23	1703.91
855.40	1873.89
855.57	1765.35
855.74	1753.06
855.91	1914.85
856.08	1714.15
856.25	1683.43
856.41	1742.82
856.58	1779.68
856.75	1812.45
856.92	1726.44
857.09	1847.27
857.26	1755.11
857.42	1783.78
857.59	1787.88
857.76	1751.01
857.93	1822.69
858.10	1798.12
858.27	1714.15
858.43	1828.84
858.60	1824.74
858.77	1673.19
858.94	1789.92
859.11	1953.76
859.27	1685.48
859.44	1773.54
859.61	1923.04
859.78	1880.04
859.95	1800.16
860.12	1730.53
860.28	2033.63
860.45	1916.90
860.62	1785.83
860.79	1787.88
860.95	1814.50
861.12	1697.77
861.29	1804.26
861.46	1755.11
861.63	1818.60
861.79	1812.45
861.96	1712.10
862.13	1773.54
862.30	1912.80
862.47	1781.73
862.63	1763.30
862.80	1849.32
862.97	1806.31
863.14	1845.22
863.30	1794.02
863.47	1796.07
863.64	1976.29
863.81	1869.80
863.97	1728.49
864.14	1867.75
864.31	1798.12
864.48	1822.69
864.65	1775.59
864.81	1806.31
864.98	1832.93
865.15	1824.74
865.32	1785.83
865.48	1941.47
865.65	1955.81
865.82	1806.31
865.98	1794.02
866.15	1771.49
866.32	1816.55
866.49	1796.07
866.65	1845.22
866.82	1730.53
866.99	1767.40
867.16	1783.78
867.32	1779.68
867.49	1753.06
867.66	1828.84
867.83	1802.21
867.99	1794.02
868.16	1798.12
868.33	1751.01
868.49	1812.45
868.66	1791.97
868.83	1892.32
868.99	1880.04
869.16	1761.25
869.33	1880.04
869.50	1898.47
869.66	1787.88
869.83	1820.64
870.00	1728.49
870.16	1863.65
870.33	1794.02
870.50	1869.80
870.66	1830.88
870.83	1843.17
871.00	1847.27
871.17	1871.84
871.33	1896.42
871.50	1767.40
871.67	1824.74
871.83	1738.73
872.00	1888.23
872.17	1830.88
872.33	1927.14
872.50	1896.42
872.67	1794.02
872.83	1757.16
873.00	1826.79
873.17	1814.50
873.33	1812.45
873.50	1871.84
873.67	1761.25
873.83	1818.60
874.00	1753.06
874.16	1896.42
874.33	1806.31
874.50	1712.10
874.66	1775.59
874.83	1814.50
875.00	1877.99
875.16	1853.41
875.33	1894.37
875.50	1718.25
875.66	1800.16
875.83	1771.49
875.99	1808.36
876.16	1783.78
876.33	1767.40
876.49	1759.21
876.66	1832.93
876.83	1814.50
876.99	1718.25
877.16	1826.79
877.32	1775.59
877.49	1783.78
877.66	1869.80
877.82	1880.04
877.99	1808.36
878.15	1855.46
878.32	1769.44
878.49	1796.07
878.65	1753.06
878.82	1857.51
878.98	1767.40
879.15	1931.23
879.32	1904.61
879.48	1877.99
879.65	1730.53
879.81	1791.97
879.98	1800.16
880.15	1722.34
880.31	1892.32
880.48	1767.40
880.64	1847.27
880.81	1908.71
880.97	1990.63
881.14	1855.46
881.31	1738.73
881.47	1988.58
881.64	1755.11
881.80	1667.05
881.97	1759.21
882.13	1863.65
882.30	1710.05
882.47	1777.64
882.63	1791.97
882.80	1796.07
882.96	1806.31
883.13	1875.94
883.29	1851.36
883.46	1861.60
883.62	1925.09
883.79	1779.68
883.95	1884.13
884.12	1845.22
884.29	1841.12
884.45	1787.88
884.62	1867.75
884.78	1710.05
884.95	1900.52
885.11	1755.11
885.28	1830.88
885.44	1757.16
885.61	1865.70
885.77	1871.84
885.94	1880.04
886.10	1767.40
886.27	1841.12
886.43	1900.52
886.60	1894.37
886.76	1765.35
886.93	1804.26
887.09	1710.05
887.26	1722.34
887.42	1765.35
887.59	1902.56
887.75	1910.75
887.92	1886.18
888.08	1816.55
888.25	1877.99
888.41	1875.94
888.58	1791.97
888.74	1701.86
888.91	1796.07
>>>>>End Processed Spectral Data<<<<<
