SpectraSuite Data File
++++++++++++++++++++++++++++++++++++
Date: Wed May 04 21:13:03 CEST 2016
User: root
Dark Spectrum Present: No
Reference Spectrum Present: No
Number of Sampled Component Spectra: 1
Spectrometers: USB4C02835
Integration Time (usec): 100000 (USB4C02835)
Spectra Averaged: 1 (USB4C02835)
Boxcar Smoothing: 0 (USB4C02835)
Correct for Electrical Dark: No (USB4C02835)
Strobe/Lamp Enabled: No (USB4C02835)
Correct for Detector Non-linearity: No (USB4C02835)
Correct for Stray Light: No (USB4C02835)
Number of Pixels in Processed Spectrum: 3648
>>>>>Begin Processed Spectral Data<<<<<
177.47	1531.88
177.69	1531.88
177.91	1531.88
178.13	1554.41
178.36	1568.74
178.58	1710.05
178.80	1843.17
179.02	1714.15
179.24	1794.02
179.46	1834.98
179.68	1882.08
179.90	1861.60
180.13	1783.78
180.35	1787.88
180.57	1718.25
180.79	1839.08
181.01	1716.20
181.23	1843.17
181.45	1857.51
181.67	1857.51
181.90	1818.60
182.12	1853.41
182.34	1769.44
182.56	1800.16
182.78	1869.80
183.00	1791.97
183.22	1785.83
183.44	1703.91
183.66	2002.91
183.89	1916.90
184.11	1828.84
184.33	1826.79
184.55	1918.95
184.77	1765.35
184.99	1785.83
185.21	1748.97
185.43	1920.99
185.65	1843.17
185.87	1861.60
186.10	1912.80
186.32	1910.75
186.54	1773.54
186.76	1943.52
186.98	1886.18
187.20	1824.74
187.42	1796.07
187.64	1783.78
187.86	1857.51
188.08	1880.04
188.30	1785.83
188.52	1839.08
188.75	1841.12
188.97	1861.60
189.19	1855.46
189.41	1863.65
189.63	1861.60
189.85	1779.68
190.07	1732.58
190.29	1771.49
190.51	1955.81
190.73	1703.91
190.95	1865.70
191.17	1794.02
191.39	1777.64
191.61	1849.32
191.84	1652.71
192.06	1804.26
192.28	1730.53
192.50	2043.87
192.72	1873.89
192.94	1753.06
193.16	1920.99
193.38	1871.84
193.60	1771.49
193.82	1791.97
194.04	1890.28
194.26	1744.87
194.48	1855.46
194.70	1798.12
194.92	1769.44
195.14	1869.80
195.36	1748.97
195.58	1880.04
195.80	1843.17
196.02	1767.40
196.24	1763.30
196.46	1847.27
196.69	1726.44
196.91	1947.62
197.13	1812.45
197.35	1773.54
197.57	1898.47
197.79	1771.49
198.01	1814.50
198.23	1861.60
198.45	1791.97
198.67	1748.97
198.89	1812.45
199.11	1814.50
199.33	1730.53
199.55	1591.27
199.77	1796.07
199.99	1910.75
200.21	1783.78
200.43	1800.16
200.65	1769.44
200.87	1638.38
201.09	1800.16
201.31	1865.70
201.53	1822.69
201.75	1808.36
201.97	1839.08
202.19	1781.73
202.41	1888.23
202.63	1955.81
202.85	1890.28
203.07	1798.12
203.29	1728.49
203.51	1738.73
203.73	1738.73
203.95	1990.63
204.17	1738.73
204.39	1898.47
204.61	1800.16
204.83	1824.74
205.05	1865.70
205.27	1828.84
205.49	1847.27
205.71	1779.68
205.93	1673.19
206.15	1789.92
206.37	1820.64
206.59	1877.99
206.81	1771.49
207.03	1730.53
207.25	1789.92
207.47	1853.41
207.69	1816.55
207.91	1884.13
208.13	1918.95
208.34	1775.59
208.56	1734.63
208.78	1808.36
209.00	1812.45
209.22	1748.97
209.44	1742.82
209.66	1794.02
209.88	1812.45
210.10	1804.26
210.32	1765.35
210.54	1869.80
210.76	1824.74
210.98	1787.88
211.20	1744.87
211.42	1769.44
211.64	1894.37
211.86	1785.83
212.08	1810.40
212.30	1812.45
212.52	1802.21
212.74	1884.13
212.96	1798.12
213.17	1751.01
213.39	1861.60
213.61	1892.32
213.83	1720.29
214.05	1816.55
214.27	1863.65
214.49	1697.77
214.71	1814.50
214.93	1910.75
215.15	1871.84
215.37	1796.07
215.59	1710.05
215.81	1787.88
216.03	1853.41
216.24	1849.32
216.46	1869.80
216.68	1828.84
216.90	1882.08
217.12	1832.93
217.34	1781.73
217.56	1834.98
217.78	1882.08
218.00	1882.08
218.22	1816.55
218.44	1834.98
218.66	1882.08
218.87	1908.71
219.09	1781.73
219.31	1826.79
219.53	1789.92
219.75	1763.30
219.97	1800.16
220.19	1871.84
220.41	1781.73
220.63	1871.84
220.85	1857.51
221.06	1800.16
221.28	1812.45
221.50	1849.32
221.72	1847.27
221.94	1810.40
222.16	1798.12
222.38	1869.80
222.60	1841.12
222.82	1849.32
223.03	1810.40
223.25	1763.30
223.47	1873.89
223.69	1966.05
223.91	1927.14
224.13	1847.27
224.35	1751.01
224.57	1910.75
224.78	1867.75
225.00	1785.83
225.22	1755.11
225.44	1785.83
225.66	1943.52
225.88	1773.54
226.10	1826.79
226.32	1882.08
226.53	1865.70
226.75	1806.31
226.97	1837.03
227.19	1808.36
227.41	1705.96
227.63	1791.97
227.85	1675.24
228.06	1837.03
228.28	1845.22
228.50	1882.08
228.72	1748.97
228.94	1783.78
229.16	1619.94
229.37	1746.92
229.59	1822.69
229.81	1884.13
230.03	1726.44
230.25	1779.68
230.47	1755.11
230.69	1697.77
230.90	1814.50
231.12	1728.49
231.34	1787.88
231.56	1837.03
231.78	1744.87
232.00	1814.50
232.21	1845.22
232.43	1775.59
232.65	1673.19
232.87	1759.21
233.09	1759.21
233.30	1804.26
233.52	1867.75
233.74	1828.84
233.96	1757.16
234.18	1820.64
234.40	1837.03
234.61	1968.10
234.83	1753.06
235.05	1708.01
235.27	1912.80
235.49	1873.89
235.70	1824.74
235.92	1898.47
236.14	1816.55
236.36	2037.73
236.58	1724.39
236.79	1845.22
237.01	1798.12
237.23	1830.88
237.45	1906.66
237.67	1703.91
237.88	1763.30
238.10	1914.85
238.32	1738.73
238.54	1744.87
238.76	1796.07
238.97	1726.44
239.19	1736.68
239.41	1863.65
239.63	1873.89
239.85	1806.31
240.06	1834.98
240.28	1791.97
240.50	1845.22
240.72	1855.46
240.93	1837.03
241.15	1884.13
241.37	1820.64
241.59	1898.47
241.81	1873.89
242.02	1787.88
242.24	1839.08
242.46	1894.37
242.68	1767.40
242.89	1783.78
243.11	1898.47
243.33	1796.07
243.55	1851.36
243.76	1832.93
243.98	1826.79
244.20	1843.17
244.42	1767.40
244.64	1843.17
244.85	1736.68
245.07	1746.92
245.29	1861.60
245.51	1853.41
245.72	1828.84
245.94	1912.80
246.16	1853.41
246.38	1853.41
246.59	1771.49
246.81	1765.35
247.03	1796.07
247.24	1665.00
247.46	1763.30
247.68	1837.03
247.90	1773.54
248.11	1834.98
248.33	1839.08
248.55	1763.30
248.77	1826.79
248.98	1849.32
249.20	1933.28
249.42	1806.31
249.64	1851.36
249.85	1732.58
250.07	1746.92
250.29	1832.93
250.50	1839.08
250.72	1687.53
250.94	1855.46
251.16	1947.62
251.37	1867.75
251.59	1822.69
251.81	1869.80
252.02	1880.04
252.24	1767.40
252.46	1894.37
252.68	1720.29
252.89	1748.97
253.11	1753.06
253.33	1939.43
253.54	1839.08
253.76	1771.49
253.98	1794.02
254.20	1800.16
254.41	1714.15
254.63	1722.34
254.85	1738.73
255.06	1773.54
255.28	1822.69
255.50	1822.69
255.71	1781.73
255.93	1763.30
256.15	1804.26
256.36	1873.89
256.58	1742.82
256.80	1824.74
257.02	1834.98
257.23	1755.11
257.45	1828.84
257.67	1816.55
257.88	1800.16
258.10	1855.46
258.32	1810.40
258.53	1812.45
258.75	1937.38
258.97	1806.31
259.18	1865.70
259.40	1775.59
259.62	1867.75
259.83	1943.52
260.05	1828.84
260.27	2125.79
260.48	1814.50
260.70	1718.25
260.92	1791.97
261.13	1830.88
261.35	1812.45
261.57	1800.16
261.78	1742.82
262.00	1763.30
262.22	1847.27
262.43	1730.53
262.65	1763.30
262.86	1890.28
263.08	1914.85
263.30	1843.17
263.51	1720.29
263.73	1781.73
263.95	1873.89
264.16	1748.97
264.38	1718.25
264.60	1832.93
264.81	1824.74
265.03	1923.04
265.25	1806.31
265.46	1699.81
265.68	1841.12
265.89	1877.99
266.11	1658.85
266.33	1820.64
266.54	1892.32
266.76	1863.65
266.98	1896.42
267.19	1908.71
267.41	1898.47
267.62	1791.97
267.84	1767.40
268.06	1818.60
268.27	1800.16
268.49	1880.04
268.70	1910.75
268.92	1859.56
269.14	1767.40
269.35	1763.30
269.57	1730.53
269.79	1822.69
270.00	1738.73
270.22	1863.65
270.43	1755.11
270.65	1675.24
270.87	1845.22
271.08	1898.47
271.30	1808.36
271.51	1943.52
271.73	1834.98
271.95	1902.56
272.16	1765.35
272.38	1810.40
272.59	1757.16
272.81	1851.36
273.02	1859.56
273.24	1802.21
273.46	1855.46
273.67	1755.11
273.89	1726.44
274.10	1746.92
274.32	1820.64
274.54	1804.26
274.75	1908.71
274.97	1775.59
275.18	1914.85
275.40	1882.08
275.61	1773.54
275.83	1763.30
276.05	1732.58
276.26	1787.88
276.48	1902.56
276.69	1751.01
276.91	1769.44
277.12	1884.13
277.34	1851.36
277.55	1845.22
277.77	1798.12
277.99	1751.01
278.20	1755.11
278.42	1734.63
278.63	1718.25
278.85	1761.25
279.06	1712.10
279.28	1851.36
279.49	1877.99
279.71	1904.61
279.93	1847.27
280.14	1779.68
280.36	1787.88
280.57	1970.15
280.79	1841.12
281.00	1828.84
281.22	1771.49
281.43	1859.56
281.65	1677.29
281.86	1757.16
282.08	1781.73
282.29	1935.33
282.51	1689.57
282.73	1767.40
282.94	1624.04
283.16	1808.36
283.37	1839.08
283.59	1806.31
283.80	1832.93
284.02	1822.69
284.23	1865.70
284.45	1794.02
284.66	1708.01
284.88	1730.53
285.09	1845.22
285.31	1863.65
285.52	1814.50
285.74	1746.92
285.95	1832.93
286.17	1814.50
286.38	1830.88
286.60	1816.55
286.81	1794.02
287.03	1789.92
287.24	1783.78
287.46	1816.55
287.67	1824.74
287.89	1890.28
288.10	1834.98
288.32	1798.12
288.53	1855.46
288.75	1806.31
288.96	1830.88
289.18	1765.35
289.39	1800.16
289.61	1869.80
289.82	1984.48
290.04	1904.61
290.25	1705.96
290.47	1818.60
290.68	1800.16
290.90	1904.61
291.11	1669.09
291.33	1886.18
291.54	1742.82
291.76	1757.16
291.97	1853.41
292.18	1834.98
292.40	1734.63
292.61	1787.88
292.83	1939.43
293.04	1826.79
293.26	1783.78
293.47	1826.79
293.69	1779.68
293.90	1814.50
294.12	1945.57
294.33	1834.98
294.55	1767.40
294.76	1863.65
294.97	1929.19
295.19	1994.72
295.40	1759.21
295.62	1841.12
295.83	1882.08
296.05	1673.19
296.26	1849.32
296.48	1794.02
296.69	1830.88
296.90	1773.54
297.12	1808.36
297.33	1892.32
297.55	1800.16
297.76	1837.03
297.98	1882.08
298.19	1810.40
298.41	1853.41
298.62	1773.54
298.83	1880.04
299.05	1863.65
299.26	1847.27
299.48	1812.45
299.69	1888.23
299.90	1796.07
300.12	1806.31
300.33	1863.65
300.55	1841.12
300.76	1849.32
300.98	1769.44
301.19	1800.16
301.40	1775.59
301.62	1765.35
301.83	1853.41
302.05	1863.65
302.26	1783.78
302.47	1830.88
302.69	1679.33
302.90	1834.98
303.12	1673.19
303.33	1894.37
303.54	1939.43
303.76	1800.16
303.97	1751.01
304.19	1980.39
304.40	1730.53
304.61	1882.08
304.83	1853.41
305.04	1822.69
305.26	1841.12
305.47	1779.68
305.68	1843.17
305.90	1759.21
306.11	1820.64
306.33	1861.60
306.54	1816.55
306.75	1783.78
306.97	1712.10
307.18	1845.22
307.39	1714.15
307.61	1855.46
307.82	1767.40
308.04	1865.70
308.25	1789.92
308.46	1779.68
308.68	1759.21
308.89	1783.78
309.10	1861.60
309.32	1914.85
309.53	1824.74
309.74	1789.92
309.96	1759.21
310.17	1918.95
310.39	1812.45
310.60	1839.08
310.81	1830.88
311.03	1722.34
311.24	1804.26
311.45	1824.74
311.67	1880.04
311.88	1912.80
312.09	1767.40
312.31	1863.65
312.52	1837.03
312.73	1808.36
312.95	1730.53
313.16	1730.53
313.37	1816.55
313.59	1847.27
313.80	1857.51
314.01	1869.80
314.23	1794.02
314.44	1779.68
314.65	1742.82
314.87	1781.73
315.08	1843.17
315.29	1832.93
315.51	1779.68
315.72	1740.77
315.93	1920.99
316.15	1843.17
316.36	1736.68
316.57	1832.93
316.79	1824.74
317.00	1777.64
317.21	1916.90
317.43	1814.50
317.64	1869.80
317.85	1787.88
318.07	1757.16
318.28	1949.67
318.49	1998.82
318.70	2041.82
318.92	2009.06
319.13	2060.26
319.34	2011.11
319.56	1968.10
319.77	2017.25
319.98	1902.56
320.20	1964.00
320.41	1980.39
320.62	1824.74
320.83	1777.64
321.05	1968.10
321.26	1888.23
321.47	1800.16
321.69	1849.32
321.90	1767.40
322.11	1789.92
322.32	1865.70
322.54	1894.37
322.75	1806.31
322.96	1914.85
323.18	1699.81
323.39	1636.33
323.60	1701.86
323.81	1884.13
324.03	1769.44
324.24	1820.64
324.45	1822.69
324.66	1814.50
324.88	1894.37
325.09	1826.79
325.30	1816.55
325.52	1828.84
325.73	1832.93
325.94	1841.12
326.15	1705.96
326.37	1884.13
326.58	1964.00
326.79	1892.32
327.00	1812.45
327.22	1765.35
327.43	1732.58
327.64	1802.21
327.85	1863.65
328.07	1853.41
328.28	1918.95
328.49	1802.21
328.70	1787.88
328.92	1822.69
329.13	1818.60
329.34	1859.56
329.55	1898.47
329.76	1898.47
329.98	1798.12
330.19	1902.56
330.40	1769.44
330.61	1791.97
330.83	1794.02
331.04	1744.87
331.25	1873.89
331.46	1789.92
331.68	1751.01
331.89	1898.47
332.10	1763.30
332.31	1689.57
332.52	1877.99
332.74	1900.52
332.95	1679.33
333.16	1783.78
333.37	1798.12
333.58	1724.39
333.80	1810.40
334.01	1748.97
334.22	1787.88
334.43	1726.44
334.64	1759.21
334.86	1771.49
335.07	1726.44
335.28	1925.09
335.49	1722.34
335.70	1820.64
335.92	1904.61
336.13	2000.87
336.34	1865.70
336.55	1814.50
336.76	1896.42
336.98	1699.81
337.19	1783.78
337.40	1888.23
337.61	1964.00
337.82	1759.21
338.04	1873.89
338.25	1722.34
338.46	1812.45
338.67	1767.40
338.88	1744.87
339.09	1716.20
339.31	1812.45
339.52	1789.92
339.73	1771.49
339.94	1871.84
340.15	1830.88
340.36	1773.54
340.58	1820.64
340.79	1712.10
341.00	1898.47
341.21	1773.54
341.42	1857.51
341.63	1804.26
341.85	1884.13
342.06	1789.92
342.27	1804.26
342.48	1861.60
342.69	1675.24
342.90	1857.51
343.12	1849.32
343.33	1746.92
343.54	1888.23
343.75	1873.89
343.96	1800.16
344.17	1724.39
344.38	1851.36
344.60	1658.85
344.81	1789.92
345.02	1773.54
345.23	1875.94
345.44	1929.19
345.65	1863.65
345.86	1869.80
346.07	1882.08
346.29	1783.78
346.50	1859.56
346.71	1787.88
346.92	1943.52
347.13	2000.87
347.34	1822.69
347.55	1820.64
347.76	1871.84
347.98	1765.35
348.19	1787.88
348.40	1830.88
348.61	1804.26
348.82	1918.95
349.03	1904.61
349.24	1742.82
349.45	1945.57
349.66	1640.42
349.88	1859.56
350.09	1738.73
350.30	1849.32
350.51	1918.95
350.72	1822.69
350.93	1751.01
351.14	1806.31
351.35	1814.50
351.56	1796.07
351.77	1820.64
351.99	1884.13
352.20	1884.13
352.41	1898.47
352.62	1728.49
352.83	1751.01
353.04	1806.31
353.25	1724.39
353.46	1859.56
353.67	1908.71
353.88	1701.86
354.09	1816.55
354.30	1796.07
354.52	1845.22
354.73	1822.69
354.94	1751.01
355.15	1812.45
355.36	1925.09
355.57	1736.68
355.78	1832.93
355.99	1781.73
356.20	1732.58
356.41	1904.61
356.62	1804.26
356.83	1806.31
357.04	1916.90
357.25	1755.11
357.46	1812.45
357.68	1746.92
357.89	1759.21
358.10	1755.11
358.31	1820.64
358.52	1818.60
358.73	1769.44
358.94	1841.12
359.15	1751.01
359.36	1900.52
359.57	1796.07
359.78	1771.49
359.99	1832.93
360.20	1771.49
360.41	1898.47
360.62	1873.89
360.83	1839.08
361.04	1871.84
361.25	1828.84
361.46	1931.23
361.67	1822.69
361.88	1871.84
362.09	1839.08
362.30	1847.27
362.51	1789.92
362.72	1853.41
362.93	1855.46
363.14	1918.95
363.35	1808.36
363.56	1742.82
363.78	1826.79
363.99	1853.41
364.20	1779.68
364.41	1810.40
364.62	1966.05
364.83	1796.07
365.04	1751.01
365.25	1771.49
365.46	1978.34
365.67	1775.59
365.88	1775.59
366.09	1748.97
366.30	1843.17
366.51	1806.31
366.72	1736.68
366.93	1882.08
367.14	1763.30
367.35	1935.33
367.56	1806.31
367.77	1880.04
367.98	1777.64
368.18	1871.84
368.39	1800.16
368.60	1830.88
368.81	1857.51
369.02	1896.42
369.23	1767.40
369.44	1705.96
369.65	1783.78
369.86	1816.55
370.07	1898.47
370.28	1722.34
370.49	1822.69
370.70	1865.70
370.91	1693.67
371.12	1714.15
371.33	1898.47
371.54	1785.83
371.75	1959.91
371.96	1726.44
372.17	1847.27
372.38	1804.26
372.59	1824.74
372.80	1820.64
373.01	1826.79
373.22	1839.08
373.43	1859.56
373.64	1849.32
373.85	1904.61
374.06	1953.76
374.26	1804.26
374.47	1826.79
374.68	2011.11
374.89	1824.74
375.10	1763.30
375.31	1886.18
375.52	1830.88
375.73	1832.93
375.94	1785.83
376.15	1951.71
376.36	1777.64
376.57	1736.68
376.78	1787.88
376.99	1757.16
377.20	1910.75
377.40	1722.34
377.61	1888.23
377.82	1767.40
378.03	1892.32
378.24	1834.98
378.45	1865.70
378.66	1847.27
378.87	1814.50
379.08	1714.15
379.29	1832.93
379.50	1865.70
379.71	1767.40
379.91	1867.75
380.12	1884.13
380.33	1849.32
380.54	1824.74
380.75	1886.18
380.96	1820.64
381.17	1861.60
381.38	1832.93
381.59	1890.28
381.80	1800.16
382.00	1988.58
382.21	1964.00
382.42	2000.87
382.63	2029.54
382.84	1896.42
383.05	1906.66
383.26	1947.62
383.47	1865.70
383.68	1894.37
383.88	1916.90
384.09	1781.73
384.30	1980.39
384.51	1812.45
384.72	1767.40
384.93	1765.35
385.14	1802.21
385.35	1931.23
385.55	1796.07
385.76	1892.32
385.97	1783.78
386.18	1708.01
386.39	1789.92
386.60	1816.55
386.81	1759.21
387.02	1800.16
387.22	1767.40
387.43	1869.80
387.64	1927.14
387.85	1996.77
388.06	2267.10
388.27	4173.76
388.48	8988.53
388.68	12042.06
388.89	13969.19
389.10	14937.88
389.31	13121.34
389.52	10403.68
389.73	9203.57
389.93	8523.65
390.14	7647.12
390.35	6963.09
390.56	6326.18
390.77	5134.26
390.98	4093.89
391.18	3192.78
391.39	2480.09
391.60	2066.40
391.81	2041.82
392.02	1804.26
392.23	1968.10
392.43	1882.08
392.64	1912.80
392.85	1812.45
393.06	1931.23
393.27	1886.18
393.47	1701.86
393.68	1824.74
393.89	1802.21
394.10	1830.88
394.31	1802.21
394.52	1779.68
394.72	1730.53
394.93	1902.56
395.14	1769.44
395.35	1877.99
395.56	1777.64
395.76	1742.82
395.97	1959.91
396.18	1925.09
396.39	1902.56
396.60	2291.68
396.80	2101.22
397.01	1982.43
397.22	1986.53
397.43	1959.91
397.64	1873.89
397.84	1904.61
398.05	2054.11
398.26	1855.46
398.47	1918.95
398.67	1988.58
398.88	1830.88
399.09	1886.18
399.30	1763.30
399.51	1845.22
399.71	1722.34
399.92	1884.13
400.13	1787.88
400.34	1832.93
400.54	1796.07
400.75	1931.23
400.96	1806.31
401.17	2017.25
401.37	1877.99
401.58	1845.22
401.79	1794.02
402.00	1908.71
402.21	2148.32
402.41	2131.94
402.62	2183.13
402.83	2353.12
403.04	2236.38
403.24	2258.91
403.45	2050.02
403.66	2066.40
403.87	2047.97
404.07	2058.21
404.28	2035.68
404.49	2043.87
404.70	1937.38
404.90	1949.67
405.11	1916.90
405.32	1828.84
405.52	1714.15
405.73	1832.93
405.94	1781.73
406.15	1884.13
406.35	1877.99
406.56	1855.46
406.77	1804.26
406.98	1804.26
407.18	1722.34
407.39	1992.67
407.60	1832.93
407.80	1814.50
408.01	1796.07
408.22	1822.69
408.43	1757.16
408.63	1822.69
408.84	1884.13
409.05	1869.80
409.25	1701.86
409.46	1642.47
409.67	1839.08
409.88	1810.40
410.08	1783.78
410.29	1843.17
410.50	1877.99
410.70	1847.27
410.91	1773.54
411.12	1761.25
411.32	1832.93
411.53	1855.46
411.74	1931.23
411.95	1920.99
412.15	1853.41
412.36	1861.60
412.57	1853.41
412.77	1880.04
412.98	1892.32
413.19	1861.60
413.39	1853.41
413.60	1841.12
413.81	1978.34
414.01	1816.55
414.22	1865.70
414.43	1925.09
414.63	1857.51
414.84	1890.28
415.05	1877.99
415.25	1740.77
415.46	1898.47
415.67	1753.06
415.87	1834.98
416.08	1820.64
416.29	1810.40
416.49	1873.89
416.70	1783.78
416.91	1755.11
417.11	1839.08
417.32	1896.42
417.53	1869.80
417.73	1828.84
417.94	1757.16
418.15	1828.84
418.35	1888.23
418.56	1812.45
418.77	1972.19
418.97	1787.88
419.18	1794.02
419.38	1697.77
419.59	1771.49
419.80	1904.61
420.00	1824.74
420.21	1779.68
420.42	1914.85
420.62	1898.47
420.83	1763.30
421.04	1884.13
421.24	1763.30
421.45	1853.41
421.65	1900.52
421.86	1775.59
422.07	1873.89
422.27	1925.09
422.48	1863.65
422.69	1779.68
422.89	1773.54
423.10	1822.69
423.30	1755.11
423.51	1834.98
423.72	1769.44
423.92	1839.08
424.13	1746.92
424.33	1841.12
424.54	1834.98
424.75	1808.36
424.95	1964.00
425.16	1767.40
425.36	1867.75
425.57	1900.52
425.78	1845.22
425.98	1865.70
426.19	1857.51
426.39	1806.31
426.60	1877.99
426.81	1959.91
427.01	1867.75
427.22	1753.06
427.42	1759.21
427.63	1779.68
427.83	1812.45
428.04	1869.80
428.25	1939.43
428.45	1896.42
428.66	1853.41
428.86	1855.46
429.07	1794.02
429.28	1769.44
429.48	1841.12
429.69	1802.21
429.89	1808.36
430.10	1710.05
430.30	1886.18
430.51	1996.77
430.71	1791.97
430.92	1845.22
431.13	1761.25
431.33	1849.32
431.54	1789.92
431.74	1992.67
431.95	1951.71
432.15	1806.31
432.36	1814.50
432.56	1837.03
432.77	2011.11
432.98	1890.28
433.18	1824.74
433.39	1796.07
433.59	1824.74
433.80	1937.38
434.00	1943.52
434.21	1822.69
434.41	1783.78
434.62	1945.57
434.82	1742.82
435.03	1738.73
435.23	1777.64
435.44	1757.16
435.64	1855.46
435.85	1822.69
436.06	1890.28
436.26	1902.56
436.47	1830.88
436.67	1736.68
436.88	1816.55
437.08	1812.45
437.29	1871.84
437.49	1822.69
437.70	1927.14
437.90	1775.59
438.11	1947.62
438.31	1902.56
438.52	1978.34
438.72	1972.19
438.93	2084.83
439.13	1931.23
439.34	2002.91
439.54	1867.75
439.75	1853.41
439.95	1894.37
440.16	1869.80
440.36	1873.89
440.57	1947.62
440.77	1894.37
440.98	1873.89
441.18	1894.37
441.39	1808.36
441.59	1779.68
441.80	1976.29
442.00	1816.55
442.21	1867.75
442.41	1806.31
442.62	1931.23
442.82	1771.49
443.02	1927.14
443.23	1839.08
443.43	1841.12
443.64	1984.48
443.84	1851.36
444.05	1916.90
444.25	1802.21
444.46	1834.98
444.66	1785.83
444.87	1980.39
445.07	1773.54
445.28	1816.55
445.48	1988.58
445.69	1853.41
445.89	1994.72
446.09	1857.51
446.30	2076.64
446.50	2641.88
446.71	4149.18
446.91	5265.33
447.12	5869.48
447.32	6332.32
447.53	5742.50
447.73	4618.17
447.93	4190.14
448.14	3758.02
448.34	3637.19
448.55	3313.61
448.75	3256.27
448.96	3084.24
449.16	2744.28
449.36	2543.58
449.57	2312.16
449.77	1947.62
449.98	1906.66
450.18	1906.66
450.39	1923.04
450.59	1931.23
450.79	1808.36
451.00	1779.68
451.20	1923.04
451.41	1834.98
451.61	1865.70
451.81	1910.75
452.02	1863.65
452.22	1841.12
452.43	1753.06
452.63	1783.78
452.84	1779.68
453.04	1832.93
453.24	1843.17
453.45	1785.83
453.65	1822.69
453.86	1816.55
454.06	1912.80
454.26	1892.32
454.47	1837.03
454.67	1914.85
454.87	1818.60
455.08	1837.03
455.28	1964.00
455.49	1818.60
455.69	1824.74
455.89	2002.91
456.10	1882.08
456.30	1832.93
456.51	1892.32
456.71	1894.37
456.91	1839.08
457.12	1794.02
457.32	1882.08
457.52	1812.45
457.73	1861.60
457.93	1896.42
458.14	1804.26
458.34	1804.26
458.54	1880.04
458.75	1787.88
458.95	1863.65
459.15	1923.04
459.36	1855.46
459.56	1867.75
459.76	1974.24
459.97	1828.84
460.17	1877.99
460.37	1882.08
460.58	1806.31
460.78	1900.52
460.99	1816.55
461.19	1769.44
461.39	1748.97
461.60	1820.64
461.80	1949.67
462.00	1738.73
462.21	1820.64
462.41	1781.73
462.61	1759.21
462.82	1755.11
463.02	1841.12
463.22	1880.04
463.43	1914.85
463.63	1877.99
463.83	1845.22
464.04	1900.52
464.24	1898.47
464.44	1806.31
464.64	1794.02
464.85	1892.32
465.05	1830.88
465.25	1738.73
465.46	1826.79
465.66	1796.07
465.86	1892.32
466.07	1822.69
466.27	1849.32
466.47	1738.73
466.68	1744.87
466.88	1890.28
467.08	1873.89
467.29	1851.36
467.49	1857.51
467.69	1812.45
467.89	1882.08
468.10	1804.26
468.30	1853.41
468.50	1964.00
468.71	1898.47
468.91	1730.53
469.11	1916.90
469.31	1935.33
469.52	1734.63
469.72	1947.62
469.92	1902.56
470.13	1853.41
470.33	1884.13
470.53	1978.34
470.73	2258.91
470.94	2719.70
471.14	2848.72
471.34	3223.50
471.54	3151.82
471.75	2758.61
471.95	2596.82
472.15	2402.27
472.36	2406.36
472.56	2281.44
472.76	2267.10
472.96	2224.09
473.17	2199.52
473.37	2205.66
473.57	1929.19
473.77	1955.81
473.98	1904.61
474.18	1759.21
474.38	1978.34
474.58	1765.35
474.79	1789.92
474.99	1839.08
475.19	1826.79
475.39	1761.25
475.60	1787.88
475.80	1837.03
476.00	1824.74
476.20	1814.50
476.41	1904.61
476.61	1961.95
476.81	1857.51
477.01	1802.21
477.21	1953.76
477.42	1888.23
477.62	1708.01
477.82	1877.99
478.02	1832.93
478.23	1896.42
478.43	1705.96
478.63	1810.40
478.83	1908.71
479.03	1841.12
479.24	1894.37
479.44	2011.11
479.64	1740.77
479.84	1718.25
480.04	1785.83
480.25	1834.98
480.45	1824.74
480.65	1781.73
480.85	1982.43
481.06	1798.12
481.26	1880.04
481.46	1849.32
481.66	1810.40
481.86	1765.35
482.06	1859.56
482.27	1791.97
482.47	1771.49
482.67	1859.56
482.87	1759.21
483.07	1847.27
483.28	1791.97
483.48	1726.44
483.68	1820.64
483.88	1720.29
484.08	1765.35
484.29	1767.40
484.49	1777.64
484.69	1730.53
484.89	1906.66
485.09	1933.28
485.29	1863.65
485.50	1882.08
485.70	1869.80
485.90	1910.75
486.10	1855.46
486.30	1869.80
486.50	1882.08
486.71	1865.70
486.91	1935.33
487.11	1953.76
487.31	1697.77
487.51	1871.84
487.71	1742.82
487.91	1751.01
488.12	1775.59
488.32	1744.87
488.52	1806.31
488.72	1742.82
488.92	1712.10
489.12	1867.75
489.32	1865.70
489.53	1896.42
489.73	1775.59
489.93	1935.33
490.13	1837.03
490.33	1732.58
490.53	1794.02
490.73	1966.05
490.94	1806.31
491.14	1964.00
491.34	1927.14
491.54	2187.23
491.74	2895.83
491.94	3295.18
492.14	3715.02
492.34	3780.55
492.54	3243.98
492.75	2879.44
492.95	2791.38
493.15	2590.68
493.35	2584.54
493.55	2402.27
493.75	2398.17
493.95	2361.31
494.15	2246.62
494.35	2062.30
494.56	1925.09
494.76	1830.88
494.96	1890.28
495.16	1882.08
495.36	1824.74
495.56	1869.80
495.76	1773.54
495.96	1855.46
496.16	1781.73
496.36	1931.23
496.56	1767.40
496.77	1843.17
496.97	1777.64
497.17	1861.60
497.37	1775.59
497.57	1920.99
497.77	1798.12
497.97	1746.92
498.17	1845.22
498.37	1845.22
498.57	1867.75
498.77	1796.07
498.97	1939.43
499.17	1931.23
499.38	1857.51
499.58	1820.64
499.78	1882.08
499.98	1941.47
500.18	1853.41
500.38	1857.51
500.58	1951.71
500.78	2553.82
500.98	4679.61
501.18	6952.85
501.38	8535.93
501.58	9432.94
501.78	9414.51
501.98	7198.61
502.18	6072.23
502.38	5265.33
502.58	4827.06
502.78	4315.07
502.98	4247.49
503.18	4081.60
503.38	3610.57
503.59	3153.87
503.79	3051.47
503.99	2686.94
504.19	2506.71
504.39	2537.43
504.59	2463.71
504.79	2416.60
504.99	2445.27
505.19	2148.32
505.39	2209.76
505.59	2213.85
505.79	2140.13
505.99	2009.06
506.19	1927.14
506.39	2021.35
506.59	1902.56
506.79	1798.12
506.99	1966.05
507.19	1927.14
507.39	1888.23
507.59	1775.59
507.79	1761.25
507.99	1775.59
508.19	1882.08
508.39	1753.06
508.59	1808.36
508.79	1890.28
508.99	2017.25
509.19	1781.73
509.39	1871.84
509.59	1816.55
509.79	1800.16
509.99	1820.64
510.19	1886.18
510.39	1861.60
510.59	1802.21
510.79	1845.22
510.99	1746.92
511.19	1894.37
511.39	1908.71
511.59	1910.75
511.79	1920.99
511.99	1808.36
512.19	1939.43
512.38	1802.21
512.58	1816.55
512.78	1859.56
512.98	1947.62
513.18	1927.14
513.38	1828.84
513.58	1853.41
513.78	1857.51
513.98	1804.26
514.18	1746.92
514.38	1849.32
514.58	1832.93
514.78	1800.16
514.98	1849.32
515.18	1781.73
515.38	1789.92
515.58	1964.00
515.78	1841.12
515.98	1818.60
516.18	1892.32
516.38	1837.03
516.57	1841.12
516.77	1789.92
516.97	1847.27
517.17	1832.93
517.37	1773.54
517.57	1894.37
517.77	1791.97
517.97	1804.26
518.17	1880.04
518.37	1808.36
518.57	1865.70
518.77	1777.64
518.97	1851.36
519.16	1939.43
519.36	1859.56
519.56	1798.12
519.76	1822.69
519.96	1865.70
520.16	1898.47
520.36	1773.54
520.56	1888.23
520.76	1824.74
520.96	1834.98
521.16	1890.28
521.35	1935.33
521.55	1927.14
521.75	1820.64
521.95	1804.26
522.15	1828.84
522.35	1748.97
522.55	1763.30
522.75	1888.23
522.95	1789.92
523.14	1765.35
523.34	1824.74
523.54	1812.45
523.74	1798.12
523.94	1943.52
524.14	1705.96
524.34	1859.56
524.54	1933.28
524.73	1841.12
524.93	1814.50
525.13	1898.47
525.33	1763.30
525.53	2033.63
525.73	1843.17
525.93	1859.56
526.13	1843.17
526.32	1816.55
526.52	1906.66
526.72	1890.28
526.92	1859.56
527.12	1796.07
527.32	1716.20
527.52	1906.66
527.71	1834.98
527.91	1826.79
528.11	1804.26
528.31	1849.32
528.51	1791.97
528.71	1853.41
528.90	1961.95
529.10	1953.76
529.30	1910.75
529.50	1681.38
529.70	1908.71
529.90	1761.25
530.09	1863.65
530.29	1736.68
530.49	1759.21
530.69	1972.19
530.89	1906.66
531.09	1875.94
531.28	1853.41
531.48	1927.14
531.68	1789.92
531.88	1871.84
532.08	1853.41
532.28	1822.69
532.47	1822.69
532.67	1929.19
532.87	1904.61
533.07	1886.18
533.27	1843.17
533.46	1867.75
533.66	1914.85
533.86	1865.70
534.06	1914.85
534.26	1873.89
534.45	1798.12
534.65	1896.42
534.85	1871.84
535.05	1841.12
535.25	1959.91
535.44	1773.54
535.64	1841.12
535.84	1779.68
536.04	1781.73
536.24	1865.70
536.43	1832.93
536.63	1884.13
536.83	1777.64
537.03	1832.93
537.22	1761.25
537.42	1710.05
537.62	1837.03
537.82	1871.84
538.02	1923.04
538.21	1931.23
538.41	2023.39
538.61	1849.32
538.81	1824.74
539.00	1935.33
539.20	1779.68
539.40	1847.27
539.60	1988.58
539.79	1902.56
539.99	1826.79
540.19	1826.79
540.39	1853.41
540.58	1853.41
540.78	1857.51
540.98	1877.99
541.18	1953.76
541.37	1818.60
541.57	1824.74
541.77	1783.78
541.97	1714.15
542.16	1828.84
542.36	1759.21
542.56	1927.14
542.76	1966.05
542.95	1861.60
543.15	1882.08
543.35	1898.47
543.54	1802.21
543.74	1787.88
543.94	1888.23
544.14	1839.08
544.33	1896.42
544.53	1843.17
544.73	1849.32
544.93	1859.56
545.12	1794.02
545.32	1841.12
545.52	1839.08
545.71	1712.10
545.91	1738.73
546.11	1869.80
546.30	1800.16
546.50	1894.37
546.70	1877.99
546.90	1867.75
547.09	1718.25
547.29	1861.60
547.49	1892.32
547.68	1841.12
547.88	1800.16
548.08	1869.80
548.27	2381.79
548.47	1773.54
548.67	1769.44
548.87	1861.60
549.06	1826.79
549.26	1904.61
549.46	1775.59
549.65	1818.60
549.85	1800.16
550.05	1906.66
550.24	1783.78
550.44	1847.27
550.64	1865.70
550.83	1851.36
551.03	1875.94
551.23	1900.52
551.42	1867.75
551.62	1845.22
551.82	1826.79
552.01	1839.08
552.21	1966.05
552.41	1826.79
552.60	1875.94
552.80	1918.95
553.00	1818.60
553.19	1822.69
553.39	1943.52
553.59	1832.93
553.78	1888.23
553.98	1886.18
554.17	1791.97
554.37	1857.51
554.57	1896.42
554.76	1791.97
554.96	1787.88
555.16	1877.99
555.35	1880.04
555.55	1851.36
555.75	1814.50
555.94	1892.32
556.14	1777.64
556.33	1923.04
556.53	1839.08
556.73	1888.23
556.92	1941.47
557.12	1925.09
557.32	1996.77
557.51	1935.33
557.71	1966.05
557.90	2033.63
558.10	1839.08
558.30	1839.08
558.49	1798.12
558.69	1814.50
558.88	1816.55
559.08	1849.32
559.28	1849.32
559.47	1884.13
559.67	1828.84
559.86	1988.58
560.06	1837.03
560.26	1861.60
560.45	1902.56
560.65	1871.84
560.84	1959.91
561.04	1787.88
561.24	1865.70
561.43	1769.44
561.63	1990.63
561.82	1861.60
562.02	1847.27
562.22	1818.60
562.41	1818.60
562.61	1828.84
562.80	1818.60
563.00	1984.48
563.19	1884.13
563.39	1851.36
563.59	1851.36
563.78	1812.45
563.98	1722.34
564.17	1822.69
564.37	1746.92
564.56	1837.03
564.76	1814.50
564.96	1880.04
565.15	1861.60
565.35	2033.63
565.54	1794.02
565.74	1890.28
565.93	1820.64
566.13	1894.37
566.32	1900.52
566.52	1929.19
566.71	1845.22
566.91	1941.47
567.11	1748.97
567.30	1812.45
567.50	1902.56
567.69	1890.28
567.89	1828.84
568.08	1787.88
568.28	1845.22
568.47	1873.89
568.67	1902.56
568.86	1744.87
569.06	1935.33
569.25	1824.74
569.45	1699.81
569.64	1783.78
569.84	1744.87
570.04	1865.70
570.23	1800.16
570.43	1828.84
570.62	1834.98
570.82	1949.67
571.01	1742.82
571.21	1769.44
571.40	1785.83
571.60	1910.75
571.79	1894.37
571.99	1830.88
572.18	1800.16
572.38	1853.41
572.57	1830.88
572.77	1816.55
572.96	2025.44
573.16	1818.60
573.35	1814.50
573.55	2017.25
573.74	1894.37
573.94	1849.32
574.13	1853.41
574.33	1933.28
574.52	1972.19
574.71	1884.13
574.91	1894.37
575.10	1781.73
575.30	1832.93
575.49	1767.40
575.69	1787.88
575.88	1890.28
576.08	1861.60
576.27	1961.95
576.47	1943.52
576.66	2072.54
576.86	1947.62
577.05	1865.70
577.25	1937.38
577.44	2023.39
577.64	1779.68
577.83	1900.52
578.02	1853.41
578.22	1951.71
578.41	1906.66
578.61	1853.41
578.80	1832.93
579.00	1912.80
579.19	1873.89
579.39	1834.98
579.58	1886.18
579.77	1804.26
579.97	1959.91
580.16	1994.72
580.36	1933.28
580.55	1957.86
580.75	1888.23
580.94	1873.89
581.13	1937.38
581.33	2066.40
581.52	1847.27
581.72	2056.16
581.91	2011.11
582.11	1986.53
582.30	1957.86
582.49	1906.66
582.69	1959.91
582.88	1863.65
583.08	1918.95
583.27	1990.63
583.47	1849.32
583.66	1847.27
583.85	1853.41
584.05	1865.70
584.24	1859.56
584.44	1839.08
584.63	1888.23
584.82	2023.39
585.02	2060.26
585.21	2050.02
585.41	1982.43
585.60	2015.20
585.79	2140.13
585.99	2045.92
586.18	2009.06
586.37	2416.60
586.57	3631.05
586.76	10733.40
586.96	28608.08
587.15	43441.51
587.34	53017.82
587.54	59096.19
587.73	56345.76
587.93	40297.88
588.12	30115.38
588.31	23778.97
588.51	20541.13
588.70	18624.23
588.89	17092.35
589.09	15707.92
589.28	13367.09
589.47	11089.75
589.67	9211.76
589.86	7030.68
590.06	5154.74
590.25	3946.44
590.44	3012.56
590.64	2537.43
590.83	2426.84
591.02	2101.22
591.22	2095.07
591.41	2037.73
591.60	1976.29
591.80	2045.92
591.99	1855.46
592.18	1871.84
592.38	1992.67
592.57	1904.61
592.76	1941.47
592.96	1890.28
593.15	1841.12
593.34	1871.84
593.54	1851.36
593.73	1875.94
593.92	1894.37
594.12	1957.86
594.31	1884.13
594.50	2052.06
594.70	1951.71
594.89	2107.36
595.08	1851.36
595.28	1923.04
595.47	2050.02
595.66	1957.86
595.86	1861.60
596.05	1841.12
596.24	1845.22
596.43	1982.43
596.63	1925.09
596.82	1957.86
597.01	1945.57
597.21	2050.02
597.40	2009.06
597.59	1943.52
597.79	1920.99
597.98	1828.84
598.17	1902.56
598.36	1828.84
598.56	1857.51
598.75	1787.88
598.94	1920.99
599.14	1877.99
599.33	1814.50
599.52	1871.84
599.71	1906.66
599.91	1920.99
600.10	1945.57
600.29	1802.21
600.48	1957.86
600.68	1882.08
600.87	1824.74
601.06	1787.88
601.26	1798.12
601.45	1830.88
601.64	1892.32
601.83	1941.47
602.03	1824.74
602.22	1781.73
602.41	1861.60
602.60	1980.39
602.80	2015.20
602.99	1939.43
603.18	1939.43
603.37	1810.40
603.57	1898.47
603.76	1906.66
603.95	1880.04
604.14	1800.16
604.34	1804.26
604.53	1818.60
604.72	1882.08
604.91	1857.51
605.10	1935.33
605.30	1767.40
605.49	1968.10
605.68	1984.48
605.87	1767.40
606.07	1785.83
606.26	1861.60
606.45	1908.71
606.64	1918.95
606.84	1804.26
607.03	1869.80
607.22	1996.77
607.41	1918.95
607.60	1822.69
607.80	1877.99
607.99	1861.60
608.18	1806.31
608.37	1820.64
608.56	1855.46
608.76	1914.85
608.95	2009.06
609.14	1964.00
609.33	2019.30
609.52	2017.25
609.72	1900.52
609.91	1988.58
610.10	1865.70
610.29	1937.38
610.48	1886.18
610.68	1961.95
610.87	1818.60
611.06	1851.36
611.25	1837.03
611.44	1990.63
611.63	1830.88
611.83	1974.24
612.02	1767.40
612.21	1980.39
612.40	1757.16
612.59	1738.73
612.79	1738.73
612.98	1847.27
613.17	1951.71
613.36	1830.88
613.55	1992.67
613.74	1976.29
613.93	1982.43
614.13	2062.30
614.32	2113.50
614.51	2117.60
614.70	2000.87
614.89	1918.95
615.08	1931.23
615.28	2299.87
615.47	1865.70
615.66	1931.23
615.85	1904.61
616.04	1943.52
616.23	1918.95
616.42	1918.95
616.62	1918.95
616.81	1923.04
617.00	1908.71
617.19	1916.90
617.38	1824.74
617.57	1875.94
617.76	1978.34
617.95	1910.75
618.15	1904.61
618.34	1904.61
618.53	1867.75
618.72	1853.41
618.91	1980.39
619.10	1961.95
619.29	1818.60
619.48	1875.94
619.68	1751.01
619.87	1853.41
620.06	1800.16
620.25	1837.03
620.44	1783.78
620.63	1918.95
620.82	1882.08
621.01	1849.32
621.20	1871.84
621.39	1877.99
621.59	1816.55
621.78	1853.41
621.97	1841.12
622.16	1910.75
622.35	1826.79
622.54	1953.76
622.73	1935.33
622.92	1697.77
623.11	1873.89
623.30	1812.45
623.49	1902.56
623.68	1814.50
623.88	1933.28
624.07	1810.40
624.26	1816.55
624.45	1906.66
624.64	1853.41
624.83	1855.46
625.02	1830.88
625.21	1789.92
625.40	1857.51
625.59	1867.75
625.78	1863.65
625.97	1939.43
626.16	1964.00
626.35	1996.77
626.54	1867.75
626.74	2033.63
626.93	1923.04
627.12	1931.23
627.31	1968.10
627.50	1920.99
627.69	1957.86
627.88	1832.93
628.07	1828.84
628.26	1740.77
628.45	1841.12
628.64	1783.78
628.83	1894.37
629.02	1718.25
629.21	1918.95
629.40	1837.03
629.59	1824.74
629.78	1834.98
629.97	1882.08
630.16	1839.08
630.35	1851.36
630.54	1820.64
630.73	1771.49
630.92	1818.60
631.11	1748.97
631.30	1794.02
631.49	1906.66
631.68	1877.99
631.87	1869.80
632.06	1771.49
632.25	1968.10
632.44	1894.37
632.63	1931.23
632.82	1877.99
633.01	1822.69
633.20	1920.99
633.39	1918.95
633.58	1914.85
633.77	1904.61
633.96	1865.70
634.15	1916.90
634.34	1914.85
634.53	1861.60
634.72	1851.36
634.91	1765.35
635.10	1826.79
635.29	1939.43
635.48	1920.99
635.67	1746.92
635.86	1775.59
636.05	1865.70
636.24	1863.65
636.43	1863.65
636.62	1853.41
636.81	1695.72
637.00	1808.36
637.19	1826.79
637.38	1877.99
637.57	1847.27
637.76	1925.09
637.95	1935.33
638.14	1964.00
638.33	1990.63
638.52	1914.85
638.71	1800.16
638.89	1845.22
639.08	2004.96
639.27	1943.52
639.46	2031.58
639.65	2340.83
639.84	2521.05
640.03	2506.71
640.22	2486.23
640.41	2656.22
640.60	2215.90
640.79	2125.79
640.98	2097.12
641.17	2111.46
641.36	2050.02
641.55	2095.07
641.74	1959.91
641.92	1902.56
642.11	1834.98
642.30	1892.32
642.49	1781.73
642.68	1828.84
642.87	1886.18
643.06	1931.23
643.25	1843.17
643.44	1857.51
643.63	1904.61
643.82	1896.42
644.00	1787.88
644.19	1845.22
644.38	1742.82
644.57	1839.08
644.76	1906.66
644.95	1787.88
645.14	1816.55
645.33	1828.84
645.52	1882.08
645.71	1695.72
645.89	1783.78
646.08	1800.16
646.27	1812.45
646.46	2000.87
646.65	1742.82
646.84	1834.98
647.03	1757.16
647.22	1880.04
647.40	1880.04
647.59	1738.73
647.78	1791.97
647.97	1753.06
648.16	1773.54
648.35	1939.43
648.54	1920.99
648.73	1724.39
648.91	1906.66
649.10	1816.55
649.29	1816.55
649.48	1837.03
649.67	1820.64
649.86	1914.85
650.05	1945.57
650.23	1978.34
650.42	1902.56
650.61	2060.26
650.80	2021.35
650.99	2119.65
651.18	1959.91
651.36	1902.56
651.55	1865.70
651.74	1972.19
651.93	1816.55
652.12	1869.80
652.31	1822.69
652.49	1841.12
652.68	1828.84
652.87	1937.38
653.06	1990.63
653.25	1927.14
653.44	1822.69
653.62	1888.23
653.81	1918.95
654.00	1900.52
654.19	1816.55
654.38	1935.33
654.56	1849.32
654.75	1828.84
654.94	1853.41
655.13	1810.40
655.32	1849.32
655.51	1822.69
655.69	1773.54
655.88	1849.32
656.07	1738.73
656.26	1746.92
656.45	1710.05
656.63	1804.26
656.82	1837.03
657.01	1908.71
657.20	1779.68
657.38	1849.32
657.57	1847.27
657.76	1796.07
657.95	1871.84
658.14	1804.26
658.32	1751.01
658.51	1808.36
658.70	1734.63
658.89	1937.38
659.08	1839.08
659.26	1996.77
659.45	1806.31
659.64	1970.15
659.83	1867.75
660.01	2086.88
660.20	1931.23
660.39	1925.09
660.58	1732.58
660.76	1908.71
660.95	1845.22
661.14	1796.07
661.33	1748.97
661.51	1863.65
661.70	1779.68
661.89	1877.99
662.08	1877.99
662.26	1740.77
662.45	1789.92
662.64	1933.28
662.83	1904.61
663.01	1804.26
663.20	1781.73
663.39	1871.84
663.58	1888.23
663.76	1824.74
663.95	1875.94
664.14	1701.86
664.32	1775.59
664.51	1748.97
664.70	1726.44
664.89	1925.09
665.07	1783.78
665.26	1927.14
665.45	1751.01
665.64	1939.43
665.82	1910.75
666.01	1841.12
666.20	1779.68
666.38	1955.81
666.57	1951.71
666.76	2447.32
666.95	5734.31
667.13	13428.53
667.32	19871.44
667.51	23488.15
667.69	26211.95
667.88	25564.79
668.07	19216.09
668.25	14403.36
668.44	12076.87
668.63	9789.29
668.81	8781.69
669.00	7931.78
669.19	7071.64
669.38	6184.87
669.56	5263.28
669.75	4394.94
669.94	3712.97
670.12	3104.72
670.31	2650.07
670.50	2361.31
670.68	2176.99
670.87	2021.35
671.06	1998.82
671.24	2031.58
671.43	2050.02
671.62	1912.80
671.80	1923.04
671.99	1918.95
672.18	1882.08
672.36	1923.04
672.55	1832.93
672.74	1847.27
672.92	1814.50
673.11	1961.95
673.29	1771.49
673.48	1867.75
673.67	1800.16
673.85	1890.28
674.04	1841.12
674.23	1789.92
674.41	1957.86
674.60	1818.60
674.79	1761.25
674.97	1775.59
675.16	1925.09
675.34	1888.23
675.53	1775.59
675.72	1886.18
675.90	1865.70
676.09	1802.21
676.28	1794.02
676.46	1691.62
676.65	1871.84
676.83	1767.40
677.02	1798.12
677.21	1761.25
677.39	1853.41
677.58	1814.50
677.77	1812.45
677.95	1806.31
678.14	1841.12
678.32	1832.93
678.51	1857.51
678.70	1923.04
678.88	1779.68
679.07	1837.03
679.25	1818.60
679.44	1773.54
679.63	1765.35
679.81	1755.11
680.00	1867.75
680.18	1820.64
680.37	1877.99
680.55	1875.94
680.74	1738.73
680.93	1759.21
681.11	1783.78
681.30	1757.16
681.48	1783.78
681.67	1794.02
681.85	1867.75
682.04	1843.17
682.23	1920.99
682.41	1757.16
682.60	1802.21
682.78	1841.12
682.97	1818.60
683.15	1861.60
683.34	1794.02
683.53	1931.23
683.71	1785.83
683.90	1892.32
684.08	1943.52
684.27	1736.68
684.45	1820.64
684.64	1908.71
684.82	1824.74
685.01	1945.57
685.19	1865.70
685.38	1982.43
685.57	1832.93
685.75	1773.54
685.94	1771.49
686.12	1802.21
686.31	1865.70
686.49	1904.61
686.68	1748.97
686.86	1849.32
687.05	1816.55
687.23	1918.95
687.42	1785.83
687.60	1769.44
687.79	1910.75
687.97	1927.14
688.16	1886.18
688.34	1945.57
688.53	1720.29
688.71	1822.69
688.90	1908.71
689.08	1839.08
689.27	1740.77
689.45	1929.19
689.64	1820.64
689.82	1855.46
690.01	1845.22
690.19	1880.04
690.38	1728.49
690.56	1910.75
690.75	1693.67
690.93	1738.73
691.12	1771.49
691.30	1865.70
691.49	1783.78
691.67	1775.59
691.86	2037.73
692.04	1769.44
692.23	1828.84
692.41	1853.41
692.60	2072.54
692.78	1978.34
692.97	1904.61
693.15	1882.08
693.34	1978.34
693.52	1951.71
693.71	1824.74
693.89	1755.11
694.08	1767.40
694.26	1914.85
694.44	1890.28
694.63	1849.32
694.81	1734.63
695.00	1820.64
695.18	1884.13
695.37	1955.81
695.55	1738.73
695.74	1771.49
695.92	1693.67
696.10	1955.81
696.29	1724.39
696.47	1751.01
696.66	1736.68
696.84	1796.07
697.03	1781.73
697.21	1906.66
697.40	2519.00
697.58	1892.32
697.76	1746.92
697.95	1789.92
698.13	1820.64
698.32	1804.26
698.50	1783.78
698.68	1738.73
698.87	1869.80
699.05	1855.46
699.24	1861.60
699.42	1732.58
699.61	1865.70
699.79	1867.75
699.97	1873.89
700.16	1755.11
700.34	1722.34
700.53	1834.98
700.71	1910.75
700.89	1853.41
701.08	1824.74
701.26	1861.60
701.45	2269.15
701.63	1740.77
701.81	1767.40
702.00	1755.11
702.18	1888.23
702.37	1855.46
702.55	2082.78
702.73	2011.11
702.92	2029.54
703.10	2146.27
703.28	2095.07
703.47	1990.63
703.65	1949.67
703.84	1951.71
704.02	1925.09
704.20	1978.34
704.39	1828.84
704.57	1894.37
704.75	1959.91
704.94	1886.18
705.12	1920.99
705.30	1959.91
705.49	3049.43
705.67	7298.96
705.86	16375.56
706.04	21962.42
706.22	25607.80
706.41	27381.34
706.59	25808.50
706.77	18966.24
706.96	14307.11
707.14	12584.77
707.32	10772.32
707.51	9553.77
707.69	8109.96
707.87	6762.39
708.06	5408.69
708.24	4212.67
708.42	3307.47
708.61	2912.21
708.79	2240.48
708.97	2148.32
709.16	2111.46
709.34	1964.00
709.52	1820.64
709.71	1861.60
709.89	1925.09
710.07	1777.64
710.26	1818.60
710.44	1800.16
710.62	1873.89
710.80	1796.07
710.99	1955.81
711.17	1871.84
711.35	1751.01
711.54	1734.63
711.72	1900.52
711.90	1865.70
712.09	1902.56
712.27	1814.50
712.45	1933.28
712.63	1775.59
712.82	1816.55
713.00	1841.12
713.18	1826.79
713.37	1902.56
713.55	1824.74
713.73	1771.49
713.91	1804.26
714.10	1796.07
714.28	1757.16
714.46	1857.51
714.65	1890.28
714.83	1812.45
715.01	1867.75
715.19	1877.99
715.38	1791.97
715.56	1849.32
715.74	1761.25
715.92	1718.25
716.11	1980.39
716.29	1642.47
716.47	1867.75
716.65	1763.30
716.84	1732.58
717.02	1830.88
717.20	1761.25
717.38	1824.74
717.57	1791.97
717.75	1902.56
717.93	1845.22
718.11	1890.28
718.30	1710.05
718.48	1843.17
718.66	1894.37
718.84	1898.47
719.03	1806.31
719.21	1804.26
719.39	1927.14
719.57	1847.27
719.75	1875.94
719.94	1798.12
720.12	1804.26
720.30	1798.12
720.48	1886.18
720.67	1802.21
720.85	1753.06
721.03	1800.16
721.21	1765.35
721.39	1882.08
721.58	1853.41
721.76	1828.84
721.94	1859.56
722.12	1845.22
722.30	1935.33
722.49	1851.36
722.67	1824.74
722.85	1830.88
723.03	1775.59
723.21	1730.53
723.40	1806.31
723.58	1820.64
723.76	1892.32
723.94	1937.38
724.12	1832.93
724.30	1986.53
724.49	1982.43
724.67	1886.18
724.85	1953.76
725.03	1746.92
725.21	1902.56
725.40	1875.94
725.58	1767.40
725.76	1937.38
725.94	1923.04
726.12	1847.27
726.30	1771.49
726.49	1834.98
726.67	1761.25
726.85	1925.09
727.03	2002.91
727.21	2754.52
727.39	4138.94
727.57	5605.29
727.76	6360.99
727.94	6936.47
728.12	6995.86
728.30	5916.58
728.48	4708.28
728.66	4186.05
728.84	3755.97
729.03	3291.09
729.21	2971.60
729.39	2547.67
729.57	2142.18
729.75	2107.36
729.93	2015.20
730.11	1976.29
730.30	1896.42
730.48	1853.41
730.66	1892.32
730.84	1869.80
731.02	1843.17
731.20	1787.88
731.38	1783.78
731.56	1730.53
731.74	1753.06
731.93	1824.74
732.11	1865.70
732.29	1837.03
732.47	1906.66
732.65	1841.12
732.83	1884.13
733.01	1726.44
733.19	1828.84
733.37	1806.31
733.56	1830.88
733.74	1708.01
733.92	1908.71
734.10	1769.44
734.28	1837.03
734.46	1773.54
734.64	1689.57
734.82	1798.12
735.00	1769.44
735.18	1798.12
735.36	1847.27
735.54	1751.01
735.73	1810.40
735.91	1822.69
736.09	1804.26
736.27	1810.40
736.45	1959.91
736.63	1718.25
736.81	1740.77
736.99	1886.18
737.17	1912.80
737.35	1796.07
737.53	1818.60
737.71	1798.12
737.89	1886.18
738.07	1796.07
738.25	1791.97
738.43	1732.58
738.61	1742.82
738.80	1724.39
738.98	1820.64
739.16	1832.93
739.34	1728.49
739.52	1939.43
739.70	1808.36
739.88	1912.80
740.06	1906.66
740.24	1681.38
740.42	1918.95
740.60	1699.81
740.78	1781.73
740.96	1734.63
741.14	1824.74
741.32	1804.26
741.50	1746.92
741.68	1888.23
741.86	2004.96
742.04	1759.21
742.22	1812.45
742.40	1873.89
742.58	1853.41
742.76	1806.31
742.94	1871.84
743.12	1779.68
743.30	1804.26
743.48	1884.13
743.66	1828.84
743.84	1824.74
744.02	1783.78
744.20	1800.16
744.38	1771.49
744.56	1787.88
744.74	1898.47
744.92	1847.27
745.10	1927.14
745.28	1918.95
745.46	1859.56
745.64	1837.03
745.82	1880.04
746.00	1882.08
746.18	1845.22
746.36	1724.39
746.54	1863.65
746.72	1816.55
746.90	1744.87
747.08	1845.22
747.26	1781.73
747.44	1880.04
747.62	1865.70
747.80	1837.03
747.98	1814.50
748.15	1773.54
748.33	1896.42
748.51	1808.36
748.69	1888.23
748.87	1703.91
749.05	1839.08
749.23	1812.45
749.41	1765.35
749.59	1861.60
749.77	1783.78
749.95	1828.84
750.13	1736.68
750.31	1849.32
750.49	1771.49
750.67	1875.94
750.85	1902.56
751.03	1853.41
751.20	2015.20
751.38	1775.59
751.56	1757.16
751.74	1865.70
751.92	1837.03
752.10	1724.39
752.28	1953.76
752.46	1705.96
752.64	1802.21
752.82	1800.16
753.00	1873.89
753.18	1804.26
753.35	1851.36
753.53	1814.50
753.71	1779.68
753.89	1916.90
754.07	1888.23
754.25	1822.69
754.43	1794.02
754.61	1779.68
754.79	1869.80
754.97	1877.99
755.14	1873.89
755.32	1724.39
755.50	1892.32
755.68	1783.78
755.86	1775.59
756.04	1849.32
756.22	1722.34
756.40	1894.37
756.57	1984.48
756.75	1820.64
756.93	1875.94
757.11	1867.75
757.29	1724.39
757.47	1757.16
757.65	1732.58
757.82	1658.85
758.00	1771.49
758.18	1773.54
758.36	1800.16
758.54	1912.80
758.72	1742.82
758.90	1839.08
759.07	1818.60
759.25	1785.83
759.43	1869.80
759.61	1697.77
759.79	2381.79
759.97	1865.70
760.15	1796.07
760.32	1806.31
760.50	1857.51
760.68	2002.91
760.86	1767.40
761.04	1904.61
761.22	1980.39
761.39	1755.11
761.57	1828.84
761.75	1728.49
761.93	1789.92
762.11	1757.16
762.28	1761.25
762.46	1697.77
762.64	1900.52
762.82	1789.92
763.00	1787.88
763.18	1920.99
763.35	1787.88
763.53	1837.03
763.71	1814.50
763.89	1841.12
764.07	1771.49
764.24	1810.40
764.42	1800.16
764.60	1769.44
764.78	1834.98
764.96	1839.08
765.13	1869.80
765.31	1816.55
765.49	1822.69
765.67	1794.02
765.84	1789.92
766.02	1781.73
766.20	1789.92
766.38	1837.03
766.56	1884.13
766.73	1867.75
766.91	1789.92
767.09	1785.83
767.27	1906.66
767.44	1689.57
767.62	1857.51
767.80	1818.60
767.98	1791.97
768.15	1816.55
768.33	1785.83
768.51	1845.22
768.69	1822.69
768.87	1875.94
769.04	1816.55
769.22	1923.04
769.40	1964.00
769.58	2007.01
769.75	1777.64
769.93	1853.41
770.11	1867.75
770.28	1751.01
770.46	1837.03
770.64	1826.79
770.82	1775.59
770.99	1783.78
771.17	1834.98
771.35	1814.50
771.53	1763.30
771.70	1798.12
771.88	1822.69
772.06	1783.78
772.23	1796.07
772.41	1822.69
772.59	1865.70
772.77	1683.43
772.94	1794.02
773.12	1877.99
773.30	1773.54
773.47	1812.45
773.65	1779.68
773.83	1873.89
774.01	1777.64
774.18	1667.05
774.36	1773.54
774.54	1753.06
774.71	1804.26
774.89	1701.86
775.07	1751.01
775.24	1845.22
775.42	1865.70
775.60	1964.00
775.78	1783.78
775.95	1751.01
776.13	1761.25
776.31	1697.77
776.48	1828.84
776.66	1953.76
776.84	1798.12
777.01	1757.16
777.19	1738.73
777.37	1798.12
777.54	1837.03
777.72	1972.19
777.90	1779.68
778.07	1804.26
778.25	2019.30
778.43	1839.08
778.60	1726.44
778.78	1890.28
778.96	1867.75
779.13	1777.64
779.31	1865.70
779.49	1787.88
779.66	1892.32
779.84	1746.92
780.01	1845.22
780.19	1757.16
780.37	1888.23
780.54	1771.49
780.72	1765.35
780.90	1871.84
781.07	1808.36
781.25	1794.02
781.43	1839.08
781.60	1742.82
781.78	1945.57
781.95	1849.32
782.13	1742.82
782.31	1810.40
782.48	1748.97
782.66	1775.59
782.83	1880.04
783.01	1869.80
783.19	1847.27
783.36	1783.78
783.54	1732.58
783.72	1882.08
783.89	1718.25
784.07	1804.26
784.24	1843.17
784.42	1943.52
784.60	1865.70
784.77	1841.12
784.95	1712.10
785.12	1775.59
785.30	1834.98
785.47	1773.54
785.65	1812.45
785.83	1771.49
786.00	1828.84
786.18	1894.37
786.35	1761.25
786.53	1720.29
786.71	1834.98
786.88	1820.64
787.06	1779.68
787.23	1820.64
787.41	1773.54
787.58	1800.16
787.76	1771.49
787.94	1871.84
788.11	1785.83
788.29	1689.57
788.46	1781.73
788.64	1771.49
788.81	1791.97
788.99	1732.58
789.16	1744.87
789.34	1744.87
789.52	1837.03
789.69	1748.97
789.87	1677.29
790.04	1824.74
790.22	1888.23
790.39	1894.37
790.57	1679.33
790.74	1808.36
790.92	1802.21
791.09	1714.15
791.27	1818.60
791.44	1898.47
791.62	1804.26
791.79	1904.61
791.97	1783.78
792.15	1908.71
792.32	1796.07
792.50	1830.88
792.67	1929.19
792.85	1853.41
793.02	1816.55
793.20	1839.08
793.37	1746.92
793.55	1808.36
793.72	1677.29
793.90	1910.75
794.07	1861.60
794.25	1804.26
794.42	1816.55
794.60	1894.37
794.77	1804.26
794.95	1826.79
795.12	1927.14
795.30	1843.17
795.47	1683.43
795.65	1951.71
795.82	1877.99
796.00	1705.96
796.17	1771.49
796.34	1800.16
796.52	1746.92
796.69	1865.70
796.87	1873.89
797.04	1853.41
797.22	1812.45
797.39	1896.42
797.57	1859.56
797.74	1910.75
797.92	1871.84
798.09	1802.21
798.27	1847.27
798.44	1845.22
798.62	1779.68
798.79	1796.07
798.96	1796.07
799.14	1806.31
799.31	1951.71
799.49	1902.56
799.66	1806.31
799.84	1730.53
800.01	1730.53
800.19	1832.93
800.36	1656.81
800.53	1851.36
800.71	1873.89
800.88	1927.14
801.06	1769.44
801.23	1783.78
801.41	1781.73
801.58	1812.45
801.75	1785.83
801.93	1859.56
802.10	1837.03
802.28	1798.12
802.45	1826.79
802.63	1822.69
802.80	1875.94
802.97	1828.84
803.15	1861.60
803.32	1767.40
803.50	1759.21
803.67	1748.97
803.84	1771.49
804.02	1880.04
804.19	1775.59
804.37	1662.95
804.54	1746.92
804.71	1843.17
804.89	1775.59
805.06	1722.34
805.24	1775.59
805.41	1832.93
805.58	1812.45
805.76	1961.95
805.93	1806.31
806.10	1986.53
806.28	1802.21
806.45	1724.39
806.63	1834.98
806.80	1839.08
806.97	1857.51
807.15	1855.46
807.32	1904.61
807.49	1830.88
807.67	1673.19
807.84	1818.60
808.01	1689.57
808.19	2000.87
808.36	2021.35
808.54	1820.64
808.71	1845.22
808.88	1761.25
809.06	1912.80
809.23	1886.18
809.40	1828.84
809.58	1916.90
809.75	1853.41
809.92	1779.68
810.10	1955.81
810.27	1714.15
810.44	1812.45
810.62	1882.08
810.79	1810.40
810.96	1824.74
811.14	1734.63
811.31	1748.97
811.48	1972.19
811.66	1728.49
811.83	1873.89
812.00	1841.12
812.18	1871.84
812.35	1929.19
812.52	1753.06
812.69	1783.78
812.87	1779.68
813.04	1722.34
813.21	1834.98
813.39	1820.64
813.56	1781.73
813.73	1812.45
813.91	1718.25
814.08	1800.16
814.25	1794.02
814.42	1642.47
814.60	1794.02
814.77	1808.36
814.94	1828.84
815.12	1789.92
815.29	1920.99
815.46	1730.53
815.63	1812.45
815.81	1794.02
815.98	1789.92
816.15	1808.36
816.33	1783.78
816.50	1697.77
816.67	1826.79
816.84	1779.68
817.02	1740.77
817.19	1740.77
817.36	1726.44
817.53	1875.94
817.71	1748.97
817.88	1828.84
818.05	1751.01
818.22	1822.69
818.40	1916.90
818.57	1820.64
818.74	1871.84
818.91	1845.22
819.09	1814.50
819.26	1904.61
819.43	1794.02
819.60	1781.73
819.78	1830.88
819.95	1880.04
820.12	1734.63
820.29	1882.08
820.47	1910.75
820.64	1767.40
820.81	1714.15
820.98	1810.40
821.15	1832.93
821.33	1929.19
821.50	1710.05
821.67	1904.61
821.84	1814.50
822.02	1843.17
822.19	1892.32
822.36	1724.39
822.53	1845.22
822.70	1708.01
822.88	1779.68
823.05	1877.99
823.22	1738.73
823.39	1861.60
823.56	1859.56
823.74	1927.14
823.91	1728.49
824.08	1802.21
824.25	1824.74
824.42	1953.76
824.60	1757.16
824.77	1796.07
824.94	1814.50
825.11	1855.46
825.28	1751.01
825.45	1857.51
825.63	1855.46
825.80	1728.49
825.97	1851.36
826.14	1880.04
826.31	1665.00
826.48	1757.16
826.66	1730.53
826.83	1859.56
827.00	1783.78
827.17	1771.49
827.34	1791.97
827.51	1777.64
827.69	1755.11
827.86	1812.45
828.03	1826.79
828.20	1839.08
828.37	1722.34
828.54	1845.22
828.71	1679.33
828.89	1923.04
829.06	1722.34
829.23	1896.42
829.40	1777.64
829.57	1822.69
829.74	1910.75
829.91	1777.64
830.09	1814.50
830.26	1888.23
830.43	1931.23
830.60	1732.58
830.77	1841.12
830.94	1890.28
831.11	1894.37
831.28	1787.88
831.46	1832.93
831.63	1796.07
831.80	1865.70
831.97	1751.01
832.14	1884.13
832.31	1828.84
832.48	1818.60
832.65	1867.75
832.82	1843.17
832.99	1812.45
833.17	1679.33
833.34	1806.31
833.51	1882.08
833.68	1667.05
833.85	1888.23
834.02	1742.82
834.19	1783.78
834.36	1722.34
834.53	1806.31
834.70	1859.56
834.87	1855.46
835.04	1806.31
835.22	1695.72
835.39	1783.78
835.56	1744.87
835.73	1763.30
835.90	1873.89
836.07	1679.33
836.24	1877.99
836.41	1767.40
836.58	1748.97
836.75	1918.95
836.92	1880.04
837.09	1791.97
837.26	1834.98
837.43	1849.32
837.60	1798.12
837.77	1787.88
837.94	1814.50
838.12	1931.23
838.29	1877.99
838.46	1767.40
838.63	1744.87
838.80	1929.19
838.97	1810.40
839.14	1822.69
839.31	1824.74
839.48	1806.31
839.65	1791.97
839.82	1871.84
839.99	1771.49
840.16	1767.40
840.33	1777.64
840.50	1718.25
840.67	1777.64
840.84	1656.81
841.01	1798.12
841.18	1720.29
841.35	1785.83
841.52	1767.40
841.69	1941.47
841.86	1857.51
842.03	1777.64
842.20	1773.54
842.37	1837.03
842.54	1810.40
842.71	1810.40
842.88	1677.29
843.05	1828.84
843.22	1755.11
843.39	1826.79
843.56	1796.07
843.73	1863.65
843.90	1832.93
844.07	1796.07
844.24	1853.41
844.41	1849.32
844.58	1820.64
844.75	1798.12
844.92	1861.60
845.09	1834.98
845.26	1785.83
845.43	1839.08
845.60	1855.46
845.77	1865.70
845.94	1800.16
846.10	1863.65
846.27	1732.58
846.44	1806.31
846.61	1695.72
846.78	1824.74
846.95	1877.99
847.12	1832.93
847.29	1722.34
847.46	1791.97
847.63	1869.80
847.80	1800.16
847.97	1826.79
848.14	1882.08
848.31	1789.92
848.48	1753.06
848.65	1822.69
848.82	1830.88
848.98	1933.28
849.15	1808.36
849.32	1912.80
849.49	1841.12
849.66	1767.40
849.83	1826.79
850.00	1820.64
850.17	1939.43
850.34	1826.79
850.51	1834.98
850.68	1767.40
850.85	1920.99
851.01	1843.17
851.18	1849.32
851.35	1841.12
851.52	1802.21
851.69	1902.56
851.86	1710.05
852.03	1816.55
852.20	1900.52
852.37	1808.36
852.53	1689.57
852.70	1816.55
852.87	1837.03
853.04	1916.90
853.21	1861.60
853.38	1845.22
853.55	1843.17
853.72	1806.31
853.89	1775.59
854.05	1759.21
854.22	1800.16
854.39	1824.74
854.56	1843.17
854.73	1861.60
854.90	1832.93
855.07	1845.22
855.23	1761.25
855.40	1769.44
855.57	1826.79
855.74	1662.95
855.91	1984.48
856.08	1765.35
856.25	1759.21
856.41	1703.91
856.58	1810.40
856.75	1877.99
856.92	1779.68
857.09	1855.46
857.26	1755.11
857.42	1755.11
857.59	1914.85
857.76	1822.69
857.93	1851.36
858.10	1794.02
858.27	1814.50
858.43	1791.97
858.60	1730.53
858.77	1742.82
858.94	1759.21
859.11	1853.41
859.27	1804.26
859.44	1824.74
859.61	2052.06
859.78	1951.71
859.95	1845.22
860.12	1812.45
860.28	1918.95
860.45	1923.04
860.62	1794.02
860.79	1834.98
860.95	1822.69
861.12	1736.68
861.29	1779.68
861.46	1804.26
861.63	1720.29
861.79	1804.26
861.96	1751.01
862.13	1810.40
862.30	1865.70
862.47	1714.15
862.63	1791.97
862.80	1863.65
862.97	1832.93
863.14	1837.03
863.30	1814.50
863.47	1753.06
863.64	1875.94
863.81	1816.55
863.97	1796.07
864.14	1791.97
864.31	1828.84
864.48	1867.75
864.65	1800.16
864.81	1908.71
864.98	1806.31
865.15	1865.70
865.32	1859.56
865.48	1816.55
865.65	1912.80
865.82	1816.55
865.98	1857.51
866.15	1871.84
866.32	1839.08
866.49	1796.07
866.65	1951.71
866.82	1761.25
866.99	1771.49
867.16	1830.88
867.32	1773.54
867.49	1798.12
867.66	1753.06
867.83	1767.40
867.99	1757.16
868.16	1843.17
868.33	1687.53
868.49	1765.35
868.66	1771.49
868.83	1853.41
868.99	1775.59
869.16	1859.56
869.33	1830.88
869.50	1832.93
869.66	1761.25
869.83	1789.92
870.00	1656.81
870.16	1771.49
870.33	1775.59
870.50	1830.88
870.66	1800.16
870.83	1869.80
871.00	1914.85
871.17	1849.32
871.33	1857.51
871.50	1877.99
871.67	1777.64
871.83	1718.25
872.00	1953.76
872.17	1834.98
872.33	1884.13
872.50	1935.33
872.67	1734.63
872.83	1763.30
873.00	1777.64
873.17	1814.50
873.33	1847.27
873.50	1839.08
873.67	1804.26
873.83	1775.59
874.00	1777.64
874.16	1906.66
874.33	1783.78
874.50	1740.77
874.66	1892.32
874.83	1800.16
875.00	1857.51
875.16	1875.94
875.33	1849.32
875.50	1720.29
875.66	1849.32
875.83	1863.65
875.99	1802.21
876.16	1769.44
876.33	1777.64
876.49	1820.64
876.66	1882.08
876.83	1794.02
876.99	1683.43
877.16	1808.36
877.32	1763.30
877.49	1763.30
877.66	1761.25
877.82	1828.84
877.99	1869.80
878.15	1888.23
878.32	1769.44
878.49	1886.18
878.65	1773.54
878.82	1847.27
878.98	1798.12
879.15	1886.18
879.32	1851.36
879.48	1822.69
879.65	1759.21
879.81	1691.62
879.98	1771.49
880.15	1763.30
880.31	1865.70
880.48	1695.72
880.64	1861.60
880.81	1904.61
880.97	1865.70
881.14	1849.32
881.31	1773.54
881.47	1964.00
881.64	1757.16
881.80	1724.39
881.97	1832.93
882.13	1898.47
882.30	1751.01
882.47	1802.21
882.63	1816.55
882.80	1765.35
882.96	1824.74
883.13	1923.04
883.29	1781.73
883.46	1812.45
883.62	2000.87
883.79	1822.69
883.95	1847.27
884.12	1791.97
884.29	1875.94
884.45	1810.40
884.62	1886.18
884.78	1791.97
884.95	1970.15
885.11	1724.39
885.28	1779.68
885.44	1751.01
885.61	1865.70
885.77	1832.93
885.94	1794.02
886.10	1851.36
886.27	1837.03
886.43	1937.38
886.60	1875.94
886.76	1779.68
886.93	1687.53
887.09	1882.08
887.26	1779.68
887.42	1843.17
887.59	1837.03
887.75	1882.08
887.92	1808.36
888.08	1853.41
888.25	1875.94
888.41	1845.22
888.58	1830.88
888.74	1775.59
888.91	1710.05
>>>>>End Processed Spectral Data<<<<<
