SpectraSuite Data File
++++++++++++++++++++++++++++++++++++
Date: Wed May 04 21:13:31 CEST 2016
User: root
Dark Spectrum Present: No
Reference Spectrum Present: No
Number of Sampled Component Spectra: 1
Spectrometers: USB4C02835
Integration Time (usec): 100000 (USB4C02835)
Spectra Averaged: 1 (USB4C02835)
Boxcar Smoothing: 0 (USB4C02835)
Correct for Electrical Dark: No (USB4C02835)
Strobe/Lamp Enabled: No (USB4C02835)
Correct for Detector Non-linearity: No (USB4C02835)
Correct for Stray Light: No (USB4C02835)
Number of Pixels in Processed Spectrum: 3648
>>>>>Begin Processed Spectral Data<<<<<
177.47	1558.50
177.69	1558.50
177.91	1558.50
178.13	1511.40
178.36	1505.26
178.58	1757.16
178.80	1837.03
179.02	1693.67
179.24	1755.11
179.46	1785.83
179.68	1955.81
179.90	1703.91
180.13	1748.97
180.35	1763.30
180.57	1806.31
180.79	1906.66
181.01	1810.40
181.23	1779.68
181.45	1943.52
181.67	1828.84
181.90	1865.70
182.12	1679.33
182.34	1787.88
182.56	1888.23
182.78	1861.60
183.00	1712.10
183.22	1882.08
183.44	1695.72
183.66	1966.05
183.89	1900.52
184.11	1785.83
184.33	1863.65
184.55	1916.90
184.77	1847.27
184.99	1779.68
185.21	1796.07
185.43	1953.76
185.65	1828.84
185.87	1841.12
186.10	1945.57
186.32	1980.39
186.54	1875.94
186.76	1828.84
186.98	1920.99
187.20	1861.60
187.42	1851.36
187.64	1824.74
187.86	1839.08
188.08	1871.84
188.30	1818.60
188.52	1816.55
188.75	1832.93
188.97	1894.37
189.19	1677.29
189.41	1841.12
189.63	1845.22
189.85	1806.31
190.07	1771.49
190.29	1714.15
190.51	1806.31
190.73	1775.59
190.95	1849.32
191.17	1853.41
191.39	1763.30
191.61	1708.01
191.84	1755.11
192.06	1824.74
192.28	1693.67
192.50	1959.91
192.72	1824.74
192.94	1781.73
193.16	1871.84
193.38	1888.23
193.60	1755.11
193.82	1769.44
194.04	1920.99
194.26	1882.08
194.48	1742.82
194.70	1773.54
194.92	1748.97
195.14	1812.45
195.36	1796.07
195.58	1773.54
195.80	1763.30
196.02	1736.68
196.24	1781.73
196.46	1791.97
196.69	1798.12
196.91	1951.71
197.13	1773.54
197.35	1806.31
197.57	1824.74
197.79	1861.60
198.01	1867.75
198.23	1777.64
198.45	1851.36
198.67	1794.02
198.89	1865.70
199.11	1808.36
199.33	1697.77
199.55	1683.43
199.77	1820.64
199.99	1882.08
200.21	1763.30
200.43	1861.60
200.65	1796.07
200.87	1699.81
201.09	1800.16
201.31	1759.21
201.53	1863.65
201.75	1789.92
201.97	1845.22
202.19	1755.11
202.41	1945.57
202.63	1984.48
202.85	1843.17
203.07	1857.51
203.29	1708.01
203.51	1742.82
203.73	1816.55
203.95	2027.49
204.17	1867.75
204.39	1861.60
204.61	1722.34
204.83	1810.40
205.05	1929.19
205.27	1796.07
205.49	1898.47
205.71	1773.54
205.93	1757.16
206.15	1714.15
206.37	1808.36
206.59	1841.12
206.81	1671.14
207.03	1794.02
207.25	1785.83
207.47	1828.84
207.69	1859.56
207.91	1837.03
208.13	1902.56
208.34	1701.86
208.56	1722.34
208.78	1794.02
209.00	1818.60
209.22	1789.92
209.44	1880.04
209.66	1783.78
209.88	1816.55
210.10	1716.20
210.32	1837.03
210.54	1908.71
210.76	1728.49
210.98	1869.80
211.20	1660.90
211.42	1783.78
211.64	1853.41
211.86	1775.59
212.08	1892.32
212.30	1771.49
212.52	1769.44
212.74	1812.45
212.96	1832.93
213.17	1822.69
213.39	1853.41
213.61	1888.23
213.83	1787.88
214.05	1828.84
214.27	1906.66
214.49	1697.77
214.71	1755.11
214.93	1886.18
215.15	1853.41
215.37	1744.87
215.59	1728.49
215.81	1818.60
216.03	1877.99
216.24	1828.84
216.46	1779.68
216.68	1908.71
216.90	1886.18
217.12	1910.75
217.34	1830.88
217.56	1812.45
217.78	1925.09
218.00	1796.07
218.22	1794.02
218.44	1869.80
218.66	1738.73
218.87	1914.85
219.09	1800.16
219.31	1751.01
219.53	1841.12
219.75	1812.45
219.97	1812.45
220.19	1742.82
220.41	1796.07
220.63	1957.86
220.85	1867.75
221.06	1761.25
221.28	1849.32
221.50	1841.12
221.72	1810.40
221.94	1775.59
222.16	1812.45
222.38	1882.08
222.60	1789.92
222.82	1765.35
223.03	1890.28
223.25	1830.88
223.47	1746.92
223.69	1894.37
223.91	1867.75
224.13	1705.96
224.35	1785.83
224.57	1826.79
224.78	1875.94
225.00	1763.30
225.22	1832.93
225.44	1757.16
225.66	1900.52
225.88	1722.34
226.10	1826.79
226.32	1798.12
226.53	1949.67
226.75	1806.31
226.97	1808.36
227.19	1755.11
227.41	1777.64
227.63	1892.32
227.85	1744.87
228.06	1816.55
228.28	1828.84
228.50	1822.69
228.72	1751.01
228.94	1765.35
229.16	1691.62
229.37	1826.79
229.59	1800.16
229.81	1914.85
230.03	1761.25
230.25	1767.40
230.47	1693.67
230.69	1730.53
230.90	1851.36
231.12	1773.54
231.34	1882.08
231.56	1855.46
231.78	1744.87
232.00	1822.69
232.21	1796.07
232.43	1759.21
232.65	1689.57
232.87	1832.93
233.09	1771.49
233.30	1841.12
233.52	1787.88
233.74	1771.49
233.96	1771.49
234.18	1822.69
234.40	1806.31
234.61	1970.15
234.83	1710.05
235.05	1716.20
235.27	1982.43
235.49	1837.03
235.70	1779.68
235.92	1855.46
236.14	1806.31
236.36	1931.23
236.58	1734.63
236.79	1904.61
237.01	1828.84
237.23	1837.03
237.45	1945.57
237.67	1796.07
237.88	1875.94
238.10	1976.29
238.32	1761.25
238.54	1800.16
238.76	1904.61
238.97	1767.40
239.19	1742.82
239.41	1853.41
239.63	1877.99
239.85	1757.16
240.06	1767.40
240.28	1753.06
240.50	1910.75
240.72	1820.64
240.93	1757.16
241.15	1865.70
241.37	1818.60
241.59	1937.38
241.81	1900.52
242.02	1767.40
242.24	1845.22
242.46	1890.28
242.68	1695.72
242.89	1847.27
243.11	1867.75
243.33	1812.45
243.55	1849.32
243.76	1875.94
243.98	1873.89
244.20	1824.74
244.42	1880.04
244.64	1843.17
244.85	1718.25
245.07	1757.16
245.29	1818.60
245.51	1753.06
245.72	1796.07
245.94	1847.27
246.16	1794.02
246.38	1877.99
246.59	1732.58
246.81	1802.21
247.03	1744.87
247.24	1656.81
247.46	1734.63
247.68	1775.59
247.90	1767.40
248.11	1697.77
248.33	1863.65
248.55	1781.73
248.77	1798.12
248.98	1861.60
249.20	1964.00
249.42	1828.84
249.64	1800.16
249.85	1777.64
250.07	1820.64
250.29	1904.61
250.50	1900.52
250.72	1689.57
250.94	1816.55
251.16	1964.00
251.37	1791.97
251.59	1882.08
251.81	1837.03
252.02	1896.42
252.24	1740.77
252.46	1875.94
252.68	1785.83
252.89	1771.49
253.11	1697.77
253.33	1900.52
253.54	1896.42
253.76	1685.48
253.98	1853.41
254.20	1765.35
254.41	1751.01
254.63	1843.17
254.85	1738.73
255.06	1841.12
255.28	1890.28
255.50	1832.93
255.71	1769.44
255.93	1667.05
256.15	1861.60
256.36	1916.90
256.58	1755.11
256.80	1832.93
257.02	1808.36
257.23	1837.03
257.45	1796.07
257.67	1888.23
257.88	1728.49
258.10	1910.75
258.32	1832.93
258.53	1837.03
258.75	1853.41
258.97	1730.53
259.18	1863.65
259.40	1748.97
259.62	1869.80
259.83	1884.13
260.05	1853.41
260.27	2136.03
260.48	1845.22
260.70	1742.82
260.92	1894.37
261.13	1808.36
261.35	1882.08
261.57	1828.84
261.78	1650.66
262.00	1755.11
262.22	1773.54
262.43	1759.21
262.65	1824.74
262.86	1767.40
263.08	2007.01
263.30	1873.89
263.51	1640.42
263.73	1703.91
263.95	1771.49
264.16	1718.25
264.38	1728.49
264.60	1818.60
264.81	1845.22
265.03	1920.99
265.25	1873.89
265.46	1755.11
265.68	1832.93
265.89	1830.88
266.11	1736.68
266.33	1861.60
266.54	1925.09
266.76	1832.93
266.98	1843.17
267.19	1964.00
267.41	1812.45
267.62	1765.35
267.84	1621.99
268.06	1886.18
268.27	1826.79
268.49	1914.85
268.70	1927.14
268.92	1814.50
269.14	1832.93
269.35	1716.20
269.57	1814.50
269.79	1888.23
270.00	1757.16
270.22	1910.75
270.43	1712.10
270.65	1683.43
270.87	1843.17
271.08	1890.28
271.30	1867.75
271.51	1820.64
271.73	1875.94
271.95	1888.23
272.16	1853.41
272.38	1759.21
272.59	1845.22
272.81	1855.46
273.02	1830.88
273.24	1877.99
273.46	1800.16
273.67	1794.02
273.89	1746.92
274.10	1720.29
274.32	1957.86
274.54	1849.32
274.75	1839.08
274.97	1800.16
275.18	1820.64
275.40	1814.50
275.61	1751.01
275.83	1748.97
276.05	1777.64
276.26	1853.41
276.48	1843.17
276.69	1787.88
276.91	1761.25
277.12	1894.37
277.34	1863.65
277.55	1892.32
277.77	1853.41
277.99	1730.53
278.20	1763.30
278.42	1761.25
278.63	1785.83
278.85	1751.01
279.06	1751.01
279.28	1812.45
279.49	1863.65
279.71	1871.84
279.93	1781.73
280.14	1775.59
280.36	1806.31
280.57	1937.38
280.79	1896.42
281.00	1779.68
281.22	1791.97
281.43	1898.47
281.65	1691.62
281.86	1681.38
282.08	1791.97
282.29	1871.84
282.51	1742.82
282.73	1751.01
282.94	1718.25
283.16	1839.08
283.37	1890.28
283.59	1812.45
283.80	1877.99
284.02	1814.50
284.23	1832.93
284.45	1779.68
284.66	1765.35
284.88	1789.92
285.09	1802.21
285.31	1828.84
285.52	1828.84
285.74	1687.53
285.95	1892.32
286.17	1837.03
286.38	1877.99
286.60	1804.26
286.81	1798.12
287.03	1755.11
287.24	1843.17
287.46	1904.61
287.67	1853.41
287.89	2002.91
288.10	1742.82
288.32	1800.16
288.53	1882.08
288.75	1794.02
288.96	1855.46
289.18	1746.92
289.39	1820.64
289.61	1806.31
289.82	1992.67
290.04	1953.76
290.25	1820.64
290.47	1824.74
290.68	1861.60
290.90	1834.98
291.11	1757.16
291.33	1863.65
291.54	1746.92
291.76	1818.60
291.97	1794.02
292.18	1826.79
292.40	1697.77
292.61	1812.45
292.83	1925.09
293.04	1765.35
293.26	1777.64
293.47	1837.03
293.69	1828.84
293.90	1794.02
294.12	1933.28
294.33	1769.44
294.55	1806.31
294.76	1861.60
294.97	1959.91
295.19	1869.80
295.40	1748.97
295.62	1806.31
295.83	1890.28
296.05	1773.54
296.26	1925.09
296.48	1765.35
296.69	1796.07
296.90	1785.83
297.12	1908.71
297.33	1968.10
297.55	1875.94
297.76	1798.12
297.98	1839.08
298.19	1802.21
298.41	1828.84
298.62	1732.58
298.83	1896.42
299.05	1861.60
299.26	1824.74
299.48	1712.10
299.69	1816.55
299.90	1828.84
300.12	1759.21
300.33	1820.64
300.55	1773.54
300.76	1886.18
300.98	1705.96
301.19	1931.23
301.40	1769.44
301.62	1728.49
301.83	1877.99
302.05	1789.92
302.26	1830.88
302.47	1820.64
302.69	1810.40
302.90	1775.59
303.12	1669.09
303.33	1867.75
303.54	1884.13
303.76	1855.46
303.97	1875.94
304.19	1904.61
304.40	1794.02
304.61	1736.68
304.83	1923.04
305.04	1798.12
305.26	1882.08
305.47	1796.07
305.68	1828.84
305.90	1734.63
306.11	1847.27
306.33	1804.26
306.54	1789.92
306.75	1775.59
306.97	1771.49
307.18	1689.57
307.39	1834.98
307.61	1828.84
307.82	1798.12
308.04	1865.70
308.25	1771.49
308.46	1812.45
308.68	1810.40
308.89	1814.50
309.10	1898.47
309.32	1808.36
309.53	1791.97
309.74	1916.90
309.96	1781.73
310.17	1916.90
310.39	1755.11
310.60	1796.07
310.81	1927.14
311.03	1746.92
311.24	1837.03
311.45	1730.53
311.67	2095.07
311.88	1779.68
312.09	1744.87
312.31	1861.60
312.52	1839.08
312.73	1810.40
312.95	1710.05
313.16	1824.74
313.37	1910.75
313.59	1746.92
313.80	1849.32
314.01	1980.39
314.23	1777.64
314.44	1718.25
314.65	1757.16
314.87	1753.06
315.08	1787.88
315.29	1808.36
315.51	1740.77
315.72	1751.01
315.93	1929.19
316.15	1796.07
316.36	1742.82
316.57	1828.84
316.79	1814.50
317.00	1877.99
317.21	1849.32
317.43	1765.35
317.64	1775.59
317.85	1761.25
318.07	1834.98
318.28	1886.18
318.49	1966.05
318.70	2107.36
318.92	1884.13
319.13	1996.77
319.34	1990.63
319.56	1867.75
319.77	2045.92
319.98	1931.23
320.20	1867.75
320.41	1892.32
320.62	1839.08
320.83	1804.26
321.05	1992.67
321.26	1818.60
321.47	1849.32
321.69	1894.37
321.90	1744.87
322.11	1841.12
322.32	1865.70
322.54	1906.66
322.75	1742.82
322.96	1947.62
323.18	1755.11
323.39	1699.81
323.60	1787.88
323.81	1900.52
324.03	1755.11
324.24	1845.22
324.45	1845.22
324.66	1738.73
324.88	1830.88
325.09	1859.56
325.30	1877.99
325.52	1808.36
325.73	1812.45
325.94	1773.54
326.15	1724.39
326.37	1783.78
326.58	1892.32
326.79	1906.66
327.00	1742.82
327.22	1820.64
327.43	1777.64
327.64	1679.33
327.85	1898.47
328.07	1787.88
328.28	1959.91
328.49	1783.78
328.70	1849.32
328.92	1812.45
329.13	1699.81
329.34	1794.02
329.55	2002.91
329.76	1900.52
329.98	1865.70
330.19	1986.53
330.40	1740.77
330.61	1791.97
330.83	1841.12
331.04	1746.92
331.25	1794.02
331.46	1796.07
331.68	1794.02
331.89	1894.37
332.10	1785.83
332.31	1757.16
332.52	1794.02
332.74	1857.51
332.95	1712.10
333.16	1804.26
333.37	1832.93
333.58	1716.20
333.80	1908.71
334.01	1736.68
334.22	1789.92
334.43	1812.45
334.64	1787.88
334.86	1751.01
335.07	1748.97
335.28	1847.27
335.49	1695.72
335.70	1863.65
335.92	1927.14
336.13	1949.67
336.34	1867.75
336.55	1755.11
336.76	1916.90
336.98	1708.01
337.19	1740.77
337.40	1931.23
337.61	1927.14
337.82	1798.12
338.04	1871.84
338.25	1703.91
338.46	1857.51
338.67	1822.69
338.88	1816.55
339.09	1689.57
339.31	1761.25
339.52	1701.86
339.73	1761.25
339.94	1746.92
340.15	1787.88
340.36	1800.16
340.58	1839.08
340.79	1753.06
341.00	1824.74
341.21	1685.48
341.42	1894.37
341.63	1742.82
341.85	1935.33
342.06	1902.56
342.27	1751.01
342.48	1902.56
342.69	1710.05
342.90	1906.66
343.12	1814.50
343.33	1814.50
343.54	1847.27
343.75	1888.23
343.96	1748.97
344.17	1734.63
344.38	1800.16
344.60	1791.97
344.81	1742.82
345.02	1757.16
345.23	1959.91
345.44	1996.77
345.65	1841.12
345.86	1957.86
346.07	1816.55
346.29	1796.07
346.50	1812.45
346.71	1849.32
346.92	1935.33
347.13	1918.95
347.34	1824.74
347.55	1765.35
347.76	1939.43
347.98	1767.40
348.19	1810.40
348.40	1888.23
348.61	1738.73
348.82	1849.32
349.03	1912.80
349.24	1705.96
349.45	1912.80
349.66	1689.57
349.88	1791.97
350.09	1769.44
350.30	1939.43
350.51	1906.66
350.72	1806.31
350.93	1832.93
351.14	1810.40
351.35	1845.22
351.56	1847.27
351.77	1794.02
351.99	1734.63
352.20	1949.67
352.41	1929.19
352.62	1615.85
352.83	1775.59
353.04	1775.59
353.25	1695.72
353.46	1861.60
353.67	1832.93
353.88	1693.67
354.09	1873.89
354.30	1785.83
354.52	1767.40
354.73	1765.35
354.94	1828.84
355.15	1820.64
355.36	1906.66
355.57	1845.22
355.78	1826.79
355.99	1765.35
356.20	1798.12
356.41	1912.80
356.62	1863.65
356.83	1812.45
357.04	1902.56
357.25	1738.73
357.46	1857.51
357.68	1724.39
357.89	1710.05
358.10	1820.64
358.31	1781.73
358.52	1769.44
358.73	1730.53
358.94	1712.10
359.15	1761.25
359.36	1812.45
359.57	1837.03
359.78	1781.73
359.99	1818.60
360.20	1744.87
360.41	1820.64
360.62	1902.56
360.83	1769.44
361.04	1816.55
361.25	1744.87
361.46	1908.71
361.67	1812.45
361.88	1830.88
362.09	1920.99
362.30	1914.85
362.51	1779.68
362.72	1845.22
362.93	1841.12
363.14	1763.30
363.35	1746.92
363.56	1794.02
363.78	1814.50
363.99	1900.52
364.20	1757.16
364.41	1882.08
364.62	1896.42
364.83	1890.28
365.04	1839.08
365.25	1796.07
365.46	1910.75
365.67	1724.39
365.88	1826.79
366.09	1755.11
366.30	1757.16
366.51	1863.65
366.72	1740.77
366.93	1755.11
367.14	1890.28
367.35	1896.42
367.56	1775.59
367.77	1855.46
367.98	1759.21
368.18	1828.84
368.39	1906.66
368.60	1765.35
368.81	1828.84
369.02	1845.22
369.23	1820.64
369.44	1736.68
369.65	1775.59
369.86	1806.31
370.07	1912.80
370.28	1722.34
370.49	1884.13
370.70	1867.75
370.91	1826.79
371.12	1693.67
371.33	2004.96
371.54	1720.29
371.75	1877.99
371.96	1669.09
372.17	1837.03
372.38	1857.51
372.59	1773.54
372.80	1802.21
373.01	1779.68
373.22	1824.74
373.43	1787.88
373.64	1767.40
373.85	1951.71
374.06	1935.33
374.26	1849.32
374.47	1837.03
374.68	1931.23
374.89	1882.08
375.10	1783.78
375.31	1855.46
375.52	1832.93
375.73	1828.84
375.94	1703.91
376.15	1964.00
376.36	1794.02
376.57	1818.60
376.78	1875.94
376.99	1816.55
377.20	1837.03
377.40	1888.23
377.61	1916.90
377.82	1755.11
378.03	1890.28
378.24	1841.12
378.45	1777.64
378.66	1751.01
378.87	1755.11
379.08	1701.86
379.29	1818.60
379.50	1945.57
379.71	1740.77
379.91	1886.18
380.12	1808.36
380.33	1806.31
380.54	1871.84
380.75	1787.88
380.96	1701.86
381.17	1927.14
381.38	1757.16
381.59	1888.23
381.80	1837.03
382.00	1970.15
382.21	1839.08
382.42	1957.86
382.63	2037.73
382.84	1929.19
383.05	1918.95
383.26	1947.62
383.47	1794.02
383.68	1841.12
383.88	1884.13
384.09	1820.64
384.30	1941.47
384.51	1753.06
384.72	1851.36
384.93	1804.26
385.14	1781.73
385.35	1875.94
385.55	1744.87
385.76	1933.28
385.97	1847.27
386.18	1755.11
386.39	1814.50
386.60	1841.12
386.81	1779.68
387.02	1812.45
387.22	1699.81
387.43	1918.95
387.64	1955.81
387.85	1941.47
388.06	2197.47
388.27	4247.49
388.48	8861.56
388.68	11675.47
388.89	13989.67
389.10	14937.88
389.31	13219.64
389.52	10422.11
389.73	9121.65
389.93	8349.57
390.14	7612.30
390.35	6854.55
390.56	6256.54
390.77	5212.08
390.98	4026.31
391.18	3207.12
391.39	2502.62
391.60	2039.78
391.81	1935.33
392.02	1839.08
392.23	1918.95
392.43	1847.27
392.64	1957.86
392.85	1886.18
393.06	1906.66
393.27	1873.89
393.47	1751.01
393.68	1816.55
393.89	1832.93
394.10	1875.94
394.31	1779.68
394.52	1796.07
394.72	1855.46
394.93	1947.62
395.14	1783.78
395.35	1859.56
395.56	1761.25
395.76	1777.64
395.97	1931.23
396.18	1998.82
396.39	1968.10
396.60	2224.09
396.80	2105.31
397.01	2095.07
397.22	1955.81
397.43	1937.38
397.64	1824.74
397.84	1972.19
398.05	2041.82
398.26	1918.95
398.47	1951.71
398.67	1920.99
398.88	1818.60
399.09	1914.85
399.30	1808.36
399.51	1861.60
399.71	1839.08
399.92	1812.45
400.13	1837.03
400.34	1824.74
400.54	1812.45
400.75	1939.43
400.96	1853.41
401.17	1947.62
401.37	1839.08
401.58	1834.98
401.79	1812.45
402.00	1918.95
402.21	2187.23
402.41	2168.80
402.62	2211.81
402.83	2316.25
403.04	2203.61
403.24	2275.29
403.45	2009.06
403.66	2101.22
403.87	2017.25
404.07	2090.98
404.28	2007.01
404.49	2017.25
404.70	1957.86
404.90	1910.75
405.11	1867.75
405.32	1943.52
405.52	1746.92
405.73	1826.79
405.94	1732.58
406.15	1886.18
406.35	1900.52
406.56	1839.08
406.77	1804.26
406.98	1857.51
407.18	1781.73
407.39	1892.32
407.60	1837.03
407.80	1920.99
408.01	1736.68
408.22	1810.40
408.43	1757.16
408.63	1918.95
408.84	1873.89
409.05	1898.47
409.25	1789.92
409.46	1755.11
409.67	1759.21
409.88	1800.16
410.08	1857.51
410.29	1761.25
410.50	1890.28
410.70	1880.04
410.91	1769.44
411.12	1882.08
411.32	1771.49
411.53	1767.40
411.74	1918.95
411.95	1980.39
412.15	1961.95
412.36	1947.62
412.57	1941.47
412.77	1910.75
412.98	1853.41
413.19	1773.54
413.39	1865.70
413.60	1880.04
413.81	1935.33
414.01	1830.88
414.22	1904.61
414.43	1894.37
414.63	1830.88
414.84	1855.46
415.05	1800.16
415.25	1759.21
415.46	1845.22
415.67	1859.56
415.87	1812.45
416.08	1767.40
416.29	1726.44
416.49	1873.89
416.70	1839.08
416.91	1837.03
417.11	1845.22
417.32	1937.38
417.53	1906.66
417.73	1834.98
417.94	1832.93
418.15	1832.93
418.35	1845.22
418.56	1812.45
418.77	2050.02
418.97	1830.88
419.18	1818.60
419.38	1673.19
419.59	1728.49
419.80	1902.56
420.00	1763.30
420.21	1906.66
420.42	1873.89
420.62	1851.36
420.83	1804.26
421.04	1806.31
421.24	1783.78
421.45	1935.33
421.65	1849.32
421.86	1765.35
422.07	1869.80
422.27	1773.54
422.48	1869.80
422.69	1789.92
422.89	1746.92
423.10	1794.02
423.30	1671.14
423.51	1787.88
423.72	1828.84
423.92	1855.46
424.13	1730.53
424.33	1851.36
424.54	1931.23
424.75	1820.64
424.95	1877.99
425.16	1841.12
425.36	1783.78
425.57	1912.80
425.78	1824.74
425.98	1837.03
426.19	1810.40
426.39	1705.96
426.60	1873.89
426.81	1849.32
427.01	1892.32
427.22	1816.55
427.42	1687.53
427.63	1732.58
427.83	1808.36
428.04	1910.75
428.25	1943.52
428.45	1898.47
428.66	1898.47
428.86	1826.79
429.07	1802.21
429.28	1824.74
429.48	1757.16
429.69	1820.64
429.89	1763.30
430.10	1722.34
430.30	1859.56
430.51	1791.97
430.71	1763.30
430.92	1873.89
431.13	1761.25
431.33	1871.84
431.54	1796.07
431.74	1898.47
431.95	1988.58
432.15	1761.25
432.36	1798.12
432.56	1814.50
432.77	1941.47
432.98	1966.05
433.18	1865.70
433.39	1789.92
433.59	1773.54
433.80	1845.22
434.00	1982.43
434.21	1808.36
434.41	1771.49
434.62	1959.91
434.82	1748.97
435.03	1810.40
435.23	1849.32
435.44	1740.77
435.64	1824.74
435.85	1855.46
436.06	1841.12
436.26	1851.36
436.47	1730.53
436.67	1824.74
436.88	1763.30
437.08	1861.60
437.29	1920.99
437.49	1845.22
437.70	1841.12
437.90	1742.82
438.11	1918.95
438.31	1875.94
438.52	2050.02
438.72	1957.86
438.93	2121.70
439.13	1941.47
439.34	1898.47
439.54	1910.75
439.75	1947.62
439.95	1904.61
440.16	1857.51
440.36	1896.42
440.57	1863.65
440.77	1857.51
440.98	1906.66
441.18	1875.94
441.39	1775.59
441.59	1800.16
441.80	1988.58
442.00	1869.80
442.21	1925.09
442.41	1732.58
442.62	1861.60
442.82	1767.40
443.02	1808.36
443.23	1886.18
443.43	1781.73
443.64	1990.63
443.84	1820.64
444.05	1869.80
444.25	1894.37
444.46	1861.60
444.66	1869.80
444.87	1939.43
445.07	1730.53
445.28	1765.35
445.48	1941.47
445.69	1898.47
445.89	1957.86
446.09	1927.14
446.30	2000.87
446.50	2588.63
446.71	4157.38
446.91	5148.59
447.12	6059.94
447.32	6377.37
447.53	5765.03
447.73	4827.06
447.93	4188.10
448.14	3764.17
448.34	3600.33
448.55	3297.23
448.75	3192.78
448.96	3035.09
449.16	2684.89
449.36	2543.58
449.57	2217.95
449.77	2117.60
449.98	1877.99
450.18	1877.99
450.39	1890.28
450.59	1892.32
450.79	1880.04
451.00	1765.35
451.20	1906.66
451.41	1837.03
451.61	1900.52
451.81	1781.73
452.02	1810.40
452.22	1808.36
452.43	1759.21
452.63	1859.56
452.84	1824.74
453.04	1849.32
453.24	1845.22
453.45	1837.03
453.65	1843.17
453.86	1933.28
454.06	1839.08
454.26	1951.71
454.47	1740.77
454.67	1869.80
454.87	1896.42
455.08	1800.16
455.28	1839.08
455.49	1898.47
455.69	1800.16
455.89	1935.33
456.10	1877.99
456.30	1763.30
456.51	1927.14
456.71	1869.80
456.91	1914.85
457.12	1855.46
457.32	1806.31
457.52	1800.16
457.73	1847.27
457.93	1871.84
458.14	1736.68
458.34	1839.08
458.54	1783.78
458.75	1748.97
458.95	1863.65
459.15	1853.41
459.36	1857.51
459.56	1806.31
459.76	1918.95
459.97	1861.60
460.17	1859.56
460.37	1947.62
460.58	1832.93
460.78	1818.60
460.99	1796.07
461.19	1834.98
461.39	1798.12
461.60	1869.80
461.80	1857.51
462.00	1771.49
462.21	1806.31
462.41	1771.49
462.61	1769.44
462.82	1642.47
463.02	1869.80
463.22	1845.22
463.43	1923.04
463.63	1777.64
463.83	1933.28
464.04	1869.80
464.24	1818.60
464.44	1779.68
464.64	1849.32
464.85	1900.52
465.05	1886.18
465.25	1806.31
465.46	1777.64
465.66	1841.12
465.86	1865.70
466.07	1810.40
466.27	1880.04
466.47	1748.97
466.68	1730.53
466.88	1947.62
467.08	1882.08
467.29	1931.23
467.49	1914.85
467.69	1849.32
467.89	1902.56
468.10	1810.40
468.30	1826.79
468.50	1908.71
468.71	1875.94
468.91	1753.06
469.11	1964.00
469.31	1849.32
469.52	1800.16
469.72	1935.33
469.92	1976.29
470.13	1771.49
470.33	1845.22
470.53	1929.19
470.73	2287.58
470.94	2648.02
471.14	2912.21
471.34	3166.16
471.54	2987.99
471.75	2725.85
471.95	2590.68
472.15	2353.12
472.36	2365.40
472.56	2308.06
472.76	2285.53
472.96	2144.22
473.17	2115.55
473.37	2027.49
473.57	1970.15
473.77	1927.14
473.98	1918.95
474.18	1841.12
474.38	2002.91
474.58	1806.31
474.79	1730.53
474.99	1794.02
475.19	1869.80
475.39	1810.40
475.60	1830.88
475.80	1812.45
476.00	1867.75
476.20	1810.40
476.41	1839.08
476.61	1959.91
476.81	1855.46
477.01	1845.22
477.21	1904.61
477.42	1992.67
477.62	1701.86
477.82	1820.64
478.02	1796.07
478.23	1794.02
478.43	1748.97
478.63	1828.84
478.83	1837.03
479.03	1896.42
479.24	1914.85
479.44	1986.53
479.64	1837.03
479.84	1687.53
480.04	1728.49
480.25	1918.95
480.45	1738.73
480.65	1806.31
480.85	1902.56
481.06	1820.64
481.26	1810.40
481.46	1818.60
481.66	1918.95
481.86	1722.34
482.06	1920.99
482.27	1822.69
482.47	1810.40
482.67	1820.64
482.87	1802.21
483.07	1892.32
483.28	1794.02
483.48	1716.20
483.68	1765.35
483.88	1732.58
484.08	1665.00
484.29	1810.40
484.49	1853.41
484.69	1785.83
484.89	1859.56
485.09	1861.60
485.29	1855.46
485.50	1808.36
485.70	1832.93
485.90	1937.38
486.10	1849.32
486.30	1896.42
486.50	1937.38
486.71	1800.16
486.91	1929.19
487.11	1884.13
487.31	1634.28
487.51	1904.61
487.71	1794.02
487.91	1759.21
488.12	1775.59
488.32	1712.10
488.52	1822.69
488.72	1699.81
488.92	1826.79
489.12	1845.22
489.32	2033.63
489.53	1812.45
489.73	1687.53
489.93	1968.10
490.13	1791.97
490.33	1740.77
490.53	1859.56
490.73	1902.56
490.94	1746.92
491.14	1853.41
491.34	1849.32
491.54	2148.32
491.74	2807.77
491.94	3413.96
492.14	3571.66
492.34	3753.93
492.54	3395.53
492.75	2844.63
492.95	2758.61
493.15	2586.58
493.35	2461.66
493.55	2414.56
493.75	2389.98
493.95	2375.64
494.15	2226.14
494.35	2043.87
494.56	1937.38
494.76	1927.14
494.96	1951.71
495.16	1804.26
495.36	1859.56
495.56	1812.45
495.76	1837.03
495.96	1718.25
496.16	1830.88
496.36	2021.35
496.56	1890.28
496.77	1849.32
496.97	1839.08
497.17	1837.03
497.37	1871.84
497.57	1834.98
497.77	1828.84
497.97	1779.68
498.17	1865.70
498.37	1826.79
498.57	1894.37
498.77	1800.16
498.97	1882.08
499.17	1961.95
499.38	1861.60
499.58	1886.18
499.78	1902.56
499.98	1945.57
500.18	1787.88
500.38	1800.16
500.58	2056.16
500.78	2537.43
500.98	4665.27
501.18	6920.09
501.38	8511.36
501.58	9465.71
501.78	9199.48
501.98	7346.06
502.18	6035.36
502.38	5255.09
502.58	4802.49
502.78	4304.83
502.98	4118.47
503.18	3948.48
503.38	3598.28
503.59	3153.87
503.79	2992.08
503.99	2731.99
504.19	2463.71
504.39	2381.79
504.59	2486.23
504.79	2449.37
504.99	2459.61
505.19	2176.99
505.39	2086.88
505.59	2142.18
505.79	2183.13
505.99	2023.39
506.19	1972.19
506.39	2011.11
506.59	1880.04
506.79	1863.65
506.99	1947.62
507.19	1818.60
507.39	1918.95
507.59	1767.40
507.79	1861.60
507.99	1773.54
508.19	1855.46
508.39	1871.84
508.59	1796.07
508.79	1843.17
508.99	1945.57
509.19	1822.69
509.39	1875.94
509.59	1832.93
509.79	1830.88
509.99	1880.04
510.19	1904.61
510.39	1906.66
510.59	1802.21
510.79	1818.60
510.99	1769.44
511.19	1785.83
511.39	1957.86
511.59	1894.37
511.79	1968.10
511.99	1843.17
512.19	1923.04
512.38	1927.14
512.58	1810.40
512.78	1853.41
512.98	1843.17
513.18	1994.72
513.38	1785.83
513.58	1918.95
513.78	1814.50
513.98	1845.22
514.18	1849.32
514.38	1820.64
514.58	1867.75
514.78	1808.36
514.98	1775.59
515.18	1857.51
515.38	1730.53
515.58	1978.34
515.78	1832.93
515.98	1808.36
516.18	1865.70
516.38	1834.98
516.57	1798.12
516.77	1791.97
516.97	1947.62
517.17	1771.49
517.37	1701.86
517.57	1920.99
517.77	1818.60
517.97	1820.64
518.17	1810.40
518.37	1726.44
518.57	1794.02
518.77	1849.32
518.97	1851.36
519.16	1822.69
519.36	1916.90
519.56	1849.32
519.76	1816.55
519.96	1953.76
520.16	1916.90
520.36	1783.78
520.56	1865.70
520.76	1839.08
520.96	1806.31
521.16	1923.04
521.35	1906.66
521.55	1986.53
521.75	1830.88
521.95	1789.92
522.15	1720.29
522.35	1796.07
522.55	1728.49
522.75	1834.98
522.95	1886.18
523.14	1753.06
523.34	1865.70
523.54	1824.74
523.74	1900.52
523.94	1822.69
524.14	1767.40
524.34	1900.52
524.54	1935.33
524.73	1841.12
524.93	1929.19
525.13	1886.18
525.33	1814.50
525.53	1914.85
525.73	1861.60
525.93	1853.41
526.13	1820.64
526.32	1806.31
526.52	1929.19
526.72	1900.52
526.92	1783.78
527.12	1834.98
527.32	1748.97
527.52	1894.37
527.71	1841.12
527.91	1871.84
528.11	1837.03
528.31	1849.32
528.51	1832.93
528.71	1867.75
528.90	1851.36
529.10	1849.32
529.30	1951.71
529.50	1716.20
529.70	1873.89
529.90	1798.12
530.09	1857.51
530.29	1814.50
530.49	1820.64
530.69	2041.82
530.89	1816.55
531.09	1882.08
531.28	1832.93
531.48	1939.43
531.68	1861.60
531.88	1828.84
532.08	1837.03
532.28	1812.45
532.47	1939.43
532.67	1916.90
532.87	1898.47
533.07	1744.87
533.27	1923.04
533.46	1888.23
533.66	1894.37
533.86	1867.75
534.06	1771.49
534.26	1843.17
534.45	1839.08
534.65	1951.71
534.85	1886.18
535.05	1824.74
535.25	1968.10
535.44	1785.83
535.64	1882.08
535.84	1800.16
536.04	1849.32
536.24	1767.40
536.43	1832.93
536.63	1918.95
536.83	1834.98
537.03	1916.90
537.22	1738.73
537.42	1816.55
537.62	1869.80
537.82	1798.12
538.02	1857.51
538.21	1898.47
538.41	1959.91
538.61	1937.38
538.81	1804.26
539.00	1945.57
539.20	1789.92
539.40	1794.02
539.60	1830.88
539.79	1914.85
539.99	1828.84
540.19	1839.08
540.39	1824.74
540.58	1834.98
540.78	1949.67
540.98	1828.84
541.18	1900.52
541.37	1830.88
541.57	1890.28
541.77	1923.04
541.97	1769.44
542.16	1755.11
542.36	1781.73
542.56	1757.16
542.76	1949.67
542.95	1935.33
543.15	1853.41
543.35	1929.19
543.54	1771.49
543.74	1751.01
543.94	1943.52
544.14	1871.84
544.33	1849.32
544.53	1888.23
544.73	1812.45
544.93	1896.42
545.12	1771.49
545.32	1796.07
545.52	1812.45
545.71	1757.16
545.91	1810.40
546.11	1863.65
546.30	1746.92
546.50	1820.64
546.70	1904.61
546.90	1808.36
547.09	1765.35
547.29	1849.32
547.49	1853.41
547.68	1851.36
547.88	1781.73
548.08	1888.23
548.27	2324.44
548.47	1820.64
548.67	1810.40
548.87	1888.23
549.06	1902.56
549.26	1853.41
549.46	1875.94
549.65	1808.36
549.85	1859.56
550.05	1906.66
550.24	1740.77
550.44	1853.41
550.64	1859.56
550.83	1796.07
551.03	1939.43
551.23	1947.62
551.42	1857.51
551.62	1826.79
551.82	1837.03
552.01	1814.50
552.21	1961.95
552.41	1816.55
552.60	1884.13
552.80	1849.32
553.00	1722.34
553.19	1884.13
553.39	1980.39
553.59	1789.92
553.78	1859.56
553.98	1875.94
554.17	1732.58
554.37	1875.94
554.57	1892.32
554.76	1804.26
554.96	1853.41
555.16	1837.03
555.35	1845.22
555.55	1851.36
555.75	1892.32
555.94	1886.18
556.14	1701.86
556.33	1810.40
556.53	1828.84
556.73	1820.64
556.92	1906.66
557.12	1986.53
557.32	1957.86
557.51	1904.61
557.71	1845.22
557.90	1910.75
558.10	1974.24
558.30	1865.70
558.49	1845.22
558.69	1808.36
558.88	1832.93
559.08	1861.60
559.28	1812.45
559.47	1886.18
559.67	1800.16
559.86	2021.35
560.06	1886.18
560.26	1853.41
560.45	1918.95
560.65	1775.59
560.84	1953.76
561.04	1810.40
561.24	1800.16
561.43	1826.79
561.63	1890.28
561.82	1861.60
562.02	1937.38
562.22	1763.30
562.41	1779.68
562.61	1789.92
562.80	1773.54
563.00	1976.29
563.19	1769.44
563.39	1923.04
563.59	1951.71
563.78	1767.40
563.98	1726.44
564.17	1890.28
564.37	1798.12
564.56	1894.37
564.76	1771.49
564.96	1968.10
565.15	1828.84
565.35	1998.82
565.54	1798.12
565.74	1914.85
565.93	1859.56
566.13	1865.70
566.32	1898.47
566.52	1892.32
566.71	1859.56
566.91	1951.71
567.11	1818.60
567.30	1820.64
567.50	1859.56
567.69	1875.94
567.89	1857.51
568.08	1822.69
568.28	1867.75
568.47	1773.54
568.67	1828.84
568.86	1783.78
569.06	1939.43
569.25	1806.31
569.45	1767.40
569.64	1695.72
569.84	1929.19
570.04	1834.98
570.23	1880.04
570.43	1787.88
570.62	1845.22
570.82	1910.75
571.01	1734.63
571.21	1722.34
571.40	1765.35
571.60	1849.32
571.79	1912.80
571.99	1904.61
572.18	1796.07
572.38	1863.65
572.57	1828.84
572.77	1927.14
572.96	1986.53
573.16	1839.08
573.35	1832.93
573.55	1886.18
573.74	1935.33
573.94	1843.17
574.13	1824.74
574.33	1988.58
574.52	1931.23
574.71	1814.50
574.91	1933.28
575.10	1796.07
575.30	1783.78
575.49	1789.92
575.69	1820.64
575.88	1910.75
576.08	1943.52
576.27	1990.63
576.47	1904.61
576.66	2013.15
576.86	2047.97
577.05	1970.15
577.25	1910.75
577.44	1968.10
577.64	1910.75
577.83	1873.89
578.02	1894.37
578.22	1966.05
578.41	1986.53
578.61	1834.98
578.80	1767.40
579.00	1902.56
579.19	1869.80
579.39	1845.22
579.58	1927.14
579.77	1849.32
579.97	1970.15
580.16	2021.35
580.36	1904.61
580.55	2011.11
580.75	1859.56
580.94	1845.22
581.13	1968.10
581.33	1953.76
581.52	1931.23
581.72	2037.73
581.91	2080.74
582.11	1843.17
582.30	1892.32
582.49	1877.99
582.69	2023.39
582.88	1916.90
583.08	1880.04
583.27	1937.38
583.47	1875.94
583.66	1787.88
583.85	1806.31
584.05	1853.41
584.24	1964.00
584.44	1896.42
584.63	1929.19
584.82	2033.63
585.02	1996.77
585.21	1974.24
585.41	2082.78
585.60	2002.91
585.79	2117.60
585.99	2027.49
586.18	2115.55
586.37	2379.74
586.57	3583.95
586.76	10743.64
586.96	29179.46
587.15	43537.77
587.34	53499.09
587.54	59542.64
587.73	56421.54
587.93	40611.22
588.12	30164.53
588.31	24022.67
588.51	20602.57
588.70	18802.40
588.89	17379.06
589.09	15548.18
589.28	13682.48
589.47	11163.48
589.67	9125.75
589.86	6897.56
590.06	5083.06
590.25	3985.35
590.44	3149.78
590.64	2609.11
590.83	2263.01
591.02	2140.13
591.22	2121.70
591.41	1968.10
591.60	1900.52
591.80	2029.54
591.99	1800.16
592.18	1828.84
592.38	1945.57
592.57	1935.33
592.76	1882.08
592.96	1871.84
593.15	1892.32
593.34	2017.25
593.54	1863.65
593.73	2015.20
593.92	1927.14
594.12	1947.62
594.31	1890.28
594.50	1994.72
594.70	1953.76
594.89	2074.59
595.08	1808.36
595.28	1906.66
595.47	2072.54
595.66	1916.90
595.86	1798.12
596.05	1839.08
596.24	1796.07
596.43	1990.63
596.63	1910.75
596.82	1906.66
597.01	1949.67
597.21	1988.58
597.40	1873.89
597.59	1867.75
597.79	1953.76
597.98	1937.38
598.17	1791.97
598.36	1908.71
598.56	1886.18
598.75	1892.32
598.94	1890.28
599.14	1820.64
599.33	1843.17
599.52	1902.56
599.71	1941.47
599.91	1918.95
600.10	1937.38
600.29	1880.04
600.48	1855.46
600.68	1859.56
600.87	1861.60
601.06	1853.41
601.26	1777.64
601.45	1902.56
601.64	1867.75
601.83	1953.76
602.03	1884.13
602.22	1718.25
602.41	1867.75
602.60	1902.56
602.80	1931.23
602.99	1920.99
603.18	1816.55
603.37	1839.08
603.57	1884.13
603.76	1896.42
603.95	1957.86
604.14	1781.73
604.34	1763.30
604.53	1814.50
604.72	1841.12
604.91	1886.18
605.10	1947.62
605.30	1810.40
605.49	1998.82
605.68	1918.95
605.87	1839.08
606.07	1814.50
606.26	1814.50
606.45	1916.90
606.64	1869.80
606.84	1810.40
607.03	1798.12
607.22	1935.33
607.41	1865.70
607.60	1896.42
607.80	1933.28
607.99	1861.60
608.18	1873.89
608.37	1863.65
608.56	1787.88
608.76	1980.39
608.95	1964.00
609.14	1912.80
609.33	1968.10
609.52	2011.11
609.72	1923.04
609.91	1992.67
610.10	1990.63
610.29	1964.00
610.48	1898.47
610.68	1822.69
610.87	1857.51
611.06	1920.99
611.25	1837.03
611.44	2041.82
611.63	1857.51
611.83	1933.28
612.02	1767.40
612.21	1937.38
612.40	1742.82
612.59	1828.84
612.79	1796.07
612.98	1869.80
613.17	1966.05
613.36	1828.84
613.55	1931.23
613.74	1871.84
613.93	1961.95
614.13	2084.83
614.32	2127.84
614.51	2168.80
614.70	1933.28
614.89	1908.71
615.08	1943.52
615.28	2271.20
615.47	1820.64
615.66	1888.23
615.85	1824.74
616.04	1994.72
616.23	1959.91
616.42	1959.91
616.62	1914.85
616.81	1914.85
617.00	1894.37
617.19	1923.04
617.38	1820.64
617.57	1900.52
617.76	1898.47
617.95	1951.71
618.15	1845.22
618.34	2021.35
618.53	1740.77
618.72	1910.75
618.91	1904.61
619.10	1918.95
619.29	1849.32
619.48	1832.93
619.68	1746.92
619.87	1816.55
620.06	1769.44
620.25	1855.46
620.44	1804.26
620.63	1783.78
620.82	1916.90
621.01	1906.66
621.20	1802.21
621.39	1849.32
621.59	1933.28
621.78	1853.41
621.97	1794.02
622.16	1877.99
622.35	1869.80
622.54	1925.09
622.73	2002.91
622.92	1755.11
623.11	1900.52
623.30	1785.83
623.49	1877.99
623.68	1841.12
623.88	1943.52
624.07	1871.84
624.26	1863.65
624.45	1826.79
624.64	1761.25
624.83	1828.84
625.02	1877.99
625.21	1880.04
625.40	1851.36
625.59	1949.67
625.78	1839.08
625.97	1933.28
626.16	1933.28
626.35	2029.54
626.54	1873.89
626.74	1953.76
626.93	1857.51
627.12	1923.04
627.31	1980.39
627.50	1877.99
627.69	1906.66
627.88	1843.17
628.07	1828.84
628.26	1820.64
628.45	1767.40
628.64	1771.49
628.83	1890.28
629.02	1732.58
629.21	1818.60
629.40	1847.27
629.59	1757.16
629.78	1796.07
629.97	1822.69
630.16	1861.60
630.35	1828.84
630.54	1802.21
630.73	1877.99
630.92	1906.66
631.11	1787.88
631.30	1779.68
631.49	1867.75
631.68	1855.46
631.87	1873.89
632.06	1746.92
632.25	2013.15
632.44	1886.18
632.63	1898.47
632.82	1886.18
633.01	1927.14
633.20	1964.00
633.39	1906.66
633.58	1839.08
633.77	1884.13
633.96	1886.18
634.15	1916.90
634.34	1920.99
634.53	1837.03
634.72	1855.46
634.91	1710.05
635.10	1845.22
635.29	1896.42
635.48	1867.75
635.67	1863.65
635.86	1734.63
636.05	1920.99
636.24	1828.84
636.43	1849.32
636.62	1806.31
636.81	1705.96
637.00	1783.78
637.19	1849.32
637.38	1828.84
637.57	1859.56
637.76	1910.75
637.95	1966.05
638.14	1890.28
638.33	1953.76
638.52	1875.94
638.71	1845.22
638.89	1773.54
639.08	2054.11
639.27	1943.52
639.46	2037.73
639.65	2375.64
639.84	2418.65
640.03	2566.10
640.22	2498.52
640.41	2562.01
640.60	2234.33
640.79	2125.79
640.98	2099.17
641.17	2017.25
641.36	1955.81
641.55	2021.35
641.74	1931.23
641.92	1890.28
642.11	1839.08
642.30	1855.46
642.49	1781.73
642.68	1806.31
642.87	1894.37
643.06	1828.84
643.25	1818.60
643.44	1757.16
643.63	1828.84
643.82	1859.56
644.00	1705.96
644.19	1884.13
644.38	1755.11
644.57	1875.94
644.76	1841.12
644.95	1857.51
645.14	1773.54
645.33	1832.93
645.52	1855.46
645.71	1738.73
645.89	1753.06
646.08	1818.60
646.27	1781.73
646.46	1982.43
646.65	1771.49
646.84	1832.93
647.03	1757.16
647.22	1974.24
647.40	1820.64
647.59	1775.59
647.78	1849.32
647.97	1763.30
648.16	1791.97
648.35	1947.62
648.54	1886.18
648.73	1796.07
648.91	1875.94
649.10	1888.23
649.29	1755.11
649.48	1894.37
649.67	1761.25
649.86	1888.23
650.05	1939.43
650.23	1994.72
650.42	1945.57
650.61	2080.74
650.80	2000.87
650.99	2021.35
651.18	1974.24
651.36	1933.28
651.55	1886.18
651.74	1931.23
651.93	1843.17
652.12	1816.55
652.31	1847.27
652.49	1902.56
652.68	1804.26
652.87	1931.23
653.06	1830.88
653.25	1939.43
653.44	1904.61
653.62	1943.52
653.81	1814.50
654.00	1888.23
654.19	1828.84
654.38	2000.87
654.56	1841.12
654.75	1791.97
654.94	1861.60
655.13	1783.78
655.32	1832.93
655.51	1851.36
655.69	1724.39
655.88	1841.12
656.07	1746.92
656.26	1877.99
656.45	1732.58
656.63	1791.97
656.82	1832.93
657.01	1867.75
657.20	1796.07
657.38	1933.28
657.57	1796.07
657.76	1777.64
657.95	1853.41
658.14	1794.02
658.32	1789.92
658.51	1724.39
658.70	1865.70
658.89	1912.80
659.08	1875.94
659.26	2084.83
659.45	1824.74
659.64	1871.84
659.83	1787.88
660.01	2093.02
660.20	1949.67
660.39	1947.62
660.58	1771.49
660.76	1834.98
660.95	1791.97
661.14	1824.74
661.33	1767.40
661.51	1806.31
661.70	1779.68
661.89	1910.75
662.08	1785.83
662.26	1847.27
662.45	1761.25
662.64	1945.57
662.83	1880.04
663.01	1779.68
663.20	1722.34
663.39	1998.82
663.58	1802.21
663.76	1812.45
663.95	1882.08
664.14	1851.36
664.32	1757.16
664.51	1779.68
664.70	1699.81
664.89	1882.08
665.07	1785.83
665.26	1941.47
665.45	1701.86
665.64	1841.12
665.82	1839.08
666.01	1867.75
666.20	1769.44
666.38	1910.75
666.57	1986.53
666.76	2512.86
666.95	5619.63
667.13	13477.68
667.32	19865.30
667.51	23508.63
667.69	26568.30
667.88	26082.93
668.07	19134.17
668.25	14452.52
668.44	11829.07
668.63	10082.15
668.81	8716.16
669.00	7884.68
669.19	7055.25
669.38	6029.22
669.56	5343.15
669.75	4554.68
669.94	3741.64
670.12	3063.76
670.31	2625.50
670.50	2371.55
670.68	2070.50
670.87	1984.48
671.06	1961.95
671.24	1988.58
671.43	2011.11
671.62	1953.76
671.80	1806.31
671.99	1920.99
672.18	1929.19
672.36	1961.95
672.55	1849.32
672.74	1875.94
672.92	1824.74
673.11	1916.90
673.29	1822.69
673.48	1771.49
673.67	1822.69
673.85	1861.60
674.04	1779.68
674.23	1925.09
674.41	1976.29
674.60	1738.73
674.79	1820.64
674.97	1798.12
675.16	1839.08
675.34	1796.07
675.53	1834.98
675.72	1894.37
675.90	1968.10
676.09	1800.16
676.28	1841.12
676.46	1722.34
676.65	1841.12
676.83	1726.44
677.02	1845.22
677.21	1837.03
677.39	1906.66
677.58	1763.30
677.77	1882.08
677.95	1779.68
678.14	1775.59
678.32	1769.44
678.51	1777.64
678.70	2045.92
678.88	1728.49
679.07	1828.84
679.25	1763.30
679.44	1839.08
679.63	1744.87
679.81	1826.79
680.00	1941.47
680.18	1804.26
680.37	2002.91
680.55	1845.22
680.74	1726.44
680.93	1734.63
681.11	1806.31
681.30	1804.26
681.48	1824.74
681.67	1800.16
681.85	1771.49
682.04	1865.70
682.23	1916.90
682.41	1781.73
682.60	1794.02
682.78	1839.08
682.97	1728.49
683.15	1832.93
683.34	1839.08
683.53	1851.36
683.71	1744.87
683.90	1884.13
684.08	1959.91
684.27	1765.35
684.45	1812.45
684.64	1865.70
684.82	1804.26
685.01	1839.08
685.19	1808.36
685.38	1880.04
685.57	1871.84
685.75	1822.69
685.94	1822.69
686.12	1787.88
686.31	1820.64
686.49	1953.76
686.68	1767.40
686.86	1828.84
687.05	1802.21
687.23	1837.03
687.42	1769.44
687.60	1728.49
687.79	1904.61
687.97	1914.85
688.16	1914.85
688.34	1908.71
688.53	1761.25
688.71	1796.07
688.90	1871.84
689.08	1826.79
689.27	1695.72
689.45	1810.40
689.64	1873.89
689.82	1802.21
690.01	1818.60
690.19	1869.80
690.38	1867.75
690.56	1920.99
690.75	1812.45
690.93	1800.16
691.12	1820.64
691.30	1718.25
691.49	1771.49
691.67	1892.32
691.86	2023.39
692.04	1757.16
692.23	1843.17
692.41	1867.75
692.60	2041.82
692.78	1978.34
692.97	1853.41
693.15	2000.87
693.34	1925.09
693.52	1945.57
693.71	1773.54
693.89	1794.02
694.08	1781.73
694.26	1814.50
694.44	1900.52
694.63	1914.85
694.81	1759.21
695.00	1755.11
695.18	1894.37
695.37	2009.06
695.55	1812.45
695.74	1779.68
695.92	1839.08
696.10	1859.56
696.29	1740.77
696.47	1824.74
696.66	1832.93
696.84	1753.06
697.03	1826.79
697.21	1902.56
697.40	2435.03
697.58	1861.60
697.76	1785.83
697.95	1726.44
698.13	1761.25
698.32	1810.40
698.50	1759.21
698.68	1796.07
698.87	1877.99
699.05	1861.60
699.24	1886.18
699.42	1746.92
699.61	1775.59
699.79	1791.97
699.97	1763.30
700.16	1759.21
700.34	1683.43
700.53	1787.88
700.71	1865.70
700.89	1867.75
701.08	1828.84
701.26	1822.69
701.45	2277.34
701.63	1773.54
701.81	1781.73
702.00	1800.16
702.18	1851.36
702.37	1812.45
702.55	2025.44
702.73	1992.67
702.92	1970.15
703.10	2095.07
703.28	2185.18
703.47	1994.72
703.65	2027.49
703.84	1980.39
704.02	1935.33
704.20	1947.62
704.39	1861.60
704.57	1918.95
704.75	1892.32
704.94	1912.80
705.12	1855.46
705.30	2033.63
705.49	2994.13
705.67	7282.58
705.86	15888.14
706.04	21624.50
706.22	24983.17
706.41	27399.77
706.59	25779.83
706.77	18661.09
706.96	14368.55
707.14	12396.35
707.32	10569.57
707.51	9363.31
707.69	8075.14
707.87	6801.30
708.06	5556.14
708.24	4255.68
708.42	3239.89
708.61	2727.89
708.79	2320.35
708.97	2119.65
709.16	2070.50
709.34	1982.43
709.52	1933.28
709.71	1865.70
709.89	1931.23
710.07	1804.26
710.26	1775.59
710.44	1759.21
710.62	1910.75
710.80	1802.21
710.99	1931.23
711.17	1822.69
711.35	1802.21
711.54	1804.26
711.72	1908.71
711.90	1894.37
712.09	1898.47
712.27	1787.88
712.45	1859.56
712.63	1779.68
712.82	1837.03
713.00	1796.07
713.18	1869.80
713.37	1828.84
713.55	1802.21
713.73	1757.16
713.91	1916.90
714.10	1800.16
714.28	1857.51
714.46	1890.28
714.65	1820.64
714.83	1847.27
715.01	1865.70
715.19	1849.32
715.38	1781.73
715.56	1869.80
715.74	1775.59
715.92	1728.49
716.11	1832.93
716.29	1665.00
716.47	1812.45
716.65	1730.53
716.84	1669.09
717.02	1845.22
717.20	1794.02
717.38	1767.40
717.57	1826.79
717.75	1748.97
717.93	1791.97
718.11	1896.42
718.30	1769.44
718.48	1834.98
718.66	1904.61
718.84	1892.32
719.03	1877.99
719.21	1689.57
719.39	1951.71
719.57	1818.60
719.75	1888.23
719.94	1804.26
720.12	1771.49
720.30	1804.26
720.48	1861.60
720.67	1826.79
720.85	1791.97
721.03	1832.93
721.21	1683.43
721.39	1865.70
721.58	1861.60
721.76	1763.30
721.94	1843.17
722.12	1810.40
722.30	1910.75
722.49	1746.92
722.67	1843.17
722.85	1880.04
723.03	1796.07
723.21	1843.17
723.40	1888.23
723.58	1890.28
723.76	1880.04
723.94	1941.47
724.12	1886.18
724.30	1927.14
724.49	1933.28
724.67	1853.41
724.85	1964.00
725.03	1781.73
725.21	1898.47
725.40	1855.46
725.58	1787.88
725.76	1910.75
725.94	1810.40
726.12	1789.92
726.30	1849.32
726.49	1824.74
726.67	1763.30
726.85	1935.33
727.03	2033.63
727.21	2768.85
727.39	4134.85
727.57	5515.18
727.76	6295.46
727.94	6647.71
728.12	6803.35
728.30	5844.90
728.48	4667.32
728.66	4196.29
728.84	3743.69
729.03	3291.09
729.21	2861.01
729.39	2496.47
729.57	2154.46
729.75	2072.54
729.93	1976.29
730.11	1923.04
730.30	1802.21
730.48	1830.88
730.66	1871.84
730.84	1912.80
731.02	1832.93
731.20	1839.08
731.38	1849.32
731.56	1808.36
731.74	1681.38
731.93	1880.04
732.11	1908.71
732.29	1828.84
732.47	1855.46
732.65	1787.88
732.83	1884.13
733.01	1849.32
733.19	1765.35
733.37	1834.98
733.56	1853.41
733.74	1820.64
733.92	1906.66
734.10	1789.92
734.28	1806.31
734.46	1746.92
734.64	1796.07
734.82	1744.87
735.00	1767.40
735.18	1896.42
735.36	1824.74
735.54	1804.26
735.73	1773.54
735.91	1841.12
736.09	1845.22
736.27	1759.21
736.45	1890.28
736.63	1722.34
736.81	1738.73
736.99	1865.70
737.17	1912.80
737.35	1740.77
737.53	1816.55
737.71	1802.21
737.89	1943.52
738.07	1777.64
738.25	1759.21
738.43	1736.68
738.61	1732.58
738.80	1761.25
738.98	1746.92
739.16	1734.63
739.34	1812.45
739.52	1910.75
739.70	1806.31
739.88	1820.64
740.06	1890.28
740.24	1701.86
740.42	1843.17
740.60	1710.05
740.78	1796.07
740.96	1718.25
741.14	1814.50
741.32	1824.74
741.50	1734.63
741.68	2043.87
741.86	1937.38
742.04	1812.45
742.22	1826.79
742.40	1826.79
742.58	1877.99
742.76	1728.49
742.94	1873.89
743.12	1751.01
743.30	1808.36
743.48	1857.51
743.66	1775.59
743.84	1865.70
744.02	1865.70
744.20	1851.36
744.38	1802.21
744.56	1796.07
744.74	1845.22
744.92	1886.18
745.10	1939.43
745.28	1849.32
745.46	1937.38
745.64	1806.31
745.82	1904.61
746.00	1822.69
746.18	1791.97
746.36	1816.55
746.54	1822.69
746.72	1853.41
746.90	1757.16
747.08	1941.47
747.26	1783.78
747.44	1814.50
747.62	1927.14
747.80	1818.60
747.98	1826.79
748.15	1814.50
748.33	1945.57
748.51	1822.69
748.69	1877.99
748.87	1722.34
749.05	1882.08
749.23	1802.21
749.41	1808.36
749.59	1841.12
749.77	1832.93
749.95	1806.31
750.13	1763.30
750.31	1900.52
750.49	1777.64
750.67	1841.12
750.85	1957.86
751.03	1861.60
751.20	1933.28
751.38	1787.88
751.56	1759.21
751.74	1857.51
751.92	1771.49
752.10	1755.11
752.28	1880.04
752.46	1748.97
752.64	1812.45
752.82	1837.03
753.00	1882.08
753.18	1671.14
753.35	1800.16
753.53	1767.40
753.71	1849.32
753.89	1943.52
754.07	1822.69
754.25	1861.60
754.43	1808.36
754.61	1708.01
754.79	1826.79
754.97	1730.53
755.14	1923.04
755.32	1742.82
755.50	1812.45
755.68	1853.41
755.86	1769.44
756.04	1814.50
756.22	1714.15
756.40	1787.88
756.57	1892.32
756.75	1861.60
756.93	1837.03
757.11	1859.56
757.29	1724.39
757.47	1810.40
757.65	1681.38
757.82	1648.61
758.00	1763.30
758.18	1720.29
758.36	1732.58
758.54	1857.51
758.72	1746.92
758.90	1888.23
759.07	1757.16
759.25	1757.16
759.43	1853.41
759.61	1716.20
759.79	2402.27
759.97	1869.80
760.15	1785.83
760.32	1789.92
760.50	1875.94
760.68	1902.56
760.86	1732.58
761.04	1886.18
761.22	1826.79
761.39	1861.60
761.57	1800.16
761.75	1751.01
761.93	1867.75
762.11	1798.12
762.28	1855.46
762.46	1810.40
762.64	1857.51
762.82	1832.93
763.00	1857.51
763.18	1787.88
763.35	1677.29
763.53	1853.41
763.71	1818.60
763.89	1810.40
764.07	1791.97
764.24	1824.74
764.42	1886.18
764.60	1839.08
764.78	1869.80
764.96	1834.98
765.13	1820.64
765.31	1892.32
765.49	1845.22
765.67	1726.44
765.84	1757.16
766.02	1771.49
766.20	1685.48
766.38	1910.75
766.56	1855.46
766.73	1900.52
766.91	1791.97
767.09	1875.94
767.27	1906.66
767.44	1765.35
767.62	1923.04
767.80	1802.21
767.98	1884.13
768.15	1900.52
768.33	1841.12
768.51	1849.32
768.69	1843.17
768.87	1910.75
769.04	1808.36
769.22	1927.14
769.40	1925.09
769.58	2002.91
769.75	1843.17
769.93	1869.80
770.11	1818.60
770.28	1751.01
770.46	1882.08
770.64	1847.27
770.82	1785.83
770.99	1869.80
771.17	1789.92
771.35	1718.25
771.53	1826.79
771.70	1800.16
771.88	1759.21
772.06	1830.88
772.23	1753.06
772.41	1847.27
772.59	1751.01
772.77	1693.67
772.94	1828.84
773.12	1892.32
773.30	1781.73
773.47	1841.12
773.65	1701.86
773.83	1906.66
774.01	1791.97
774.18	1687.53
774.36	1851.36
774.54	1765.35
774.71	1796.07
774.89	1699.81
775.07	1742.82
775.24	1775.59
775.42	1757.16
775.60	1927.14
775.78	1748.97
775.95	1763.30
776.13	1683.43
776.31	1640.42
776.48	1830.88
776.66	1841.12
776.84	1787.88
777.01	1816.55
777.19	1800.16
777.37	1775.59
777.54	1861.60
777.72	1845.22
777.90	1896.42
778.07	1771.49
778.25	1966.05
778.43	1890.28
778.60	1662.95
778.78	1912.80
778.96	1818.60
779.13	1730.53
779.31	1847.27
779.49	1845.22
779.66	1824.74
779.84	1753.06
780.01	1785.83
780.19	1740.77
780.37	1869.80
780.54	1859.56
780.72	1769.44
780.90	1785.83
781.07	1867.75
781.25	1748.97
781.43	1832.93
781.60	1853.41
781.78	1873.89
781.95	1861.60
782.13	1742.82
782.31	1814.50
782.48	1660.90
782.66	1800.16
782.83	1849.32
783.01	1859.56
783.19	1894.37
783.36	1796.07
783.54	1834.98
783.72	1892.32
783.89	1742.82
784.07	1832.93
784.24	1806.31
784.42	1877.99
784.60	1828.84
784.77	1863.65
784.95	1714.15
785.12	1716.20
785.30	1781.73
785.47	1755.11
785.65	1767.40
785.83	1828.84
786.00	1718.25
786.18	1763.30
786.35	1755.11
786.53	1732.58
786.71	1859.56
786.88	1943.52
787.06	1828.84
787.23	1832.93
787.41	1705.96
787.58	1814.50
787.76	1789.92
787.94	1826.79
788.11	1787.88
788.29	1765.35
788.46	1703.91
788.64	1767.40
788.81	1845.22
788.99	1796.07
789.16	1779.68
789.34	1863.65
789.52	1763.30
789.69	1755.11
789.87	1656.81
790.04	1722.34
790.22	1847.27
790.39	1912.80
790.57	1697.77
790.74	1726.44
790.92	1845.22
791.09	1734.63
791.27	1816.55
791.44	1886.18
791.62	1841.12
791.79	1894.37
791.97	1828.84
792.15	1972.19
792.32	1869.80
792.50	1822.69
792.67	1845.22
792.85	1851.36
793.02	1834.98
793.20	1787.88
793.37	1697.77
793.55	1828.84
793.72	1791.97
793.90	1816.55
794.07	1773.54
794.25	1732.58
794.42	1834.98
794.60	1841.12
794.77	1828.84
794.95	1847.27
795.12	1865.70
795.30	1794.02
795.47	1720.29
795.65	2052.06
795.82	1861.60
796.00	1787.88
796.17	1763.30
796.34	1798.12
796.52	1824.74
796.69	1806.31
796.87	1890.28
797.04	1824.74
797.22	1810.40
797.39	1824.74
797.57	1865.70
797.74	1865.70
797.92	1828.84
798.09	1828.84
798.27	1916.90
798.44	1841.12
798.62	1787.88
798.79	1824.74
798.96	1853.41
799.14	1843.17
799.31	1941.47
799.49	1853.41
799.66	1808.36
799.84	1787.88
800.01	1779.68
800.19	1843.17
800.36	1757.16
800.53	1824.74
800.71	1863.65
800.88	1953.76
801.06	1828.84
801.23	1761.25
801.41	1859.56
801.58	1820.64
801.75	1810.40
801.93	1798.12
802.10	1877.99
802.28	1822.69
802.45	1744.87
802.63	1865.70
802.80	1892.32
802.97	1800.16
803.15	1781.73
803.32	1787.88
803.50	1656.81
803.67	1755.11
803.84	1683.43
804.02	1812.45
804.19	1837.03
804.37	1691.62
804.54	1755.11
804.71	1767.40
804.89	1824.74
805.06	1839.08
805.24	1742.82
805.41	1834.98
805.58	1720.29
805.76	1988.58
805.93	1861.60
806.10	1923.04
806.28	1828.84
806.45	1824.74
806.63	1863.65
806.80	1812.45
806.97	1767.40
807.15	1837.03
807.32	1789.92
807.49	1847.27
807.67	1773.54
807.84	1843.17
808.01	1734.63
808.19	1912.80
808.36	1970.15
808.54	1781.73
808.71	1759.21
808.88	1804.26
809.06	1816.55
809.23	1957.86
809.40	1708.01
809.58	1898.47
809.75	1875.94
809.92	1730.53
810.10	1996.77
810.27	1783.78
810.44	1851.36
810.62	1902.56
810.79	1773.54
810.96	1787.88
811.14	1703.91
811.31	1877.99
811.48	1861.60
811.66	1853.41
811.83	1914.85
812.00	1818.60
812.18	1837.03
812.35	1988.58
812.52	1775.59
812.69	1746.92
812.87	1763.30
813.04	1812.45
813.21	1886.18
813.39	1734.63
813.56	1787.88
813.73	1849.32
813.91	1812.45
814.08	1890.28
814.25	1843.17
814.42	1714.15
814.60	1781.73
814.77	1837.03
814.94	1773.54
815.12	1834.98
815.29	1880.04
815.46	1828.84
815.63	1808.36
815.81	1845.22
815.98	1841.12
816.15	1753.06
816.33	1810.40
816.50	1755.11
816.67	1894.37
816.84	1763.30
817.02	1742.82
817.19	1789.92
817.36	1855.46
817.53	1806.31
817.71	1779.68
817.88	1812.45
818.05	1812.45
818.22	1791.97
818.40	1953.76
818.57	1757.16
818.74	1853.41
818.91	1779.68
819.09	1910.75
819.26	1849.32
819.43	1724.39
819.60	1820.64
819.78	1800.16
819.95	1955.81
820.12	1677.29
820.29	1988.58
820.47	1808.36
820.64	1841.12
820.81	1806.31
820.98	1771.49
821.15	1773.54
821.33	1902.56
821.50	1718.25
821.67	1804.26
821.84	1785.83
822.02	1785.83
822.19	1841.12
822.36	1769.44
822.53	1765.35
822.70	1755.11
822.88	1779.68
823.05	1875.94
823.22	1773.54
823.39	1884.13
823.56	1800.16
823.74	1927.14
823.91	1806.31
824.08	1712.10
824.25	1716.20
824.42	1918.95
824.60	1697.77
824.77	1837.03
824.94	1785.83
825.11	1869.80
825.28	1742.82
825.45	1761.25
825.63	1853.41
825.80	1722.34
825.97	1839.08
826.14	1828.84
826.31	1746.92
826.48	1798.12
826.66	1753.06
826.83	1800.16
827.00	1785.83
827.17	1730.53
827.34	1796.07
827.51	1738.73
827.69	1810.40
827.86	1763.30
828.03	1796.07
828.20	1890.28
828.37	1832.93
828.54	1818.60
828.71	1736.68
828.89	1902.56
829.06	1794.02
829.23	1882.08
829.40	1673.19
829.57	1804.26
829.74	1849.32
829.91	1761.25
830.09	1763.30
830.26	1851.36
830.43	1884.13
830.60	1798.12
830.77	1812.45
830.94	1849.32
831.11	1845.22
831.28	1800.16
831.46	1898.47
831.63	1796.07
831.80	1906.66
831.97	1769.44
832.14	1787.88
832.31	1884.13
832.48	1802.21
832.65	1896.42
832.82	1828.84
832.99	1837.03
833.17	1841.12
833.34	1984.48
833.51	1867.75
833.68	1652.71
833.85	1816.55
834.02	1775.59
834.19	1693.67
834.36	1642.47
834.53	1785.83
834.70	1894.37
834.87	1820.64
835.04	1779.68
835.22	1736.68
835.39	1808.36
835.56	1732.58
835.73	1767.40
835.90	1916.90
836.07	1775.59
836.24	1877.99
836.41	1781.73
836.58	1802.21
836.75	1804.26
836.92	1898.47
837.09	1791.97
837.26	1892.32
837.43	1824.74
837.60	1861.60
837.77	1875.94
837.94	1929.19
838.12	1912.80
838.29	1855.46
838.46	1705.96
838.63	1701.86
838.80	1867.75
838.97	1886.18
839.14	1806.31
839.31	1800.16
839.48	1791.97
839.65	1853.41
839.82	1845.22
839.99	1734.63
840.16	1800.16
840.33	1748.97
840.50	1810.40
840.67	1800.16
840.84	1679.33
841.01	1814.50
841.18	1773.54
841.35	1798.12
841.52	1863.65
841.69	1920.99
841.86	1822.69
842.03	1808.36
842.20	1890.28
842.37	1798.12
842.54	1863.65
842.71	1843.17
842.88	1689.57
843.05	1824.74
843.22	1810.40
843.39	1820.64
843.56	1847.27
843.73	1802.21
843.90	1785.83
844.07	1834.98
844.24	1882.08
844.41	1857.51
844.58	1822.69
844.75	1812.45
844.92	1845.22
845.09	1746.92
845.26	1812.45
845.43	1812.45
845.60	1718.25
845.77	1898.47
845.94	1837.03
846.10	1880.04
846.27	1732.58
846.44	1716.20
846.61	1726.44
846.78	1796.07
846.95	1888.23
847.12	1802.21
847.29	1781.73
847.46	1767.40
847.63	1828.84
847.80	1794.02
847.97	1796.07
848.14	1953.76
848.31	1769.44
848.48	1705.96
848.65	1849.32
848.82	1847.27
848.98	1970.15
849.15	1884.13
849.32	1882.08
849.49	1867.75
849.66	1834.98
849.83	1851.36
850.00	1748.97
850.17	1734.63
850.34	1814.50
850.51	1757.16
850.68	1783.78
850.85	1910.75
851.01	1796.07
851.18	1855.46
851.35	1814.50
851.52	1791.97
851.69	1900.52
851.86	1753.06
852.03	1748.97
852.20	1843.17
852.37	1806.31
852.53	1697.77
852.70	1796.07
852.87	1806.31
853.04	1871.84
853.21	1816.55
853.38	1892.32
853.55	1916.90
853.72	1865.70
853.89	1791.97
854.05	1800.16
854.22	1746.92
854.39	1806.31
854.56	1857.51
854.73	1851.36
854.90	1800.16
855.07	1810.40
855.23	1767.40
855.40	1761.25
855.57	1732.58
855.74	1665.00
855.91	1988.58
856.08	1742.82
856.25	1699.81
856.41	1814.50
856.58	1759.21
856.75	1791.97
856.92	1771.49
857.09	1939.43
857.26	1843.17
857.42	1775.59
857.59	1843.17
857.76	1816.55
857.93	1828.84
858.10	1830.88
858.27	1738.73
858.43	1810.40
858.60	1755.11
858.77	1675.24
858.94	1818.60
859.11	1910.75
859.27	1755.11
859.44	1824.74
859.61	1853.41
859.78	1855.46
859.95	1755.11
860.12	1785.83
860.28	1929.19
860.45	1939.43
860.62	1771.49
860.79	1877.99
860.95	1816.55
861.12	1796.07
861.29	1769.44
861.46	1791.97
861.63	1832.93
861.79	1771.49
861.96	1832.93
862.13	1730.53
862.30	1843.17
862.47	1783.78
862.63	1757.16
862.80	1824.74
862.97	1869.80
863.14	1802.21
863.30	1791.97
863.47	1714.15
863.64	1843.17
863.81	1812.45
863.97	1820.64
864.14	1847.27
864.31	1775.59
864.48	1757.16
864.65	1769.44
864.81	1824.74
864.98	1843.17
865.15	1834.98
865.32	1826.79
865.48	1869.80
865.65	1880.04
865.82	1759.21
865.98	1787.88
866.15	1814.50
866.32	1796.07
866.49	1830.88
866.65	1875.94
866.82	1787.88
866.99	1773.54
867.16	1773.54
867.32	1701.86
867.49	1722.34
867.66	1783.78
867.83	1812.45
867.99	1716.20
868.16	1814.50
868.33	1697.77
868.49	1839.08
868.66	1763.30
868.83	1861.60
868.99	1886.18
869.16	1824.74
869.33	1832.93
869.50	1873.89
869.66	1759.21
869.83	1755.11
870.00	1761.25
870.16	1884.13
870.33	1812.45
870.50	1849.32
870.66	1818.60
870.83	1920.99
871.00	1808.36
871.17	1791.97
871.33	1841.12
871.50	1837.03
871.67	1767.40
871.83	1736.68
872.00	1992.67
872.17	1798.12
872.33	1935.33
872.50	1855.46
872.67	1824.74
872.83	1740.77
873.00	1804.26
873.17	1787.88
873.33	1884.13
873.50	1824.74
873.67	1763.30
873.83	1712.10
874.00	1791.97
874.16	1923.04
874.33	1818.60
874.50	1734.63
874.66	1800.16
874.83	1791.97
875.00	1812.45
875.16	1849.32
875.33	1908.71
875.50	1714.15
875.66	1763.30
875.83	1896.42
875.99	1837.03
876.16	1773.54
876.33	1763.30
876.49	1863.65
876.66	1861.60
876.83	1783.78
876.99	1742.82
877.16	1857.51
877.32	1712.10
877.49	1761.25
877.66	1830.88
877.82	1849.32
877.99	1863.65
878.15	1910.75
878.32	1841.12
878.49	1830.88
878.65	1812.45
878.82	1869.80
878.98	1808.36
879.15	1937.38
879.32	1822.69
879.48	1910.75
879.65	1759.21
879.81	1785.83
879.98	1732.58
880.15	1755.11
880.31	1949.67
880.48	1787.88
880.64	1931.23
880.81	1855.46
880.97	1845.22
881.14	1859.56
881.31	1761.25
881.47	1968.10
881.64	1777.64
881.80	1753.06
881.97	1802.21
882.13	1910.75
882.30	1820.64
882.47	1763.30
882.63	1771.49
882.80	1769.44
882.96	1814.50
883.13	1904.61
883.29	1804.26
883.46	1746.92
883.62	1902.56
883.79	1830.88
883.95	1861.60
884.12	1738.73
884.29	1855.46
884.45	1834.98
884.62	1923.04
884.78	1773.54
884.95	1880.04
885.11	1785.83
885.28	1863.65
885.44	1791.97
885.61	1802.21
885.77	1898.47
885.94	1822.69
886.10	1861.60
886.27	1800.16
886.43	1923.04
886.60	1920.99
886.76	1845.22
886.93	1652.71
887.09	1828.84
887.26	1765.35
887.42	1847.27
887.59	1863.65
887.75	1925.09
887.92	1916.90
888.08	1837.03
888.25	1951.71
888.41	1855.46
888.58	1820.64
888.74	1771.49
888.91	1789.92
>>>>>End Processed Spectral Data<<<<<
