SpectraSuite Data File
++++++++++++++++++++++++++++++++++++
Date: Wed May 04 21:13:38 CEST 2016
User: root
Dark Spectrum Present: No
Reference Spectrum Present: No
Number of Sampled Component Spectra: 1
Spectrometers: USB4C02835
Integration Time (usec): 100000 (USB4C02835)
Spectra Averaged: 1 (USB4C02835)
Boxcar Smoothing: 0 (USB4C02835)
Correct for Electrical Dark: No (USB4C02835)
Strobe/Lamp Enabled: No (USB4C02835)
Correct for Detector Non-linearity: No (USB4C02835)
Correct for Stray Light: No (USB4C02835)
Number of Pixels in Processed Spectrum: 3648
>>>>>Begin Processed Spectral Data<<<<<
177.47	1550.31
177.69	1550.31
177.91	1550.31
178.13	1529.83
178.36	1558.50
178.58	1767.40
178.80	1834.98
179.02	1703.91
179.24	1779.68
179.46	1796.07
179.68	1808.36
179.90	1777.64
180.13	1916.90
180.35	1753.06
180.57	1841.12
180.79	1837.03
181.01	1828.84
181.23	1847.27
181.45	1873.89
181.67	1818.60
181.90	1841.12
182.12	1818.60
182.34	1796.07
182.56	1822.69
182.78	1851.36
183.00	1808.36
183.22	1794.02
183.44	1740.77
183.66	1959.91
183.89	1892.32
184.11	1812.45
184.33	1888.23
184.55	1839.08
184.77	1787.88
184.99	1791.97
185.21	1794.02
185.43	1943.52
185.65	1777.64
185.87	1802.21
186.10	1918.95
186.32	2050.02
186.54	1849.32
186.76	1800.16
186.98	1843.17
187.20	1853.41
187.42	1730.53
187.64	1820.64
187.86	1830.88
188.08	1859.56
188.30	1738.73
188.52	1779.68
188.75	1925.09
188.97	1875.94
189.19	1773.54
189.41	1787.88
189.63	1798.12
189.85	1785.83
190.07	1705.96
190.29	1738.73
190.51	1832.93
190.73	1738.73
190.95	1871.84
191.17	1742.82
191.39	1689.57
191.61	1851.36
191.84	1728.49
192.06	1832.93
192.28	1660.90
192.50	2052.06
192.72	1826.79
192.94	1796.07
193.16	1884.13
193.38	1861.60
193.60	1796.07
193.82	1820.64
194.04	1914.85
194.26	1853.41
194.48	1873.89
194.70	1787.88
194.92	1738.73
195.14	1837.03
195.36	1826.79
195.58	1789.92
195.80	1742.82
196.02	1828.84
196.24	1849.32
196.46	1812.45
196.69	1748.97
196.91	2031.58
197.13	1767.40
197.35	1757.16
197.57	1845.22
197.79	1867.75
198.01	1884.13
198.23	1800.16
198.45	1869.80
198.67	1662.95
198.89	1765.35
199.11	1826.79
199.33	1759.21
199.55	1720.29
199.77	1832.93
199.99	1863.65
200.21	1767.40
200.43	1742.82
200.65	1767.40
200.87	1705.96
201.09	1785.83
201.31	1763.30
201.53	1869.80
201.75	1796.07
201.97	1834.98
202.19	1853.41
202.41	1824.74
202.63	1871.84
202.85	1820.64
203.07	1806.31
203.29	1744.87
203.51	1789.92
203.73	1791.97
203.95	2033.63
204.17	1791.97
204.39	1812.45
204.61	1837.03
204.83	1830.88
205.05	1898.47
205.27	1798.12
205.49	2004.96
205.71	1839.08
205.93	1730.53
206.15	1740.77
206.37	1806.31
206.59	1830.88
206.81	1673.19
207.03	1789.92
207.25	1738.73
207.47	1841.12
207.69	1773.54
207.91	1832.93
208.13	1880.04
208.34	1853.41
208.56	1730.53
208.78	1781.73
209.00	1818.60
209.22	1730.53
209.44	1798.12
209.66	1705.96
209.88	1796.07
210.10	1738.73
210.32	1751.01
210.54	1863.65
210.76	1806.31
210.98	1867.75
211.20	1728.49
211.42	1744.87
211.64	1966.05
211.86	1861.60
212.08	1800.16
212.30	1791.97
212.52	1818.60
212.74	1834.98
212.96	1804.26
213.17	1814.50
213.39	1920.99
213.61	1951.71
213.83	1742.82
214.05	1822.69
214.27	1839.08
214.49	1726.44
214.71	1818.60
214.93	1939.43
215.15	1839.08
215.37	1859.56
215.59	1789.92
215.81	1822.69
216.03	1916.90
216.24	1820.64
216.46	1853.41
216.68	1738.73
216.90	1824.74
217.12	1923.04
217.34	1722.34
217.56	1849.32
217.78	1851.36
218.00	1789.92
218.22	1806.31
218.44	1908.71
218.66	1789.92
218.87	2017.25
219.09	1787.88
219.31	1832.93
219.53	1841.12
219.75	1714.15
219.97	1806.31
220.19	1898.47
220.41	1802.21
220.63	1890.28
220.85	1869.80
221.06	1843.17
221.28	1892.32
221.50	1859.56
221.72	1845.22
221.94	1693.67
222.16	1851.36
222.38	1959.91
222.60	1834.98
222.82	1845.22
223.03	1988.58
223.25	1675.24
223.47	1880.04
223.69	1906.66
223.91	1845.22
224.13	1812.45
224.35	1771.49
224.57	1847.27
224.78	1804.26
225.00	1808.36
225.22	1820.64
225.44	1787.88
225.66	1812.45
225.88	1812.45
226.10	1861.60
226.32	1843.17
226.53	1859.56
226.75	1808.36
226.97	1748.97
227.19	1775.59
227.41	1787.88
227.63	1806.31
227.85	1720.29
228.06	1867.75
228.28	1755.11
228.50	1906.66
228.72	1753.06
228.94	1812.45
229.16	1779.68
229.37	1708.01
229.59	1796.07
229.81	1914.85
230.03	1800.16
230.25	1775.59
230.47	1710.05
230.69	1779.68
230.90	1861.60
231.12	1695.72
231.34	1814.50
231.56	1877.99
231.78	1708.01
232.00	1804.26
232.21	1779.68
232.43	1746.92
232.65	1685.48
232.87	1875.94
233.09	1718.25
233.30	1759.21
233.52	1849.32
233.74	1789.92
233.96	1781.73
234.18	1773.54
234.40	1802.21
234.61	1976.29
234.83	1699.81
235.05	1710.05
235.27	1982.43
235.49	1939.43
235.70	1796.07
235.92	1871.84
236.14	1802.21
236.36	2011.11
236.58	1773.54
236.79	1877.99
237.01	1785.83
237.23	1787.88
237.45	1927.14
237.67	1691.62
237.88	1931.23
238.10	1941.47
238.32	1796.07
238.54	1814.50
238.76	1798.12
238.97	1761.25
239.19	1814.50
239.41	1929.19
239.63	1857.51
239.85	1730.53
240.06	1761.25
240.28	1716.20
240.50	1871.84
240.72	1843.17
240.93	1798.12
241.15	1884.13
241.37	1746.92
241.59	1894.37
241.81	1783.78
242.02	1873.89
242.24	1849.32
242.46	1839.08
242.68	1753.06
242.89	1779.68
243.11	1873.89
243.33	1822.69
243.55	1818.60
243.76	1806.31
243.98	1796.07
244.20	1746.92
244.42	1808.36
244.64	1902.56
244.85	1728.49
245.07	1755.11
245.29	1804.26
245.51	1814.50
245.72	1847.27
245.94	1812.45
246.16	1830.88
246.38	1824.74
246.59	1746.92
246.81	1841.12
247.03	1728.49
247.24	1652.71
247.46	1830.88
247.68	1828.84
247.90	1736.68
248.11	1755.11
248.33	1861.60
248.55	1875.94
248.77	1779.68
248.98	1886.18
249.20	1933.28
249.42	1847.27
249.64	1810.40
249.85	1806.31
250.07	1683.43
250.29	1855.46
250.50	1834.98
250.72	1765.35
250.94	1861.60
251.16	1918.95
251.37	1914.85
251.59	1820.64
251.81	1867.75
252.02	1884.13
252.24	1771.49
252.46	1873.89
252.68	1701.86
252.89	1816.55
253.11	1716.20
253.33	1947.62
253.54	1861.60
253.76	1654.76
253.98	1855.46
254.20	1814.50
254.41	1724.39
254.63	1755.11
254.85	1796.07
255.06	1732.58
255.28	1798.12
255.50	1751.01
255.71	1781.73
255.93	1771.49
256.15	1746.92
256.36	1824.74
256.58	1724.39
256.80	1830.88
257.02	1781.73
257.23	1798.12
257.45	1808.36
257.67	1927.14
257.88	1818.60
258.10	1873.89
258.32	1787.88
258.53	1865.70
258.75	1890.28
258.97	1787.88
259.18	1779.68
259.40	1787.88
259.62	1869.80
259.83	1966.05
260.05	1845.22
260.27	2101.22
260.48	1841.12
260.70	1716.20
260.92	1837.03
261.13	1828.84
261.35	1834.98
261.57	1849.32
261.78	1763.30
262.00	1812.45
262.22	1894.37
262.43	1820.64
262.65	1759.21
262.86	1773.54
263.08	1945.57
263.30	1773.54
263.51	1763.30
263.73	1775.59
263.95	1890.28
264.16	1648.61
264.38	1783.78
264.60	1892.32
264.81	1875.94
265.03	1906.66
265.25	1933.28
265.46	1804.26
265.68	1920.99
265.89	1855.46
266.11	1630.18
266.33	1845.22
266.54	1937.38
266.76	1861.60
266.98	1834.98
267.19	1906.66
267.41	1880.04
267.62	1814.50
267.84	1734.63
268.06	1863.65
268.27	1863.65
268.49	1873.89
268.70	1869.80
268.92	1773.54
269.14	1740.77
269.35	1712.10
269.57	1818.60
269.79	1839.08
270.00	1796.07
270.22	1912.80
270.43	1738.73
270.65	1685.48
270.87	1832.93
271.08	1839.08
271.30	1806.31
271.51	1828.84
271.73	1855.46
271.95	1929.19
272.16	1755.11
272.38	1796.07
272.59	1757.16
272.81	1822.69
273.02	1800.16
273.24	1796.07
273.46	1834.98
273.67	1751.01
273.89	1769.44
274.10	1783.78
274.32	1873.89
274.54	1927.14
274.75	1771.49
274.97	1802.21
275.18	1865.70
275.40	1828.84
275.61	1800.16
275.83	1794.02
276.05	1714.15
276.26	1796.07
276.48	1832.93
276.69	1740.77
276.91	1761.25
277.12	1886.18
277.34	1839.08
277.55	1959.91
277.77	1861.60
277.99	1781.73
278.20	1732.58
278.42	1822.69
278.63	1779.68
278.85	1761.25
279.06	1775.59
279.28	1857.51
279.49	1896.42
279.71	1845.22
279.93	1802.21
280.14	1822.69
280.36	1751.01
280.57	1787.88
280.79	1857.51
281.00	1759.21
281.22	1808.36
281.43	1863.65
281.65	1744.87
281.86	1832.93
282.08	1857.51
282.29	1841.12
282.51	1695.72
282.73	1765.35
282.94	1705.96
283.16	1863.65
283.37	1982.43
283.59	1814.50
283.80	1808.36
284.02	1800.16
284.23	1802.21
284.45	1783.78
284.66	1746.92
284.88	1806.31
285.09	1830.88
285.31	1877.99
285.52	1814.50
285.74	1757.16
285.95	1914.85
286.17	1853.41
286.38	1937.38
286.60	1757.16
286.81	1732.58
287.03	1845.22
287.24	1837.03
287.46	1849.32
287.67	1839.08
287.89	1929.19
288.10	1859.56
288.32	1865.70
288.53	1898.47
288.75	1763.30
288.96	1861.60
289.18	1802.21
289.39	1861.60
289.61	1877.99
289.82	1943.52
290.04	1986.53
290.25	1773.54
290.47	1734.63
290.68	1808.36
290.90	1943.52
291.11	1718.25
291.33	1832.93
291.54	1742.82
291.76	1796.07
291.97	1800.16
292.18	1888.23
292.40	1730.53
292.61	1779.68
292.83	1884.13
293.04	1849.32
293.26	1863.65
293.47	1845.22
293.69	1748.97
293.90	1832.93
294.12	1890.28
294.33	1830.88
294.55	1746.92
294.76	1818.60
294.97	1861.60
295.19	1933.28
295.40	1757.16
295.62	1877.99
295.83	1898.47
296.05	1789.92
296.26	1869.80
296.48	1794.02
296.69	1759.21
296.90	1828.84
297.12	1822.69
297.33	1890.28
297.55	1824.74
297.76	1847.27
297.98	1812.45
298.19	1826.79
298.41	1847.27
298.62	1779.68
298.83	1914.85
299.05	1834.98
299.26	1777.64
299.48	1730.53
299.69	1953.76
299.90	1841.12
300.12	1824.74
300.33	1837.03
300.55	1755.11
300.76	1853.41
300.98	1726.44
301.19	1875.94
301.40	1734.63
301.62	1810.40
301.83	1849.32
302.05	1800.16
302.26	1777.64
302.47	1810.40
302.69	1751.01
302.90	1783.78
303.12	1710.05
303.33	1816.55
303.54	1918.95
303.76	1822.69
303.97	1841.12
304.19	1880.04
304.40	1726.44
304.61	1839.08
304.83	1918.95
305.04	1888.23
305.26	1730.53
305.47	1816.55
305.68	1779.68
305.90	1730.53
306.11	1873.89
306.33	1918.95
306.54	1720.29
306.75	1720.29
306.97	1712.10
307.18	1736.68
307.39	1757.16
307.61	1861.60
307.82	1808.36
308.04	1873.89
308.25	1699.81
308.46	1841.12
308.68	1794.02
308.89	1816.55
309.10	1873.89
309.32	1830.88
309.53	1849.32
309.74	1839.08
309.96	1751.01
310.17	1869.80
310.39	1662.95
310.60	1861.60
310.81	1814.50
311.03	1804.26
311.24	1904.61
311.45	1787.88
311.67	1976.29
311.88	1812.45
312.09	1847.27
312.31	1794.02
312.52	1802.21
312.73	1843.17
312.95	1710.05
313.16	1685.48
313.37	1847.27
313.59	1886.18
313.80	1888.23
314.01	1857.51
314.23	1744.87
314.44	1822.69
314.65	1736.68
314.87	1763.30
315.08	1769.44
315.29	1789.92
315.51	1781.73
315.72	1732.58
315.93	1996.77
316.15	1794.02
316.36	1783.78
316.57	1845.22
316.79	1884.13
317.00	1837.03
317.21	1845.22
317.43	1744.87
317.64	1910.75
317.85	1771.49
318.07	1765.35
318.28	1837.03
318.49	1939.43
318.70	2099.17
318.92	2029.54
319.13	2035.68
319.34	2002.91
319.56	2025.44
319.77	2000.87
319.98	1931.23
320.20	1871.84
320.41	1849.32
320.62	1849.32
320.83	1820.64
321.05	1949.67
321.26	1814.50
321.47	1851.36
321.69	1882.08
321.90	1705.96
322.11	1796.07
322.32	1800.16
322.54	1931.23
322.75	1642.47
322.96	1984.48
323.18	1777.64
323.39	1671.14
323.60	1732.58
323.81	1820.64
324.03	1761.25
324.24	1769.44
324.45	1812.45
324.66	1755.11
324.88	1828.84
325.09	1966.05
325.30	1808.36
325.52	1816.55
325.73	1857.51
325.94	1777.64
326.15	1781.73
326.37	1751.01
326.58	1832.93
326.79	1998.82
327.00	1701.86
327.22	1812.45
327.43	1822.69
327.64	1806.31
327.85	1832.93
328.07	1802.21
328.28	1880.04
328.49	1810.40
328.70	1861.60
328.92	1748.97
329.13	1796.07
329.34	1869.80
329.55	1898.47
329.76	1853.41
329.98	1804.26
330.19	1912.80
330.40	1923.04
330.61	1820.64
330.83	1753.06
331.04	1761.25
331.25	1845.22
331.46	1722.34
331.68	1744.87
331.89	1912.80
332.10	1857.51
332.31	1611.75
332.52	1814.50
332.74	1908.71
332.95	1693.67
333.16	1791.97
333.37	1863.65
333.58	1748.97
333.80	1779.68
334.01	1726.44
334.22	1787.88
334.43	1816.55
334.64	1736.68
334.86	1728.49
335.07	1746.92
335.28	1851.36
335.49	1681.38
335.70	1785.83
335.92	1828.84
336.13	1953.76
336.34	1884.13
336.55	1871.84
336.76	1843.17
336.98	1695.72
337.19	1851.36
337.40	1888.23
337.61	1959.91
337.82	1765.35
338.04	1927.14
338.25	1794.02
338.46	1738.73
338.67	1810.40
338.88	1777.64
339.09	1740.77
339.31	1771.49
339.52	1763.30
339.73	1751.01
339.94	1853.41
340.15	1865.70
340.36	1837.03
340.58	1826.79
340.79	1765.35
341.00	1837.03
341.21	1716.20
341.42	1906.66
341.63	1861.60
341.85	1841.12
342.06	1865.70
342.27	1732.58
342.48	1789.92
342.69	1720.29
342.90	1812.45
343.12	1869.80
343.33	1843.17
343.54	1875.94
343.75	1832.93
343.96	1849.32
344.17	1730.53
344.38	1834.98
344.60	1757.16
344.81	1898.47
345.02	1777.64
345.23	1867.75
345.44	1955.81
345.65	1859.56
345.86	1841.12
346.07	1841.12
346.29	1853.41
346.50	1859.56
346.71	1826.79
346.92	1871.84
347.13	1908.71
347.34	1845.22
347.55	1796.07
347.76	1820.64
347.98	1748.97
348.19	1820.64
348.40	1845.22
348.61	1710.05
348.82	1929.19
349.03	1945.57
349.24	1736.68
349.45	1910.75
349.66	1697.77
349.88	1839.08
350.09	1824.74
350.30	1834.98
350.51	1957.86
350.72	1832.93
350.93	1871.84
351.14	1771.49
351.35	1875.94
351.56	1830.88
351.77	1841.12
351.99	1877.99
352.20	1923.04
352.41	1826.79
352.62	1617.90
352.83	1769.44
353.04	1787.88
353.25	1794.02
353.46	1916.90
353.67	1898.47
353.88	1730.53
354.09	1806.31
354.30	1826.79
354.52	1904.61
354.73	1931.23
354.94	1789.92
355.15	1863.65
355.36	1914.85
355.57	1724.39
355.78	1789.92
355.99	1773.54
356.20	1843.17
356.41	1929.19
356.62	1861.60
356.83	1849.32
357.04	1894.37
357.25	1732.58
357.46	1798.12
357.68	1708.01
357.89	1751.01
358.10	1873.89
358.31	1804.26
358.52	1808.36
358.73	1765.35
358.94	1701.86
359.15	1841.12
359.36	1822.69
359.57	1875.94
359.78	1873.89
359.99	1806.31
360.20	1804.26
360.41	1869.80
360.62	1863.65
360.83	1822.69
361.04	1888.23
361.25	1783.78
361.46	1955.81
361.67	1832.93
361.88	1869.80
362.09	1920.99
362.30	1857.51
362.51	1763.30
362.72	1888.23
362.93	1851.36
363.14	1865.70
363.35	1740.77
363.56	1771.49
363.78	1832.93
363.99	1845.22
364.20	1765.35
364.41	1855.46
364.62	2017.25
364.83	1787.88
365.04	1871.84
365.25	1806.31
365.46	1925.09
365.67	1804.26
365.88	1832.93
366.09	1757.16
366.30	1841.12
366.51	1777.64
366.72	1726.44
366.93	1771.49
367.14	1810.40
367.35	1857.51
367.56	1796.07
367.77	1820.64
367.98	1777.64
368.18	1826.79
368.39	1830.88
368.60	1687.53
368.81	1830.88
369.02	1824.74
369.23	1775.59
369.44	1759.21
369.65	1767.40
369.86	1828.84
370.07	1865.70
370.28	1734.63
370.49	1873.89
370.70	1884.13
370.91	1722.34
371.12	1712.10
371.33	1841.12
371.54	1796.07
371.75	1904.61
371.96	1648.61
372.17	1775.59
372.38	1710.05
372.59	1851.36
372.80	1822.69
373.01	1771.49
373.22	1816.55
373.43	1824.74
373.64	1742.82
373.85	1783.78
374.06	1828.84
374.26	1888.23
374.47	1783.78
374.68	1939.43
374.89	1796.07
375.10	1794.02
375.31	1861.60
375.52	1871.84
375.73	1806.31
375.94	1763.30
376.15	2017.25
376.36	1761.25
376.57	1755.11
376.78	1814.50
376.99	1814.50
377.20	1875.94
377.40	1785.83
377.61	1894.37
377.82	1812.45
378.03	1798.12
378.24	1937.38
378.45	1800.16
378.66	1863.65
378.87	1669.09
379.08	1736.68
379.29	1720.29
379.50	1888.23
379.71	1808.36
379.91	1834.98
380.12	1818.60
380.33	1757.16
380.54	1814.50
380.75	1824.74
380.96	1816.55
381.17	1951.71
381.38	1794.02
381.59	1869.80
381.80	1796.07
382.00	1918.95
382.21	1900.52
382.42	1966.05
382.63	2035.68
382.84	1912.80
383.05	1974.24
383.26	1939.43
383.47	1894.37
383.68	1755.11
383.88	1867.75
384.09	1865.70
384.30	1941.47
384.51	1830.88
384.72	1773.54
384.93	1746.92
385.14	1779.68
385.35	1886.18
385.55	1765.35
385.76	1961.95
385.97	1839.08
386.18	1710.05
386.39	1781.73
386.60	1755.11
386.81	1849.32
387.02	1779.68
387.22	1808.36
387.43	1865.70
387.64	1941.47
387.85	1959.91
388.06	2213.85
388.27	4247.49
388.48	8728.44
388.68	11532.11
388.89	13737.77
389.10	14819.10
389.31	13145.91
389.52	10291.04
389.73	9023.35
389.93	8157.06
390.14	7497.61
390.35	6985.62
390.56	6182.82
390.77	5138.35
390.98	3928.00
391.18	3127.25
391.39	2432.99
391.60	2074.59
391.81	2039.78
392.02	1857.51
392.23	1898.47
392.43	1892.32
392.64	1931.23
392.85	1900.52
393.06	1908.71
393.27	1824.74
393.47	1748.97
393.68	1783.78
393.89	1802.21
394.10	1845.22
394.31	1841.12
394.52	1751.01
394.72	1773.54
394.93	1923.04
395.14	1693.67
395.35	1910.75
395.56	1751.01
395.76	1800.16
395.97	1906.66
396.18	1955.81
396.39	2002.91
396.60	2215.90
396.80	2082.78
397.01	2002.91
397.22	1974.24
397.43	1974.24
397.64	1806.31
397.84	1933.28
398.05	2007.01
398.26	1845.22
398.47	1918.95
398.67	1884.13
398.88	1847.27
399.09	1927.14
399.30	1877.99
399.51	1902.56
399.71	1757.16
399.92	1837.03
400.13	1748.97
400.34	1773.54
400.54	1853.41
400.75	1912.80
400.96	1857.51
401.17	1910.75
401.37	1939.43
401.58	1832.93
401.79	1824.74
402.00	1961.95
402.21	2160.61
402.41	2105.31
402.62	2263.01
402.83	2295.77
403.04	2267.10
403.24	2289.63
403.45	2074.59
403.66	2107.36
403.87	2019.30
404.07	1992.67
404.28	1988.58
404.49	2058.21
404.70	1851.36
404.90	1865.70
405.11	1837.03
405.32	1873.89
405.52	1814.50
405.73	1781.73
405.94	1773.54
406.15	1761.25
406.35	1863.65
406.56	1845.22
406.77	1806.31
406.98	1886.18
407.18	1783.78
407.39	1884.13
407.60	1806.31
407.80	1863.65
408.01	1779.68
408.22	1816.55
408.43	1802.21
408.63	1820.64
408.84	1867.75
409.05	1871.84
409.25	1738.73
409.46	1791.97
409.67	1724.39
409.88	1751.01
410.08	1882.08
410.29	1785.83
410.50	1873.89
410.70	1837.03
410.91	1742.82
411.12	1916.90
411.32	1851.36
411.53	1771.49
411.74	1914.85
411.95	1923.04
412.15	1945.57
412.36	1910.75
412.57	1910.75
412.77	1914.85
412.98	1935.33
413.19	1834.98
413.39	1892.32
413.60	1820.64
413.81	1857.51
414.01	1802.21
414.22	1882.08
414.43	1927.14
414.63	1812.45
414.84	1861.60
415.05	1853.41
415.25	1697.77
415.46	1908.71
415.67	1783.78
415.87	1816.55
416.08	1925.09
416.29	1773.54
416.49	1906.66
416.70	1773.54
416.91	1773.54
417.11	1808.36
417.32	1970.15
417.53	1898.47
417.73	1916.90
417.94	1880.04
418.15	1812.45
418.35	1802.21
418.56	1898.47
418.77	1980.39
418.97	1730.53
419.18	1712.10
419.38	1669.09
419.59	1847.27
419.80	1888.23
420.00	1820.64
420.21	1824.74
420.42	1892.32
420.62	1703.91
420.83	1800.16
421.04	1820.64
421.24	1851.36
421.45	1775.59
421.65	1875.94
421.86	1834.98
422.07	1857.51
422.27	1900.52
422.48	1898.47
422.69	1779.68
422.89	1916.90
423.10	1783.78
423.30	1714.15
423.51	1857.51
423.72	1789.92
423.92	1888.23
424.13	1732.58
424.33	1863.65
424.54	1884.13
424.75	1806.31
424.95	1945.57
425.16	1822.69
425.36	1873.89
425.57	1871.84
425.78	1804.26
425.98	1873.89
426.19	1736.68
426.39	1789.92
426.60	1820.64
426.81	1865.70
427.01	1800.16
427.22	1779.68
427.42	1695.72
427.63	1789.92
427.83	1808.36
428.04	1914.85
428.25	1896.42
428.45	1869.80
428.66	1900.52
428.86	1771.49
429.07	1785.83
429.28	1748.97
429.48	1753.06
429.69	1730.53
429.89	1824.74
430.10	1720.29
430.30	1886.18
430.51	1845.22
430.71	1757.16
430.92	1798.12
431.13	1771.49
431.33	1802.21
431.54	1814.50
431.74	1904.61
431.95	1959.91
432.15	1808.36
432.36	1845.22
432.56	1849.32
432.77	1937.38
432.98	1871.84
433.18	1851.36
433.39	1820.64
433.59	1845.22
433.80	1986.53
434.00	1902.56
434.21	1769.44
434.41	1763.30
434.62	2047.97
434.82	1751.01
435.03	1751.01
435.23	1890.28
435.44	1665.00
435.64	1722.34
435.85	1822.69
436.06	1951.71
436.26	1849.32
436.47	1843.17
436.67	1781.73
436.88	1804.26
437.08	1890.28
437.29	1904.61
437.49	1906.66
437.70	1970.15
437.90	1853.41
438.11	1994.72
438.31	1822.69
438.52	2025.44
438.72	1998.82
438.93	2041.82
439.13	1927.14
439.34	1951.71
439.54	1890.28
439.75	1929.19
439.95	1976.29
440.16	1880.04
440.36	1910.75
440.57	1861.60
440.77	1869.80
440.98	1808.36
441.18	1929.19
441.39	1820.64
441.59	1806.31
441.80	1900.52
442.00	1779.68
442.21	1853.41
442.41	1738.73
442.62	1902.56
442.82	1767.40
443.02	1773.54
443.23	1888.23
443.43	1800.16
443.64	2033.63
443.84	1783.78
444.05	1920.99
444.25	1822.69
444.46	1845.22
444.66	1914.85
444.87	1943.52
445.07	1787.88
445.28	1796.07
445.48	1964.00
445.69	1945.57
445.89	1988.58
446.09	1802.21
446.30	2113.50
446.50	2578.39
446.71	4175.81
446.91	5195.70
447.12	6025.12
447.32	6223.78
447.53	5646.25
447.73	4730.81
447.93	4112.32
448.14	3827.65
448.34	3622.86
448.55	3155.92
448.75	3164.11
448.96	3127.25
449.16	2854.87
449.36	2545.63
449.57	2213.85
449.77	2088.93
449.98	1935.33
450.18	1918.95
450.39	1972.19
450.59	1894.37
450.79	1871.84
451.00	1812.45
451.20	1978.34
451.41	1814.50
451.61	1904.61
451.81	1843.17
452.02	1744.87
452.22	1808.36
452.43	1796.07
452.63	1791.97
452.84	1800.16
453.04	1820.64
453.24	1857.51
453.45	1802.21
453.65	1791.97
453.86	1904.61
454.06	1847.27
454.26	1800.16
454.47	1781.73
454.67	1961.95
454.87	1882.08
455.08	1837.03
455.28	1884.13
455.49	1781.73
455.69	1832.93
455.89	1970.15
456.10	1935.33
456.30	1808.36
456.51	1892.32
456.71	1847.27
456.91	1853.41
457.12	1822.69
457.32	1853.41
457.52	1755.11
457.73	1959.91
457.93	1918.95
458.14	1830.88
458.34	1748.97
458.54	1912.80
458.75	1783.78
458.95	1902.56
459.15	1828.84
459.36	1830.88
459.56	1931.23
459.76	1982.43
459.97	1841.12
460.17	1841.12
460.37	1877.99
460.58	1794.02
460.78	1787.88
460.99	1796.07
461.19	1851.36
461.39	1810.40
461.60	1863.65
461.80	1820.64
462.00	1759.21
462.21	1863.65
462.41	1828.84
462.61	1814.50
462.82	1785.83
463.02	1808.36
463.22	1818.60
463.43	1920.99
463.63	1845.22
463.83	1892.32
464.04	1869.80
464.24	1830.88
464.44	1789.92
464.64	1869.80
464.85	1902.56
465.05	1892.32
465.25	1841.12
465.46	1808.36
465.66	1959.91
465.86	1808.36
466.07	1873.89
466.27	1877.99
466.47	1781.73
466.68	1722.34
466.88	1980.39
467.08	1871.84
467.29	1925.09
467.49	1830.88
467.69	1841.12
467.89	1875.94
468.10	1783.78
468.30	1859.56
468.50	1927.14
468.71	1908.71
468.91	1779.68
469.11	1970.15
469.31	1857.51
469.52	1843.17
469.72	1953.76
469.92	1949.67
470.13	1820.64
470.33	1785.83
470.53	1943.52
470.73	2297.82
470.94	2654.17
471.14	2844.63
471.34	3149.78
471.54	3084.24
471.75	2721.75
471.95	2492.38
472.15	2373.60
472.36	2346.97
472.56	2334.68
472.76	2256.86
472.96	2183.13
473.17	2170.85
473.37	2109.41
473.57	1943.52
473.77	1947.62
473.98	1832.93
474.18	1757.16
474.38	1992.67
474.58	1761.25
474.79	1810.40
474.99	1888.23
475.19	1910.75
475.39	1734.63
475.60	1949.67
475.80	1898.47
476.00	1888.23
476.20	1845.22
476.41	1777.64
476.61	1892.32
476.81	1877.99
477.01	1783.78
477.21	1994.72
477.42	1914.85
477.62	1781.73
477.82	1837.03
478.02	1822.69
478.23	1738.73
478.43	1791.97
478.63	1826.79
478.83	1875.94
479.03	1763.30
479.24	1931.23
479.44	2107.36
479.64	1777.64
479.84	1646.57
480.04	1697.77
480.25	1873.89
480.45	1802.21
480.65	1804.26
480.85	1920.99
481.06	1808.36
481.26	1853.41
481.46	1877.99
481.66	1818.60
481.86	1796.07
482.06	1933.28
482.27	1824.74
482.47	1761.25
482.67	1853.41
482.87	1736.68
483.07	1918.95
483.28	1822.69
483.48	1785.83
483.68	1857.51
483.88	1740.77
484.08	1671.14
484.29	1763.30
484.49	1824.74
484.69	1765.35
484.89	1841.12
485.09	1920.99
485.29	1857.51
485.50	1886.18
485.70	1832.93
485.90	1875.94
486.10	1849.32
486.30	1863.65
486.50	1853.41
486.71	1923.04
486.91	1923.04
487.11	1937.38
487.31	1789.92
487.51	1812.45
487.71	1705.96
487.91	1794.02
488.12	1738.73
488.32	1730.53
488.52	1822.69
488.72	1699.81
488.92	1834.98
489.12	1853.41
489.32	1873.89
489.53	1820.64
489.73	1781.73
489.93	1927.14
490.13	1796.07
490.33	1738.73
490.53	1730.53
490.73	1947.62
490.94	1769.44
491.14	1859.56
491.34	1867.75
491.54	2119.65
491.74	2887.64
491.94	3389.39
492.14	3614.66
492.34	3778.50
492.54	3409.87
492.75	2836.44
492.95	2715.61
493.15	2607.06
493.35	2482.14
493.55	2381.79
493.75	2293.72
493.95	2369.50
494.15	2127.84
494.35	1961.95
494.56	2015.20
494.76	1943.52
494.96	1923.04
495.16	1964.00
495.36	1871.84
495.56	1865.70
495.76	1900.52
495.96	1759.21
496.16	1728.49
496.36	1931.23
496.56	1865.70
496.77	1871.84
496.97	1828.84
497.17	1976.29
497.37	1740.77
497.57	1882.08
497.77	1859.56
497.97	1761.25
498.17	1779.68
498.37	1830.88
498.57	1828.84
498.77	1871.84
498.97	1875.94
499.17	1998.82
499.38	1873.89
499.58	1857.51
499.78	1908.71
499.98	1882.08
500.18	1857.51
500.38	1847.27
500.58	2007.01
500.78	2508.76
500.98	4734.90
501.18	6727.58
501.38	8437.63
501.58	9197.43
501.78	9115.51
501.98	7272.34
502.18	5986.21
502.38	5257.14
502.58	4698.04
502.78	4267.97
502.98	4014.02
503.18	4054.98
503.38	3725.26
503.59	3260.37
503.79	2975.70
503.99	2725.85
504.19	2488.28
504.39	2389.98
504.59	2428.89
504.79	2480.09
504.99	2428.89
505.19	2154.46
505.39	2179.04
505.59	2176.99
505.79	2064.35
505.99	1982.43
506.19	1906.66
506.39	2158.56
506.59	1914.85
506.79	1859.56
506.99	1892.32
507.19	1916.90
507.39	1869.80
507.59	1843.17
507.79	1837.03
507.99	1884.13
508.19	1791.97
508.39	1808.36
508.59	1931.23
508.79	1927.14
508.99	1937.38
509.19	1773.54
509.39	1857.51
509.59	1779.68
509.79	1757.16
509.99	1810.40
510.19	1857.51
510.39	1837.03
510.59	1839.08
510.79	1837.03
510.99	1757.16
511.19	1861.60
511.39	2004.96
511.59	1972.19
511.79	1888.23
511.99	1796.07
512.19	1918.95
512.38	1851.36
512.58	1785.83
512.78	1877.99
512.98	1931.23
513.18	1896.42
513.38	1785.83
513.58	1880.04
513.78	1824.74
513.98	1796.07
514.18	1877.99
514.38	1806.31
514.58	1892.32
514.78	1820.64
514.98	1787.88
515.18	1738.73
515.38	1769.44
515.58	1943.52
515.78	1742.82
515.98	1857.51
516.18	1880.04
516.38	1810.40
516.57	1855.46
516.77	1826.79
516.97	1892.32
517.17	1773.54
517.37	1679.33
517.57	1945.57
517.77	1769.44
517.97	1804.26
518.17	1957.86
518.37	1769.44
518.57	1826.79
518.77	1769.44
518.97	1927.14
519.16	1865.70
519.36	1892.32
519.56	1830.88
519.76	1845.22
519.96	1839.08
520.16	1941.47
520.36	1667.05
520.56	1966.05
520.76	1791.97
520.96	1769.44
521.16	1855.46
521.35	1908.71
521.55	1900.52
521.75	1832.93
521.95	1796.07
522.15	1830.88
522.35	1710.05
522.55	1787.88
522.75	1877.99
522.95	1837.03
523.14	1787.88
523.34	1865.70
523.54	1849.32
523.74	1837.03
523.94	1869.80
524.14	1810.40
524.34	1877.99
524.54	1916.90
524.73	1812.45
524.93	1839.08
525.13	1820.64
525.33	1757.16
525.53	2031.58
525.73	1914.85
525.93	1822.69
526.13	1855.46
526.32	1787.88
526.52	1910.75
526.72	1988.58
526.92	1796.07
527.12	1877.99
527.32	1710.05
527.52	1882.08
527.71	1767.40
527.91	1873.89
528.11	1796.07
528.31	1828.84
528.51	1730.53
528.71	1886.18
528.90	1861.60
529.10	1945.57
529.30	1990.63
529.50	1732.58
529.70	1834.98
529.90	1812.45
530.09	1849.32
530.29	1802.21
530.49	1812.45
530.69	1955.81
530.89	1834.98
531.09	1890.28
531.28	1818.60
531.48	1880.04
531.68	1898.47
531.88	1861.60
532.08	1855.46
532.28	1765.35
532.47	1923.04
532.67	1961.95
532.87	1906.66
533.07	1824.74
533.27	1927.14
533.46	1910.75
533.66	1906.66
533.86	1873.89
534.06	1816.55
534.26	1853.41
534.45	1849.32
534.65	1871.84
534.85	1886.18
535.05	1814.50
535.25	1865.70
535.44	1722.34
535.64	1918.95
535.84	1796.07
536.04	1861.60
536.24	1763.30
536.43	1794.02
536.63	1794.02
536.83	1796.07
537.03	1843.17
537.22	1761.25
537.42	1826.79
537.62	1853.41
537.82	1800.16
538.02	2000.87
538.21	1892.32
538.41	2000.87
538.61	1873.89
538.81	1824.74
539.00	1841.12
539.20	1751.01
539.40	1705.96
539.60	1894.37
539.79	1916.90
539.99	1789.92
540.19	1877.99
540.39	1824.74
540.58	1869.80
540.78	1902.56
540.98	1841.12
541.18	1941.47
541.37	1816.55
541.57	1877.99
541.77	1820.64
541.97	1773.54
542.16	1746.92
542.36	1894.37
542.56	1830.88
542.76	2033.63
542.95	1849.32
543.15	1828.84
543.35	1763.30
543.54	1800.16
543.74	1767.40
543.94	1861.60
544.14	1759.21
544.33	1886.18
544.53	1789.92
544.73	1791.97
544.93	1791.97
545.12	1837.03
545.32	1855.46
545.52	1871.84
545.71	1759.21
545.91	1806.31
546.11	1826.79
546.30	1787.88
546.50	1837.03
546.70	1923.04
546.90	1877.99
547.09	1724.39
547.29	1802.21
547.49	1880.04
547.68	1804.26
547.88	1642.47
548.08	1882.08
548.27	2342.88
548.47	1832.93
548.67	1794.02
548.87	1882.08
549.06	1748.97
549.26	1845.22
549.46	1839.08
549.65	1798.12
549.85	1882.08
550.05	1931.23
550.24	1775.59
550.44	1861.60
550.64	1738.73
550.83	1843.17
551.03	1984.48
551.23	1867.75
551.42	1898.47
551.62	1826.79
551.82	1849.32
552.01	1859.56
552.21	1939.43
552.41	1808.36
552.60	1925.09
552.80	1902.56
553.00	1859.56
553.19	1837.03
553.39	1968.10
553.59	1730.53
553.78	1957.86
553.98	1863.65
554.17	1841.12
554.37	1832.93
554.57	1847.27
554.76	1820.64
554.96	1751.01
555.16	1837.03
555.35	1791.97
555.55	1873.89
555.75	1785.83
555.94	1896.42
556.14	1779.68
556.33	1920.99
556.53	1828.84
556.73	1863.65
556.92	1906.66
557.12	1964.00
557.32	1951.71
557.51	1912.80
557.71	1892.32
557.90	1935.33
558.10	1900.52
558.30	1857.51
558.49	1861.60
558.69	1816.55
558.88	1822.69
559.08	1841.12
559.28	1767.40
559.47	1822.69
559.67	1875.94
559.86	2007.01
560.06	1869.80
560.26	1810.40
560.45	1877.99
560.65	1861.60
560.84	1918.95
561.04	1759.21
561.24	1849.32
561.43	1806.31
561.63	1933.28
561.82	1853.41
562.02	1847.27
562.22	1812.45
562.41	1753.06
562.61	1841.12
562.80	1824.74
563.00	1984.48
563.19	1929.19
563.39	1871.84
563.59	1806.31
563.78	1804.26
563.98	1720.29
564.17	1830.88
564.37	1732.58
564.56	1798.12
564.76	1740.77
564.96	1920.99
565.15	1830.88
565.35	2009.06
565.54	1837.03
565.74	1894.37
565.93	1984.48
566.13	1859.56
566.32	1884.13
566.52	1957.86
566.71	1808.36
566.91	2017.25
567.11	1834.98
567.30	1775.59
567.50	1943.52
567.69	1834.98
567.89	1861.60
568.08	1773.54
568.28	1804.26
568.47	1748.97
568.67	1851.36
568.86	1863.65
569.06	1851.36
569.25	1794.02
569.45	1669.09
569.64	1779.68
569.84	1820.64
570.04	1933.28
570.23	1806.31
570.43	1820.64
570.62	1800.16
570.82	1970.15
571.01	1726.44
571.21	1816.55
571.40	1783.78
571.60	1865.70
571.79	1912.80
571.99	1920.99
572.18	1787.88
572.38	1791.97
572.57	1753.06
572.77	1849.32
572.96	1982.43
573.16	1824.74
573.35	1832.93
573.55	1994.72
573.74	1841.12
573.94	1814.50
574.13	1818.60
574.33	1877.99
574.52	1859.56
574.71	1794.02
574.91	1904.61
575.10	1765.35
575.30	1851.36
575.49	1734.63
575.69	1839.08
575.88	1892.32
576.08	1937.38
576.27	1935.33
576.47	1837.03
576.66	2082.78
576.86	1978.34
577.05	1896.42
577.25	1896.42
577.44	1937.38
577.64	1884.13
577.83	1925.09
578.02	1894.37
578.22	1935.33
578.41	1959.91
578.61	1843.17
578.80	1802.21
579.00	1906.66
579.19	1863.65
579.39	1937.38
579.58	1880.04
579.77	1855.46
579.97	1923.04
580.16	1873.89
580.36	1964.00
580.55	1916.90
580.75	1894.37
580.94	1914.85
581.13	1939.43
581.33	1968.10
581.52	1898.47
581.72	2090.98
581.91	2037.73
582.11	1847.27
582.30	1875.94
582.49	1918.95
582.69	2060.26
582.88	1902.56
583.08	1880.04
583.27	1892.32
583.47	1857.51
583.66	1806.31
583.85	1830.88
584.05	1834.98
584.24	1931.23
584.44	1896.42
584.63	2033.63
584.82	1970.15
585.02	2000.87
585.21	2058.21
585.41	2062.30
585.60	1984.48
585.79	2123.74
585.99	2131.94
586.18	2119.65
586.37	2320.35
586.57	3522.51
586.76	10803.04
586.96	28710.47
587.15	43312.49
587.34	53339.35
587.54	58971.26
587.73	56396.96
587.93	40271.26
588.12	29922.87
588.31	24108.69
588.51	20524.74
588.70	18558.69
588.89	17286.90
589.09	15658.77
589.28	13563.70
589.47	11237.20
589.67	9043.83
589.86	6885.27
590.06	5101.49
590.25	4001.73
590.44	3135.44
590.64	2594.78
590.83	2349.02
591.02	2193.37
591.22	2045.92
591.41	2029.54
591.60	1900.52
591.80	2009.06
591.99	1886.18
592.18	1904.61
592.38	1927.14
592.57	1861.60
592.76	1910.75
592.96	1841.12
593.15	1855.46
593.34	1968.10
593.54	1851.36
593.73	1941.47
593.92	1902.56
594.12	1964.00
594.31	1904.61
594.50	1992.67
594.70	1925.09
594.89	1998.82
595.08	1851.36
595.28	1937.38
595.47	2103.26
595.66	1976.29
595.86	1775.59
596.05	1877.99
596.24	1859.56
596.43	1845.22
596.63	1949.67
596.82	1871.84
597.01	1925.09
597.21	2070.50
597.40	1900.52
597.59	1855.46
597.79	1888.23
597.98	1841.12
598.17	1904.61
598.36	1865.70
598.56	1925.09
598.75	1837.03
598.94	1873.89
599.14	1849.32
599.33	1810.40
599.52	1910.75
599.71	1978.34
599.91	1961.95
600.10	1837.03
600.29	1802.21
600.48	1841.12
600.68	1892.32
600.87	1902.56
601.06	1851.36
601.26	1808.36
601.45	1826.79
601.64	1812.45
601.83	2004.96
602.03	1824.74
602.22	1759.21
602.41	1875.94
602.60	2039.78
602.80	2027.49
602.99	1865.70
603.18	1867.75
603.37	1920.99
603.57	1929.19
603.76	1890.28
603.95	1888.23
604.14	1898.47
604.34	1810.40
604.53	1841.12
604.72	1884.13
604.91	1873.89
605.10	1886.18
605.30	1773.54
605.49	1867.75
605.68	1910.75
605.87	1826.79
606.07	1796.07
606.26	1865.70
606.45	1904.61
606.64	1906.66
606.84	1843.17
607.03	1925.09
607.22	1972.19
607.41	1888.23
607.60	1828.84
607.80	1951.71
607.99	1845.22
608.18	1918.95
608.37	1796.07
608.56	1832.93
608.76	1992.67
608.95	2021.35
609.14	1943.52
609.33	2013.15
609.52	1990.63
609.72	1910.75
609.91	2027.49
610.10	1933.28
610.29	1859.56
610.48	1902.56
610.68	1906.66
610.87	1847.27
611.06	1937.38
611.25	1857.51
611.44	1947.62
611.63	1857.51
611.83	1937.38
612.02	1806.31
612.21	1945.57
612.40	1769.44
612.59	1736.68
612.79	1728.49
612.98	1767.40
613.17	1843.17
613.36	1853.41
613.55	1966.05
613.74	1884.13
613.93	2090.98
614.13	2090.98
614.32	2082.78
614.51	2093.02
614.70	1865.70
614.89	1931.23
615.08	1961.95
615.28	2263.01
615.47	1763.30
615.66	1912.80
615.85	1912.80
616.04	2002.91
616.23	1914.85
616.42	1834.98
616.62	1847.27
616.81	1855.46
617.00	1863.65
617.19	1925.09
617.38	1843.17
617.57	1828.84
617.76	1871.84
617.95	2004.96
618.15	1818.60
618.34	1935.33
618.53	1759.21
618.72	1900.52
618.91	1980.39
619.10	1970.15
619.29	1869.80
619.48	1808.36
619.68	1777.64
619.87	1843.17
620.06	1738.73
620.25	1927.14
620.44	1796.07
620.63	1830.88
620.82	1785.83
621.01	1853.41
621.20	1832.93
621.39	1877.99
621.59	1877.99
621.78	1906.66
621.97	1882.08
622.16	1918.95
622.35	1834.98
622.54	1863.65
622.73	1964.00
622.92	1742.82
623.11	1951.71
623.30	1783.78
623.49	1886.18
623.68	1761.25
623.88	1877.99
624.07	1820.64
624.26	1818.60
624.45	1847.27
624.64	1767.40
624.83	1863.65
625.02	1890.28
625.21	1837.03
625.40	1877.99
625.59	1925.09
625.78	1880.04
625.97	2009.06
626.16	1916.90
626.35	1996.77
626.54	1914.85
626.74	2019.30
626.93	1859.56
627.12	1865.70
627.31	1937.38
627.50	1935.33
627.69	1884.13
627.88	1787.88
628.07	1888.23
628.26	1746.92
628.45	1730.53
628.64	1812.45
628.83	1869.80
629.02	1863.65
629.21	1863.65
629.40	1855.46
629.59	1820.64
629.78	1781.73
629.97	1814.50
630.16	1894.37
630.35	1880.04
630.54	1839.08
630.73	1816.55
630.92	1943.52
631.11	1763.30
631.30	1841.12
631.49	1931.23
631.68	1816.55
631.87	1798.12
632.06	1753.06
632.25	1982.43
632.44	1859.56
632.63	1865.70
632.82	1894.37
633.01	1908.71
633.20	1937.38
633.39	1880.04
633.58	1804.26
633.77	1888.23
633.96	1929.19
634.15	1880.04
634.34	1904.61
634.53	1886.18
634.72	1837.03
634.91	1748.97
635.10	1845.22
635.29	1947.62
635.48	1832.93
635.67	1763.30
635.86	1802.21
636.05	1882.08
636.24	1861.60
636.43	1826.79
636.62	1855.46
636.81	1671.14
637.00	1834.98
637.19	1861.60
637.38	1890.28
637.57	1896.42
637.76	1837.03
637.95	1947.62
638.14	1937.38
638.33	1898.47
638.52	1955.81
638.71	1832.93
638.89	1832.93
639.08	2090.98
639.27	1941.47
639.46	2113.50
639.65	2392.03
639.84	2426.84
640.03	2609.11
640.22	2457.56
640.41	2637.78
640.60	2099.17
640.79	2162.66
640.98	2015.20
641.17	2084.83
641.36	1968.10
641.55	2058.21
641.74	1931.23
641.92	1853.41
642.11	1855.46
642.30	1871.84
642.49	1802.21
642.68	1853.41
642.87	1906.66
643.06	1929.19
643.25	1826.79
643.44	1712.10
643.63	1796.07
643.82	1853.41
644.00	1812.45
644.19	1847.27
644.38	1751.01
644.57	1863.65
644.76	1875.94
644.95	1720.29
645.14	1867.75
645.33	1816.55
645.52	1863.65
645.71	1732.58
645.89	1726.44
646.08	1871.84
646.27	1789.92
646.46	1927.14
646.65	1740.77
646.84	1808.36
647.03	1714.15
647.22	1884.13
647.40	1814.50
647.59	1789.92
647.78	1701.86
647.97	1783.78
648.16	1824.74
648.35	1923.04
648.54	1933.28
648.73	1812.45
648.91	1867.75
649.10	1943.52
649.29	1810.40
649.48	1865.70
649.67	1849.32
649.86	1808.36
650.05	1875.94
650.23	1978.34
650.42	1925.09
650.61	2101.22
650.80	2060.26
650.99	2080.74
651.18	1906.66
651.36	1976.29
651.55	1798.12
651.74	1923.04
651.93	1822.69
652.12	1818.60
652.31	1863.65
652.49	1820.64
652.68	1810.40
652.87	1996.77
653.06	1853.41
653.25	2027.49
653.44	1794.02
653.62	1980.39
653.81	1810.40
654.00	1802.21
654.19	1914.85
654.38	1982.43
654.56	1841.12
654.75	1789.92
654.94	1841.12
655.13	1871.84
655.32	1820.64
655.51	1853.41
655.69	1892.32
655.88	1828.84
656.07	1734.63
656.26	1800.16
656.45	1767.40
656.63	1839.08
656.82	1873.89
657.01	1853.41
657.20	1699.81
657.38	1871.84
657.57	1859.56
657.76	1773.54
657.95	1855.46
658.14	1755.11
658.32	1855.46
658.51	1765.35
658.70	1777.64
658.89	1845.22
659.08	1869.80
659.26	1886.18
659.45	1841.12
659.64	1851.36
659.83	1867.75
660.01	2041.82
660.20	1894.37
660.39	1943.52
660.58	1814.50
660.76	1896.42
660.95	1787.88
661.14	1892.32
661.33	1798.12
661.51	1775.59
661.70	1837.03
661.89	1828.84
662.08	1818.60
662.26	1753.06
662.45	1802.21
662.64	1906.66
662.83	1898.47
663.01	1740.77
663.20	1845.22
663.39	1923.04
663.58	1787.88
663.76	1865.70
663.95	1898.47
664.14	1851.36
664.32	1814.50
664.51	1847.27
664.70	1675.24
664.89	1828.84
665.07	1726.44
665.26	1826.79
665.45	1746.92
665.64	1865.70
665.82	1804.26
666.01	1861.60
666.20	1822.69
666.38	1955.81
666.57	1976.29
666.76	2559.96
666.95	5595.05
667.13	13203.25
667.32	19762.90
667.51	23604.89
667.69	25978.48
667.88	25779.83
668.07	19179.23
668.25	14370.60
668.44	11820.88
668.63	9926.50
668.81	8834.94
669.00	7876.49
669.19	6975.38
669.38	6135.71
669.56	5238.70
669.75	4456.38
669.94	3651.53
670.12	2979.79
670.31	2609.11
670.50	2410.46
670.68	2144.22
670.87	1998.82
671.06	2035.68
671.24	1892.32
671.43	2070.50
671.62	1914.85
671.80	1886.18
671.99	1929.19
672.18	1927.14
672.36	1955.81
672.55	1892.32
672.74	1853.41
672.92	1875.94
673.11	1923.04
673.29	1849.32
673.48	1853.41
673.67	1910.75
673.85	1855.46
674.04	1736.68
674.23	1832.93
674.41	1935.33
674.60	1791.97
674.79	1718.25
674.97	1834.98
675.16	1914.85
675.34	1882.08
675.53	1777.64
675.72	1886.18
675.90	1988.58
676.09	1851.36
676.28	1841.12
676.46	1716.20
676.65	1900.52
676.83	1710.05
677.02	1744.87
677.21	1779.68
677.39	1798.12
677.58	1806.31
677.77	1775.59
677.95	1703.91
678.14	1843.17
678.32	1843.17
678.51	1796.07
678.70	1939.43
678.88	1732.58
679.07	1875.94
679.25	1861.60
679.44	1892.32
679.63	1775.59
679.81	1906.66
680.00	1892.32
680.18	1853.41
680.37	1857.51
680.55	1867.75
680.74	1726.44
680.93	1656.81
681.11	1814.50
681.30	1767.40
681.48	1839.08
681.67	1832.93
681.85	1816.55
682.04	1820.64
682.23	1855.46
682.41	1777.64
682.60	1855.46
682.78	1812.45
682.97	1779.68
683.15	1869.80
683.34	1837.03
683.53	1976.29
683.71	1810.40
683.90	1929.19
684.08	1863.65
684.27	1767.40
684.45	1812.45
684.64	1949.67
684.82	1695.72
685.01	1896.42
685.19	1796.07
685.38	1904.61
685.57	1804.26
685.75	1798.12
685.94	1771.49
686.12	1808.36
686.31	1808.36
686.49	1859.56
686.68	1693.67
686.86	1826.79
687.05	1810.40
687.23	1888.23
687.42	1808.36
687.60	1777.64
687.79	1927.14
687.97	1877.99
688.16	1890.28
688.34	1920.99
688.53	1716.20
688.71	1890.28
688.90	1910.75
689.08	1841.12
689.27	1703.91
689.45	1896.42
689.64	1841.12
689.82	1814.50
690.01	1845.22
690.19	1880.04
690.38	1849.32
690.56	1847.27
690.75	1808.36
690.93	1755.11
691.12	1746.92
691.30	1773.54
691.49	1791.97
691.67	1771.49
691.86	1904.61
692.04	1783.78
692.23	1839.08
692.41	1855.46
692.60	2011.11
692.78	1941.47
692.97	1871.84
693.15	1929.19
693.34	2007.01
693.52	1923.04
693.71	1865.70
693.89	1843.17
694.08	1767.40
694.26	1896.42
694.44	1912.80
694.63	1902.56
694.81	1742.82
695.00	1882.08
695.18	1906.66
695.37	2033.63
695.55	1791.97
695.74	1884.13
695.92	1734.63
696.10	1906.66
696.29	1755.11
696.47	1810.40
696.66	1712.10
696.84	1769.44
697.03	1765.35
697.21	1955.81
697.40	2398.17
697.58	1871.84
697.76	1814.50
697.95	1804.26
698.13	1763.30
698.32	1814.50
698.50	1820.64
698.68	1861.60
698.87	1855.46
699.05	1937.38
699.24	1845.22
699.42	1818.60
699.61	1828.84
699.79	1886.18
699.97	1773.54
700.16	1787.88
700.34	1812.45
700.53	1808.36
700.71	1925.09
700.89	1882.08
701.08	1839.08
701.26	1865.70
701.45	2306.01
701.63	1837.03
701.81	1826.79
702.00	1767.40
702.18	1800.16
702.37	1837.03
702.55	2019.30
702.73	2041.82
702.92	2025.44
703.10	2070.50
703.28	2070.50
703.47	1920.99
703.65	1992.67
703.84	2084.83
704.02	1855.46
704.20	1941.47
704.39	1806.31
704.57	1955.81
704.75	1902.56
704.94	1916.90
705.12	1890.28
705.30	2027.49
705.49	3004.37
705.67	7231.38
705.86	15882.00
706.04	21448.38
706.22	24616.58
706.41	26693.22
706.59	25263.74
706.77	18468.58
706.96	14137.13
707.14	12298.05
707.32	10506.08
707.51	9351.03
707.69	7919.50
707.87	6657.95
708.06	5345.20
708.24	4149.18
708.42	3246.03
708.61	2811.86
708.79	2246.62
708.97	2140.13
709.16	2002.91
709.34	1961.95
709.52	1890.28
709.71	1847.27
709.89	1931.23
710.07	1832.93
710.26	1794.02
710.44	1882.08
710.62	1982.43
710.80	1785.83
710.99	1843.17
711.17	1849.32
711.35	1771.49
711.54	1806.31
711.72	1957.86
711.90	1904.61
712.09	1834.98
712.27	1783.78
712.45	1882.08
712.63	1818.60
712.82	1826.79
713.00	1871.84
713.18	1880.04
713.37	1920.99
713.55	1744.87
713.73	1859.56
713.91	1976.29
714.10	1818.60
714.28	1808.36
714.46	1863.65
714.65	1896.42
714.83	1902.56
715.01	1877.99
715.19	1873.89
715.38	1755.11
715.56	1820.64
715.74	1763.30
715.92	1714.15
716.11	1943.52
716.29	1712.10
716.47	1771.49
716.65	1824.74
716.84	1755.11
717.02	1918.95
717.20	1744.87
717.38	1841.12
717.57	1826.79
717.75	1882.08
717.93	1732.58
718.11	1804.26
718.30	1753.06
718.48	1730.53
718.66	1892.32
718.84	1923.04
719.03	1755.11
719.21	1769.44
719.39	1910.75
719.57	1914.85
719.75	1880.04
719.94	1789.92
720.12	1789.92
720.30	1771.49
720.48	1894.37
720.67	1783.78
720.85	1708.01
721.03	1740.77
721.21	1808.36
721.39	1849.32
721.58	1812.45
721.76	1802.21
721.94	1789.92
722.12	1841.12
722.30	1937.38
722.49	1765.35
722.67	1845.22
722.85	1816.55
723.03	1757.16
723.21	1759.21
723.40	1851.36
723.58	1898.47
723.76	1902.56
723.94	1935.33
724.12	1861.60
724.30	1970.15
724.49	1925.09
724.67	1787.88
724.85	1968.10
725.03	1808.36
725.21	1900.52
725.40	1943.52
725.58	1855.46
725.76	1931.23
725.94	1886.18
726.12	1816.55
726.30	1839.08
726.49	1796.07
726.67	1794.02
726.85	1869.80
727.03	1949.67
727.21	2598.87
727.39	4054.98
727.57	5435.31
727.76	6084.52
727.94	6817.69
728.12	6639.51
728.30	5478.32
728.48	4560.83
728.66	4145.09
728.84	3637.19
729.03	3319.76
729.21	2906.07
729.39	2525.15
729.57	2166.75
729.75	2070.50
729.93	2025.44
730.11	1884.13
730.30	1824.74
730.48	1865.70
730.66	1988.58
730.84	1865.70
731.02	1837.03
731.20	1820.64
731.38	1857.51
731.56	1738.73
731.74	1751.01
731.93	1781.73
732.11	1845.22
732.29	1783.78
732.47	1845.22
732.65	1820.64
732.83	1904.61
733.01	1816.55
733.19	1810.40
733.37	1806.31
733.56	1826.79
733.74	1769.44
733.92	1880.04
734.10	1818.60
734.28	1832.93
734.46	1644.52
734.64	1714.15
734.82	1849.32
735.00	1869.80
735.18	1755.11
735.36	1853.41
735.54	1837.03
735.73	1822.69
735.91	1822.69
736.09	1791.97
736.27	1824.74
736.45	1845.22
736.63	1638.38
736.81	1783.78
736.99	1871.84
737.17	1841.12
737.35	1703.91
737.53	1824.74
737.71	1771.49
737.89	1978.34
738.07	1753.06
738.25	1787.88
738.43	1744.87
738.61	1720.29
738.80	1812.45
738.98	1724.39
739.16	1851.36
739.34	1751.01
739.52	1882.08
739.70	1880.04
739.88	1837.03
740.06	1880.04
740.24	1681.38
740.42	1892.32
740.60	1718.25
740.78	1806.31
740.96	1728.49
741.14	1763.30
741.32	1812.45
741.50	1732.58
741.68	1951.71
741.86	1902.56
742.04	1775.59
742.22	1742.82
742.40	1855.46
742.58	1869.80
742.76	1751.01
742.94	1900.52
743.12	1753.06
743.30	1877.99
743.48	1837.03
743.66	1853.41
743.84	1886.18
744.02	1861.60
744.20	1867.75
744.38	1726.44
744.56	1738.73
744.74	1953.76
744.92	1804.26
745.10	1918.95
745.28	1912.80
745.46	1943.52
745.64	1869.80
745.82	1961.95
746.00	1884.13
746.18	1869.80
746.36	1791.97
746.54	1837.03
746.72	1812.45
746.90	1769.44
747.08	1884.13
747.26	1816.55
747.44	1855.46
747.62	1787.88
747.80	1796.07
747.98	1927.14
748.15	1859.56
748.33	1869.80
748.51	1820.64
748.69	1861.60
748.87	1824.74
749.05	1812.45
749.23	1796.07
749.41	1847.27
749.59	1822.69
749.77	1867.75
749.95	1779.68
750.13	1806.31
750.31	1910.75
750.49	1783.78
750.67	1906.66
750.85	1877.99
751.03	1849.32
751.20	1961.95
751.38	1839.08
751.56	1744.87
751.74	1865.70
751.92	1826.79
752.10	1685.48
752.28	1955.81
752.46	1771.49
752.64	1824.74
752.82	1763.30
753.00	1834.98
753.18	1794.02
753.35	1759.21
753.53	1763.30
753.71	1771.49
753.89	1894.37
754.07	1826.79
754.25	1818.60
754.43	1863.65
754.61	1763.30
754.79	1828.84
754.97	1800.16
755.14	1871.84
755.32	1710.05
755.50	1775.59
755.68	1859.56
755.86	1761.25
756.04	1763.30
756.22	1716.20
756.40	1839.08
756.57	2009.06
756.75	1808.36
756.93	1918.95
757.11	1861.60
757.29	1736.68
757.47	1714.15
757.65	1689.57
757.82	1708.01
758.00	1746.92
758.18	1773.54
758.36	1832.93
758.54	1935.33
758.72	1654.76
758.90	1818.60
759.07	1826.79
759.25	1675.24
759.43	1855.46
759.61	1748.97
759.79	2369.50
759.97	1828.84
760.15	1726.44
760.32	1779.68
760.50	1791.97
760.68	1970.15
760.86	1765.35
761.04	1908.71
761.22	1816.55
761.39	1783.78
761.57	1865.70
761.75	1767.40
761.93	1902.56
762.11	1748.97
762.28	1748.97
762.46	1808.36
762.64	1875.94
762.82	1732.58
763.00	1800.16
763.18	1906.66
763.35	1730.53
763.53	1877.99
763.71	1808.36
763.89	1804.26
764.07	1849.32
764.24	1804.26
764.42	1847.27
764.60	1849.32
764.78	1808.36
764.96	1877.99
765.13	1935.33
765.31	1808.36
765.49	1886.18
765.67	1718.25
765.84	1767.40
766.02	1748.97
766.20	1734.63
766.38	1787.88
766.56	1865.70
766.73	1896.42
766.91	1798.12
767.09	1814.50
767.27	1818.60
767.44	1791.97
767.62	1884.13
767.80	1787.88
767.98	1822.69
768.15	1785.83
768.33	1906.66
768.51	1791.97
768.69	1832.93
768.87	1863.65
769.04	1837.03
769.22	2009.06
769.40	1900.52
769.58	1982.43
769.75	1853.41
769.93	1894.37
770.11	1789.92
770.28	1751.01
770.46	1853.41
770.64	1912.80
770.82	1781.73
770.99	1767.40
771.17	1867.75
771.35	1785.83
771.53	1832.93
771.70	1779.68
771.88	1814.50
772.06	1849.32
772.23	1732.58
772.41	1767.40
772.59	1828.84
772.77	1738.73
772.94	1810.40
773.12	1794.02
773.30	1787.88
773.47	1724.39
773.65	1783.78
773.83	1935.33
774.01	1796.07
774.18	1742.82
774.36	1779.68
774.54	1773.54
774.71	1806.31
774.89	1738.73
775.07	1746.92
775.24	1882.08
775.42	1818.60
775.60	1894.37
775.78	1820.64
775.95	1740.77
776.13	1769.44
776.31	1662.95
776.48	1822.69
776.66	1841.12
776.84	1751.01
777.01	1861.60
777.19	1834.98
777.37	1810.40
777.54	1855.46
777.72	1841.12
777.90	1820.64
778.07	1759.21
778.25	1982.43
778.43	1847.27
778.60	1783.78
778.78	1894.37
778.96	1865.70
779.13	1751.01
779.31	1886.18
779.49	1783.78
779.66	1865.70
779.84	1804.26
780.01	1751.01
780.19	1751.01
780.37	1849.32
780.54	1798.12
780.72	1755.11
780.90	1732.58
781.07	1791.97
781.25	1730.53
781.43	1974.24
781.60	1820.64
781.78	1843.17
781.95	1812.45
782.13	1773.54
782.31	1859.56
782.48	1679.33
782.66	1755.11
782.83	1861.60
783.01	1888.23
783.19	1777.64
783.36	1826.79
783.54	1767.40
783.72	1902.56
783.89	1736.68
784.07	1830.88
784.24	1861.60
784.42	1931.23
784.60	1832.93
784.77	1865.70
784.95	1662.95
785.12	1779.68
785.30	1716.20
785.47	1742.82
785.65	1746.92
785.83	1759.21
786.00	1853.41
786.18	1800.16
786.35	1720.29
786.53	1800.16
786.71	1933.28
786.88	1841.12
787.06	1830.88
787.23	1789.92
787.41	1769.44
787.58	1781.73
787.76	1775.59
787.94	1873.89
788.11	1804.26
788.29	1746.92
788.46	1771.49
788.64	1683.43
788.81	1761.25
788.99	1761.25
789.16	1714.15
789.34	1806.31
789.52	1814.50
789.69	1859.56
789.87	1667.05
790.04	1853.41
790.22	1804.26
790.39	1925.09
790.57	1751.01
790.74	1746.92
790.92	1855.46
791.09	1800.16
791.27	1875.94
791.44	1863.65
791.62	1712.10
791.79	1851.36
791.97	1802.21
792.15	2007.01
792.32	1779.68
792.50	1861.60
792.67	1892.32
792.85	1832.93
793.02	1824.74
793.20	1744.87
793.37	1759.21
793.55	1822.69
793.72	1732.58
793.90	1796.07
794.07	1683.43
794.25	1755.11
794.42	1841.12
794.60	1853.41
794.77	1771.49
794.95	1834.98
795.12	1888.23
795.30	1830.88
795.47	1746.92
795.65	1988.58
795.82	1869.80
796.00	1771.49
796.17	1789.92
796.34	1746.92
796.52	1867.75
796.69	1882.08
796.87	1888.23
797.04	1746.92
797.22	1798.12
797.39	1787.88
797.57	1841.12
797.74	1824.74
797.92	1804.26
798.09	1791.97
798.27	1857.51
798.44	1773.54
798.62	1757.16
798.79	1814.50
798.96	1796.07
799.14	1853.41
799.31	1972.19
799.49	1726.44
799.66	1798.12
799.84	1892.32
800.01	1785.83
800.19	1751.01
800.36	1689.57
800.53	1890.28
800.71	1787.88
800.88	1968.10
801.06	1673.19
801.23	1828.84
801.41	1875.94
801.58	1753.06
801.75	1808.36
801.93	1937.38
802.10	1830.88
802.28	1755.11
802.45	1828.84
802.63	1902.56
802.80	1884.13
802.97	1775.59
803.15	1787.88
803.32	1861.60
803.50	1679.33
803.67	1761.25
803.84	1775.59
804.02	1757.16
804.19	1714.15
804.37	1720.29
804.54	1669.09
804.71	1837.03
804.89	1767.40
805.06	1816.55
805.24	1712.10
805.41	1783.78
805.58	1810.40
805.76	1984.48
805.93	1802.21
806.10	1918.95
806.28	1906.66
806.45	1787.88
806.63	1775.59
806.80	1832.93
806.97	1855.46
807.15	1789.92
807.32	1808.36
807.49	1718.25
807.67	1714.15
807.84	1742.82
808.01	1744.87
808.19	1949.67
808.36	1968.10
808.54	1787.88
808.71	1810.40
808.88	1794.02
809.06	1927.14
809.23	1861.60
809.40	1855.46
809.58	1906.66
809.75	1824.74
809.92	1720.29
810.10	1955.81
810.27	1843.17
810.44	1884.13
810.62	1843.17
810.79	1851.36
810.96	1757.16
811.14	1720.29
811.31	1757.16
811.48	1851.36
811.66	1810.40
811.83	1953.76
812.00	1906.66
812.18	1748.97
812.35	1937.38
812.52	1775.59
812.69	1734.63
812.87	1814.50
813.04	1814.50
813.21	1796.07
813.39	1748.97
813.56	1759.21
813.73	1888.23
813.91	1740.77
814.08	1818.60
814.25	1845.22
814.42	1800.16
814.60	1834.98
814.77	1767.40
814.94	1773.54
815.12	1769.44
815.29	1845.22
815.46	1787.88
815.63	1849.32
815.81	1816.55
815.98	1775.59
816.15	1816.55
816.33	1824.74
816.50	1832.93
816.67	1796.07
816.84	1810.40
817.02	1687.53
817.19	1746.92
817.36	1853.41
817.53	1851.36
817.71	1808.36
817.88	1871.84
818.05	1834.98
818.22	1849.32
818.40	1945.57
818.57	1781.73
818.74	1816.55
818.91	1687.53
819.09	1880.04
819.26	1894.37
819.43	1744.87
819.60	1681.38
819.78	1806.31
819.95	1855.46
820.12	1810.40
820.29	1937.38
820.47	1900.52
820.64	1771.49
820.81	1705.96
820.98	1806.31
821.15	1765.35
821.33	1804.26
821.50	1730.53
821.67	1837.03
821.84	1834.98
822.02	1847.27
822.19	1890.28
822.36	1787.88
822.53	1789.92
822.70	1769.44
822.88	1748.97
823.05	1847.27
823.22	1826.79
823.39	1779.68
823.56	1822.69
823.74	1880.04
823.91	1810.40
824.08	1746.92
824.25	1742.82
824.42	1873.89
824.60	1728.49
824.77	1906.66
824.94	1751.01
825.11	1837.03
825.28	1732.58
825.45	1896.42
825.63	1875.94
825.80	1734.63
825.97	1826.79
826.14	1751.01
826.31	1675.24
826.48	1808.36
826.66	1701.86
826.83	1796.07
827.00	1804.26
827.17	1789.92
827.34	1771.49
827.51	1705.96
827.69	1814.50
827.86	1695.72
828.03	1826.79
828.20	1839.08
828.37	1791.97
828.54	1830.88
828.71	1732.58
828.89	1900.52
829.06	1796.07
829.23	1867.75
829.40	1751.01
829.57	1765.35
829.74	1845.22
829.91	1794.02
830.09	1759.21
830.26	1828.84
830.43	1884.13
830.60	1753.06
830.77	1814.50
830.94	1910.75
831.11	1867.75
831.28	1798.12
831.46	1837.03
831.63	1687.53
831.80	1849.32
831.97	1843.17
832.14	1765.35
832.31	1791.97
832.48	1820.64
832.65	1890.28
832.82	1775.59
832.99	1798.12
833.17	1806.31
833.34	1925.09
833.51	1892.32
833.68	1652.71
833.85	1869.80
834.02	1791.97
834.19	1738.73
834.36	1691.62
834.53	1865.70
834.70	1886.18
834.87	1767.40
835.04	1798.12
835.22	1701.86
835.39	1757.16
835.56	1759.21
835.73	1800.16
835.90	1826.79
836.07	1724.39
836.24	1880.04
836.41	1726.44
836.58	1812.45
836.75	1777.64
836.92	1920.99
837.09	1744.87
837.26	1847.27
837.43	1843.17
837.60	1886.18
837.77	1882.08
837.94	1888.23
838.12	1912.80
838.29	1808.36
838.46	1708.01
838.63	1771.49
838.80	1865.70
838.97	1861.60
839.14	1830.88
839.31	1748.97
839.48	1865.70
839.65	1877.99
839.82	1820.64
839.99	1849.32
840.16	1765.35
840.33	1779.68
840.50	1832.93
840.67	1753.06
840.84	1665.00
841.01	1808.36
841.18	1742.82
841.35	1714.15
841.52	1861.60
841.69	1968.10
841.86	1865.70
842.03	1804.26
842.20	1847.27
842.37	1834.98
842.54	1757.16
842.71	1804.26
842.88	1781.73
843.05	1849.32
843.22	1753.06
843.39	1910.75
843.56	1785.83
843.73	1800.16
843.90	1796.07
844.07	1861.60
844.24	1892.32
844.41	1863.65
844.58	1886.18
844.75	1871.84
844.92	1787.88
845.09	1787.88
845.26	1798.12
845.43	1810.40
845.60	1736.68
845.77	1898.47
845.94	1789.92
846.10	1882.08
846.27	1769.44
846.44	1794.02
846.61	1701.86
846.78	1808.36
846.95	1900.52
847.12	1796.07
847.29	1759.21
847.46	1724.39
847.63	1894.37
847.80	1748.97
847.97	1814.50
848.14	1976.29
848.31	1783.78
848.48	1744.87
848.65	1890.28
848.82	1796.07
848.98	1953.76
849.15	1841.12
849.32	1875.94
849.49	1920.99
849.66	1837.03
849.83	1851.36
850.00	1843.17
850.17	1798.12
850.34	1816.55
850.51	1744.87
850.68	1794.02
850.85	1900.52
851.01	1898.47
851.18	1822.69
851.35	1841.12
851.52	1837.03
851.69	1873.89
851.86	1744.87
852.03	1783.78
852.20	1929.19
852.37	1800.16
852.53	1693.67
852.70	1763.30
852.87	1880.04
853.04	1865.70
853.21	1820.64
853.38	1902.56
853.55	1947.62
853.72	1898.47
853.89	1814.50
854.05	1691.62
854.22	1875.94
854.39	1810.40
854.56	1849.32
854.73	1839.08
854.90	1742.82
855.07	1773.54
855.23	1808.36
855.40	1810.40
855.57	1712.10
855.74	1689.57
855.91	1968.10
856.08	1779.68
856.25	1665.00
856.41	1763.30
856.58	1843.17
856.75	1849.32
856.92	1740.77
857.09	1898.47
857.26	1742.82
857.42	1808.36
857.59	1869.80
857.76	1830.88
857.93	1841.12
858.10	1806.31
858.27	1742.82
858.43	1808.36
858.60	1722.34
858.77	1683.43
858.94	1738.73
859.11	1810.40
859.27	1771.49
859.44	1787.88
859.61	1865.70
859.78	1865.70
859.95	1830.88
860.12	1816.55
860.28	1994.72
860.45	1931.23
860.62	1775.59
860.79	1859.56
860.95	1796.07
861.12	1718.25
861.29	1755.11
861.46	1705.96
861.63	1816.55
861.79	1851.36
861.96	1695.72
862.13	1736.68
862.30	1906.66
862.47	1732.58
862.63	1730.53
862.80	1853.41
862.97	1886.18
863.14	1822.69
863.30	1853.41
863.47	1718.25
863.64	1923.04
863.81	1865.70
863.97	1841.12
864.14	1804.26
864.31	1828.84
864.48	1783.78
864.65	1787.88
864.81	1877.99
864.98	1861.60
865.15	1806.31
865.32	1837.03
865.48	1886.18
865.65	1925.09
865.82	1726.44
865.98	1849.32
866.15	1892.32
866.32	1753.06
866.49	1837.03
866.65	1834.98
866.82	1779.68
866.99	1798.12
867.16	1763.30
867.32	1843.17
867.49	1761.25
867.66	1804.26
867.83	1765.35
867.99	1691.62
868.16	1800.16
868.33	1771.49
868.49	1824.74
868.66	1783.78
868.83	1869.80
868.99	1789.92
869.16	1730.53
869.33	1871.84
869.50	1867.75
869.66	1748.97
869.83	1855.46
870.00	1732.58
870.16	1789.92
870.33	1791.97
870.50	1832.93
870.66	1863.65
870.83	1953.76
871.00	1828.84
871.17	1837.03
871.33	1820.64
871.50	1871.84
871.67	1775.59
871.83	1746.92
872.00	1869.80
872.17	1826.79
872.33	1933.28
872.50	1839.08
872.67	1806.31
872.83	1775.59
873.00	1824.74
873.17	1853.41
873.33	1853.41
873.50	1861.60
873.67	1757.16
873.83	1689.57
874.00	1804.26
874.16	1861.60
874.33	1888.23
874.50	1703.91
874.66	1867.75
874.83	1904.61
875.00	1918.95
875.16	1890.28
875.33	1841.12
875.50	1671.14
875.66	1777.64
875.83	1863.65
875.99	1806.31
876.16	1896.42
876.33	1794.02
876.49	1802.21
876.66	1851.36
876.83	1767.40
876.99	1710.05
877.16	1789.92
877.32	1757.16
877.49	1814.50
877.66	1816.55
877.82	1947.62
877.99	1837.03
878.15	1869.80
878.32	1812.45
878.49	1869.80
878.65	1851.36
878.82	1806.31
878.98	1751.01
879.15	1875.94
879.32	1869.80
879.48	1796.07
879.65	1861.60
879.81	1681.38
879.98	1669.09
880.15	1787.88
880.31	1794.02
880.48	1726.44
880.64	1859.56
880.81	1830.88
880.97	1896.42
881.14	1888.23
881.31	1810.40
881.47	1943.52
881.64	1843.17
881.80	1685.48
881.97	1814.50
882.13	1935.33
882.30	1761.25
882.47	1708.01
882.63	1720.29
882.80	1771.49
882.96	1812.45
883.13	1925.09
883.29	1851.36
883.46	1886.18
883.62	1888.23
883.79	1863.65
883.95	1900.52
884.12	1781.73
884.29	1841.12
884.45	1794.02
884.62	1920.99
884.78	1847.27
884.95	1906.66
885.11	1710.05
885.28	1845.22
885.44	1755.11
885.61	1886.18
885.77	1861.60
885.94	1808.36
886.10	1859.56
886.27	1908.71
886.43	1865.70
886.60	1843.17
886.76	1710.05
886.93	1763.30
887.09	1822.69
887.26	1738.73
887.42	1841.12
887.59	1863.65
887.75	2000.87
887.92	1873.89
888.08	1884.13
888.25	1986.53
888.41	1847.27
888.58	1814.50
888.74	1751.01
888.91	1859.56
>>>>>End Processed Spectral Data<<<<<
