SpectraSuite Data File
++++++++++++++++++++++++++++++++++++
Date: Wed May 04 21:13:32 CEST 2016
User: root
Dark Spectrum Present: No
Reference Spectrum Present: No
Number of Sampled Component Spectra: 1
Spectrometers: USB4C02835
Integration Time (usec): 100000 (USB4C02835)
Spectra Averaged: 1 (USB4C02835)
Boxcar Smoothing: 0 (USB4C02835)
Correct for Electrical Dark: No (USB4C02835)
Strobe/Lamp Enabled: No (USB4C02835)
Correct for Detector Non-linearity: No (USB4C02835)
Correct for Stray Light: No (USB4C02835)
Number of Pixels in Processed Spectrum: 3648
>>>>>Begin Processed Spectral Data<<<<<
177.47	1619.94
177.69	1619.94
177.91	1619.94
178.13	1570.79
178.36	1546.22
178.58	1732.58
178.80	1853.41
179.02	1681.38
179.24	1812.45
179.46	1845.22
179.68	1822.69
179.90	1781.73
180.13	1808.36
180.35	1759.21
180.57	1798.12
180.79	1812.45
181.01	1888.23
181.23	1837.03
181.45	1910.75
181.67	1841.12
181.90	1906.66
182.12	1751.01
182.34	1665.00
182.56	1873.89
182.78	1814.50
183.00	1853.41
183.22	1742.82
183.44	1658.85
183.66	1992.67
183.89	1814.50
184.11	1810.40
184.33	1816.55
184.55	1882.08
184.77	1800.16
184.99	1859.56
185.21	1812.45
185.43	1920.99
185.65	1806.31
185.87	1808.36
186.10	1986.53
186.32	1984.48
186.54	1746.92
186.76	1808.36
186.98	1843.17
187.20	1824.74
187.42	1742.82
187.64	1830.88
187.86	1802.21
188.08	1839.08
188.30	1794.02
188.52	1779.68
188.75	1839.08
188.97	1845.22
189.19	1730.53
189.41	1794.02
189.63	1783.78
189.85	1740.77
190.07	1736.68
190.29	1722.34
190.51	1820.64
190.73	1697.77
190.95	1900.52
191.17	1847.27
191.39	1728.49
191.61	1789.92
191.84	1722.34
192.06	1882.08
192.28	1765.35
192.50	1957.86
192.72	1884.13
192.94	1732.58
193.16	1898.47
193.38	1875.94
193.60	1812.45
193.82	1834.98
194.04	1906.66
194.26	1814.50
194.48	1837.03
194.70	1710.05
194.92	1769.44
195.14	1837.03
195.36	1820.64
195.58	1796.07
195.80	1808.36
196.02	1742.82
196.24	1798.12
196.46	1806.31
196.69	1751.01
196.91	1939.43
197.13	1753.06
197.35	1781.73
197.57	1863.65
197.79	1796.07
198.01	1777.64
198.23	1781.73
198.45	1853.41
198.67	1761.25
198.89	1767.40
199.11	1834.98
199.33	1714.15
199.55	1759.21
199.77	1796.07
199.99	1814.50
200.21	1753.06
200.43	1798.12
200.65	1683.43
200.87	1689.57
201.09	1765.35
201.31	1824.74
201.53	1804.26
201.75	1839.08
201.97	1859.56
202.19	1789.92
202.41	1871.84
202.63	1959.91
202.85	1832.93
203.07	1830.88
203.29	1783.78
203.51	1748.97
203.73	1738.73
203.95	1976.29
204.17	1853.41
204.39	1816.55
204.61	1865.70
204.83	1732.58
205.05	1845.22
205.27	1826.79
205.49	1935.33
205.71	1867.75
205.93	1640.42
206.15	1759.21
206.37	1841.12
206.59	1890.28
206.81	1806.31
207.03	1746.92
207.25	1734.63
207.47	1906.66
207.69	1851.36
207.91	1970.15
208.13	1906.66
208.34	1808.36
208.56	1830.88
208.78	1863.65
209.00	1720.29
209.22	1773.54
209.44	1839.08
209.66	1722.34
209.88	1882.08
210.10	1771.49
210.32	1798.12
210.54	1849.32
210.76	1783.78
210.98	1759.21
211.20	1624.04
211.42	1814.50
211.64	1910.75
211.86	1828.84
212.08	1849.32
212.30	1808.36
212.52	1767.40
212.74	1822.69
212.96	1714.15
213.17	1912.80
213.39	1914.85
213.61	1882.08
213.83	1796.07
214.05	1816.55
214.27	1886.18
214.49	1767.40
214.71	1755.11
214.93	1920.99
215.15	1787.88
215.37	1837.03
215.59	1726.44
215.81	1839.08
216.03	1880.04
216.24	1869.80
216.46	1800.16
216.68	1804.26
216.90	1791.97
217.12	1906.66
217.34	1847.27
217.56	1814.50
217.78	1898.47
218.00	1834.98
218.22	1753.06
218.44	1830.88
218.66	1888.23
218.87	1953.76
219.09	1806.31
219.31	1834.98
219.53	1871.84
219.75	1763.30
219.97	1775.59
220.19	1789.92
220.41	1716.20
220.63	1937.38
220.85	1716.20
221.06	1746.92
221.28	1871.84
221.50	1880.04
221.72	1822.69
221.94	1753.06
222.16	1789.92
222.38	1884.13
222.60	1865.70
222.82	1783.78
223.03	1755.11
223.25	1714.15
223.47	1857.51
223.69	1927.14
223.91	1970.15
224.13	1849.32
224.35	1718.25
224.57	1880.04
224.78	1837.03
225.00	1800.16
225.22	1810.40
225.44	1804.26
225.66	1882.08
225.88	1826.79
226.10	1851.36
226.32	1880.04
226.53	1968.10
226.75	1830.88
226.97	1777.64
227.19	1847.27
227.41	1755.11
227.63	1738.73
227.85	1695.72
228.06	1837.03
228.28	1839.08
228.50	1931.23
228.72	1751.01
228.94	1820.64
229.16	1689.57
229.37	1724.39
229.59	1808.36
229.81	1902.56
230.03	1861.60
230.25	1757.16
230.47	1734.63
230.69	1724.39
230.90	1845.22
231.12	1771.49
231.34	1818.60
231.56	1894.37
231.78	1708.01
232.00	1810.40
232.21	1783.78
232.43	1708.01
232.65	1710.05
232.87	1783.78
233.09	1767.40
233.30	1759.21
233.52	1845.22
233.74	1800.16
233.96	1861.60
234.18	1818.60
234.40	1804.26
234.61	1923.04
234.83	1751.01
235.05	1738.73
235.27	1951.71
235.49	1927.14
235.70	1884.13
235.92	1867.75
236.14	1843.17
236.36	1814.50
236.58	1699.81
236.79	1783.78
237.01	1798.12
237.23	1818.60
237.45	1939.43
237.67	1783.78
237.88	1832.93
238.10	1937.38
238.32	1773.54
238.54	1718.25
238.76	1810.40
238.97	1722.34
239.19	1894.37
239.41	1804.26
239.63	1871.84
239.85	1822.69
240.06	1810.40
240.28	1867.75
240.50	1816.55
240.72	1820.64
240.93	1687.53
241.15	1902.56
241.37	1798.12
241.59	1869.80
241.81	1800.16
242.02	1837.03
242.24	1875.94
242.46	1865.70
242.68	1734.63
242.89	1861.60
243.11	1859.56
243.33	1804.26
243.55	1810.40
243.76	1837.03
243.98	1837.03
244.20	1880.04
244.42	1734.63
244.64	1877.99
244.85	1718.25
245.07	1816.55
245.29	1871.84
245.51	1800.16
245.72	1822.69
245.94	1904.61
246.16	1779.68
246.38	1861.60
246.59	1705.96
246.81	1794.02
247.03	1783.78
247.24	1679.33
247.46	1742.82
247.68	1875.94
247.90	1712.10
248.11	1802.21
248.33	1880.04
248.55	1751.01
248.77	1804.26
248.98	1861.60
249.20	1855.46
249.42	1791.97
249.64	1832.93
249.85	1816.55
250.07	1824.74
250.29	1865.70
250.50	1818.60
250.72	1736.68
250.94	1855.46
251.16	1949.67
251.37	1845.22
251.59	1865.70
251.81	1925.09
252.02	1894.37
252.24	1847.27
252.46	1937.38
252.68	1867.75
252.89	1828.84
253.11	1652.71
253.33	1871.84
253.54	1812.45
253.76	1738.73
253.98	1767.40
254.20	1834.98
254.41	1732.58
254.63	1841.12
254.85	1726.44
255.06	1769.44
255.28	1839.08
255.50	1775.59
255.71	1714.15
255.93	1734.63
256.15	1775.59
256.36	1816.55
256.58	1779.68
256.80	1843.17
257.02	1802.21
257.23	1791.97
257.45	1789.92
257.67	1814.50
257.88	1763.30
258.10	1886.18
258.32	1787.88
258.53	1812.45
258.75	1873.89
258.97	1794.02
259.18	1812.45
259.40	1865.70
259.62	1935.33
259.83	1808.36
260.05	1820.64
260.27	1992.67
260.48	1890.28
260.70	1765.35
260.92	1767.40
261.13	1820.64
261.35	1816.55
261.57	1849.32
261.78	1712.10
262.00	1779.68
262.22	1843.17
262.43	1767.40
262.65	1744.87
262.86	1755.11
263.08	1904.61
263.30	1890.28
263.51	1763.30
263.73	1734.63
263.95	1820.64
264.16	1785.83
264.38	1837.03
264.60	1837.03
264.81	1781.73
265.03	1867.75
265.25	1853.41
265.46	1804.26
265.68	1884.13
265.89	1814.50
266.11	1742.82
266.33	1849.32
266.54	1849.32
266.76	1800.16
266.98	1875.94
267.19	1886.18
267.41	1869.80
267.62	1771.49
267.84	1687.53
268.06	1863.65
268.27	1900.52
268.49	1902.56
268.70	1867.75
268.92	1824.74
269.14	1755.11
269.35	1718.25
269.57	1742.82
269.79	1904.61
270.00	1767.40
270.22	1882.08
270.43	1718.25
270.65	1720.29
270.87	1896.42
271.08	1896.42
271.30	1855.46
271.51	1804.26
271.73	1906.66
271.95	1802.21
272.16	1736.68
272.38	1853.41
272.59	1726.44
272.81	1785.83
273.02	1843.17
273.24	1777.64
273.46	1910.75
273.67	1744.87
273.89	1767.40
274.10	1734.63
274.32	1810.40
274.54	1812.45
274.75	1824.74
274.97	1830.88
275.18	1884.13
275.40	1759.21
275.61	1810.40
275.83	1806.31
276.05	1736.68
276.26	1765.35
276.48	1802.21
276.69	1837.03
276.91	1755.11
277.12	1877.99
277.34	1826.79
277.55	1832.93
277.77	1855.46
277.99	1759.21
278.20	1779.68
278.42	1714.15
278.63	1755.11
278.85	1714.15
279.06	1673.19
279.28	1855.46
279.49	1828.84
279.71	1824.74
279.93	1861.60
280.14	1855.46
280.36	1820.64
280.57	1900.52
280.79	1781.73
281.00	1759.21
281.22	1767.40
281.43	1916.90
281.65	1710.05
281.86	1761.25
282.08	1798.12
282.29	1904.61
282.51	1751.01
282.73	1681.38
282.94	1822.69
283.16	1900.52
283.37	1882.08
283.59	1818.60
283.80	1857.51
284.02	1732.58
284.23	1824.74
284.45	1789.92
284.66	1722.34
284.88	1689.57
285.09	1867.75
285.31	1923.04
285.52	1775.59
285.74	1705.96
285.95	1869.80
286.17	1773.54
286.38	1867.75
286.60	1775.59
286.81	1740.77
287.03	1740.77
287.24	1734.63
287.46	1898.47
287.67	1783.78
287.89	1943.52
288.10	1773.54
288.32	1882.08
288.53	1974.24
288.75	1882.08
288.96	1880.04
289.18	1724.39
289.39	1742.82
289.61	1837.03
289.82	1914.85
290.04	1988.58
290.25	1730.53
290.47	1839.08
290.68	1824.74
290.90	1957.86
291.11	1667.05
291.33	1851.36
291.54	1705.96
291.76	1826.79
291.97	1865.70
292.18	1849.32
292.40	1705.96
292.61	1761.25
292.83	1957.86
293.04	1828.84
293.26	1871.84
293.47	1781.73
293.69	1777.64
293.90	1806.31
294.12	1845.22
294.33	1880.04
294.55	1834.98
294.76	1837.03
294.97	1927.14
295.19	1951.71
295.40	1734.63
295.62	1964.00
295.83	1886.18
296.05	1818.60
296.26	1863.65
296.48	1716.20
296.69	1804.26
296.90	1820.64
297.12	1894.37
297.33	1847.27
297.55	1808.36
297.76	1763.30
297.98	1880.04
298.19	1863.65
298.41	1757.16
298.62	1779.68
298.83	1920.99
299.05	1804.26
299.26	1824.74
299.48	1796.07
299.69	1861.60
299.90	1816.55
300.12	1789.92
300.33	1820.64
300.55	1802.21
300.76	1882.08
300.98	1761.25
301.19	1865.70
301.40	1804.26
301.62	1871.84
301.83	1859.56
302.05	1718.25
302.26	1722.34
302.47	1767.40
302.69	1853.41
302.90	1785.83
303.12	1740.77
303.33	1908.71
303.54	2025.44
303.76	1775.59
303.97	1859.56
304.19	1871.84
304.40	1746.92
304.61	1785.83
304.83	1935.33
305.04	1851.36
305.26	1818.60
305.47	1818.60
305.68	1718.25
305.90	1740.77
306.11	1865.70
306.33	1826.79
306.54	1773.54
306.75	1718.25
306.97	1732.58
307.18	1828.84
307.39	1800.16
307.61	1804.26
307.82	1857.51
308.04	1806.31
308.25	1767.40
308.46	1873.89
308.68	1843.17
308.89	1773.54
309.10	1845.22
309.32	1828.84
309.53	1847.27
309.74	1837.03
309.96	1892.32
310.17	1796.07
310.39	1736.68
310.60	1837.03
310.81	1796.07
311.03	1703.91
311.24	1910.75
311.45	1783.78
311.67	1906.66
311.88	1871.84
312.09	1753.06
312.31	1849.32
312.52	1736.68
312.73	1832.93
312.95	1703.91
313.16	1677.29
313.37	1810.40
313.59	1853.41
313.80	1847.27
314.01	1898.47
314.23	1785.83
314.44	1697.77
314.65	1759.21
314.87	1708.01
315.08	1808.36
315.29	1777.64
315.51	1806.31
315.72	1759.21
315.93	1916.90
316.15	1904.61
316.36	1677.29
316.57	1779.68
316.79	1800.16
317.00	1808.36
317.21	1880.04
317.43	1759.21
317.64	1816.55
317.85	1744.87
318.07	1828.84
318.28	1877.99
318.49	1980.39
318.70	2117.60
318.92	2029.54
319.13	2105.31
319.34	2080.74
319.56	1923.04
319.77	1986.53
319.98	1945.57
320.20	1918.95
320.41	1898.47
320.62	1806.31
320.83	1748.97
321.05	1986.53
321.26	1853.41
321.47	1759.21
321.69	1906.66
321.90	1693.67
322.11	1757.16
322.32	1880.04
322.54	1818.60
322.75	1800.16
322.96	1978.34
323.18	1718.25
323.39	1689.57
323.60	1728.49
323.81	1861.60
324.03	1869.80
324.24	1791.97
324.45	1863.65
324.66	1753.06
324.88	1867.75
325.09	1855.46
325.30	1791.97
325.52	1796.07
325.73	1837.03
325.94	1769.44
326.15	1728.49
326.37	1824.74
326.58	1953.76
326.79	1832.93
327.00	1773.54
327.22	1853.41
327.43	1810.40
327.64	1808.36
327.85	1837.03
328.07	1800.16
328.28	1906.66
328.49	1808.36
328.70	1892.32
328.92	1789.92
329.13	1837.03
329.34	1834.98
329.55	1918.95
329.76	1892.32
329.98	1789.92
330.19	1830.88
330.40	1742.82
330.61	1855.46
330.83	1777.64
331.04	1703.91
331.25	1816.55
331.46	1834.98
331.68	1791.97
331.89	1894.37
332.10	1736.68
332.31	1746.92
332.52	1765.35
332.74	1884.13
332.95	1718.25
333.16	1755.11
333.37	1812.45
333.58	1757.16
333.80	1834.98
334.01	1746.92
334.22	1841.12
334.43	1779.68
334.64	1845.22
334.86	1748.97
335.07	1777.64
335.28	1937.38
335.49	1701.86
335.70	1849.32
335.92	1880.04
336.13	1953.76
336.34	1888.23
336.55	1783.78
336.76	1808.36
336.98	1650.66
337.19	1746.92
337.40	1828.84
337.61	2050.02
337.82	1814.50
338.04	1832.93
338.25	1675.24
338.46	1763.30
338.67	1705.96
338.88	1753.06
339.09	1773.54
339.31	1763.30
339.52	1683.43
339.73	1757.16
339.94	1818.60
340.15	1882.08
340.36	1748.97
340.58	1865.70
340.79	1812.45
341.00	1824.74
341.21	1718.25
341.42	1914.85
341.63	1740.77
341.85	1902.56
342.06	1802.21
342.27	1722.34
342.48	1783.78
342.69	1753.06
342.90	1820.64
343.12	1867.75
343.33	1796.07
343.54	1918.95
343.75	1863.65
343.96	1769.44
344.17	1796.07
344.38	1804.26
344.60	1740.77
344.81	1693.67
345.02	1822.69
345.23	1888.23
345.44	1961.95
345.65	1908.71
345.86	1832.93
346.07	1802.21
346.29	1832.93
346.50	1816.55
346.71	1892.32
346.92	1828.84
347.13	1984.48
347.34	1818.60
347.55	1806.31
347.76	1740.77
347.98	1695.72
348.19	1798.12
348.40	1834.98
348.61	1849.32
348.82	1873.89
349.03	1869.80
349.24	1753.06
349.45	2027.49
349.66	1714.15
349.88	1824.74
350.09	1755.11
350.30	1931.23
350.51	1902.56
350.72	1816.55
350.93	1867.75
351.14	1773.54
351.35	1796.07
351.56	1822.69
351.77	1806.31
351.99	1853.41
352.20	1949.67
352.41	1873.89
352.62	1777.64
352.83	1814.50
353.04	1761.25
353.25	1746.92
353.46	1914.85
353.67	1910.75
353.88	1796.07
354.09	1802.21
354.30	1771.49
354.52	1796.07
354.73	1806.31
354.94	1826.79
355.15	1775.59
355.36	1951.71
355.57	1744.87
355.78	1773.54
355.99	1755.11
356.20	1820.64
356.41	1886.18
356.62	1851.36
356.83	1849.32
357.04	1839.08
357.25	1738.73
357.46	1808.36
357.68	1619.94
357.89	1687.53
358.10	1740.77
358.31	1753.06
358.52	1796.07
358.73	1724.39
358.94	1791.97
359.15	1689.57
359.36	1933.28
359.57	1777.64
359.78	1777.64
359.99	1830.88
360.20	1773.54
360.41	1763.30
360.62	1787.88
360.83	1761.25
361.04	1855.46
361.25	1882.08
361.46	1929.19
361.67	1884.13
361.88	1892.32
362.09	1841.12
362.30	1918.95
362.51	1802.21
362.72	1804.26
362.93	1892.32
363.14	1837.03
363.35	1773.54
363.56	1806.31
363.78	1832.93
363.99	1861.60
364.20	1728.49
364.41	1847.27
364.62	1890.28
364.83	1892.32
365.04	1791.97
365.25	1796.07
365.46	1951.71
365.67	1775.59
365.88	1794.02
366.09	1787.88
366.30	1763.30
366.51	1837.03
366.72	1689.57
366.93	1796.07
367.14	1791.97
367.35	1875.94
367.56	1837.03
367.77	1947.62
367.98	1826.79
368.18	1834.98
368.39	1851.36
368.60	1810.40
368.81	1871.84
369.02	1845.22
369.23	1777.64
369.44	1732.58
369.65	1794.02
369.86	1906.66
370.07	1880.04
370.28	1775.59
370.49	1820.64
370.70	1875.94
370.91	1724.39
371.12	1763.30
371.33	1904.61
371.54	1787.88
371.75	1880.04
371.96	1699.81
372.17	1873.89
372.38	1834.98
372.59	1859.56
372.80	1843.17
373.01	1804.26
373.22	1806.31
373.43	1814.50
373.64	1734.63
373.85	1841.12
374.06	1935.33
374.26	1894.37
374.47	1824.74
374.68	1841.12
374.89	1824.74
375.10	1828.84
375.31	1830.88
375.52	1820.64
375.73	1730.53
375.94	1761.25
376.15	1994.72
376.36	1773.54
376.57	1724.39
376.78	1691.62
376.99	1845.22
377.20	1820.64
377.40	1837.03
377.61	1902.56
377.82	1841.12
378.03	1908.71
378.24	1877.99
378.45	1875.94
378.66	1861.60
378.87	1714.15
379.08	1730.53
379.29	1775.59
379.50	1937.38
379.71	1830.88
379.91	1847.27
380.12	1810.40
380.33	1806.31
380.54	1769.44
380.75	1828.84
380.96	1769.44
381.17	1834.98
381.38	1763.30
381.59	1933.28
381.80	1812.45
382.00	1943.52
382.21	1800.16
382.42	1943.52
382.63	1951.71
382.84	1904.61
383.05	1839.08
383.26	1933.28
383.47	1853.41
383.68	1808.36
383.88	1820.64
384.09	1871.84
384.30	2023.39
384.51	1806.31
384.72	1841.12
384.93	1701.86
385.14	1814.50
385.35	1816.55
385.55	1828.84
385.76	1935.33
385.97	1783.78
386.18	1839.08
386.39	1800.16
386.60	1826.79
386.81	1822.69
387.02	1796.07
387.22	1757.16
387.43	1933.28
387.64	1931.23
387.85	1925.09
388.06	2176.99
388.27	4173.76
388.48	8839.03
388.68	11847.50
388.89	13889.32
389.10	14749.47
389.31	13240.12
389.52	10291.04
389.73	9015.16
389.93	8365.95
390.14	7454.61
390.35	6946.71
390.56	6057.89
390.77	5050.29
390.98	4001.73
391.18	3051.47
391.39	2492.38
391.60	2082.78
391.81	2004.96
392.02	1800.16
392.23	2111.46
392.43	1902.56
392.64	1949.67
392.85	1834.98
393.06	1927.14
393.27	1851.36
393.47	1771.49
393.68	1705.96
393.89	1808.36
394.10	1941.47
394.31	1777.64
394.52	1746.92
394.72	1796.07
394.93	1931.23
395.14	1753.06
395.35	1783.78
395.56	1708.01
395.76	1816.55
395.97	1880.04
396.18	1902.56
396.39	1988.58
396.60	2248.67
396.80	2127.84
397.01	1978.34
397.22	2004.96
397.43	2025.44
397.64	1853.41
397.84	1888.23
398.05	2011.11
398.26	1920.99
398.47	2019.30
398.67	1843.17
398.88	1855.46
399.09	1830.88
399.30	1751.01
399.51	1857.51
399.71	1810.40
399.92	1806.31
400.13	1816.55
400.34	1796.07
400.54	1884.13
400.75	1908.71
400.96	1847.27
401.17	1968.10
401.37	1900.52
401.58	1818.60
401.79	1775.59
402.00	1955.81
402.21	2263.01
402.41	2201.57
402.62	2226.14
402.83	2258.91
403.04	2297.82
403.24	2263.01
403.45	1994.72
403.66	2113.50
403.87	1996.77
404.07	2011.11
404.28	2052.06
404.49	2054.11
404.70	1949.67
404.90	1976.29
405.11	1837.03
405.32	1888.23
405.52	1800.16
405.73	1738.73
405.94	1863.65
406.15	1732.58
406.35	1814.50
406.56	1853.41
406.77	1800.16
406.98	1875.94
407.18	1767.40
407.39	1908.71
407.60	1800.16
407.80	1882.08
408.01	1818.60
408.22	1804.26
408.43	1738.73
408.63	1882.08
408.84	1884.13
409.05	1841.12
409.25	1742.82
409.46	1769.44
409.67	1753.06
409.88	1779.68
410.08	1865.70
410.29	1818.60
410.50	1841.12
410.70	1845.22
410.91	1753.06
411.12	1877.99
411.32	1798.12
411.53	1808.36
411.74	1888.23
411.95	1957.86
412.15	1863.65
412.36	1961.95
412.57	1834.98
412.77	1982.43
412.98	1873.89
413.19	1800.16
413.39	1837.03
413.60	1857.51
413.81	1957.86
414.01	1781.73
414.22	1892.32
414.43	1939.43
414.63	1851.36
414.84	1877.99
415.05	1794.02
415.25	1732.58
415.46	1859.56
415.67	1746.92
415.87	1863.65
416.08	1855.46
416.29	1779.68
416.49	1818.60
416.70	1787.88
416.91	1839.08
417.11	1767.40
417.32	1966.05
417.53	1863.65
417.73	1794.02
417.94	1808.36
418.15	1841.12
418.35	1853.41
418.56	1800.16
418.77	1984.48
418.97	1847.27
419.18	1787.88
419.38	1644.52
419.59	1843.17
419.80	1834.98
420.00	1722.34
420.21	1871.84
420.42	1873.89
420.62	1769.44
420.83	1834.98
421.04	1798.12
421.24	1800.16
421.45	1882.08
421.65	1869.80
421.86	1767.40
422.07	1779.68
422.27	1910.75
422.48	1847.27
422.69	1722.34
422.89	1781.73
423.10	1810.40
423.30	1820.64
423.51	1853.41
423.72	1933.28
423.92	1853.41
424.13	1744.87
424.33	1806.31
424.54	1865.70
424.75	1822.69
424.95	1949.67
425.16	1914.85
425.36	1798.12
425.57	1875.94
425.78	1783.78
425.98	1908.71
426.19	1826.79
426.39	1742.82
426.60	1837.03
426.81	1943.52
427.01	1859.56
427.22	1779.68
427.42	1710.05
427.63	1796.07
427.83	1904.61
428.04	1851.36
428.25	1910.75
428.45	1910.75
428.66	1826.79
428.86	1798.12
429.07	1765.35
429.28	1789.92
429.48	1787.88
429.69	1681.38
429.89	1933.28
430.10	1767.40
430.30	1828.84
430.51	1966.05
430.71	1822.69
430.92	1769.44
431.13	1771.49
431.33	1849.32
431.54	1890.28
431.74	1933.28
431.95	2041.82
432.15	1746.92
432.36	1779.68
432.56	1892.32
432.77	1976.29
432.98	1947.62
433.18	1865.70
433.39	1796.07
433.59	1779.68
433.80	1902.56
434.00	1970.15
434.21	1753.06
434.41	1820.64
434.62	1908.71
434.82	1787.88
435.03	1779.68
435.23	1828.84
435.44	1716.20
435.64	1806.31
435.85	1910.75
436.06	1902.56
436.26	1794.02
436.47	1841.12
436.67	1767.40
436.88	1826.79
437.08	1861.60
437.29	1886.18
437.49	1794.02
437.70	1810.40
437.90	1837.03
438.11	1916.90
438.31	1937.38
438.52	1953.76
438.72	2013.15
438.93	2029.54
439.13	1892.32
439.34	1953.76
439.54	1945.57
439.75	1890.28
439.95	1814.50
440.16	1808.36
440.36	1859.56
440.57	1986.53
440.77	1896.42
440.98	1812.45
441.18	1900.52
441.39	1810.40
441.59	1738.73
441.80	1931.23
442.00	1839.08
442.21	1974.24
442.41	1800.16
442.62	1837.03
442.82	1808.36
443.02	1859.56
443.23	1785.83
443.43	1834.98
443.64	1978.34
443.84	1767.40
444.05	1955.81
444.25	1908.71
444.46	1853.41
444.66	1871.84
444.87	1931.23
445.07	1753.06
445.28	1853.41
445.48	1961.95
445.69	1871.84
445.89	2004.96
446.09	1855.46
446.30	2084.83
446.50	2555.86
446.71	4120.51
446.91	5257.14
447.12	6078.37
447.32	6213.54
447.53	5744.55
447.73	4689.85
447.93	4280.25
448.14	3915.72
448.34	3735.50
448.55	3162.06
448.75	3194.83
448.96	2977.75
449.16	2789.33
449.36	2430.94
449.57	2213.85
449.77	2062.30
449.98	1908.71
450.18	1884.13
450.39	1937.38
450.59	1845.22
450.79	1880.04
451.00	1808.36
451.20	1820.64
451.41	1755.11
451.61	1873.89
451.81	1865.70
452.02	1808.36
452.22	1765.35
452.43	1773.54
452.63	1804.26
452.84	1839.08
453.04	1847.27
453.24	1865.70
453.45	1753.06
453.65	1884.13
453.86	1927.14
454.06	1900.52
454.26	1884.13
454.47	1834.98
454.67	1955.81
454.87	1931.23
455.08	1849.32
455.28	1978.34
455.49	1789.92
455.69	1777.64
455.89	1955.81
456.10	1912.80
456.30	1837.03
456.51	1855.46
456.71	1863.65
456.91	1847.27
457.12	1931.23
457.32	1804.26
457.52	1806.31
457.73	1902.56
457.93	1863.65
458.14	1814.50
458.34	1746.92
458.54	1849.32
458.75	1798.12
458.95	1867.75
459.15	1902.56
459.36	1812.45
459.56	1814.50
459.76	1898.47
459.97	1918.95
460.17	1875.94
460.37	1941.47
460.58	1839.08
460.78	1828.84
460.99	1757.16
461.19	1820.64
461.39	1828.84
461.60	1773.54
461.80	1767.40
462.00	1777.64
462.21	1832.93
462.41	1808.36
462.61	1806.31
462.82	1802.21
463.02	1900.52
463.22	1806.31
463.43	1914.85
463.63	1861.60
463.83	1857.51
464.04	1886.18
464.24	1845.22
464.44	1738.73
464.64	1898.47
464.85	1908.71
465.05	1890.28
465.25	1886.18
465.46	1763.30
465.66	1867.75
465.86	1902.56
466.07	1863.65
466.27	1861.60
466.47	1789.92
466.68	1751.01
466.88	1925.09
467.08	1900.52
467.29	1947.62
467.49	1853.41
467.69	1867.75
467.89	1804.26
468.10	1834.98
468.30	1861.60
468.50	1927.14
468.71	1857.51
468.91	1746.92
469.11	1966.05
469.31	1732.58
469.52	1789.92
469.72	1896.42
469.92	1941.47
470.13	1841.12
470.33	1916.90
470.53	1943.52
470.73	2234.33
470.94	2660.31
471.14	2834.39
471.34	3065.81
471.54	2926.55
471.75	2693.08
471.95	2471.90
472.15	2445.27
472.36	2289.63
472.56	2359.26
472.76	2203.61
472.96	2236.38
473.17	2084.83
473.37	2105.31
473.57	1927.14
473.77	1961.95
473.98	1863.65
474.18	1724.39
474.38	1990.63
474.58	1763.30
474.79	1800.16
474.99	1929.19
475.19	1863.65
475.39	1771.49
475.60	1822.69
475.80	1791.97
476.00	1877.99
476.20	1818.60
476.41	1804.26
476.61	1970.15
476.81	1912.80
477.01	1763.30
477.21	1968.10
477.42	1949.67
477.62	1777.64
477.82	1923.04
478.02	1822.69
478.23	1824.74
478.43	1849.32
478.63	1845.22
478.83	1851.36
479.03	1806.31
479.24	1898.47
479.44	1972.19
479.64	1751.01
479.84	1714.15
480.04	1761.25
480.25	1820.64
480.45	1787.88
480.65	1810.40
480.85	1935.33
481.06	1812.45
481.26	1902.56
481.46	1888.23
481.66	1857.51
481.86	1728.49
482.06	1939.43
482.27	1820.64
482.47	1771.49
482.67	1853.41
482.87	1783.78
483.07	1927.14
483.28	1861.60
483.48	1742.82
483.68	1857.51
483.88	1820.64
484.08	1634.28
484.29	1759.21
484.49	1828.84
484.69	1738.73
484.89	1976.29
485.09	1925.09
485.29	1871.84
485.50	1744.87
485.70	1761.25
485.90	1882.08
486.10	1828.84
486.30	1816.55
486.50	1902.56
486.71	1841.12
486.91	1871.84
487.11	1884.13
487.31	1767.40
487.51	1906.66
487.71	1734.63
487.91	1783.78
488.12	1683.43
488.32	1662.95
488.52	1841.12
488.72	1722.34
488.92	1857.51
489.12	1886.18
489.32	1910.75
489.53	1875.94
489.73	1736.68
489.93	1957.86
490.13	1812.45
490.33	1683.43
490.53	1847.27
490.73	1916.90
490.94	1697.77
491.14	1896.42
491.34	1935.33
491.54	2146.27
491.74	2867.16
491.94	3260.37
492.14	3559.37
492.34	3774.41
492.54	3416.01
492.75	2893.78
492.95	2779.09
493.15	2568.15
493.35	2609.11
493.55	2363.36
493.75	2271.20
493.95	2306.01
494.15	2203.61
494.35	1998.82
494.56	1974.24
494.76	1904.61
494.96	1972.19
495.16	1847.27
495.36	1880.04
495.56	1925.09
495.76	1839.08
495.96	1779.68
496.16	1802.21
496.36	1933.28
496.56	1877.99
496.77	1851.36
496.97	1808.36
497.17	1886.18
497.37	1769.44
497.57	1900.52
497.77	1857.51
497.97	1798.12
498.17	1845.22
498.37	1771.49
498.57	1931.23
498.77	1800.16
498.97	1945.57
499.17	1918.95
499.38	1787.88
499.58	1796.07
499.78	1935.33
499.98	1869.80
500.18	1777.64
500.38	1789.92
500.58	2007.01
500.78	2457.56
500.98	4673.46
501.18	6850.46
501.38	8497.02
501.58	9404.27
501.78	9152.37
501.98	7335.82
502.18	5912.49
502.38	5253.04
502.58	4816.82
502.78	4286.40
502.98	4241.34
503.18	4009.92
503.38	3657.67
503.59	3307.47
503.79	2852.82
503.99	2713.56
504.19	2396.12
504.39	2422.75
504.59	2435.03
504.79	2494.43
504.99	2465.75
505.19	2246.62
505.39	2138.08
505.59	2222.05
505.79	2072.54
505.99	2086.88
506.19	1927.14
506.39	2029.54
506.59	1814.50
506.79	1898.47
506.99	1902.56
507.19	1845.22
507.39	1914.85
507.59	1804.26
507.79	1767.40
507.99	1826.79
508.19	1863.65
508.39	1808.36
508.59	1847.27
508.79	2025.44
508.99	1933.28
509.19	1828.84
509.39	1851.36
509.59	1779.68
509.79	1798.12
509.99	1796.07
510.19	1923.04
510.39	1882.08
510.59	1808.36
510.79	1847.27
510.99	1789.92
511.19	1845.22
511.39	1990.63
511.59	1920.99
511.79	1845.22
511.99	1896.42
512.19	1916.90
512.38	1839.08
512.58	1732.58
512.78	1800.16
512.98	1877.99
513.18	1953.76
513.38	1796.07
513.58	1935.33
513.78	1718.25
513.98	1822.69
514.18	1859.56
514.38	1830.88
514.58	1808.36
514.78	1810.40
514.98	1716.20
515.18	1822.69
515.38	1769.44
515.58	1869.80
515.78	1816.55
515.98	1820.64
516.18	1910.75
516.38	1863.65
516.57	1769.44
516.77	1841.12
516.97	1861.60
517.17	1794.02
517.37	1814.50
517.57	1935.33
517.77	1820.64
517.97	1767.40
518.17	1894.37
518.37	1789.92
518.57	1867.75
518.77	1845.22
518.97	1824.74
519.16	1882.08
519.36	1890.28
519.56	1783.78
519.76	1818.60
519.96	1898.47
520.16	2011.11
520.36	1830.88
520.56	1873.89
520.76	1714.15
520.96	1777.64
521.16	1886.18
521.35	1961.95
521.55	1951.71
521.75	1918.95
521.95	1783.78
522.15	1787.88
522.35	1648.61
522.55	1775.59
522.75	1918.95
522.95	1816.55
523.14	1720.29
523.34	1855.46
523.54	1888.23
523.74	1841.12
523.94	1847.27
524.14	1771.49
524.34	1789.92
524.54	1976.29
524.73	1794.02
524.93	1923.04
525.13	1857.51
525.33	1791.97
525.53	1961.95
525.73	1918.95
525.93	1861.60
526.13	1859.56
526.32	1853.41
526.52	1947.62
526.72	1910.75
526.92	1761.25
527.12	1800.16
527.32	1787.88
527.52	1886.18
527.71	1877.99
527.91	1794.02
528.11	1751.01
528.31	1828.84
528.51	1814.50
528.71	1886.18
528.90	1947.62
529.10	1910.75
529.30	1920.99
529.50	1708.01
529.70	1863.65
529.90	1875.94
530.09	1806.31
530.29	1767.40
530.49	1757.16
530.69	1980.39
530.89	1822.69
531.09	1912.80
531.28	1783.78
531.48	1949.67
531.68	1882.08
531.88	1880.04
532.08	1871.84
532.28	1787.88
532.47	1920.99
532.67	1947.62
532.87	1763.30
533.07	1746.92
533.27	2025.44
533.46	1916.90
533.66	1888.23
533.86	1865.70
534.06	1857.51
534.26	1892.32
534.45	1904.61
534.65	1949.67
534.85	1845.22
535.05	1826.79
535.25	1888.23
535.44	1693.67
535.64	1923.04
535.84	1820.64
536.04	1839.08
536.24	1703.91
536.43	1777.64
536.63	1877.99
536.83	1853.41
537.03	1888.23
537.22	1834.98
537.42	1681.38
537.62	1867.75
537.82	1732.58
538.02	1914.85
538.21	1890.28
538.41	1990.63
538.61	1855.46
538.81	1804.26
539.00	1904.61
539.20	1759.21
539.40	1794.02
539.60	1890.28
539.79	1894.37
539.99	1785.83
540.19	1804.26
540.39	1884.13
540.58	1767.40
540.78	1857.51
540.98	1906.66
541.18	1925.09
541.37	1873.89
541.57	1791.97
541.77	1865.70
541.97	1791.97
542.16	1757.16
542.36	1812.45
542.56	1812.45
542.76	1998.82
542.95	1990.63
543.15	1890.28
543.35	1894.37
543.54	1791.97
543.74	1744.87
543.94	1925.09
544.14	1830.88
544.33	1914.85
544.53	1880.04
544.73	1841.12
544.93	1853.41
545.12	1820.64
545.32	1839.08
545.52	1877.99
545.71	1841.12
545.91	1791.97
546.11	1820.64
546.30	1796.07
546.50	1779.68
546.70	1818.60
546.90	1886.18
547.09	1748.97
547.29	1763.30
547.49	1847.27
547.68	1914.85
547.88	1728.49
548.08	1845.22
548.27	2369.50
548.47	1853.41
548.67	1834.98
548.87	1841.12
549.06	1746.92
549.26	1894.37
549.46	1929.19
549.65	1794.02
549.85	1789.92
550.05	1880.04
550.24	1746.92
550.44	1826.79
550.64	1884.13
550.83	1841.12
551.03	1920.99
551.23	1873.89
551.42	1912.80
551.62	1796.07
551.82	1814.50
552.01	1734.63
552.21	1957.86
552.41	1814.50
552.60	1918.95
552.80	1830.88
553.00	1822.69
553.19	1863.65
553.39	1943.52
553.59	1783.78
553.78	1824.74
553.98	1824.74
554.17	1871.84
554.37	1902.56
554.57	1910.75
554.76	1785.83
554.96	1865.70
555.16	1787.88
555.35	1945.57
555.55	1902.56
555.75	1939.43
555.94	1927.14
556.14	1728.49
556.33	1884.13
556.53	1798.12
556.73	1796.07
556.92	1834.98
557.12	1920.99
557.32	1941.47
557.51	1957.86
557.71	1851.36
557.90	1986.53
558.10	1980.39
558.30	1839.08
558.49	1851.36
558.69	1839.08
558.88	1806.31
559.08	1839.08
559.28	1810.40
559.47	1804.26
559.67	1847.27
559.86	2050.02
560.06	1843.17
560.26	1824.74
560.45	1861.60
560.65	1837.03
560.84	1908.71
561.04	1849.32
561.24	1898.47
561.43	1808.36
561.63	1886.18
561.82	1974.24
562.02	1832.93
562.22	1767.40
562.41	1845.22
562.61	1814.50
562.80	1861.60
563.00	1968.10
563.19	1920.99
563.39	1832.93
563.59	1779.68
563.78	1820.64
563.98	1718.25
564.17	1798.12
564.37	1687.53
564.56	1816.55
564.76	1757.16
564.96	1892.32
565.15	1798.12
565.35	1990.63
565.54	1779.68
565.74	1918.95
565.93	1820.64
566.13	1832.93
566.32	1843.17
566.52	1808.36
566.71	1865.70
566.91	1908.71
567.11	1853.41
567.30	1798.12
567.50	1894.37
567.69	1808.36
567.89	1787.88
568.08	1830.88
568.28	1834.98
568.47	1775.59
568.67	1888.23
568.86	1755.11
569.06	1892.32
569.25	1753.06
569.45	1830.88
569.64	1736.68
569.84	1861.60
570.04	1832.93
570.23	1765.35
570.43	1730.53
570.62	1904.61
570.82	1961.95
571.01	1748.97
571.21	1769.44
571.40	1728.49
571.60	1920.99
571.79	1810.40
571.99	1865.70
572.18	1841.12
572.38	1863.65
572.57	1837.03
572.77	1902.56
572.96	2068.45
573.16	1875.94
573.35	1875.94
573.55	1943.52
573.74	1920.99
573.94	1806.31
574.13	1777.64
574.33	1949.67
574.52	2037.73
574.71	1863.65
574.91	1873.89
575.10	1804.26
575.30	1853.41
575.49	1798.12
575.69	1816.55
575.88	1894.37
576.08	1933.28
576.27	1841.12
576.47	1837.03
576.66	2002.91
576.86	1964.00
577.05	1904.61
577.25	1935.33
577.44	1992.67
577.64	1816.55
577.83	1873.89
578.02	1857.51
578.22	1896.42
578.41	1947.62
578.61	1828.84
578.80	1767.40
579.00	1906.66
579.19	1908.71
579.39	1882.08
579.58	1968.10
579.77	1845.22
579.97	1937.38
580.16	1964.00
580.36	1976.29
580.55	2013.15
580.75	1798.12
580.94	1959.91
581.13	2009.06
581.33	1980.39
581.52	1914.85
581.72	2066.40
581.91	2017.25
582.11	1787.88
582.30	1910.75
582.49	1884.13
582.69	2009.06
582.88	1886.18
583.08	1812.45
583.27	1976.29
583.47	1918.95
583.66	1826.79
583.85	1775.59
584.05	1904.61
584.24	1918.95
584.44	1951.71
584.63	2009.06
584.82	2009.06
585.02	2023.39
585.21	2107.36
585.41	2050.02
585.60	1996.77
585.79	2078.69
585.99	2101.22
586.18	2037.73
586.37	2412.51
586.57	3643.34
586.76	10725.21
586.96	28835.40
587.15	43412.84
587.34	52731.10
587.54	58758.27
587.73	56265.89
587.93	40187.29
588.12	29849.14
588.31	24024.72
588.51	20446.92
588.70	18775.78
588.89	17198.84
589.09	15296.28
589.28	13473.59
589.47	11181.91
589.67	9043.83
589.86	6956.95
590.06	5181.36
590.25	3911.62
590.44	3227.60
590.64	2617.30
590.83	2299.87
591.02	2168.80
591.22	2060.26
591.41	1943.52
591.60	1908.71
591.80	2062.30
591.99	1923.04
592.18	1943.52
592.38	1984.48
592.57	1855.46
592.76	1853.41
592.96	1927.14
593.15	1896.42
593.34	1998.82
593.54	1820.64
593.73	1834.98
593.92	1978.34
594.12	1892.32
594.31	1892.32
594.50	1953.76
594.70	1961.95
594.89	2052.06
595.08	1816.55
595.28	1916.90
595.47	2070.50
595.66	1925.09
595.86	1861.60
596.05	1824.74
596.24	1839.08
596.43	1970.15
596.63	1968.10
596.82	1904.61
597.01	1941.47
597.21	1996.77
597.40	1896.42
597.59	1920.99
597.79	1861.60
597.98	1890.28
598.17	1935.33
598.36	1877.99
598.56	1953.76
598.75	1816.55
598.94	1888.23
599.14	1859.56
599.33	1794.02
599.52	1896.42
599.71	1947.62
599.91	1959.91
600.10	1888.23
600.29	1812.45
600.48	1880.04
600.68	1961.95
600.87	1964.00
601.06	1830.88
601.26	1816.55
601.45	1837.03
601.64	1777.64
601.83	1937.38
602.03	1767.40
602.22	1826.79
602.41	1886.18
602.60	1998.82
602.80	1847.27
602.99	1884.13
603.18	1800.16
603.37	1933.28
603.57	1908.71
603.76	1931.23
603.95	1931.23
604.14	1789.92
604.34	1800.16
604.53	1853.41
604.72	1888.23
604.91	1828.84
605.10	1964.00
605.30	1787.88
605.49	1964.00
605.68	1953.76
605.87	1918.95
606.07	1779.68
606.26	1865.70
606.45	1880.04
606.64	1853.41
606.84	1812.45
607.03	1923.04
607.22	1976.29
607.41	1894.37
607.60	1947.62
607.80	1966.05
607.99	1943.52
608.18	1849.32
608.37	1894.37
608.56	1810.40
608.76	1918.95
608.95	2013.15
609.14	1959.91
609.33	1935.33
609.52	2043.87
609.72	1980.39
609.91	1984.48
610.10	1980.39
610.29	1970.15
610.48	1976.29
610.68	1896.42
610.87	1900.52
611.06	1837.03
611.25	1830.88
611.44	2017.25
611.63	1853.41
611.83	1898.47
612.02	1787.88
612.21	1976.29
612.40	1720.29
612.59	1851.36
612.79	1779.68
612.98	1789.92
613.17	1998.82
613.36	1814.50
613.55	1980.39
613.74	1888.23
613.93	2013.15
614.13	2078.69
614.32	2090.98
614.51	2146.27
614.70	1914.85
614.89	1931.23
615.08	2029.54
615.28	2248.67
615.47	1832.93
615.66	1912.80
615.85	1937.38
616.04	1972.19
616.23	1964.00
616.42	1931.23
616.62	1980.39
616.81	1961.95
617.00	1791.97
617.19	1923.04
617.38	1779.68
617.57	1857.51
617.76	1902.56
617.95	1877.99
618.15	1912.80
618.34	1898.47
618.53	1728.49
618.72	1931.23
618.91	1941.47
619.10	1998.82
619.29	1847.27
619.48	1845.22
619.68	1802.21
619.87	1861.60
620.06	1738.73
620.25	1910.75
620.44	1849.32
620.63	1779.68
620.82	1847.27
621.01	1820.64
621.20	1839.08
621.39	1898.47
621.59	1863.65
621.78	1841.12
621.97	1841.12
622.16	1890.28
622.35	1832.93
622.54	1902.56
622.73	1904.61
622.92	1791.97
623.11	1843.17
623.30	1769.44
623.49	1892.32
623.68	1781.73
623.88	1927.14
624.07	1837.03
624.26	1861.60
624.45	1880.04
624.64	1724.39
624.83	1859.56
625.02	1789.92
625.21	1845.22
625.40	1839.08
625.59	1908.71
625.78	1947.62
625.97	1992.67
626.16	1978.34
626.35	1943.52
626.54	1951.71
626.74	2027.49
626.93	1859.56
627.12	1927.14
627.31	1898.47
627.50	1888.23
627.69	1931.23
627.88	1804.26
628.07	1818.60
628.26	1804.26
628.45	1808.36
628.64	1814.50
628.83	1841.12
629.02	1873.89
629.21	1906.66
629.40	1861.60
629.59	1783.78
629.78	1789.92
629.97	1886.18
630.16	1853.41
630.35	1796.07
630.54	1849.32
630.73	1826.79
630.92	1822.69
631.11	1826.79
631.30	1839.08
631.49	1898.47
631.68	1828.84
631.87	1935.33
632.06	1746.92
632.25	2056.16
632.44	1804.26
632.63	1861.60
632.82	1927.14
633.01	1880.04
633.20	2000.87
633.39	1904.61
633.58	1834.98
633.77	1898.47
633.96	1943.52
634.15	1937.38
634.34	1863.65
634.53	1875.94
634.72	1779.68
634.91	1820.64
635.10	1857.51
635.29	1884.13
635.48	1828.84
635.67	1757.16
635.86	1783.78
636.05	1849.32
636.24	1783.78
636.43	1900.52
636.62	1894.37
636.81	1693.67
637.00	1824.74
637.19	1888.23
637.38	1847.27
637.57	1796.07
637.76	1918.95
637.95	1918.95
638.14	1912.80
638.33	1898.47
638.52	1875.94
638.71	1787.88
638.89	1865.70
639.08	1988.58
639.27	1978.34
639.46	2054.11
639.65	2383.84
639.84	2424.80
640.03	2578.39
640.22	2484.19
640.41	2549.72
640.60	2160.61
640.79	2133.98
640.98	1984.48
641.17	1976.29
641.36	2060.26
641.55	2000.87
641.74	1943.52
641.92	1845.22
642.11	1832.93
642.30	1873.89
642.49	1865.70
642.68	1863.65
642.87	1877.99
643.06	1853.41
643.25	1851.36
643.44	1765.35
643.63	1861.60
643.82	1927.14
644.00	1863.65
644.19	1839.08
644.38	1683.43
644.57	1923.04
644.76	1839.08
644.95	1834.98
645.14	1734.63
645.33	1812.45
645.52	1859.56
645.71	1722.34
645.89	1847.27
646.08	1834.98
646.27	1812.45
646.46	1937.38
646.65	1703.91
646.84	1892.32
647.03	1802.21
647.22	1894.37
647.40	1753.06
647.59	1865.70
647.78	1714.15
647.97	1820.64
648.16	1763.30
648.35	1929.19
648.54	1900.52
648.73	1814.50
648.91	1884.13
649.10	1800.16
649.29	1771.49
649.48	1734.63
649.67	1894.37
649.86	1888.23
650.05	1859.56
650.23	2066.40
650.42	1869.80
650.61	2017.25
650.80	2013.15
650.99	2062.30
651.18	2015.20
651.36	1923.04
651.55	1800.16
651.74	1902.56
651.93	1849.32
652.12	1787.88
652.31	1812.45
652.49	1742.82
652.68	1787.88
652.87	1990.63
653.06	1861.60
653.25	1961.95
653.44	1894.37
653.62	1935.33
653.81	1837.03
654.00	1806.31
654.19	1894.37
654.38	2111.46
654.56	1834.98
654.75	1757.16
654.94	1986.53
655.13	1812.45
655.32	1859.56
655.51	1855.46
655.69	1839.08
655.88	1806.31
656.07	1746.92
656.26	1855.46
656.45	1710.05
656.63	1820.64
656.82	1961.95
657.01	1929.19
657.20	1701.86
657.38	1914.85
657.57	1939.43
657.76	1667.05
657.95	1865.70
658.14	1740.77
658.32	1904.61
658.51	1716.20
658.70	1841.12
658.89	1812.45
659.08	1910.75
659.26	2009.06
659.45	1818.60
659.64	1855.46
659.83	1904.61
660.01	1990.63
660.20	1972.19
660.39	1918.95
660.58	1665.00
660.76	1849.32
660.95	1767.40
661.14	1832.93
661.33	1787.88
661.51	1818.60
661.70	1785.83
661.89	1853.41
662.08	1798.12
662.26	1722.34
662.45	1720.29
662.64	1906.66
662.83	1869.80
663.01	1816.55
663.20	1746.92
663.39	1996.77
663.58	1755.11
663.76	1816.55
663.95	1810.40
664.14	1837.03
664.32	1773.54
664.51	1804.26
664.70	1748.97
664.89	1857.51
665.07	1751.01
665.26	1853.41
665.45	1808.36
665.64	1882.08
665.82	1783.78
666.01	1869.80
666.20	1742.82
666.38	1892.32
666.57	1927.14
666.76	2527.19
666.95	5576.62
667.13	13469.49
667.32	19822.29
667.51	23723.67
667.69	26125.94
667.88	25841.27
668.07	18929.38
668.25	14427.94
668.44	11757.39
668.63	9930.60
668.81	8697.72
669.00	7739.27
669.19	6936.47
669.38	6100.90
669.56	5498.80
669.75	4497.34
669.94	3823.56
670.12	3057.62
670.31	2699.22
670.50	2455.51
670.68	2162.66
670.87	2002.91
671.06	1935.33
671.24	1949.67
671.43	2078.69
671.62	1947.62
671.80	1806.31
671.99	1843.17
672.18	1822.69
672.36	1890.28
672.55	1824.74
672.74	1869.80
672.92	1820.64
673.11	1880.04
673.29	1802.21
673.48	1908.71
673.67	1728.49
673.85	1908.71
674.04	1787.88
674.23	1865.70
674.41	1927.14
674.60	1826.79
674.79	1771.49
674.97	1785.83
675.16	1855.46
675.34	1959.91
675.53	1810.40
675.72	1892.32
675.90	1951.71
676.09	1796.07
676.28	1841.12
676.46	1736.68
676.65	1894.37
676.83	1759.21
677.02	1761.25
677.21	1804.26
677.39	1845.22
677.58	1724.39
677.77	1837.03
677.95	1759.21
678.14	1744.87
678.32	1812.45
678.51	1816.55
678.70	1976.29
678.88	1824.74
679.07	1841.12
679.25	1806.31
679.44	1701.86
679.63	1802.21
679.81	1877.99
680.00	1910.75
680.18	1875.94
680.37	1877.99
680.55	1869.80
680.74	1730.53
680.93	1689.57
681.11	1894.37
681.30	1794.02
681.48	1861.60
681.67	1853.41
681.85	1849.32
682.04	1771.49
682.23	1834.98
682.41	1804.26
682.60	1791.97
682.78	1886.18
682.97	1765.35
683.15	1908.71
683.34	1898.47
683.53	1943.52
683.71	1708.01
683.90	1908.71
684.08	1933.28
684.27	1820.64
684.45	1898.47
684.64	1937.38
684.82	1761.25
685.01	1947.62
685.19	1877.99
685.38	1804.26
685.57	1857.51
685.75	1779.68
685.94	1736.68
686.12	1726.44
686.31	1847.27
686.49	1927.14
686.68	1681.38
686.86	1834.98
687.05	1812.45
687.23	1869.80
687.42	1722.34
687.60	1720.29
687.79	1900.52
687.97	1982.43
688.16	1943.52
688.34	1873.89
688.53	1781.73
688.71	1810.40
688.90	1884.13
689.08	1910.75
689.27	1736.68
689.45	1830.88
689.64	1837.03
689.82	1869.80
690.01	1783.78
690.19	1892.32
690.38	1880.04
690.56	1877.99
690.75	1886.18
690.93	1773.54
691.12	1812.45
691.30	1853.41
691.49	1789.92
691.67	1771.49
691.86	1910.75
692.04	1796.07
692.23	1820.64
692.41	1871.84
692.60	1939.43
692.78	2011.11
692.97	1918.95
693.15	1931.23
693.34	1974.24
693.52	1951.71
693.71	1826.79
693.89	1877.99
694.08	1763.30
694.26	1953.76
694.44	1877.99
694.63	1855.46
694.81	1716.20
695.00	1814.50
695.18	1837.03
695.37	2068.45
695.55	1910.75
695.74	1851.36
695.92	1824.74
696.10	1929.19
696.29	1781.73
696.47	1708.01
696.66	1644.52
696.84	1808.36
697.03	1843.17
697.21	1937.38
697.40	2449.37
697.58	1918.95
697.76	1845.22
697.95	1765.35
698.13	1759.21
698.32	1816.55
698.50	1732.58
698.68	1847.27
698.87	1820.64
699.05	1947.62
699.24	1847.27
699.42	1789.92
699.61	1820.64
699.79	1810.40
699.97	1814.50
700.16	1798.12
700.34	1814.50
700.53	1841.12
700.71	1925.09
700.89	1933.28
701.08	1824.74
701.26	1857.51
701.45	2273.25
701.63	1857.51
701.81	1802.21
702.00	1808.36
702.18	1828.84
702.37	1812.45
702.55	2017.25
702.73	2021.35
702.92	1953.76
703.10	2176.99
703.28	2009.06
703.47	1935.33
703.65	1998.82
703.84	2023.39
704.02	1865.70
704.20	1953.76
704.39	1931.23
704.57	1853.41
704.75	1865.70
704.94	1914.85
705.12	1845.22
705.30	1968.10
705.49	3041.23
705.67	7182.23
705.86	15955.72
706.04	21550.78
706.22	25067.14
706.41	26943.08
706.59	25448.06
706.77	18818.78
706.96	14188.33
707.14	12218.18
707.32	10585.95
707.51	9303.92
707.69	8132.48
707.87	6746.01
708.06	5382.06
708.24	4114.37
708.42	3391.44
708.61	2766.81
708.79	2260.96
708.97	2199.52
709.16	2037.73
709.34	1978.34
709.52	1855.46
709.71	1853.41
709.89	1839.08
710.07	1865.70
710.26	1785.83
710.44	1832.93
710.62	1910.75
710.80	1896.42
710.99	1824.74
711.17	1929.19
711.35	1773.54
711.54	1824.74
711.72	1867.75
711.90	1822.69
712.09	1945.57
712.27	1767.40
712.45	1890.28
712.63	1771.49
712.82	1898.47
713.00	1832.93
713.18	1808.36
713.37	1898.47
713.55	1820.64
713.73	1824.74
713.91	1802.21
714.10	1816.55
714.28	1859.56
714.46	1851.36
714.65	1781.73
714.83	1837.03
715.01	1822.69
715.19	1916.90
715.38	1777.64
715.56	1834.98
715.74	1773.54
715.92	1773.54
716.11	1902.56
716.29	1669.09
716.47	1800.16
716.65	1800.16
716.84	1751.01
717.02	1841.12
717.20	1785.83
717.38	1843.17
717.57	1859.56
717.75	1816.55
717.93	1759.21
718.11	1822.69
718.30	1734.63
718.48	1898.47
718.66	1906.66
718.84	1865.70
719.03	1845.22
719.21	1714.15
719.39	1888.23
719.57	1875.94
719.75	1857.51
719.94	1849.32
720.12	1796.07
720.30	1828.84
720.48	1894.37
720.67	1705.96
720.85	1730.53
721.03	1779.68
721.21	1728.49
721.39	1898.47
721.58	1779.68
721.76	1738.73
721.94	1787.88
722.12	1863.65
722.30	1931.23
722.49	1794.02
722.67	1845.22
722.85	1875.94
723.03	1728.49
723.21	1810.40
723.40	1880.04
723.58	1873.89
723.76	1812.45
723.94	1929.19
724.12	1931.23
724.30	1998.82
724.49	1980.39
724.67	1798.12
724.85	1945.57
725.03	1763.30
725.21	1873.89
725.40	1888.23
725.58	1894.37
725.76	1849.32
725.94	1857.51
726.12	1742.82
726.30	1820.64
726.49	1814.50
726.67	1865.70
726.85	1914.85
727.03	1990.63
727.21	2602.97
727.39	4155.33
727.57	5609.39
727.76	6164.39
727.94	6895.51
728.12	6686.62
728.30	5902.25
728.48	4675.51
728.66	4224.96
728.84	3772.36
729.03	3309.52
729.21	2944.98
729.39	2516.95
729.57	2187.23
729.75	2050.02
729.93	1992.67
730.11	1837.03
730.30	1871.84
730.48	1886.18
730.66	1925.09
730.84	1822.69
731.02	1855.46
731.20	1839.08
731.38	1765.35
731.56	1757.16
731.74	1765.35
731.93	1822.69
732.11	1746.92
732.29	1806.31
732.47	1818.60
732.65	1779.68
732.83	1916.90
733.01	1787.88
733.19	1742.82
733.37	1910.75
733.56	1824.74
733.74	1740.77
733.92	1845.22
734.10	1744.87
734.28	1806.31
734.46	1728.49
734.64	1757.16
734.82	1800.16
735.00	1779.68
735.18	1783.78
735.36	1845.22
735.54	1826.79
735.73	1834.98
735.91	1820.64
736.09	1896.42
736.27	1757.16
736.45	1830.88
736.63	1697.77
736.81	1753.06
736.99	1820.64
737.17	1935.33
737.35	1751.01
737.53	1808.36
737.71	1814.50
737.89	1923.04
738.07	1794.02
738.25	1759.21
738.43	1759.21
738.61	1738.73
738.80	1779.68
738.98	1880.04
739.16	1832.93
739.34	1785.83
739.52	1845.22
739.70	1742.82
739.88	1902.56
740.06	1898.47
740.24	1708.01
740.42	1824.74
740.60	1775.59
740.78	1791.97
740.96	1753.06
741.14	1832.93
741.32	1863.65
741.50	1794.02
741.68	1939.43
741.86	1847.27
742.04	1744.87
742.22	1667.05
742.40	1810.40
742.58	1824.74
742.76	1794.02
742.94	1880.04
743.12	1740.77
743.30	1753.06
743.48	1882.08
743.66	1875.94
743.84	1839.08
744.02	1798.12
744.20	1785.83
744.38	1763.30
744.56	1683.43
744.74	1923.04
744.92	1837.03
745.10	1873.89
745.28	1845.22
745.46	1865.70
745.64	1779.68
745.82	1882.08
746.00	1828.84
746.18	1832.93
746.36	1820.64
746.54	1748.97
746.72	1773.54
746.90	1869.80
747.08	1877.99
747.26	1818.60
747.44	1863.65
747.62	1810.40
747.80	1847.27
747.98	1886.18
748.15	1812.45
748.33	1949.67
748.51	1849.32
748.69	1882.08
748.87	1771.49
749.05	1718.25
749.23	1771.49
749.41	1849.32
749.59	1826.79
749.77	1865.70
749.95	1847.27
750.13	1861.60
750.31	1935.33
750.49	1826.79
750.67	1902.56
750.85	1902.56
751.03	1822.69
751.20	1918.95
751.38	1794.02
751.56	1724.39
751.74	1832.93
751.92	1824.74
752.10	1759.21
752.28	1923.04
752.46	1789.92
752.64	1791.97
752.82	1847.27
753.00	1843.17
753.18	1806.31
753.35	1849.32
753.53	1861.60
753.71	1751.01
753.89	1845.22
754.07	1822.69
754.25	1841.12
754.43	1869.80
754.61	1783.78
754.79	1892.32
754.97	1849.32
755.14	1892.32
755.32	1828.84
755.50	1867.75
755.68	1812.45
755.86	1806.31
756.04	1796.07
756.22	1769.44
756.40	1830.88
756.57	1939.43
756.75	1763.30
756.93	1927.14
757.11	1875.94
757.29	1724.39
757.47	1820.64
757.65	1759.21
757.82	1744.87
758.00	1785.83
758.18	1822.69
758.36	1861.60
758.54	1931.23
758.72	1710.05
758.90	1898.47
759.07	1800.16
759.25	1705.96
759.43	1845.22
759.61	1753.06
759.79	2375.64
759.97	1845.22
760.15	1773.54
760.32	1828.84
760.50	1748.97
760.68	1947.62
760.86	1751.01
761.04	1931.23
761.22	1859.56
761.39	1755.11
761.57	1847.27
761.75	1830.88
761.93	1826.79
762.11	1728.49
762.28	1828.84
762.46	1724.39
762.64	1867.75
762.82	1718.25
763.00	1841.12
763.18	1890.28
763.35	1699.81
763.53	1853.41
763.71	1853.41
763.89	1820.64
764.07	1783.78
764.24	1828.84
764.42	1900.52
764.60	1861.60
764.78	1849.32
764.96	1857.51
765.13	1851.36
765.31	1767.40
765.49	1880.04
765.67	1681.38
765.84	1769.44
766.02	1753.06
766.20	1728.49
766.38	1837.03
766.56	1855.46
766.73	1812.45
766.91	1759.21
767.09	1849.32
767.27	1837.03
767.44	1857.51
767.62	1884.13
767.80	1830.88
767.98	1824.74
768.15	1771.49
768.33	1929.19
768.51	1867.75
768.69	1867.75
768.87	1816.55
769.04	1794.02
769.22	1951.71
769.40	2023.39
769.58	2035.68
769.75	1812.45
769.93	2013.15
770.11	1814.50
770.28	1773.54
770.46	1900.52
770.64	1816.55
770.82	1767.40
770.99	1777.64
771.17	1978.34
771.35	1814.50
771.53	1837.03
771.70	1763.30
771.88	1828.84
772.06	1773.54
772.23	1781.73
772.41	1869.80
772.59	1751.01
772.77	1810.40
772.94	1814.50
773.12	1888.23
773.30	1800.16
773.47	1820.64
773.65	1683.43
773.83	1912.80
774.01	1783.78
774.18	1714.15
774.36	1808.36
774.54	1755.11
774.71	1773.54
774.89	1777.64
775.07	1863.65
775.24	1736.68
775.42	1746.92
775.60	1951.71
775.78	1816.55
775.95	1759.21
776.13	1734.63
776.31	1705.96
776.48	1855.46
776.66	1894.37
776.84	1794.02
777.01	1806.31
777.19	1839.08
777.37	1751.01
777.54	1812.45
777.72	1947.62
777.90	1785.83
778.07	1798.12
778.25	2004.96
778.43	1863.65
778.60	1759.21
778.78	1916.90
778.96	1927.14
779.13	1767.40
779.31	1894.37
779.49	1863.65
779.66	1773.54
779.84	1808.36
780.01	1808.36
780.19	1718.25
780.37	1822.69
780.54	1892.32
780.72	1748.97
780.90	1814.50
781.07	1753.06
781.25	1742.82
781.43	1865.70
781.60	1804.26
781.78	1931.23
781.95	1830.88
782.13	1802.21
782.31	1859.56
782.48	1697.77
782.66	1781.73
782.83	1855.46
783.01	1851.36
783.19	1880.04
783.36	1783.78
783.54	1712.10
783.72	1882.08
783.89	1787.88
784.07	1857.51
784.24	1791.97
784.42	1882.08
784.60	1781.73
784.77	1789.92
784.95	1656.81
785.12	1800.16
785.30	1832.93
785.47	1779.68
785.65	1808.36
785.83	1722.34
786.00	1740.77
786.18	1894.37
786.35	1746.92
786.53	1761.25
786.71	1791.97
786.88	1861.60
787.06	1789.92
787.23	1705.96
787.41	1751.01
787.58	1775.59
787.76	1802.21
787.94	1742.82
788.11	1828.84
788.29	1751.01
788.46	1769.44
788.64	1789.92
788.81	1843.17
788.99	1718.25
789.16	1730.53
789.34	1849.32
789.52	1791.97
789.69	1828.84
789.87	1740.77
790.04	1738.73
790.22	1800.16
790.39	1968.10
790.57	1775.59
790.74	1714.15
790.92	1853.41
791.09	1771.49
791.27	1822.69
791.44	1837.03
791.62	1890.28
791.79	1791.97
791.97	1804.26
792.15	1970.15
792.32	1877.99
792.50	1843.17
792.67	1845.22
792.85	1949.67
793.02	1761.25
793.20	1779.68
793.37	1742.82
793.55	1871.84
793.72	1744.87
793.90	1894.37
794.07	1746.92
794.25	1757.16
794.42	1839.08
794.60	1834.98
794.77	1781.73
794.95	1849.32
795.12	1843.17
795.30	1808.36
795.47	1648.61
795.65	1986.53
795.82	1806.31
796.00	1738.73
796.17	1851.36
796.34	1677.29
796.52	1767.40
796.69	1849.32
796.87	1861.60
797.04	1810.40
797.22	1949.67
797.39	1849.32
797.57	1834.98
797.74	1877.99
797.92	1847.27
798.09	1781.73
798.27	1847.27
798.44	1882.08
798.62	1794.02
798.79	1828.84
798.96	1847.27
799.14	1794.02
799.31	1943.52
799.49	1796.07
799.66	1828.84
799.84	1816.55
800.01	1800.16
800.19	1818.60
800.36	1716.20
800.53	1812.45
800.71	1851.36
800.88	1863.65
801.06	1779.68
801.23	1777.64
801.41	1800.16
801.58	1755.11
801.75	1748.97
801.93	1871.84
802.10	1877.99
802.28	1814.50
802.45	1853.41
802.63	1873.89
802.80	1810.40
802.97	1746.92
803.15	1808.36
803.32	1814.50
803.50	1687.53
803.67	1781.73
803.84	1681.38
804.02	1744.87
804.19	1759.21
804.37	1632.23
804.54	1638.38
804.71	1796.07
804.89	1775.59
805.06	1806.31
805.24	1806.31
805.41	1757.16
805.58	1699.81
805.76	1986.53
805.93	1806.31
806.10	1849.32
806.28	1781.73
806.45	1849.32
806.63	1763.30
806.80	1773.54
806.97	1812.45
807.15	1826.79
807.32	1800.16
807.49	1814.50
807.67	1759.21
807.84	1837.03
808.01	1767.40
808.19	1992.67
808.36	1869.80
808.54	1744.87
808.71	1732.58
808.88	1820.64
809.06	1851.36
809.23	1800.16
809.40	1742.82
809.58	1882.08
809.75	1841.12
809.92	1746.92
810.10	2004.96
810.27	1794.02
810.44	1834.98
810.62	1955.81
810.79	1798.12
810.96	1787.88
811.14	1763.30
811.31	1775.59
811.48	1873.89
811.66	1839.08
811.83	1849.32
812.00	1828.84
812.18	1869.80
812.35	2004.96
812.52	1798.12
812.69	1691.62
812.87	1781.73
813.04	1787.88
813.21	1800.16
813.39	1767.40
813.56	1769.44
813.73	1851.36
813.91	1759.21
814.08	1828.84
814.25	1828.84
814.42	1677.29
814.60	1796.07
814.77	1773.54
814.94	1773.54
815.12	1767.40
815.29	1853.41
815.46	1763.30
815.63	1830.88
815.81	1802.21
815.98	1804.26
816.15	1767.40
816.33	1785.83
816.50	1824.74
816.67	1810.40
816.84	1857.51
817.02	1794.02
817.19	1804.26
817.36	1814.50
817.53	1853.41
817.71	1728.49
817.88	1871.84
818.05	1818.60
818.22	1806.31
818.40	1982.43
818.57	1796.07
818.74	1847.27
818.91	1767.40
819.09	1841.12
819.26	1890.28
819.43	1791.97
819.60	1800.16
819.78	1853.41
819.95	1918.95
820.12	1738.73
820.29	1906.66
820.47	1857.51
820.64	1771.49
820.81	1755.11
820.98	1773.54
821.15	1875.94
821.33	1896.42
821.50	1808.36
821.67	1851.36
821.84	1769.44
822.02	1773.54
822.19	1877.99
822.36	1767.40
822.53	1804.26
822.70	1738.73
822.88	1746.92
823.05	1943.52
823.22	1789.92
823.39	1902.56
823.56	1806.31
823.74	1830.88
823.91	1767.40
824.08	1722.34
824.25	1738.73
824.42	1865.70
824.60	1728.49
824.77	1832.93
824.94	1796.07
825.11	1857.51
825.28	1669.09
825.45	1808.36
825.63	1832.93
825.80	1728.49
825.97	1834.98
826.14	1828.84
826.31	1710.05
826.48	1822.69
826.66	1800.16
826.83	1742.82
827.00	1927.14
827.17	1791.97
827.34	1785.83
827.51	1812.45
827.69	1810.40
827.86	1708.01
828.03	1865.70
828.20	1818.60
828.37	1679.33
828.54	1828.84
828.71	1757.16
828.89	1791.97
829.06	1882.08
829.23	1918.95
829.40	1728.49
829.57	1742.82
829.74	1828.84
829.91	1775.59
830.09	1810.40
830.26	1837.03
830.43	1845.22
830.60	1748.97
830.77	1855.46
830.94	1951.71
831.11	1900.52
831.28	1820.64
831.46	1775.59
831.63	1798.12
831.80	1867.75
831.97	1804.26
832.14	1759.21
832.31	1882.08
832.48	1828.84
832.65	1943.52
832.82	1834.98
832.99	1830.88
833.17	1777.64
833.34	1933.28
833.51	1933.28
833.68	1677.29
833.85	1769.44
834.02	1740.77
834.19	1734.63
834.36	1773.54
834.53	1857.51
834.70	1904.61
834.87	1832.93
835.04	1779.68
835.22	1781.73
835.39	1736.68
835.56	1730.53
835.73	1787.88
835.90	1865.70
836.07	1822.69
836.24	1837.03
836.41	1728.49
836.58	1679.33
836.75	1890.28
836.92	1875.94
837.09	1710.05
837.26	1824.74
837.43	1880.04
837.60	1890.28
837.77	1712.10
837.94	1839.08
838.12	1853.41
838.29	1812.45
838.46	1775.59
838.63	1759.21
838.80	1873.89
838.97	1841.12
839.14	1804.26
839.31	1912.80
839.48	1798.12
839.65	1728.49
839.82	1802.21
839.99	1867.75
840.16	1783.78
840.33	1744.87
840.50	1800.16
840.67	1755.11
840.84	1650.66
841.01	1832.93
841.18	1912.80
841.35	1808.36
841.52	1892.32
841.69	1923.04
841.86	1830.88
842.03	1773.54
842.20	1867.75
842.37	1822.69
842.54	1730.53
842.71	1824.74
842.88	1726.44
843.05	1802.21
843.22	1791.97
843.39	1816.55
843.56	1779.68
843.73	1853.41
843.90	1808.36
844.07	1798.12
844.24	1841.12
844.41	1810.40
844.58	1837.03
844.75	1775.59
844.92	1843.17
845.09	1767.40
845.26	1660.90
845.43	1847.27
845.60	1763.30
845.77	1859.56
845.94	1806.31
846.10	1890.28
846.27	1724.39
846.44	1705.96
846.61	1748.97
846.78	1855.46
846.95	1847.27
847.12	1777.64
847.29	1783.78
847.46	1845.22
847.63	1875.94
847.80	1767.40
847.97	1730.53
848.14	1890.28
848.31	1810.40
848.48	1783.78
848.65	1787.88
848.82	1744.87
848.98	1935.33
849.15	1796.07
849.32	1916.90
849.49	1861.60
849.66	1771.49
849.83	1837.03
850.00	1718.25
850.17	1873.89
850.34	1771.49
850.51	1710.05
850.68	1800.16
850.85	1853.41
851.01	1841.12
851.18	1822.69
851.35	1771.49
851.52	1877.99
851.69	1849.32
851.86	1804.26
852.03	1794.02
852.20	1791.97
852.37	1796.07
852.53	1734.63
852.70	1781.73
852.87	1843.17
853.04	1841.12
853.21	1849.32
853.38	1804.26
853.55	1816.55
853.72	1888.23
853.89	1767.40
854.05	1695.72
854.22	1767.40
854.39	1751.01
854.56	1857.51
854.73	1841.12
854.90	1738.73
855.07	1808.36
855.23	1759.21
855.40	1859.56
855.57	1837.03
855.74	1736.68
855.91	1933.28
856.08	1654.76
856.25	1648.61
856.41	1785.83
856.58	1675.24
856.75	1884.13
856.92	1800.16
857.09	1814.50
857.26	1679.33
857.42	1759.21
857.59	1841.12
857.76	1736.68
857.93	1853.41
858.10	1845.22
858.27	1710.05
858.43	1812.45
858.60	1759.21
858.77	1718.25
858.94	1761.25
859.11	1912.80
859.27	1783.78
859.44	1759.21
859.61	1890.28
859.78	1816.55
859.95	1757.16
860.12	1755.11
860.28	1912.80
860.45	1914.85
860.62	1798.12
860.79	1763.30
860.95	1796.07
861.12	1712.10
861.29	1755.11
861.46	1789.92
861.63	1699.81
861.79	1775.59
861.96	1755.11
862.13	1710.05
862.30	1867.75
862.47	1714.15
862.63	1755.11
862.80	1857.51
862.97	1859.56
863.14	1808.36
863.30	1765.35
863.47	1849.32
863.64	1894.37
863.81	1800.16
863.97	1820.64
864.14	1865.70
864.31	1769.44
864.48	1810.40
864.65	1800.16
864.81	1849.32
864.98	1910.75
865.15	1877.99
865.32	1855.46
865.48	1834.98
865.65	1847.27
865.82	1732.58
865.98	1839.08
866.15	1845.22
866.32	1787.88
866.49	1789.92
866.65	1927.14
866.82	1751.01
866.99	1740.77
867.16	1814.50
867.32	1769.44
867.49	1808.36
867.66	1775.59
867.83	1808.36
867.99	1703.91
868.16	1800.16
868.33	1804.26
868.49	1796.07
868.66	1837.03
868.83	1898.47
868.99	1810.40
869.16	1892.32
869.33	1822.69
869.50	1880.04
869.66	1791.97
869.83	1785.83
870.00	1722.34
870.16	1818.60
870.33	1751.01
870.50	1798.12
870.66	1746.92
870.83	1851.36
871.00	1814.50
871.17	1818.60
871.33	1775.59
871.50	1753.06
871.67	1773.54
871.83	1724.39
872.00	1927.14
872.17	1806.31
872.33	1888.23
872.50	1873.89
872.67	1783.78
872.83	1746.92
873.00	1824.74
873.17	1812.45
873.33	1837.03
873.50	1837.03
873.67	1789.92
873.83	1744.87
874.00	1828.84
874.16	1892.32
874.33	1828.84
874.50	1705.96
874.66	1837.03
874.83	1769.44
875.00	1918.95
875.16	1896.42
875.33	1906.66
875.50	1669.09
875.66	1814.50
875.83	1841.12
875.99	1837.03
876.16	1826.79
876.33	1693.67
876.49	1794.02
876.66	1810.40
876.83	1757.16
876.99	1671.14
877.16	1779.68
877.32	1785.83
877.49	1755.11
877.66	1765.35
877.82	1970.15
877.99	1857.51
878.15	1787.88
878.32	1826.79
878.49	1839.08
878.65	1843.17
878.82	1955.81
878.98	1759.21
879.15	1810.40
879.32	1847.27
879.48	1798.12
879.65	1800.16
879.81	1787.88
879.98	1771.49
880.15	1820.64
880.31	1775.59
880.48	1789.92
880.64	1859.56
880.81	1875.94
880.97	1898.47
881.14	1824.74
881.31	1738.73
881.47	1961.95
881.64	1746.92
881.80	1697.77
881.97	1834.98
882.13	1892.32
882.30	1703.91
882.47	1689.57
882.63	1800.16
882.80	1726.44
882.96	1800.16
883.13	1884.13
883.29	1742.82
883.46	1873.89
883.62	1976.29
883.79	1820.64
883.95	1855.46
884.12	1837.03
884.29	1865.70
884.45	1767.40
884.62	1822.69
884.78	1751.01
884.95	1941.47
885.11	1767.40
885.28	1820.64
885.44	1841.12
885.61	1843.17
885.77	1880.04
885.94	1843.17
886.10	1841.12
886.27	1798.12
886.43	1937.38
886.60	1912.80
886.76	1751.01
886.93	1742.82
887.09	1812.45
887.26	1712.10
887.42	1787.88
887.59	1873.89
887.75	1906.66
887.92	1837.03
888.08	1847.27
888.25	1959.91
888.41	1834.98
888.58	1828.84
888.74	1738.73
888.91	1779.68
>>>>>End Processed Spectral Data<<<<<
