SpectraSuite Data File
++++++++++++++++++++++++++++++++++++
Date: Wed May 04 21:13:04 CEST 2016
User: root
Dark Spectrum Present: No
Reference Spectrum Present: No
Number of Sampled Component Spectra: 1
Spectrometers: USB4C02835
Integration Time (usec): 100000 (USB4C02835)
Spectra Averaged: 1 (USB4C02835)
Boxcar Smoothing: 0 (USB4C02835)
Correct for Electrical Dark: No (USB4C02835)
Strobe/Lamp Enabled: No (USB4C02835)
Correct for Detector Non-linearity: No (USB4C02835)
Correct for Stray Light: No (USB4C02835)
Number of Pixels in Processed Spectrum: 3648
>>>>>Begin Processed Spectral Data<<<<<
177.47	1560.55
177.69	1560.55
177.91	1560.55
178.13	1552.36
178.36	1503.21
178.58	1767.40
178.80	1761.25
179.02	1654.76
179.24	1804.26
179.46	1751.01
179.68	1787.88
179.90	1724.39
180.13	1849.32
180.35	1798.12
180.57	1865.70
180.79	1837.03
181.01	1818.60
181.23	1873.89
181.45	1896.42
181.67	1828.84
181.90	1853.41
182.12	1751.01
182.34	1837.03
182.56	1871.84
182.78	1812.45
183.00	1814.50
183.22	1785.83
183.44	1775.59
183.66	1929.19
183.89	1937.38
184.11	1757.16
184.33	1818.60
184.55	1849.32
184.77	1818.60
184.99	1824.74
185.21	1755.11
185.43	2011.11
185.65	1763.30
185.87	1853.41
186.10	1857.51
186.32	1861.60
186.54	1841.12
186.76	1837.03
186.98	1877.99
187.20	1777.64
187.42	1865.70
187.64	1800.16
187.86	1785.83
188.08	1871.84
188.30	1769.44
188.52	1837.03
188.75	1877.99
188.97	1976.29
189.19	1816.55
189.41	1830.88
189.63	1865.70
189.85	1808.36
190.07	1775.59
190.29	1746.92
190.51	1847.27
190.73	1730.53
190.95	1896.42
191.17	1757.16
191.39	1714.15
191.61	1767.40
191.84	1796.07
192.06	1773.54
192.28	1677.29
192.50	2050.02
192.72	1863.65
192.94	1837.03
193.16	1851.36
193.38	1863.65
193.60	1724.39
193.82	1796.07
194.04	1882.08
194.26	1826.79
194.48	1798.12
194.70	1783.78
194.92	1804.26
195.14	1826.79
195.36	1730.53
195.58	1882.08
195.80	1806.31
196.02	1714.15
196.24	1826.79
196.46	1834.98
196.69	1806.31
196.91	1988.58
197.13	1812.45
197.35	1755.11
197.57	1914.85
197.79	1804.26
198.01	1814.50
198.23	1806.31
198.45	1798.12
198.67	1734.63
198.89	1763.30
199.11	1939.43
199.33	1740.77
199.55	1732.58
199.77	1767.40
199.99	1834.98
200.21	1853.41
200.43	1824.74
200.65	1789.92
200.87	1693.67
201.09	1837.03
201.31	1767.40
201.53	1787.88
201.75	1910.75
201.97	1851.36
202.19	1765.35
202.41	1849.32
202.63	1949.67
202.85	1859.56
203.07	1779.68
203.29	1724.39
203.51	1736.68
203.73	1738.73
203.95	2031.58
204.17	1845.22
204.39	1845.22
204.61	1800.16
204.83	1753.06
205.05	1865.70
205.27	1798.12
205.49	1927.14
205.71	1734.63
205.93	1677.29
206.15	1685.48
206.37	1783.78
206.59	1763.30
206.81	1722.34
207.03	1691.62
207.25	1732.58
207.47	1857.51
207.69	1767.40
207.91	1925.09
208.13	1951.71
208.34	1759.21
208.56	1710.05
208.78	1865.70
209.00	1787.88
209.22	1779.68
209.44	1777.64
209.66	1781.73
209.88	1857.51
210.10	1779.68
210.32	1812.45
210.54	1867.75
210.76	1822.69
210.98	1839.08
211.20	1642.47
211.42	1859.56
211.64	1884.13
211.86	1853.41
212.08	1859.56
212.30	1855.46
212.52	1824.74
212.74	1814.50
212.96	1773.54
213.17	1855.46
213.39	1855.46
213.61	1900.52
213.83	1787.88
214.05	1845.22
214.27	1853.41
214.49	1734.63
214.71	1710.05
214.93	1910.75
215.15	1726.44
215.37	1845.22
215.59	1681.38
215.81	1781.73
216.03	1910.75
216.24	1794.02
216.46	1800.16
216.68	1894.37
216.90	1857.51
217.12	1906.66
217.34	1783.78
217.56	1849.32
217.78	1890.28
218.00	1828.84
218.22	1789.92
218.44	1820.64
218.66	1820.64
218.87	1996.77
219.09	1732.58
219.31	1796.07
219.53	1791.97
219.75	1822.69
219.97	1851.36
220.19	1812.45
220.41	1748.97
220.63	1908.71
220.85	1796.07
221.06	1718.25
221.28	1869.80
221.50	1863.65
221.72	1863.65
221.94	1779.68
222.16	1886.18
222.38	1863.65
222.60	1916.90
222.82	1787.88
223.03	1896.42
223.25	1751.01
223.47	1832.93
223.69	1929.19
223.91	1877.99
224.13	1812.45
224.35	1763.30
224.57	1787.88
224.78	1828.84
225.00	1777.64
225.22	1787.88
225.44	1767.40
225.66	1818.60
225.88	1796.07
226.10	1865.70
226.32	1845.22
226.53	1871.84
226.75	1767.40
226.97	1857.51
227.19	1828.84
227.41	1736.68
227.63	1794.02
227.85	1654.76
228.06	1826.79
228.28	1818.60
228.50	1845.22
228.72	1771.49
228.94	1765.35
229.16	1753.06
229.37	1726.44
229.59	1820.64
229.81	1834.98
230.03	1751.01
230.25	1708.01
230.47	1789.92
230.69	1648.61
230.90	1894.37
231.12	1775.59
231.34	1781.73
231.56	1849.32
231.78	1767.40
232.00	1798.12
232.21	1796.07
232.43	1736.68
232.65	1734.63
232.87	1808.36
233.09	1804.26
233.30	1839.08
233.52	1863.65
233.74	1812.45
233.96	1671.14
234.18	1853.41
234.40	1791.97
234.61	1914.85
234.83	1726.44
235.05	1738.73
235.27	1966.05
235.49	1931.23
235.70	1779.68
235.92	1861.60
236.14	1888.23
236.36	1910.75
236.58	1779.68
236.79	1861.60
237.01	1789.92
237.23	1755.11
237.45	1980.39
237.67	1783.78
237.88	1822.69
238.10	1896.42
238.32	1759.21
238.54	1787.88
238.76	1781.73
238.97	1724.39
239.19	1814.50
239.41	1863.65
239.63	1824.74
239.85	1783.78
240.06	1759.21
240.28	1693.67
240.50	1873.89
240.72	1798.12
240.93	1849.32
241.15	1769.44
241.37	1882.08
241.59	1925.09
241.81	1761.25
242.02	1767.40
242.24	1845.22
242.46	1865.70
242.68	1744.87
242.89	1851.36
243.11	1828.84
243.33	1841.12
243.55	1839.08
243.76	1849.32
243.98	1826.79
244.20	1820.64
244.42	1779.68
244.64	1851.36
244.85	1714.15
245.07	1732.58
245.29	1791.97
245.51	1816.55
245.72	1794.02
245.94	1916.90
246.16	1834.98
246.38	1830.88
246.59	1806.31
246.81	1724.39
247.03	1824.74
247.24	1681.38
247.46	1837.03
247.68	1804.26
247.90	1746.92
248.11	1783.78
248.33	1873.89
248.55	1828.84
248.77	1818.60
248.98	1832.93
249.20	1961.95
249.42	1834.98
249.64	1796.07
249.85	1734.63
250.07	1794.02
250.29	1837.03
250.50	1820.64
250.72	1787.88
250.94	1763.30
251.16	1945.57
251.37	1927.14
251.59	1812.45
251.81	1898.47
252.02	1923.04
252.24	1812.45
252.46	1929.19
252.68	1794.02
252.89	1759.21
253.11	1791.97
253.33	1890.28
253.54	1892.32
253.76	1740.77
253.98	1773.54
254.20	1830.88
254.41	1722.34
254.63	1847.27
254.85	1714.15
255.06	1849.32
255.28	1851.36
255.50	1832.93
255.71	1753.06
255.93	1714.15
256.15	1853.41
256.36	1832.93
256.58	1837.03
256.80	1884.13
257.02	1834.98
257.23	1742.82
257.45	1773.54
257.67	1798.12
257.88	1724.39
258.10	1837.03
258.32	1892.32
258.53	1767.40
258.75	1890.28
258.97	1814.50
259.18	1804.26
259.40	1871.84
259.62	1941.47
259.83	1861.60
260.05	1853.41
260.27	2111.46
260.48	1845.22
260.70	1687.53
260.92	1744.87
261.13	1843.17
261.35	1810.40
261.57	1800.16
261.78	1810.40
262.00	1732.58
262.22	1796.07
262.43	1753.06
262.65	1863.65
262.86	1783.78
263.08	1918.95
263.30	1857.51
263.51	1677.29
263.73	1755.11
263.95	1951.71
264.16	1812.45
264.38	1679.33
264.60	1794.02
264.81	1806.31
265.03	1828.84
265.25	1818.60
265.46	1781.73
265.68	1902.56
265.89	1904.61
266.11	1644.52
266.33	1853.41
266.54	1767.40
266.76	1808.36
266.98	1853.41
267.19	1828.84
267.41	1900.52
267.62	1855.46
267.84	1712.10
268.06	1843.17
268.27	1773.54
268.49	1812.45
268.70	1826.79
268.92	1791.97
269.14	1783.78
269.35	1728.49
269.57	1830.88
269.79	1775.59
270.00	1703.91
270.22	1863.65
270.43	1818.60
270.65	1667.05
270.87	1798.12
271.08	1837.03
271.30	1830.88
271.51	1828.84
271.73	1877.99
271.95	1906.66
272.16	1851.36
272.38	1771.49
272.59	1736.68
272.81	1871.84
273.02	1802.21
273.24	1861.60
273.46	1865.70
273.67	1683.43
273.89	1767.40
274.10	1828.84
274.32	1910.75
274.54	1873.89
274.75	1824.74
274.97	1802.21
275.18	1861.60
275.40	1757.16
275.61	1703.91
275.83	1787.88
276.05	1837.03
276.26	1902.56
276.48	1851.36
276.69	1771.49
276.91	1751.01
277.12	1873.89
277.34	1863.65
277.55	1820.64
277.77	1855.46
277.99	1722.34
278.20	1796.07
278.42	1699.81
278.63	1843.17
278.85	1755.11
279.06	1722.34
279.28	1822.69
279.49	1890.28
279.71	1812.45
279.93	1814.50
280.14	1783.78
280.36	1800.16
280.57	1902.56
280.79	1837.03
281.00	1783.78
281.22	1837.03
281.43	1824.74
281.65	1744.87
281.86	1732.58
282.08	1882.08
282.29	1902.56
282.51	1734.63
282.73	1714.15
282.94	1660.90
283.16	1890.28
283.37	1982.43
283.59	1794.02
283.80	1816.55
284.02	1755.11
284.23	1757.16
284.45	1845.22
284.66	1816.55
284.88	1773.54
285.09	1791.97
285.31	1724.39
285.52	1845.22
285.74	1765.35
285.95	1853.41
286.17	1853.41
286.38	1902.56
286.60	1851.36
286.81	1806.31
287.03	1841.12
287.24	1742.82
287.46	1794.02
287.67	1828.84
287.89	1910.75
288.10	1841.12
288.32	1841.12
288.53	1810.40
288.75	1816.55
288.96	1849.32
289.18	1769.44
289.39	1751.01
289.61	1804.26
289.82	2027.49
290.04	1959.91
290.25	1728.49
290.47	1812.45
290.68	1777.64
290.90	1871.84
291.11	1710.05
291.33	1820.64
291.54	1734.63
291.76	1761.25
291.97	1875.94
292.18	1894.37
292.40	1789.92
292.61	1746.92
292.83	1931.23
293.04	1902.56
293.26	1834.98
293.47	1789.92
293.69	1677.29
293.90	1892.32
294.12	1873.89
294.33	1816.55
294.55	1779.68
294.76	1882.08
294.97	1873.89
295.19	2009.06
295.40	1824.74
295.62	1843.17
295.83	1882.08
296.05	1775.59
296.26	1877.99
296.48	1818.60
296.69	1775.59
296.90	1761.25
297.12	1880.04
297.33	1794.02
297.55	1851.36
297.76	1867.75
297.98	1787.88
298.19	1757.16
298.41	1794.02
298.62	1730.53
298.83	1925.09
299.05	1814.50
299.26	1824.74
299.48	1783.78
299.69	1779.68
299.90	1816.55
300.12	1728.49
300.33	1898.47
300.55	1753.06
300.76	1884.13
300.98	1718.25
301.19	1859.56
301.40	1794.02
301.62	1755.11
301.83	1783.78
302.05	1759.21
302.26	1814.50
302.47	1740.77
302.69	1791.97
302.90	1751.01
303.12	1693.67
303.33	1851.36
303.54	1943.52
303.76	1726.44
303.97	1796.07
304.19	1916.90
304.40	1800.16
304.61	1822.69
304.83	1972.19
305.04	1904.61
305.26	1867.75
305.47	1763.30
305.68	1769.44
305.90	1671.14
306.11	1783.78
306.33	1812.45
306.54	1804.26
306.75	1775.59
306.97	1728.49
307.18	1794.02
307.39	1779.68
307.61	1810.40
307.82	1742.82
308.04	1877.99
308.25	1746.92
308.46	1806.31
308.68	1777.64
308.89	1816.55
309.10	1863.65
309.32	1927.14
309.53	1802.21
309.74	1810.40
309.96	1746.92
310.17	1912.80
310.39	1812.45
310.60	1865.70
310.81	1851.36
311.03	1748.97
311.24	1861.60
311.45	1783.78
311.67	1902.56
311.88	1849.32
312.09	1808.36
312.31	1761.25
312.52	1822.69
312.73	1796.07
312.95	1685.48
313.16	1755.11
313.37	1937.38
313.59	1767.40
313.80	1869.80
314.01	1939.43
314.23	1746.92
314.44	1826.79
314.65	1748.97
314.87	1789.92
315.08	1818.60
315.29	1810.40
315.51	1724.39
315.72	1757.16
315.93	1925.09
316.15	1832.93
316.36	1742.82
316.57	1757.16
316.79	1859.56
317.00	1748.97
317.21	1880.04
317.43	1689.57
317.64	1837.03
317.85	1796.07
318.07	1806.31
318.28	1888.23
318.49	2021.35
318.70	2068.45
318.92	2037.73
319.13	2068.45
319.34	2035.68
319.56	1904.61
319.77	1890.28
319.98	1861.60
320.20	1896.42
320.41	1898.47
320.62	1877.99
320.83	1728.49
321.05	2017.25
321.26	1920.99
321.47	1857.51
321.69	1906.66
321.90	1708.01
322.11	1837.03
322.32	1765.35
322.54	1920.99
322.75	1761.25
322.96	1972.19
323.18	1691.62
323.39	1605.61
323.60	1730.53
323.81	1902.56
324.03	1812.45
324.24	1830.88
324.45	1763.30
324.66	1804.26
324.88	1869.80
325.09	1902.56
325.30	1802.21
325.52	1814.50
325.73	1820.64
325.94	1804.26
326.15	1681.38
326.37	1771.49
326.58	1841.12
326.79	1859.56
327.00	1716.20
327.22	1791.97
327.43	1837.03
327.64	1767.40
327.85	1775.59
328.07	1873.89
328.28	1941.47
328.49	1808.36
328.70	1791.97
328.92	1742.82
329.13	1802.21
329.34	1904.61
329.55	1955.81
329.76	1847.27
329.98	1812.45
330.19	1918.95
330.40	1886.18
330.61	1853.41
330.83	1808.36
331.04	1732.58
331.25	1822.69
331.46	1765.35
331.68	1732.58
331.89	1855.46
332.10	1798.12
332.31	1748.97
332.52	1828.84
332.74	1935.33
332.95	1683.43
333.16	1738.73
333.37	1832.93
333.58	1736.68
333.80	1798.12
334.01	1732.58
334.22	1771.49
334.43	1765.35
334.64	1714.15
334.86	1673.19
335.07	1769.44
335.28	1869.80
335.49	1699.81
335.70	1824.74
335.92	1902.56
336.13	1873.89
336.34	1802.21
336.55	1814.50
336.76	1882.08
336.98	1720.29
337.19	1791.97
337.40	1845.22
337.61	1937.38
337.82	1794.02
338.04	1869.80
338.25	1738.73
338.46	1810.40
338.67	1822.69
338.88	1798.12
339.09	1765.35
339.31	1761.25
339.52	1769.44
339.73	1775.59
339.94	1845.22
340.15	1820.64
340.36	1722.34
340.58	1796.07
340.79	1687.53
341.00	1837.03
341.21	1724.39
341.42	1873.89
341.63	1679.33
341.85	1894.37
342.06	1867.75
342.27	1759.21
342.48	1847.27
342.69	1703.91
342.90	1890.28
343.12	1918.95
343.33	1791.97
343.54	1837.03
343.75	1931.23
343.96	1767.40
344.17	1783.78
344.38	1828.84
344.60	1742.82
344.81	1771.49
345.02	1822.69
345.23	1892.32
345.44	2029.54
345.65	1777.64
345.86	1855.46
346.07	1769.44
346.29	1767.40
346.50	1853.41
346.71	1781.73
346.92	1880.04
347.13	1951.71
347.34	1855.46
347.55	1730.53
347.76	1837.03
347.98	1734.63
348.19	1818.60
348.40	1912.80
348.61	1794.02
348.82	1818.60
349.03	1834.98
349.24	1755.11
349.45	1951.71
349.66	1693.67
349.88	1826.79
350.09	1755.11
350.30	1767.40
350.51	1916.90
350.72	1869.80
350.93	1861.60
351.14	1773.54
351.35	1849.32
351.56	1818.60
351.77	1779.68
351.99	1855.46
352.20	1968.10
352.41	1865.70
352.62	1724.39
352.83	1748.97
353.04	1826.79
353.25	1728.49
353.46	1851.36
353.67	1828.84
353.88	1710.05
354.09	1855.46
354.30	1724.39
354.52	1890.28
354.73	1886.18
354.94	1830.88
355.15	1822.69
355.36	1867.75
355.57	1738.73
355.78	1880.04
355.99	1755.11
356.20	1759.21
356.41	1847.27
356.62	1806.31
356.83	1816.55
357.04	1900.52
357.25	1738.73
357.46	1832.93
357.68	1738.73
357.89	1812.45
358.10	1826.79
358.31	1953.76
358.52	1796.07
358.73	1761.25
358.94	1789.92
359.15	1808.36
359.36	1847.27
359.57	1841.12
359.78	1804.26
359.99	1798.12
360.20	1802.21
360.41	1742.82
360.62	1822.69
360.83	1812.45
361.04	1830.88
361.25	1953.76
361.46	1990.63
361.67	1812.45
361.88	1814.50
362.09	1923.04
362.30	1748.97
362.51	1775.59
362.72	1820.64
362.93	1865.70
363.14	1830.88
363.35	1875.94
363.56	1767.40
363.78	1806.31
363.99	1814.50
364.20	1877.99
364.41	1804.26
364.62	1943.52
364.83	1794.02
365.04	1830.88
365.25	1818.60
365.46	1925.09
365.67	1757.16
365.88	1806.31
366.09	1732.58
366.30	1820.64
366.51	1834.98
366.72	1705.96
366.93	1824.74
367.14	1843.17
367.35	1994.72
367.56	1894.37
367.77	1851.36
367.98	1849.32
368.18	1916.90
368.39	1902.56
368.60	1730.53
368.81	1841.12
369.02	1853.41
369.23	1834.98
369.44	1748.97
369.65	1744.87
369.86	1886.18
370.07	1814.50
370.28	1773.54
370.49	1892.32
370.70	1871.84
370.91	1634.28
371.12	1722.34
371.33	1873.89
371.54	1796.07
371.75	1902.56
371.96	1697.77
372.17	1890.28
372.38	1791.97
372.59	1863.65
372.80	1791.97
373.01	1828.84
373.22	1837.03
373.43	1830.88
373.64	1740.77
373.85	1884.13
374.06	1877.99
374.26	1877.99
374.47	1791.97
374.68	1964.00
374.89	1789.92
375.10	1787.88
375.31	1783.78
375.52	1697.77
375.73	1726.44
375.94	1810.40
376.15	1951.71
376.36	1800.16
376.57	1804.26
376.78	1708.01
376.99	1843.17
377.20	1837.03
377.40	1767.40
377.61	1939.43
377.82	1771.49
378.03	1882.08
378.24	1816.55
378.45	1890.28
378.66	1796.07
378.87	1677.29
379.08	1783.78
379.29	1769.44
379.50	1863.65
379.71	1826.79
379.91	1830.88
380.12	1806.31
380.33	1810.40
380.54	1828.84
380.75	1845.22
380.96	1757.16
381.17	1857.51
381.38	1800.16
381.59	1851.36
381.80	1843.17
382.00	1939.43
382.21	1923.04
382.42	1966.05
382.63	2025.44
382.84	1943.52
383.05	1966.05
383.26	1974.24
383.47	1894.37
383.68	1890.28
383.88	1898.47
384.09	1832.93
384.30	2004.96
384.51	1847.27
384.72	1775.59
384.93	1787.88
385.14	1806.31
385.35	1800.16
385.55	1748.97
385.76	1894.37
385.97	1877.99
386.18	1761.25
386.39	1777.64
386.60	1886.18
386.81	1787.88
387.02	1828.84
387.22	1814.50
387.43	1906.66
387.64	1974.24
387.85	1949.67
388.06	2224.09
388.27	4204.48
388.48	8775.55
388.68	11966.28
388.89	13780.78
389.10	14804.77
389.31	12990.27
389.52	10430.30
389.73	8925.05
389.93	8324.99
390.14	7628.68
390.35	6750.10
390.56	6283.17
390.77	5158.83
390.98	4052.93
391.18	3149.78
391.39	2402.27
391.60	1994.72
391.81	2031.58
392.02	1785.83
392.23	1968.10
392.43	1824.74
392.64	1957.86
392.85	1800.16
393.06	1939.43
393.27	1837.03
393.47	1820.64
393.68	1845.22
393.89	1757.16
394.10	1820.64
394.31	1812.45
394.52	1781.73
394.72	1781.73
394.93	1902.56
395.14	1830.88
395.35	1800.16
395.56	1869.80
395.76	1867.75
395.97	1841.12
396.18	1937.38
396.39	2002.91
396.60	2131.94
396.80	2103.26
397.01	2019.30
397.22	2009.06
397.43	1978.34
397.64	1808.36
397.84	1873.89
398.05	2125.79
398.26	1961.95
398.47	1988.58
398.67	1810.40
398.88	1896.42
399.09	1898.47
399.30	1820.64
399.51	1832.93
399.71	1722.34
399.92	1841.12
400.13	1820.64
400.34	1865.70
400.54	1841.12
400.75	1898.47
400.96	1898.47
401.17	1888.23
401.37	1873.89
401.58	1798.12
401.79	1859.56
402.00	1970.15
402.21	2160.61
402.41	2113.50
402.62	2222.05
402.83	2224.09
403.04	2209.76
403.24	2373.60
403.45	2004.96
403.66	2146.27
403.87	2052.06
404.07	2013.15
404.28	2039.78
404.49	1937.38
404.70	1898.47
404.90	1898.47
405.11	1861.60
405.32	1849.32
405.52	1769.44
405.73	1783.78
405.94	1720.29
406.15	1789.92
406.35	1920.99
406.56	1877.99
406.77	1814.50
406.98	1828.84
407.18	1802.21
407.39	1898.47
407.60	1802.21
407.80	1812.45
408.01	1800.16
408.22	1832.93
408.43	1724.39
408.63	1849.32
408.84	1820.64
409.05	1875.94
409.25	1714.15
409.46	1748.97
409.67	1726.44
409.88	1771.49
410.08	1867.75
410.29	1753.06
410.50	1814.50
410.70	1845.22
410.91	1804.26
411.12	1806.31
411.32	1851.36
411.53	1783.78
411.74	1914.85
411.95	1970.15
412.15	1941.47
412.36	1920.99
412.57	1871.84
412.77	1906.66
412.98	1888.23
413.19	1834.98
413.39	1834.98
413.60	1873.89
413.81	1906.66
414.01	1730.53
414.22	1849.32
414.43	1877.99
414.63	1890.28
414.84	1882.08
415.05	1800.16
415.25	1800.16
415.46	1880.04
415.67	1703.91
415.87	1871.84
416.08	1820.64
416.29	1773.54
416.49	1890.28
416.70	1716.20
416.91	1757.16
417.11	1759.21
417.32	1832.93
417.53	1832.93
417.73	1810.40
417.94	1861.60
418.15	1888.23
418.35	1851.36
418.56	1806.31
418.77	1937.38
418.97	1787.88
419.18	1841.12
419.38	1654.76
419.59	1861.60
419.80	1988.58
420.00	1884.13
420.21	1800.16
420.42	1796.07
420.62	1814.50
420.83	1703.91
421.04	1830.88
421.24	1863.65
421.45	1837.03
421.65	1812.45
421.86	1740.77
422.07	1845.22
422.27	1884.13
422.48	1849.32
422.69	1796.07
422.89	1826.79
423.10	1763.30
423.30	1697.77
423.51	1918.95
423.72	1816.55
423.92	1800.16
424.13	1794.02
424.33	1804.26
424.54	1880.04
424.75	1810.40
424.95	1918.95
425.16	1861.60
425.36	1779.68
425.57	1900.52
425.78	1830.88
425.98	1832.93
426.19	1847.27
426.39	1759.21
426.60	1742.82
426.81	1959.91
427.01	1863.65
427.22	1742.82
427.42	1677.29
427.63	1755.11
427.83	1847.27
428.04	1986.53
428.25	1900.52
428.45	1863.65
428.66	1808.36
428.86	1816.55
429.07	1757.16
429.28	1791.97
429.48	1757.16
429.69	1720.29
429.89	1787.88
430.10	1771.49
430.30	1935.33
430.51	1871.84
430.71	1814.50
430.92	1802.21
431.13	1785.83
431.33	1800.16
431.54	1873.89
431.74	1892.32
431.95	1910.75
432.15	1718.25
432.36	1763.30
432.56	1834.98
432.77	1857.51
432.98	1953.76
433.18	1824.74
433.39	1863.65
433.59	1779.68
433.80	1906.66
434.00	2019.30
434.21	1763.30
434.41	1816.55
434.62	1988.58
434.82	1751.01
435.03	1796.07
435.23	1804.26
435.44	1697.77
435.64	1865.70
435.85	1828.84
436.06	1914.85
436.26	1974.24
436.47	1839.08
436.67	1806.31
436.88	1830.88
437.08	1841.12
437.29	1927.14
437.49	1900.52
437.70	1933.28
437.90	1769.44
438.11	1912.80
438.31	2002.91
438.52	1964.00
438.72	2039.78
438.93	2105.31
439.13	1851.36
439.34	2015.20
439.54	1902.56
439.75	1884.13
439.95	1855.46
440.16	1820.64
440.36	1877.99
440.57	1867.75
440.77	1875.94
440.98	1933.28
441.18	1859.56
441.39	1783.78
441.59	1732.58
441.80	2002.91
442.00	1916.90
442.21	1931.23
442.41	1755.11
442.62	1834.98
442.82	1746.92
443.02	1818.60
443.23	1877.99
443.43	1757.16
443.64	1882.08
443.84	1822.69
444.05	2021.35
444.25	1910.75
444.46	1773.54
444.66	1820.64
444.87	1927.14
445.07	1722.34
445.28	1810.40
445.48	1906.66
445.69	1880.04
445.89	1974.24
446.09	1882.08
446.30	2101.22
446.50	2519.00
446.71	4188.10
446.91	5164.98
447.12	5908.39
447.32	6293.41
447.53	5707.69
447.73	4638.65
447.93	4237.25
448.14	3712.97
448.34	3473.36
448.55	3250.13
448.75	3090.38
448.96	3084.24
449.16	2856.92
449.36	2486.23
449.57	2199.52
449.77	2000.87
449.98	1904.61
450.18	2002.91
450.39	1875.94
450.59	1925.09
450.79	1890.28
451.00	1787.88
451.20	1898.47
451.41	1884.13
451.61	1877.99
451.81	1818.60
452.02	1847.27
452.22	1787.88
452.43	1783.78
452.63	1847.27
452.84	1869.80
453.04	1783.78
453.24	1843.17
453.45	1755.11
453.65	1855.46
453.86	1914.85
454.06	1882.08
454.26	1832.93
454.47	1837.03
454.67	1947.62
454.87	1812.45
455.08	1849.32
455.28	1988.58
455.49	1841.12
455.69	1857.51
455.89	1959.91
456.10	1869.80
456.30	1855.46
456.51	1900.52
456.71	1861.60
456.91	1894.37
457.12	1791.97
457.32	1828.84
457.52	1843.17
457.73	1822.69
457.93	1931.23
458.14	1736.68
458.34	1783.78
458.54	1892.32
458.75	1785.83
458.95	1912.80
459.15	1757.16
459.36	1902.56
459.56	1830.88
459.76	1949.67
459.97	1863.65
460.17	1853.41
460.37	1935.33
460.58	1873.89
460.78	1867.75
460.99	1812.45
461.19	1892.32
461.39	1791.97
461.60	1781.73
461.80	1943.52
462.00	1787.88
462.21	1865.70
462.41	1847.27
462.61	1757.16
462.82	1753.06
463.02	1873.89
463.22	1902.56
463.43	1886.18
463.63	1853.41
463.83	1886.18
464.04	1804.26
464.24	1810.40
464.44	1748.97
464.64	1824.74
464.85	1966.05
465.05	1912.80
465.25	1871.84
465.46	1759.21
465.66	1894.37
465.86	1855.46
466.07	1845.22
466.27	1824.74
466.47	1771.49
466.68	1804.26
466.88	1986.53
467.08	1861.60
467.29	1826.79
467.49	1933.28
467.69	1880.04
467.89	1867.75
468.10	1796.07
468.30	1888.23
468.50	1896.42
468.71	1869.80
468.91	1873.89
469.11	1851.36
469.31	1867.75
469.52	1808.36
469.72	1968.10
469.92	1994.72
470.13	1812.45
470.33	1826.79
470.53	1959.91
470.73	2306.01
470.94	2635.74
471.14	2871.25
471.34	3274.70
471.54	3059.67
471.75	2613.21
471.95	2471.90
472.15	2443.23
472.36	2287.58
472.56	2236.38
472.76	2392.03
472.96	2123.74
473.17	2154.46
473.37	2103.26
473.57	1966.05
473.77	1980.39
473.98	1837.03
474.18	1796.07
474.38	2070.50
474.58	1875.94
474.79	1816.55
474.99	1875.94
475.19	1890.28
475.39	1771.49
475.60	1869.80
475.80	1841.12
476.00	1859.56
476.20	1759.21
476.41	1843.17
476.61	1941.47
476.81	1898.47
477.01	1832.93
477.21	2000.87
477.42	1949.67
477.62	1818.60
477.82	1828.84
478.02	1767.40
478.23	1851.36
478.43	1765.35
478.63	1767.40
478.83	1841.12
479.03	1855.46
479.24	1894.37
479.44	1906.66
479.64	1820.64
479.84	1636.33
480.04	1794.02
480.25	1894.37
480.45	1718.25
480.65	1814.50
480.85	1890.28
481.06	1826.79
481.26	1845.22
481.46	1845.22
481.66	1847.27
481.86	1767.40
482.06	1826.79
482.27	1865.70
482.47	1814.50
482.67	1927.14
482.87	1857.51
483.07	1890.28
483.28	1810.40
483.48	1832.93
483.68	1771.49
483.88	1763.30
484.08	1763.30
484.29	1732.58
484.49	1847.27
484.69	1773.54
484.89	1875.94
485.09	1882.08
485.29	1861.60
485.50	1869.80
485.70	1800.16
485.90	1820.64
486.10	1855.46
486.30	1892.32
486.50	1837.03
486.71	1861.60
486.91	1884.13
487.11	1935.33
487.31	1765.35
487.51	1920.99
487.71	1769.44
487.91	1806.31
488.12	1751.01
488.32	1718.25
488.52	1832.93
488.72	1693.67
488.92	1902.56
489.12	1959.91
489.32	1943.52
489.53	1925.09
489.73	1798.12
489.93	1953.76
490.13	1785.83
490.33	1611.75
490.53	1894.37
490.73	1914.85
490.94	1751.01
491.14	1849.32
491.34	1976.29
491.54	2170.85
491.74	2820.05
491.94	3344.33
492.14	3575.75
492.34	3674.06
492.54	3440.59
492.75	2901.97
492.95	2682.84
493.15	2602.97
493.35	2422.75
493.55	2398.17
493.75	2363.36
493.95	2267.10
494.15	2191.33
494.35	2074.59
494.56	1935.33
494.76	1798.12
494.96	1882.08
495.16	1863.65
495.36	1808.36
495.56	1894.37
495.76	1828.84
495.96	1804.26
496.16	1753.06
496.36	1853.41
496.56	1804.26
496.77	1791.97
496.97	1783.78
497.17	1900.52
497.37	1710.05
497.57	1832.93
497.77	1767.40
497.97	1779.68
498.17	1822.69
498.37	1779.68
498.57	1900.52
498.77	1869.80
498.97	1927.14
499.17	1861.60
499.38	1832.93
499.58	1882.08
499.78	1851.36
499.98	1923.04
500.18	1791.97
500.38	1863.65
500.58	2015.20
500.78	2484.19
500.98	4638.65
501.18	6883.22
501.38	8460.16
501.58	9449.33
501.78	9250.67
501.98	7317.39
502.18	6051.75
502.38	5230.51
502.58	4796.34
502.78	4319.17
502.98	4165.57
503.18	3887.04
503.38	3688.39
503.59	3170.26
503.79	3022.80
503.99	2691.03
504.19	2496.47
504.39	2410.46
504.59	2506.71
504.79	2469.85
504.99	2373.60
505.19	2277.34
505.39	2127.84
505.59	2172.89
505.79	2093.02
505.99	1992.67
506.19	1972.19
506.39	2060.26
506.59	1914.85
506.79	1824.74
506.99	1988.58
507.19	1865.70
507.39	1863.65
507.59	1783.78
507.79	1812.45
507.99	1812.45
508.19	1875.94
508.39	1748.97
508.59	1859.56
508.79	1931.23
508.99	1968.10
509.19	1744.87
509.39	1869.80
509.59	1824.74
509.79	1804.26
509.99	1865.70
510.19	1902.56
510.39	1894.37
510.59	1888.23
510.79	1851.36
510.99	1796.07
511.19	1865.70
511.39	1853.41
511.59	1898.47
511.79	1925.09
511.99	1908.71
512.19	1980.39
512.38	1818.60
512.58	1863.65
512.78	1853.41
512.98	1869.80
513.18	1886.18
513.38	1763.30
513.58	1918.95
513.78	1812.45
513.98	1832.93
514.18	1820.64
514.38	1787.88
514.58	1955.81
514.78	1812.45
514.98	1740.77
515.18	1855.46
515.38	1771.49
515.58	1996.77
515.78	1892.32
515.98	1859.56
516.18	1859.56
516.38	1808.36
516.57	1888.23
516.77	1800.16
516.97	1826.79
517.17	1800.16
517.37	1791.97
517.57	1796.07
517.77	1800.16
517.97	1865.70
518.17	1920.99
518.37	1759.21
518.57	1841.12
518.77	1759.21
518.97	1796.07
519.16	1882.08
519.36	1888.23
519.56	1847.27
519.76	1830.88
519.96	1841.12
520.16	1931.23
520.36	1771.49
520.56	1992.67
520.76	1748.97
520.96	1873.89
521.16	1892.32
521.35	1896.42
521.55	1925.09
521.75	1892.32
521.95	1851.36
522.15	1892.32
522.35	1787.88
522.55	1828.84
522.75	1918.95
522.95	1771.49
523.14	1796.07
523.34	1802.21
523.54	1785.83
523.74	1892.32
523.94	1959.91
524.14	1742.82
524.34	1880.04
524.54	1951.71
524.73	1763.30
524.93	1849.32
525.13	1875.94
525.33	1712.10
525.53	1935.33
525.73	1910.75
525.93	1871.84
526.13	1781.73
526.32	1820.64
526.52	1896.42
526.72	1902.56
526.92	1814.50
527.12	1828.84
527.32	1718.25
527.52	1877.99
527.71	1853.41
527.91	1847.27
528.11	1787.88
528.31	1849.32
528.51	1818.60
528.71	1820.64
528.90	1804.26
529.10	1847.27
529.30	1855.46
529.50	1687.53
529.70	1853.41
529.90	1834.98
530.09	1744.87
530.29	1796.07
530.49	1759.21
530.69	2068.45
530.89	1861.60
531.09	1863.65
531.28	1814.50
531.48	1830.88
531.68	1822.69
531.88	1902.56
532.08	1929.19
532.28	1814.50
532.47	1937.38
532.67	1912.80
532.87	1841.12
533.07	1814.50
533.27	1888.23
533.46	1853.41
533.66	1804.26
533.86	1863.65
534.06	1898.47
534.26	1929.19
534.45	1849.32
534.65	1933.28
534.85	1824.74
535.05	1765.35
535.25	1902.56
535.44	1716.20
535.64	1841.12
535.84	1826.79
536.04	1820.64
536.24	1783.78
536.43	1783.78
536.63	1834.98
536.83	1824.74
537.03	1820.64
537.22	1783.78
537.42	1689.57
537.62	1853.41
537.82	1771.49
538.02	1927.14
538.21	1986.53
538.41	2054.11
538.61	1871.84
538.81	1826.79
539.00	1927.14
539.20	1771.49
539.40	1898.47
539.60	1855.46
539.79	1865.70
539.99	1773.54
540.19	1714.15
540.39	1771.49
540.58	1923.04
540.78	1900.52
540.98	1916.90
541.18	1826.79
541.37	1933.28
541.57	1927.14
541.77	1912.80
541.97	1736.68
542.16	1806.31
542.36	1802.21
542.56	1888.23
542.76	2004.96
542.95	1947.62
543.15	1859.56
543.35	1884.13
543.54	1734.63
543.74	1710.05
543.94	1992.67
544.14	1849.32
544.33	1851.36
544.53	1810.40
544.73	1808.36
544.93	1804.26
545.12	1800.16
545.32	1904.61
545.52	1822.69
545.71	1808.36
545.91	1763.30
546.11	1859.56
546.30	1775.59
546.50	1810.40
546.70	1882.08
546.90	1787.88
547.09	1677.29
547.29	1816.55
547.49	1824.74
547.68	1884.13
547.88	1779.68
548.08	1861.60
548.27	2346.97
548.47	1863.65
548.67	1816.55
548.87	1884.13
549.06	1746.92
549.26	1894.37
549.46	1843.17
549.65	1845.22
549.85	1800.16
550.05	1843.17
550.24	1724.39
550.44	1763.30
550.64	1875.94
550.83	1748.97
551.03	1925.09
551.23	1935.33
551.42	1871.84
551.62	1810.40
551.82	1841.12
552.01	1787.88
552.21	1882.08
552.41	1791.97
552.60	1957.86
552.80	1853.41
553.00	1890.28
553.19	1910.75
553.39	1943.52
553.59	1734.63
553.78	1890.28
553.98	1839.08
554.17	1767.40
554.37	1847.27
554.57	1830.88
554.76	1783.78
554.96	1785.83
555.16	1808.36
555.35	1910.75
555.55	1886.18
555.75	1865.70
555.94	1898.47
556.14	1761.25
556.33	1863.65
556.53	1804.26
556.73	1816.55
556.92	1898.47
557.12	1970.15
557.32	2000.87
557.51	1978.34
557.71	1800.16
557.90	1920.99
558.10	1900.52
558.30	1839.08
558.49	1882.08
558.69	1834.98
558.88	1904.61
559.08	1824.74
559.28	1779.68
559.47	1832.93
559.67	1882.08
559.86	1925.09
560.06	1890.28
560.26	1828.84
560.45	1918.95
560.65	1787.88
560.84	1994.72
561.04	1818.60
561.24	1853.41
561.43	1820.64
561.63	1904.61
561.82	1769.44
562.02	1898.47
562.22	1781.73
562.41	1812.45
562.61	1888.23
562.80	1832.93
563.00	1992.67
563.19	1857.51
563.39	1847.27
563.59	1841.12
563.78	1783.78
563.98	1705.96
564.17	1888.23
564.37	1759.21
564.56	1832.93
564.76	1810.40
564.96	1955.81
565.15	1832.93
565.35	2000.87
565.54	1759.21
565.74	1873.89
565.93	1861.60
566.13	1875.94
566.32	1851.36
566.52	1810.40
566.71	1837.03
566.91	1800.16
567.11	1841.12
567.30	1736.68
567.50	1853.41
567.69	1910.75
567.89	1763.30
568.08	1869.80
568.28	1853.41
568.47	1755.11
568.67	1849.32
568.86	1830.88
569.06	1865.70
569.25	1867.75
569.45	1767.40
569.64	1789.92
569.84	1791.97
570.04	1865.70
570.23	1847.27
570.43	1769.44
570.62	1886.18
570.82	1865.70
571.01	1769.44
571.21	1826.79
571.40	1787.88
571.60	1918.95
571.79	1925.09
571.99	1855.46
572.18	1744.87
572.38	1849.32
572.57	1877.99
572.77	1863.65
572.96	2000.87
573.16	1871.84
573.35	1867.75
573.55	1875.94
573.74	1839.08
573.94	1804.26
574.13	1746.92
574.33	1888.23
574.52	1957.86
574.71	1882.08
574.91	1877.99
575.10	1818.60
575.30	1812.45
575.49	1785.83
575.69	1892.32
575.88	1939.43
576.08	1931.23
576.27	2039.78
576.47	1900.52
576.66	1951.71
576.86	1941.47
577.05	1959.91
577.25	1927.14
577.44	2093.02
577.64	1828.84
577.83	1955.81
578.02	1843.17
578.22	1976.29
578.41	2004.96
578.61	1830.88
578.80	1804.26
579.00	1853.41
579.19	1869.80
579.39	1939.43
579.58	1884.13
579.77	1867.75
579.97	1865.70
580.16	1886.18
580.36	1935.33
580.55	1943.52
580.75	1804.26
580.94	1984.48
581.13	1990.63
581.33	2080.74
581.52	1912.80
581.72	2047.97
581.91	1941.47
582.11	1873.89
582.30	1968.10
582.49	1920.99
582.69	1923.04
582.88	1830.88
583.08	1898.47
583.27	1966.05
583.47	1914.85
583.66	1841.12
583.85	1867.75
584.05	1861.60
584.24	1910.75
584.44	1902.56
584.63	1974.24
584.82	1980.39
585.02	2037.73
585.21	2031.58
585.41	2047.97
585.60	1978.34
585.79	2191.33
585.99	2101.22
586.18	2068.45
586.37	2363.36
586.57	3645.38
586.76	10575.71
586.96	28417.61
587.15	42771.83
587.34	52694.24
587.54	58506.37
587.73	55508.14
587.93	40013.21
588.12	29498.94
588.31	23651.99
588.51	20412.10
588.70	18450.15
588.89	17231.61
589.09	15097.63
589.28	13313.84
589.47	10977.11
589.67	8902.52
589.86	6918.04
590.06	5117.87
590.25	3954.63
590.44	3110.86
590.64	2584.54
590.83	2273.25
591.02	2271.20
591.22	2078.69
591.41	2031.58
591.60	1943.52
591.80	2121.70
591.99	1880.04
592.18	1914.85
592.38	1888.23
592.57	1847.27
592.76	1822.69
592.96	1961.95
593.15	1904.61
593.34	1882.08
593.54	1849.32
593.73	1890.28
593.92	1976.29
594.12	1929.19
594.31	1914.85
594.50	1953.76
594.70	1941.47
594.89	2074.59
595.08	1808.36
595.28	1918.95
595.47	2086.88
595.66	1882.08
595.86	1843.17
596.05	1886.18
596.24	1857.51
596.43	1951.71
596.63	1937.38
596.82	1902.56
597.01	1955.81
597.21	2103.26
597.40	1941.47
597.59	1896.42
597.79	1980.39
597.98	1953.76
598.17	1877.99
598.36	1906.66
598.56	1908.71
598.75	1789.92
598.94	1845.22
599.14	1910.75
599.33	1822.69
599.52	1873.89
599.71	1898.47
599.91	1888.23
600.10	1927.14
600.29	1859.56
600.48	1857.51
600.68	1882.08
600.87	1804.26
601.06	1771.49
601.26	1791.97
601.45	1898.47
601.64	1863.65
601.83	1929.19
602.03	1773.54
602.22	1800.16
602.41	1902.56
602.60	1996.77
602.80	1945.57
602.99	1800.16
603.18	1820.64
603.37	1890.28
603.57	1865.70
603.76	1875.94
603.95	1871.84
604.14	1814.50
604.34	1783.78
604.53	1834.98
604.72	1880.04
604.91	1849.32
605.10	1904.61
605.30	1783.78
605.49	1929.19
605.68	1810.40
605.87	1843.17
606.07	1757.16
606.26	1871.84
606.45	1927.14
606.64	1834.98
606.84	1818.60
607.03	1853.41
607.22	1996.77
607.41	1892.32
607.60	1961.95
607.80	1957.86
607.99	1900.52
608.18	1943.52
608.37	1837.03
608.56	1816.55
608.76	1920.99
608.95	1929.19
609.14	1972.19
609.33	1955.81
609.52	2009.06
609.72	1902.56
609.91	2017.25
610.10	1953.76
610.29	1902.56
610.48	1898.47
610.68	1828.84
610.87	1923.04
611.06	1853.41
611.25	1818.60
611.44	1978.34
611.63	1863.65
611.83	1839.08
612.02	1763.30
612.21	1888.23
612.40	1748.97
612.59	1845.22
612.79	1814.50
612.98	1908.71
613.17	1941.47
613.36	1777.64
613.55	2047.97
613.74	1939.43
613.93	1972.19
614.13	2099.17
614.32	2140.13
614.51	2045.92
614.70	1927.14
614.89	1974.24
615.08	1947.62
615.28	2308.06
615.47	1802.21
615.66	1976.29
615.85	1929.19
616.04	2039.78
616.23	1892.32
616.42	1916.90
616.62	1988.58
616.81	1953.76
617.00	1890.28
617.19	1853.41
617.38	1832.93
617.57	1845.22
617.76	1865.70
617.95	1961.95
618.15	1892.32
618.34	1916.90
618.53	1742.82
618.72	1896.42
618.91	1855.46
619.10	1920.99
619.29	1804.26
619.48	1816.55
619.68	1787.88
619.87	1894.37
620.06	1734.63
620.25	1837.03
620.44	1751.01
620.63	1861.60
620.82	1888.23
621.01	1832.93
621.20	1910.75
621.39	1916.90
621.59	1968.10
621.78	1857.51
621.97	1951.71
622.16	1968.10
622.35	1812.45
622.54	1882.08
622.73	1892.32
622.92	1695.72
623.11	1898.47
623.30	1804.26
623.49	1890.28
623.68	1802.21
623.88	1916.90
624.07	1908.71
624.26	1818.60
624.45	1767.40
624.64	1773.54
624.83	1837.03
625.02	1802.21
625.21	1861.60
625.40	1865.70
625.59	1906.66
625.78	1779.68
625.97	2000.87
626.16	1892.32
626.35	1974.24
626.54	1923.04
626.74	1992.67
626.93	1990.63
627.12	1820.64
627.31	1904.61
627.50	1820.64
627.69	1957.86
627.88	1837.03
628.07	1841.12
628.26	1689.57
628.45	1755.11
628.64	1781.73
628.83	1867.75
629.02	1740.77
629.21	1832.93
629.40	1871.84
629.59	1783.78
629.78	1816.55
629.97	1744.87
630.16	1855.46
630.35	1886.18
630.54	1867.75
630.73	1734.63
630.92	1855.46
631.11	1794.02
631.30	1820.64
631.49	1929.19
631.68	1810.40
631.87	1873.89
632.06	1728.49
632.25	1990.63
632.44	1824.74
632.63	1937.38
632.82	1877.99
633.01	1820.64
633.20	1990.63
633.39	1918.95
633.58	1837.03
633.77	2000.87
633.96	1927.14
634.15	1859.56
634.34	1890.28
634.53	1955.81
634.72	1853.41
634.91	1794.02
635.10	1904.61
635.29	1978.34
635.48	1927.14
635.67	1871.84
635.86	1697.77
636.05	1843.17
636.24	1802.21
636.43	1951.71
636.62	1873.89
636.81	1703.91
637.00	1822.69
637.19	1908.71
637.38	1812.45
637.57	1843.17
637.76	1945.57
637.95	1970.15
638.14	1882.08
638.33	2011.11
638.52	1974.24
638.71	1892.32
638.89	1806.31
639.08	2052.06
639.27	1918.95
639.46	2082.78
639.65	2346.97
639.84	2473.95
640.03	2549.72
640.22	2537.43
640.41	2611.16
640.60	2168.80
640.79	2176.99
640.98	2064.35
641.17	2084.83
641.36	2058.21
641.55	2041.82
641.74	1906.66
641.92	1900.52
642.11	1863.65
642.30	1920.99
642.49	1826.79
642.68	1902.56
642.87	1841.12
643.06	1955.81
643.25	1810.40
643.44	1779.68
643.63	1843.17
643.82	1882.08
644.00	1753.06
644.19	1787.88
644.38	1796.07
644.57	1820.64
644.76	1855.46
644.95	1837.03
645.14	1828.84
645.33	1800.16
645.52	1873.89
645.71	1736.68
645.89	1724.39
646.08	1761.25
646.27	1738.73
646.46	1882.08
646.65	1734.63
646.84	1800.16
647.03	1804.26
647.22	1863.65
647.40	1857.51
647.59	1935.33
647.78	1710.05
647.97	1742.82
648.16	1701.86
648.35	1935.33
648.54	1894.37
648.73	1828.84
648.91	1906.66
649.10	1800.16
649.29	1789.92
649.48	1839.08
649.67	1890.28
649.86	1808.36
650.05	1937.38
650.23	2039.78
650.42	1861.60
650.61	2090.98
650.80	1994.72
650.99	2148.32
651.18	1890.28
651.36	1853.41
651.55	1861.60
651.74	1857.51
651.93	1859.56
652.12	1808.36
652.31	1869.80
652.49	1771.49
652.68	1951.71
652.87	1968.10
653.06	1853.41
653.25	1992.67
653.44	1880.04
653.62	1937.38
653.81	1884.13
654.00	1884.13
654.19	1886.18
654.38	2045.92
654.56	1867.75
654.75	1837.03
654.94	1896.42
655.13	1828.84
655.32	1783.78
655.51	1861.60
655.69	1804.26
655.88	1837.03
656.07	1757.16
656.26	1828.84
656.45	1779.68
656.63	1849.32
656.82	1806.31
657.01	1867.75
657.20	1765.35
657.38	1890.28
657.57	1875.94
657.76	1744.87
657.95	1941.47
658.14	1777.64
658.32	1834.98
658.51	1773.54
658.70	1871.84
658.89	1796.07
659.08	1851.36
659.26	1961.95
659.45	1847.27
659.64	1955.81
659.83	1892.32
660.01	2076.64
660.20	1916.90
660.39	1916.90
660.58	1677.29
660.76	1884.13
660.95	1800.16
661.14	1865.70
661.33	1781.73
661.51	1898.47
661.70	1773.54
661.89	1837.03
662.08	1822.69
662.26	1746.92
662.45	1755.11
662.64	1914.85
662.83	1920.99
663.01	1775.59
663.20	1779.68
663.39	1906.66
663.58	1761.25
663.76	1851.36
663.95	1898.47
664.14	1759.21
664.32	1783.78
664.51	1722.34
664.70	1726.44
664.89	1886.18
665.07	1650.66
665.26	1867.75
665.45	1726.44
665.64	1869.80
665.82	1837.03
666.01	1902.56
666.20	1751.01
666.38	1900.52
666.57	2033.63
666.76	2533.34
666.95	5554.09
667.13	13152.06
667.32	19744.47
667.51	23688.85
667.69	26013.30
667.88	25861.75
668.07	19298.01
668.25	14253.86
668.44	11689.81
668.63	9899.88
668.81	8744.83
669.00	7708.55
669.19	7100.31
669.38	6016.93
669.56	5263.28
669.75	4501.44
669.94	3694.54
670.12	3063.76
670.31	2678.74
670.50	2351.07
670.68	2172.89
670.87	2076.64
671.06	2002.91
671.24	1964.00
671.43	1998.82
671.62	1880.04
671.80	1927.14
671.99	1951.71
672.18	1787.88
672.36	1880.04
672.55	1775.59
672.74	1820.64
672.92	1828.84
673.11	1888.23
673.29	1771.49
673.48	1896.42
673.67	1753.06
673.85	1904.61
674.04	1804.26
674.23	1816.55
674.41	1861.60
674.60	1699.81
674.79	1658.85
674.97	1781.73
675.16	1859.56
675.34	1859.56
675.53	1843.17
675.72	1886.18
675.90	1892.32
676.09	1744.87
676.28	1871.84
676.46	1767.40
676.65	1814.50
676.83	1773.54
677.02	1861.60
677.21	1773.54
677.39	1832.93
677.58	1777.64
677.77	1853.41
677.95	1765.35
678.14	1818.60
678.32	1748.97
678.51	1767.40
678.70	1927.14
678.88	1705.96
679.07	1824.74
679.25	1791.97
679.44	1804.26
679.63	1834.98
679.81	1822.69
680.00	1847.27
680.18	1910.75
680.37	1904.61
680.55	1902.56
680.74	1746.92
680.93	1703.91
681.11	1837.03
681.30	1865.70
681.48	1947.62
681.67	1779.68
681.85	1843.17
682.04	1789.92
682.23	1873.89
682.41	1822.69
682.60	1804.26
682.78	1769.44
682.97	1736.68
683.15	1796.07
683.34	1871.84
683.53	1980.39
683.71	1796.07
683.90	1898.47
684.08	1964.00
684.27	1880.04
684.45	1810.40
684.64	1929.19
684.82	1703.91
685.01	1888.23
685.19	1847.27
685.38	1968.10
685.57	1871.84
685.75	1767.40
685.94	1746.92
686.12	1753.06
686.31	1861.60
686.49	1914.85
686.68	1689.57
686.86	1882.08
687.05	1810.40
687.23	1867.75
687.42	1843.17
687.60	1734.63
687.79	1775.59
687.97	1910.75
688.16	1867.75
688.34	1875.94
688.53	1755.11
688.71	1773.54
688.90	1927.14
689.08	1816.55
689.27	1687.53
689.45	1845.22
689.64	1892.32
689.82	1828.84
690.01	1841.12
690.19	1880.04
690.38	1824.74
690.56	1871.84
690.75	1828.84
690.93	1841.12
691.12	1734.63
691.30	1816.55
691.49	1845.22
691.67	1812.45
691.86	1898.47
692.04	1800.16
692.23	1787.88
692.41	1877.99
692.60	1990.63
692.78	1982.43
692.97	1898.47
693.15	1953.76
693.34	1961.95
693.52	1875.94
693.71	1816.55
693.89	1767.40
694.08	1746.92
694.26	1910.75
694.44	1857.51
694.63	1849.32
694.81	1855.46
695.00	1773.54
695.18	1865.70
695.37	1955.81
695.55	1869.80
695.74	1843.17
695.92	1751.01
696.10	1931.23
696.29	1789.92
696.47	1814.50
696.66	1759.21
696.84	1722.34
697.03	1798.12
697.21	1949.67
697.40	2545.63
697.58	1953.76
697.76	1796.07
697.95	1806.31
698.13	1834.98
698.32	1712.10
698.50	1853.41
698.68	1873.89
698.87	1890.28
699.05	1955.81
699.24	1832.93
699.42	1865.70
699.61	1863.65
699.79	1806.31
699.97	1820.64
700.16	1648.61
700.34	1818.60
700.53	1847.27
700.71	1988.58
700.89	1896.42
701.08	1785.83
701.26	1816.55
701.45	2306.01
701.63	1748.97
701.81	1830.88
702.00	1800.16
702.18	1779.68
702.37	1931.23
702.55	2027.49
702.73	2064.35
702.92	2019.30
703.10	2160.61
703.28	2070.50
703.47	1904.61
703.65	2041.82
703.84	1863.65
704.02	1888.23
704.20	1988.58
704.39	1861.60
704.57	1890.28
704.75	1988.58
704.94	1980.39
705.12	1861.60
705.30	2052.06
705.49	2959.31
705.67	7350.16
705.86	16232.20
706.04	21540.54
706.22	25300.61
706.41	27493.98
706.59	25683.58
706.77	18749.15
706.96	14432.04
707.14	12281.67
707.32	10671.97
707.51	9600.88
707.69	8173.44
707.87	6746.01
708.06	5429.17
708.24	4218.82
708.42	3352.52
708.61	2828.24
708.79	2252.77
708.97	2154.46
709.16	2004.96
709.34	1980.39
709.52	1845.22
709.71	1857.51
709.89	1927.14
710.07	1783.78
710.26	1746.92
710.44	1828.84
710.62	1900.52
710.80	1882.08
710.99	1904.61
711.17	1859.56
711.35	1800.16
711.54	1771.49
711.72	1869.80
711.90	1761.25
712.09	1877.99
712.27	1816.55
712.45	1845.22
712.63	1773.54
712.82	1820.64
713.00	1832.93
713.18	1890.28
713.37	1886.18
713.55	1906.66
713.73	1824.74
713.91	1916.90
714.10	1808.36
714.28	1796.07
714.46	1847.27
714.65	1873.89
714.83	1783.78
715.01	1832.93
715.19	1849.32
715.38	1714.15
715.56	1875.94
715.74	1722.34
715.92	1736.68
716.11	1964.00
716.29	1716.20
716.47	1849.32
716.65	1851.36
716.84	1744.87
717.02	1820.64
717.20	1769.44
717.38	1767.40
717.57	1816.55
717.75	1896.42
717.93	1755.11
718.11	1796.07
718.30	1759.21
718.48	1804.26
718.66	1892.32
718.84	1865.70
719.03	1882.08
719.21	1714.15
719.39	1951.71
719.57	1853.41
719.75	1875.94
719.94	1818.60
720.12	1744.87
720.30	1837.03
720.48	1779.68
720.67	1787.88
720.85	1763.30
721.03	1789.92
721.21	1748.97
721.39	1871.84
721.58	1816.55
721.76	1787.88
721.94	1851.36
722.12	1867.75
722.30	1955.81
722.49	1767.40
722.67	1853.41
722.85	1849.32
723.03	1732.58
723.21	1746.92
723.40	1781.73
723.58	1925.09
723.76	1841.12
723.94	1877.99
724.12	1888.23
724.30	2035.68
724.49	1951.71
724.67	1796.07
724.85	1996.77
725.03	1820.64
725.21	1902.56
725.40	1898.47
725.58	1794.02
725.76	1925.09
725.94	1841.12
726.12	1777.64
726.30	1804.26
726.49	1824.74
726.67	1785.83
726.85	1789.92
727.03	2013.15
727.21	2672.60
727.39	4222.91
727.57	5773.22
727.76	6356.90
727.94	6844.31
728.12	6887.32
728.30	5699.50
728.48	4626.36
728.66	4186.05
728.84	3805.13
729.03	3239.89
729.21	2979.79
729.39	2459.61
729.57	2256.86
729.75	2129.89
729.93	1957.86
730.11	1902.56
730.30	1753.06
730.48	1910.75
730.66	1931.23
730.84	1847.27
731.02	1785.83
731.20	1826.79
731.38	1869.80
731.56	1718.25
731.74	1744.87
731.93	1816.55
732.11	1845.22
732.29	1791.97
732.47	1923.04
732.65	1834.98
732.83	1998.82
733.01	1851.36
733.19	1771.49
733.37	1880.04
733.56	1877.99
733.74	1816.55
733.92	1927.14
734.10	1861.60
734.28	1859.56
734.46	1816.55
734.64	1808.36
734.82	1839.08
735.00	1796.07
735.18	1742.82
735.36	1810.40
735.54	1837.03
735.73	1783.78
735.91	1751.01
736.09	1845.22
736.27	1837.03
736.45	1843.17
736.63	1742.82
736.81	1800.16
736.99	1830.88
737.17	1890.28
737.35	1710.05
737.53	1800.16
737.71	1783.78
737.89	1869.80
738.07	1820.64
738.25	1771.49
738.43	1751.01
738.61	1847.27
738.80	1740.77
738.98	1708.01
739.16	1771.49
739.34	1734.63
739.52	1929.19
739.70	1794.02
739.88	1863.65
740.06	1904.61
740.24	1703.91
740.42	1826.79
740.60	1740.77
740.78	1779.68
740.96	1732.58
741.14	1810.40
741.32	1724.39
741.50	1648.61
741.68	1957.86
741.86	1865.70
742.04	1744.87
742.22	1726.44
742.40	1851.36
742.58	1845.22
742.76	1810.40
742.94	1816.55
743.12	1732.58
743.30	1834.98
743.48	1810.40
743.66	1730.53
743.84	1853.41
744.02	1771.49
744.20	1845.22
744.38	1742.82
744.56	1847.27
744.74	1886.18
744.92	1863.65
745.10	2009.06
745.28	1857.51
745.46	1920.99
745.64	1843.17
745.82	1867.75
746.00	1775.59
746.18	1763.30
746.36	1746.92
746.54	1767.40
746.72	1796.07
746.90	1753.06
747.08	1945.57
747.26	1740.77
747.44	1912.80
747.62	1837.03
747.80	1828.84
747.98	1814.50
748.15	1871.84
748.33	1941.47
748.51	1828.84
748.69	1867.75
748.87	1820.64
749.05	1824.74
749.23	1785.83
749.41	1841.12
749.59	1839.08
749.77	1933.28
749.95	1744.87
750.13	1783.78
750.31	1847.27
750.49	1816.55
750.67	1931.23
750.85	1869.80
751.03	1884.13
751.20	2000.87
751.38	1873.89
751.56	1779.68
751.74	1824.74
751.92	1787.88
752.10	1755.11
752.28	1929.19
752.46	1665.00
752.64	1851.36
752.82	1804.26
753.00	1898.47
753.18	1769.44
753.35	1857.51
753.53	1769.44
753.71	1783.78
753.89	1904.61
754.07	1847.27
754.25	1853.41
754.43	1867.75
754.61	1695.72
754.79	1810.40
754.97	1738.73
755.14	1855.46
755.32	1800.16
755.50	1808.36
755.68	1824.74
755.86	1761.25
756.04	1751.01
756.22	1796.07
756.40	1830.88
756.57	1857.51
756.75	1732.58
756.93	1861.60
757.11	1908.71
757.29	1701.86
757.47	1783.78
757.65	1726.44
757.82	1658.85
758.00	1755.11
758.18	1769.44
758.36	1720.29
758.54	1923.04
758.72	1761.25
758.90	1945.57
759.07	1841.12
759.25	1789.92
759.43	1796.07
759.61	1738.73
759.79	2392.03
759.97	1904.61
760.15	1783.78
760.32	1796.07
760.50	1824.74
760.68	1839.08
760.86	1746.92
761.04	1896.42
761.22	1869.80
761.39	1839.08
761.57	1871.84
761.75	1777.64
761.93	1900.52
762.11	1785.83
762.28	1759.21
762.46	1796.07
762.64	1834.98
762.82	1798.12
763.00	1828.84
763.18	1961.95
763.35	1751.01
763.53	1894.37
763.71	1812.45
763.89	1908.71
764.07	1845.22
764.24	1841.12
764.42	1923.04
764.60	1796.07
764.78	1806.31
764.96	1906.66
765.13	1869.80
765.31	1808.36
765.49	1824.74
765.67	1751.01
765.84	1757.16
766.02	1693.67
766.20	1755.11
766.38	1916.90
766.56	1886.18
766.73	1877.99
766.91	1820.64
767.09	1855.46
767.27	1847.27
767.44	1826.79
767.62	1908.71
767.80	1837.03
767.98	1740.77
768.15	1765.35
768.33	1853.41
768.51	1914.85
768.69	1775.59
768.87	1800.16
769.04	1843.17
769.22	2031.58
769.40	1976.29
769.58	1957.86
769.75	1834.98
769.93	1902.56
770.11	1800.16
770.28	1826.79
770.46	1798.12
770.64	1822.69
770.82	1777.64
770.99	1734.63
771.17	1828.84
771.35	1812.45
771.53	1794.02
771.70	1767.40
771.88	1808.36
772.06	1789.92
772.23	1761.25
772.41	1810.40
772.59	1777.64
772.77	1832.93
772.94	1830.88
773.12	1834.98
773.30	1804.26
773.47	1855.46
773.65	1810.40
773.83	1980.39
774.01	1785.83
774.18	1677.29
774.36	1775.59
774.54	1773.54
774.71	1787.88
774.89	1724.39
775.07	1761.25
775.24	1818.60
775.42	1761.25
775.60	1941.47
775.78	1837.03
775.95	1730.53
776.13	1701.86
776.31	1718.25
776.48	1812.45
776.66	1877.99
776.84	1769.44
777.01	1759.21
777.19	1724.39
777.37	1830.88
777.54	1834.98
777.72	1910.75
777.90	1841.12
778.07	1728.49
778.25	2009.06
778.43	1945.57
778.60	1828.84
778.78	1830.88
778.96	1890.28
779.13	1779.68
779.31	1828.84
779.49	1814.50
779.66	1875.94
779.84	1812.45
780.01	1810.40
780.19	1787.88
780.37	1892.32
780.54	1888.23
780.72	1695.72
780.90	1787.88
781.07	1802.21
781.25	1769.44
781.43	1892.32
781.60	1732.58
781.78	1902.56
781.95	1867.75
782.13	1765.35
782.31	1861.60
782.48	1671.14
782.66	1826.79
782.83	1945.57
783.01	1863.65
783.19	1851.36
783.36	1753.06
783.54	1763.30
783.72	1857.51
783.89	1787.88
784.07	1806.31
784.24	1816.55
784.42	1978.34
784.60	1808.36
784.77	1787.88
784.95	1775.59
785.12	1806.31
785.30	1794.02
785.47	1771.49
785.65	1691.62
785.83	1847.27
786.00	1904.61
786.18	1757.16
786.35	1703.91
786.53	1763.30
786.71	1871.84
786.88	1769.44
787.06	1830.88
787.23	1808.36
787.41	1771.49
787.58	1826.79
787.76	1771.49
787.94	1796.07
788.11	1818.60
788.29	1751.01
788.46	1724.39
788.64	1748.97
788.81	1839.08
788.99	1732.58
789.16	1742.82
789.34	1824.74
789.52	1785.83
789.69	1794.02
789.87	1656.81
790.04	1798.12
790.22	1775.59
790.39	1908.71
790.57	1759.21
790.74	1834.98
790.92	1869.80
791.09	1683.43
791.27	1785.83
791.44	1865.70
791.62	1710.05
791.79	1902.56
791.97	1863.65
792.15	2054.11
792.32	1910.75
792.50	1904.61
792.67	1869.80
792.85	1914.85
793.02	1808.36
793.20	1763.30
793.37	1673.19
793.55	1808.36
793.72	1748.97
793.90	1929.19
794.07	1787.88
794.25	1734.63
794.42	1781.73
794.60	1804.26
794.77	1800.16
794.95	1923.04
795.12	1841.12
795.30	1822.69
795.47	1718.25
795.65	2000.87
795.82	1800.16
796.00	1755.11
796.17	1832.93
796.34	1718.25
796.52	1810.40
796.69	1853.41
796.87	1886.18
797.04	1814.50
797.22	1822.69
797.39	1824.74
797.57	1871.84
797.74	1757.16
797.92	1800.16
798.09	1824.74
798.27	1832.93
798.44	1832.93
798.62	1708.01
798.79	1816.55
798.96	1814.50
799.14	1853.41
799.31	2025.44
799.49	1812.45
799.66	1787.88
799.84	1875.94
800.01	1746.92
800.19	1869.80
800.36	1777.64
800.53	1859.56
800.71	1861.60
800.88	1894.37
801.06	1771.49
801.23	1748.97
801.41	1769.44
801.58	1816.55
801.75	1779.68
801.93	1800.16
802.10	1828.84
802.28	1798.12
802.45	1769.44
802.63	1845.22
802.80	1832.93
802.97	1796.07
803.15	1755.11
803.32	1722.34
803.50	1794.02
803.67	1828.84
803.84	1781.73
804.02	1841.12
804.19	1796.07
804.37	1611.75
804.54	1763.30
804.71	1732.58
804.89	1873.89
805.06	1753.06
805.24	1662.95
805.41	1800.16
805.58	1789.92
805.76	2015.20
805.93	1753.06
806.10	1861.60
806.28	1824.74
806.45	1871.84
806.63	1820.64
806.80	1755.11
806.97	1834.98
807.15	1855.46
807.32	1837.03
807.49	1810.40
807.67	1763.30
807.84	1785.83
808.01	1787.88
808.19	1920.99
808.36	2025.44
808.54	1730.53
808.71	1804.26
808.88	1816.55
809.06	1830.88
809.23	1914.85
809.40	1767.40
809.58	1843.17
809.75	1761.25
809.92	1771.49
810.10	1961.95
810.27	1849.32
810.44	1808.36
810.62	1898.47
810.79	1832.93
810.96	1781.73
811.14	1726.44
811.31	1853.41
811.48	1855.46
811.66	1880.04
811.83	1800.16
812.00	1935.33
812.18	1832.93
812.35	1970.15
812.52	1722.34
812.69	1816.55
812.87	1814.50
813.04	1726.44
813.21	1800.16
813.39	1773.54
813.56	1755.11
813.73	1871.84
813.91	1716.20
814.08	1869.80
814.25	1861.60
814.42	1781.73
814.60	1841.12
814.77	1865.70
814.94	1789.92
815.12	1763.30
815.29	1925.09
815.46	1800.16
815.63	1810.40
815.81	1816.55
815.98	1753.06
816.15	1798.12
816.33	1822.69
816.50	1804.26
816.67	1818.60
816.84	1808.36
817.02	1830.88
817.19	1789.92
817.36	1748.97
817.53	1849.32
817.71	1808.36
817.88	1849.32
818.05	1818.60
818.22	1787.88
818.40	1970.15
818.57	1820.64
818.74	1882.08
818.91	1800.16
819.09	1826.79
819.26	1880.04
819.43	1789.92
819.60	1806.31
819.78	1857.51
819.95	1943.52
820.12	1832.93
820.29	1834.98
820.47	1888.23
820.64	1724.39
820.81	1712.10
820.98	1761.25
821.15	1693.67
821.33	1920.99
821.50	1751.01
821.67	1875.94
821.84	1773.54
822.02	1847.27
822.19	1837.03
822.36	1798.12
822.53	1798.12
822.70	1800.16
822.88	1781.73
823.05	1925.09
823.22	1722.34
823.39	1830.88
823.56	1828.84
823.74	1902.56
823.91	1726.44
824.08	1767.40
824.25	1718.25
824.42	1935.33
824.60	1767.40
824.77	1869.80
824.94	1828.84
825.11	1787.88
825.28	1697.77
825.45	1855.46
825.63	1834.98
825.80	1734.63
825.97	1761.25
826.14	1830.88
826.31	1718.25
826.48	1857.51
826.66	1761.25
826.83	1834.98
827.00	1761.25
827.17	1806.31
827.34	1771.49
827.51	1783.78
827.69	1742.82
827.86	1705.96
828.03	1730.53
828.20	1806.31
828.37	1802.21
828.54	1746.92
828.71	1769.44
828.89	1933.28
829.06	1814.50
829.23	1955.81
829.40	1800.16
829.57	1742.82
829.74	1902.56
829.91	1855.46
830.09	1736.68
830.26	1890.28
830.43	1839.08
830.60	1880.04
830.77	1867.75
830.94	1849.32
831.11	1855.46
831.28	1775.59
831.46	1871.84
831.63	1746.92
831.80	1861.60
831.97	1755.11
832.14	1781.73
832.31	1830.88
832.48	1832.93
832.65	1855.46
832.82	1779.68
832.99	1800.16
833.17	1769.44
833.34	1951.71
833.51	1832.93
833.68	1722.34
833.85	1820.64
834.02	1744.87
834.19	1816.55
834.36	1806.31
834.53	1837.03
834.70	1857.51
834.87	1826.79
835.04	1789.92
835.22	1763.30
835.39	1806.31
835.56	1730.53
835.73	1822.69
835.90	1884.13
836.07	1722.34
836.24	1802.21
836.41	1773.54
836.58	1796.07
836.75	1914.85
836.92	1775.59
837.09	1730.53
837.26	1912.80
837.43	1789.92
837.60	1865.70
837.77	1767.40
837.94	1853.41
838.12	1935.33
838.29	1820.64
838.46	1699.81
838.63	1718.25
838.80	1945.57
838.97	1875.94
839.14	1839.08
839.31	1796.07
839.48	1818.60
839.65	1775.59
839.82	1773.54
839.99	1828.84
840.16	1837.03
840.33	1767.40
840.50	1779.68
840.67	1765.35
840.84	1621.99
841.01	1785.83
841.18	1765.35
841.35	1751.01
841.52	1826.79
841.69	1906.66
841.86	1783.78
842.03	1880.04
842.20	1824.74
842.37	1841.12
842.54	1810.40
842.71	1834.98
842.88	1738.73
843.05	1906.66
843.22	1796.07
843.39	1818.60
843.56	1757.16
843.73	1906.66
843.90	1837.03
844.07	1785.83
844.24	1912.80
844.41	1828.84
844.58	1839.08
844.75	1697.77
844.92	1861.60
845.09	1861.60
845.26	1730.53
845.43	1841.12
845.60	1761.25
845.77	1769.44
845.94	1904.61
846.10	1886.18
846.27	1718.25
846.44	1732.58
846.61	1773.54
846.78	1814.50
846.95	1804.26
847.12	1785.83
847.29	1855.46
847.46	1775.59
847.63	1888.23
847.80	1779.68
847.97	1882.08
848.14	1918.95
848.31	1806.31
848.48	1777.64
848.65	1789.92
848.82	1783.78
848.98	1894.37
849.15	1900.52
849.32	1880.04
849.49	1853.41
849.66	1796.07
849.83	1851.36
850.00	1761.25
850.17	1824.74
850.34	1734.63
850.51	1757.16
850.68	1816.55
850.85	1929.19
851.01	1837.03
851.18	1814.50
851.35	1804.26
851.52	1847.27
851.69	1857.51
851.86	1714.15
852.03	1773.54
852.20	1847.27
852.37	1859.56
852.53	1746.92
852.70	1775.59
852.87	1826.79
853.04	1882.08
853.21	1751.01
853.38	1861.60
853.55	1882.08
853.72	1851.36
853.89	1800.16
854.05	1763.30
854.22	1736.68
854.39	1767.40
854.56	1796.07
854.73	1892.32
854.90	1720.29
855.07	1769.44
855.23	1828.84
855.40	1748.97
855.57	1761.25
855.74	1673.19
855.91	2000.87
856.08	1730.53
856.25	1712.10
856.41	1796.07
856.58	1744.87
856.75	1763.30
856.92	1751.01
857.09	1882.08
857.26	1736.68
857.42	1796.07
857.59	1902.56
857.76	1761.25
857.93	1808.36
858.10	1853.41
858.27	1714.15
858.43	1798.12
858.60	1767.40
858.77	1636.33
858.94	1777.64
859.11	1849.32
859.27	1796.07
859.44	1779.68
859.61	1970.15
859.78	1918.95
859.95	1763.30
860.12	1746.92
860.28	1871.84
860.45	1896.42
860.62	1763.30
860.79	1888.23
860.95	1767.40
861.12	1796.07
861.29	1785.83
861.46	1771.49
861.63	1744.87
861.79	1857.51
861.96	1742.82
862.13	1853.41
862.30	1859.56
862.47	1671.14
862.63	1791.97
862.80	1871.84
862.97	1906.66
863.14	1830.88
863.30	1804.26
863.47	1730.53
863.64	1867.75
863.81	1761.25
863.97	1796.07
864.14	1849.32
864.31	1744.87
864.48	1837.03
864.65	1839.08
864.81	1894.37
864.98	1894.37
865.15	1791.97
865.32	1849.32
865.48	1892.32
865.65	1908.71
865.82	1789.92
865.98	1822.69
866.15	1914.85
866.32	1808.36
866.49	1826.79
866.65	1863.65
866.82	1791.97
866.99	1880.04
867.16	1753.06
867.32	1773.54
867.49	1697.77
867.66	1744.87
867.83	1732.58
867.99	1730.53
868.16	1697.77
868.33	1791.97
868.49	1832.93
868.66	1744.87
868.83	1890.28
868.99	1746.92
869.16	1824.74
869.33	1851.36
869.50	1861.60
869.66	1794.02
869.83	1877.99
870.00	1746.92
870.16	1812.45
870.33	1812.45
870.50	1900.52
870.66	1775.59
870.83	1931.23
871.00	1761.25
871.17	1820.64
871.33	1859.56
871.50	1839.08
871.67	1777.64
871.83	1730.53
872.00	1890.28
872.17	1746.92
872.33	1877.99
872.50	1820.64
872.67	1716.20
872.83	1789.92
873.00	1812.45
873.17	1828.84
873.33	1890.28
873.50	1828.84
873.67	1779.68
873.83	1865.70
874.00	1746.92
874.16	1869.80
874.33	1779.68
874.50	1734.63
874.66	1837.03
874.83	1789.92
875.00	1910.75
875.16	1877.99
875.33	1882.08
875.50	1736.68
875.66	1763.30
875.83	1761.25
875.99	1853.41
876.16	1773.54
876.33	1800.16
876.49	1834.98
876.66	1834.98
876.83	1787.88
876.99	1726.44
877.16	1820.64
877.32	1697.77
877.49	1804.26
877.66	1867.75
877.82	1937.38
877.99	1802.21
878.15	1816.55
878.32	1832.93
878.49	1777.64
878.65	1736.68
878.82	1933.28
878.98	1755.11
879.15	1863.65
879.32	1929.19
879.48	1763.30
879.65	1857.51
879.81	1798.12
879.98	1720.29
880.15	1769.44
880.31	1820.64
880.48	1744.87
880.64	1918.95
880.81	1820.64
880.97	1961.95
881.14	1880.04
881.31	1798.12
881.47	1908.71
881.64	1722.34
881.80	1730.53
881.97	1841.12
882.13	1853.41
882.30	1757.16
882.47	1843.17
882.63	1789.92
882.80	1759.21
882.96	1736.68
883.13	1935.33
883.29	1794.02
883.46	1851.36
883.62	1914.85
883.79	1800.16
883.95	1800.16
884.12	1796.07
884.29	1918.95
884.45	1806.31
884.62	1826.79
884.78	1789.92
884.95	1857.51
885.11	1791.97
885.28	1841.12
885.44	1742.82
885.61	1748.97
885.77	1929.19
885.94	1845.22
886.10	1736.68
886.27	1796.07
886.43	1882.08
886.60	1914.85
886.76	1834.98
886.93	1794.02
887.09	1798.12
887.26	1710.05
887.42	1816.55
887.59	1914.85
887.75	1902.56
887.92	1802.21
888.08	1830.88
888.25	1869.80
888.41	1855.46
888.58	1742.82
888.74	1640.42
888.91	1740.77
>>>>>End Processed Spectral Data<<<<<
