SpectraSuite Data File
++++++++++++++++++++++++++++++++++++
Date: Wed May 04 21:13:44 CEST 2016
User: root
Dark Spectrum Present: No
Reference Spectrum Present: No
Number of Sampled Component Spectra: 1
Spectrometers: USB4C02835
Integration Time (usec): 100000 (USB4C02835)
Spectra Averaged: 1 (USB4C02835)
Boxcar Smoothing: 0 (USB4C02835)
Correct for Electrical Dark: No (USB4C02835)
Strobe/Lamp Enabled: No (USB4C02835)
Correct for Detector Non-linearity: No (USB4C02835)
Correct for Stray Light: No (USB4C02835)
Number of Pixels in Processed Spectrum: 3648
>>>>>Begin Processed Spectral Data<<<<<
177.47	1591.27
177.69	1591.27
177.91	1591.27
178.13	1552.36
178.36	1529.83
178.58	1761.25
178.80	1828.84
179.02	1726.44
179.24	1718.25
179.46	1779.68
179.68	1880.04
179.90	1822.69
180.13	1822.69
180.35	1775.59
180.57	1808.36
180.79	1857.51
181.01	1800.16
181.23	1861.60
181.45	1888.23
181.67	1845.22
181.90	1894.37
182.12	1880.04
182.34	1744.87
182.56	1884.13
182.78	1834.98
183.00	1851.36
183.22	1777.64
183.44	1695.72
183.66	1927.14
183.89	1918.95
184.11	1886.18
184.33	1865.70
184.55	1984.48
184.77	1849.32
184.99	1789.92
185.21	1822.69
185.43	1961.95
185.65	1751.01
185.87	1755.11
186.10	1886.18
186.32	1961.95
186.54	1814.50
186.76	1841.12
186.98	1910.75
187.20	1748.97
187.42	1699.81
187.64	1849.32
187.86	1816.55
188.08	1896.42
188.30	1763.30
188.52	1796.07
188.75	1824.74
188.97	1855.46
189.19	1802.21
189.41	1724.39
189.63	1820.64
189.85	1814.50
190.07	1722.34
190.29	1755.11
190.51	1814.50
190.73	1726.44
190.95	1873.89
191.17	1769.44
191.39	1816.55
191.61	1837.03
191.84	1718.25
192.06	1796.07
192.28	1744.87
192.50	2052.06
192.72	1875.94
192.94	1812.45
193.16	1908.71
193.38	1861.60
193.60	1734.63
193.82	1785.83
194.04	1896.42
194.26	1789.92
194.48	1802.21
194.70	1769.44
194.92	1787.88
195.14	1820.64
195.36	1814.50
195.58	1796.07
195.80	1802.21
196.02	1769.44
196.24	1787.88
196.46	1843.17
196.69	1763.30
196.91	1941.47
197.13	1728.49
197.35	1781.73
197.57	1900.52
197.79	1863.65
198.01	1808.36
198.23	1884.13
198.45	1832.93
198.67	1759.21
198.89	1736.68
199.11	1830.88
199.33	1806.31
199.55	1630.18
199.77	1773.54
199.99	1900.52
200.21	1736.68
200.43	1912.80
200.65	1746.92
200.87	1726.44
201.09	1849.32
201.31	1791.97
201.53	1877.99
201.75	1832.93
201.97	1806.31
202.19	1816.55
202.41	1865.70
202.63	1912.80
202.85	1806.31
203.07	1861.60
203.29	1822.69
203.51	1818.60
203.73	1742.82
203.95	1961.95
204.17	1800.16
204.39	1816.55
204.61	1804.26
204.83	1824.74
205.05	1863.65
205.27	1894.37
205.49	1966.05
205.71	1718.25
205.93	1742.82
206.15	1798.12
206.37	1816.55
206.59	1759.21
206.81	1705.96
207.03	1769.44
207.25	1710.05
207.47	1832.93
207.69	1867.75
207.91	1918.95
208.13	1931.23
208.34	1777.64
208.56	1753.06
208.78	1855.46
209.00	1855.46
209.22	1787.88
209.44	1853.41
209.66	1853.41
209.88	1925.09
210.10	1837.03
210.32	1730.53
210.54	1853.41
210.76	1810.40
210.98	1894.37
211.20	1724.39
211.42	1806.31
211.64	1916.90
211.86	1804.26
212.08	1882.08
212.30	1892.32
212.52	1761.25
212.74	1767.40
212.96	1839.08
213.17	1888.23
213.39	1822.69
213.61	1853.41
213.83	1855.46
214.05	1763.30
214.27	1865.70
214.49	1734.63
214.71	1712.10
214.93	1920.99
215.15	1814.50
215.37	1920.99
215.59	1671.14
215.81	1912.80
216.03	1867.75
216.24	1777.64
216.46	1800.16
216.68	1855.46
216.90	1853.41
217.12	1861.60
217.34	1771.49
217.56	1837.03
217.78	1898.47
218.00	1816.55
218.22	1783.78
218.44	1802.21
218.66	1791.97
218.87	1912.80
219.09	1720.29
219.31	1857.51
219.53	1812.45
219.75	1742.82
219.97	1808.36
220.19	1830.88
220.41	1753.06
220.63	1882.08
220.85	1791.97
221.06	1783.78
221.28	1912.80
221.50	1839.08
221.72	1859.56
221.94	1798.12
222.16	1837.03
222.38	1863.65
222.60	1777.64
222.82	1726.44
223.03	1859.56
223.25	1730.53
223.47	1886.18
223.69	1935.33
223.91	1890.28
224.13	1798.12
224.35	1730.53
224.57	1794.02
224.78	1775.59
225.00	1861.60
225.22	1771.49
225.44	1755.11
225.66	1892.32
225.88	1808.36
226.10	1880.04
226.32	1808.36
226.53	1949.67
226.75	1728.49
226.97	1822.69
227.19	1863.65
227.41	1744.87
227.63	1791.97
227.85	1740.77
228.06	1832.93
228.28	1810.40
228.50	1886.18
228.72	1761.25
228.94	1783.78
229.16	1716.20
229.37	1738.73
229.59	1775.59
229.81	1877.99
230.03	1845.22
230.25	1681.38
230.47	1748.97
230.69	1734.63
230.90	1886.18
231.12	1769.44
231.34	1812.45
231.56	1923.04
231.78	1791.97
232.00	1794.02
232.21	1800.16
232.43	1763.30
232.65	1742.82
232.87	1814.50
233.09	1740.77
233.30	1751.01
233.52	1857.51
233.74	1859.56
233.96	1859.56
234.18	1785.83
234.40	1775.59
234.61	1900.52
234.83	1751.01
235.05	1730.53
235.27	1908.71
235.49	1935.33
235.70	1734.63
235.92	1923.04
236.14	1853.41
236.36	1961.95
236.58	1730.53
236.79	1830.88
237.01	1832.93
237.23	1818.60
237.45	1853.41
237.67	1773.54
237.88	1843.17
238.10	1970.15
238.32	1728.49
238.54	1791.97
238.76	1783.78
238.97	1804.26
239.19	1785.83
239.41	1892.32
239.63	1853.41
239.85	1742.82
240.06	1787.88
240.28	1796.07
240.50	1841.12
240.72	1738.73
240.93	1759.21
241.15	1845.22
241.37	1843.17
241.59	1867.75
241.81	1710.05
242.02	1779.68
242.24	1908.71
242.46	1837.03
242.68	1767.40
242.89	1781.73
243.11	1910.75
243.33	1775.59
243.55	1855.46
243.76	1804.26
243.98	1794.02
244.20	1798.12
244.42	1773.54
244.64	1828.84
244.85	1679.33
245.07	1757.16
245.29	1830.88
245.51	1810.40
245.72	1906.66
245.94	1882.08
246.16	1834.98
246.38	1843.17
246.59	1720.29
246.81	1814.50
247.03	1781.73
247.24	1675.24
247.46	1806.31
247.68	1748.97
247.90	1861.60
248.11	1794.02
248.33	1900.52
248.55	1751.01
248.77	1873.89
248.98	1832.93
249.20	1900.52
249.42	1845.22
249.64	1783.78
249.85	1804.26
250.07	1837.03
250.29	1812.45
250.50	1802.21
250.72	1757.16
250.94	1806.31
251.16	1959.91
251.37	1847.27
251.59	1886.18
251.81	1851.36
252.02	1894.37
252.24	1763.30
252.46	1871.84
252.68	1726.44
252.89	1757.16
253.11	1697.77
253.33	1882.08
253.54	1880.04
253.76	1775.59
253.98	1769.44
254.20	1820.64
254.41	1757.16
254.63	1822.69
254.85	1773.54
255.06	1781.73
255.28	1808.36
255.50	1798.12
255.71	1708.01
255.93	1769.44
256.15	1796.07
256.36	1839.08
256.58	1820.64
256.80	1804.26
257.02	1900.52
257.23	1791.97
257.45	1771.49
257.67	1869.80
257.88	1746.92
258.10	1871.84
258.32	1837.03
258.53	1730.53
258.75	1935.33
258.97	1763.30
259.18	1857.51
259.40	1894.37
259.62	1904.61
259.83	1888.23
260.05	1910.75
260.27	2166.75
260.48	1871.84
260.70	1791.97
260.92	1804.26
261.13	1757.16
261.35	1824.74
261.57	1861.60
261.78	1703.91
262.00	1746.92
262.22	1841.12
262.43	1773.54
262.65	1898.47
262.86	1845.22
263.08	1947.62
263.30	1798.12
263.51	1689.57
263.73	1763.30
263.95	1941.47
264.16	1804.26
264.38	1689.57
264.60	1816.55
264.81	1888.23
265.03	1873.89
265.25	1939.43
265.46	1816.55
265.68	1810.40
265.89	1841.12
266.11	1769.44
266.33	1855.46
266.54	1902.56
266.76	1787.88
266.98	1802.21
267.19	1890.28
267.41	1873.89
267.62	1816.55
267.84	1714.15
268.06	1839.08
268.27	1791.97
268.49	1910.75
268.70	1902.56
268.92	1787.88
269.14	1783.78
269.35	1779.68
269.57	1804.26
269.79	1857.51
270.00	1812.45
270.22	1886.18
270.43	1710.05
270.65	1683.43
270.87	1789.92
271.08	1849.32
271.30	1810.40
271.51	1757.16
271.73	1814.50
271.95	1912.80
272.16	1886.18
272.38	1820.64
272.59	1755.11
272.81	1880.04
273.02	1837.03
273.24	1832.93
273.46	1871.84
273.67	1773.54
273.89	1791.97
274.10	1742.82
274.32	1841.12
274.54	1886.18
274.75	1796.07
274.97	1812.45
275.18	1828.84
275.40	1861.60
275.61	1791.97
275.83	1779.68
276.05	1767.40
276.26	1851.36
276.48	1849.32
276.69	1826.79
276.91	1755.11
277.12	1929.19
277.34	1918.95
277.55	1853.41
277.77	1804.26
277.99	1748.97
278.20	1781.73
278.42	1775.59
278.63	1818.60
278.85	1761.25
279.06	1726.44
279.28	1861.60
279.49	1828.84
279.71	1865.70
279.93	1890.28
280.14	1814.50
280.36	1761.25
280.57	1890.28
280.79	1830.88
281.00	1783.78
281.22	1816.55
281.43	1824.74
281.65	1646.57
281.86	1751.01
282.08	1880.04
282.29	1845.22
282.51	1755.11
282.73	1781.73
282.94	1671.14
283.16	1859.56
283.37	1920.99
283.59	1857.51
283.80	1794.02
284.02	1857.51
284.23	1902.56
284.45	1822.69
284.66	1757.16
284.88	1767.40
285.09	1753.06
285.31	1826.79
285.52	1791.97
285.74	1716.20
285.95	1861.60
286.17	1834.98
286.38	1902.56
286.60	1742.82
286.81	1816.55
287.03	1718.25
287.24	1753.06
287.46	1855.46
287.67	1832.93
287.89	1927.14
288.10	1777.64
288.32	1816.55
288.53	1863.65
288.75	1798.12
288.96	1830.88
289.18	1820.64
289.39	1871.84
289.61	1863.65
289.82	1918.95
290.04	1898.47
290.25	1751.01
290.47	1794.02
290.68	1814.50
290.90	1945.57
291.11	1777.64
291.33	1861.60
291.54	1808.36
291.76	1798.12
291.97	1853.41
292.18	1861.60
292.40	1783.78
292.61	1724.39
292.83	1935.33
293.04	1916.90
293.26	1832.93
293.47	1769.44
293.69	1814.50
293.90	1755.11
294.12	1906.66
294.33	1806.31
294.55	1781.73
294.76	1841.12
294.97	1890.28
295.19	1968.10
295.40	1804.26
295.62	1918.95
295.83	1884.13
296.05	1720.29
296.26	1873.89
296.48	1816.55
296.69	1855.46
296.90	1771.49
297.12	1800.16
297.33	1818.60
297.55	1812.45
297.76	1882.08
297.98	1857.51
298.19	1791.97
298.41	1789.92
298.62	1781.73
298.83	1910.75
299.05	1781.73
299.26	1785.83
299.48	1736.68
299.69	1884.13
299.90	1808.36
300.12	1759.21
300.33	1839.08
300.55	1791.97
300.76	1830.88
300.98	1794.02
301.19	1783.78
301.40	1746.92
301.62	1755.11
301.83	1839.08
302.05	1837.03
302.26	1701.86
302.47	1845.22
302.69	1757.16
302.90	1802.21
303.12	1687.53
303.33	1779.68
303.54	1869.80
303.76	1789.92
303.97	1839.08
304.19	1873.89
304.40	1652.71
304.61	1916.90
304.83	1894.37
305.04	1873.89
305.26	1865.70
305.47	1853.41
305.68	1787.88
305.90	1738.73
306.11	1867.75
306.33	1812.45
306.54	1822.69
306.75	1746.92
306.97	1744.87
307.18	1716.20
307.39	1748.97
307.61	1869.80
307.82	1777.64
308.04	1902.56
308.25	1843.17
308.46	1910.75
308.68	1812.45
308.89	1810.40
309.10	1945.57
309.32	1861.60
309.53	1816.55
309.74	1806.31
309.96	1787.88
310.17	1937.38
310.39	1839.08
310.60	1828.84
310.81	1787.88
311.03	1763.30
311.24	1863.65
311.45	1839.08
311.67	1894.37
311.88	1851.36
312.09	1816.55
312.31	1738.73
312.52	1800.16
312.73	1714.15
312.95	1724.39
313.16	1732.58
313.37	1906.66
313.59	1826.79
313.80	1824.74
314.01	1910.75
314.23	1785.83
314.44	1806.31
314.65	1691.62
314.87	1726.44
315.08	1816.55
315.29	1730.53
315.51	1787.88
315.72	1693.67
315.93	1877.99
316.15	1853.41
316.36	1693.67
316.57	1812.45
316.79	1798.12
317.00	1800.16
317.21	1775.59
317.43	1705.96
317.64	1777.64
317.85	1791.97
318.07	1785.83
318.28	1865.70
318.49	1943.52
318.70	2133.98
318.92	2007.01
319.13	1935.33
319.34	2004.96
319.56	1857.51
319.77	1939.43
319.98	1974.24
320.20	1898.47
320.41	1896.42
320.62	1912.80
320.83	1802.21
321.05	2025.44
321.26	1822.69
321.47	1812.45
321.69	1875.94
321.90	1763.30
322.11	1753.06
322.32	1849.32
322.54	1890.28
322.75	1808.36
322.96	1939.43
323.18	1722.34
323.39	1708.01
323.60	1816.55
323.81	1834.98
324.03	1794.02
324.24	1812.45
324.45	1845.22
324.66	1853.41
324.88	1906.66
325.09	1927.14
325.30	1855.46
325.52	1796.07
325.73	1828.84
325.94	1763.30
326.15	1710.05
326.37	1781.73
326.58	1812.45
326.79	1914.85
327.00	1718.25
327.22	1892.32
327.43	1789.92
327.64	1861.60
327.85	1888.23
328.07	1812.45
328.28	1955.81
328.49	1832.93
328.70	1920.99
328.92	1818.60
329.13	1759.21
329.34	1869.80
329.55	1976.29
329.76	1845.22
329.98	1753.06
330.19	1896.42
330.40	1869.80
330.61	1798.12
330.83	1890.28
331.04	1726.44
331.25	1769.44
331.46	1802.21
331.68	1687.53
331.89	1918.95
332.10	1759.21
332.31	1744.87
332.52	1820.64
332.74	1904.61
332.95	1667.05
333.16	1916.90
333.37	1804.26
333.58	1767.40
333.80	1783.78
334.01	1734.63
334.22	1832.93
334.43	1759.21
334.64	1789.92
334.86	1759.21
335.07	1796.07
335.28	1951.71
335.49	1787.88
335.70	1812.45
335.92	1945.57
336.13	1978.34
336.34	1861.60
336.55	1830.88
336.76	1806.31
336.98	1736.68
337.19	1869.80
337.40	1955.81
337.61	1976.29
337.82	1851.36
338.04	1886.18
338.25	1701.86
338.46	1867.75
338.67	1826.79
338.88	1755.11
339.09	1777.64
339.31	1769.44
339.52	1724.39
339.73	1744.87
339.94	1802.21
340.15	1933.28
340.36	1753.06
340.58	1812.45
340.79	1726.44
341.00	1918.95
341.21	1755.11
341.42	1937.38
341.63	1794.02
341.85	1869.80
342.06	1851.36
342.27	1701.86
342.48	1814.50
342.69	1808.36
342.90	1794.02
343.12	1918.95
343.33	1820.64
343.54	1873.89
343.75	1892.32
343.96	1841.12
344.17	1781.73
344.38	1857.51
344.60	1738.73
344.81	1810.40
345.02	1828.84
345.23	1849.32
345.44	1978.34
345.65	1867.75
345.86	1886.18
346.07	1804.26
346.29	1763.30
346.50	1820.64
346.71	1873.89
346.92	1947.62
347.13	1943.52
347.34	1751.01
347.55	1804.26
347.76	1806.31
347.98	1701.86
348.19	1777.64
348.40	1906.66
348.61	1746.92
348.82	1976.29
349.03	1871.84
349.24	1812.45
349.45	1914.85
349.66	1726.44
349.88	1732.58
350.09	1826.79
350.30	1865.70
350.51	1849.32
350.72	1773.54
350.93	1769.44
351.14	1738.73
351.35	1871.84
351.56	1804.26
351.77	1832.93
351.99	1849.32
352.20	1949.67
352.41	1830.88
352.62	1732.58
352.83	1820.64
353.04	1806.31
353.25	1826.79
353.46	1806.31
353.67	1871.84
353.88	1722.34
354.09	1787.88
354.30	1869.80
354.52	1820.64
354.73	1853.41
354.94	1703.91
355.15	1806.31
355.36	1980.39
355.57	1781.73
355.78	1800.16
355.99	1882.08
356.20	1839.08
356.41	1812.45
356.62	1851.36
356.83	1730.53
357.04	1931.23
357.25	1722.34
357.46	1716.20
357.68	1699.81
357.89	1824.74
358.10	1769.44
358.31	1849.32
358.52	1806.31
358.73	1697.77
358.94	1748.97
359.15	1789.92
359.36	1810.40
359.57	1765.35
359.78	1751.01
359.99	1849.32
360.20	1755.11
360.41	1859.56
360.62	1894.37
360.83	1785.83
361.04	1849.32
361.25	1853.41
361.46	1906.66
361.67	1902.56
361.88	1912.80
362.09	1845.22
362.30	1857.51
362.51	1818.60
362.72	1814.50
362.93	1871.84
363.14	1859.56
363.35	1837.03
363.56	1742.82
363.78	1837.03
363.99	1820.64
364.20	1849.32
364.41	1869.80
364.62	1978.34
364.83	1849.32
365.04	1806.31
365.25	1890.28
365.46	1918.95
365.67	1785.83
365.88	1822.69
366.09	1759.21
366.30	1748.97
366.51	1837.03
366.72	1748.97
366.93	1773.54
367.14	1845.22
367.35	1837.03
367.56	1820.64
367.77	1871.84
367.98	1779.68
368.18	1865.70
368.39	1843.17
368.60	1828.84
368.81	1841.12
369.02	1759.21
369.23	1755.11
369.44	1730.53
369.65	1796.07
369.86	1867.75
370.07	1890.28
370.28	1794.02
370.49	1863.65
370.70	1882.08
370.91	1843.17
371.12	1722.34
371.33	1865.70
371.54	1882.08
371.75	1863.65
371.96	1695.72
372.17	1777.64
372.38	1796.07
372.59	1830.88
372.80	1728.49
373.01	1861.60
373.22	1828.84
373.43	1853.41
373.64	1763.30
373.85	1884.13
374.06	1964.00
374.26	1912.80
374.47	1861.60
374.68	1888.23
374.89	1880.04
375.10	1798.12
375.31	1830.88
375.52	1779.68
375.73	1822.69
375.94	1722.34
376.15	1947.62
376.36	1771.49
376.57	1789.92
376.78	1746.92
376.99	1873.89
377.20	1918.95
377.40	1738.73
377.61	1935.33
377.82	1773.54
378.03	1877.99
378.24	1888.23
378.45	1814.50
378.66	1787.88
378.87	1746.92
379.08	1734.63
379.29	1791.97
379.50	1959.91
379.71	1705.96
379.91	1910.75
380.12	1781.73
380.33	1906.66
380.54	1787.88
380.75	1730.53
380.96	1777.64
381.17	1828.84
381.38	1802.21
381.59	1896.42
381.80	1834.98
382.00	1931.23
382.21	1925.09
382.42	2004.96
382.63	1951.71
382.84	1892.32
383.05	1988.58
383.26	1949.67
383.47	1916.90
383.68	1892.32
383.88	1857.51
384.09	1834.98
384.30	1884.13
384.51	1873.89
384.72	1800.16
384.93	1734.63
385.14	1781.73
385.35	1902.56
385.55	1757.16
385.76	1931.23
385.97	1845.22
386.18	1703.91
386.39	1728.49
386.60	1843.17
386.81	1789.92
387.02	1804.26
387.22	1732.58
387.43	1869.80
387.64	1910.75
387.85	2007.01
388.06	2115.55
388.27	4198.34
388.48	8781.69
388.68	11839.31
388.89	13772.59
389.10	14454.56
389.31	12851.00
389.52	10391.39
389.73	9127.80
389.93	8204.16
390.14	7530.38
390.35	6811.54
390.56	6248.35
390.77	4986.80
390.98	3803.08
391.18	3000.27
391.39	2467.80
391.60	2013.15
391.81	1959.91
392.02	1820.64
392.23	1994.72
392.43	1841.12
392.64	1871.84
392.85	1841.12
393.06	1951.71
393.27	1873.89
393.47	1763.30
393.68	1839.08
393.89	1841.12
394.10	1933.28
394.31	1673.19
394.52	1822.69
394.72	1746.92
394.93	1896.42
395.14	1755.11
395.35	1818.60
395.56	1804.26
395.76	1847.27
395.97	1832.93
396.18	1937.38
396.39	1935.33
396.60	2224.09
396.80	2082.78
397.01	2000.87
397.22	1990.63
397.43	1947.62
397.64	1841.12
397.84	2009.06
398.05	2037.73
398.26	1894.37
398.47	1902.56
398.67	1892.32
398.88	1714.15
399.09	1925.09
399.30	1791.97
399.51	1761.25
399.71	1804.26
399.92	1816.55
400.13	1871.84
400.34	1826.79
400.54	1886.18
400.75	1964.00
400.96	1877.99
401.17	1978.34
401.37	1837.03
401.58	1812.45
401.79	1820.64
402.00	1982.43
402.21	2099.17
402.41	2164.70
402.62	2193.37
402.83	2279.39
403.04	2246.62
403.24	2224.09
403.45	2017.25
403.66	2045.92
403.87	1986.53
404.07	2082.78
404.28	2070.50
404.49	2041.82
404.70	2023.39
404.90	1939.43
405.11	1894.37
405.32	1826.79
405.52	1720.29
405.73	1765.35
405.94	1734.63
406.15	1763.30
406.35	1839.08
406.56	1843.17
406.77	1849.32
406.98	1855.46
407.18	1734.63
407.39	1925.09
407.60	1775.59
407.80	1886.18
408.01	1775.59
408.22	1869.80
408.43	1794.02
408.63	1964.00
408.84	1777.64
409.05	1804.26
409.25	1769.44
409.46	1751.01
409.67	1832.93
409.88	1722.34
410.08	1812.45
410.29	1767.40
410.50	1830.88
410.70	1794.02
410.91	1794.02
411.12	1875.94
411.32	1787.88
411.53	1783.78
411.74	1935.33
411.95	1927.14
412.15	1966.05
412.36	1908.71
412.57	1966.05
412.77	1912.80
412.98	1875.94
413.19	1787.88
413.39	1869.80
413.60	1955.81
413.81	1892.32
414.01	1783.78
414.22	1816.55
414.43	1818.60
414.63	1802.21
414.84	1902.56
415.05	1779.68
415.25	1822.69
415.46	1853.41
415.67	1892.32
415.87	1806.31
416.08	1843.17
416.29	1726.44
416.49	1920.99
416.70	1746.92
416.91	1818.60
417.11	1877.99
417.32	1832.93
417.53	1873.89
417.73	1906.66
417.94	1826.79
418.15	1812.45
418.35	1798.12
418.56	1826.79
418.77	2000.87
418.97	1834.98
419.18	1834.98
419.38	1675.24
419.59	1796.07
419.80	1918.95
420.00	1802.21
420.21	1845.22
420.42	1920.99
420.62	1912.80
420.83	1736.68
421.04	1796.07
421.24	1804.26
421.45	1843.17
421.65	1861.60
421.86	1751.01
422.07	1865.70
422.27	1880.04
422.48	1884.13
422.69	1794.02
422.89	1791.97
423.10	1787.88
423.30	1732.58
423.51	1853.41
423.72	1847.27
423.92	1857.51
424.13	1763.30
424.33	1757.16
424.54	1880.04
424.75	1828.84
424.95	1937.38
425.16	1841.12
425.36	1810.40
425.57	1824.74
425.78	1832.93
425.98	1931.23
426.19	1804.26
426.39	1810.40
426.60	1843.17
426.81	1910.75
427.01	1781.73
427.22	1800.16
427.42	1769.44
427.63	1851.36
427.83	1834.98
428.04	1875.94
428.25	1910.75
428.45	1937.38
428.66	1894.37
428.86	1851.36
429.07	1800.16
429.28	1900.52
429.48	1763.30
429.69	1718.25
429.89	1900.52
430.10	1759.21
430.30	1884.13
430.51	1787.88
430.71	1818.60
430.92	1832.93
431.13	1798.12
431.33	1923.04
431.54	1882.08
431.74	1820.64
431.95	1904.61
432.15	1751.01
432.36	1820.64
432.56	1771.49
432.77	1957.86
432.98	1955.81
433.18	1851.36
433.39	1787.88
433.59	1826.79
433.80	1929.19
434.00	1933.28
434.21	1746.92
434.41	1767.40
434.62	2019.30
434.82	1720.29
435.03	1757.16
435.23	1773.54
435.44	1767.40
435.64	1789.92
435.85	1906.66
436.06	1951.71
436.26	1828.84
436.47	1873.89
436.67	1798.12
436.88	1787.88
437.08	1896.42
437.29	1906.66
437.49	1861.60
437.70	1871.84
437.90	1961.95
438.11	1972.19
438.31	1880.04
438.52	2054.11
438.72	2004.96
438.93	2113.50
439.13	1916.90
439.34	1992.67
439.54	1918.95
439.75	1898.47
439.95	1949.67
440.16	1880.04
440.36	1804.26
440.57	1900.52
440.77	1867.75
440.98	1859.56
441.18	1947.62
441.39	1839.08
441.59	1837.03
441.80	1937.38
442.00	1861.60
442.21	1968.10
442.41	1746.92
442.62	1918.95
442.82	1718.25
443.02	1826.79
443.23	1900.52
443.43	1785.83
443.64	1970.15
443.84	1841.12
444.05	1898.47
444.25	1806.31
444.46	1787.88
444.66	1812.45
444.87	2023.39
445.07	1744.87
445.28	1808.36
445.48	1861.60
445.69	1898.47
445.89	2019.30
446.09	1896.42
446.30	2041.82
446.50	2592.73
446.71	4011.97
446.91	5238.70
447.12	5734.31
447.32	6143.91
447.53	5613.48
447.73	4806.58
447.93	4171.71
448.14	3852.23
448.34	3655.62
448.55	3268.56
448.75	3231.69
448.96	3174.35
449.16	2752.47
449.36	2578.39
449.57	2181.09
449.77	1990.63
449.98	1920.99
450.18	1902.56
450.39	1912.80
450.59	1896.42
450.79	1785.83
451.00	1763.30
451.20	1904.61
451.41	1898.47
451.61	1871.84
451.81	1806.31
452.02	1802.21
452.22	1763.30
452.43	1849.32
452.63	1853.41
452.84	1841.12
453.04	1798.12
453.24	1808.36
453.45	1826.79
453.65	1857.51
453.86	1880.04
454.06	1814.50
454.26	1820.64
454.47	1814.50
454.67	1918.95
454.87	1853.41
455.08	1898.47
455.28	1880.04
455.49	1839.08
455.69	1802.21
455.89	1947.62
456.10	1982.43
456.30	1941.47
456.51	1859.56
456.71	1812.45
456.91	1800.16
457.12	1761.25
457.32	1861.60
457.52	1777.64
457.73	1880.04
457.93	1849.32
458.14	1775.59
458.34	1775.59
458.54	1826.79
458.75	1806.31
458.95	1853.41
459.15	1855.46
459.36	1877.99
459.56	1914.85
459.76	1933.28
459.97	1787.88
460.17	1859.56
460.37	1892.32
460.58	1869.80
460.78	1853.41
460.99	1853.41
461.19	1824.74
461.39	1826.79
461.60	1857.51
461.80	1912.80
462.00	1812.45
462.21	1785.83
462.41	1816.55
462.61	1828.84
462.82	1753.06
463.02	1914.85
463.22	1742.82
463.43	1834.98
463.63	1814.50
463.83	1871.84
464.04	1900.52
464.24	1841.12
464.44	1724.39
464.64	1914.85
464.85	1900.52
465.05	1918.95
465.25	1837.03
465.46	1791.97
465.66	1933.28
465.86	1873.89
466.07	1781.73
466.27	1851.36
466.47	1724.39
466.68	1716.20
466.88	2004.96
467.08	1828.84
467.29	1961.95
467.49	1935.33
467.69	1892.32
467.89	1929.19
468.10	1757.16
468.30	1808.36
468.50	1980.39
468.71	1873.89
468.91	1757.16
469.11	1966.05
469.31	1771.49
469.52	1736.68
469.72	1994.72
469.92	1998.82
470.13	1845.22
470.33	1822.69
470.53	1955.81
470.73	2260.96
470.94	2713.56
471.14	2777.05
471.34	3160.02
471.54	3096.53
471.75	2789.33
471.95	2445.27
472.15	2375.64
472.36	2314.20
472.56	2387.93
472.76	2254.81
472.96	2217.95
473.17	2111.46
473.37	2105.31
473.57	1877.99
473.77	2013.15
473.98	1931.23
474.18	1779.68
474.38	1970.15
474.58	1839.08
474.79	1769.44
474.99	1857.51
475.19	1841.12
475.39	1726.44
475.60	1865.70
475.80	1814.50
476.00	1789.92
476.20	1837.03
476.41	1818.60
476.61	1986.53
476.81	1855.46
477.01	1767.40
477.21	1929.19
477.42	1882.08
477.62	1867.75
477.82	1837.03
478.02	1781.73
478.23	1806.31
478.43	1759.21
478.63	1781.73
478.83	1818.60
479.03	1851.36
479.24	1828.84
479.44	1902.56
479.64	1701.86
479.84	1755.11
480.04	1730.53
480.25	1880.04
480.45	1828.84
480.65	1826.79
480.85	1859.56
481.06	1804.26
481.26	1841.12
481.46	1855.46
481.66	1847.27
481.86	1843.17
482.06	1964.00
482.27	1800.16
482.47	1847.27
482.67	1857.51
482.87	1798.12
483.07	1943.52
483.28	1808.36
483.48	1789.92
483.68	1775.59
483.88	1824.74
484.08	1697.77
484.29	1742.82
484.49	1873.89
484.69	1732.58
484.89	1832.93
485.09	1920.99
485.29	1865.70
485.50	1839.08
485.70	1771.49
485.90	1894.37
486.10	1857.51
486.30	1886.18
486.50	1859.56
486.71	1853.41
486.91	1814.50
487.11	1931.23
487.31	1755.11
487.51	1830.88
487.71	1746.92
487.91	1734.63
488.12	1722.34
488.32	1662.95
488.52	1791.97
488.72	1738.73
488.92	1849.32
489.12	1910.75
489.32	1939.43
489.53	1828.84
489.73	1769.44
489.93	1918.95
490.13	1791.97
490.33	1769.44
490.53	1898.47
490.73	1882.08
490.94	1761.25
491.14	1828.84
491.34	1927.14
491.54	2230.24
491.74	2869.20
491.94	3321.81
492.14	3592.14
492.34	3680.20
492.54	3313.61
492.75	2867.16
492.95	2766.81
493.15	2570.20
493.35	2508.76
493.55	2328.54
493.75	2367.45
493.95	2340.83
494.15	2240.48
494.35	2041.82
494.56	1968.10
494.76	1877.99
494.96	1916.90
495.16	1875.94
495.36	1808.36
495.56	1847.27
495.76	1851.36
495.96	1847.27
496.16	1742.82
496.36	1994.72
496.56	1877.99
496.77	1880.04
496.97	1834.98
497.17	1765.35
497.37	1746.92
497.57	1875.94
497.77	1875.94
497.97	1791.97
498.17	1779.68
498.37	1812.45
498.57	1871.84
498.77	1822.69
498.97	1886.18
499.17	1939.43
499.38	1861.60
499.58	1873.89
499.78	1890.28
499.98	1910.75
500.18	1802.21
500.38	1777.64
500.58	1984.48
500.78	2502.62
500.98	4622.27
501.18	6768.54
501.38	8419.20
501.58	9344.88
501.78	9232.24
501.98	7210.90
502.18	5980.07
502.38	5134.26
502.58	4749.24
502.78	4177.86
502.98	4083.65
503.18	3958.72
503.38	3653.58
503.59	3319.76
503.79	2947.03
503.99	2639.83
504.19	2514.91
504.39	2441.18
504.59	2445.27
504.79	2420.70
504.99	2463.71
505.19	2195.42
505.39	2164.70
505.59	2183.13
505.79	2099.17
505.99	1986.53
506.19	1916.90
506.39	1978.34
506.59	1867.75
506.79	1882.08
506.99	1988.58
507.19	1931.23
507.39	1896.42
507.59	1794.02
507.79	1769.44
507.99	1798.12
508.19	1871.84
508.39	1787.88
508.59	1830.88
508.79	1877.99
508.99	1980.39
509.19	1787.88
509.39	1826.79
509.59	1832.93
509.79	1841.12
509.99	1775.59
510.19	1931.23
510.39	1953.76
510.59	1820.64
510.79	1861.60
510.99	1755.11
511.19	1806.31
511.39	1943.52
511.59	1923.04
511.79	1877.99
511.99	1789.92
512.19	2011.11
512.38	1869.80
512.58	1787.88
512.78	1859.56
512.98	1931.23
513.18	1886.18
513.38	1794.02
513.58	1902.56
513.78	1802.21
513.98	1828.84
514.18	1873.89
514.38	1781.73
514.58	1882.08
514.78	1789.92
514.98	1804.26
515.18	1763.30
515.38	1763.30
515.58	1890.28
515.78	1818.60
515.98	1828.84
516.18	1841.12
516.38	1863.65
516.57	1812.45
516.77	1855.46
516.97	1845.22
517.17	1847.27
517.37	1722.34
517.57	1865.70
517.77	1853.41
517.97	1681.38
518.17	1910.75
518.37	1837.03
518.57	1789.92
518.77	1828.84
518.97	1853.41
519.16	1918.95
519.36	2007.01
519.56	1853.41
519.76	1816.55
519.96	1837.03
520.16	1906.66
520.36	1791.97
520.56	1884.13
520.76	1808.36
520.96	1886.18
521.16	1961.95
521.35	1925.09
521.55	1998.82
521.75	1916.90
521.95	1791.97
522.15	1847.27
522.35	1722.34
522.55	1822.69
522.75	1871.84
522.95	1794.02
523.14	1763.30
523.34	1847.27
523.54	1837.03
523.74	1796.07
523.94	1798.12
524.14	1726.44
524.34	1877.99
524.54	1884.13
524.73	1763.30
524.93	1880.04
525.13	1783.78
525.33	1742.82
525.53	2052.06
525.73	1927.14
525.93	1855.46
526.13	1892.32
526.32	1832.93
526.52	1859.56
526.72	1925.09
526.92	1865.70
527.12	1789.92
527.32	1853.41
527.52	1914.85
527.71	1816.55
527.91	1830.88
528.11	1816.55
528.31	1783.78
528.51	1785.83
528.71	1863.65
528.90	1859.56
529.10	1927.14
529.30	1959.91
529.50	1689.57
529.70	1880.04
529.90	1765.35
530.09	1789.92
530.29	1699.81
530.49	1841.12
530.69	2000.87
530.89	1777.64
531.09	1810.40
531.28	1714.15
531.48	1943.52
531.68	1847.27
531.88	1882.08
532.08	1884.13
532.28	1845.22
532.47	1929.19
532.67	1853.41
532.87	1898.47
533.07	1830.88
533.27	1894.37
533.46	1888.23
533.66	1935.33
533.86	1847.27
534.06	1947.62
534.26	1875.94
534.45	1853.41
534.65	1894.37
534.85	1906.66
535.05	1763.30
535.25	1886.18
535.44	1763.30
535.64	1806.31
535.84	1742.82
536.04	1892.32
536.24	1867.75
536.43	1734.63
536.63	1914.85
536.83	1761.25
537.03	1904.61
537.22	1708.01
537.42	1724.39
537.62	1875.94
537.82	1751.01
538.02	1851.36
538.21	1982.43
538.41	1974.24
538.61	1861.60
538.81	1787.88
539.00	1904.61
539.20	1718.25
539.40	1865.70
539.60	1882.08
539.79	1935.33
539.99	1787.88
540.19	1785.83
540.39	1837.03
540.58	1802.21
540.78	1861.60
540.98	1806.31
541.18	1912.80
541.37	1916.90
541.57	1794.02
541.77	1869.80
541.97	1765.35
542.16	1824.74
542.36	1808.36
542.56	1806.31
542.76	2002.91
542.95	1884.13
543.15	1824.74
543.35	1845.22
543.54	1765.35
543.74	1828.84
543.94	1839.08
544.14	1763.30
544.33	1830.88
544.53	1830.88
544.73	1843.17
544.93	1830.88
545.12	1808.36
545.32	1849.32
545.52	1865.70
545.71	1742.82
545.91	1806.31
546.11	1773.54
546.30	1785.83
546.50	1859.56
546.70	1851.36
546.90	1869.80
547.09	1748.97
547.29	1871.84
547.49	1828.84
547.68	1789.92
547.88	1849.32
548.08	1880.04
548.27	2271.20
548.47	1777.64
548.67	1744.87
548.87	1916.90
549.06	1806.31
549.26	1906.66
549.46	1724.39
549.65	1820.64
549.85	1896.42
550.05	1841.12
550.24	1820.64
550.44	1814.50
550.64	1798.12
550.83	1804.26
551.03	1816.55
551.23	1822.69
551.42	1830.88
551.62	1808.36
551.82	1882.08
552.01	1728.49
552.21	1920.99
552.41	1857.51
552.60	1910.75
552.80	1837.03
553.00	1822.69
553.19	1837.03
553.39	1968.10
553.59	1837.03
553.78	1900.52
553.98	1877.99
554.17	1730.53
554.37	1773.54
554.57	1869.80
554.76	1781.73
554.96	1841.12
555.16	1880.04
555.35	1869.80
555.55	1775.59
555.75	1894.37
555.94	1916.90
556.14	1742.82
556.33	1830.88
556.53	1755.11
556.73	1877.99
556.92	1898.47
557.12	1923.04
557.32	1871.84
557.51	1863.65
557.71	1906.66
557.90	1951.71
558.10	1945.57
558.30	1798.12
558.49	1794.02
558.69	1845.22
558.88	1834.98
559.08	1904.61
559.28	1871.84
559.47	1869.80
559.67	1945.57
559.86	1896.42
560.06	1849.32
560.26	1841.12
560.45	1929.19
560.65	1890.28
560.84	1941.47
561.04	1802.21
561.24	1814.50
561.43	1791.97
561.63	1888.23
561.82	1806.31
562.02	1896.42
562.22	1804.26
562.41	1724.39
562.61	1816.55
562.80	1820.64
563.00	1949.67
563.19	1898.47
563.39	1890.28
563.59	1802.21
563.78	1787.88
563.98	1785.83
564.17	1781.73
564.37	1679.33
564.56	1857.51
564.76	1814.50
564.96	1898.47
565.15	1814.50
565.35	1964.00
565.54	1839.08
565.74	1894.37
565.93	1920.99
566.13	1853.41
566.32	1818.60
566.52	1886.18
566.71	1816.55
566.91	1875.94
567.11	1851.36
567.30	1837.03
567.50	1902.56
567.69	1908.71
567.89	1806.31
568.08	1873.89
568.28	1824.74
568.47	1730.53
568.67	1738.73
568.86	1857.51
569.06	1839.08
569.25	1826.79
569.45	1796.07
569.64	1898.47
569.84	1783.78
570.04	1904.61
570.23	1832.93
570.43	1937.38
570.62	1941.47
570.82	1886.18
571.01	1701.86
571.21	1818.60
571.40	1812.45
571.60	1894.37
571.79	1873.89
571.99	1859.56
572.18	1798.12
572.38	1990.63
572.57	1787.88
572.77	1910.75
572.96	2013.15
573.16	1855.46
573.35	1804.26
573.55	1861.60
573.74	1853.41
573.94	1837.03
574.13	1826.79
574.33	1824.74
574.52	1953.76
574.71	1898.47
574.91	1902.56
575.10	1789.92
575.30	1800.16
575.49	1742.82
575.69	1824.74
575.88	1931.23
576.08	1847.27
576.27	1980.39
576.47	1927.14
576.66	2011.11
576.86	1980.39
577.05	1910.75
577.25	1898.47
577.44	2015.20
577.64	1834.98
577.83	1916.90
578.02	1830.88
578.22	1992.67
578.41	1949.67
578.61	1744.87
578.80	1787.88
579.00	1886.18
579.19	1877.99
579.39	1841.12
579.58	2007.01
579.77	1845.22
579.97	1947.62
580.16	1886.18
580.36	1945.57
580.55	2043.87
580.75	1822.69
580.94	1902.56
581.13	1982.43
581.33	1980.39
581.52	1957.86
581.72	2052.06
581.91	2058.21
582.11	1861.60
582.30	1964.00
582.49	1920.99
582.69	1974.24
582.88	1988.58
583.08	1869.80
583.27	1982.43
583.47	1890.28
583.66	1849.32
583.85	1837.03
584.05	1892.32
584.24	1966.05
584.44	1937.38
584.63	1857.51
584.82	1947.62
585.02	2011.11
585.21	1990.63
585.41	2031.58
585.60	2023.39
585.79	2095.07
585.99	2107.36
586.18	1996.77
586.37	2346.97
586.57	3561.42
586.76	10766.17
586.96	28415.57
587.15	42794.36
587.34	52671.71
587.54	59116.67
587.73	55872.68
587.93	40117.66
588.12	29566.52
588.31	23838.36
588.51	20328.14
588.70	18747.11
588.89	17026.81
589.09	15234.84
589.28	13207.35
589.47	10954.58
589.67	8886.14
589.86	7055.25
590.06	5044.15
590.25	3971.01
590.44	3098.58
590.64	2631.64
590.83	2244.57
591.02	2246.62
591.22	2072.54
591.41	1972.19
591.60	1988.58
591.80	2033.63
591.99	1851.36
592.18	1865.70
592.38	1959.91
592.57	1855.46
592.76	1894.37
592.96	1884.13
593.15	1857.51
593.34	1949.67
593.54	1841.12
593.73	1964.00
593.92	1906.66
594.12	1964.00
594.31	1990.63
594.50	1984.48
594.70	1931.23
594.89	2086.88
595.08	1796.07
595.28	1927.14
595.47	2050.02
595.66	1904.61
595.86	1839.08
596.05	1863.65
596.24	1847.27
596.43	2023.39
596.63	1947.62
596.82	1916.90
597.01	1863.65
597.21	1929.19
597.40	1943.52
597.59	1916.90
597.79	1908.71
597.98	1914.85
598.17	1871.84
598.36	1865.70
598.56	1908.71
598.75	1849.32
598.94	1923.04
599.14	1832.93
599.33	1884.13
599.52	1968.10
599.71	1898.47
599.91	1910.75
600.10	1980.39
600.29	1871.84
600.48	1880.04
600.68	1853.41
600.87	1806.31
601.06	1820.64
601.26	1937.38
601.45	1902.56
601.64	1892.32
601.83	1961.95
602.03	1794.02
602.22	1724.39
602.41	1937.38
602.60	1968.10
602.80	1923.04
602.99	1877.99
603.18	1834.98
603.37	1865.70
603.57	1886.18
603.76	1937.38
603.95	1935.33
604.14	1845.22
604.34	1773.54
604.53	1853.41
604.72	1812.45
604.91	1863.65
605.10	1896.42
605.30	1748.97
605.49	1886.18
605.68	1884.13
605.87	1882.08
606.07	1847.27
606.26	1832.93
606.45	1902.56
606.64	1906.66
606.84	1818.60
607.03	1880.04
607.22	1972.19
607.41	1908.71
607.60	1865.70
607.80	1916.90
607.99	1892.32
608.18	1800.16
608.37	1884.13
608.56	1804.26
608.76	1839.08
608.95	2025.44
609.14	1988.58
609.33	1968.10
609.52	1972.19
609.72	1910.75
609.91	1949.67
610.10	1925.09
610.29	1959.91
610.48	1984.48
610.68	1873.89
610.87	1906.66
611.06	1935.33
611.25	1890.28
611.44	2000.87
611.63	1861.60
611.83	1886.18
612.02	1808.36
612.21	1959.91
612.40	1779.68
612.59	1773.54
612.79	1806.31
612.98	1757.16
613.17	1955.81
613.36	1796.07
613.55	1972.19
613.74	1892.32
613.93	2031.58
614.13	2064.35
614.32	2039.78
614.51	2052.06
614.70	1949.67
614.89	1892.32
615.08	1931.23
615.28	2271.20
615.47	1832.93
615.66	1882.08
615.85	1867.75
616.04	2045.92
616.23	1945.57
616.42	1996.77
616.62	1910.75
616.81	1871.84
617.00	1884.13
617.19	1820.64
617.38	1755.11
617.57	1902.56
617.76	1912.80
617.95	1947.62
618.15	1931.23
618.34	2058.21
618.53	1765.35
618.72	1877.99
618.91	1927.14
619.10	2025.44
619.29	1857.51
619.48	1800.16
619.68	1798.12
619.87	1882.08
620.06	1726.44
620.25	1892.32
620.44	1761.25
620.63	1798.12
620.82	1853.41
621.01	1859.56
621.20	1845.22
621.39	1845.22
621.59	1869.80
621.78	1861.60
621.97	1867.75
622.16	1935.33
622.35	1826.79
622.54	1888.23
622.73	1908.71
622.92	1701.86
623.11	1880.04
623.30	1761.25
623.49	1875.94
623.68	1832.93
623.88	1877.99
624.07	1820.64
624.26	1849.32
624.45	1816.55
624.64	1865.70
624.83	1777.64
625.02	1855.46
625.21	1845.22
625.40	1857.51
625.59	1892.32
625.78	1849.32
625.97	2000.87
626.16	1945.57
626.35	1918.95
626.54	1943.52
626.74	2035.68
626.93	1880.04
627.12	1822.69
627.31	1980.39
627.50	1820.64
627.69	1914.85
627.88	1759.21
628.07	1865.70
628.26	1781.73
628.45	1802.21
628.64	1802.21
628.83	1808.36
629.02	1845.22
629.21	1892.32
629.40	1890.28
629.59	1818.60
629.78	1841.12
629.97	1820.64
630.16	1923.04
630.35	1814.50
630.54	1853.41
630.73	1820.64
630.92	1857.51
631.11	1832.93
631.30	1773.54
631.49	1845.22
631.68	1800.16
631.87	1816.55
632.06	1832.93
632.25	2004.96
632.44	1859.56
632.63	1863.65
632.82	1875.94
633.01	1882.08
633.20	1904.61
633.39	1877.99
633.58	1826.79
633.77	1912.80
633.96	1880.04
634.15	1935.33
634.34	1912.80
634.53	1888.23
634.72	1746.92
634.91	1816.55
635.10	1869.80
635.29	1886.18
635.48	1865.70
635.67	1863.65
635.86	1746.92
636.05	1968.10
636.24	1804.26
636.43	1814.50
636.62	1812.45
636.81	1714.15
637.00	1769.44
637.19	1910.75
637.38	1785.83
637.57	1824.74
637.76	1904.61
637.95	2058.21
638.14	1914.85
638.33	1884.13
638.52	1943.52
638.71	1796.07
638.89	1839.08
639.08	2115.55
639.27	1980.39
639.46	1994.72
639.65	2351.07
639.84	2473.95
640.03	2641.88
640.22	2447.32
640.41	2607.06
640.60	2125.79
640.79	2152.42
640.98	1972.19
641.17	2144.22
641.36	2072.54
641.55	2115.55
641.74	1863.65
641.92	1859.56
642.11	1886.18
642.30	1853.41
642.49	1806.31
642.68	1798.12
642.87	1867.75
643.06	1855.46
643.25	1765.35
643.44	1818.60
643.63	1787.88
643.82	1845.22
644.00	1806.31
644.19	1822.69
644.38	1806.31
644.57	1875.94
644.76	1828.84
644.95	1818.60
645.14	1853.41
645.33	1791.97
645.52	1832.93
645.71	1701.86
645.89	1837.03
646.08	1818.60
646.27	1781.73
646.46	1869.80
646.65	1697.77
646.84	1830.88
647.03	1767.40
647.22	1908.71
647.40	1865.70
647.59	1746.92
647.78	1753.06
647.97	1757.16
648.16	1845.22
648.35	1923.04
648.54	1839.08
648.73	1849.32
648.91	1896.42
649.10	1812.45
649.29	1796.07
649.48	1832.93
649.67	1851.36
649.86	1877.99
650.05	1875.94
650.23	2045.92
650.42	1929.19
650.61	2097.12
650.80	2011.11
650.99	2076.64
651.18	1951.71
651.36	1968.10
651.55	1888.23
651.74	1906.66
651.93	1830.88
652.12	1824.74
652.31	1796.07
652.49	1732.58
652.68	1851.36
652.87	1931.23
653.06	1935.33
653.25	1931.23
653.44	1884.13
653.62	1964.00
653.81	1826.79
654.00	1886.18
654.19	1894.37
654.38	1984.48
654.56	1861.60
654.75	1853.41
654.94	1789.92
655.13	1890.28
655.32	1859.56
655.51	1912.80
655.69	1808.36
655.88	1871.84
656.07	1824.74
656.26	1896.42
656.45	1751.01
656.63	1877.99
656.82	1912.80
657.01	1871.84
657.20	1773.54
657.38	1959.91
657.57	1865.70
657.76	1771.49
657.95	1839.08
658.14	1738.73
658.32	1810.40
658.51	1736.68
658.70	1826.79
658.89	1839.08
659.08	1886.18
659.26	1873.89
659.45	1798.12
659.64	1931.23
659.83	1918.95
660.01	2117.60
660.20	1853.41
660.39	1994.72
660.58	1748.97
660.76	1972.19
660.95	1669.09
661.14	1830.88
661.33	1804.26
661.51	1820.64
661.70	1855.46
661.89	1843.17
662.08	1847.27
662.26	1705.96
662.45	1785.83
662.64	1957.86
662.83	1886.18
663.01	1742.82
663.20	1841.12
663.39	1947.62
663.58	1798.12
663.76	1800.16
663.95	1796.07
664.14	1826.79
664.32	1802.21
664.51	1791.97
664.70	1662.95
664.89	1853.41
665.07	1730.53
665.26	1877.99
665.45	1859.56
665.64	1855.46
665.82	1871.84
666.01	1943.52
666.20	1802.21
666.38	1910.75
666.57	2031.58
666.76	2445.27
666.95	5638.06
667.13	13158.20
667.32	19711.70
667.51	23086.75
667.69	25960.05
667.88	25884.28
668.07	19013.34
668.25	14253.86
668.44	11724.62
668.63	9908.07
668.81	8650.62
669.00	7681.93
669.19	7006.10
669.38	5992.36
669.56	5261.23
669.75	4368.32
669.94	3712.97
670.12	3051.47
670.31	2600.92
670.50	2324.44
670.68	2211.81
670.87	2035.68
671.06	1873.89
671.24	1892.32
671.43	2025.44
671.62	1945.57
671.80	1853.41
671.99	1867.75
672.18	1853.41
672.36	1957.86
672.55	1873.89
672.74	1884.13
672.92	1824.74
673.11	1929.19
673.29	1736.68
673.48	1865.70
673.67	1800.16
673.85	1853.41
674.04	1837.03
674.23	1828.84
674.41	1939.43
674.60	1716.20
674.79	1828.84
674.97	1767.40
675.16	1867.75
675.34	1830.88
675.53	1818.60
675.72	1937.38
675.90	1886.18
676.09	1746.92
676.28	1759.21
676.46	1794.02
676.65	1843.17
676.83	1802.21
677.02	1853.41
677.21	1818.60
677.39	1806.31
677.58	1759.21
677.77	1783.78
677.95	1744.87
678.14	1789.92
678.32	1820.64
678.51	1734.63
678.70	1959.91
678.88	1859.56
679.07	1839.08
679.25	1787.88
679.44	1837.03
679.63	1742.82
679.81	1804.26
680.00	1896.42
680.18	1894.37
680.37	1904.61
680.55	1777.64
680.74	1710.05
680.93	1671.14
681.11	1898.47
681.30	1798.12
681.48	1902.56
681.67	1843.17
681.85	1804.26
682.04	1779.68
682.23	1812.45
682.41	1796.07
682.60	1804.26
682.78	1837.03
682.97	1753.06
683.15	1771.49
683.34	1816.55
683.53	1871.84
683.71	1722.34
683.90	1892.32
684.08	1931.23
684.27	1810.40
684.45	1841.12
684.64	1810.40
684.82	1736.68
685.01	1869.80
685.19	1871.84
685.38	1931.23
685.57	1763.30
685.75	1693.67
685.94	1824.74
686.12	1806.31
686.31	1783.78
686.49	1880.04
686.68	1685.48
686.86	1757.16
687.05	1779.68
687.23	1886.18
687.42	1830.88
687.60	1769.44
687.79	1865.70
687.97	1923.04
688.16	1806.31
688.34	1861.60
688.53	1697.77
688.71	1822.69
688.90	1959.91
689.08	1767.40
689.27	1724.39
689.45	1816.55
689.64	1867.75
689.82	1843.17
690.01	1865.70
690.19	1802.21
690.38	1769.44
690.56	1904.61
690.75	1773.54
690.93	1705.96
691.12	1806.31
691.30	1859.56
691.49	1804.26
691.67	1841.12
691.86	1943.52
692.04	1837.03
692.23	1834.98
692.41	1910.75
692.60	2090.98
692.78	1951.71
692.97	1880.04
693.15	1904.61
693.34	2029.54
693.52	1990.63
693.71	1830.88
693.89	1806.31
694.08	1771.49
694.26	1966.05
694.44	1839.08
694.63	1849.32
694.81	1822.69
695.00	1814.50
695.18	1861.60
695.37	1988.58
695.55	1861.60
695.74	1826.79
695.92	1681.38
696.10	1855.46
696.29	1716.20
696.47	1818.60
696.66	1724.39
696.84	1753.06
697.03	1812.45
697.21	1953.76
697.40	2519.00
697.58	1980.39
697.76	1839.08
697.95	1787.88
698.13	1779.68
698.32	1765.35
698.50	1775.59
698.68	1902.56
698.87	1847.27
699.05	1908.71
699.24	1832.93
699.42	1755.11
699.61	1859.56
699.79	1869.80
699.97	1857.51
700.16	1771.49
700.34	1748.97
700.53	1787.88
700.71	1949.67
700.89	1853.41
701.08	1785.83
701.26	1902.56
701.45	2310.11
701.63	1839.08
701.81	1800.16
702.00	1783.78
702.18	1939.43
702.37	1847.27
702.55	2019.30
702.73	2064.35
702.92	2050.02
703.10	2109.41
703.28	2068.45
703.47	1972.19
703.65	2131.94
703.84	2011.11
704.02	1855.46
704.20	1970.15
704.39	1894.37
704.57	1802.21
704.75	1931.23
704.94	1920.99
705.12	1966.05
705.30	2023.39
705.49	3063.76
705.67	7018.39
705.86	15666.96
706.04	20948.67
706.22	24600.20
706.41	26627.69
706.59	25153.15
706.77	18419.43
706.96	14075.69
707.14	12044.10
707.32	10473.31
707.51	9269.11
707.69	7888.78
707.87	6664.09
708.06	5480.36
708.24	4065.22
708.42	3303.37
708.61	2795.48
708.79	2287.58
708.97	2138.08
709.16	2013.15
709.34	1945.57
709.52	1892.32
709.71	1896.42
709.89	1861.60
710.07	1798.12
710.26	1789.92
710.44	1839.08
710.62	1890.28
710.80	1875.94
710.99	1898.47
711.17	1867.75
711.35	1855.46
711.54	1773.54
711.72	1931.23
711.90	1832.93
712.09	1849.32
712.27	1828.84
712.45	1890.28
712.63	1828.84
712.82	1746.92
713.00	1759.21
713.18	1888.23
713.37	1855.46
713.55	1884.13
713.73	1839.08
713.91	1867.75
714.10	1832.93
714.28	1740.77
714.46	1863.65
714.65	1849.32
714.83	1847.27
715.01	1820.64
715.19	1828.84
715.38	1765.35
715.56	1802.21
715.74	1781.73
715.92	1759.21
716.11	1906.66
716.29	1705.96
716.47	1867.75
716.65	1873.89
716.84	1769.44
717.02	1902.56
717.20	1681.38
717.38	1798.12
717.57	1832.93
717.75	1830.88
717.93	1689.57
718.11	1841.12
718.30	1785.83
718.48	1828.84
718.66	1820.64
718.84	1892.32
719.03	1787.88
719.21	1738.73
719.39	1890.28
719.57	1839.08
719.75	1843.17
719.94	1751.01
720.12	1849.32
720.30	1853.41
720.48	1923.04
720.67	1769.44
720.85	1751.01
721.03	1791.97
721.21	1785.83
721.39	1855.46
721.58	1908.71
721.76	1843.17
721.94	1859.56
722.12	1886.18
722.30	1929.19
722.49	1751.01
722.67	1822.69
722.85	1886.18
723.03	1796.07
723.21	1794.02
723.40	1841.12
723.58	1863.65
723.76	1892.32
723.94	1904.61
724.12	1843.17
724.30	1959.91
724.49	1927.14
724.67	1796.07
724.85	1980.39
725.03	1728.49
725.21	1906.66
725.40	1949.67
725.58	1849.32
725.76	1937.38
725.94	1925.09
726.12	1771.49
726.30	1824.74
726.49	1820.64
726.67	1814.50
726.85	1853.41
727.03	1943.52
727.21	2686.94
727.39	4104.13
727.57	5386.16
727.76	6158.24
727.94	6635.42
728.12	6811.54
728.30	5638.06
728.48	4530.11
728.66	4087.75
728.84	3680.20
729.03	3233.74
729.21	2910.16
729.39	2488.28
729.57	2209.76
729.75	2033.63
729.93	1976.29
730.11	1955.81
730.30	1892.32
730.48	1896.42
730.66	1916.90
730.84	1839.08
731.02	1832.93
731.20	1806.31
731.38	1832.93
731.56	1773.54
731.74	1787.88
731.93	1808.36
732.11	1769.44
732.29	1781.73
732.47	1839.08
732.65	1810.40
732.83	1933.28
733.01	1808.36
733.19	1740.77
733.37	1847.27
733.56	1834.98
733.74	1730.53
733.92	1818.60
734.10	1845.22
734.28	1908.71
734.46	1654.76
734.64	1767.40
734.82	1730.53
735.00	1832.93
735.18	1783.78
735.36	1806.31
735.54	1814.50
735.73	1853.41
735.91	1814.50
736.09	1812.45
736.27	1828.84
736.45	1845.22
736.63	1660.90
736.81	1787.88
736.99	1933.28
737.17	1923.04
737.35	1806.31
737.53	1808.36
737.71	1863.65
737.89	1925.09
738.07	1761.25
738.25	1722.34
738.43	1703.91
738.61	1708.01
738.80	1714.15
738.98	1824.74
739.16	1759.21
739.34	1791.97
739.52	1880.04
739.70	1755.11
739.88	1933.28
740.06	1859.56
740.24	1734.63
740.42	1865.70
740.60	1755.11
740.78	1794.02
740.96	1730.53
741.14	1847.27
741.32	1847.27
741.50	1720.29
741.68	1959.91
741.86	1890.28
742.04	1791.97
742.22	1775.59
742.40	1847.27
742.58	1859.56
742.76	1757.16
742.94	1914.85
743.12	1796.07
743.30	1787.88
743.48	1845.22
743.66	1828.84
743.84	1800.16
744.02	1849.32
744.20	1763.30
744.38	1697.77
744.56	1710.05
744.74	1902.56
744.92	1822.69
745.10	1914.85
745.28	1820.64
745.46	1931.23
745.64	1781.73
745.82	1769.44
746.00	1841.12
746.18	1855.46
746.36	1720.29
746.54	1757.16
746.72	1798.12
746.90	1783.78
747.08	1918.95
747.26	1806.31
747.44	1890.28
747.62	1890.28
747.80	1839.08
747.98	1892.32
748.15	1837.03
748.33	1984.48
748.51	1800.16
748.69	1847.27
748.87	1810.40
749.05	1843.17
749.23	1794.02
749.41	1849.32
749.59	1814.50
749.77	1912.80
749.95	1769.44
750.13	1810.40
750.31	1869.80
750.49	1777.64
750.67	1859.56
750.85	1939.43
751.03	1812.45
751.20	1927.14
751.38	1777.64
751.56	1742.82
751.74	1789.92
751.92	1837.03
752.10	1726.44
752.28	1880.04
752.46	1710.05
752.64	1814.50
752.82	1837.03
753.00	1978.34
753.18	1853.41
753.35	1804.26
753.53	1845.22
753.71	1791.97
753.89	1880.04
754.07	1861.60
754.25	1867.75
754.43	1814.50
754.61	1783.78
754.79	1830.88
754.97	1845.22
755.14	1920.99
755.32	1734.63
755.50	1814.50
755.68	1820.64
755.86	1777.64
756.04	1816.55
756.22	1656.81
756.40	1886.18
756.57	1933.28
756.75	1820.64
756.93	1880.04
757.11	1888.23
757.29	1781.73
757.47	1820.64
757.65	1712.10
757.82	1683.43
758.00	1777.64
758.18	1757.16
758.36	1748.97
758.54	1916.90
758.72	1802.21
758.90	1943.52
759.07	1884.13
759.25	1783.78
759.43	1884.13
759.61	1662.95
759.79	2361.31
759.97	1890.28
760.15	1824.74
760.32	1757.16
760.50	1744.87
760.68	1892.32
760.86	1759.21
761.04	1847.27
761.22	1834.98
761.39	1751.01
761.57	1812.45
761.75	1804.26
761.93	1865.70
762.11	1843.17
762.28	1828.84
762.46	1845.22
762.64	1865.70
762.82	1710.05
763.00	1804.26
763.18	1906.66
763.35	1763.30
763.53	1929.19
763.71	1820.64
763.89	1830.88
764.07	1884.13
764.24	1765.35
764.42	1910.75
764.60	1808.36
764.78	1849.32
764.96	1847.27
765.13	1798.12
765.31	1875.94
765.49	1910.75
765.67	1800.16
765.84	1810.40
766.02	1732.58
766.20	1689.57
766.38	1837.03
766.56	1824.74
766.73	1826.79
766.91	1824.74
767.09	1800.16
767.27	1916.90
767.44	1748.97
767.62	1818.60
767.80	1875.94
767.98	1791.97
768.15	1841.12
768.33	1834.98
768.51	1806.31
768.69	1822.69
768.87	1886.18
769.04	1837.03
769.22	1970.15
769.40	1988.58
769.58	1945.57
769.75	1853.41
769.93	1877.99
770.11	1839.08
770.28	1746.92
770.46	1843.17
770.64	1855.46
770.82	1751.01
770.99	1751.01
771.17	1869.80
771.35	1794.02
771.53	1771.49
771.70	1882.08
771.88	1814.50
772.06	1791.97
772.23	1781.73
772.41	1857.51
772.59	1802.21
772.77	1716.20
772.94	1751.01
773.12	1884.13
773.30	1787.88
773.47	1865.70
773.65	1746.92
773.83	1845.22
774.01	1730.53
774.18	1660.90
774.36	1806.31
774.54	1701.86
774.71	1855.46
774.89	1708.01
775.07	1763.30
775.24	1755.11
775.42	1789.92
775.60	1888.23
775.78	1728.49
775.95	1744.87
776.13	1783.78
776.31	1617.90
776.48	1828.84
776.66	1892.32
776.84	1798.12
777.01	1779.68
777.19	1681.38
777.37	1759.21
777.54	1863.65
777.72	1994.72
777.90	1873.89
778.07	1783.78
778.25	1992.67
778.43	1918.95
778.60	1724.39
778.78	1916.90
778.96	1964.00
779.13	1806.31
779.31	1871.84
779.49	1824.74
779.66	1837.03
779.84	1816.55
780.01	1837.03
780.19	1761.25
780.37	1869.80
780.54	1863.65
780.72	1718.25
780.90	1740.77
781.07	1816.55
781.25	1753.06
781.43	1832.93
781.60	1693.67
781.78	1867.75
781.95	1791.97
782.13	1841.12
782.31	1753.06
782.48	1712.10
782.66	1712.10
782.83	1920.99
783.01	1806.31
783.19	1886.18
783.36	1814.50
783.54	1744.87
783.72	1847.27
783.89	1804.26
784.07	1781.73
784.24	1865.70
784.42	1882.08
784.60	1873.89
784.77	1933.28
784.95	1673.19
785.12	1757.16
785.30	1814.50
785.47	1746.92
785.65	1748.97
785.83	1787.88
786.00	1802.21
786.18	1769.44
786.35	1734.63
786.53	1808.36
786.71	1882.08
786.88	1857.51
787.06	1863.65
787.23	1757.16
787.41	1748.97
787.58	1828.84
787.76	1767.40
787.94	1800.16
788.11	1804.26
788.29	1718.25
788.46	1751.01
788.64	1722.34
788.81	1767.40
788.99	1740.77
789.16	1660.90
789.34	1763.30
789.52	1802.21
789.69	1734.63
789.87	1734.63
790.04	1769.44
790.22	1875.94
790.39	1832.93
790.57	1718.25
790.74	1740.77
790.92	1865.70
791.09	1740.77
791.27	1877.99
791.44	1849.32
791.62	1808.36
791.79	1839.08
791.97	1843.17
792.15	2011.11
792.32	1843.17
792.50	1869.80
792.67	1914.85
792.85	1822.69
793.02	1877.99
793.20	1755.11
793.37	1695.72
793.55	1837.03
793.72	1767.40
793.90	1845.22
794.07	1652.71
794.25	1699.81
794.42	1839.08
794.60	1779.68
794.77	1800.16
794.95	1806.31
795.12	1812.45
795.30	1828.84
795.47	1810.40
795.65	2035.68
795.82	1802.21
796.00	1701.86
796.17	1800.16
796.34	1710.05
796.52	1841.12
796.69	1841.12
796.87	1816.55
797.04	1775.59
797.22	1933.28
797.39	1832.93
797.57	1830.88
797.74	1828.84
797.92	1812.45
798.09	1767.40
798.27	1839.08
798.44	1826.79
798.62	1837.03
798.79	1839.08
798.96	1789.92
799.14	1730.53
799.31	1998.82
799.49	1732.58
799.66	1791.97
799.84	1886.18
800.01	1722.34
800.19	1771.49
800.36	1703.91
800.53	1904.61
800.71	1812.45
800.88	1912.80
801.06	1738.73
801.23	1820.64
801.41	1804.26
801.58	1802.21
801.75	1812.45
801.93	1910.75
802.10	1867.75
802.28	1843.17
802.45	1818.60
802.63	1894.37
802.80	1894.37
802.97	1796.07
803.15	1841.12
803.32	1816.55
803.50	1699.81
803.67	1748.97
803.84	1742.82
804.02	1767.40
804.19	1814.50
804.37	1681.38
804.54	1724.39
804.71	1853.41
804.89	1841.12
805.06	1769.44
805.24	1695.72
805.41	1667.05
805.58	1718.25
805.76	1970.15
805.93	1800.16
806.10	1886.18
806.28	1865.70
806.45	1828.84
806.63	1847.27
806.80	1802.21
806.97	1802.21
807.15	1828.84
807.32	1798.12
807.49	1802.21
807.67	1677.29
807.84	1869.80
808.01	1685.48
808.19	1976.29
808.36	1931.23
808.54	1744.87
808.71	1785.83
808.88	1763.30
809.06	1890.28
809.23	1918.95
809.40	1734.63
809.58	1902.56
809.75	1816.55
809.92	1773.54
810.10	1914.85
810.27	1816.55
810.44	1751.01
810.62	1834.98
810.79	1837.03
810.96	1771.49
811.14	1804.26
811.31	1796.07
811.48	1808.36
811.66	1812.45
811.83	2000.87
812.00	1806.31
812.18	1855.46
812.35	1845.22
812.52	1789.92
812.69	1783.78
812.87	1767.40
813.04	1777.64
813.21	1824.74
813.39	1789.92
813.56	1802.21
813.73	1828.84
813.91	1759.21
814.08	1785.83
814.25	1794.02
814.42	1730.53
814.60	1841.12
814.77	1832.93
814.94	1775.59
815.12	1871.84
815.29	1853.41
815.46	1736.68
815.63	1892.32
815.81	1802.21
815.98	1812.45
816.15	1794.02
816.33	1810.40
816.50	1845.22
816.67	1857.51
816.84	1806.31
817.02	1759.21
817.19	1769.44
817.36	1841.12
817.53	1890.28
817.71	1753.06
817.88	1857.51
818.05	1818.60
818.22	1857.51
818.40	1951.71
818.57	1814.50
818.74	1834.98
818.91	1869.80
819.09	1912.80
819.26	1882.08
819.43	1791.97
819.60	1830.88
819.78	1812.45
819.95	1873.89
820.12	1753.06
820.29	1892.32
820.47	1912.80
820.64	1816.55
820.81	1738.73
820.98	1802.21
821.15	1869.80
821.33	1841.12
821.50	1708.01
821.67	1900.52
821.84	1681.38
822.02	1884.13
822.19	1843.17
822.36	1763.30
822.53	1755.11
822.70	1800.16
822.88	1822.69
823.05	1947.62
823.22	1865.70
823.39	1888.23
823.56	1783.78
823.74	1937.38
823.91	1722.34
824.08	1738.73
824.25	1755.11
824.42	1908.71
824.60	1742.82
824.77	1851.36
824.94	1796.07
825.11	1851.36
825.28	1697.77
825.45	1810.40
825.63	1871.84
825.80	1769.44
825.97	1818.60
826.14	1787.88
826.31	1703.91
826.48	1837.03
826.66	1789.92
826.83	1736.68
827.00	1775.59
827.17	1658.85
827.34	1886.18
827.51	1753.06
827.69	1763.30
827.86	1740.77
828.03	1791.97
828.20	1855.46
828.37	1742.82
828.54	1845.22
828.71	1781.73
828.89	1894.37
829.06	1763.30
829.23	1877.99
829.40	1810.40
829.57	1841.12
829.74	1851.36
829.91	1755.11
830.09	1740.77
830.26	1853.41
830.43	1877.99
830.60	1863.65
830.77	1785.83
830.94	1920.99
831.11	1877.99
831.28	1746.92
831.46	1902.56
831.63	1748.97
831.80	1949.67
831.97	1736.68
832.14	1751.01
832.31	1845.22
832.48	1826.79
832.65	1845.22
832.82	1837.03
832.99	1871.84
833.17	1718.25
833.34	1918.95
833.51	1867.75
833.68	1656.81
833.85	1900.52
834.02	1724.39
834.19	1785.83
834.36	1693.67
834.53	1822.69
834.70	1837.03
834.87	1916.90
835.04	1898.47
835.22	1767.40
835.39	1812.45
835.56	1740.77
835.73	1859.56
835.90	1900.52
836.07	1738.73
836.24	1839.08
836.41	1722.34
836.58	1802.21
836.75	1779.68
836.92	1857.51
837.09	1732.58
837.26	1796.07
837.43	1789.92
837.60	1822.69
837.77	1787.88
837.94	1828.84
838.12	1896.42
838.29	1933.28
838.46	1773.54
838.63	1697.77
838.80	1929.19
838.97	1787.88
839.14	1820.64
839.31	1830.88
839.48	1773.54
839.65	1765.35
839.82	1900.52
839.99	1859.56
840.16	1853.41
840.33	1755.11
840.50	1785.83
840.67	1734.63
840.84	1638.38
841.01	1851.36
841.18	1751.01
841.35	1753.06
841.52	1877.99
841.69	1877.99
841.86	1796.07
842.03	1791.97
842.20	1910.75
842.37	1849.32
842.54	1810.40
842.71	1806.31
842.88	1744.87
843.05	1802.21
843.22	1751.01
843.39	1824.74
843.56	1853.41
843.73	1837.03
843.90	1791.97
844.07	1796.07
844.24	1818.60
844.41	1773.54
844.58	1855.46
844.75	1757.16
844.92	1851.36
845.09	1757.16
845.26	1738.73
845.43	1769.44
845.60	1769.44
845.77	1865.70
845.94	1796.07
846.10	1834.98
846.27	1771.49
846.44	1751.01
846.61	1771.49
846.78	1837.03
846.95	1855.46
847.12	1828.84
847.29	1781.73
847.46	1748.97
847.63	1875.94
847.80	1767.40
847.97	1841.12
848.14	1955.81
848.31	1789.92
848.48	1738.73
848.65	1771.49
848.82	1755.11
848.98	1912.80
849.15	1853.41
849.32	1888.23
849.49	1939.43
849.66	1841.12
849.83	1839.08
850.00	1697.77
850.17	1894.37
850.34	1796.07
850.51	1826.79
850.68	1808.36
850.85	1994.72
851.01	1812.45
851.18	1820.64
851.35	1791.97
851.52	1824.74
851.69	1910.75
851.86	1787.88
852.03	1740.77
852.20	1816.55
852.37	1896.42
852.53	1726.44
852.70	1814.50
852.87	1826.79
853.04	1824.74
853.21	1802.21
853.38	1810.40
853.55	1896.42
853.72	1900.52
853.89	1734.63
854.05	1755.11
854.22	1769.44
854.39	1734.63
854.56	1877.99
854.73	1791.97
854.90	1765.35
855.07	1812.45
855.23	1740.77
855.40	1798.12
855.57	1791.97
855.74	1687.53
855.91	1974.24
856.08	1777.64
856.25	1710.05
856.41	1814.50
856.58	1677.29
856.75	1775.59
856.92	1761.25
857.09	1886.18
857.26	1615.85
857.42	1828.84
857.59	1857.51
857.76	1783.78
857.93	1865.70
858.10	1818.60
858.27	1728.49
858.43	1800.16
858.60	1787.88
858.77	1701.86
858.94	1785.83
859.11	1834.98
859.27	1775.59
859.44	1828.84
859.61	1959.91
859.78	1818.60
859.95	1787.88
860.12	1779.68
860.28	2043.87
860.45	1908.71
860.62	1775.59
860.79	1789.92
860.95	1820.64
861.12	1751.01
861.29	1740.77
861.46	1789.92
861.63	1761.25
861.79	1757.16
861.96	1695.72
862.13	1765.35
862.30	1875.94
862.47	1773.54
862.63	1779.68
862.80	1896.42
862.97	1888.23
863.14	1855.46
863.30	1761.25
863.47	1746.92
863.64	1900.52
863.81	1849.32
863.97	1812.45
864.14	1849.32
864.31	1794.02
864.48	1818.60
864.65	1804.26
864.81	1869.80
864.98	1845.22
865.15	1900.52
865.32	1896.42
865.48	1947.62
865.65	1955.81
865.82	1855.46
865.98	1808.36
866.15	1857.51
866.32	1787.88
866.49	1777.64
866.65	1902.56
866.82	1779.68
866.99	1804.26
867.16	1701.86
867.32	1736.68
867.49	1724.39
867.66	1787.88
867.83	1726.44
867.99	1802.21
868.16	1783.78
868.33	1722.34
868.49	1863.65
868.66	1828.84
868.83	1769.44
868.99	1751.01
869.16	1796.07
869.33	1898.47
869.50	1898.47
869.66	1791.97
869.83	1755.11
870.00	1785.83
870.16	1925.09
870.33	1785.83
870.50	1804.26
870.66	1877.99
870.83	1871.84
871.00	1816.55
871.17	1794.02
871.33	1841.12
871.50	1779.68
871.67	1761.25
871.83	1787.88
872.00	1873.89
872.17	1755.11
872.33	1843.17
872.50	1806.31
872.67	1873.89
872.83	1869.80
873.00	1849.32
873.17	1812.45
873.33	1824.74
873.50	1853.41
873.67	1773.54
873.83	1873.89
874.00	1781.73
874.16	1804.26
874.33	1787.88
874.50	1732.58
874.66	1845.22
874.83	1822.69
875.00	1892.32
875.16	1880.04
875.33	1888.23
875.50	1705.96
875.66	1771.49
875.83	1880.04
875.99	1843.17
876.16	1798.12
876.33	1800.16
876.49	1824.74
876.66	1855.46
876.83	1765.35
876.99	1654.76
877.16	1830.88
877.32	1691.62
877.49	1746.92
877.66	1791.97
877.82	1941.47
877.99	1826.79
878.15	1882.08
878.32	1851.36
878.49	1816.55
878.65	1787.88
878.82	1918.95
878.98	1757.16
879.15	1869.80
879.32	1837.03
879.48	1826.79
879.65	1748.97
879.81	1830.88
879.98	1746.92
880.15	1757.16
880.31	1877.99
880.48	1753.06
880.64	1902.56
880.81	1871.84
880.97	1918.95
881.14	1853.41
881.31	1791.97
881.47	1900.52
881.64	1834.98
881.80	1677.29
881.97	1816.55
882.13	1880.04
882.30	1765.35
882.47	1708.01
882.63	1728.49
882.80	1759.21
882.96	1802.21
883.13	1873.89
883.29	1775.59
883.46	1837.03
883.62	2009.06
883.79	1828.84
883.95	1814.50
884.12	1822.69
884.29	1789.92
884.45	1808.36
884.62	1888.23
884.78	1714.15
884.95	1873.89
885.11	1814.50
885.28	1841.12
885.44	1783.78
885.61	1828.84
885.77	1863.65
885.94	1826.79
886.10	1802.21
886.27	1826.79
886.43	1902.56
886.60	1898.47
886.76	1693.67
886.93	1699.81
887.09	1816.55
887.26	1748.97
887.42	1751.01
887.59	1882.08
887.75	2011.11
887.92	1877.99
888.08	1880.04
888.25	1935.33
888.41	1863.65
888.58	1855.46
888.74	1816.55
888.91	1763.30
>>>>>End Processed Spectral Data<<<<<
