SpectraSuite Data File
++++++++++++++++++++++++++++++++++++
Date: Wed May 04 21:13:41 CEST 2016
User: root
Dark Spectrum Present: No
Reference Spectrum Present: No
Number of Sampled Component Spectra: 1
Spectrometers: USB4C02835
Integration Time (usec): 100000 (USB4C02835)
Spectra Averaged: 1 (USB4C02835)
Boxcar Smoothing: 0 (USB4C02835)
Correct for Electrical Dark: No (USB4C02835)
Strobe/Lamp Enabled: No (USB4C02835)
Correct for Detector Non-linearity: No (USB4C02835)
Correct for Stray Light: No (USB4C02835)
Number of Pixels in Processed Spectrum: 3648
>>>>>Begin Processed Spectral Data<<<<<
177.47	1540.07
177.69	1540.07
177.91	1540.07
178.13	1611.75
178.36	1529.83
178.58	1765.35
178.80	1822.69
179.02	1816.55
179.24	1726.44
179.46	1798.12
179.68	1841.12
179.90	1759.21
180.13	1830.88
180.35	1722.34
180.57	1834.98
180.79	1910.75
181.01	1837.03
181.23	1816.55
181.45	1853.41
181.67	1867.75
181.90	1822.69
182.12	1740.77
182.34	1716.20
182.56	1877.99
182.78	1834.98
183.00	1849.32
183.22	1869.80
183.44	1699.81
183.66	1972.19
183.89	1918.95
184.11	1791.97
184.33	1748.97
184.55	1855.46
184.77	1767.40
184.99	1824.74
185.21	1734.63
185.43	1925.09
185.65	1767.40
185.87	1789.92
186.10	1898.47
186.32	1896.42
186.54	1800.16
186.76	1910.75
186.98	1892.32
187.20	1837.03
187.42	1775.59
187.64	1783.78
187.86	1890.28
188.08	1892.32
188.30	1802.21
188.52	1826.79
188.75	1957.86
188.97	1941.47
189.19	1804.26
189.41	1765.35
189.63	1863.65
189.85	1802.21
190.07	1716.20
190.29	1746.92
190.51	1884.13
190.73	1746.92
190.95	1933.28
191.17	1816.55
191.39	1679.33
191.61	1751.01
191.84	1791.97
192.06	1857.51
192.28	1693.67
192.50	2037.73
192.72	1910.75
192.94	1826.79
193.16	1880.04
193.38	1875.94
193.60	1759.21
193.82	1847.27
194.04	1800.16
194.26	1812.45
194.48	1812.45
194.70	1814.50
194.92	1857.51
195.14	1863.65
195.36	1755.11
195.58	1787.88
195.80	1718.25
196.02	1724.39
196.24	1759.21
196.46	1791.97
196.69	1804.26
196.91	1986.53
197.13	1757.16
197.35	1755.11
197.57	1937.38
197.79	1804.26
198.01	1794.02
198.23	1832.93
198.45	1814.50
198.67	1777.64
198.89	1736.68
199.11	1783.78
199.33	1753.06
199.55	1683.43
199.77	1757.16
199.99	1877.99
200.21	1820.64
200.43	1787.88
200.65	1714.15
200.87	1681.38
201.09	1789.92
201.31	1738.73
201.53	1865.70
201.75	1853.41
201.97	1798.12
202.19	1875.94
202.41	1820.64
202.63	1951.71
202.85	1859.56
203.07	1746.92
203.29	1810.40
203.51	1710.05
203.73	1771.49
203.95	1970.15
204.17	1841.12
204.39	1804.26
204.61	1816.55
204.83	1751.01
205.05	1873.89
205.27	1843.17
205.49	1949.67
205.71	1761.25
205.93	1708.01
206.15	1783.78
206.37	1857.51
206.59	1800.16
206.81	1701.86
207.03	1755.11
207.25	1767.40
207.47	1873.89
207.69	1767.40
207.91	1904.61
208.13	1931.23
208.34	1847.27
208.56	1763.30
208.78	1820.64
209.00	1769.44
209.22	1773.54
209.44	1820.64
209.66	1796.07
209.88	1791.97
210.10	1738.73
210.32	1822.69
210.54	1902.56
210.76	1824.74
210.98	1904.61
211.20	1693.67
211.42	1757.16
211.64	1931.23
211.86	1857.51
212.08	1820.64
212.30	1847.27
212.52	1783.78
212.74	1841.12
212.96	1822.69
213.17	1839.08
213.39	1812.45
213.61	1949.67
213.83	1771.49
214.05	1796.07
214.27	1935.33
214.49	1771.49
214.71	1722.34
214.93	1908.71
215.15	1843.17
215.37	1929.19
215.59	1703.91
215.81	1798.12
216.03	1875.94
216.24	1773.54
216.46	1837.03
216.68	1798.12
216.90	1865.70
217.12	1828.84
217.34	1802.21
217.56	1806.31
217.78	1947.62
218.00	1818.60
218.22	1767.40
218.44	1890.28
218.66	1808.36
218.87	1875.94
219.09	1798.12
219.31	1791.97
219.53	1832.93
219.75	1789.92
219.97	1859.56
220.19	1785.83
220.41	1857.51
220.63	1931.23
220.85	1898.47
221.06	1726.44
221.28	1822.69
221.50	1812.45
221.72	1802.21
221.94	1804.26
222.16	1859.56
222.38	1918.95
222.60	1804.26
222.82	1816.55
223.03	1855.46
223.25	1763.30
223.47	1875.94
223.69	1939.43
223.91	1830.88
224.13	1781.73
224.35	1722.34
224.57	1865.70
224.78	1822.69
225.00	1777.64
225.22	1818.60
225.44	1849.32
225.66	1820.64
225.88	1816.55
226.10	1828.84
226.32	1906.66
226.53	1855.46
226.75	1751.01
226.97	1818.60
227.19	1724.39
227.41	1796.07
227.63	1832.93
227.85	1746.92
228.06	1726.44
228.28	1830.88
228.50	1781.73
228.72	1765.35
228.94	1781.73
229.16	1781.73
229.37	1779.68
229.59	1814.50
229.81	1830.88
230.03	1769.44
230.25	1658.85
230.47	1781.73
230.69	1834.98
230.90	1880.04
231.12	1779.68
231.34	1816.55
231.56	1849.32
231.78	1847.27
232.00	1771.49
232.21	1767.40
232.43	1794.02
232.65	1748.97
232.87	1892.32
233.09	1771.49
233.30	1748.97
233.52	1902.56
233.74	1810.40
233.96	1794.02
234.18	1818.60
234.40	1808.36
234.61	1970.15
234.83	1724.39
235.05	1701.86
235.27	1984.48
235.49	2004.96
235.70	1845.22
235.92	1914.85
236.14	1832.93
236.36	2011.11
236.58	1757.16
236.79	1828.84
237.01	1755.11
237.23	1818.60
237.45	1964.00
237.67	1748.97
237.88	1783.78
238.10	1896.42
238.32	1812.45
238.54	1759.21
238.76	1802.21
238.97	1740.77
239.19	1687.53
239.41	1843.17
239.63	1880.04
239.85	1787.88
240.06	1812.45
240.28	1796.07
240.50	1820.64
240.72	1773.54
240.93	1830.88
241.15	1853.41
241.37	1791.97
241.59	1949.67
241.81	1855.46
242.02	1810.40
242.24	1906.66
242.46	1869.80
242.68	1728.49
242.89	1775.59
243.11	1845.22
243.33	1787.88
243.55	1791.97
243.76	1877.99
243.98	1710.05
244.20	1820.64
244.42	1775.59
244.64	1832.93
244.85	1759.21
245.07	1789.92
245.29	1857.51
245.51	1834.98
245.72	1894.37
245.94	1869.80
246.16	1796.07
246.38	1839.08
246.59	1802.21
246.81	1812.45
247.03	1761.25
247.24	1695.72
247.46	1732.58
247.68	1892.32
247.90	1810.40
248.11	1767.40
248.33	1777.64
248.55	1822.69
248.77	1849.32
248.98	1912.80
249.20	1873.89
249.42	1814.50
249.64	1796.07
249.85	1853.41
250.07	1781.73
250.29	1849.32
250.50	1853.41
250.72	1730.53
250.94	1843.17
251.16	1892.32
251.37	1898.47
251.59	1822.69
251.81	1843.17
252.02	1867.75
252.24	1785.83
252.46	1884.13
252.68	1839.08
252.89	1837.03
253.11	1685.48
253.33	1984.48
253.54	1939.43
253.76	1791.97
253.98	1783.78
254.20	1738.73
254.41	1736.68
254.63	1800.16
254.85	1763.30
255.06	1789.92
255.28	1771.49
255.50	1787.88
255.71	1800.16
255.93	1730.53
256.15	1763.30
256.36	1810.40
256.58	1781.73
256.80	1886.18
257.02	1816.55
257.23	1804.26
257.45	1775.59
257.67	1888.23
257.88	1701.86
258.10	1877.99
258.32	1810.40
258.53	1757.16
258.75	1994.72
258.97	1716.20
259.18	1804.26
259.40	1814.50
259.62	1898.47
259.83	1830.88
260.05	1851.36
260.27	2113.50
260.48	1832.93
260.70	1720.29
260.92	1804.26
261.13	1855.46
261.35	1837.03
261.57	1869.80
261.78	1652.71
262.00	1751.01
262.22	1902.56
262.43	1732.58
262.65	1832.93
262.86	1810.40
263.08	1951.71
263.30	1824.74
263.51	1753.06
263.73	1761.25
263.95	1849.32
264.16	1761.25
264.38	1804.26
264.60	1773.54
264.81	1843.17
265.03	1806.31
265.25	1906.66
265.46	1765.35
265.68	1861.60
265.89	1886.18
266.11	1724.39
266.33	1873.89
266.54	1853.41
266.76	1841.12
266.98	1826.79
267.19	1906.66
267.41	1877.99
267.62	1765.35
267.84	1724.39
268.06	1849.32
268.27	1820.64
268.49	1871.84
268.70	1873.89
268.92	1765.35
269.14	1830.88
269.35	1796.07
269.57	1808.36
269.79	1884.13
270.00	1785.83
270.22	1906.66
270.43	1728.49
270.65	1732.58
270.87	1796.07
271.08	1877.99
271.30	1867.75
271.51	1757.16
271.73	1796.07
271.95	1834.98
272.16	1814.50
272.38	1875.94
272.59	1802.21
272.81	1853.41
273.02	1763.30
273.24	1771.49
273.46	1931.23
273.67	1701.86
273.89	1779.68
274.10	1738.73
274.32	1925.09
274.54	1841.12
274.75	1802.21
274.97	1808.36
275.18	1847.27
275.40	1808.36
275.61	1720.29
275.83	1826.79
276.05	1724.39
276.26	1814.50
276.48	1812.45
276.69	1779.68
276.91	1869.80
277.12	1847.27
277.34	1912.80
277.55	1841.12
277.77	1781.73
277.99	1824.74
278.20	1767.40
278.42	1777.64
278.63	1746.92
278.85	1832.93
279.06	1738.73
279.28	1798.12
279.49	1890.28
279.71	1849.32
279.93	1769.44
280.14	1816.55
280.36	1755.11
280.57	1892.32
280.79	1863.65
281.00	1753.06
281.22	1832.93
281.43	1914.85
281.65	1697.77
281.86	1808.36
282.08	1857.51
282.29	1910.75
282.51	1763.30
282.73	1787.88
282.94	1714.15
283.16	1822.69
283.37	1877.99
283.59	1873.89
283.80	1857.51
284.02	1781.73
284.23	1855.46
284.45	1773.54
284.66	1726.44
284.88	1695.72
285.09	1767.40
285.31	1837.03
285.52	1804.26
285.74	1701.86
285.95	1834.98
286.17	1808.36
286.38	1873.89
286.60	1812.45
286.81	1724.39
287.03	1783.78
287.24	1857.51
287.46	1871.84
287.67	1880.04
287.89	1949.67
288.10	1857.51
288.32	1800.16
288.53	1966.05
288.75	1791.97
288.96	1890.28
289.18	1791.97
289.39	1761.25
289.61	1812.45
289.82	1931.23
290.04	1951.71
290.25	1757.16
290.47	1918.95
290.68	1806.31
290.90	1855.46
291.11	1695.72
291.33	1882.08
291.54	1730.53
291.76	1783.78
291.97	1837.03
292.18	1863.65
292.40	1777.64
292.61	1755.11
292.83	2025.44
293.04	1847.27
293.26	1832.93
293.47	1712.10
293.69	1769.44
293.90	1796.07
294.12	1884.13
294.33	1812.45
294.55	1837.03
294.76	1912.80
294.97	1951.71
295.19	1968.10
295.40	1802.21
295.62	1910.75
295.83	1843.17
296.05	1744.87
296.26	1875.94
296.48	1773.54
296.69	1724.39
296.90	1787.88
297.12	1982.43
297.33	1812.45
297.55	1761.25
297.76	1826.79
297.98	1904.61
298.19	1839.08
298.41	1847.27
298.62	1734.63
298.83	1988.58
299.05	1808.36
299.26	1757.16
299.48	1763.30
299.69	1808.36
299.90	1847.27
300.12	1712.10
300.33	1849.32
300.55	1779.68
300.76	1904.61
300.98	1798.12
301.19	1847.27
301.40	1824.74
301.62	1785.83
301.83	1820.64
302.05	1884.13
302.26	1763.30
302.47	1828.84
302.69	1802.21
302.90	1808.36
303.12	1732.58
303.33	1814.50
303.54	1957.86
303.76	1810.40
303.97	1800.16
304.19	1865.70
304.40	1722.34
304.61	1906.66
304.83	1964.00
305.04	1857.51
305.26	1857.51
305.47	1808.36
305.68	1847.27
305.90	1714.15
306.11	1863.65
306.33	1800.16
306.54	1796.07
306.75	1736.68
306.97	1771.49
307.18	1722.34
307.39	1771.49
307.61	1882.08
307.82	1800.16
308.04	1839.08
308.25	1800.16
308.46	1779.68
308.68	1828.84
308.89	1837.03
309.10	1964.00
309.32	1892.32
309.53	1812.45
309.74	1806.31
309.96	1832.93
310.17	1816.55
310.39	1820.64
310.60	1824.74
310.81	1777.64
311.03	1734.63
311.24	1824.74
311.45	1857.51
311.67	1894.37
311.88	1822.69
312.09	1730.53
312.31	1755.11
312.52	1794.02
312.73	1783.78
312.95	1673.19
313.16	1761.25
313.37	1882.08
313.59	1904.61
313.80	1894.37
314.01	1927.14
314.23	1734.63
314.44	1755.11
314.65	1736.68
314.87	1800.16
315.08	1742.82
315.29	1781.73
315.51	1730.53
315.72	1734.63
315.93	1910.75
316.15	1796.07
316.36	1806.31
316.57	1871.84
316.79	1888.23
317.00	1722.34
317.21	1843.17
317.43	1746.92
317.64	1828.84
317.85	1716.20
318.07	1720.29
318.28	1851.36
318.49	2013.15
318.70	2121.70
318.92	2050.02
319.13	2039.78
319.34	2009.06
319.56	1929.19
319.77	1978.34
319.98	1947.62
320.20	1900.52
320.41	1880.04
320.62	1877.99
320.83	1794.02
321.05	1968.10
321.26	1869.80
321.47	1830.88
321.69	1931.23
321.90	1812.45
322.11	1783.78
322.32	1796.07
322.54	1902.56
322.75	1732.58
322.96	1980.39
323.18	1701.86
323.39	1673.19
323.60	1746.92
323.81	1894.37
324.03	1785.83
324.24	1755.11
324.45	1800.16
324.66	1755.11
324.88	1849.32
325.09	1939.43
325.30	1703.91
325.52	1775.59
325.73	1851.36
325.94	1763.30
326.15	1714.15
326.37	1789.92
326.58	1830.88
326.79	1933.28
327.00	1771.49
327.22	1822.69
327.43	1800.16
327.64	1722.34
327.85	1824.74
328.07	1904.61
328.28	1972.19
328.49	1857.51
328.70	1748.97
328.92	1867.75
329.13	1798.12
329.34	1830.88
329.55	1966.05
329.76	1869.80
329.98	1849.32
330.19	1912.80
330.40	1880.04
330.61	1802.21
330.83	1923.04
331.04	1812.45
331.25	1841.12
331.46	1681.38
331.68	1802.21
331.89	1900.52
332.10	1839.08
332.31	1742.82
332.52	1771.49
332.74	1904.61
332.95	1728.49
333.16	1693.67
333.37	1900.52
333.58	1830.88
333.80	1884.13
334.01	1712.10
334.22	1814.50
334.43	1808.36
334.64	1820.64
334.86	1755.11
335.07	1693.67
335.28	1945.57
335.49	1716.20
335.70	1853.41
335.92	1880.04
336.13	1951.71
336.34	1933.28
336.55	1757.16
336.76	1937.38
336.98	1648.61
337.19	1861.60
337.40	1937.38
337.61	1923.04
337.82	1791.97
338.04	1845.22
338.25	1753.06
338.46	1773.54
338.67	1779.68
338.88	1675.24
339.09	1734.63
339.31	1685.48
339.52	1777.64
339.73	1751.01
339.94	1882.08
340.15	1884.13
340.36	1742.82
340.58	1861.60
340.79	1789.92
341.00	1800.16
341.21	1822.69
341.42	1910.75
341.63	1880.04
341.85	1933.28
342.06	1910.75
342.27	1734.63
342.48	1892.32
342.69	1705.96
342.90	1904.61
343.12	1898.47
343.33	1783.78
343.54	1824.74
343.75	1877.99
343.96	1857.51
344.17	1740.77
344.38	1810.40
344.60	1832.93
344.81	1767.40
345.02	1742.82
345.23	1920.99
345.44	2015.20
345.65	1875.94
345.86	1824.74
346.07	1906.66
346.29	1826.79
346.50	1849.32
346.71	1916.90
346.92	1935.33
347.13	1916.90
347.34	1808.36
347.55	1841.12
347.76	1853.41
347.98	1718.25
348.19	1718.25
348.40	1869.80
348.61	1822.69
348.82	1863.65
349.03	1886.18
349.24	1705.96
349.45	1886.18
349.66	1630.18
349.88	1806.31
350.09	1724.39
350.30	1916.90
350.51	1882.08
350.72	1785.83
350.93	1865.70
351.14	1775.59
351.35	1748.97
351.56	1802.21
351.77	1867.75
351.99	1859.56
352.20	1912.80
352.41	1828.84
352.62	1755.11
352.83	1781.73
353.04	1841.12
353.25	1800.16
353.46	1871.84
353.67	1849.32
353.88	1775.59
354.09	1845.22
354.30	1783.78
354.52	1800.16
354.73	1779.68
354.94	1828.84
355.15	1859.56
355.36	1978.34
355.57	1787.88
355.78	1820.64
355.99	1746.92
356.20	1765.35
356.41	1873.89
356.62	1884.13
356.83	1888.23
357.04	1908.71
357.25	1648.61
357.46	1771.49
357.68	1697.77
357.89	1755.11
358.10	1785.83
358.31	1857.51
358.52	1822.69
358.73	1730.53
358.94	1775.59
359.15	1824.74
359.36	1873.89
359.57	1867.75
359.78	1798.12
359.99	1816.55
360.20	1796.07
360.41	1789.92
360.62	1920.99
360.83	1800.16
361.04	1841.12
361.25	1914.85
361.46	1978.34
361.67	1871.84
361.88	1857.51
362.09	1845.22
362.30	1814.50
362.51	1841.12
362.72	1845.22
362.93	1851.36
363.14	1877.99
363.35	1886.18
363.56	1761.25
363.78	1873.89
363.99	1865.70
364.20	1843.17
364.41	1863.65
364.62	1894.37
364.83	1828.84
365.04	1806.31
365.25	1828.84
365.46	1955.81
365.67	1769.44
365.88	1806.31
366.09	1814.50
366.30	1865.70
366.51	1755.11
366.72	1779.68
366.93	1873.89
367.14	1847.27
367.35	1810.40
367.56	1736.68
367.77	1931.23
367.98	1816.55
368.18	1902.56
368.39	1882.08
368.60	1710.05
368.81	1843.17
369.02	1882.08
369.23	1798.12
369.44	1673.19
369.65	1818.60
369.86	1806.31
370.07	1908.71
370.28	1751.01
370.49	1804.26
370.70	1814.50
370.91	1732.58
371.12	1654.76
371.33	1902.56
371.54	1794.02
371.75	1976.29
371.96	1687.53
372.17	1808.36
372.38	1775.59
372.59	1900.52
372.80	1781.73
373.01	1787.88
373.22	1853.41
373.43	1800.16
373.64	1710.05
373.85	1902.56
374.06	1972.19
374.26	1828.84
374.47	1847.27
374.68	1976.29
374.89	1861.60
375.10	1834.98
375.31	1828.84
375.52	1859.56
375.73	1796.07
375.94	1791.97
376.15	1937.38
376.36	1724.39
376.57	1740.77
376.78	1826.79
376.99	1769.44
377.20	1896.42
377.40	1791.97
377.61	1890.28
377.82	1812.45
378.03	1888.23
378.24	1828.84
378.45	1767.40
378.66	1863.65
378.87	1736.68
379.08	1662.95
379.29	1837.03
379.50	1951.71
379.71	1767.40
379.91	1863.65
380.12	1802.21
380.33	1830.88
380.54	1822.69
380.75	1804.26
380.96	1820.64
381.17	1769.44
381.38	1888.23
381.59	1804.26
381.80	1847.27
382.00	1945.57
382.21	1841.12
382.42	1908.71
382.63	1988.58
382.84	1832.93
383.05	1865.70
383.26	1976.29
383.47	1798.12
383.68	1871.84
383.88	1814.50
384.09	1753.06
384.30	1939.43
384.51	1832.93
384.72	1744.87
384.93	1687.53
385.14	1837.03
385.35	1912.80
385.55	1685.48
385.76	1918.95
385.97	1828.84
386.18	1722.34
386.39	1830.88
386.60	1810.40
386.81	1832.93
387.02	1794.02
387.22	1794.02
387.43	1861.60
387.64	1867.75
387.85	2011.11
388.06	2142.18
388.27	4181.95
388.48	8925.05
388.68	11767.63
388.89	13948.72
389.10	14634.78
389.31	13164.34
389.52	10391.39
389.73	9035.64
389.93	8378.24
390.14	7661.45
390.35	6915.99
390.56	6303.65
390.77	5099.44
390.98	4024.26
391.18	3155.92
391.39	2494.43
391.60	2058.21
391.81	2007.01
392.02	1877.99
392.23	2009.06
392.43	1890.28
392.64	1961.95
392.85	1910.75
393.06	1998.82
393.27	1785.83
393.47	1753.06
393.68	1783.78
393.89	1738.73
394.10	1894.37
394.31	1681.38
394.52	1806.31
394.72	1796.07
394.93	1933.28
395.14	1759.21
395.35	1863.65
395.56	1789.92
395.76	1820.64
395.97	1955.81
396.18	1910.75
396.39	1990.63
396.60	2152.42
396.80	2033.63
397.01	1998.82
397.22	1968.10
397.43	1980.39
397.64	1826.79
397.84	1906.66
398.05	1961.95
398.26	1837.03
398.47	1900.52
398.67	1886.18
398.88	1834.98
399.09	1875.94
399.30	1771.49
399.51	1869.80
399.71	1822.69
399.92	1834.98
400.13	1814.50
400.34	1839.08
400.54	1863.65
400.75	1931.23
400.96	1828.84
401.17	1861.60
401.37	1896.42
401.58	1839.08
401.79	1834.98
402.00	1978.34
402.21	2152.42
402.41	2201.57
402.62	2250.72
402.83	2320.35
403.04	2238.43
403.24	2242.53
403.45	2023.39
403.66	2088.93
403.87	2004.96
404.07	2074.59
404.28	2078.69
404.49	1970.15
404.70	1941.47
404.90	1843.17
405.11	1869.80
405.32	1845.22
405.52	1812.45
405.73	1708.01
405.94	1669.09
406.15	1839.08
406.35	1871.84
406.56	1871.84
406.77	1841.12
406.98	1845.22
407.18	1769.44
407.39	1877.99
407.60	1794.02
407.80	1839.08
408.01	1794.02
408.22	1894.37
408.43	1763.30
408.63	1886.18
408.84	1841.12
409.05	1818.60
409.25	1773.54
409.46	1779.68
409.67	1761.25
409.88	1738.73
410.08	1875.94
410.29	1732.58
410.50	1904.61
410.70	1900.52
410.91	1740.77
411.12	1843.17
411.32	1845.22
411.53	1875.94
411.74	1918.95
411.95	1988.58
412.15	1937.38
412.36	1978.34
412.57	1832.93
412.77	1980.39
412.98	1832.93
413.19	1779.68
413.39	1877.99
413.60	1855.46
413.81	1890.28
414.01	1800.16
414.22	1912.80
414.43	1871.84
414.63	1734.63
414.84	1865.70
415.05	1824.74
415.25	1796.07
415.46	1849.32
415.67	1787.88
415.87	1931.23
416.08	1849.32
416.29	1789.92
416.49	1890.28
416.70	1724.39
416.91	1822.69
417.11	1851.36
417.32	1806.31
417.53	1892.32
417.73	1859.56
417.94	1724.39
418.15	1871.84
418.35	1830.88
418.56	1771.49
418.77	1990.63
418.97	1843.17
419.18	1822.69
419.38	1783.78
419.59	1773.54
419.80	1859.56
420.00	1779.68
420.21	1783.78
420.42	1851.36
420.62	1871.84
420.83	1712.10
421.04	1841.12
421.24	1843.17
421.45	1746.92
421.65	1935.33
421.86	1857.51
422.07	1759.21
422.27	1822.69
422.48	1867.75
422.69	1736.68
422.89	1781.73
423.10	1796.07
423.30	1761.25
423.51	1789.92
423.72	1773.54
423.92	1867.75
424.13	1720.29
424.33	1826.79
424.54	1916.90
424.75	1789.92
424.95	1898.47
425.16	1808.36
425.36	1912.80
425.57	1916.90
425.78	1849.32
425.98	1816.55
426.19	1820.64
426.39	1736.68
426.60	1824.74
426.81	1925.09
427.01	1857.51
427.22	1777.64
427.42	1726.44
427.63	1787.88
427.83	1918.95
428.04	1871.84
428.25	1937.38
428.45	1931.23
428.66	1888.23
428.86	1734.63
429.07	1837.03
429.28	1882.08
429.48	1853.41
429.69	1767.40
429.89	1783.78
430.10	1693.67
430.30	1804.26
430.51	1896.42
430.71	1751.01
430.92	1845.22
431.13	1783.78
431.33	1898.47
431.54	1857.51
431.74	1863.65
431.95	1935.33
432.15	1746.92
432.36	1777.64
432.56	1910.75
432.77	1941.47
432.98	1992.67
433.18	1832.93
433.39	1791.97
433.59	1755.11
433.80	2009.06
434.00	2000.87
434.21	1859.56
434.41	1824.74
434.62	1947.62
434.82	1722.34
435.03	1781.73
435.23	1871.84
435.44	1689.57
435.64	1871.84
435.85	1808.36
436.06	1873.89
436.26	1888.23
436.47	1740.77
436.67	1767.40
436.88	1908.71
437.08	1865.70
437.29	1939.43
437.49	1857.51
437.70	1937.38
437.90	1847.27
438.11	1941.47
438.31	2011.11
438.52	1953.76
438.72	2084.83
438.93	2074.59
439.13	1914.85
439.34	2002.91
439.54	1927.14
439.75	1927.14
439.95	1945.57
440.16	1810.40
440.36	1859.56
440.57	1832.93
440.77	1798.12
440.98	1800.16
441.18	1927.14
441.39	1789.92
441.59	1730.53
441.80	1929.19
442.00	1789.92
442.21	1902.56
442.41	1773.54
442.62	1894.37
442.82	1787.88
443.02	1851.36
443.23	1796.07
443.43	1763.30
443.64	1892.32
443.84	1867.75
444.05	1898.47
444.25	1859.56
444.46	1771.49
444.66	1791.97
444.87	1994.72
445.07	1689.57
445.28	1808.36
445.48	1896.42
445.69	1820.64
445.89	1880.04
446.09	1798.12
446.30	2011.11
446.50	2574.30
446.71	4145.09
446.91	5347.25
447.12	5951.40
447.32	6274.98
447.53	5728.17
447.73	4761.53
447.93	4200.38
448.14	3823.56
448.34	3676.10
448.55	3254.22
448.75	3219.41
448.96	3002.32
449.16	2707.41
449.36	2578.39
449.57	2222.05
449.77	2045.92
449.98	1857.51
450.18	1964.00
450.39	1945.57
450.59	1877.99
450.79	1804.26
451.00	1765.35
451.20	1832.93
451.41	1869.80
451.61	1863.65
451.81	1869.80
452.02	1847.27
452.22	1839.08
452.43	1808.36
452.63	1781.73
452.84	1800.16
453.04	1828.84
453.24	1890.28
453.45	1818.60
453.65	1814.50
453.86	1877.99
454.06	1861.60
454.26	1812.45
454.47	1728.49
454.67	1837.03
454.87	1779.68
455.08	1812.45
455.28	1923.04
455.49	1886.18
455.69	1771.49
455.89	1923.04
456.10	1886.18
456.30	1787.88
456.51	1894.37
456.71	1900.52
456.91	1918.95
457.12	1822.69
457.32	1916.90
457.52	1779.68
457.73	1896.42
457.93	1783.78
458.14	1802.21
458.34	1789.92
458.54	1853.41
458.75	1849.32
458.95	1912.80
459.15	1925.09
459.36	1888.23
459.56	1951.71
459.76	1935.33
459.97	1746.92
460.17	1804.26
460.37	1865.70
460.58	1796.07
460.78	1869.80
460.99	1816.55
461.19	1791.97
461.39	1826.79
461.60	1769.44
461.80	1910.75
462.00	1839.08
462.21	1855.46
462.41	1789.92
462.61	1810.40
462.82	1714.15
463.02	1857.51
463.22	1894.37
463.43	1873.89
463.63	1888.23
463.83	1976.29
464.04	1894.37
464.24	1859.56
464.44	1804.26
464.64	1861.60
464.85	1865.70
465.05	1923.04
465.25	1888.23
465.46	1847.27
465.66	1830.88
465.86	1828.84
466.07	1826.79
466.27	1871.84
466.47	1812.45
466.68	1738.73
466.88	1937.38
467.08	1894.37
467.29	1945.57
467.49	1865.70
467.69	1841.12
467.89	1890.28
468.10	1826.79
468.30	1804.26
468.50	1931.23
468.71	1916.90
468.91	1755.11
469.11	1925.09
469.31	1920.99
469.52	1685.48
469.72	1931.23
469.92	1990.63
470.13	1949.67
470.33	1873.89
470.53	1896.42
470.73	2195.42
470.94	2658.26
471.14	2858.96
471.34	3219.41
471.54	3004.37
471.75	2768.85
471.95	2537.43
472.15	2394.08
472.36	2316.25
472.56	2324.44
472.76	2277.34
472.96	2242.53
473.17	2275.29
473.37	2074.59
473.57	1984.48
473.77	1943.52
473.98	1902.56
474.18	1828.84
474.38	2066.40
474.58	1822.69
474.79	1841.12
474.99	1939.43
475.19	1841.12
475.39	1714.15
475.60	1890.28
475.80	1910.75
476.00	1830.88
476.20	1802.21
476.41	1830.88
476.61	1966.05
476.81	1855.46
477.01	1759.21
477.21	1961.95
477.42	1896.42
477.62	1771.49
477.82	1828.84
478.02	1789.92
478.23	1767.40
478.43	1693.67
478.63	1818.60
478.83	1910.75
479.03	1816.55
479.24	1933.28
479.44	1904.61
479.64	1834.98
479.84	1734.63
480.04	1826.79
480.25	1875.94
480.45	1777.64
480.65	1847.27
480.85	1918.95
481.06	1804.26
481.26	1820.64
481.46	1951.71
481.66	1861.60
481.86	1816.55
482.06	1857.51
482.27	1789.92
482.47	1843.17
482.67	1910.75
482.87	1730.53
483.07	1990.63
483.28	1777.64
483.48	1730.53
483.68	1828.84
483.88	1748.97
484.08	1654.76
484.29	1767.40
484.49	1822.69
484.69	1736.68
484.89	1886.18
485.09	1896.42
485.29	1845.22
485.50	1826.79
485.70	1830.88
485.90	2009.06
486.10	1828.84
486.30	1884.13
486.50	1855.46
486.71	1818.60
486.91	1966.05
487.11	1910.75
487.31	1730.53
487.51	1888.23
487.71	1734.63
487.91	1787.88
488.12	1732.58
488.32	1679.33
488.52	1853.41
488.72	1755.11
488.92	1884.13
489.12	1861.60
489.32	1824.74
489.53	1910.75
489.73	1751.01
489.93	1974.24
490.13	1877.99
490.33	1695.72
490.53	1904.61
490.73	1976.29
490.94	1718.25
491.14	1927.14
491.34	1939.43
491.54	2140.13
491.74	2807.77
491.94	3209.17
492.14	3669.96
492.34	3651.53
492.54	3403.72
492.75	2838.48
492.95	2742.23
493.15	2570.20
493.35	2471.90
493.55	2488.28
493.75	2342.88
493.95	2289.63
494.15	2189.28
494.35	2090.98
494.56	2023.39
494.76	1906.66
494.96	1941.47
495.16	1931.23
495.36	1861.60
495.56	1853.41
495.76	1738.73
495.96	1779.68
496.16	1757.16
496.36	1949.67
496.56	1875.94
496.77	1847.27
496.97	1884.13
497.17	1863.65
497.37	1810.40
497.57	1832.93
497.77	1847.27
497.97	1730.53
498.17	1820.64
498.37	1787.88
498.57	1906.66
498.77	1814.50
498.97	1923.04
499.17	1935.33
499.38	1832.93
499.58	1808.36
499.78	1884.13
499.98	1984.48
500.18	1783.78
500.38	1880.04
500.58	1990.63
500.78	2402.27
500.98	4655.03
501.18	6752.15
501.38	8468.35
501.58	9420.66
501.78	9074.55
501.98	7098.26
502.18	6012.84
502.38	5062.58
502.58	4769.72
502.78	4274.11
502.98	4173.76
503.18	3985.35
503.38	3647.43
503.59	3145.68
503.79	3035.09
503.99	2619.35
504.19	2432.99
504.39	2504.67
504.59	2484.19
504.79	2414.56
504.99	2361.31
505.19	2232.29
505.39	2170.85
505.59	2195.42
505.79	2023.39
505.99	2007.01
506.19	2043.87
506.39	2029.54
506.59	1886.18
506.79	1886.18
506.99	1992.67
507.19	1931.23
507.39	1886.18
507.59	1857.51
507.79	1828.84
507.99	1839.08
508.19	1886.18
508.39	1828.84
508.59	1873.89
508.79	1910.75
508.99	1964.00
509.19	1783.78
509.39	1890.28
509.59	1744.87
509.79	1853.41
509.99	1863.65
510.19	1882.08
510.39	1888.23
510.59	1931.23
510.79	1847.27
510.99	1779.68
511.19	1830.88
511.39	1880.04
511.59	1947.62
511.79	1910.75
511.99	1806.31
512.19	1871.84
512.38	1902.56
512.58	1796.07
512.78	1812.45
512.98	1890.28
513.18	1916.90
513.38	1791.97
513.58	1875.94
513.78	1818.60
513.98	1775.59
514.18	1812.45
514.38	1771.49
514.58	1843.17
514.78	1765.35
514.98	1810.40
515.18	1845.22
515.38	1755.11
515.58	1912.80
515.78	1746.92
515.98	1748.97
516.18	1855.46
516.38	1886.18
516.57	1837.03
516.77	1773.54
516.97	1818.60
517.17	1763.30
517.37	1771.49
517.57	1894.37
517.77	1746.92
517.97	1796.07
518.17	1863.65
518.37	1853.41
518.57	1789.92
518.77	1875.94
518.97	1873.89
519.16	1904.61
519.36	1906.66
519.56	1781.73
519.76	1806.31
519.96	1873.89
520.16	1953.76
520.36	1837.03
520.56	1875.94
520.76	1834.98
520.96	1794.02
521.16	1898.47
521.35	1845.22
521.55	2007.01
521.75	1824.74
521.95	1765.35
522.15	1849.32
522.35	1724.39
522.55	1853.41
522.75	1945.57
522.95	1841.12
523.14	1845.22
523.34	1863.65
523.54	1787.88
523.74	1955.81
523.94	1839.08
524.14	1818.60
524.34	1837.03
524.54	1867.75
524.73	1847.27
524.93	1867.75
525.13	1888.23
525.33	1726.44
525.53	1978.34
525.73	1865.70
525.93	1865.70
526.13	1808.36
526.32	1800.16
526.52	1925.09
526.72	1853.41
526.92	1804.26
527.12	1830.88
527.32	1718.25
527.52	1851.36
527.71	1884.13
527.91	1808.36
528.11	1755.11
528.31	1875.94
528.51	1781.73
528.71	1935.33
528.90	1900.52
529.10	1937.38
529.30	1964.00
529.50	1757.16
529.70	1855.46
529.90	1849.32
530.09	1884.13
530.29	1855.46
530.49	1802.21
530.69	1959.91
530.89	1826.79
531.09	1914.85
531.28	1824.74
531.48	1869.80
531.68	1853.41
531.88	1855.46
532.08	1867.75
532.28	1816.55
532.47	1865.70
532.67	1898.47
532.87	1863.65
533.07	1828.84
533.27	1908.71
533.46	1888.23
533.66	1857.51
533.86	1812.45
534.06	1873.89
534.26	1869.80
534.45	1773.54
534.65	1923.04
534.85	1832.93
535.05	1787.88
535.25	1875.94
535.44	1781.73
535.64	1898.47
535.84	1853.41
536.04	1837.03
536.24	1781.73
536.43	1718.25
536.63	1853.41
536.83	1837.03
537.03	1869.80
537.22	1687.53
537.42	1740.77
537.62	1861.60
537.82	1894.37
538.02	1910.75
538.21	2007.01
538.41	1982.43
538.61	1847.27
538.81	1773.54
539.00	1994.72
539.20	1763.30
539.40	1791.97
539.60	1877.99
539.79	1806.31
539.99	1834.98
540.19	1742.82
540.39	1843.17
540.58	1902.56
540.78	1892.32
540.98	1845.22
541.18	1920.99
541.37	1875.94
541.57	1839.08
541.77	1806.31
541.97	1763.30
542.16	1826.79
542.36	1857.51
542.56	1771.49
542.76	1951.71
542.95	1880.04
543.15	1845.22
543.35	1943.52
543.54	1761.25
543.74	1740.77
543.94	1951.71
544.14	1822.69
544.33	1839.08
544.53	1783.78
544.73	1812.45
544.93	1849.32
545.12	1794.02
545.32	1820.64
545.52	1834.98
545.71	1761.25
545.91	1822.69
546.11	1787.88
546.30	1841.12
546.50	1849.32
546.70	1828.84
546.90	1804.26
547.09	1722.34
547.29	1804.26
547.49	1906.66
547.68	1841.12
547.88	1834.98
548.08	1834.98
548.27	2361.31
548.47	1863.65
548.67	1847.27
548.87	1871.84
549.06	1798.12
549.26	1820.64
549.46	1882.08
549.65	1824.74
549.85	1894.37
550.05	1888.23
550.24	1759.21
550.44	1816.55
550.64	1855.46
550.83	1863.65
551.03	1931.23
551.23	1920.99
551.42	1845.22
551.62	1775.59
551.82	1832.93
552.01	1783.78
552.21	1943.52
552.41	1837.03
552.60	1964.00
552.80	1837.03
553.00	1861.60
553.19	1837.03
553.39	1974.24
553.59	1775.59
553.78	1875.94
553.98	1875.94
554.17	1771.49
554.37	1794.02
554.57	1886.18
554.76	1771.49
554.96	1845.22
555.16	1857.51
555.35	1834.98
555.55	1837.03
555.75	1953.76
555.94	1857.51
556.14	1759.21
556.33	1812.45
556.53	1806.31
556.73	1886.18
556.92	1937.38
557.12	1943.52
557.32	2021.35
557.51	1931.23
557.71	1877.99
557.90	1945.57
558.10	1923.04
558.30	1759.21
558.49	1890.28
558.69	1863.65
558.88	1812.45
559.08	1914.85
559.28	1785.83
559.47	1834.98
559.67	1869.80
559.86	1992.67
560.06	1877.99
560.26	1853.41
560.45	1826.79
560.65	1882.08
560.84	1943.52
561.04	1859.56
561.24	1871.84
561.43	1744.87
561.63	1939.43
561.82	1877.99
562.02	1882.08
562.22	1787.88
562.41	1710.05
562.61	1884.13
562.80	1765.35
563.00	2007.01
563.19	1918.95
563.39	1882.08
563.59	1900.52
563.78	1802.21
563.98	1775.59
564.17	1744.87
564.37	1708.01
564.56	1880.04
564.76	1830.88
564.96	1892.32
565.15	1943.52
565.35	2009.06
565.54	1802.21
565.74	1902.56
565.93	1826.79
566.13	1839.08
566.32	1853.41
566.52	1832.93
566.71	1800.16
566.91	1853.41
567.11	1886.18
567.30	1769.44
567.50	1826.79
567.69	1845.22
567.89	1779.68
568.08	1744.87
568.28	1826.79
568.47	1744.87
568.67	1933.28
568.86	1837.03
569.06	1855.46
569.25	1804.26
569.45	1734.63
569.64	1837.03
569.84	1789.92
570.04	1877.99
570.23	1828.84
570.43	1789.92
570.62	1841.12
570.82	2009.06
571.01	1769.44
571.21	1804.26
571.40	1773.54
571.60	1886.18
571.79	1867.75
571.99	1841.12
572.18	1785.83
572.38	1869.80
572.57	1861.60
572.77	1814.50
572.96	2000.87
573.16	1822.69
573.35	1816.55
573.55	1906.66
573.74	1945.57
573.94	1902.56
574.13	1781.73
574.33	1890.28
574.52	1931.23
574.71	1853.41
574.91	1853.41
575.10	1755.11
575.30	1816.55
575.49	1763.30
575.69	1816.55
575.88	1951.71
576.08	1863.65
576.27	1976.29
576.47	1918.95
576.66	1994.72
576.86	2035.68
577.05	1898.47
577.25	1906.66
577.44	1996.77
577.64	1800.16
577.83	1918.95
578.02	1830.88
578.22	1984.48
578.41	2000.87
578.61	1908.71
578.80	1800.16
579.00	1937.38
579.19	1861.60
579.39	1904.61
579.58	1904.61
579.77	1910.75
579.97	1951.71
580.16	1941.47
580.36	1953.76
580.55	2000.87
580.75	1869.80
580.94	1933.28
581.13	2000.87
581.33	1996.77
581.52	1929.19
581.72	2050.02
581.91	1902.56
582.11	1894.37
582.30	1976.29
582.49	1914.85
582.69	1951.71
582.88	1980.39
583.08	1871.84
583.27	1935.33
583.47	1945.57
583.66	1777.64
583.85	1808.36
584.05	1900.52
584.24	1945.57
584.44	1920.99
584.63	2002.91
584.82	1968.10
585.02	2090.98
585.21	2019.30
585.41	1982.43
585.60	2078.69
585.79	2099.17
585.99	2138.08
586.18	1998.82
586.37	2365.40
586.57	3649.48
586.76	10743.64
586.96	28522.06
587.15	43224.43
587.34	53097.69
587.54	59165.82
587.73	56523.94
587.93	40101.28
588.12	30074.42
588.31	23961.23
588.51	20596.42
588.70	18634.47
588.89	17436.41
589.09	15410.96
589.28	13461.30
589.47	11218.77
589.67	8994.68
589.86	6879.13
590.06	5195.70
590.25	4040.64
590.44	3190.74
590.64	2557.91
590.83	2238.43
591.02	2136.03
591.22	2025.44
591.41	1970.15
591.60	1898.47
591.80	2058.21
591.99	1914.85
592.18	1871.84
592.38	1953.76
592.57	1904.61
592.76	1888.23
592.96	1923.04
593.15	1857.51
593.34	2025.44
593.54	1865.70
593.73	1902.56
593.92	1925.09
594.12	1941.47
594.31	1931.23
594.50	2009.06
594.70	1974.24
594.89	2064.35
595.08	1820.64
595.28	1892.32
595.47	1998.82
595.66	1918.95
595.86	1826.79
596.05	1896.42
596.24	1927.14
596.43	1951.71
596.63	1968.10
596.82	1912.80
597.01	1896.42
597.21	1964.00
597.40	1894.37
597.59	1884.13
597.79	1931.23
597.98	1968.10
598.17	1902.56
598.36	1937.38
598.56	1834.98
598.75	1757.16
598.94	1937.38
599.14	1849.32
599.33	1818.60
599.52	1906.66
599.71	1845.22
599.91	1980.39
600.10	1916.90
600.29	1798.12
600.48	1849.32
600.68	1863.65
600.87	1902.56
601.06	1777.64
601.26	1814.50
601.45	1812.45
601.64	1898.47
601.83	1920.99
602.03	1798.12
602.22	1828.84
602.41	1902.56
602.60	2011.11
602.80	1908.71
602.99	1843.17
603.18	1847.27
603.37	1910.75
603.57	1800.16
603.76	1877.99
603.95	1910.75
604.14	1732.58
604.34	1763.30
604.53	1763.30
604.72	1859.56
604.91	1865.70
605.10	1849.32
605.30	1777.64
605.49	1982.43
605.68	1892.32
605.87	1880.04
606.07	1863.65
606.26	1841.12
606.45	1847.27
606.64	1804.26
606.84	1841.12
607.03	1871.84
607.22	2002.91
607.41	1808.36
607.60	1859.56
607.80	1916.90
607.99	1851.36
608.18	1857.51
608.37	1834.98
608.56	1847.27
608.76	1910.75
608.95	1980.39
609.14	1949.67
609.33	1976.29
609.52	2045.92
609.72	1943.52
609.91	2025.44
610.10	1931.23
610.29	2015.20
610.48	1927.14
610.68	1935.33
610.87	1875.94
611.06	1894.37
611.25	1845.22
611.44	1886.18
611.63	1849.32
611.83	1966.05
612.02	1875.94
612.21	1943.52
612.40	1730.53
612.59	1681.38
612.79	1787.88
612.98	1779.68
613.17	1955.81
613.36	1804.26
613.55	1986.53
613.74	1939.43
613.93	2013.15
614.13	2086.88
614.32	2097.12
614.51	2031.58
614.70	1902.56
614.89	1918.95
615.08	1890.28
615.28	2398.17
615.47	1859.56
615.66	1863.65
615.85	1935.33
616.04	2058.21
616.23	1904.61
616.42	1992.67
616.62	1927.14
616.81	1966.05
617.00	1927.14
617.19	1916.90
617.38	1896.42
617.57	1783.78
617.76	1941.47
617.95	1886.18
618.15	1984.48
618.34	2043.87
618.53	1828.84
618.72	1916.90
618.91	1964.00
619.10	1918.95
619.29	1845.22
619.48	1830.88
619.68	1800.16
619.87	1763.30
620.06	1771.49
620.25	1853.41
620.44	1787.88
620.63	1787.88
620.82	1925.09
621.01	1841.12
621.20	1855.46
621.39	1923.04
621.59	1933.28
621.78	1865.70
621.97	1871.84
622.16	1830.88
622.35	1880.04
622.54	1808.36
622.73	1914.85
622.92	1759.21
623.11	1916.90
623.30	1818.60
623.49	1875.94
623.68	1765.35
623.88	1923.04
624.07	1865.70
624.26	1851.36
624.45	1849.32
624.64	1832.93
624.83	1927.14
625.02	1761.25
625.21	1796.07
625.40	1847.27
625.59	1937.38
625.78	1771.49
625.97	2029.54
626.16	2013.15
626.35	1927.14
626.54	1929.19
626.74	1996.77
626.93	1892.32
627.12	1853.41
627.31	2011.11
627.50	1849.32
627.69	1943.52
627.88	1763.30
628.07	1857.51
628.26	1734.63
628.45	1812.45
628.64	1783.78
628.83	1841.12
629.02	1804.26
629.21	1849.32
629.40	1841.12
629.59	1861.60
629.78	1785.83
629.97	1873.89
630.16	1845.22
630.35	1869.80
630.54	1918.95
630.73	1753.06
630.92	1886.18
631.11	1712.10
631.30	1875.94
631.49	1937.38
631.68	1843.17
631.87	1849.32
632.06	1787.88
632.25	2031.58
632.44	1871.84
632.63	1912.80
632.82	1896.42
633.01	1849.32
633.20	1904.61
633.39	1810.40
633.58	1802.21
633.77	1861.60
633.96	1906.66
634.15	1898.47
634.34	1890.28
634.53	1830.88
634.72	1808.36
634.91	1845.22
635.10	1832.93
635.29	1955.81
635.48	1800.16
635.67	1724.39
635.86	1736.68
636.05	1955.81
636.24	1794.02
636.43	1843.17
636.62	1892.32
636.81	1755.11
637.00	1867.75
637.19	1828.84
637.38	1828.84
637.57	1839.08
637.76	1904.61
637.95	1939.43
638.14	1857.51
638.33	1980.39
638.52	1959.91
638.71	1806.31
638.89	1832.93
639.08	1961.95
639.27	1986.53
639.46	2002.91
639.65	2336.73
639.84	2402.27
640.03	2508.76
640.22	2486.23
640.41	2574.30
640.60	2181.09
640.79	2176.99
640.98	2045.92
641.17	2029.54
641.36	1996.77
641.55	2000.87
641.74	1880.04
641.92	1867.75
642.11	1882.08
642.30	1918.95
642.49	1826.79
642.68	1755.11
642.87	1877.99
643.06	1800.16
643.25	1730.53
643.44	1773.54
643.63	1800.16
643.82	1920.99
644.00	1767.40
644.19	1824.74
644.38	1736.68
644.57	1857.51
644.76	1832.93
644.95	1822.69
645.14	1816.55
645.33	1804.26
645.52	1828.84
645.71	1755.11
645.89	1816.55
646.08	1800.16
646.27	1839.08
646.46	1923.04
646.65	1765.35
646.84	1804.26
647.03	1716.20
647.22	1900.52
647.40	1794.02
647.59	1820.64
647.78	1730.53
647.97	1724.39
648.16	1720.29
648.35	1931.23
648.54	1904.61
648.73	1800.16
648.91	1933.28
649.10	1812.45
649.29	1775.59
649.48	1748.97
649.67	1861.60
649.86	1920.99
650.05	1865.70
650.23	2025.44
650.42	1941.47
650.61	2033.63
650.80	2017.25
650.99	2168.80
651.18	1982.43
651.36	1916.90
651.55	1785.83
651.74	1888.23
651.93	1865.70
652.12	1783.78
652.31	1853.41
652.49	1886.18
652.68	1894.37
652.87	1929.19
653.06	1894.37
653.25	1871.84
653.44	1861.60
653.62	1957.86
653.81	1796.07
654.00	1806.31
654.19	1943.52
654.38	2031.58
654.56	1828.84
654.75	1837.03
654.94	1839.08
655.13	1824.74
655.32	1771.49
655.51	1882.08
655.69	1767.40
655.88	1896.42
656.07	1773.54
656.26	1937.38
656.45	1718.25
656.63	1810.40
656.82	1914.85
657.01	1902.56
657.20	1781.73
657.38	1923.04
657.57	1812.45
657.76	1728.49
657.95	1877.99
658.14	1783.78
658.32	1837.03
658.51	1728.49
658.70	1880.04
658.89	1804.26
659.08	1832.93
659.26	1904.61
659.45	1894.37
659.64	1927.14
659.83	1841.12
660.01	2058.21
660.20	1849.32
660.39	2021.35
660.58	1716.20
660.76	1937.38
660.95	1773.54
661.14	1935.33
661.33	1861.60
661.51	1783.78
661.70	1791.97
661.89	1859.56
662.08	1832.93
662.26	1771.49
662.45	1851.36
662.64	1918.95
662.83	1861.60
663.01	1738.73
663.20	1779.68
663.39	1929.19
663.58	1771.49
663.76	1794.02
663.95	1796.07
664.14	1755.11
664.32	1802.21
664.51	1740.77
664.70	1828.84
664.89	1834.98
665.07	1722.34
665.26	1894.37
665.45	1732.58
665.64	1882.08
665.82	1826.79
666.01	1910.75
666.20	1763.30
666.38	1880.04
666.57	1974.24
666.76	2502.62
666.95	5660.59
667.13	13465.39
667.32	19838.67
667.51	23559.83
667.69	25990.77
667.88	25915.00
668.07	19369.69
668.25	14358.31
668.44	11814.73
668.63	9938.79
668.81	8806.27
669.00	7659.40
669.19	6899.61
669.38	6240.16
669.56	5263.28
669.75	4605.88
669.94	3723.21
670.12	3084.24
670.31	2592.73
670.50	2291.68
670.68	2220.00
670.87	1998.82
671.06	1918.95
671.24	1986.53
671.43	2074.59
671.62	1882.08
671.80	1935.33
671.99	1849.32
672.18	1908.71
672.36	1992.67
672.55	1916.90
672.74	1853.41
672.92	1886.18
673.11	1849.32
673.29	1732.58
673.48	1947.62
673.67	1748.97
673.85	1957.86
674.04	1832.93
674.23	1822.69
674.41	1966.05
674.60	1714.15
674.79	1761.25
674.97	1769.44
675.16	1861.60
675.34	1892.32
675.53	1837.03
675.72	1900.52
675.90	1933.28
676.09	1822.69
676.28	1802.21
676.46	1699.81
676.65	1820.64
676.83	1777.64
677.02	1740.77
677.21	1808.36
677.39	1828.84
677.58	1830.88
677.77	1742.82
677.95	1822.69
678.14	1847.27
678.32	1812.45
678.51	1796.07
678.70	1959.91
678.88	1775.59
679.07	1802.21
679.25	1826.79
679.44	1775.59
679.63	1830.88
679.81	1824.74
680.00	1927.14
680.18	1890.28
680.37	1875.94
680.55	1865.70
680.74	1800.16
680.93	1691.62
681.11	1914.85
681.30	1863.65
681.48	1880.04
681.67	1808.36
681.85	1880.04
682.04	1771.49
682.23	1839.08
682.41	1900.52
682.60	1828.84
682.78	1767.40
682.97	1755.11
683.15	1875.94
683.34	1814.50
683.53	1904.61
683.71	1730.53
683.90	1964.00
684.08	1945.57
684.27	1806.31
684.45	1882.08
684.64	1931.23
684.82	1728.49
685.01	1834.98
685.19	1826.79
685.38	1937.38
685.57	1800.16
685.75	1773.54
685.94	1837.03
686.12	1824.74
686.31	1837.03
686.49	1877.99
686.68	1710.05
686.86	1900.52
687.05	1828.84
687.23	1984.48
687.42	1816.55
687.60	1804.26
687.79	1834.98
687.97	1972.19
688.16	1904.61
688.34	1972.19
688.53	1703.91
688.71	1796.07
688.90	1918.95
689.08	1798.12
689.27	1742.82
689.45	1884.13
689.64	1820.64
689.82	1794.02
690.01	1808.36
690.19	1871.84
690.38	1789.92
690.56	1873.89
690.75	1781.73
690.93	1781.73
691.12	1796.07
691.30	1877.99
691.49	1765.35
691.67	1849.32
691.86	1976.29
692.04	1810.40
692.23	1783.78
692.41	1830.88
692.60	1972.19
692.78	1955.81
692.97	1902.56
693.15	1959.91
693.34	1951.71
693.52	1906.66
693.71	1828.84
693.89	1746.92
694.08	1738.73
694.26	1955.81
694.44	1906.66
694.63	1884.13
694.81	1832.93
695.00	1785.83
695.18	1923.04
695.37	1927.14
695.55	1847.27
695.74	1798.12
695.92	1761.25
696.10	1982.43
696.29	1759.21
696.47	1853.41
696.66	1705.96
696.84	1804.26
697.03	1806.31
697.21	1890.28
697.40	2432.99
697.58	1902.56
697.76	1753.06
697.95	1744.87
698.13	1732.58
698.32	1798.12
698.50	1818.60
698.68	1873.89
698.87	1861.60
699.05	1873.89
699.24	1796.07
699.42	1757.16
699.61	1814.50
699.79	1849.32
699.97	1837.03
700.16	1695.72
700.34	1753.06
700.53	1787.88
700.71	1941.47
700.89	1855.46
701.08	1869.80
701.26	1834.98
701.45	2338.78
701.63	1869.80
701.81	1767.40
702.00	1757.16
702.18	1847.27
702.37	1886.18
702.55	2062.30
702.73	1947.62
702.92	1898.47
703.10	2191.33
703.28	2125.79
703.47	1988.58
703.65	2050.02
703.84	1994.72
704.02	1933.28
704.20	2017.25
704.39	1886.18
704.57	1898.47
704.75	1968.10
704.94	1904.61
705.12	1888.23
705.30	2029.54
705.49	2979.79
705.67	7149.46
705.86	15877.90
706.04	21309.11
706.22	24759.94
706.41	27098.72
706.59	25523.83
706.77	18663.14
706.96	14157.61
707.14	12097.35
707.32	10364.77
707.51	9195.38
707.69	8079.24
707.87	6709.15
708.06	5296.05
708.24	4319.17
708.42	3215.31
708.61	2846.68
708.79	2340.83
708.97	2099.17
709.16	2099.17
709.34	1949.67
709.52	1937.38
709.71	1859.56
709.89	1871.84
710.07	1726.44
710.26	1814.50
710.44	1767.40
710.62	1888.23
710.80	1877.99
710.99	1910.75
711.17	1898.47
711.35	1789.92
711.54	1796.07
711.72	1910.75
711.90	1841.12
712.09	1894.37
712.27	1759.21
712.45	1912.80
712.63	1853.41
712.82	1828.84
713.00	1810.40
713.18	1865.70
713.37	1806.31
713.55	1828.84
713.73	1875.94
713.91	1785.83
714.10	1734.63
714.28	1791.97
714.46	1861.60
714.65	1830.88
714.83	1886.18
715.01	1863.65
715.19	1830.88
715.38	1796.07
715.56	1865.70
715.74	1804.26
715.92	1765.35
716.11	1894.37
716.29	1736.68
716.47	1759.21
716.65	1755.11
716.84	1734.63
717.02	1859.56
717.20	1738.73
717.38	1794.02
717.57	1820.64
717.75	1877.99
717.93	1828.84
718.11	1837.03
718.30	1767.40
718.48	1818.60
718.66	1869.80
718.84	1826.79
719.03	1830.88
719.21	1841.12
719.39	1896.42
719.57	1914.85
719.75	1925.09
719.94	1681.38
720.12	1800.16
720.30	1894.37
720.48	1843.17
720.67	1777.64
720.85	1826.79
721.03	1808.36
721.21	1779.68
721.39	1867.75
721.58	1947.62
721.76	1777.64
721.94	1818.60
722.12	1839.08
722.30	1896.42
722.49	1781.73
722.67	1861.60
722.85	1757.16
723.03	1775.59
723.21	1845.22
723.40	1849.32
723.58	1959.91
723.76	1951.71
723.94	1902.56
724.12	1925.09
724.30	1894.37
724.49	2041.82
724.67	1867.75
724.85	1918.95
725.03	1767.40
725.21	1910.75
725.40	1949.67
725.58	1730.53
725.76	1877.99
725.94	1892.32
726.12	1839.08
726.30	1853.41
726.49	1796.07
726.67	1845.22
726.85	1830.88
727.03	1955.81
727.21	2691.03
727.39	4151.23
727.57	5486.51
727.76	6117.28
727.94	6580.12
728.12	6743.96
728.30	5670.83
728.48	4605.88
728.66	4167.62
728.84	3751.88
729.03	3250.13
729.21	2889.68
729.39	2488.28
729.57	2220.00
729.75	2168.80
729.93	1959.91
730.11	1847.27
730.30	1882.08
730.48	1816.55
730.66	1906.66
730.84	1941.47
731.02	1880.04
731.20	1812.45
731.38	1830.88
731.56	1658.85
731.74	1742.82
731.93	1912.80
732.11	1800.16
732.29	1767.40
732.47	1861.60
732.65	1882.08
732.83	1955.81
733.01	1941.47
733.19	1771.49
733.37	1804.26
733.56	1769.44
733.74	1757.16
733.92	1880.04
734.10	1718.25
734.28	1765.35
734.46	1683.43
734.64	1777.64
734.82	1732.58
735.00	1779.68
735.18	1773.54
735.36	1738.73
735.54	1812.45
735.73	1779.68
735.91	1800.16
736.09	1849.32
736.27	1775.59
736.45	1834.98
736.63	1662.95
736.81	1744.87
736.99	1906.66
737.17	1980.39
737.35	1722.34
737.53	1826.79
737.71	1839.08
737.89	2009.06
738.07	1814.50
738.25	1722.34
738.43	1697.77
738.61	1804.26
738.80	1701.86
738.98	1742.82
739.16	1751.01
739.34	1765.35
739.52	1865.70
739.70	1849.32
739.88	1875.94
740.06	1853.41
740.24	1699.81
740.42	1849.32
740.60	1748.97
740.78	1765.35
740.96	1654.76
741.14	1828.84
741.32	1724.39
741.50	1738.73
741.68	1951.71
741.86	1841.12
742.04	1781.73
742.22	1681.38
742.40	1789.92
742.58	1877.99
742.76	1769.44
742.94	1947.62
743.12	1742.82
743.30	1832.93
743.48	1871.84
743.66	1761.25
743.84	1908.71
744.02	1751.01
744.20	1873.89
744.38	1777.64
744.56	1726.44
744.74	1980.39
744.92	1869.80
745.10	1957.86
745.28	1857.51
745.46	1980.39
745.64	1794.02
745.82	1906.66
746.00	1726.44
746.18	1839.08
746.36	1697.77
746.54	1837.03
746.72	1845.22
746.90	1744.87
747.08	1888.23
747.26	1798.12
747.44	1861.60
747.62	1865.70
747.80	1783.78
747.98	1853.41
748.15	1816.55
748.33	1939.43
748.51	1861.60
748.69	1892.32
748.87	1828.84
749.05	1779.68
749.23	1789.92
749.41	1843.17
749.59	1755.11
749.77	1923.04
749.95	1779.68
750.13	1789.92
750.31	1853.41
750.49	1804.26
750.67	1920.99
750.85	1953.76
751.03	1824.74
751.20	1929.19
751.38	1781.73
751.56	1849.32
751.74	1826.79
751.92	1826.79
752.10	1685.48
752.28	1830.88
752.46	1794.02
752.64	1794.02
752.82	1882.08
753.00	1847.27
753.18	1783.78
753.35	1869.80
753.53	1808.36
753.71	1873.89
753.89	1912.80
754.07	1806.31
754.25	1845.22
754.43	1834.98
754.61	1767.40
754.79	1775.59
754.97	1781.73
755.14	1898.47
755.32	1736.68
755.50	1916.90
755.68	1783.78
755.86	1763.30
756.04	1863.65
756.22	1728.49
756.40	1865.70
756.57	1908.71
756.75	1740.77
756.93	1869.80
757.11	1920.99
757.29	1720.29
757.47	1744.87
757.65	1748.97
757.82	1642.47
758.00	1763.30
758.18	1757.16
758.36	1857.51
758.54	1947.62
758.72	1681.38
758.90	1851.36
759.07	1812.45
759.25	1742.82
759.43	1810.40
759.61	1685.48
759.79	2381.79
759.97	1855.46
760.15	1820.64
760.32	1777.64
760.50	1837.03
760.68	1933.28
760.86	1748.97
761.04	1918.95
761.22	1910.75
761.39	1837.03
761.57	1789.92
761.75	1834.98
761.93	1834.98
762.11	1859.56
762.28	1847.27
762.46	1779.68
762.64	1941.47
762.82	1718.25
763.00	1777.64
763.18	1947.62
763.35	1748.97
763.53	1847.27
763.71	1810.40
763.89	1841.12
764.07	1796.07
764.24	1826.79
764.42	1865.70
764.60	1802.21
764.78	1853.41
764.96	1810.40
765.13	1814.50
765.31	1796.07
765.49	1763.30
765.67	1773.54
765.84	1806.31
766.02	1804.26
766.20	1699.81
766.38	1802.21
766.56	1908.71
766.73	1865.70
766.91	1787.88
767.09	1865.70
767.27	1824.74
767.44	1736.68
767.62	1820.64
767.80	1849.32
767.98	1779.68
768.15	1759.21
768.33	1789.92
768.51	1857.51
768.69	1890.28
768.87	1837.03
769.04	1736.68
769.22	1945.57
769.40	1918.95
769.58	1937.38
769.75	1882.08
769.93	1855.46
770.11	1796.07
770.28	1841.12
770.46	1871.84
770.64	1785.83
770.82	1798.12
770.99	1740.77
771.17	1787.88
771.35	1759.21
771.53	1794.02
771.70	1802.21
771.88	1808.36
772.06	1765.35
772.23	1722.34
772.41	1806.31
772.59	1800.16
772.77	1767.40
772.94	1779.68
773.12	1787.88
773.30	1738.73
773.47	1837.03
773.65	1746.92
773.83	1906.66
774.01	1820.64
774.18	1720.29
774.36	1783.78
774.54	1769.44
774.71	1775.59
774.89	1732.58
775.07	1814.50
775.24	1812.45
775.42	1798.12
775.60	1877.99
775.78	1773.54
775.95	1773.54
776.13	1714.15
776.31	1722.34
776.48	1798.12
776.66	1898.47
776.84	1777.64
777.01	1771.49
777.19	1730.53
777.37	1789.92
777.54	1875.94
777.72	1961.95
777.90	1832.93
778.07	1787.88
778.25	1976.29
778.43	1935.33
778.60	1738.73
778.78	1849.32
778.96	1834.98
779.13	1705.96
779.31	1867.75
779.49	1773.54
779.66	1804.26
779.84	1787.88
780.01	1841.12
780.19	1734.63
780.37	1830.88
780.54	1812.45
780.72	1751.01
780.90	1775.59
781.07	1751.01
781.25	1765.35
781.43	1847.27
781.60	1779.68
781.78	1863.65
781.95	1789.92
782.13	1789.92
782.31	1755.11
782.48	1728.49
782.66	1908.71
782.83	2039.78
783.01	1869.80
783.19	1877.99
783.36	1800.16
783.54	1832.93
783.72	1894.37
783.89	1794.02
784.07	1787.88
784.24	1847.27
784.42	1855.46
784.60	1771.49
784.77	1837.03
784.95	1654.76
785.12	1812.45
785.30	1814.50
785.47	1861.60
785.65	1767.40
785.83	1820.64
786.00	1732.58
786.18	1814.50
786.35	1728.49
786.53	1767.40
786.71	1900.52
786.88	1816.55
787.06	1832.93
787.23	1863.65
787.41	1736.68
787.58	1759.21
787.76	1769.44
787.94	1800.16
788.11	1791.97
788.29	1787.88
788.46	1794.02
788.64	1722.34
788.81	1779.68
788.99	1757.16
789.16	1789.92
789.34	1871.84
789.52	1742.82
789.69	1759.21
789.87	1669.09
790.04	1841.12
790.22	1761.25
790.39	1918.95
790.57	1644.52
790.74	1718.25
790.92	1843.17
791.09	1791.97
791.27	1865.70
791.44	1869.80
791.62	1759.21
791.79	1841.12
791.97	1804.26
792.15	1984.48
792.32	1849.32
792.50	1822.69
792.67	1871.84
792.85	1892.32
793.02	1777.64
793.20	1740.77
793.37	1724.39
793.55	1828.84
793.72	1730.53
793.90	1828.84
794.07	1796.07
794.25	1751.01
794.42	1832.93
794.60	1796.07
794.77	1839.08
794.95	1851.36
795.12	1834.98
795.30	1877.99
795.47	1746.92
795.65	1908.71
795.82	1886.18
796.00	1738.73
796.17	1742.82
796.34	1755.11
796.52	1925.09
796.69	1886.18
796.87	1859.56
797.04	1802.21
797.22	1837.03
797.39	1843.17
797.57	1890.28
797.74	1873.89
797.92	1830.88
798.09	1787.88
798.27	1882.08
798.44	1791.97
798.62	1798.12
798.79	1769.44
798.96	1843.17
799.14	1855.46
799.31	2004.96
799.49	1767.40
799.66	1744.87
799.84	1849.32
800.01	1724.39
800.19	1818.60
800.36	1705.96
800.53	1806.31
800.71	1853.41
800.88	1861.60
801.06	1765.35
801.23	1714.15
801.41	1789.92
801.58	1847.27
801.75	1859.56
801.93	1806.31
802.10	1849.32
802.28	1777.64
802.45	1730.53
802.63	1742.82
802.80	1896.42
802.97	1763.30
803.15	1814.50
803.32	1800.16
803.50	1798.12
803.67	1767.40
803.84	1728.49
804.02	1804.26
804.19	1757.16
804.37	1652.71
804.54	1755.11
804.71	1783.78
804.89	1708.01
805.06	1673.19
805.24	1728.49
805.41	1722.34
805.58	1742.82
805.76	1894.37
805.93	1834.98
806.10	1937.38
806.28	1843.17
806.45	1787.88
806.63	1871.84
806.80	1839.08
806.97	1847.27
807.15	1789.92
807.32	1800.16
807.49	1843.17
807.67	1787.88
807.84	1892.32
808.01	1714.15
808.19	2035.68
808.36	1925.09
808.54	1804.26
808.71	1675.24
808.88	1855.46
809.06	1896.42
809.23	1927.14
809.40	1748.97
809.58	1912.80
809.75	1744.87
809.92	1724.39
810.10	1955.81
810.27	1808.36
810.44	1877.99
810.62	1877.99
810.79	1810.40
810.96	1734.63
811.14	1796.07
811.31	1791.97
811.48	1804.26
811.66	1765.35
811.83	1849.32
812.00	1775.59
812.18	1861.60
812.35	1976.29
812.52	1722.34
812.69	1791.97
812.87	1822.69
813.04	1785.83
813.21	1751.01
813.39	1773.54
813.56	1736.68
813.73	1855.46
813.91	1722.34
814.08	1789.92
814.25	1794.02
814.42	1683.43
814.60	1828.84
814.77	1837.03
814.94	1826.79
815.12	1789.92
815.29	1863.65
815.46	1718.25
815.63	1824.74
815.81	1763.30
815.98	1751.01
816.15	1855.46
816.33	1746.92
816.50	1804.26
816.67	1759.21
816.84	1779.68
817.02	1759.21
817.19	1822.69
817.36	1814.50
817.53	1830.88
817.71	1800.16
817.88	1869.80
818.05	1722.34
818.22	1748.97
818.40	1945.57
818.57	1775.59
818.74	1845.22
818.91	1763.30
819.09	1812.45
819.26	1849.32
819.43	1822.69
819.60	1822.69
819.78	1902.56
819.95	1863.65
820.12	1839.08
820.29	1814.50
820.47	1900.52
820.64	1785.83
820.81	1640.42
820.98	1748.97
821.15	1738.73
821.33	1875.94
821.50	1705.96
821.67	1861.60
821.84	1738.73
822.02	1845.22
822.19	1855.46
822.36	1791.97
822.53	1796.07
822.70	1857.51
822.88	1759.21
823.05	1959.91
823.22	1834.98
823.39	1728.49
823.56	1769.44
823.74	1877.99
823.91	1812.45
824.08	1757.16
824.25	1761.25
824.42	1927.14
824.60	1724.39
824.77	1863.65
824.94	1849.32
825.11	1873.89
825.28	1699.81
825.45	1830.88
825.63	1767.40
825.80	1734.63
825.97	1867.75
826.14	1734.63
826.31	1759.21
826.48	1832.93
826.66	1789.92
826.83	1757.16
827.00	1769.44
827.17	1755.11
827.34	1802.21
827.51	1812.45
827.69	1777.64
827.86	1798.12
828.03	1882.08
828.20	1845.22
828.37	1791.97
828.54	1798.12
828.71	1789.92
828.89	1859.56
829.06	1775.59
829.23	1906.66
829.40	1742.82
829.57	1789.92
829.74	1906.66
829.91	1814.50
830.09	1755.11
830.26	1828.84
830.43	1916.90
830.60	1812.45
830.77	1943.52
830.94	1900.52
831.11	1871.84
831.28	1783.78
831.46	1808.36
831.63	1826.79
831.80	1849.32
831.97	1820.64
832.14	1800.16
832.31	1812.45
832.48	1779.68
832.65	1916.90
832.82	1736.68
832.99	1908.71
833.17	1736.68
833.34	1978.34
833.51	1828.84
833.68	1751.01
833.85	1877.99
834.02	1818.60
834.19	1779.68
834.36	1744.87
834.53	1763.30
834.70	1869.80
834.87	1888.23
835.04	1699.81
835.22	1732.58
835.39	1796.07
835.56	1822.69
835.73	1767.40
835.90	1927.14
836.07	1730.53
836.24	1834.98
836.41	1800.16
836.58	1804.26
836.75	1908.71
836.92	1865.70
837.09	1800.16
837.26	1918.95
837.43	1869.80
837.60	1869.80
837.77	1779.68
837.94	1884.13
838.12	1871.84
838.29	1898.47
838.46	1732.58
838.63	1755.11
838.80	1908.71
838.97	1837.03
839.14	1816.55
839.31	1779.68
839.48	1882.08
839.65	1791.97
839.82	1808.36
839.99	1820.64
840.16	1824.74
840.33	1806.31
840.50	1892.32
840.67	1781.73
840.84	1685.48
841.01	1812.45
841.18	1769.44
841.35	1816.55
841.52	1851.36
841.69	1929.19
841.86	1812.45
842.03	1867.75
842.20	1912.80
842.37	1814.50
842.54	1843.17
842.71	1802.21
842.88	1775.59
843.05	1896.42
843.22	1814.50
843.39	1886.18
843.56	1791.97
843.73	1888.23
843.90	1830.88
844.07	1779.68
844.24	1855.46
844.41	1896.42
844.58	1828.84
844.75	1849.32
844.92	1812.45
845.09	1826.79
845.26	1791.97
845.43	1820.64
845.60	1806.31
845.77	1871.84
845.94	1880.04
846.10	1886.18
846.27	1732.58
846.44	1759.21
846.61	1744.87
846.78	1808.36
846.95	1843.17
847.12	1798.12
847.29	1826.79
847.46	1726.44
847.63	1853.41
847.80	1794.02
847.97	1783.78
848.14	1912.80
848.31	1806.31
848.48	1804.26
848.65	1816.55
848.82	1773.54
848.98	1959.91
849.15	1820.64
849.32	1839.08
849.49	1837.03
849.66	1794.02
849.83	1867.75
850.00	1695.72
850.17	1816.55
850.34	1787.88
850.51	1722.34
850.68	1755.11
850.85	1918.95
851.01	1861.60
851.18	1869.80
851.35	1773.54
851.52	1791.97
851.69	1933.28
851.86	1757.16
852.03	1832.93
852.20	1914.85
852.37	1820.64
852.53	1763.30
852.70	1783.78
852.87	1849.32
853.04	1910.75
853.21	1761.25
853.38	1798.12
853.55	1880.04
853.72	1875.94
853.89	1839.08
854.05	1783.78
854.22	1794.02
854.39	1804.26
854.56	1796.07
854.73	1828.84
854.90	1759.21
855.07	1785.83
855.23	1783.78
855.40	1804.26
855.57	1787.88
855.74	1716.20
855.91	1953.76
856.08	1697.77
856.25	1730.53
856.41	1814.50
856.58	1763.30
856.75	1849.32
856.92	1699.81
857.09	1947.62
857.26	1791.97
857.42	1755.11
857.59	1861.60
857.76	1822.69
857.93	1880.04
858.10	1818.60
858.27	1744.87
858.43	1789.92
858.60	1873.89
858.77	1787.88
858.94	1738.73
859.11	1900.52
859.27	1843.17
859.44	1798.12
859.61	1972.19
859.78	1875.94
859.95	1775.59
860.12	1675.24
860.28	1955.81
860.45	1945.57
860.62	1820.64
860.79	1763.30
860.95	1785.83
861.12	1820.64
861.29	1734.63
861.46	1718.25
861.63	1847.27
861.79	1787.88
861.96	1728.49
862.13	1736.68
862.30	1853.41
862.47	1806.31
862.63	1736.68
862.80	1861.60
862.97	1824.74
863.14	1841.12
863.30	1877.99
863.47	1769.44
863.64	1914.85
863.81	1802.21
863.97	1791.97
864.14	1837.03
864.31	1814.50
864.48	1767.40
864.65	1742.82
864.81	1861.60
864.98	1849.32
865.15	1853.41
865.32	1826.79
865.48	1890.28
865.65	1906.66
865.82	1824.74
865.98	1841.12
866.15	1826.79
866.32	1800.16
866.49	1787.88
866.65	1841.12
866.82	1761.25
866.99	1847.27
867.16	1726.44
867.32	1794.02
867.49	1800.16
867.66	1791.97
867.83	1824.74
867.99	1681.38
868.16	1834.98
868.33	1742.82
868.49	1861.60
868.66	1861.60
868.83	1884.13
868.99	1826.79
869.16	1804.26
869.33	1859.56
869.50	1877.99
869.66	1851.36
869.83	1818.60
870.00	1718.25
870.16	1783.78
870.33	1748.97
870.50	1820.64
870.66	1810.40
870.83	2004.96
871.00	1804.26
871.17	1834.98
871.33	1847.27
871.50	1736.68
871.67	1765.35
871.83	1673.19
872.00	1947.62
872.17	1777.64
872.33	1873.89
872.50	1843.17
872.67	1710.05
872.83	1796.07
873.00	1863.65
873.17	1791.97
873.33	1822.69
873.50	1812.45
873.67	1748.97
873.83	1798.12
874.00	1812.45
874.16	1890.28
874.33	1880.04
874.50	1787.88
874.66	1859.56
874.83	1810.40
875.00	1765.35
875.16	1812.45
875.33	1841.12
875.50	1701.86
875.66	1818.60
875.83	1902.56
875.99	1877.99
876.16	1796.07
876.33	1767.40
876.49	1816.55
876.66	1824.74
876.83	1779.68
876.99	1738.73
877.16	1767.40
877.32	1787.88
877.49	1753.06
877.66	1847.27
877.82	1908.71
877.99	1812.45
878.15	1832.93
878.32	1781.73
878.49	1832.93
878.65	1697.77
878.82	1902.56
878.98	1763.30
879.15	1810.40
879.32	1828.84
879.48	1812.45
879.65	1796.07
879.81	1751.01
879.98	1748.97
880.15	1806.31
880.31	1769.44
880.48	1734.63
880.64	1847.27
880.81	1771.49
880.97	1902.56
881.14	1918.95
881.31	1773.54
881.47	1933.28
881.64	1742.82
881.80	1724.39
881.97	1806.31
882.13	1781.73
882.30	1785.83
882.47	1699.81
882.63	1767.40
882.80	1779.68
882.96	1834.98
883.13	1882.08
883.29	1843.17
883.46	1875.94
883.62	1910.75
883.79	1789.92
883.95	1884.13
884.12	1812.45
884.29	1875.94
884.45	1791.97
884.62	1859.56
884.78	1740.77
884.95	1834.98
885.11	1789.92
885.28	1865.70
885.44	1744.87
885.61	1898.47
885.77	1941.47
885.94	1785.83
886.10	1755.11
886.27	1849.32
886.43	1943.52
886.60	1912.80
886.76	1794.02
886.93	1671.14
887.09	1910.75
887.26	1718.25
887.42	1839.08
887.59	1894.37
887.75	1865.70
887.92	1849.32
888.08	1890.28
888.25	2017.25
888.41	1789.92
888.58	1796.07
888.74	1781.73
888.91	1773.54
>>>>>End Processed Spectral Data<<<<<
